Time Pitch Intensity
0.01 --undefined-- --undefined--
0.02 --undefined-- --undefined--
0.03 --undefined-- --undefined--
0.04 --undefined-- --undefined--
0.05 --undefined-- 38.130
0.06 --undefined-- 40.708
0.07 --undefined-- 43.116
0.08 --undefined-- 44.700
0.09 --undefined-- 47.353
0.10 90.824 52.898
0.11 91.994 59.490
0.12 87.773 65.147
0.13 82.455 69.210
0.14 82.778 71.830
0.15 77.748 73.293
0.16 --undefined-- 73.460
0.17 74.494 72.295
0.18 74.774 70.348
0.19 75.927 67.835
0.20 76.598 63.978
0.21 77.075 58.661
0.22 78.086 53.049
0.23 --undefined-- 48.601
0.24 --undefined-- 45.352
0.25 --undefined-- 43.783
0.26 --undefined-- 46.844
0.27 --undefined-- 53.775
0.28 93.331 60.255
0.29 96.919 65.305
0.30 101.544 69.153
0.31 105.109 71.704
0.32 109.577 72.770
0.33 111.963 71.868
0.34 115.239 68.594
0.35 --undefined-- 62.671
0.36 --undefined-- 54.441
0.37 --undefined-- 45.558
0.38 --undefined-- 37.005
0.39 --undefined-- 27.704
0.40 --undefined-- 20.697
0.41 --undefined-- 17.517
0.42 --undefined-- 14.034
0.43 --undefined-- 8.812
0.44 --undefined-- 6.928
0.45 --undefined-- 5.651
0.46 --undefined-- 3.810
0.47 --undefined-- 3.318
0.48 --undefined-- 2.980
0.49 --undefined-- 1.088
0.50 --undefined-- -1.017
0.51 --undefined-- -0.589
0.52 --undefined-- 0.178
0.53 --undefined-- 0.124
0.54 --undefined-- 0.920
0.55 --undefined-- 3.284
0.56 --undefined-- 7.318
0.57 --undefined-- 10.103
0.58 --undefined-- 9.833
0.59 --undefined-- 7.635
0.60 --undefined-- 5.472
0.61 --undefined-- 2.606
0.62 --undefined-- -0.793
0.63 --undefined-- -2.137
0.64 --undefined-- -2.046
0.65 --undefined-- -1.977
0.66 --undefined-- -2.243
0.67 --undefined-- -2.730
0.68 --undefined-- -2.849
0.69 --undefined-- -2.900
0.70 --undefined-- -2.934
0.71 --undefined-- -2.390
0.72 --undefined-- -1.381
0.73 --undefined-- 0.019
0.74 --undefined-- 2.019
0.75 --undefined-- 4.226
0.76 --undefined-- 6.687
0.77 --undefined-- 10.710
0.78 --undefined-- 13.941
0.79 --undefined-- 15.505
0.80 --undefined-- 18.730
0.81 --undefined-- 24.526
0.82 --undefined-- 27.952
0.83 --undefined-- 29.399
0.84 --undefined-- 32.405
0.85 --undefined-- 36.266
0.86 --undefined-- 40.928
0.87 --undefined-- 50.806
0.88 --undefined-- 61.875
0.89 --undefined-- 69.415
0.90 --undefined-- 73.591
0.91 113.623 75.346
0.92 113.717 75.652
0.93 113.871 74.907
0.94 113.255 72.786
0.95 126.290 69.691
0.96 133.169 68.025
0.97 135.154 68.162
0.98 136.430 68.495
0.99 137.133 68.379
1.00 138.338 69.781
1.01 143.125 73.307
1.02 144.115 75.640
1.03 145.514 76.212
1.04 147.694 75.783
1.05 149.139 74.785
1.06 157.814 73.441
1.07 158.892 72.444
1.08 159.139 71.623
1.09 158.333 70.626
1.10 161.197 70.753
1.11 164.452 72.009
1.12 167.041 72.977
1.13 167.451 73.338
1.14 167.091 73.011
1.15 165.665 71.606
1.16 159.700 68.592
1.17 150.679 63.639
1.18 --undefined-- 56.734
1.19 --undefined-- 48.675
1.20 --undefined-- 42.090
1.21 --undefined-- 41.333
1.22 --undefined-- 45.230
1.23 --undefined-- 49.941
1.24 --undefined-- 58.946
1.25 --undefined-- 67.975
1.26 133.829 73.805
1.27 130.342 76.517
1.28 122.860 76.968
1.29 117.103 76.598
1.30 113.440 76.329
1.31 110.701 76.018
1.32 108.504 75.494
1.33 106.263 74.698
1.34 104.504 73.209
1.35 --undefined-- 70.241
1.36 --undefined-- 65.176
1.37 --undefined-- 58.191
1.38 --undefined-- 50.377
1.39 --undefined-- 43.095
1.40 --undefined-- 37.005
1.41 --undefined-- 34.648
1.42 --undefined-- 37.226
1.43 --undefined-- 40.536
1.44 --undefined-- 45.885
1.45 --undefined-- 56.294
1.46 --undefined-- 64.668
1.47 127.364 70.134
1.48 127.045 73.058
1.49 124.085 73.913
1.50 121.808 73.678
1.51 119.513 73.371
1.52 117.989 73.152
1.53 117.244 73.078
1.54 117.070 73.100
1.55 117.642 73.028
1.56 118.720 72.803
1.57 118.911 72.365
1.58 119.224 71.846
1.59 118.664 71.421
1.60 119.198 71.150
1.61 120.386 71.165
1.62 120.550 71.285
1.63 120.646 71.220
1.64 120.664 70.939
1.65 120.891 70.668
1.66 121.448 71.297
1.67 121.765 73.019
1.68 120.516 74.116
1.69 119.635 74.238
1.70 118.936 74.204
1.71 118.735 74.295
1.72 118.436 74.395
1.73 118.793 74.415
1.74 119.359 74.261
1.75 119.922 73.963
1.76 120.470 73.595
1.77 120.815 73.018
1.78 120.140 71.698
1.79 116.841 68.732
1.80 115.621 63.433
1.81 --undefined-- 56.070
1.82 --undefined-- 48.605
1.83 --undefined-- 42.857
1.84 --undefined-- 38.217
1.85 --undefined-- 35.503
1.86 --undefined-- 37.521
1.87 --undefined-- 40.842
1.88 --undefined-- 43.921
1.89 --undefined-- 50.502
1.90 --undefined-- 58.007
1.91 100.424 63.951
1.92 99.465 68.365
1.93 95.322 71.375
1.94 93.072 72.683
1.95 91.821 72.174
1.96 90.874 70.159
1.97 88.033 66.988
1.98 85.950 62.959
1.99 86.477 59.059
2.00 86.545 56.792
2.01 85.111 55.342
2.02 --undefined-- 53.132
2.03 --undefined-- 55.431
2.04 --undefined-- 63.418
2.05 --undefined-- 69.348
2.06 --undefined-- 72.712
2.07 --undefined-- 73.795
2.08 --undefined-- 73.315
2.09 79.821 72.400
2.10 77.082 71.412
2.11 74.552 70.150
2.12 --undefined-- 68.449
2.13 --undefined-- 66.021
2.14 --undefined-- 62.489
2.15 --undefined-- 57.960
2.16 --undefined-- 52.612
2.17 --undefined-- 46.087
2.18 --undefined-- 41.190
2.19 --undefined-- 40.950
2.20 --undefined-- 39.934
2.21 --undefined-- 37.750
2.22 --undefined-- 36.672
2.23 --undefined-- 37.013
2.24 --undefined-- 37.013
2.25 --undefined-- 36.779
2.26 --undefined-- 36.208
2.27 --undefined-- 36.861
2.28 --undefined-- 38.565
2.29 --undefined-- 39.899
2.30 --undefined-- 43.756
2.31 --undefined-- 50.573
2.32 --undefined-- 56.454
2.33 76.723 61.331
2.34 76.453 65.221
2.35 75.335 68.167
2.36 75.190 70.104
2.37 74.723 70.549
2.38 75.136 69.551
2.39 --undefined-- 67.410
2.40 --undefined-- 63.916
2.41 --undefined-- 58.998
2.42 --undefined-- 53.956
2.43 --undefined-- 49.528
2.44 --undefined-- 45.348
2.45 --undefined-- 42.225
2.46 --undefined-- 40.064
2.47 --undefined-- 37.682
2.48 --undefined-- 37.026
2.49 --undefined-- 38.087
2.50 --undefined-- 38.835
2.51 --undefined-- 39.190
2.52 --undefined-- 39.209
2.53 --undefined-- 39.116
2.54 --undefined-- 39.133
2.55 --undefined-- 39.977
2.56 --undefined-- 43.514
2.57 --undefined-- 48.477
2.58 --undefined-- 53.141
2.59 97.545 57.610
2.60 97.782 61.924
2.61 99.493 65.998
2.62 100.136 69.283
2.63 100.746 71.361
2.64 101.174 72.095
2.65 101.951 71.915
2.66 102.703 71.730
2.67 102.891 71.677
2.68 103.326 71.473
2.69 104.543 71.072
2.70 105.107 70.002
2.71 103.858 67.281
2.72 --undefined-- 61.957
2.73 --undefined-- 53.411
2.74 --undefined-- 43.934
2.75 --undefined-- 39.232
2.76 --undefined-- 37.743
2.77 --undefined-- 37.865
2.78 --undefined-- 41.692
2.79 --undefined-- 50.011
2.80 --undefined-- 57.243
2.81 --undefined-- 62.393
2.82 --undefined-- 66.207
2.83 93.221 69.284
2.84 91.846 71.350
2.85 90.860 71.876
2.86 89.186 71.046
2.87 86.828 69.802
2.88 86.036 68.820
2.89 83.431 67.222
2.90 83.675 64.196
2.91 82.095 60.899
2.92 81.864 59.156
2.93 83.494 58.350
2.94 86.940 58.022
2.95 89.795 58.713
2.96 90.308 61.046
2.97 92.158 63.882
2.98 92.639 65.894
2.99 93.033 67.258
3.00 93.152 68.532
3.01 93.882 69.820
3.02 93.673 71.078
3.03 93.240 72.050
3.04 94.072 72.521
3.05 94.147 72.637
3.06 95.108 72.521
3.07 94.867 72.227
3.08 95.853 72.128
3.09 96.823 72.323
3.10 96.756 72.416
3.11 97.167 72.385
3.12 96.869 72.343
3.13 96.523 72.184
3.14 96.530 71.754
3.15 96.113 70.745
3.16 95.643 68.718
3.17 92.734 65.110
3.18 --undefined-- 59.525
3.19 --undefined-- 52.124
3.20 --undefined-- 45.410
3.21 --undefined-- 42.699
3.22 --undefined-- 41.940
3.23 --undefined-- 41.480
3.24 --undefined-- 40.832
3.25 --undefined-- 40.229
3.26 --undefined-- 40.370
3.27 --undefined-- 41.479
3.28 --undefined-- 43.555
3.29 --undefined-- 45.472
3.30 --undefined-- 46.358
3.31 --undefined-- 51.609
3.32 --undefined-- 60.529
3.33 111.767 66.856
3.34 105.407 70.322
3.35 102.883 71.478
3.36 100.932 71.276
3.37 98.956 70.654
3.38 96.995 70.044
3.39 95.400 69.571
3.40 94.062 69.318
3.41 92.151 69.429
3.42 89.684 69.664
3.43 88.111 69.805
3.44 87.144 69.899
3.45 83.263 69.753
3.46 79.800 69.449
3.47 77.312 68.952
3.48 76.952 68.010
3.49 76.794 66.727
3.50 76.212 65.418
3.51 79.539 64.310
3.52 79.508 63.824
3.53 79.188 64.984
3.54 79.396 67.071
3.55 77.325 68.449
3.56 78.353 68.847
3.57 79.237 68.942
3.58 83.667 69.217
3.59 --undefined-- 69.385
3.60 248.211 70.407
3.61 254.883 70.011
3.62 274.883 66.571
3.63 --undefined-- 62.309
3.64 --undefined-- 61.967
3.65 --undefined-- 62.850
3.66 --undefined-- 63.167
3.67 --undefined-- 65.147
3.68 --undefined-- 67.474
3.69 89.070 69.476
3.70 80.892 70.693
3.71 80.768 70.722
3.72 81.359 69.675
3.73 78.479 68.594
3.74 79.312 69.021
3.75 77.852 69.566
3.76 77.511 69.370
3.77 77.075 68.865
3.78 75.993 68.568
3.79 --undefined-- 67.601
3.80 --undefined-- 64.384
3.81 --undefined-- 58.124
3.82 --undefined-- 49.085
3.83 --undefined-- 41.890
3.84 --undefined-- 45.247
3.85 --undefined-- 52.454
3.86 --undefined-- 57.623
3.87 --undefined-- 60.659
3.88 --undefined-- 61.993
3.89 --undefined-- 61.665
3.90 --undefined-- 61.721
3.91 --undefined-- 64.940
3.92 --undefined-- 68.482
3.93 93.202 70.622
3.94 88.871 71.093
3.95 84.370 70.514
3.96 83.814 69.954
3.97 83.928 69.522
3.98 82.700 68.697
3.99 83.435 67.529
4.00 84.938 66.533
4.01 87.012 65.135
4.02 87.191 62.395
4.03 90.234 58.370
4.04 95.312 54.360
4.05 --undefined-- 51.642
4.06 --undefined-- 50.489
4.07 --undefined-- 49.673
4.08 --undefined-- 48.469
4.09 --undefined-- 54.203
4.10 --undefined-- 63.302
4.11 --undefined-- 69.230
4.12 101.628 72.459
4.13 98.441 73.599
4.14 96.871 73.263
4.15 91.538 72.249
4.16 86.952 70.913
4.17 85.987 69.192
4.18 82.246 67.449
4.19 80.786 66.199
4.20 --undefined-- 64.850
4.21 --undefined-- 62.764
4.22 --undefined-- 59.632
4.23 --undefined-- 54.869
4.24 --undefined-- 47.866
4.25 --undefined-- 40.083
4.26 --undefined-- 38.492
4.27 --undefined-- 39.008
4.28 --undefined-- 39.583
4.29 --undefined-- 45.387
4.30 --undefined-- 53.076
4.31 95.480 59.942
4.32 94.942 65.658
4.33 94.280 69.557
4.34 93.621 71.499
4.35 93.591 71.697
4.36 93.865 70.104
4.37 94.029 66.921
4.38 94.172 62.891
4.39 95.060 58.805
4.40 95.848 56.063
4.41 96.290 54.133
4.42 96.290 51.629
4.43 --undefined-- 49.066
4.44 --undefined-- 49.171
4.45 --undefined-- 52.194
4.46 --undefined-- 55.631
4.47 86.618 58.890
4.48 86.518 61.698
4.49 83.927 63.585
4.50 81.237 64.058
4.51 80.311 63.205
4.52 80.420 61.952
4.53 80.486 61.315
4.54 79.658 60.803
4.55 79.480 59.825
4.56 79.836 58.603
4.57 79.910 57.292
4.58 79.636 56.145
4.59 78.990 55.380
4.60 78.601 54.775
4.61 --undefined-- 53.902
4.62 --undefined-- 52.147
4.63 --undefined-- 49.737
4.64 --undefined-- 47.280
4.65 --undefined-- 47.489
4.66 --undefined-- 54.295
4.67 --undefined-- 59.652
4.68 --undefined-- 62.272
4.69 --undefined-- 65.599
4.70 --undefined-- 69.741
4.71 91.957 71.765
4.72 88.789 71.954
4.73 84.478 71.296
4.74 82.495 70.615
4.75 82.286 70.477
4.76 79.682 70.690
4.77 79.994 70.613
4.78 79.556 70.295
4.79 79.326 70.141
4.80 79.350 70.128
4.81 79.305 70.356
4.82 79.100 69.917
4.83 79.007 68.653
4.84 79.455 68.246
4.85 79.396 68.542
4.86 79.836 68.480
4.87 80.636 68.426
4.88 80.356 68.118
4.89 79.315 66.691
4.90 78.859 63.632
4.91 --undefined-- 58.616
4.92 --undefined-- 51.095
4.93 --undefined-- 42.086
4.94 --undefined-- 38.442
4.95 --undefined-- 37.605
4.96 --undefined-- 38.226
4.97 --undefined-- 38.546
4.98 --undefined-- 38.473
4.99 --undefined-- 39.723
5.00 --undefined-- 41.164
5.01 --undefined-- 41.979
5.02 --undefined-- 43.218
5.03 --undefined-- 45.010
5.04 --undefined-- 46.460
5.05 --undefined-- 47.036
5.06 --undefined-- 46.641
5.07 --undefined-- 46.274
5.08 --undefined-- 46.614
5.09 --undefined-- 46.806
5.10 --undefined-- 46.561
5.11 --undefined-- 45.247
5.12 --undefined-- 43.070
5.13 --undefined-- 41.042
5.14 --undefined-- 40.172
5.15 --undefined-- 38.947
5.16 --undefined-- 37.029
5.17 --undefined-- 37.749
5.18 --undefined-- 40.118
5.19 --undefined-- 40.468
5.20 --undefined-- 38.488
5.21 --undefined-- 36.238
5.22 --undefined-- 35.849
5.23 --undefined-- 38.463
5.24 --undefined-- 49.284
5.25 --undefined-- 59.562
5.26 106.463 67.002
5.27 102.347 71.757
5.28 100.126 74.002
5.29 95.440 74.007
5.30 91.016 72.664
5.31 88.324 71.502
5.32 86.564 70.712
5.33 85.667 69.323
5.34 82.836 67.188
5.35 81.555 64.901
5.36 79.043 63.539
5.37 77.980 63.057
5.38 78.694 62.288
5.39 79.542 60.827
5.40 82.399 58.561
5.41 83.838 55.227
5.42 83.644 52.147
5.43 --undefined-- 50.481
5.44 --undefined-- 49.015
5.45 --undefined-- 46.607
5.46 --undefined-- 43.615
5.47 --undefined-- 42.690
5.48 --undefined-- 43.218
5.49 --undefined-- 43.473
5.50 --undefined-- 44.403
5.51 --undefined-- 46.764
5.52 --undefined-- 50.240
5.53 --undefined-- 58.285
5.54 --undefined-- 66.489
5.55 --undefined-- 71.364
5.56 --undefined-- 73.580
5.57 --undefined-- 73.881
5.58 --undefined-- 73.028
5.59 --undefined-- 71.189
5.60 --undefined-- 67.535
5.61 --undefined-- 60.919
5.62 --undefined-- 50.648
5.63 --undefined-- 41.655
5.64 --undefined-- 37.609
5.65 --undefined-- 33.973
5.66 --undefined-- 32.908
5.67 --undefined-- 35.184
5.68 --undefined-- 37.457
5.69 --undefined-- 37.868
5.70 --undefined-- 37.453
5.71 --undefined-- 43.455
5.72 --undefined-- 52.405
5.73 --undefined-- 59.688
5.74 --undefined-- 65.213
5.75 --undefined-- 69.243
5.76 89.357 71.862
5.77 88.358 72.893
5.78 89.631 72.149
5.79 89.186 69.899
5.80 89.433 66.890
5.81 91.469 63.875
5.82 94.417 61.283
5.83 96.273 59.747
5.84 95.820 59.690
5.85 96.243 60.369
5.86 94.081 61.853
5.87 93.271 63.300
5.88 90.040 64.520
5.89 89.384 65.987
5.90 85.973 67.574
5.91 82.787 68.856
5.92 79.819 69.390
5.93 78.898 69.458
5.94 75.899 69.447
5.95 75.419 69.128
5.96 --undefined-- 68.191
5.97 --undefined-- 66.209
5.98 --undefined-- 62.455
5.99 --undefined-- 56.029
6.00 --undefined-- 49.017
6.01 --undefined-- 45.749
6.02 --undefined-- 43.693
6.03 --undefined-- 40.755
6.04 --undefined-- 37.919
6.05 --undefined-- 37.422
6.06 --undefined-- 38.236
6.07 --undefined-- 39.844
6.08 --undefined-- 41.682
6.09 --undefined-- 42.067
6.10 --undefined-- 42.006
6.11 --undefined-- 42.097
6.12 --undefined-- 41.990
6.13 --undefined-- 43.353
6.14 --undefined-- 46.372
6.15 --undefined-- 50.416
6.16 79.311 55.137
6.17 79.128 59.814
6.18 79.146 63.594
6.19 76.264 66.276
6.20 --undefined-- 68.647
6.21 --undefined-- 70.714
6.22 --undefined-- 71.928
6.23 --undefined-- 71.891
6.24 --undefined-- 71.168
6.25 --undefined-- 70.850
6.26 --undefined-- 70.715
6.27 --undefined-- 70.343
6.28 --undefined-- 69.915
6.29 --undefined-- 69.554
6.30 --undefined-- 69.249
6.31 --undefined-- 69.182
6.32 --undefined-- 69.083
6.33 --undefined-- 68.563
6.34 183.586 67.802
6.35 183.773 66.324
6.36 181.795 63.107
6.37 178.353 57.611
6.38 --undefined-- 50.372
6.39 --undefined-- 42.690
6.40 --undefined-- 38.801
6.41 --undefined-- 41.728
6.42 --undefined-- --undefined--
6.43 --undefined-- --undefined--
6.44 --undefined-- --undefined--
6.45 --undefined-- --undefined--
