Time Pitch Intensity
0.01 --undefined-- --undefined--
0.02 177.514 --undefined--
0.03 178.504 --undefined--
0.04 180.431 --undefined--
0.05 181.087 59.762
0.06 181.637 56.817
0.07 --undefined-- 53.517
0.08 --undefined-- 51.913
0.09 --undefined-- 50.158
0.10 --undefined-- 49.591
0.11 --undefined-- 52.662
0.12 --undefined-- 61.226
0.13 --undefined-- 68.615
0.14 --undefined-- 72.382
0.15 207.196 73.450
0.16 200.321 72.981
0.17 192.235 72.087
0.18 186.437 71.313
0.19 184.076 70.534
0.20 183.223 69.744
0.21 184.916 68.890
0.22 189.207 67.735
0.23 193.181 66.466
0.24 197.223 65.325
0.25 200.431 64.448
0.26 201.500 64.261
0.27 201.211 64.740
0.28 199.496 64.831
0.29 196.524 63.684
0.30 193.056 60.893
0.31 198.674 56.666
0.32 195.194 53.633
0.33 192.200 53.249
0.34 --undefined-- 52.239
0.35 --undefined-- 50.504
0.36 --undefined-- 49.455
0.37 --undefined-- 49.554
0.38 --undefined-- 51.823
0.39 --undefined-- 60.343
0.40 --undefined-- 67.993
0.41 --undefined-- 72.115
0.42 214.991 73.035
0.43 209.263 71.463
0.44 --undefined-- 67.651
0.45 210.074 62.449
0.46 204.448 60.278
0.47 200.698 60.121
0.48 200.411 59.923
0.49 200.281 59.714
0.50 199.374 59.923
0.51 200.146 60.790
0.52 200.366 61.745
0.53 200.292 62.175
0.54 199.333 62.138
0.55 198.654 61.976
0.56 198.076 61.287
0.57 196.857 59.310
0.58 198.856 55.590
0.59 --undefined-- 51.148
0.60 --undefined-- 49.497
0.61 --undefined-- 49.118
0.62 --undefined-- 49.224
0.63 --undefined-- 52.060
0.64 --undefined-- 60.155
0.65 --undefined-- 67.571
0.66 --undefined-- 71.639
0.67 --undefined-- 73.092
0.68 --undefined-- 72.904
0.69 149.577 71.854
0.70 145.784 70.504
0.71 143.489 69.445
0.72 140.034 68.446
0.73 136.303 66.548
0.74 134.633 62.921
0.75 --undefined-- 57.819
0.76 137.183 55.637
0.77 131.253 55.706
0.78 129.384 55.200
0.79 129.632 54.621
0.80 129.838 54.204
0.81 130.626 54.046
0.82 132.859 54.382
0.83 135.957 54.999
0.84 137.586 55.018
0.85 144.935 54.074
0.86 152.771 52.985
0.87 159.364 52.482
0.88 167.381 52.903
0.89 172.483 54.575
0.90 178.115 56.930
0.91 183.376 60.840
0.92 198.189 65.186
0.93 192.506 67.338
0.94 190.477 67.950
0.95 188.078 68.646
0.96 182.812 69.374
0.97 181.087 69.604
0.98 180.690 68.958
0.99 178.282 67.293
1.00 181.966 65.112
1.01 182.791 62.182
1.02 --undefined-- 58.367
1.03 --undefined-- 55.586
1.04 --undefined-- 54.687
1.05 --undefined-- 53.263
1.06 --undefined-- 50.742
1.07 --undefined-- 49.250
1.08 --undefined-- 54.252
1.09 --undefined-- 62.197
1.10 --undefined-- 67.221
1.11 159.724 69.922
1.12 151.569 71.070
1.13 145.430 70.863
1.14 141.127 69.472
1.15 138.457 67.791
1.16 139.948 68.374
1.17 144.171 70.632
1.18 145.225 71.481
1.19 143.059 70.669
1.20 141.084 69.653
1.21 138.846 68.713
1.22 136.471 66.356
1.23 --undefined-- 61.607
1.24 --undefined-- 54.746
1.25 --undefined-- 49.832
1.26 --undefined-- 48.192
1.27 --undefined-- 47.559
1.28 --undefined-- 47.928
1.29 --undefined-- 52.829
1.30 --undefined-- 60.543
1.31 --undefined-- 65.810
1.32 --undefined-- 68.151
1.33 --undefined-- 67.932
1.34 --undefined-- 65.857
1.35 --undefined-- 63.723
1.36 --undefined-- 61.913
1.37 --undefined-- 59.248
1.38 --undefined-- 58.459
1.39 --undefined-- 60.076
1.40 --undefined-- 60.034
1.41 --undefined-- 59.286
1.42 --undefined-- 58.592
1.43 --undefined-- 57.247
1.44 --undefined-- 55.547
1.45 --undefined-- 52.891
1.46 --undefined-- 50.378
1.47 --undefined-- 49.819
1.48 --undefined-- 49.467
1.49 --undefined-- 48.370
1.50 --undefined-- 47.462
1.51 --undefined-- 47.910
1.52 --undefined-- 49.234
1.53 --undefined-- 49.474
1.54 --undefined-- 48.391
1.55 --undefined-- 47.442
1.56 --undefined-- 48.559
1.57 --undefined-- 51.394
1.58 132.619 54.008
1.59 129.052 55.821
1.60 128.980 57.065
1.61 128.309 57.864
1.62 127.291 58.137
1.63 125.919 58.237
1.64 127.059 58.468
1.65 127.270 58.793
1.66 128.910 59.192
1.67 130.152 59.644
1.68 131.689 59.989
1.69 134.237 60.351
1.70 137.145 60.994
1.71 141.234 61.751
1.72 144.651 62.437
1.73 145.844 62.829
1.74 148.348 62.385
1.75 149.737 60.323
1.76 148.693 56.106
1.77 --undefined-- 49.932
1.78 --undefined-- 43.918
1.79 --undefined-- 41.976
1.80 --undefined-- 44.174
1.81 --undefined-- 46.386
1.82 --undefined-- 48.594
1.83 --undefined-- 53.088
1.84 --undefined-- 57.310
1.85 --undefined-- 62.098
1.86 --undefined-- 67.575
1.87 --undefined-- 70.791
1.88 164.410 71.450
1.89 160.702 70.393
1.90 156.727 68.454
1.91 --undefined-- 66.166
1.92 --undefined-- 63.810
1.93 --undefined-- 61.482
1.94 129.723 60.812
1.95 130.515 63.764
1.96 130.693 67.336
1.97 127.773 69.239
1.98 124.911 69.216
1.99 124.037 67.259
2.00 --undefined-- 63.957
2.01 118.897 63.876
2.02 117.196 65.434
2.03 122.338 66.129
2.04 126.895 67.251
2.05 132.207 68.175
2.06 139.283 68.266
2.07 148.836 68.693
2.08 154.771 69.449
2.09 159.374 69.288
2.10 167.335 68.588
2.11 169.253 67.337
2.12 171.116 64.035
2.13 --undefined-- 57.688
2.14 --undefined-- 49.291
2.15 --undefined-- 45.977
2.16 --undefined-- 46.987
2.17 --undefined-- 48.228
2.18 --undefined-- 51.189
2.19 --undefined-- 58.073
2.20 --undefined-- 65.308
2.21 175.317 69.741
2.22 170.963 71.455
2.23 164.947 71.292
2.24 156.955 70.690
2.25 153.545 70.550
2.26 151.616 70.401
2.27 148.029 69.975
2.28 145.309 69.099
2.29 143.303 67.378
2.30 140.800 64.603
2.31 137.716 60.781
2.32 140.927 58.792
2.33 157.277 62.262
2.34 154.163 64.903
2.35 152.647 65.715
2.36 153.569 65.888
2.37 155.090 66.191
2.38 156.227 66.446
2.39 158.053 66.471
2.40 159.662 65.674
2.41 162.516 63.517
2.42 168.605 62.203
2.43 171.268 62.797
2.44 174.422 63.403
2.45 177.064 63.837
2.46 179.950 63.912
2.47 182.555 63.559
2.48 184.072 62.564
2.49 185.289 61.004
2.50 188.513 59.265
2.51 --undefined-- 57.316
2.52 --undefined-- 54.141
2.53 --undefined-- 48.785
2.54 --undefined-- 43.199
2.55 --undefined-- 41.266
2.56 --undefined-- 43.096
2.57 --undefined-- 45.797
2.58 --undefined-- 47.538
2.59 --undefined-- 49.056
2.60 --undefined-- 50.073
2.61 --undefined-- 49.716
2.62 --undefined-- 48.343
2.63 --undefined-- 47.315
2.64 --undefined-- 46.265
2.65 --undefined-- 44.393
2.66 --undefined-- 41.887
2.67 --undefined-- 40.225
2.68 --undefined-- 40.630
2.69 --undefined-- 42.957
2.70 --undefined-- 45.479
2.71 --undefined-- 46.898
2.72 --undefined-- 47.727
2.73 --undefined-- 49.439
2.74 --undefined-- 53.234
2.75 --undefined-- 55.978
2.76 --undefined-- 56.684
2.77 --undefined-- 62.958
2.78 --undefined-- 70.191
2.79 --undefined-- 73.630
2.80 204.201 74.090
2.81 202.208 73.575
2.82 200.183 73.686
2.83 198.791 73.631
2.84 196.305 72.937
2.85 193.598 71.956
2.86 191.977 70.494
2.87 190.509 68.067
2.88 191.054 64.596
2.89 196.072 61.132
2.90 198.034 59.138
2.91 202.260 58.383
2.92 200.302 59.744
2.93 199.019 63.736
2.94 198.696 67.794
2.95 182.232 70.140
2.96 171.481 70.789
2.97 166.084 70.730
2.98 161.934 70.741
2.99 159.082 70.643
3.00 157.644 70.233
3.01 155.628 69.409
3.02 153.946 67.900
3.03 151.951 65.972
3.04 150.470 64.073
3.05 149.574 62.037
3.06 149.176 60.487
3.07 149.719 59.891
3.08 150.185 59.275
3.09 149.602 57.807
3.10 148.314 55.259
3.11 --undefined-- 51.717
3.12 --undefined-- 47.718
3.13 --undefined-- 44.794
3.14 --undefined-- 43.226
3.15 --undefined-- 44.694
3.16 --undefined-- 50.541
3.17 --undefined-- 54.821
3.18 --undefined-- 58.487
3.19 197.995 62.128
3.20 194.604 64.637
3.21 190.247 66.327
3.22 187.285 67.949
3.23 185.367 69.908
3.24 185.697 71.865
3.25 185.195 73.022
3.26 182.695 73.044
3.27 178.215 72.093
3.28 173.362 70.711
3.29 171.079 69.737
3.30 170.999 69.193
3.31 170.663 68.487
3.32 170.822 67.925
3.33 171.333 67.950
3.34 171.887 68.370
3.35 172.269 68.662
3.36 170.552 68.665
3.37 170.283 69.156
3.38 169.383 70.455
3.39 168.101 71.851
3.40 166.608 72.495
3.41 163.859 72.111
3.42 160.507 70.613
3.43 157.623 67.462
3.44 161.349 63.133
3.45 161.492 61.912
3.46 159.435 62.794
3.47 157.376 63.882
3.48 155.684 66.276
3.49 150.310 69.119
3.50 148.122 70.448
3.51 146.002 70.323
3.52 142.336 69.795
3.53 140.118 69.292
3.54 137.434 68.419
3.55 134.873 67.104
3.56 132.724 65.603
3.57 130.691 64.117
3.58 129.251 62.494
3.59 130.583 60.300
3.60 131.909 57.651
3.61 136.518 54.827
3.62 --undefined-- 51.867
3.63 --undefined-- 49.341
3.64 --undefined-- 47.658
3.65 --undefined-- 46.237
3.66 --undefined-- 44.511
3.67 --undefined-- 42.965
3.68 --undefined-- 42.362
3.69 --undefined-- 42.091
3.70 --undefined-- 41.241
3.71 --undefined-- 40.861
3.72 --undefined-- 40.514
3.73 --undefined-- 39.328
3.74 --undefined-- 38.579
3.75 --undefined-- 38.661
3.76 --undefined-- 39.797
3.77 --undefined-- 41.040
3.78 --undefined-- 40.634
3.79 --undefined-- 39.535
3.80 --undefined-- 39.661
3.81 --undefined-- 41.129
3.82 --undefined-- 42.135
3.83 --undefined-- 42.232
3.84 --undefined-- 42.666
3.85 --undefined-- 42.754
3.86 --undefined-- 43.797
3.87 --undefined-- 47.525
3.88 --undefined-- 51.315
3.89 --undefined-- 58.832
3.90 --undefined-- 66.922
3.91 221.485 71.500
3.92 209.076 73.188
3.93 201.848 73.511
3.94 196.865 73.337
3.95 191.510 72.325
3.96 183.747 70.607
3.97 175.979 69.104
3.98 170.571 68.061
3.99 170.335 66.505
4.00 174.995 63.513
4.01 172.704 59.689
4.02 171.649 57.688
4.03 170.388 58.125
4.04 171.207 60.022
4.05 169.917 63.663
4.06 160.360 67.354
4.07 148.421 69.395
4.08 146.055 69.621
4.09 149.728 69.003
4.10 151.833 68.687
4.11 154.726 67.875
4.12 158.284 66.264
4.13 160.838 65.286
4.14 163.863 65.481
4.15 167.748 65.861
4.16 172.244 65.840
4.17 175.741 65.629
4.18 176.898 65.651
4.19 177.867 65.648
4.20 179.440 65.380
4.21 180.586 65.050
4.22 180.315 64.687
4.23 179.973 64.182
4.24 179.307 63.699
4.25 178.836 63.256
4.26 178.812 62.559
4.27 177.731 61.115
4.28 --undefined-- 58.487
4.29 --undefined-- 54.256
4.30 --undefined-- 51.234
4.31 --undefined-- 56.387
4.32 199.981 59.227
4.33 207.799 58.299
4.34 --undefined-- 54.253
4.35 --undefined-- 48.653
4.36 --undefined-- 52.652
4.37 --undefined-- 62.220
4.38 --undefined-- 67.243
4.39 --undefined-- 68.897
4.40 149.737 69.201
4.41 152.643 69.450
4.42 149.631 69.127
4.43 139.673 68.679
4.44 137.669 68.501
4.45 133.702 68.241
4.46 132.304 68.030
4.47 130.663 67.997
4.48 129.543 67.809
4.49 128.583 67.307
4.50 127.239 66.521
4.51 127.745 65.547
4.52 128.392 64.612
4.53 128.537 63.852
4.54 128.181 62.784
4.55 124.437 60.296
4.56 119.298 55.235
4.57 --undefined-- 47.863
4.58 --undefined-- 43.605
4.59 --undefined-- 42.882
4.60 --undefined-- 42.158
4.61 --undefined-- 50.876
4.62 --undefined-- 60.851
4.63 --undefined-- 66.108
4.64 --undefined-- 67.396
4.65 --undefined-- 67.112
4.66 148.238 69.133
4.67 147.446 71.078
4.68 145.391 71.822
4.69 143.195 71.632
4.70 140.580 70.754
4.71 139.769 69.402
4.72 84.473 68.127
4.73 85.376 67.379
4.74 --undefined-- 66.123
4.75 --undefined-- 65.248
4.76 --undefined-- 64.317
4.77 --undefined-- 60.941
4.78 109.421 58.537
4.79 94.408 58.643
4.80 95.774 59.536
4.81 77.219 61.112
4.82 77.812 62.394
4.83 --undefined-- 63.564
4.84 --undefined-- 64.824
4.85 --undefined-- 65.969
4.86 --undefined-- 66.896
4.87 --undefined-- 67.152
4.88 --undefined-- 66.855
4.89 --undefined-- 66.822
4.90 --undefined-- 67.551
4.91 --undefined-- 68.457
4.92 --undefined-- 69.136
4.93 --undefined-- 69.327
4.94 124.427 68.787
4.95 123.070 67.807
4.96 120.998 66.491
4.97 122.279 64.922
4.98 121.276 63.851
4.99 120.999 63.027
5.00 119.934 61.671
5.01 119.207 60.201
5.02 118.593 59.761
5.03 116.597 59.595
5.04 114.583 59.781
5.05 114.348 61.287
5.06 114.369 63.223
5.07 101.098 63.751
5.08 98.565 63.024
5.09 93.271 62.161
5.10 --undefined-- 61.179
5.11 --undefined-- 59.358
5.12 --undefined-- 56.441
5.13 --undefined-- 52.482
5.14 --undefined-- 47.353
5.15 --undefined-- 43.789
5.16 --undefined-- 48.760
5.17 --undefined-- 55.827
5.18 --undefined-- 59.393
5.19 --undefined-- 59.910
5.20 --undefined-- 62.914
5.21 --undefined-- 66.803
5.22 --undefined-- 69.302
5.23 123.605 71.129
5.24 125.996 71.697
5.25 131.431 71.113
5.26 134.437 70.053
5.27 138.892 68.582
5.28 146.170 --undefined--
5.29 155.086 --undefined--
5.30 --undefined-- --undefined--
5.31 --undefined-- --undefined--
