Time Pitch Intensity
0.01 --undefined-- --undefined--
0.02 --undefined-- --undefined--
0.03 --undefined-- --undefined--
0.04 --undefined-- --undefined--
0.05 218.151 63.779
0.06 211.346 66.086
0.07 202.584 67.525
0.08 196.113 68.345
0.09 193.727 68.358
0.10 193.904 67.344
0.11 192.844 65.268
0.12 188.918 63.373
0.13 195.874 62.685
0.14 198.377 61.643
0.15 202.224 59.677
0.16 195.528 57.666
0.17 195.814 56.247
0.18 194.750 55.461
0.19 193.671 55.853
0.20 192.707 56.945
0.21 208.485 58.436
0.22 221.718 60.774
0.23 204.319 63.917
0.24 198.119 67.186
0.25 192.255 69.684
0.26 184.635 70.940
0.27 178.222 70.924
0.28 177.317 69.774
0.29 177.542 67.404
0.30 176.515 63.434
0.31 177.369 58.535
0.32 --undefined-- 55.791
0.33 --undefined-- 53.317
0.34 --undefined-- 52.523
0.35 --undefined-- 55.666
0.36 279.381 56.877
0.37 278.739 56.428
0.38 --undefined-- 55.606
0.39 --undefined-- 56.316
0.40 --undefined-- 58.848
0.41 --undefined-- 60.622
0.42 215.612 62.616
0.43 209.747 64.747
0.44 214.034 65.437
0.45 198.053 66.315
0.46 195.210 68.206
0.47 192.682 70.281
0.48 188.251 71.811
0.49 182.707 72.376
0.50 179.309 72.336
0.51 178.038 71.872
0.52 177.641 71.237
0.53 177.822 70.831
0.54 179.203 70.464
0.55 180.393 69.959
0.56 181.191 69.559
0.57 181.680 69.374
0.58 181.670 68.876
0.59 183.604 67.749
0.60 189.946 66.590
0.61 196.027 65.780
0.62 202.911 65.100
0.63 214.955 64.941
0.64 223.706 65.415
0.65 232.203 66.257
0.66 238.827 67.493
0.67 251.354 69.525
0.68 261.876 71.755
0.69 265.108 72.985
0.70 266.229 73.099
0.71 265.795 72.957
0.72 263.315 73.009
0.73 258.334 73.059
0.74 248.744 73.335
0.75 237.286 73.469
0.76 219.813 72.904
0.77 --undefined-- 71.531
0.78 --undefined-- 68.877
0.79 --undefined-- 64.869
0.80 --undefined-- 60.581
0.81 --undefined-- 56.318
0.82 --undefined-- 52.235
0.83 --undefined-- 50.748
0.84 --undefined-- 52.860
0.85 --undefined-- 54.867
0.86 --undefined-- 54.771
0.87 --undefined-- 55.141
0.88 --undefined-- 56.597
0.89 --undefined-- 56.925
0.90 --undefined-- 56.058
0.91 --undefined-- 54.121
0.92 --undefined-- 51.546
0.93 --undefined-- 51.393
0.94 --undefined-- 54.869
0.95 --undefined-- 56.592
0.96 --undefined-- 55.218
0.97 --undefined-- 52.965
0.98 --undefined-- 52.273
0.99 --undefined-- 51.094
1.00 --undefined-- 51.042
1.01 --undefined-- 52.766
1.02 --undefined-- 52.987
1.03 --undefined-- 50.575
1.04 --undefined-- 47.649
1.05 --undefined-- 47.471
1.06 --undefined-- 48.667
1.07 --undefined-- 49.934
1.08 --undefined-- 49.934
1.09 --undefined-- 47.477
1.10 --undefined-- 46.201
1.11 --undefined-- 47.628
1.12 --undefined-- 48.475
1.13 --undefined-- 48.122
1.14 --undefined-- 48.584
1.15 --undefined-- 51.228
1.16 --undefined-- 52.867
1.17 --undefined-- 55.631
1.18 --undefined-- 62.883
1.19 160.211 69.397
1.20 165.000 73.667
1.21 165.998 76.002
1.22 167.844 77.305
1.23 169.174 77.855
1.24 170.383 77.588
1.25 171.656 77.005
1.26 172.731 76.370
1.27 173.771 76.238
1.28 174.543 76.797
1.29 175.579 77.339
1.30 176.159 77.551
1.31 176.799 77.306
1.32 178.384 76.447
1.33 180.532 74.964
1.34 181.556 73.104
1.35 181.782 71.430
1.36 181.926 70.373
1.37 181.637 70.002
1.38 180.872 69.899
1.39 179.290 69.605
1.40 176.443 69.036
1.41 172.959 67.969
1.42 168.948 65.712
1.43 156.506 61.700
1.44 --undefined-- 56.168
1.45 --undefined-- 51.210
1.46 --undefined-- 49.509
1.47 --undefined-- 48.896
1.48 --undefined-- 48.473
1.49 --undefined-- 50.334
1.50 --undefined-- 55.743
1.51 299.437 62.303
1.52 293.514 66.635
1.53 276.724 68.964
1.54 255.112 70.405
1.55 244.843 71.395
1.56 236.672 71.583
1.57 229.918 71.086
1.58 225.498 70.455
1.59 222.460 70.249
1.60 219.974 70.450
1.61 218.018 70.485
1.62 217.120 70.142
1.63 216.213 69.530
1.64 214.787 68.975
1.65 213.139 68.641
1.66 210.959 68.361
1.67 209.315 67.917
1.68 207.578 67.160
1.69 205.949 66.320
1.70 205.353 65.741
1.71 205.979 65.389
1.72 208.103 65.281
1.73 216.367 65.417
1.74 218.406 65.529
1.75 219.467 65.509
1.76 220.760 65.317
1.77 221.718 64.799
1.78 221.920 63.774
1.79 222.832 62.019
1.80 222.279 59.516
1.81 204.722 57.052
1.82 191.579 55.560
1.83 195.787 55.193
1.84 198.033 55.278
1.85 192.694 55.335
1.86 202.857 56.736
1.87 237.055 59.144
1.88 226.447 61.719
1.89 201.000 64.262
1.90 190.875 67.049
1.91 184.095 69.647
1.92 178.402 71.265
1.93 175.980 71.788
1.94 175.171 71.288
1.95 173.199 69.775
1.96 170.024 67.334
1.97 165.959 63.991
1.98 --undefined-- 59.922
1.99 --undefined-- 56.474
2.00 --undefined-- 54.668
2.01 --undefined-- 53.893
2.02 --undefined-- 54.532
2.03 --undefined-- 55.331
2.04 --undefined-- 53.363
2.05 --undefined-- 50.304
2.06 --undefined-- 52.747
2.07 --undefined-- 54.334
2.08 --undefined-- 55.207
2.09 --undefined-- 58.165
2.10 --undefined-- 59.266
2.11 --undefined-- 57.354
2.12 --undefined-- 54.329
2.13 --undefined-- 54.533
2.14 --undefined-- 57.149
2.15 --undefined-- 61.382
2.16 --undefined-- 65.578
2.17 246.224 69.420
2.18 246.105 72.459
2.19 211.569 73.107
2.20 183.393 71.245
2.21 180.965 69.119
2.22 180.014 69.356
2.23 180.244 69.658
2.24 179.623 68.935
2.25 179.135 68.134
2.26 178.580 67.676
2.27 176.907 67.526
2.28 174.586 67.336
2.29 173.377 66.630
2.30 173.944 65.714
2.31 174.880 65.182
2.32 176.166 64.554
2.33 179.133 63.626
2.34 181.161 62.363
2.35 180.527 59.999
2.36 177.333 56.186
2.37 --undefined-- 51.762
2.38 --undefined-- 48.548
2.39 --undefined-- 48.987
2.40 --undefined-- 49.557
2.41 --undefined-- 48.202
2.42 --undefined-- 49.278
2.43 --undefined-- 55.158
2.44 263.002 59.571
2.45 254.130 61.846
2.46 256.991 63.120
2.47 259.807 64.271
2.48 261.743 65.472
2.49 263.617 66.293
2.50 263.904 66.279
2.51 260.095 65.902
2.52 257.789 66.320
2.53 253.226 67.420
2.54 243.210 68.475
2.55 234.765 68.862
2.56 220.703 68.640
2.57 207.645 68.811
2.58 199.383 69.369
2.59 191.121 69.953
2.60 185.688 70.390
2.61 179.550 70.318
2.62 174.616 69.514
2.63 169.841 67.765
2.64 165.808 65.690
2.65 165.519 64.963
2.66 168.682 65.001
2.67 169.312 64.468
2.68 167.030 63.957
2.69 167.978 64.570
2.70 172.826 65.864
2.71 175.575 66.699
2.72 171.483 66.473
2.73 169.507 65.691
2.74 173.739 65.024
2.75 176.153 64.184
2.76 178.131 63.104
2.77 181.488 62.013
2.78 185.908 60.861
2.79 187.510 59.483
2.80 184.499 57.304
2.81 181.032 53.648
2.82 --undefined-- 49.513
2.83 --undefined-- 48.474
2.84 --undefined-- 48.601
2.85 --undefined-- 47.703
2.86 --undefined-- 47.856
2.87 --undefined-- 48.398
2.88 --undefined-- 47.750
2.89 --undefined-- 53.121
2.90 203.723 60.825
2.91 193.623 66.036
2.92 189.312 69.067
2.93 185.498 70.520
2.94 183.596 70.973
2.95 182.994 70.891
2.96 182.760 70.520
2.97 182.566 70.026
2.98 182.339 69.582
2.99 182.261 69.177
3.00 182.290 68.859
3.01 182.926 68.678
3.02 183.094 68.431
3.03 184.536 68.083
3.04 185.483 67.715
3.05 185.710 67.221
3.06 187.918 66.383
3.07 191.165 65.033
3.08 193.509 63.262
3.09 194.190 60.848
3.10 189.136 57.211
3.11 189.030 53.326
3.12 191.659 52.679
3.13 --undefined-- 53.029
3.14 --undefined-- 52.416
3.15 --undefined-- 52.423
3.16 --undefined-- 51.574
3.17 --undefined-- 48.992
3.18 --undefined-- 49.696
3.19 --undefined-- 54.966
3.20 270.448 60.363
3.21 262.915 64.186
3.22 260.699 66.526
3.23 259.442 68.064
3.24 259.090 69.012
3.25 259.537 69.316
3.26 259.401 68.683
3.27 258.607 66.734
3.28 256.271 63.097
3.29 252.811 57.945
3.30 257.656 53.150
3.31 --undefined-- 50.141
3.32 --undefined-- 49.973
3.33 --undefined-- 53.274
3.34 --undefined-- 54.605
3.35 --undefined-- 52.581
3.36 --undefined-- 50.090
3.37 --undefined-- 50.040
3.38 --undefined-- 48.680
3.39 --undefined-- 46.776
3.40 --undefined-- 46.828
3.41 --undefined-- 50.504
3.42 --undefined-- 57.169
3.43 --undefined-- 61.970
3.44 172.611 63.859
3.45 172.445 63.623
3.46 169.692 62.687
3.47 165.848 62.476
3.48 163.335 62.979
3.49 156.181 63.317
3.50 155.695 63.530
3.51 156.848 63.986
3.52 157.914 64.389
3.53 159.641 64.434
3.54 161.065 64.128
3.55 164.299 63.586
3.56 169.169 63.109
3.57 177.356 63.142
3.58 181.128 63.308
3.59 191.883 63.109
3.60 204.396 62.200
3.61 217.645 60.524
3.62 219.333 58.724
3.63 217.143 56.690
3.64 199.848 54.750
3.65 --undefined-- 54.401
3.66 --undefined-- 54.462
3.67 --undefined-- 54.589
3.68 --undefined-- 55.040
3.69 --undefined-- 55.581
3.70 --undefined-- 55.763
3.71 --undefined-- 56.869
3.72 --undefined-- 57.709
3.73 --undefined-- 56.649
3.74 225.434 58.329
3.75 218.413 62.660
3.76 201.815 65.939
3.77 191.794 68.265
3.78 187.226 69.526
3.79 183.742 69.642
3.80 180.459 68.859
3.81 177.878 67.391
3.82 176.030 64.915
3.83 176.417 60.883
3.84 --undefined-- 56.771
3.85 --undefined-- 55.054
3.86 --undefined-- 52.856
3.87 --undefined-- 49.821
3.88 --undefined-- 49.498
3.89 --undefined-- 50.193
3.90 --undefined-- 50.384
3.91 --undefined-- 51.512
3.92 --undefined-- 53.842
3.93 --undefined-- 54.696
3.94 --undefined-- 54.078
3.95 --undefined-- 54.094
3.96 --undefined-- 53.077
3.97 --undefined-- 50.058
3.98 --undefined-- 49.185
3.99 --undefined-- 51.762
4.00 --undefined-- 52.247
4.01 --undefined-- 50.501
4.02 --undefined-- 50.422
4.03 --undefined-- 56.869
4.04 269.829 62.831
4.05 260.071 66.529
4.06 257.727 68.894
4.07 256.146 70.377
4.08 255.617 71.144
4.09 256.081 71.471
4.10 257.560 71.536
4.11 260.072 71.604
4.12 262.661 72.028
4.13 265.112 72.479
4.14 266.909 72.393
4.15 268.226 71.686
4.16 269.499 70.322
4.17 267.969 68.626
4.18 263.140 66.699
4.19 259.428 64.904
4.20 257.057 64.256
4.21 245.372 63.710
4.22 --undefined-- 61.862
4.23 --undefined-- 58.946
4.24 --undefined-- 56.140
4.25 --undefined-- 53.846
4.26 --undefined-- 51.468
4.27 --undefined-- 49.611
4.28 --undefined-- 47.938
4.29 --undefined-- 45.992
4.30 --undefined-- 47.659
4.31 --undefined-- 51.077
4.32 --undefined-- 51.885
4.33 --undefined-- 50.040
4.34 --undefined-- 51.694
4.35 --undefined-- 57.454
4.36 181.511 61.150
4.37 180.744 62.589
4.38 175.925 62.628
4.39 172.896 62.377
4.40 171.838 62.949
4.41 169.865 63.977
4.42 166.564 64.432
4.43 161.402 64.278
4.44 156.545 63.630
4.45 153.427 63.031
4.46 150.900 63.478
4.47 149.412 64.228
4.48 147.815 64.209
4.49 147.226 63.420
4.50 147.726 62.575
4.51 149.391 62.624
4.52 149.736 63.292
4.53 149.297 63.586
4.54 149.260 63.463
4.55 151.455 63.437
4.56 155.942 63.374
4.57 158.442 62.381
4.58 159.525 60.392
4.59 163.256 58.444
4.60 --undefined-- 56.335
4.61 --undefined-- 54.024
4.62 --undefined-- 53.158
4.63 --undefined-- 53.713
4.64 --undefined-- 54.391
4.65 --undefined-- 55.190
4.66 --undefined-- 56.797
4.67 --undefined-- 58.217
4.68 --undefined-- 58.147
4.69 --undefined-- 57.658
4.70 188.528 58.118
4.71 191.107 59.340
4.72 179.127 61.450
4.73 176.310 63.531
4.74 170.554 64.962
4.75 167.232 65.825
4.76 165.446 66.579
4.77 165.026 67.603
4.78 165.942 68.598
4.79 166.075 69.173
4.80 165.674 69.409
4.81 166.170 69.500
4.82 166.548 69.575
4.83 166.198 69.507
4.84 165.879 69.041
4.85 165.547 68.186
4.86 166.261 67.287
4.87 166.782 66.751
4.88 166.063 66.092
4.89 164.712 64.096
4.90 165.200 60.472
4.91 --undefined-- 56.198
4.92 --undefined-- 52.746
4.93 --undefined-- 50.942
4.94 --undefined-- 51.181
4.95 --undefined-- 57.520
4.96 --undefined-- 64.244
4.97 --undefined-- 67.818
4.98 174.306 --undefined--
4.99 170.070 --undefined--
5.00 --undefined-- --undefined--
5.01 --undefined-- --undefined--
