Time Pitch Intensity
0.01 --undefined-- --undefined--
0.02 112.373 --undefined--
0.03 107.504 --undefined--
0.04 107.549 --undefined--
0.05 108.040 67.698
0.06 109.462 68.359
0.07 114.238 68.752
0.08 117.983 68.751
0.09 125.720 68.383
0.10 132.458 67.890
0.11 134.889 67.412
0.12 143.529 67.018
0.13 160.117 66.670
0.14 168.581 66.092
0.15 169.454 64.953
0.16 174.683 63.835
0.17 190.319 65.023
0.18 186.850 67.492
0.19 178.545 69.122
0.20 172.592 69.980
0.21 168.954 70.385
0.22 166.285 70.421
0.23 159.274 70.229
0.24 154.424 69.982
0.25 150.501 69.651
0.26 145.350 69.163
0.27 142.411 68.573
0.28 136.250 68.186
0.29 132.357 68.168
0.30 130.184 68.100
0.31 129.499 67.711
0.32 128.033 66.902
0.33 125.509 65.782
0.34 123.170 64.676
0.35 120.159 63.831
0.36 118.153 63.493
0.37 116.955 63.586
0.38 116.236 63.816
0.39 115.082 64.142
0.40 114.665 64.687
0.41 114.962 65.313
0.42 115.187 65.719
0.43 114.601 65.895
0.44 112.940 65.952
0.45 110.942 65.764
0.46 109.544 65.122
0.47 108.314 64.038
0.48 107.548 62.654
0.49 109.477 60.396
0.50 111.140 56.310
0.51 --undefined-- 50.337
0.52 --undefined-- 45.337
0.53 --undefined-- 44.480
0.54 --undefined-- 45.997
0.55 --undefined-- 47.518
0.56 --undefined-- 52.311
0.57 --undefined-- 60.230
0.58 --undefined-- 65.426
0.59 --undefined-- 67.771
0.60 --undefined-- 68.001
0.61 --undefined-- 66.510
0.62 --undefined-- 63.268
0.63 --undefined-- 58.273
0.64 --undefined-- 51.543
0.65 --undefined-- 44.535
0.66 --undefined-- 50.777
0.67 --undefined-- 57.189
0.68 --undefined-- 60.104
0.69 --undefined-- 61.354
0.70 117.154 62.267
0.71 118.767 62.901
0.72 124.237 63.446
0.73 134.781 64.154
0.74 142.907 65.176
0.75 149.754 66.516
0.76 148.093 67.908
0.77 141.413 68.957
0.78 139.108 69.447
0.79 138.706 69.337
0.80 139.313 68.484
0.81 139.371 66.392
0.82 140.774 62.561
0.83 143.042 57.050
0.84 --undefined-- 50.525
0.85 --undefined-- 45.890
0.86 --undefined-- 44.083
0.87 --undefined-- 41.932
0.88 --undefined-- 41.170
0.89 --undefined-- 42.958
0.90 --undefined-- 47.122
0.91 --undefined-- 55.749
0.92 --undefined-- 62.624
0.93 --undefined-- 66.180
0.94 123.790 67.213
0.95 112.720 66.752
0.96 109.562 65.904
0.97 106.436 64.601
0.98 104.204 62.256
0.99 105.868 59.603
1.00 108.721 56.690
1.01 --undefined-- 52.642
1.02 --undefined-- 47.530
1.03 --undefined-- 42.782
1.04 --undefined-- 47.710
1.05 --undefined-- 58.469
1.06 --undefined-- 65.683
1.07 141.995 69.689
1.08 141.826 71.630
1.09 134.893 72.638
1.10 134.701 73.303
1.11 133.928 73.485
1.12 132.350 73.326
1.13 129.669 72.709
1.14 105.559 71.087
1.15 105.185 68.046
1.16 77.614 63.381
1.17 76.947 57.386
1.18 --undefined-- 50.855
1.19 --undefined-- 45.620
1.20 --undefined-- 43.030
1.21 --undefined-- 40.954
1.22 --undefined-- 38.593
1.23 --undefined-- 36.188
1.24 --undefined-- 34.902
1.25 --undefined-- 35.870
1.26 --undefined-- 37.363
1.27 --undefined-- 38.077
1.28 --undefined-- 38.067
1.29 --undefined-- 37.620
1.30 --undefined-- 36.668
1.31 --undefined-- 37.063
1.32 --undefined-- 38.902
1.33 --undefined-- 39.947
1.34 --undefined-- 39.774
1.35 --undefined-- 39.222
1.36 --undefined-- 39.587
1.37 --undefined-- 40.735
1.38 --undefined-- 41.642
1.39 --undefined-- 42.122
1.40 --undefined-- 42.473
1.41 --undefined-- 42.193
1.42 --undefined-- 41.389
1.43 --undefined-- 40.549
1.44 --undefined-- 39.955
1.45 --undefined-- 39.676
1.46 --undefined-- 38.843
1.47 --undefined-- 36.728
1.48 --undefined-- 33.794
1.49 --undefined-- 33.668
1.50 --undefined-- 36.832
1.51 --undefined-- 38.545
1.52 --undefined-- 38.756
1.53 --undefined-- 41.450
1.54 --undefined-- 51.086
1.55 --undefined-- 58.031
1.56 --undefined-- 62.259
1.57 --undefined-- 65.481
1.58 --undefined-- 68.543
1.59 180.285 71.192
1.60 189.005 72.757
1.61 199.863 73.309
1.62 210.868 73.447
1.63 215.263 73.282
1.64 215.667 72.064
1.65 212.073 69.220
1.66 207.631 64.505
1.67 214.820 57.792
1.68 --undefined-- 49.964
1.69 --undefined-- 46.054
1.70 --undefined-- 48.741
1.71 --undefined-- 54.862
1.72 --undefined-- 63.031
1.73 250.829 69.229
1.74 229.607 72.751
1.75 221.822 74.150
1.76 213.376 74.262
1.77 208.389 73.950
1.78 204.464 73.614
1.79 204.690 73.283
1.80 205.751 72.639
1.81 205.013 71.854
1.82 204.381 71.457
1.83 203.471 70.920
1.84 200.479 69.173
1.85 194.332 65.691
1.86 197.277 61.596
1.87 191.337 58.637
1.88 191.030 56.554
1.89 201.696 54.422
1.90 223.113 53.270
1.91 --undefined-- 59.090
1.92 --undefined-- 65.843
1.93 --undefined-- 70.131
1.94 --undefined-- 72.285
1.95 --undefined-- 73.042
1.96 --undefined-- 73.105
1.97 --undefined-- 72.923
1.98 124.109 72.731
1.99 127.353 72.407
2.00 133.594 71.848
2.01 142.921 71.202
2.02 144.696 70.654
2.03 151.314 70.251
2.04 158.261 70.091
2.05 166.918 70.190
2.06 174.148 70.356
2.07 180.369 70.526
2.08 182.972 70.592
2.09 185.344 70.328
2.10 185.796 69.718
2.11 182.846 69.153
2.12 179.637 69.158
2.13 175.792 69.663
2.14 170.714 70.245
2.15 166.003 70.623
2.16 161.701 70.795
2.17 152.639 70.828
2.18 145.029 70.650
2.19 139.856 70.128
2.20 136.079 69.383
2.21 133.749 68.908
2.22 132.883 68.954
2.23 132.873 69.132
2.24 132.452 69.116
2.25 131.507 68.991
2.26 130.631 69.003
2.27 130.396 69.245
2.28 127.999 69.448
2.29 124.293 69.527
2.30 121.135 69.608
2.31 120.143 69.631
2.32 116.074 69.464
2.33 112.371 69.057
2.34 109.230 68.740
2.35 107.798 68.840
2.36 103.212 68.741
2.37 102.696 68.382
2.38 99.921 68.075
2.39 101.237 67.887
2.40 101.849 67.855
2.41 102.583 67.947
2.42 104.687 67.999
2.43 105.896 67.817
2.44 107.820 67.696
2.45 110.587 67.930
2.46 110.017 68.275
2.47 110.171 68.638
2.48 114.818 69.133
2.49 117.136 69.489
2.50 118.826 69.531
2.51 120.104 69.093
2.52 119.502 67.829
2.53 117.126 65.233
2.54 115.033 60.800
2.55 --undefined-- 54.236
2.56 --undefined-- 46.271
2.57 --undefined-- 40.360
2.58 --undefined-- 40.188
2.59 --undefined-- 43.212
2.60 --undefined-- 44.869
2.61 --undefined-- 51.524
2.62 --undefined-- 61.407
2.63 157.061 67.754
2.64 148.989 70.885
2.65 130.866 71.948
2.66 121.832 72.054
2.67 116.262 71.934
2.68 113.062 71.900
2.69 107.999 71.957
2.70 107.022 71.727
2.71 104.069 70.763
2.72 99.695 69.350
2.73 89.844 67.474
2.74 90.021 64.452
2.75 --undefined-- 60.115
2.76 --undefined-- 54.656
2.77 --undefined-- 48.175
2.78 --undefined-- 43.845
2.79 --undefined-- 41.502
2.80 --undefined-- 40.381
2.81 --undefined-- 38.863
2.82 --undefined-- 36.603
2.83 --undefined-- 35.928
2.84 --undefined-- 37.212
2.85 --undefined-- 38.736
2.86 --undefined-- 39.385
2.87 --undefined-- 38.939
2.88 --undefined-- 38.824
2.89 --undefined-- 39.702
2.90 --undefined-- 40.636
2.91 --undefined-- 40.883
2.92 --undefined-- 40.521
2.93 --undefined-- 39.916
2.94 --undefined-- 38.948
2.95 --undefined-- 37.663
2.96 --undefined-- 37.335
2.97 --undefined-- 38.618
2.98 --undefined-- 39.680
2.99 --undefined-- 39.212
3.00 --undefined-- 36.968
3.01 --undefined-- 33.684
3.02 --undefined-- 34.045
3.03 --undefined-- 37.293
3.04 --undefined-- 38.986
3.05 --undefined-- 38.800
3.06 --undefined-- 38.042
3.07 --undefined-- 37.918
3.08 --undefined-- 37.946
3.09 --undefined-- 43.599
3.10 --undefined-- 55.177
3.11 --undefined-- 63.127
3.12 150.576 67.767
3.13 156.549 70.385
3.14 158.492 71.720
3.15 159.843 72.241
3.16 178.054 72.810
3.17 192.682 72.985
3.18 218.801 72.750
3.19 227.951 73.048
3.20 233.777 73.467
3.21 235.737 73.613
3.22 236.267 73.541
3.23 235.466 73.411
3.24 233.113 73.201
3.25 229.646 72.721
3.26 223.971 71.972
3.27 208.881 71.218
3.28 195.415 71.053
3.29 184.653 71.902
3.30 177.361 72.789
3.31 170.103 72.786
3.32 163.824 72.222
3.33 159.389 72.056
3.34 162.058 72.401
3.35 168.949 72.587
3.36 174.413 72.350
3.37 178.977 71.809
3.38 184.932 71.133
3.39 191.205 70.671
3.40 196.215 70.675
3.41 201.865 71.388
3.42 206.209 72.435
3.43 204.335 72.885
3.44 199.656 72.581
3.45 190.624 72.021
3.46 187.096 71.737
3.47 190.937 71.449
3.48 186.452 70.878
3.49 182.945 70.703
3.50 176.812 71.090
3.51 171.382 71.625
3.52 166.923 72.243
3.53 158.821 72.621
3.54 152.446 72.202
3.55 149.708 70.628
3.56 149.152 67.583
3.57 150.231 62.542
3.58 161.026 55.651
3.59 --undefined-- 50.561
3.60 --undefined-- 49.233
3.61 --undefined-- 48.630
3.62 --undefined-- 48.607
3.63 --undefined-- 49.034
3.64 --undefined-- 50.783
3.65 --undefined-- 58.733
3.66 --undefined-- 65.417
3.67 --undefined-- 68.881
3.68 --undefined-- 70.119
3.69 140.521 70.343
3.70 129.660 70.647
3.71 125.089 71.520
3.72 122.222 72.284
3.73 121.963 72.725
3.74 123.204 72.945
3.75 125.573 72.718
3.76 127.719 72.007
3.77 133.028 71.182
3.78 136.404 70.628
3.79 140.459 70.368
3.80 144.844 70.225
3.81 151.260 70.129
3.82 154.694 70.038
3.83 159.362 70.466
3.84 167.329 71.514
3.85 169.837 72.267
3.86 172.050 72.549
3.87 173.924 72.555
3.88 176.966 72.382
3.89 180.141 72.177
3.90 183.228 72.020
3.91 186.048 71.879
3.92 188.808 71.744
3.93 190.871 71.530
3.94 192.448 71.138
3.95 193.451 70.677
3.96 197.195 69.925
3.97 193.300 68.635
3.98 188.211 67.586
3.99 186.887 67.265
4.00 181.105 67.315
4.01 171.940 67.585
4.02 163.364 67.640
4.03 144.657 67.793
4.04 152.520 68.652
4.05 137.673 69.800
4.06 125.734 70.646
4.07 119.631 71.009
4.08 117.622 71.175
4.09 113.913 71.259
4.10 112.440 71.094
4.11 112.800 70.829
4.12 112.895 70.593
4.13 112.599 70.411
4.14 112.070 70.177
4.15 111.446 69.833
4.16 110.870 69.508
4.17 111.349 69.071
4.18 111.884 68.391
4.19 111.010 67.593
4.20 109.208 66.397
4.21 102.577 64.606
4.22 100.170 62.168
4.23 101.280 58.898
4.24 --undefined-- 54.929
4.25 --undefined-- 49.882
4.26 --undefined-- 43.187
4.27 --undefined-- 38.124
4.28 --undefined-- 37.410
4.29 --undefined-- 43.739
4.30 --undefined-- 50.691
4.31 --undefined-- 54.335
4.32 --undefined-- 55.469
4.33 --undefined-- 55.802
4.34 --undefined-- 55.950
4.35 --undefined-- 55.334
4.36 --undefined-- 54.056
4.37 --undefined-- 53.874
4.38 --undefined-- 58.292
4.39 --undefined-- 64.391
4.40 139.444 67.711
4.41 127.051 68.767
4.42 112.317 68.561
4.43 103.568 67.726
4.44 97.460 66.814
4.45 96.875 66.086
4.46 93.302 65.412
4.47 90.224 64.926
4.48 88.036 64.487
4.49 85.515 64.115
4.50 86.459 63.977
4.51 87.232 63.691
4.52 89.631 62.989
4.53 87.764 62.162
4.54 89.668 62.296
4.55 95.627 63.346
4.56 98.169 64.434
4.57 100.051 65.275
4.58 101.901 65.722
4.59 104.836 65.959
4.60 106.581 66.216
4.61 107.859 66.362
4.62 109.197 66.281
4.63 110.031 66.072
4.64 110.919 65.783
4.65 111.950 65.398
4.66 115.024 65.225
4.67 119.874 65.622
4.68 122.914 66.212
4.69 125.706 66.868
4.70 127.302 67.710
4.71 127.782 68.306
4.72 128.006 68.395
4.73 128.629 68.321
4.74 129.357 68.338
4.75 130.658 68.343
4.76 135.800 68.548
4.77 138.104 69.088
4.78 142.420 69.740
4.79 146.682 70.474
4.80 146.964 71.089
4.81 148.698 71.395
4.82 151.004 71.575
4.83 152.627 71.731
4.84 153.559 71.756
4.85 152.987 71.518
4.86 152.720 70.727
4.87 161.770 69.147
4.88 158.644 66.709
4.89 166.327 63.237
4.90 160.461 58.753
4.91 --undefined-- 52.734
4.92 --undefined-- 45.639
4.93 --undefined-- 40.883
4.94 --undefined-- 40.930
4.95 --undefined-- 42.179
4.96 --undefined-- 42.442
4.97 --undefined-- 41.936
4.98 --undefined-- 41.177
4.99 --undefined-- 40.698
5.00 --undefined-- 41.418
5.01 --undefined-- 42.297
5.02 --undefined-- 42.223
5.03 --undefined-- 41.140
5.04 --undefined-- 39.442
5.05 --undefined-- 37.832
5.06 --undefined-- 37.438
5.07 --undefined-- 38.091
5.08 --undefined-- 38.773
5.09 --undefined-- 38.641
5.10 --undefined-- 37.077
5.11 --undefined-- 34.661
5.12 --undefined-- 34.943
5.13 --undefined-- 37.524
5.14 --undefined-- 39.256
5.15 --undefined-- 39.598
5.16 --undefined-- 38.158
5.17 --undefined-- 35.502
5.18 --undefined-- 35.092
5.19 --undefined-- 38.260
5.20 --undefined-- 41.392
5.21 --undefined-- 45.578
5.22 --undefined-- 54.834
5.23 --undefined-- 62.429
5.24 149.301 66.905
5.25 146.426 69.376
5.26 142.365 70.915
5.27 140.120 71.928
5.28 141.920 72.512
5.29 147.341 72.700
5.30 152.714 72.540
5.31 159.205 72.265
5.32 162.749 71.862
5.33 166.686 70.813
5.34 174.837 68.801
5.35 176.669 65.503
5.36 167.623 60.580
5.37 --undefined-- 53.695
5.38 --undefined-- 47.272
5.39 --undefined-- 46.724
5.40 --undefined-- 47.041
5.41 --undefined-- 46.883
5.42 --undefined-- 47.936
5.43 --undefined-- 53.883
5.44 --undefined-- 61.955
5.45 170.405 67.248
5.46 159.773 70.059
5.47 147.943 71.342
5.48 140.091 71.625
5.49 131.570 71.217
5.50 129.570 70.933
5.51 130.902 71.248
5.52 132.642 71.621
5.53 133.875 71.696
5.54 135.928 71.500
5.55 138.506 71.129
5.56 141.829 70.762
5.57 145.324 70.809
5.58 148.094 71.161
5.59 150.449 71.350
5.60 151.640 71.471
5.61 151.804 71.775
5.62 152.082 72.234
5.63 152.951 72.852
5.64 152.563 73.340
5.65 153.456 73.645
5.66 153.772 73.857
5.67 154.218 74.073
5.68 153.470 74.447
5.69 152.235 74.686
5.70 149.537 74.522
5.71 146.669 73.943
5.72 144.308 73.024
5.73 143.151 71.679
5.74 142.532 69.967
5.75 142.398 68.316
5.76 143.072 66.979
5.77 147.940 65.925
5.78 148.749 65.378
5.79 148.707 65.442
5.80 145.959 65.949
5.81 139.711 67.162
5.82 131.076 68.799
5.83 121.026 69.896
5.84 116.392 69.971
5.85 118.143 69.642
5.86 116.550 70.176
5.87 116.470 71.028
5.88 118.354 71.331
5.89 120.199 71.060
5.90 122.026 70.469
5.91 123.457 69.902
5.92 127.671 69.509
5.93 128.427 68.640
5.94 133.705 67.151
5.95 133.258 65.539
5.96 138.077 63.551
5.97 141.870 60.162
5.98 153.319 55.204
5.99 --undefined-- 49.330
6.00 --undefined-- 44.584
6.01 --undefined-- 44.021
6.02 --undefined-- --undefined--
6.03 --undefined-- --undefined--
6.04 --undefined-- --undefined--
6.05 --undefined-- --undefined--
