Time Pitch Intensity
0.01 --undefined-- --undefined--
0.02 162.513 --undefined--
0.03 160.511 --undefined--
0.04 156.617 --undefined--
0.05 148.115 74.984
0.06 142.185 74.360
0.07 129.050 72.622
0.08 117.475 69.800
0.09 108.275 66.811
0.10 107.732 65.148
0.11 119.004 65.559
0.12 128.338 67.070
0.13 132.344 68.616
0.14 131.568 69.293
0.15 125.987 69.216
0.16 121.371 68.871
0.17 120.797 68.437
0.18 119.653 68.085
0.19 119.577 67.753
0.20 121.091 67.212
0.21 123.361 66.685
0.22 123.634 66.365
0.23 121.521 66.025
0.24 121.188 65.784
0.25 120.436 65.719
0.26 119.515 65.642
0.27 118.607 65.455
0.28 118.785 65.221
0.29 118.767 64.933
0.30 118.946 64.576
0.31 118.658 64.280
0.32 119.800 63.791
0.33 --undefined-- 62.536
0.34 --undefined-- 60.657
0.35 94.409 58.452
0.36 95.298 54.937
0.37 --undefined-- 49.294
0.38 --undefined-- 42.346
0.39 --undefined-- 39.129
0.40 --undefined-- 40.105
0.41 --undefined-- 40.441
0.42 --undefined-- 38.867
0.43 --undefined-- 37.070
0.44 --undefined-- 36.772
0.45 --undefined-- 37.881
0.46 --undefined-- 45.303
0.47 --undefined-- 53.385
0.48 --undefined-- 57.249
0.49 --undefined-- 57.704
0.50 --undefined-- 60.821
0.51 184.325 66.802
0.52 175.296 71.010
0.53 172.147 73.775
0.54 169.191 75.178
0.55 165.721 75.266
0.56 163.487 74.874
0.57 164.621 75.030
0.58 167.274 75.621
0.59 170.176 75.990
0.60 171.484 75.337
0.61 170.549 72.787
0.62 --undefined-- 68.042
0.63 --undefined-- 61.895
0.64 --undefined-- 55.368
0.65 --undefined-- 47.880
0.66 --undefined-- 42.919
0.67 --undefined-- 44.034
0.68 --undefined-- 52.706
0.69 196.068 59.713
0.70 164.211 64.690
0.71 161.027 68.064
0.72 156.132 70.162
0.73 151.134 71.528
0.74 147.696 72.559
0.75 147.517 73.451
0.76 146.388 73.771
0.77 136.409 73.195
0.78 134.791 72.504
0.79 133.387 72.197
0.80 132.505 72.131
0.81 132.227 72.281
0.82 132.302 72.555
0.83 132.558 72.981
0.84 133.588 73.625
0.85 134.816 74.173
0.86 134.737 74.337
0.87 134.592 74.191
0.88 133.714 73.856
0.89 132.889 73.448
0.90 131.680 72.983
0.91 129.873 72.344
0.92 130.122 71.672
0.93 129.428 71.050
0.94 128.289 69.770
0.95 124.320 67.019
0.96 113.246 62.505
0.97 109.580 56.672
0.98 --undefined-- 50.343
0.99 --undefined-- 44.820
1.00 --undefined-- 44.455
1.01 --undefined-- 53.005
1.02 --undefined-- 60.283
1.03 --undefined-- 64.002
1.04 --undefined-- 66.201
1.05 177.339 69.361
1.06 153.692 72.194
1.07 143.412 73.852
1.08 137.726 74.603
1.09 135.736 74.576
1.10 133.777 73.683
1.11 131.203 72.092
1.12 128.630 70.657
1.13 125.871 70.529
1.14 126.177 71.037
1.15 126.452 71.164
1.16 127.537 71.074
1.17 128.950 70.997
1.18 131.013 71.002
1.19 132.863 71.148
1.20 134.418 71.311
1.21 136.452 71.275
1.22 138.113 70.913
1.23 138.122 70.187
1.24 136.186 68.831
1.25 132.789 66.368
1.26 --undefined-- 62.047
1.27 --undefined-- 54.818
1.28 --undefined-- 44.239
1.29 --undefined-- 37.249
1.30 --undefined-- 36.975
1.31 --undefined-- 36.617
1.32 --undefined-- 37.020
1.33 --undefined-- 45.983
1.34 --undefined-- 55.088
1.35 173.356 60.679
1.36 146.742 63.784
1.37 142.689 65.672
1.38 142.974 67.185
1.39 143.344 68.438
1.40 143.284 69.457
1.41 142.899 70.330
1.42 143.465 71.030
1.43 145.206 71.558
1.44 145.656 71.847
1.45 144.809 71.677
1.46 142.558 70.670
1.47 136.864 68.343
1.48 130.384 64.380
1.49 131.444 58.836
1.50 --undefined-- 51.871
1.51 --undefined-- 46.314
1.52 --undefined-- 48.725
1.53 --undefined-- 58.395
1.54 193.383 66.749
1.55 183.924 71.730
1.56 162.208 74.225
1.57 152.739 75.240
1.58 146.887 75.291
1.59 142.625 73.811
1.60 --undefined-- 69.736
1.61 --undefined-- 62.503
1.62 --undefined-- 54.573
1.63 --undefined-- 51.683
1.64 --undefined-- 54.326
1.65 --undefined-- 60.690
1.66 144.835 65.681
1.67 146.373 68.878
1.68 142.484 70.545
1.69 127.247 70.580
1.70 122.057 69.863
1.71 119.578 69.442
1.72 118.781 69.196
1.73 117.729 68.970
1.74 117.302 68.730
1.75 116.457 68.472
1.76 112.962 68.467
1.77 114.546 69.057
1.78 115.909 69.752
1.79 117.084 70.243
1.80 118.418 70.539
1.81 119.576 70.672
1.82 120.140 70.659
1.83 121.085 70.376
1.84 122.264 69.716
1.85 121.088 68.937
1.86 119.428 68.558
1.87 119.462 68.486
1.88 119.011 68.261
1.89 120.791 67.994
1.90 123.715 67.784
1.91 124.492 67.318
1.92 124.977 67.021
1.93 121.680 67.197
1.94 120.559 67.219
1.95 119.839 67.028
1.96 120.775 66.925
1.97 120.309 66.845
1.98 120.408 66.763
1.99 122.618 66.737
2.00 123.285 66.586
2.01 123.889 66.188
2.02 120.085 65.595
2.03 120.171 64.913
2.04 124.119 64.129
2.05 --undefined-- 62.967
2.06 154.783 60.938
2.07 153.237 57.351
2.08 --undefined-- 51.532
2.09 --undefined-- 46.190
2.10 --undefined-- 43.279
2.11 --undefined-- 39.699
2.12 --undefined-- 36.564
2.13 --undefined-- 36.312
2.14 --undefined-- 38.661
2.15 --undefined-- 41.084
2.16 --undefined-- 40.906
2.17 --undefined-- 38.632
2.18 --undefined-- 37.355
2.19 --undefined-- 36.434
2.20 --undefined-- 36.527
2.21 --undefined-- 41.234
2.22 --undefined-- 46.038
2.23 --undefined-- 50.177
2.24 --undefined-- 53.320
2.25 --undefined-- 55.681
2.26 --undefined-- 57.837
2.27 --undefined-- 61.235
2.28 191.665 66.597
2.29 189.845 70.502
2.30 183.645 72.342
2.31 179.441 73.189
2.32 176.706 74.054
2.33 174.985 74.836
2.34 174.155 75.055
2.35 174.003 74.757
2.36 174.408 74.413
2.37 174.922 74.448
2.38 175.189 74.900
2.39 174.816 75.505
2.40 174.712 75.989
2.41 175.517 76.129
2.42 177.570 75.708
2.43 181.269 74.634
2.44 183.621 73.019
2.45 183.273 70.729
2.46 172.776 67.112
2.47 152.074 61.665
2.48 --undefined-- 54.943
2.49 --undefined-- 48.520
2.50 --undefined-- 42.759
2.51 --undefined-- 45.579
2.52 --undefined-- 56.964
2.53 --undefined-- 65.452
2.54 --undefined-- 70.675
2.55 --undefined-- 73.200
2.56 --undefined-- 73.570
2.57 --undefined-- 72.333
2.58 125.032 70.400
2.59 124.513 68.819
2.60 125.514 67.886
2.61 126.608 67.802
2.62 129.739 68.800
2.63 134.434 70.381
2.64 137.094 71.716
2.65 138.442 72.323
2.66 137.759 72.223
2.67 136.824 71.844
2.68 131.850 71.410
2.69 132.098 70.750
2.70 130.614 69.736
2.71 130.463 68.500
2.72 128.393 67.358
2.73 125.737 66.586
2.74 125.205 66.779
2.75 125.507 67.907
2.76 126.406 68.957
2.77 121.399 69.189
2.78 116.300 68.700
2.79 112.422 67.766
2.80 105.742 66.328
2.81 102.506 65.590
2.82 107.886 66.643
2.83 111.520 67.777
2.84 114.553 68.339
2.85 116.421 68.531
2.86 117.463 68.369
2.87 117.200 67.512
2.88 114.190 65.411
2.89 107.009 62.284
2.90 141.170 63.069
2.91 141.661 67.271
2.92 137.772 70.168
2.93 137.547 71.767
2.94 137.883 72.852
2.95 137.684 73.414
2.96 137.859 73.262
2.97 139.062 72.597
2.98 140.136 71.490
2.99 142.021 69.513
3.00 139.631 65.835
3.01 126.332 59.797
3.02 --undefined-- 51.833
3.03 --undefined-- 44.204
3.04 --undefined-- 40.124
3.05 --undefined-- 38.415
3.06 --undefined-- 37.561
3.07 --undefined-- 44.092
3.08 --undefined-- 53.506
3.09 --undefined-- 61.250
3.10 181.478 66.978
3.11 161.367 70.551
3.12 153.674 72.469
3.13 149.339 73.228
3.14 145.216 73.264
3.15 143.234 73.114
3.16 141.599 73.154
3.17 143.724 73.423
3.18 145.325 73.630
3.19 146.483 73.616
3.20 147.857 73.459
3.21 149.219 73.209
3.22 150.295 72.874
3.23 151.634 72.460
3.24 152.680 71.847
3.25 152.456 70.468
3.26 146.294 67.481
3.27 137.168 62.383
3.28 --undefined-- 55.395
3.29 --undefined-- 48.332
3.30 --undefined-- 47.210
3.31 --undefined-- 51.293
3.32 --undefined-- 59.446
3.33 220.899 67.128
3.34 199.068 72.084
3.35 190.973 74.759
3.36 182.282 75.795
3.37 177.156 75.933
3.38 174.292 75.484
3.39 171.078 74.228
3.40 171.312 72.923
3.41 173.203 72.508
3.42 172.843 72.568
3.43 173.309 72.634
3.44 173.393 72.613
3.45 173.198 72.501
3.46 172.405 72.314
3.47 170.512 71.872
3.48 166.593 70.562
3.49 157.998 67.628
3.50 148.690 62.633
3.51 --undefined-- 55.650
3.52 --undefined-- 47.653
3.53 --undefined-- 44.173
3.54 --undefined-- 46.346
3.55 --undefined-- 53.604
3.56 --undefined-- 62.068
3.57 --undefined-- 67.392
3.58 153.328 70.013
3.59 143.791 70.542
3.60 134.109 69.437
3.61 124.535 68.237
3.62 122.813 69.072
3.63 123.561 70.231
3.64 124.003 70.584
3.65 123.666 70.558
3.66 123.131 70.396
3.67 122.550 69.957
3.68 119.931 68.743
3.69 114.187 66.146
3.70 106.469 61.625
3.71 --undefined-- 56.046
3.72 --undefined-- 54.039
3.73 --undefined-- 54.718
3.74 --undefined-- 58.742
3.75 135.738 64.291
3.76 138.029 67.648
3.77 134.580 68.699
3.78 124.886 68.427
3.79 121.759 68.109
3.80 119.966 68.514
3.81 120.592 69.180
3.82 121.258 69.460
3.83 120.988 69.097
3.84 120.871 68.280
3.85 121.897 67.319
3.86 122.326 65.879
3.87 121.589 63.108
3.88 120.937 58.134
3.89 --undefined-- 50.723
3.90 --undefined-- 45.092
3.91 --undefined-- 43.764
3.92 --undefined-- 42.309
3.93 --undefined-- 41.224
3.94 --undefined-- 41.174
3.95 --undefined-- 40.286
3.96 --undefined-- 38.634
3.97 --undefined-- 37.197
3.98 --undefined-- 37.111
3.99 --undefined-- 38.336
4.00 --undefined-- 39.698
4.01 --undefined-- 43.089
4.02 --undefined-- 51.495
4.03 --undefined-- 58.904
4.04 135.414 63.027
4.05 119.486 64.868
4.06 114.258 65.459
4.07 109.115 65.479
4.08 107.150 64.968
4.09 101.984 64.279
4.10 107.608 65.261
4.11 113.223 67.220
4.12 120.040 68.642
4.13 126.332 69.274
4.14 134.203 69.376
4.15 143.989 69.551
4.16 148.573 69.763
4.17 147.213 68.984
4.18 137.771 66.332
4.19 129.904 61.886
4.20 --undefined-- 59.987
4.21 --undefined-- 64.495
4.22 --undefined-- 68.415
4.23 --undefined-- 69.888
4.24 95.559 69.724
4.25 108.564 69.142
4.26 116.989 68.728
4.27 127.761 68.456
4.28 128.494 68.071
4.29 124.304 67.423
4.30 121.170 66.850
4.31 119.017 66.804
4.32 119.974 67.196
4.33 122.609 67.711
4.34 124.521 67.937
4.35 124.945 67.283
4.36 125.062 65.331
4.37 126.477 62.456
4.38 127.892 59.575
4.39 123.107 56.212
4.40 120.631 52.252
4.41 --undefined-- 53.017
4.42 --undefined-- 57.248
4.43 --undefined-- 59.721
4.44 --undefined-- 64.639
4.45 164.978 69.612
4.46 152.046 72.178
4.47 144.016 72.752
4.48 138.442 72.205
4.49 135.962 71.437
4.50 134.206 71.021
4.51 134.455 71.105
4.52 134.011 71.264
4.53 134.148 71.252
4.54 136.268 71.206
4.55 139.201 71.151
4.56 140.012 70.995
4.57 139.870 70.233
4.58 140.888 67.813
4.59 141.571 62.844
4.60 --undefined-- 54.880
4.61 --undefined-- 49.254
4.62 --undefined-- 52.682
4.63 --undefined-- 58.245
4.64 --undefined-- 65.114
4.65 159.729 69.899
4.66 143.727 72.329
4.67 136.539 73.274
4.68 130.545 73.584
4.69 126.585 73.739
4.70 124.105 73.896
4.71 122.382 73.917
4.72 121.572 73.730
4.73 120.369 73.448
4.74 119.866 72.931
4.75 120.207 71.992
4.76 120.806 70.530
4.77 121.640 68.348
4.78 122.124 65.425
4.79 120.768 62.140
4.80 --undefined-- 58.559
4.81 --undefined-- 53.533
4.82 --undefined-- 46.591
4.83 --undefined-- 41.447
4.84 --undefined-- 39.816
4.85 --undefined-- 38.476
4.86 --undefined-- 37.851
4.87 --undefined-- 37.431
4.88 --undefined-- 35.545
4.89 --undefined-- 33.623
4.90 --undefined-- 33.972
4.91 --undefined-- 34.828
4.92 --undefined-- 35.211
4.93 --undefined-- 35.002
4.94 --undefined-- 34.845
4.95 --undefined-- 35.826
4.96 --undefined-- 36.776
4.97 --undefined-- 37.787
4.98 --undefined-- 38.297
4.99 --undefined-- 37.077
5.00 --undefined-- 34.504
5.01 --undefined-- 34.247
5.02 --undefined-- 35.963
5.03 --undefined-- 35.974
5.04 --undefined-- 35.643
5.05 --undefined-- 36.396
5.06 --undefined-- 36.485
5.07 --undefined-- 35.774
5.08 --undefined-- 35.122
5.09 --undefined-- 34.663
5.10 --undefined-- 35.480
5.11 --undefined-- 35.736
5.12 --undefined-- 34.915
5.13 --undefined-- 33.871
5.14 --undefined-- 32.647
5.15 --undefined-- 31.582
5.16 --undefined-- 30.500
5.17 --undefined-- 30.200
5.18 --undefined-- 32.241
5.19 --undefined-- 34.245
5.20 --undefined-- 35.087
5.21 --undefined-- 36.714
5.22 --undefined-- 38.000
5.23 --undefined-- 37.609
5.24 --undefined-- 36.986
5.25 --undefined-- 37.519
5.26 --undefined-- 37.121
5.27 --undefined-- 36.163
5.28 --undefined-- 36.009
5.29 --undefined-- 35.412
5.30 --undefined-- 34.696
5.31 --undefined-- 34.714
5.32 --undefined-- 34.645
5.33 --undefined-- 34.638
5.34 --undefined-- 34.839
5.35 --undefined-- 34.721
5.36 --undefined-- 33.953
5.37 --undefined-- 33.984
5.38 --undefined-- 34.692
5.39 --undefined-- 34.495
5.40 --undefined-- 34.688
5.41 --undefined-- 36.575
5.42 --undefined-- 37.893
5.43 --undefined-- 37.279
5.44 --undefined-- 35.288
5.45 --undefined-- 33.170
5.46 --undefined-- 33.825
5.47 --undefined-- 44.257
5.48 --undefined-- 55.121
5.49 --undefined-- 63.378
5.50 --undefined-- 69.742
5.51 188.543 73.726
5.52 189.013 75.329
5.53 187.679 75.101
5.54 186.794 74.135
5.55 189.441 73.896
5.56 193.590 74.342
5.57 193.799 74.632
5.58 193.484 74.646
5.59 191.363 74.407
5.60 186.497 73.673
5.61 177.452 71.887
5.62 162.164 68.524
5.63 146.572 63.826
5.64 --undefined-- 61.016
5.65 --undefined-- 66.215
5.66 190.965 71.388
5.67 174.892 74.327
5.68 165.884 76.118
5.69 160.158 77.043
5.70 153.540 77.054
5.71 149.592 76.540
5.72 145.650 75.890
5.73 142.346 75.536
5.74 140.680 75.569
5.75 140.583 75.333
5.76 142.131 74.330
5.77 141.063 72.591
5.78 135.781 69.701
5.79 117.444 65.176
5.80 121.043 60.091
5.81 107.514 55.801
5.82 --undefined-- 56.275
5.83 --undefined-- 59.681
5.84 --undefined-- 60.801
5.85 --undefined-- 64.106
5.86 165.765 69.538
5.87 154.409 72.897
5.88 149.438 74.355
5.89 143.428 74.466
5.90 137.132 73.507
5.91 132.765 71.381
5.92 124.690 67.428
5.93 113.552 61.643
5.94 --undefined-- 61.414
5.95 --undefined-- 67.704
5.96 143.629 71.705
5.97 135.340 73.089
5.98 128.708 72.907
5.99 124.774 72.362
6.00 123.530 71.482
6.01 124.341 70.596
6.02 125.382 70.162
6.03 122.115 --undefined--
6.04 121.378 --undefined--
6.05 --undefined-- --undefined--
6.06 --undefined-- --undefined--
