Time Pitch Intensity
0.01 --undefined-- --undefined--
0.02 96.872 --undefined--
0.03 92.926 --undefined--
0.04 91.052 --undefined--
0.05 --undefined-- 51.348
0.06 --undefined-- 47.695
0.07 --undefined-- 42.979
0.08 --undefined-- 39.966
0.09 --undefined-- 40.306
0.10 --undefined-- 41.053
0.11 --undefined-- 41.858
0.12 --undefined-- 42.051
0.13 --undefined-- 41.122
0.14 --undefined-- 38.945
0.15 --undefined-- 35.517
0.16 --undefined-- 31.557
0.17 --undefined-- 31.365
0.18 --undefined-- 34.954
0.19 --undefined-- 37.148
0.20 --undefined-- 37.391
0.21 --undefined-- 36.004
0.22 --undefined-- 33.520
0.23 --undefined-- 32.855
0.24 --undefined-- 36.282
0.25 --undefined-- 40.318
0.26 --undefined-- 45.940
0.27 --undefined-- 56.062
0.28 --undefined-- 64.193
0.29 195.947 68.630
0.30 190.673 70.419
0.31 177.950 70.936
0.32 173.463 71.047
0.33 --undefined-- 70.388
0.34 --undefined-- 68.872
0.35 --undefined-- 66.491
0.36 --undefined-- 62.777
0.37 --undefined-- 57.487
0.38 --undefined-- 50.794
0.39 --undefined-- 44.326
0.40 --undefined-- 41.099
0.41 --undefined-- 38.092
0.42 --undefined-- 38.367
0.43 --undefined-- 49.409
0.44 --undefined-- 57.755
0.45 121.634 62.661
0.46 121.117 65.265
0.47 126.128 66.885
0.48 127.313 68.419
0.49 125.631 69.899
0.50 122.559 71.017
0.51 119.978 71.323
0.52 118.624 70.657
0.53 117.738 69.603
0.54 114.822 68.857
0.55 115.562 68.404
0.56 115.631 67.931
0.57 112.280 66.982
0.58 112.415 65.080
0.59 109.767 61.723
0.60 111.818 57.025
0.61 117.160 51.613
0.62 --undefined-- 45.386
0.63 --undefined-- 40.457
0.64 --undefined-- 43.058
0.65 --undefined-- 48.741
0.66 --undefined-- 51.517
0.67 --undefined-- 51.240
0.68 --undefined-- 52.289
0.69 140.623 57.884
0.70 140.626 62.764
0.71 151.276 65.694
0.72 153.079 67.446
0.73 152.443 68.935
0.74 151.115 69.909
0.75 149.037 69.932
0.76 147.408 69.463
0.77 142.699 69.441
0.78 136.860 69.723
0.79 133.088 69.614
0.80 130.636 69.256
0.81 128.943 68.989
0.82 128.277 68.841
0.83 128.120 68.813
0.84 127.553 68.793
0.85 127.185 68.546
0.86 126.955 67.925
0.87 126.970 66.878
0.88 126.769 65.660
0.89 126.209 65.026
0.90 128.577 65.528
0.91 130.578 66.385
0.92 129.932 66.833
0.93 128.912 66.894
0.94 127.750 66.786
0.95 125.865 66.629
0.96 123.801 66.580
0.97 120.834 66.745
0.98 116.961 66.948
0.99 112.790 66.956
1.00 107.430 66.878
1.01 105.692 66.841
1.02 103.135 66.651
1.03 102.103 66.148
1.04 102.853 65.490
1.05 103.193 64.868
1.06 102.945 64.002
1.07 93.558 62.216
1.08 91.424 59.242
1.09 95.207 55.428
1.10 101.147 51.876
1.11 96.485 50.513
1.12 95.529 49.603
1.13 --undefined-- 47.727
1.14 --undefined-- 46.482
1.15 --undefined-- 51.160
1.16 --undefined-- 57.439
1.17 --undefined-- 61.051
1.18 80.868 62.123
1.19 87.122 61.838
1.20 86.328 61.559
1.21 86.011 61.399
1.22 85.923 61.040
1.23 85.464 61.035
1.24 90.565 61.819
1.25 90.700 62.527
1.26 93.441 62.923
1.27 97.284 63.113
1.28 101.436 63.280
1.29 104.187 63.768
1.30 106.339 64.249
1.31 108.104 64.158
1.32 108.033 63.312
1.33 106.735 61.805
1.34 109.275 59.772
1.35 110.333 57.522
1.36 133.010 56.440
1.37 133.930 59.661
1.38 111.643 63.766
1.39 111.728 66.058
1.40 107.757 66.650
1.41 --undefined-- 66.292
1.42 --undefined-- 65.373
1.43 --undefined-- 63.580
1.44 --undefined-- 60.477
1.45 --undefined-- 55.129
1.46 --undefined-- 47.422
1.47 --undefined-- 44.786
1.48 --undefined-- 45.851
1.49 --undefined-- 43.966
1.50 --undefined-- 39.833
1.51 --undefined-- 38.222
1.52 --undefined-- 37.697
1.53 --undefined-- 36.283
1.54 --undefined-- 34.072
1.55 --undefined-- 33.822
1.56 --undefined-- 35.446
1.57 --undefined-- 36.667
1.58 --undefined-- 37.842
1.59 --undefined-- 38.379
1.60 --undefined-- 37.357
1.61 --undefined-- 35.878
1.62 --undefined-- 36.723
1.63 --undefined-- 37.894
1.64 --undefined-- 38.026
1.65 --undefined-- 37.613
1.66 --undefined-- 36.634
1.67 --undefined-- 35.446
1.68 --undefined-- 35.492
1.69 --undefined-- 35.613
1.70 --undefined-- 35.738
1.71 --undefined-- 40.086
1.72 --undefined-- 45.177
1.73 --undefined-- 47.876
1.74 --undefined-- 49.127
1.75 --undefined-- 54.223
1.76 --undefined-- 60.826
1.77 194.715 65.020
1.78 178.648 67.114
1.79 175.645 67.865
1.80 173.715 67.899
1.81 189.754 67.619
1.82 208.714 67.455
1.83 217.767 68.318
1.84 220.646 69.862
1.85 222.802 71.153
1.86 225.827 71.902
1.87 228.257 72.348
1.88 228.551 72.747
1.89 224.289 73.187
1.90 217.594 73.311
1.91 207.836 72.768
1.92 199.541 72.005
1.93 192.624 71.839
1.94 188.315 72.127
1.95 187.507 72.183
1.96 188.741 71.732
1.97 189.605 70.701
1.98 189.055 68.867
1.99 189.228 66.614
2.00 192.767 64.567
2.01 191.238 62.804
2.02 196.216 63.048
2.03 192.193 65.595
2.04 182.337 68.105
2.05 171.579 69.989
2.06 160.721 71.267
2.07 144.956 71.521
2.08 137.330 70.753
2.09 131.381 69.532
2.10 126.375 67.755
2.11 121.121 64.805
2.12 --undefined-- 60.320
2.13 --undefined-- 54.118
2.14 --undefined-- 47.448
2.15 --undefined-- 43.574
2.16 --undefined-- 40.688
2.17 --undefined-- 39.387
2.18 --undefined-- 40.241
2.19 --undefined-- 40.713
2.20 --undefined-- 41.365
2.21 --undefined-- 44.414
2.22 --undefined-- 47.350
2.23 --undefined-- 48.492
2.24 --undefined-- 48.678
2.25 --undefined-- 48.923
2.26 --undefined-- 50.038
2.27 --undefined-- 54.589
2.28 140.789 59.380
2.29 134.570 62.318
2.30 135.380 63.974
2.31 139.828 65.031
2.32 145.755 65.700
2.33 154.032 66.114
2.34 166.686 66.554
2.35 177.325 67.299
2.36 187.528 68.502
2.37 197.813 70.150
2.38 207.695 71.901
2.39 215.639 73.186
2.40 220.707 73.410
2.41 222.285 72.515
2.42 219.856 71.141
2.43 216.465 70.033
2.44 212.366 69.341
2.45 208.007 68.888
2.46 202.607 68.503
2.47 194.196 68.585
2.48 175.834 69.800
2.49 159.938 71.166
2.50 147.831 71.477
2.51 143.121 71.223
2.52 145.694 71.261
2.53 150.797 71.236
2.54 160.263 70.730
2.55 166.663 70.087
2.56 168.676 69.365
2.57 175.171 67.900
2.58 180.692 65.117
2.59 177.431 61.168
2.60 173.862 57.058
2.61 164.935 52.914
2.62 --undefined-- 49.458
2.63 --undefined-- 51.435
2.64 --undefined-- 59.195
2.65 --undefined-- 65.122
2.66 --undefined-- 68.246
2.67 166.321 69.574
2.68 154.661 70.219
2.69 149.880 70.631
2.70 144.920 70.867
2.71 140.369 71.319
2.72 141.062 71.679
2.73 145.465 71.644
2.74 154.017 71.546
2.75 157.708 70.846
2.76 161.430 69.146
2.77 161.087 66.329
2.78 158.088 61.899
2.79 159.882 56.248
2.80 --undefined-- 50.203
2.81 --undefined-- 45.056
2.82 --undefined-- 43.673
2.83 --undefined-- 43.108
2.84 --undefined-- 43.558
2.85 --undefined-- 45.975
2.86 --undefined-- 53.756
2.87 235.829 60.514
2.88 199.136 64.669
2.89 189.836 67.430
2.90 186.184 69.659
2.91 183.785 71.338
2.92 181.329 72.116
2.93 175.737 71.751
2.94 173.946 70.435
2.95 174.631 69.097
2.96 177.177 68.299
2.97 173.668 67.480
2.98 166.868 66.404
2.99 162.024 65.088
3.00 156.643 63.791
3.01 158.090 63.312
3.02 161.471 63.555
3.03 166.609 63.734
3.04 165.379 64.090
3.05 152.629 65.054
3.06 144.245 66.001
3.07 129.903 66.125
3.08 115.481 65.831
3.09 101.702 65.479
3.10 101.754 64.672
3.11 98.919 63.602
3.12 95.777 62.705
3.13 93.141 62.062
3.14 96.865 62.044
3.15 102.083 63.200
3.16 106.104 64.822
3.17 108.991 66.201
3.18 110.507 67.364
3.19 111.977 68.397
3.20 112.092 69.263
3.21 111.215 70.004
3.22 --undefined-- 70.234
3.23 --undefined-- 69.494
3.24 --undefined-- 67.756
3.25 --undefined-- 64.822
3.26 --undefined-- 60.105
3.27 --undefined-- 53.650
3.28 --undefined-- 49.646
3.29 --undefined-- 46.789
3.30 --undefined-- 43.957
3.31 --undefined-- 41.192
3.32 --undefined-- 39.428
3.33 --undefined-- 38.103
3.34 --undefined-- 35.315
3.35 --undefined-- 34.174
3.36 --undefined-- 36.820
3.37 --undefined-- 39.525
3.38 --undefined-- 41.893
3.39 --undefined-- 43.346
3.40 --undefined-- 48.630
3.41 --undefined-- 56.530
3.42 --undefined-- 61.723
3.43 117.401 64.248
3.44 122.215 65.062
3.45 124.145 65.577
3.46 139.329 66.554
3.47 143.756 67.187
3.48 151.628 67.170
3.49 168.100 66.783
3.50 173.868 66.526
3.51 177.882 66.487
3.52 181.307 66.499
3.53 182.083 66.624
3.54 180.823 66.774
3.55 179.158 66.939
3.56 176.660 66.999
3.57 170.432 67.027
3.58 164.794 67.397
3.59 159.427 67.951
3.60 154.448 68.282
3.61 149.441 68.231
3.62 146.654 67.621
3.63 143.543 65.772
3.64 133.073 62.142
3.65 153.624 57.705
3.66 155.096 55.377
3.67 157.540 54.996
3.68 168.690 56.271
3.69 145.125 60.233
3.70 128.966 63.757
3.71 121.778 65.628
3.72 113.816 66.183
3.73 108.787 66.079
3.74 107.193 65.935
3.75 105.519 65.936
3.76 105.529 66.103
3.77 107.033 66.264
3.78 110.207 66.254
3.79 114.858 66.091
3.80 120.333 65.807
3.81 123.899 65.449
3.82 130.361 65.365
3.83 143.246 65.958
3.84 152.106 66.847
3.85 159.704 67.399
3.86 162.403 67.451
3.87 163.082 66.950
3.88 167.542 65.729
3.89 182.685 64.173
3.90 183.061 63.019
3.91 182.723 62.673
3.92 179.319 62.922
3.93 176.846 63.506
3.94 170.266 64.925
3.95 159.747 66.722
3.96 152.180 68.098
3.97 146.272 68.625
3.98 129.998 68.426
3.99 122.939 67.835
4.00 121.030 66.312
4.01 119.955 62.984
4.02 124.866 57.040
4.03 --undefined-- 49.164
4.04 --undefined-- 45.274
4.05 --undefined-- 43.296
4.06 --undefined-- 40.206
4.07 --undefined-- 36.852
4.08 --undefined-- 35.849
4.09 --undefined-- 38.282
4.10 --undefined-- 41.350
4.11 --undefined-- 45.066
4.12 --undefined-- 54.864
4.13 --undefined-- 64.435
4.14 --undefined-- 70.174
4.15 --undefined-- 72.542
4.16 --undefined-- 72.672
4.17 --undefined-- 71.452
4.18 --undefined-- 68.959
4.19 --undefined-- 64.628
4.20 --undefined-- 57.665
4.21 --undefined-- 49.219
4.22 --undefined-- 44.807
4.23 --undefined-- 42.971
4.24 --undefined-- 41.358
4.25 --undefined-- 39.600
4.26 --undefined-- 37.566
4.27 --undefined-- 37.914
4.28 --undefined-- 39.355
4.29 --undefined-- 42.594
4.30 --undefined-- 52.770
4.31 --undefined-- 60.650
4.32 105.214 64.565
4.33 106.409 65.748
4.34 110.572 65.616
4.35 114.995 65.660
4.36 111.958 66.258
4.37 112.981 66.719
4.38 113.543 66.867
4.39 113.826 66.876
4.40 114.208 66.892
4.41 115.057 66.958
4.42 117.853 67.058
4.43 120.700 67.160
4.44 123.404 67.429
4.45 126.783 67.907
4.46 128.948 68.303
4.47 136.215 68.615
4.48 141.735 68.884
4.49 146.197 68.753
4.50 150.812 68.047
4.51 151.484 67.101
4.52 151.465 66.491
4.53 146.834 66.738
4.54 143.384 67.480
4.55 136.951 68.047
4.56 130.684 68.025
4.57 123.786 67.827
4.58 122.124 67.974
4.59 119.956 68.007
4.60 116.749 67.637
4.61 114.558 67.278
4.62 113.139 66.736
4.63 110.189 64.892
4.64 107.644 61.501
4.65 104.802 58.209
4.66 102.301 55.339
4.67 --undefined-- 51.361
4.68 --undefined-- 45.658
4.69 --undefined-- 41.005
4.70 --undefined-- 39.128
4.71 --undefined-- 42.845
4.72 --undefined-- 49.048
4.73 --undefined-- 55.137
4.74 100.608 59.714
4.75 97.154 62.446
4.76 99.515 63.832
4.77 99.151 64.437
4.78 100.318 64.624
4.79 101.415 64.326
4.80 101.802 63.118
4.81 106.092 61.621
4.82 114.028 62.504
4.83 121.340 64.454
4.84 127.463 65.836
4.85 130.692 66.696
4.86 131.896 67.209
4.87 134.044 67.473
4.88 136.415 67.551
4.89 138.803 67.477
4.90 137.616 67.189
4.91 136.543 66.908
4.92 129.545 66.843
4.93 123.594 66.836
4.94 117.856 66.761
4.95 114.849 66.738
4.96 113.399 66.943
4.97 113.499 67.277
4.98 115.608 67.498
4.99 118.391 67.490
5.00 122.328 67.456
5.01 127.374 67.280
5.02 128.827 65.990
5.03 132.791 62.990
5.04 142.487 58.425
5.05 145.895 53.029
5.06 --undefined-- 47.637
5.07 --undefined-- 46.000
5.08 --undefined-- 48.509
5.09 --undefined-- 51.542
5.10 --undefined-- 58.308
5.11 --undefined-- 63.607
5.12 --undefined-- 66.080
5.13 --undefined-- 66.665
5.14 115.259 66.438
5.15 102.067 66.081
5.16 94.145 65.567
5.17 82.450 64.800
5.18 82.322 63.873
5.19 77.205 63.102
5.20 75.325 62.660
5.21 75.996 62.353
5.22 76.792 62.050
5.23 78.216 62.035
5.24 83.406 62.433
5.25 89.007 62.914
5.26 96.154 63.360
5.27 104.243 64.332
5.28 115.550 65.877
5.29 121.316 67.090
5.30 124.906 67.555
5.31 130.224 67.666
5.32 132.268 67.447
5.33 139.275 66.315
5.34 141.134 63.998
5.35 156.028 60.185
5.36 147.529 54.480
5.37 --undefined-- 46.876
5.38 --undefined-- 41.472
5.39 --undefined-- 39.882
5.40 --undefined-- 40.506
5.41 --undefined-- 42.359
5.42 --undefined-- 43.883
5.43 --undefined-- 44.838
5.44 --undefined-- 45.485
5.45 --undefined-- 45.857
5.46 --undefined-- 46.348
5.47 --undefined-- 46.568
5.48 --undefined-- 46.252
5.49 --undefined-- 45.760
5.50 --undefined-- 44.889
5.51 --undefined-- 44.080
5.52 --undefined-- 44.033
5.53 --undefined-- 43.405
5.54 --undefined-- 41.898
5.55 --undefined-- 40.189
5.56 --undefined-- 38.093
5.57 --undefined-- 35.895
5.58 --undefined-- 36.105
5.59 --undefined-- 37.038
5.60 --undefined-- 37.596
5.61 --undefined-- 37.821
5.62 --undefined-- 36.850
5.63 --undefined-- 34.914
5.64 --undefined-- 35.875
5.65 --undefined-- 43.600
5.66 --undefined-- 54.972
5.67 --undefined-- 62.488
5.68 --undefined-- 66.950
5.69 142.015 69.246
5.70 133.420 70.299
5.71 131.450 70.607
5.72 132.055 70.395
5.73 132.249 69.864
5.74 128.286 69.013
5.75 123.437 67.621
5.76 117.586 65.510
5.77 109.249 62.740
5.78 110.360 60.216
5.79 110.716 59.237
5.80 116.004 60.987
5.81 126.365 64.057
5.82 139.010 66.522
5.83 135.621 68.163
5.84 123.166 69.039
5.85 115.639 --undefined--
5.86 114.834 --undefined--
5.87 --undefined-- --undefined--
5.88 --undefined-- --undefined--
