Time Pitch Intensity
0.01 --undefined-- --undefined--
0.02 181.122 --undefined--
0.03 181.724 --undefined--
0.04 181.107 --undefined--
0.05 179.566 77.203
0.06 176.910 77.011
0.07 173.039 76.876
0.08 168.095 76.850
0.09 160.633 76.899
0.10 151.256 77.044
0.11 140.248 77.175
0.12 129.818 77.327
0.13 123.041 77.676
0.14 117.846 77.885
0.15 114.129 77.563
0.16 109.925 76.672
0.17 103.953 75.112
0.18 108.353 72.877
0.19 118.224 70.355
0.20 99.120 67.350
0.21 115.323 64.723
0.22 102.713 63.070
0.23 99.998 60.194
0.24 --undefined-- 56.081
0.25 --undefined-- 53.851
0.26 --undefined-- 53.983
0.27 --undefined-- 54.721
0.28 --undefined-- 55.955
0.29 --undefined-- 59.113
0.30 --undefined-- 65.181
0.31 119.518 69.737
0.32 120.221 72.073
0.33 123.082 73.245
0.34 123.777 74.296
0.35 128.752 75.585
0.36 133.009 76.939
0.37 133.936 77.955
0.38 138.799 78.463
0.39 139.387 78.317
0.40 144.101 77.472
0.41 146.001 75.870
0.42 144.524 73.391
0.43 139.423 70.421
0.44 138.254 67.637
0.45 --undefined-- 65.447
0.46 --undefined-- 65.166
0.47 --undefined-- 66.031
0.48 --undefined-- 65.970
0.49 --undefined-- 64.572
0.50 --undefined-- 66.403
0.51 147.830 72.046
0.52 139.161 75.241
0.53 127.474 76.179
0.54 125.362 76.148
0.55 127.137 76.226
0.56 131.964 76.646
0.57 134.879 77.177
0.58 141.387 77.616
0.59 149.412 78.010
0.60 162.681 78.378
0.61 172.456 78.577
0.62 174.238 78.257
0.63 169.853 77.128
0.64 161.846 75.026
0.65 154.770 71.831
0.66 271.114 67.707
0.67 237.708 64.816
0.68 225.195 63.411
0.69 212.176 59.647
0.70 --undefined-- 53.434
0.71 --undefined-- 50.701
0.72 --undefined-- 52.259
0.73 --undefined-- 54.659
0.74 93.233 56.645
0.75 92.962 58.898
0.76 --undefined-- 62.452
0.77 --undefined-- 68.535
0.78 243.605 74.146
0.79 218.797 77.581
0.80 215.076 79.628
0.81 210.939 80.776
0.82 209.146 80.684
0.83 206.771 79.095
0.84 203.665 77.192
0.85 204.350 76.580
0.86 204.194 76.338
0.87 205.319 76.349
0.88 206.250 76.796
0.89 206.007 77.230
0.90 204.068 77.250
0.91 200.430 76.811
0.92 194.869 76.162
0.93 188.262 75.575
0.94 180.105 75.033
0.95 171.443 74.657
0.96 162.704 74.756
0.97 150.245 75.433
0.98 139.157 76.116
0.99 130.125 76.258
1.00 119.309 75.790
1.01 110.789 74.891
1.02 105.590 73.946
1.03 101.354 72.891
1.04 96.879 71.742
1.05 96.193 70.887
1.06 95.872 70.251
1.07 98.284 69.917
1.08 100.234 69.621
1.09 102.923 69.008
1.10 108.209 67.758
1.11 110.323 65.467
1.12 104.916 61.741
1.13 --undefined-- 56.484
1.14 --undefined-- 51.250
1.15 --undefined-- 48.216
1.16 --undefined-- 48.686
1.17 --undefined-- 57.299
1.18 --undefined-- 66.559
1.19 --undefined-- 72.199
1.20 127.396 74.775
1.21 116.227 74.865
1.22 109.255 72.945
1.23 106.384 70.254
1.24 120.588 68.733
1.25 129.666 68.524
1.26 128.774 69.576
1.27 128.819 71.487
1.28 125.749 73.524
1.29 124.237 75.021
1.30 119.480 75.803
1.31 117.741 76.165
1.32 116.677 76.254
1.33 113.683 75.967
1.34 112.696 75.165
1.35 111.849 73.901
1.36 111.944 72.392
1.37 115.259 70.704
1.38 117.986 69.234
1.39 117.490 69.057
1.40 120.981 70.468
1.41 126.527 73.246
1.42 128.309 76.414
1.43 124.981 78.638
1.44 123.785 79.638
1.45 123.832 79.847
1.46 123.212 79.602
1.47 122.957 78.761
1.48 119.617 76.903
1.49 117.291 73.665
1.50 --undefined-- 69.058
1.51 --undefined-- 63.563
1.52 --undefined-- 56.947
1.53 --undefined-- 50.399
1.54 --undefined-- 46.490
1.55 --undefined-- 45.131
1.56 --undefined-- 45.888
1.57 --undefined-- 47.608
1.58 --undefined-- 48.793
1.59 --undefined-- 48.816
1.60 --undefined-- 47.872
1.61 --undefined-- 46.943
1.62 --undefined-- 47.046
1.63 --undefined-- 47.902
1.64 --undefined-- 47.992
1.65 --undefined-- 47.011
1.66 --undefined-- 45.306
1.67 --undefined-- 43.523
1.68 --undefined-- 42.188
1.69 --undefined-- 41.278
1.70 --undefined-- 41.213
1.71 --undefined-- 40.692
1.72 --undefined-- 41.108
1.73 --undefined-- 44.143
1.74 --undefined-- 45.835
1.75 --undefined-- 46.559
1.76 --undefined-- 49.111
1.77 --undefined-- 51.321
1.78 --undefined-- 57.674
1.79 --undefined-- 67.329
1.80 216.834 74.476
1.81 194.923 78.551
1.82 179.943 80.419
1.83 167.894 81.172
1.84 160.361 81.503
1.85 157.718 81.636
1.86 156.649 81.392
1.87 156.384 80.896
1.88 157.771 80.570
1.89 158.531 80.352
1.90 159.858 80.069
1.91 160.934 79.767
1.92 161.325 79.516
1.93 160.783 79.224
1.94 158.295 78.678
1.95 154.256 77.879
1.96 151.336 77.073
1.97 150.310 76.388
1.98 147.299 75.610
1.99 142.916 74.605
2.00 138.555 74.056
2.01 141.606 75.385
2.02 140.853 77.461
2.03 138.946 78.597
2.04 131.984 78.629
2.05 124.481 78.184
2.06 123.505 77.865
2.07 122.968 77.712
2.08 123.454 77.679
2.09 124.056 77.788
2.10 123.358 77.837
2.11 122.184 77.686
2.12 122.245 77.411
2.13 122.245 77.108
2.14 122.517 76.699
2.15 121.486 75.756
2.16 118.474 73.974
2.17 117.578 71.572
2.18 115.748 69.158
2.19 117.453 67.255
2.20 119.384 66.291
2.21 146.395 69.002
2.22 141.254 73.239
2.23 145.772 76.271
2.24 126.608 77.910
2.25 126.327 78.719
2.26 125.647 79.077
2.27 124.978 78.910
2.28 123.961 78.689
2.29 122.715 78.776
2.30 121.388 78.852
2.31 120.604 78.683
2.32 120.221 78.393
2.33 119.960 78.156
2.34 120.445 78.001
2.35 120.866 77.846
2.36 121.978 77.631
2.37 122.533 77.364
2.38 123.535 77.000
2.39 124.020 76.474
2.40 123.923 75.747
2.41 122.799 74.637
2.42 121.380 72.860
2.43 124.184 70.601
2.44 134.702 68.587
2.45 129.316 66.223
2.46 125.539 62.222
2.47 --undefined-- 56.336
2.48 --undefined-- 49.191
2.49 --undefined-- 42.925
2.50 --undefined-- 41.757
2.51 --undefined-- 43.732
2.52 --undefined-- 54.052
2.53 --undefined-- 62.837
2.54 116.227 67.741
2.55 115.095 70.045
2.56 117.105 71.994
2.57 120.683 74.405
2.58 117.348 75.918
2.59 113.151 76.604
2.60 113.135 77.215
2.61 114.189 77.813
2.62 116.510 78.232
2.63 116.824 78.345
2.64 114.436 78.214
2.65 114.876 78.112
2.66 115.474 77.902
2.67 115.446 77.443
2.68 115.415 76.883
2.69 116.819 76.109
2.70 118.762 74.756
2.71 120.544 72.582
2.72 124.717 69.374
2.73 131.023 65.261
2.74 --undefined-- 62.855
2.75 --undefined-- 66.399
2.76 196.968 72.947
2.77 193.489 77.300
2.78 188.202 79.114
2.79 190.053 79.293
2.80 194.211 78.885
2.81 196.281 78.361
2.82 195.956 77.829
2.83 196.164 77.647
2.84 196.946 77.674
2.85 197.296 77.454
2.86 197.311 76.908
2.87 197.505 76.152
2.88 198.611 75.419
2.89 198.580 74.655
2.90 196.048 73.460
2.91 193.341 71.714
2.92 198.372 69.753
2.93 204.509 67.817
2.94 205.606 65.369
2.95 218.282 61.489
2.96 --undefined-- 55.598
2.97 --undefined-- 55.758
2.98 --undefined-- 63.942
2.99 259.344 71.432
3.00 243.892 76.442
3.01 232.447 78.900
3.02 223.705 80.080
3.03 216.034 80.804
3.04 203.926 80.856
3.05 195.739 80.325
3.06 189.183 79.918
3.07 189.052 79.860
3.08 189.295 79.697
3.09 190.556 79.349
3.10 191.573 78.870
3.11 192.108 78.233
3.12 191.709 77.358
3.13 190.812 76.405
3.14 189.266 75.789
3.15 186.021 75.521
3.16 181.140 75.176
3.17 173.638 74.370
3.18 165.548 72.955
3.19 160.264 70.855
3.20 157.156 68.558
3.21 158.889 68.294
3.22 167.757 71.359
3.23 169.795 74.771
3.24 161.054 76.968
3.25 154.479 77.876
3.26 142.968 77.997
3.27 137.072 78.040
3.28 136.044 77.921
3.29 134.388 77.499
3.30 131.987 76.901
3.31 129.090 76.167
3.32 129.516 75.588
3.33 131.082 75.522
3.34 132.514 75.750
3.35 131.573 75.854
3.36 127.115 75.175
3.37 119.952 73.051
3.38 116.910 69.627
3.39 114.399 65.904
3.40 109.347 62.597
3.41 110.605 60.201
3.42 --undefined-- 61.394
3.43 --undefined-- 66.581
3.44 158.608 71.320
3.45 137.932 73.824
3.46 127.976 74.681
3.47 124.608 74.682
3.48 122.248 73.930
3.49 109.038 71.897
3.50 102.073 68.477
3.51 --undefined-- 64.207
3.52 --undefined-- 59.378
3.53 --undefined-- 54.576
3.54 --undefined-- 49.303
3.55 --undefined-- 42.927
3.56 --undefined-- 42.855
3.57 --undefined-- 46.700
3.58 --undefined-- 47.989
3.59 --undefined-- 47.996
3.60 --undefined-- 54.546
3.61 --undefined-- 61.371
3.62 --undefined-- 64.556
3.63 --undefined-- 64.291
3.64 --undefined-- 61.837
3.65 --undefined-- 60.701
3.66 --undefined-- 62.456
3.67 106.742 66.308
3.68 108.073 70.018
3.69 106.956 72.375
3.70 104.435 73.799
3.71 104.150 74.708
3.72 100.945 75.088
3.73 99.095 74.849
3.74 98.306 73.988
3.75 93.628 72.427
3.76 88.180 70.344
3.77 91.549 69.270
3.78 93.645 69.592
3.79 94.287 70.136
3.80 95.766 70.746
3.81 99.566 71.539
3.82 100.744 72.461
3.83 101.063 73.311
3.84 101.690 73.967
3.85 103.145 74.381
3.86 105.338 74.642
3.87 109.386 74.955
3.88 110.825 75.191
3.89 110.342 74.910
3.90 105.837 73.634
3.91 107.129 71.440
3.92 107.778 68.611
3.93 108.961 64.903
3.94 103.921 60.060
3.95 --undefined-- 54.696
3.96 --undefined-- 50.917
3.97 --undefined-- 50.288
3.98 --undefined-- 53.225
3.99 --undefined-- 59.196
4.00 170.790 66.337
4.01 160.243 71.680
4.02 136.317 75.211
4.03 130.556 77.568
4.04 128.549 78.961
4.05 129.147 79.559
4.06 131.776 79.550
4.07 135.400 79.109
4.08 143.783 78.614
4.09 149.618 78.531
4.10 150.993 78.893
4.11 149.611 79.249
4.12 147.515 79.442
4.13 147.544 79.705
4.14 141.211 79.979
4.15 134.319 79.859
4.16 132.444 79.397
4.17 129.391 78.936
4.18 126.564 78.617
4.19 123.168 78.372
4.20 120.006 78.076
4.21 118.272 77.632
4.22 116.635 77.003
4.23 113.059 76.346
4.24 114.260 75.538
4.25 114.847 73.988
4.26 113.748 71.520
4.27 112.280 68.797
4.28 127.020 68.471
4.29 141.878 71.231
4.30 125.094 74.151
4.31 118.942 76.523
4.32 115.315 78.081
4.33 114.057 78.815
4.34 114.071 78.843
4.35 113.655 78.276
4.36 113.909 77.257
4.37 112.593 75.784
4.38 111.139 73.866
4.39 109.943 71.664
4.40 108.465 69.256
4.41 110.576 66.752
4.42 125.146 66.423
4.43 133.635 70.273
4.44 127.008 74.228
4.45 123.946 76.631
4.46 118.350 77.648
4.47 114.964 77.793
4.48 115.407 77.503
4.49 118.012 77.112
4.50 119.641 76.694
4.51 118.979 75.985
4.52 117.199 74.583
4.53 114.401 72.208
4.54 106.921 68.866
4.55 106.922 65.232
4.56 --undefined-- 63.068
4.57 --undefined-- 63.409
4.58 --undefined-- 65.121
4.59 --undefined-- 67.340
4.60 --undefined-- 69.386
4.61 --undefined-- 71.395
4.62 193.876 75.736
4.63 180.792 79.504
4.64 170.212 81.529
4.65 170.245 82.231
4.66 174.033 82.006
4.67 177.237 81.168
4.68 180.272 80.002
4.69 182.212 78.731
4.70 182.010 77.371
4.71 179.039 76.085
4.72 173.890 74.994
4.73 172.952 73.802
4.74 174.031 72.057
4.75 172.820 69.170
4.76 163.915 64.455
4.77 --undefined-- 57.549
4.78 --undefined-- 50.015
4.79 --undefined-- 45.613
4.80 --undefined-- 42.544
4.81 --undefined-- 40.257
4.82 --undefined-- 39.458
4.83 --undefined-- 41.085
4.84 --undefined-- 42.729
4.85 --undefined-- 42.289
4.86 --undefined-- 41.623
4.87 --undefined-- 41.479
4.88 --undefined-- 40.342
4.89 --undefined-- 39.013
4.90 --undefined-- 39.372
4.91 --undefined-- 41.039
4.92 --undefined-- 41.858
4.93 --undefined-- 43.305
4.94 --undefined-- 46.182
4.95 --undefined-- 47.293
4.96 --undefined-- 45.741
4.97 --undefined-- 43.614
4.98 --undefined-- 43.583
4.99 --undefined-- 43.438
5.00 --undefined-- 41.805
5.01 --undefined-- 39.647
5.02 --undefined-- 39.244
5.03 --undefined-- 39.311
5.04 --undefined-- 41.208
5.05 --undefined-- 45.908
5.06 --undefined-- 53.505
5.07 --undefined-- 61.032
5.08 --undefined-- 65.472
5.09 --undefined-- 67.515
5.10 112.091 69.473
5.11 106.027 71.361
5.12 105.852 72.483
5.13 106.522 73.493
5.14 106.099 74.690
5.15 110.209 75.420
5.16 109.568 74.800
5.17 105.108 72.193
5.18 97.837 67.542
5.19 103.002 63.150
5.20 120.191 62.084
5.21 --undefined-- 62.511
5.22 --undefined-- 61.996
5.23 --undefined-- 64.749
5.24 --undefined-- 70.732
5.25 117.295 74.310
5.26 110.827 75.750
5.27 105.591 76.043
5.28 105.020 75.783
5.29 104.628 75.284
5.30 106.416 74.789
5.31 106.187 74.391
5.32 106.148 73.881
5.33 106.880 72.625
5.34 103.695 70.232
5.35 105.424 66.890
5.36 114.838 63.508
5.37 113.373 --undefined--
5.38 --undefined-- --undefined--
5.39 --undefined-- --undefined--
5.40 --undefined-- --undefined--
