Time Pitch Intensity
0.01 --undefined-- --undefined--
0.02 177.634 --undefined--
0.03 178.748 --undefined--
0.04 189.817 --undefined--
0.05 195.631 67.714
0.06 198.526 67.598
0.07 196.208 67.296
0.08 186.447 66.644
0.09 179.249 64.889
0.10 --undefined-- 62.215
0.11 --undefined-- 65.122
0.12 232.499 69.861
0.13 236.071 72.137
0.14 239.261 72.200
0.15 244.735 72.250
0.16 254.040 73.623
0.17 263.277 74.744
0.18 277.242 75.183
0.19 291.227 75.280
0.20 152.095 75.092
0.21 157.634 74.606
0.22 161.237 74.071
0.23 162.483 73.700
0.24 161.431 73.360
0.25 159.227 73.131
0.26 155.592 73.253
0.27 153.146 73.356
0.28 151.042 73.095
0.29 295.332 72.614
0.30 290.011 72.284
0.31 283.180 72.238
0.32 270.781 72.561
0.33 262.397 72.925
0.34 254.387 72.784
0.35 249.861 71.861
0.36 244.043 69.709
0.37 232.941 66.293
0.38 230.800 61.643
0.39 237.444 55.560
0.40 --undefined-- 50.138
0.41 --undefined-- 52.345
0.42 --undefined-- 60.239
0.43 --undefined-- 66.504
0.44 194.917 69.670
0.45 194.719 70.487
0.46 196.059 70.303
0.47 198.611 70.239
0.48 201.519 70.678
0.49 204.585 71.371
0.50 207.709 71.820
0.51 208.114 71.588
0.52 207.227 70.349
0.53 210.225 67.729
0.54 203.287 63.982
0.55 199.512 59.777
0.56 198.545 54.409
0.57 203.357 49.066
0.58 199.457 52.015
0.59 --undefined-- 61.785
0.60 261.765 68.438
0.61 244.938 71.777
0.62 235.187 72.896
0.63 227.794 73.102
0.64 222.730 73.043
0.65 217.438 72.811
0.66 211.254 72.720
0.67 205.892 72.772
0.68 200.071 72.638
0.69 192.716 72.230
0.70 180.178 71.589
0.71 172.725 70.539
0.72 167.636 68.847
0.73 166.298 66.767
0.74 166.554 64.338
0.75 165.562 61.538
0.76 161.260 59.186
0.77 158.023 58.111
0.78 158.658 57.777
0.79 156.711 56.666
0.80 --undefined-- 54.229
0.81 --undefined-- 50.961
0.82 --undefined-- 47.763
0.83 --undefined-- 46.580
0.84 --undefined-- 46.154
0.85 --undefined-- 44.826
0.86 --undefined-- 43.157
0.87 --undefined-- 41.742
0.88 --undefined-- 41.211
0.89 --undefined-- 41.969
0.90 --undefined-- 43.428
0.91 --undefined-- 44.930
0.92 --undefined-- 45.698
0.93 --undefined-- 44.614
0.94 --undefined-- 40.999
0.95 --undefined-- 37.007
0.96 --undefined-- 37.127
0.97 --undefined-- 37.375
0.98 --undefined-- 36.072
0.99 --undefined-- 33.759
1.00 --undefined-- 32.698
1.01 --undefined-- 44.275
1.02 --undefined-- 56.029
1.03 --undefined-- 63.587
1.04 198.649 68.039
1.05 195.558 70.512
1.06 194.240 71.423
1.07 194.341 70.910
1.08 212.281 69.918
1.09 232.192 70.003
1.10 248.344 71.020
1.11 262.859 72.086
1.12 270.752 72.482
1.13 280.114 72.017
1.14 288.762 71.241
1.15 293.669 70.862
1.16 293.589 70.875
1.17 291.690 70.893
1.18 286.725 70.813
1.19 274.946 70.646
1.20 256.871 70.798
1.21 241.129 71.774
1.22 227.788 72.431
1.23 213.596 71.811
1.24 199.689 70.391
1.25 191.434 69.626
1.26 184.058 69.964
1.27 180.258 70.415
1.28 178.176 70.570
1.29 178.116 70.755
1.30 179.004 71.121
1.31 180.760 71.687
1.32 183.730 72.345
1.33 186.613 72.499
1.34 188.542 71.779
1.35 191.771 70.780
1.36 198.001 70.561
1.37 204.830 71.186
1.38 210.110 72.154
1.39 220.145 72.975
1.40 224.546 73.276
1.41 222.282 72.989
1.42 220.830 72.678
1.43 219.168 72.563
1.44 217.564 72.373
1.45 214.633 72.059
1.46 210.355 71.615
1.47 203.253 70.877
1.48 195.899 69.726
1.49 182.087 68.347
1.50 171.894 66.470
1.51 163.638 63.501
1.52 174.185 59.953
1.53 177.871 57.130
1.54 184.858 55.047
1.55 196.611 53.426
1.56 --undefined-- 51.996
1.57 --undefined-- 56.175
1.58 --undefined-- 63.480
1.59 183.616 68.167
1.60 171.143 70.564
1.61 158.383 71.785
1.62 149.741 72.556
1.63 134.275 72.856
1.64 131.276 72.698
1.65 124.057 72.315
1.66 123.608 71.775
1.67 125.574 70.780
1.68 127.352 69.372
1.69 130.052 67.935
1.70 134.846 66.623
1.71 133.493 65.656
1.72 137.691 65.845
1.73 149.792 67.074
1.74 153.461 68.239
1.75 153.233 69.109
1.76 143.946 69.662
1.77 141.332 69.465
1.78 136.659 68.512
1.79 134.808 67.723
1.80 133.845 67.466
1.81 131.870 67.190
1.82 131.908 66.956
1.83 132.640 67.163
1.84 131.822 67.411
1.85 132.164 67.439
1.86 133.651 67.201
1.87 138.144 66.751
1.88 137.926 66.256
1.89 135.423 65.571
1.90 134.710 64.684
1.91 136.896 63.886
1.92 141.488 63.309
1.93 149.014 63.042
1.94 155.072 63.342
1.95 156.754 64.417
1.96 156.483 66.052
1.97 154.996 67.722
1.98 153.308 69.096
1.99 151.978 70.058
2.00 150.411 70.648
2.01 149.463 71.038
2.02 149.337 71.394
2.03 151.653 71.816
2.04 152.615 72.380
2.05 152.390 72.802
2.06 150.050 72.576
2.07 148.654 71.743
2.08 148.117 70.829
2.09 147.552 70.143
2.10 146.938 69.588
2.11 147.367 68.992
2.12 151.115 68.197
2.13 154.172 66.455
2.14 155.800 62.676
2.15 154.396 56.194
2.16 --undefined-- 48.011
2.17 --undefined-- 44.248
2.18 --undefined-- 44.544
2.19 --undefined-- 45.254
2.20 --undefined-- 45.909
2.21 --undefined-- 46.404
2.22 --undefined-- 46.938
2.23 --undefined-- 47.518
2.24 --undefined-- 48.060
2.25 --undefined-- 48.967
2.26 --undefined-- 49.214
2.27 --undefined-- 48.612
2.28 --undefined-- 48.374
2.29 --undefined-- 48.322
2.30 --undefined-- 47.414
2.31 --undefined-- 45.244
2.32 --undefined-- 42.362
2.33 --undefined-- 39.228
2.34 --undefined-- 37.063
2.35 --undefined-- 35.832
2.36 --undefined-- 36.497
2.37 --undefined-- 37.489
2.38 --undefined-- 37.466
2.39 --undefined-- 40.139
2.40 --undefined-- 51.970
2.41 --undefined-- 61.364
2.42 135.919 67.121
2.43 135.338 70.318
2.44 135.969 72.261
2.45 136.942 73.229
2.46 139.694 72.893
2.47 142.779 71.972
2.48 148.926 70.913
2.49 147.086 68.574
2.50 144.181 64.490
2.51 143.077 60.019
2.52 159.489 56.534
2.53 173.353 53.259
2.54 --undefined-- 49.182
2.55 --undefined-- 48.336
2.56 --undefined-- 50.293
2.57 --undefined-- 54.961
2.58 --undefined-- 63.218
2.59 236.397 69.025
2.60 226.778 71.984
2.61 220.965 72.571
2.62 219.294 71.057
2.63 217.112 67.529
2.64 213.130 63.267
2.65 210.850 60.548
2.66 211.158 58.690
2.67 213.608 56.708
2.68 215.478 53.801
2.69 --undefined-- 49.714
2.70 --undefined-- 45.382
2.71 --undefined-- 42.302
2.72 --undefined-- 40.724
2.73 --undefined-- 46.365
2.74 --undefined-- 56.338
2.75 223.119 63.136
2.76 202.834 66.959
2.77 179.326 68.819
2.78 172.660 69.580
2.79 166.644 69.659
2.80 161.765 69.576
2.81 160.121 69.737
2.82 160.262 69.905
2.83 160.265 69.836
2.84 158.583 69.800
2.85 155.888 69.977
2.86 153.520 70.232
2.87 151.333 70.379
2.88 148.973 70.317
2.89 146.764 70.027
2.90 145.407 69.423
2.91 143.636 68.457
2.92 139.465 67.264
2.93 131.588 66.160
2.94 122.766 65.690
2.95 117.766 65.609
2.96 113.816 65.447
2.97 110.521 65.286
2.98 109.253 65.096
2.99 109.380 64.841
3.00 109.901 64.666
3.01 110.807 64.688
3.02 113.960 64.909
3.03 115.841 65.276
3.04 116.945 65.707
3.05 117.990 66.101
3.06 118.923 66.426
3.07 119.257 66.673
3.08 118.663 66.606
3.09 118.135 66.199
3.10 119.339 66.108
3.11 119.733 66.469
3.12 120.429 66.586
3.13 120.265 66.082
3.14 118.919 64.763
3.15 111.552 62.199
3.16 108.467 58.882
3.17 111.148 56.145
3.18 117.581 53.433
3.19 --undefined-- 49.943
3.20 --undefined-- 45.733
3.21 --undefined-- 42.138
3.22 --undefined-- 41.235
3.23 --undefined-- 41.319
3.24 --undefined-- 43.816
3.25 --undefined-- 47.665
3.26 --undefined-- 49.405
3.27 --undefined-- 49.304
3.28 --undefined-- 50.202
3.29 --undefined-- 57.529
3.30 --undefined-- 64.052
3.31 148.836 67.714
3.32 141.020 69.220
3.33 132.172 69.639
3.34 127.463 69.940
3.35 131.246 70.111
3.36 136.635 70.028
3.37 142.693 70.037
3.38 149.298 70.194
3.39 155.254 70.206
3.40 162.253 69.981
3.41 167.540 69.689
3.42 172.677 69.454
3.43 175.368 69.461
3.44 175.496 69.837
3.45 174.051 70.352
3.46 172.385 70.790
3.47 170.881 71.138
3.48 169.628 71.099
3.49 168.796 70.392
3.50 166.711 69.152
3.51 162.697 67.241
3.52 152.586 63.906
3.53 153.849 58.866
3.54 165.706 52.970
3.55 --undefined-- 46.969
3.56 --undefined-- 42.523
3.57 --undefined-- 40.805
3.58 --undefined-- 40.631
3.59 --undefined-- 41.782
3.60 --undefined-- 41.708
3.61 --undefined-- 42.828
3.62 --undefined-- 52.640
3.63 --undefined-- 60.232
3.64 149.037 64.604
3.65 142.556 67.068
3.66 144.920 68.675
3.67 147.551 69.751
3.68 152.620 70.345
3.69 159.037 70.719
3.70 162.908 71.098
3.71 165.741 70.968
3.72 167.276 69.808
3.73 169.485 68.220
3.74 170.600 67.257
3.75 171.525 66.924
3.76 173.443 66.945
3.77 174.481 67.279
3.78 172.176 67.728
3.79 163.228 68.255
3.80 150.243 68.880
3.81 136.352 69.104
3.82 124.888 68.615
3.83 118.722 67.971
3.84 113.763 67.578
3.85 --undefined-- 66.832
3.86 --undefined-- 65.319
3.87 --undefined-- 62.985
3.88 --undefined-- 58.972
3.89 --undefined-- 52.151
3.90 --undefined-- 45.171
3.91 --undefined-- 42.194
3.92 --undefined-- 42.061
3.93 --undefined-- 49.898
3.94 --undefined-- 57.470
3.95 --undefined-- 61.921
3.96 125.215 64.507
3.97 126.219 66.303
3.98 128.586 67.688
3.99 126.142 68.562
4.00 124.584 68.860
4.01 123.211 68.741
4.02 121.992 68.338
4.03 120.691 67.714
4.04 119.562 66.980
4.05 119.946 66.234
4.06 122.260 66.074
4.07 125.677 66.616
4.08 129.688 67.006
4.09 135.693 67.208
4.10 141.435 67.727
4.11 147.368 68.370
4.12 149.100 68.975
4.13 150.152 69.659
4.14 152.235 70.466
4.15 153.599 71.274
4.16 153.815 71.755
4.17 153.077 71.455
4.18 151.358 69.792
4.19 148.164 66.295
4.20 159.533 61.461
4.21 168.073 57.670
4.22 164.372 54.465
4.23 --undefined-- 49.611
4.24 --undefined-- 44.186
4.25 --undefined-- 41.244
4.26 --undefined-- 40.271
4.27 --undefined-- 40.739
4.28 --undefined-- 44.657
4.29 --undefined-- 49.347
4.30 --undefined-- 53.252
4.31 --undefined-- 55.654
4.32 --undefined-- 56.144
4.33 --undefined-- 56.510
4.34 --undefined-- 57.038
4.35 --undefined-- 56.300
4.36 --undefined-- 54.849
4.37 --undefined-- 54.153
4.38 --undefined-- 57.306
4.39 --undefined-- 62.479
4.40 --undefined-- 65.510
4.41 120.735 66.281
4.42 113.344 65.946
4.43 106.389 65.207
4.44 100.391 64.318
4.45 93.873 63.810
4.46 90.493 63.442
4.47 88.342 62.843
4.48 86.034 62.145
4.49 86.137 61.478
4.50 87.842 60.911
4.51 90.011 60.105
4.52 90.381 58.561
4.53 90.365 56.499
4.54 92.481 54.674
4.55 90.268 53.127
4.56 --undefined-- 50.484
4.57 --undefined-- 46.542
4.58 --undefined-- 42.916
4.59 --undefined-- 44.728
4.60 --undefined-- 53.742
4.61 --undefined-- 60.307
4.62 --undefined-- 63.911
4.63 106.834 65.186
4.64 102.052 65.014
4.65 97.837 64.362
4.66 96.898 63.814
4.67 97.213 63.496
4.68 97.930 63.723
4.69 99.491 64.297
4.70 101.801 64.645
4.71 106.586 64.983
4.72 111.209 65.814
4.73 114.926 66.492
4.74 118.911 66.680
4.75 123.628 66.812
4.76 126.900 67.159
4.77 129.616 67.566
4.78 131.187 67.956
4.79 131.194 68.263
4.80 129.233 68.125
4.81 123.622 67.555
4.82 119.660 67.231
4.83 115.550 67.113
4.84 112.582 66.905
4.85 110.211 66.571
4.86 108.770 65.927
4.87 109.520 65.147
4.88 109.684 64.590
4.89 110.943 64.332
4.90 114.424 64.410
4.91 119.375 64.943
4.92 125.978 65.888
4.93 131.538 66.849
4.94 135.235 67.252
4.95 135.782 67.540
4.96 134.094 68.410
4.97 132.091 68.988
4.98 127.445 68.472
4.99 --undefined-- 67.076
5.00 --undefined-- 64.789
5.01 --undefined-- 60.935
5.02 --undefined-- 55.260
5.03 --undefined-- 50.088
5.04 --undefined-- 45.562
5.05 --undefined-- 40.450
5.06 --undefined-- 38.555
5.07 --undefined-- 37.835
5.08 --undefined-- 36.787
5.09 --undefined-- 36.519
5.10 --undefined-- 38.606
5.11 --undefined-- 39.708
5.12 --undefined-- 39.082
5.13 --undefined-- 38.615
5.14 --undefined-- 37.965
5.15 --undefined-- 35.433
5.16 --undefined-- 31.246
5.17 --undefined-- 31.768
5.18 --undefined-- 35.584
5.19 --undefined-- 37.712
5.20 --undefined-- 40.768
5.21 --undefined-- 51.379
5.22 --undefined-- 60.309
5.23 --undefined-- 65.349
5.24 --undefined-- 67.439
5.25 117.771 68.074
5.26 117.856 68.418
5.27 118.531 68.229
5.28 123.665 67.675
5.29 123.403 67.764
5.30 119.074 68.056
5.31 118.588 67.471
5.32 118.144 66.311
5.33 120.175 65.593
5.34 122.427 65.296
5.35 121.994 64.366
5.36 120.607 62.006
5.37 139.340 57.954
5.38 143.712 53.474
5.39 131.676 51.339
5.40 127.867 51.300
5.41 124.920 52.985
5.42 --undefined-- 55.296
5.43 --undefined-- 55.384
5.44 --undefined-- 52.364
5.45 --undefined-- 52.769
5.46 187.751 59.922
5.47 167.930 64.986
5.48 156.779 67.786
5.49 149.078 --undefined--
5.50 140.186 --undefined--
5.51 --undefined-- --undefined--
5.52 --undefined-- --undefined--
