Time Pitch Intensity
0.01 --undefined-- --undefined--
0.02 --undefined-- --undefined--
0.03 --undefined-- --undefined--
0.04 --undefined-- --undefined--
0.05 --undefined-- 40.680
0.06 --undefined-- 38.024
0.07 --undefined-- 38.231
0.08 --undefined-- 39.474
0.09 --undefined-- 41.990
0.10 --undefined-- 51.226
0.11 --undefined-- 59.583
0.12 192.361 65.589
0.13 183.907 69.458
0.14 184.512 71.630
0.15 189.287 72.729
0.16 193.173 72.731
0.17 195.401 71.881
0.18 211.845 71.657
0.19 220.693 71.802
0.20 231.244 71.436
0.21 240.784 71.300
0.22 245.469 71.746
0.23 247.749 72.200
0.24 248.524 72.542
0.25 249.492 73.131
0.26 249.667 73.580
0.27 247.450 73.246
0.28 242.493 72.757
0.29 239.236 72.710
0.30 235.167 72.639
0.31 229.470 72.486
0.32 226.085 72.350
0.33 224.522 72.068
0.34 225.841 71.408
0.35 228.154 70.460
0.36 228.763 69.470
0.37 228.001 67.674
0.38 216.127 64.859
0.39 211.065 62.311
0.40 214.179 59.793
0.41 215.195 55.757
0.42 --undefined-- 51.488
0.43 --undefined-- 56.050
0.44 --undefined-- 61.844
0.45 226.313 66.948
0.46 216.677 70.627
0.47 213.638 72.619
0.48 209.140 73.319
0.49 204.770 73.489
0.50 200.125 73.721
0.51 194.479 73.807
0.52 189.950 73.313
0.53 187.228 72.484
0.54 186.476 71.714
0.55 187.126 71.007
0.56 188.816 70.354
0.57 191.251 69.802
0.58 192.551 69.435
0.59 193.280 69.159
0.60 193.450 68.825
0.61 193.459 68.276
0.62 193.876 67.379
0.63 195.726 66.332
0.64 201.858 65.712
0.65 205.377 65.536
0.66 208.639 65.373
0.67 208.379 65.253
0.68 210.449 65.409
0.69 212.398 65.849
0.70 213.685 66.632
0.71 218.221 67.756
0.72 222.871 68.918
0.73 224.097 69.816
0.74 220.779 70.555
0.75 214.851 71.425
0.76 207.885 72.358
0.77 199.836 72.950
0.78 192.681 73.005
0.79 186.884 72.826
0.80 184.205 72.676
0.81 182.410 72.337
0.82 181.109 71.865
0.83 180.249 71.582
0.84 178.862 71.362
0.85 177.039 70.909
0.86 174.344 69.932
0.87 167.653 67.978
0.88 160.126 64.608
0.89 163.178 59.380
0.90 166.581 53.295
0.91 171.250 50.473
0.92 --undefined-- 53.704
0.93 --undefined-- 62.379
0.94 --undefined-- 68.584
0.95 171.179 71.771
0.96 169.904 72.905
0.97 162.396 72.890
0.98 159.343 72.470
0.99 160.706 72.243
1.00 163.963 72.162
1.01 169.305 72.012
1.02 174.100 71.723
1.03 183.262 71.586
1.04 189.389 72.176
1.05 193.476 72.728
1.06 194.102 72.254
1.07 190.480 71.240
1.08 182.900 70.919
1.09 --undefined-- 70.968
1.10 --undefined-- 70.456
1.11 --undefined-- 69.041
1.12 109.107 67.301
1.13 111.412 66.737
1.14 120.379 66.971
1.15 131.596 67.263
1.16 155.792 67.836
1.17 169.212 68.677
1.18 177.556 69.301
1.19 184.582 69.766
1.20 188.062 70.507
1.21 191.933 71.407
1.22 196.865 72.284
1.23 198.942 72.968
1.24 196.030 72.827
1.25 194.641 72.021
1.26 194.061 71.273
1.27 193.311 70.714
1.28 193.079 69.639
1.29 192.861 66.856
1.30 194.574 61.524
1.31 195.643 54.057
1.32 --undefined-- 50.285
1.33 --undefined-- 53.058
1.34 --undefined-- 54.776
1.35 --undefined-- 56.243
1.36 197.857 62.223
1.37 184.370 67.004
1.38 177.748 69.313
1.39 169.006 70.290
1.40 162.152 70.810
1.41 157.164 70.910
1.42 151.634 70.362
1.43 148.014 68.915
1.44 142.986 66.186
1.45 137.282 61.799
1.46 145.647 56.183
1.47 --undefined-- 51.185
1.48 --undefined-- 48.945
1.49 --undefined-- 48.891
1.50 --undefined-- 50.250
1.51 --undefined-- 56.627
1.52 --undefined-- 63.885
1.53 157.299 68.178
1.54 154.092 70.023
1.55 147.865 70.445
1.56 142.841 69.955
1.57 140.948 68.130
1.58 --undefined-- 64.055
1.59 --undefined-- 56.876
1.60 --undefined-- 47.809
1.61 --undefined-- 42.798
1.62 --undefined-- 41.073
1.63 --undefined-- 40.348
1.64 --undefined-- 44.457
1.65 --undefined-- 55.434
1.66 --undefined-- 64.311
1.67 207.639 69.793
1.68 208.664 72.460
1.69 211.665 73.225
1.70 215.358 73.154
1.71 218.972 72.886
1.72 223.529 72.488
1.73 231.357 71.939
1.74 239.173 71.368
1.75 240.920 71.027
1.76 240.527 70.936
1.77 239.512 70.869
1.78 237.946 70.740
1.79 236.382 70.643
1.80 234.259 70.724
1.81 231.576 70.977
1.82 225.920 71.038
1.83 218.516 70.861
1.84 210.000 70.984
1.85 202.244 71.515
1.86 194.981 71.889
1.87 188.845 71.960
1.88 183.766 71.938
1.89 180.348 71.803
1.90 177.176 71.527
1.91 173.106 71.419
1.92 170.100 71.517
1.93 167.422 71.600
1.94 165.744 71.668
1.95 164.788 71.810
1.96 161.900 72.095
1.97 158.196 72.276
1.98 156.669 72.212
1.99 155.779 72.229
2.00 153.600 72.300
2.01 151.806 71.892
2.02 144.578 70.823
2.03 108.193 69.331
2.04 --undefined-- 67.280
2.05 --undefined-- 64.957
2.06 --undefined-- 62.529
2.07 --undefined-- 57.606
2.08 --undefined-- 50.592
2.09 --undefined-- 57.650
2.10 --undefined-- 64.918
2.11 --undefined-- 68.438
2.12 --undefined-- 69.500
2.13 143.507 69.217
2.14 144.754 68.337
2.15 145.104 67.592
2.16 143.453 67.123
2.17 141.004 66.682
2.18 139.320 66.273
2.19 140.210 65.967
2.20 140.716 65.838
2.21 141.212 65.937
2.22 142.545 66.290
2.23 144.743 66.962
2.24 146.077 67.715
2.25 145.540 68.314
2.26 146.057 68.745
2.27 146.477 69.050
2.28 147.080 69.149
2.29 148.249 68.929
2.30 147.692 68.394
2.31 146.703 67.988
2.32 151.876 68.773
2.33 156.408 70.295
2.34 155.131 71.123
2.35 150.853 71.106
2.36 147.493 70.785
2.37 146.437 70.490
2.38 146.527 70.496
2.39 148.136 70.958
2.40 150.365 71.633
2.41 153.129 72.255
2.42 154.788 72.765
2.43 155.582 73.059
2.44 156.688 73.048
2.45 158.771 72.774
2.46 160.084 72.474
2.47 160.755 72.227
2.48 161.260 71.871
2.49 161.149 71.318
2.50 162.629 70.806
2.51 165.185 70.623
2.52 166.830 70.681
2.53 169.942 70.794
2.54 172.705 70.903
2.55 175.218 71.036
2.56 177.716 71.232
2.57 179.489 71.453
2.58 180.966 71.377
2.59 182.749 70.727
2.60 182.157 69.786
2.61 186.079 69.511
2.62 189.675 69.798
2.63 193.117 70.170
2.64 197.960 70.854
2.65 201.643 71.777
2.66 203.660 72.501
2.67 209.370 72.882
2.68 213.444 73.191
2.69 214.521 73.319
2.70 215.109 73.057
2.71 213.633 72.620
2.72 211.739 72.014
2.73 209.701 70.897
2.74 204.546 69.047
2.75 199.844 67.094
2.76 204.476 66.890
2.77 203.421 68.916
2.78 202.752 71.350
2.79 200.329 72.778
2.80 195.274 72.975
2.81 189.214 72.419
2.82 183.420 71.501
2.83 179.032 69.675
2.84 169.926 65.918
2.85 169.471 59.872
2.86 184.691 53.223
2.87 --undefined-- 51.288
2.88 --undefined-- 55.013
2.89 --undefined-- 58.981
2.90 --undefined-- 61.177
2.91 --undefined-- 62.330
2.92 --undefined-- 64.212
2.93 --undefined-- 66.150
2.94 --undefined-- 67.555
2.95 --undefined-- 68.454
2.96 --undefined-- 68.661
2.97 --undefined-- 67.935
2.98 --undefined-- 66.354
2.99 --undefined-- 64.878
3.00 --undefined-- 63.529
3.01 182.046 63.568
3.02 177.386 65.915
3.03 170.108 67.700
3.04 166.787 68.606
3.05 163.492 68.972
3.06 159.559 68.721
3.07 154.238 67.719
3.08 147.391 66.374
3.09 143.527 65.554
3.10 145.478 65.566
3.11 145.863 66.084
3.12 144.685 66.722
3.13 142.595 67.211
3.14 141.610 67.330
3.15 142.564 67.191
3.16 144.021 67.077
3.17 144.369 67.089
3.18 144.656 67.284
3.19 144.797 67.683
3.20 144.065 68.313
3.21 141.551 69.034
3.22 138.779 69.530
3.23 138.775 69.850
3.24 140.240 70.190
3.25 140.757 70.312
3.26 141.146 69.958
3.27 140.297 69.052
3.28 137.611 67.715
3.29 140.160 66.789
3.30 143.295 66.793
3.31 144.458 67.220
3.32 147.387 67.626
3.33 148.952 67.719
3.34 150.313 67.546
3.35 155.662 67.498
3.36 163.576 67.809
3.37 171.548 68.638
3.38 181.206 69.996
3.39 182.286 71.172
3.40 185.240 71.709
3.41 188.128 71.718
3.42 190.840 71.546
3.43 192.303 71.515
3.44 193.074 71.609
3.45 194.388 71.649
3.46 196.078 71.627
3.47 196.083 71.302
3.48 193.841 69.906
3.49 189.114 66.890
3.50 192.259 62.183
3.51 197.741 55.940
3.52 196.472 49.901
3.53 196.830 48.376
3.54 --undefined-- 49.790
3.55 --undefined-- 53.645
3.56 --undefined-- 61.018
3.57 202.491 67.006
3.58 194.111 70.114
3.59 186.141 71.136
3.60 179.111 71.265
3.61 173.157 71.319
3.62 168.652 71.438
3.63 166.680 71.457
3.64 164.692 71.241
3.65 161.423 70.998
3.66 159.152 70.928
3.67 158.677 71.065
3.68 157.744 71.242
3.69 156.946 71.244
3.70 156.361 71.242
3.71 157.169 71.418
3.72 157.849 71.764
3.73 157.939 72.037
3.74 157.073 71.864
3.75 156.199 71.091
3.76 154.232 69.668
3.77 150.400 67.736
3.78 147.744 66.027
3.79 149.026 65.211
3.80 152.582 65.910
3.81 157.933 68.423
3.82 160.741 71.064
3.83 161.357 72.817
3.84 160.394 73.630
3.85 158.634 73.818
3.86 157.450 73.707
3.87 156.036 73.284
3.88 155.781 72.662
3.89 155.537 72.061
3.90 155.866 71.318
3.91 157.249 70.308
3.92 159.429 69.218
3.93 159.475 67.757
3.94 152.592 65.245
3.95 146.206 61.539
3.96 151.348 56.974
3.97 158.295 51.591
3.98 --undefined-- 46.506
3.99 --undefined-- 46.105
4.00 --undefined-- 51.650
4.01 --undefined-- 58.237
4.02 --undefined-- 64.120
4.03 154.308 67.332
4.04 153.503 68.253
4.05 149.596 68.168
4.06 149.807 67.769
4.07 151.701 67.273
4.08 152.529 66.844
4.09 157.074 66.934
4.10 161.600 67.546
4.11 163.940 67.966
4.12 166.998 68.032
4.13 170.179 67.906
4.14 175.373 67.790
4.15 182.397 68.188
4.16 186.512 69.111
4.17 190.357 69.880
4.18 195.630 70.254
4.19 201.268 70.578
4.20 205.594 70.966
4.21 211.245 70.956
4.22 217.864 70.106
4.23 223.262 68.251
4.24 225.178 65.333
4.25 218.864 61.180
4.26 209.413 56.609
4.27 --undefined-- 54.116
4.28 --undefined-- 51.971
4.29 --undefined-- 49.444
4.30 --undefined-- 47.671
4.31 --undefined-- 46.485
4.32 --undefined-- 46.505
4.33 --undefined-- 48.103
4.34 --undefined-- 54.752
4.35 --undefined-- 64.404
4.36 266.302 70.200
4.37 255.624 72.862
4.38 249.008 73.694
4.39 242.341 73.906
4.40 236.034 74.107
4.41 231.590 74.227
4.42 228.218 74.022
4.43 226.028 73.481
4.44 224.261 72.698
4.45 222.311 71.760
4.46 220.391 70.525
4.47 218.453 68.971
4.48 217.799 67.931
4.49 219.296 67.948
4.50 220.827 68.357
4.51 222.119 68.733
4.52 224.224 68.971
4.53 227.066 69.198
4.54 229.704 69.625
4.55 232.995 70.286
4.56 237.455 71.201
4.57 242.263 72.113
4.58 242.510 72.523
4.59 241.660 72.343
4.60 239.975 71.763
4.61 239.473 70.498
4.62 241.103 67.956
4.63 240.433 63.827
4.64 240.686 57.900
4.65 240.122 52.145
4.66 --undefined-- 49.029
4.67 --undefined-- 48.159
4.68 --undefined-- 48.690
4.69 --undefined-- 49.261
4.70 --undefined-- 49.983
4.71 --undefined-- 50.407
4.72 --undefined-- 50.681
4.73 --undefined-- 51.449
4.74 --undefined-- 52.475
4.75 --undefined-- 53.076
4.76 --undefined-- 52.566
4.77 --undefined-- 51.522
4.78 --undefined-- 51.243
4.79 --undefined-- 51.456
4.80 --undefined-- 51.489
4.81 --undefined-- 51.492
4.82 --undefined-- 51.815
4.83 --undefined-- 51.748
4.84 --undefined-- 50.901
4.85 --undefined-- 50.444
4.86 --undefined-- 50.645
4.87 --undefined-- 50.550
4.88 --undefined-- 49.967
4.89 --undefined-- 49.037
4.90 --undefined-- 48.318
4.91 --undefined-- 47.224
4.92 --undefined-- 44.933
4.93 --undefined-- 41.790
4.94 --undefined-- 39.242
4.95 --undefined-- 38.383
4.96 --undefined-- 39.088
4.97 --undefined-- 39.562
4.98 --undefined-- 39.394
4.99 --undefined-- 39.556
5.00 --undefined-- 42.524
5.01 --undefined-- 47.588
5.02 --undefined-- 54.454
5.03 --undefined-- 63.520
5.04 218.191 69.780
5.05 211.830 72.809
5.06 208.373 73.529
5.07 201.142 72.986
5.08 196.300 72.226
5.09 193.289 71.597
5.10 192.704 71.024
5.11 192.827 70.472
5.12 193.161 69.841
5.13 192.471 69.205
5.14 192.932 68.725
5.15 194.455 68.615
5.16 193.256 --undefined--
5.17 190.439 --undefined--
5.18 --undefined-- --undefined--
5.19 --undefined-- --undefined--
