Time Pitch Intensity
0.01 --undefined-- --undefined--
0.02 129.096 --undefined--
0.03 130.398 --undefined--
0.04 129.795 --undefined--
0.05 129.487 73.001
0.06 129.640 72.767
0.07 132.506 72.469
0.08 139.474 72.212
0.09 147.759 71.939
0.10 156.033 71.701
0.11 165.173 71.477
0.12 174.185 71.112
0.13 182.298 70.690
0.14 185.865 70.368
0.15 186.245 69.744
0.16 183.157 68.907
0.17 179.952 68.328
0.18 174.923 68.758
0.19 171.646 71.165
0.20 174.176 74.065
0.21 168.005 75.868
0.22 160.029 76.878
0.23 152.176 77.608
0.24 147.713 78.023
0.25 144.058 78.067
0.26 141.907 77.939
0.27 139.986 77.701
0.28 137.752 77.417
0.29 135.189 76.864
0.30 133.522 75.720
0.31 133.311 74.488
0.32 133.638 73.027
0.33 131.922 70.069
0.34 124.404 65.378
0.35 123.947 60.697
0.36 123.133 56.557
0.37 --undefined-- 51.082
0.38 --undefined-- 48.215
0.39 --undefined-- 55.142
0.40 --undefined-- 60.747
0.41 --undefined-- 63.242
0.42 --undefined-- 63.075
0.43 --undefined-- 65.339
0.44 144.482 70.223
0.45 140.466 72.886
0.46 136.276 73.695
0.47 133.563 73.851
0.48 133.385 73.911
0.49 134.677 73.246
0.50 136.143 70.970
0.51 120.256 66.510
0.52 115.141 60.724
0.53 --undefined-- 60.382
0.54 --undefined-- 66.400
0.55 133.630 70.333
0.56 127.437 71.699
0.57 121.649 71.603
0.58 120.164 71.495
0.59 119.879 71.301
0.60 120.058 70.330
0.61 119.169 68.675
0.62 117.778 66.646
0.63 117.339 64.088
0.64 113.809 61.010
0.65 106.267 57.952
0.66 104.439 56.345
0.67 107.561 57.082
0.68 109.030 60.260
0.69 115.071 64.372
0.70 119.907 67.642
0.71 122.107 69.913
0.72 122.400 71.183
0.73 119.303 71.019
0.74 113.751 68.825
0.75 --undefined-- 64.047
0.76 --undefined-- 56.808
0.77 --undefined-- 49.622
0.78 --undefined-- 44.325
0.79 --undefined-- 41.832
0.80 --undefined-- 40.850
0.81 --undefined-- 39.805
0.82 --undefined-- 38.596
0.83 --undefined-- 40.146
0.84 --undefined-- 50.345
0.85 --undefined-- 57.359
0.86 --undefined-- 60.455
0.87 165.875 63.145
0.88 151.582 67.103
0.89 140.144 69.905
0.90 127.342 71.112
0.91 122.333 71.428
0.92 121.851 71.636
0.93 122.209 71.917
0.94 122.852 72.061
0.95 123.631 71.854
0.96 123.568 71.460
0.97 122.804 71.430
0.98 121.414 71.656
0.99 120.189 71.682
1.00 121.561 71.626
1.01 124.908 71.483
1.02 124.557 70.610
1.03 120.587 68.254
1.04 117.085 64.037
1.05 --undefined-- 57.676
1.06 --undefined-- 49.487
1.07 --undefined-- 43.675
1.08 --undefined-- 42.083
1.09 --undefined-- 41.679
1.10 --undefined-- 43.404
1.11 --undefined-- 48.729
1.12 --undefined-- 58.398
1.13 145.622 65.124
1.14 146.215 68.508
1.15 116.359 69.672
1.16 111.938 69.766
1.17 109.559 69.475
1.18 109.115 69.290
1.19 110.160 69.633
1.20 112.865 70.574
1.21 114.333 71.708
1.22 117.617 72.659
1.23 122.042 73.379
1.24 128.056 73.966
1.25 132.007 74.254
1.26 135.608 73.732
1.27 138.809 71.990
1.28 136.133 68.588
1.29 129.688 63.322
1.30 --undefined-- 56.927
1.31 --undefined-- 51.306
1.32 --undefined-- 47.804
1.33 --undefined-- 46.725
1.34 --undefined-- 46.972
1.35 --undefined-- 46.962
1.36 --undefined-- 46.804
1.37 --undefined-- 51.951
1.38 --undefined-- 62.971
1.39 179.496 70.470
1.40 159.415 74.593
1.41 153.854 76.279
1.42 149.378 76.568
1.43 147.219 76.556
1.44 145.531 76.643
1.45 144.385 76.431
1.46 146.079 75.676
1.47 144.865 74.739
1.48 142.744 73.977
1.49 140.023 72.901
1.50 135.128 70.723
1.51 127.348 67.320
1.52 120.275 64.866
1.53 123.293 66.256
1.54 127.385 68.726
1.55 125.881 70.275
1.56 120.492 70.995
1.57 116.874 71.035
1.58 113.790 69.873
1.59 108.999 66.846
1.60 99.269 61.621
1.61 --undefined-- 54.831
1.62 --undefined-- 48.631
1.63 --undefined-- 43.767
1.64 --undefined-- 43.291
1.65 --undefined-- 49.699
1.66 --undefined-- 55.472
1.67 --undefined-- 60.801
1.68 --undefined-- 65.528
1.69 128.081 68.177
1.70 117.313 69.036
1.71 110.761 68.950
1.72 110.144 68.699
1.73 108.238 68.598
1.74 108.646 68.453
1.75 109.544 68.206
1.76 108.656 68.145
1.77 109.952 68.505
1.78 110.313 69.083
1.79 110.864 69.313
1.80 110.455 68.360
1.81 100.839 65.870
1.82 104.123 63.775
1.83 106.474 64.403
1.84 110.686 65.814
1.85 110.141 66.686
1.86 108.646 66.813
1.87 103.694 66.214
1.88 102.248 65.549
1.89 103.271 65.283
1.90 104.707 65.017
1.91 105.453 64.606
1.92 104.558 63.924
1.93 102.641 62.832
1.94 101.391 61.601
1.95 102.451 60.467
1.96 102.723 59.532
1.97 103.512 59.227
1.98 103.700 59.135
1.99 103.725 58.842
2.00 104.880 58.299
2.01 106.410 57.462
2.02 108.199 56.385
2.03 103.904 54.791
2.04 --undefined-- 52.386
2.05 --undefined-- 48.713
2.06 --undefined-- 42.796
2.07 --undefined-- 36.872
2.08 --undefined-- 36.522
2.09 --undefined-- 35.452
2.10 --undefined-- 33.803
2.11 --undefined-- 34.293
2.12 --undefined-- 34.806
2.13 --undefined-- 35.509
2.14 --undefined-- 36.864
2.15 --undefined-- 38.171
2.16 --undefined-- 38.596
2.17 --undefined-- 38.578
2.18 --undefined-- 38.372
2.19 --undefined-- 38.182
2.20 --undefined-- 38.022
2.21 --undefined-- 37.495
2.22 --undefined-- 36.600
2.23 --undefined-- 37.338
2.24 --undefined-- 38.434
2.25 --undefined-- 37.571
2.26 --undefined-- 35.649
2.27 --undefined-- 35.466
2.28 --undefined-- 36.050
2.29 --undefined-- 35.469
2.30 --undefined-- 35.064
2.31 --undefined-- 33.985
2.32 --undefined-- 33.152
2.33 --undefined-- 35.288
2.34 --undefined-- 36.417
2.35 --undefined-- 35.355
2.36 --undefined-- 33.706
2.37 --undefined-- 33.646
2.38 --undefined-- 34.384
2.39 --undefined-- 36.192
2.40 --undefined-- 37.780
2.41 --undefined-- 37.968
2.42 --undefined-- 37.094
2.43 --undefined-- 37.218
2.44 --undefined-- 36.884
2.45 --undefined-- 36.058
2.46 --undefined-- 36.461
2.47 --undefined-- 36.828
2.48 --undefined-- 36.803
2.49 --undefined-- 36.944
2.50 --undefined-- 38.068
2.51 --undefined-- 38.824
2.52 --undefined-- 38.924
2.53 --undefined-- 39.048
2.54 --undefined-- 38.622
2.55 --undefined-- 38.666
2.56 --undefined-- 38.931
2.57 --undefined-- 38.526
2.58 --undefined-- 37.804
2.59 --undefined-- 37.725
2.60 --undefined-- 39.074
2.61 --undefined-- 40.550
2.62 --undefined-- 40.542
2.63 --undefined-- 38.748
2.64 --undefined-- 37.444
2.65 --undefined-- 38.014
2.66 --undefined-- 39.481
2.67 --undefined-- 39.947
2.68 --undefined-- 43.527
2.69 --undefined-- 55.503
2.70 --undefined-- 63.700
2.71 144.380 68.383
2.72 138.819 70.795
2.73 133.202 72.154
2.74 130.586 72.979
2.75 128.940 73.240
2.76 128.534 73.019
2.77 127.627 72.305
2.78 124.759 71.056
2.79 119.110 69.492
2.80 115.221 67.740
2.81 106.792 65.425
2.82 103.032 62.243
2.83 75.667 58.599
2.84 106.728 56.330
2.85 108.089 56.596
2.86 118.799 57.974
2.87 122.717 59.733
2.88 124.888 61.489
2.89 124.358 63.204
2.90 124.635 64.808
2.91 125.027 66.051
2.92 125.978 66.938
2.93 127.160 67.712
2.94 130.590 68.469
2.95 137.603 69.297
2.96 141.606 70.294
2.97 145.697 71.387
2.98 156.429 72.359
2.99 160.779 73.032
3.00 173.025 73.446
3.01 180.458 73.674
3.02 191.826 73.867
3.03 196.637 74.096
3.04 204.945 74.370
3.05 209.764 74.769
3.06 212.394 75.230
3.07 212.650 75.359
3.08 210.868 74.519
3.09 202.502 72.063
3.10 179.220 67.531
3.11 177.723 60.852
3.12 --undefined-- 53.156
3.13 --undefined-- 51.088
3.14 --undefined-- 55.266
3.15 --undefined-- 58.452
3.16 --undefined-- 60.043
3.17 --undefined-- 60.190
3.18 --undefined-- 59.429
3.19 --undefined-- 62.944
3.20 162.167 69.129
3.21 151.956 72.480
3.22 137.875 72.934
3.23 129.516 71.371
3.24 122.054 69.268
3.25 121.021 68.055
3.26 120.859 67.492
3.27 121.470 67.000
3.28 123.256 66.344
3.29 124.950 65.162
3.30 124.464 63.486
3.31 128.147 63.576
3.32 162.364 68.087
3.33 172.544 72.649
3.34 175.531 75.666
3.35 174.964 77.144
3.36 173.743 76.892
3.37 172.951 74.351
3.38 171.130 68.904
3.39 156.341 60.744
3.40 --undefined-- 52.511
3.41 --undefined-- 46.694
3.42 --undefined-- 46.150
3.43 --undefined-- 48.853
3.44 --undefined-- 54.162
3.45 --undefined-- 63.191
3.46 224.375 70.539
3.47 214.792 74.650
3.48 207.331 76.269
3.49 203.043 76.254
3.50 201.039 75.101
3.51 200.522 73.077
3.52 203.453 70.854
3.53 207.923 69.718
3.54 209.435 69.577
3.55 210.407 69.585
3.56 211.411 69.495
3.57 211.732 69.349
3.58 210.784 69.254
3.59 206.897 69.147
3.60 200.214 68.421
3.61 186.944 66.010
3.62 172.306 61.082
3.63 --undefined-- 53.869
3.64 --undefined-- 48.561
3.65 --undefined-- 51.866
3.66 --undefined-- 62.730
3.67 --undefined-- 70.875
3.68 --undefined-- 75.565
3.69 --undefined-- 77.422
3.70 200.514 77.121
3.71 197.447 75.609
3.72 197.118 73.013
3.73 199.919 69.262
3.74 198.947 66.936
3.75 197.064 66.442
3.76 195.657 66.036
3.77 195.231 65.804
3.78 192.849 65.888
3.79 189.729 65.591
3.80 184.424 64.410
3.81 177.121 62.145
3.82 175.272 58.453
3.83 --undefined-- 52.888
3.84 --undefined-- 47.441
3.85 --undefined-- 53.616
3.86 --undefined-- 61.082
3.87 --undefined-- 66.906
3.88 --undefined-- 70.797
3.89 148.804 72.914
3.90 139.156 73.682
3.91 134.002 73.525
3.92 129.276 72.972
3.93 127.621 72.478
3.94 126.888 72.000
3.95 126.020 71.464
3.96 125.644 70.966
3.97 126.236 70.436
3.98 127.430 69.977
3.99 128.898 69.759
4.00 127.745 69.510
4.01 125.012 69.035
4.02 122.322 68.498
4.03 121.504 68.311
4.04 123.004 68.561
4.05 124.045 69.152
4.06 123.767 70.145
4.07 122.534 71.196
4.08 120.796 72.154
4.09 119.921 72.954
4.10 119.177 73.173
4.11 117.596 72.843
4.12 116.042 72.273
4.13 114.815 71.484
4.14 113.817 70.386
4.15 112.785 69.199
4.16 112.872 68.588
4.17 114.407 68.768
4.18 116.981 68.895
4.19 117.366 68.274
4.20 116.573 66.525
4.21 115.180 63.297
4.22 111.256 58.898
4.23 --undefined-- 53.966
4.24 --undefined-- 47.680
4.25 --undefined-- 40.907
4.26 --undefined-- 36.913
4.27 --undefined-- 35.649
4.28 --undefined-- 36.927
4.29 --undefined-- 37.453
4.30 --undefined-- 37.122
4.31 --undefined-- 37.881
4.32 --undefined-- 39.317
4.33 --undefined-- 38.348
4.34 --undefined-- 35.375
4.35 --undefined-- 34.197
4.36 --undefined-- 35.566
4.37 --undefined-- 37.234
4.38 --undefined-- 39.044
4.39 --undefined-- 40.014
4.40 --undefined-- 39.408
4.41 --undefined-- 38.019
4.42 --undefined-- 36.850
4.43 --undefined-- 36.688
4.44 --undefined-- 37.103
4.45 --undefined-- 37.496
4.46 --undefined-- 37.867
4.47 --undefined-- 37.602
4.48 --undefined-- 36.919
4.49 --undefined-- 36.833
4.50 --undefined-- 36.852
4.51 --undefined-- 36.898
4.52 --undefined-- 36.876
4.53 --undefined-- 37.044
4.54 --undefined-- 38.138
4.55 --undefined-- 39.589
4.56 --undefined-- 43.349
4.57 --undefined-- 48.715
4.58 --undefined-- 54.975
4.59 --undefined-- 62.943
4.60 --undefined-- 69.193
4.61 155.056 72.837
4.62 150.807 74.914
4.63 151.053 76.086
4.64 149.412 76.640
4.65 145.803 76.856
4.66 141.645 76.798
4.67 134.227 76.498
4.68 131.386 76.203
4.69 132.233 76.108
4.70 136.800 76.204
4.71 143.409 76.395
4.72 150.108 76.618
4.73 152.325 76.947
4.74 154.470 77.354
4.75 155.969 77.408
4.76 162.648 76.966
4.77 172.523 76.797
4.78 184.244 77.240
4.79 191.169 77.314
4.80 200.613 76.169
4.81 216.275 73.952
4.82 226.383 71.904
4.83 227.658 70.311
4.84 222.968 68.371
4.85 214.044 65.357
4.86 --undefined-- 61.075
4.87 --undefined-- 55.923
4.88 --undefined-- 50.103
4.89 --undefined-- 43.613
4.90 --undefined-- 40.461
4.91 --undefined-- 39.142
4.92 --undefined-- 38.058
4.93 --undefined-- 37.813
4.94 --undefined-- 36.657
4.95 --undefined-- 39.136
4.96 --undefined-- 50.959
4.97 --undefined-- 58.972
4.98 135.510 63.317
4.99 124.780 65.512
5.00 121.481 66.881
5.01 120.809 67.939
5.02 120.688 68.798
5.03 121.658 69.527
5.04 123.044 70.156
5.05 125.995 70.713
5.06 129.473 71.327
5.07 133.087 72.103
5.08 135.853 72.988
5.09 138.593 73.794
5.10 141.069 74.410
5.11 143.462 74.822
5.12 146.330 75.016
5.13 149.162 74.871
5.14 151.395 74.368
5.15 153.663 73.620
5.16 154.300 72.668
5.17 152.397 71.281
5.18 147.854 68.783
5.19 137.520 64.731
5.20 --undefined-- 63.612
5.21 --undefined-- 69.516
5.22 --undefined-- 74.507
5.23 173.980 77.919
5.24 158.822 79.989
5.25 152.887 81.287
5.26 149.134 81.921
5.27 146.281 81.718
5.28 144.584 80.689
5.29 142.224 78.874
5.30 139.462 76.496
5.31 136.994 73.519
5.32 120.143 69.274
5.33 120.082 63.064
5.34 --undefined-- 56.253
5.35 --undefined-- 49.872
5.36 --undefined-- 44.221
5.37 --undefined-- 40.669
5.38 --undefined-- 38.584
5.39 --undefined-- 40.849
5.40 --undefined-- 51.700
5.41 --undefined-- 60.728
5.42 --undefined-- 66.526
5.43 194.018 70.456
5.44 184.089 72.795
5.45 180.930 73.585
5.46 177.268 73.516
5.47 177.959 73.607
5.48 177.564 73.834
5.49 175.482 73.916
5.50 173.454 74.032
5.51 170.082 74.218
5.52 164.865 73.885
5.53 160.164 72.988
5.54 154.152 72.425
5.55 148.107 72.454
5.56 138.831 72.889
5.57 135.449 73.632
5.58 131.018 74.287
5.59 129.841 74.158
5.60 122.053 72.212
5.61 --undefined-- 67.745
5.62 --undefined-- 60.555
5.63 --undefined-- 51.678
5.64 --undefined-- 44.932
5.65 --undefined-- 41.864
5.66 --undefined-- 39.049
5.67 --undefined-- 39.743
5.68 --undefined-- 49.538
5.69 --undefined-- 57.284
5.70 --undefined-- 61.758
5.71 --undefined-- 66.201
5.72 --undefined-- 70.605
5.73 134.172 73.246
5.74 128.814 74.365
5.75 128.480 74.796
5.76 128.550 75.044
5.77 128.027 75.146
5.78 127.834 75.183
5.79 128.797 75.432
5.80 130.118 75.894
5.81 130.661 76.244
5.82 130.559 76.304
5.83 130.581 76.019
5.84 131.268 75.439
5.85 131.169 74.715
5.86 131.428 74.067
5.87 127.188 73.577
5.88 127.393 73.048
5.89 127.639 72.129
5.90 129.813 70.595
5.91 126.949 68.017
5.92 125.446 64.599
5.93 120.909 60.875
5.94 --undefined-- 56.061
5.95 --undefined-- 49.113
5.96 --undefined-- 42.484
5.97 --undefined-- 40.428
5.98 --undefined-- 39.717
5.99 --undefined-- 37.549
6.00 --undefined-- 35.499
6.01 --undefined-- 35.174
6.02 --undefined-- 34.842
6.03 --undefined-- 34.463
6.04 --undefined-- 33.806
6.05 --undefined-- 33.438
6.06 --undefined-- 34.185
6.07 --undefined-- 35.525
6.08 --undefined-- 41.186
6.09 --undefined-- 45.269
6.10 --undefined-- 48.386
6.11 --undefined-- 54.551
6.12 --undefined-- 59.366
6.13 112.874 61.876
6.14 104.900 63.635
6.15 113.215 66.470
6.16 125.399 70.073
6.17 138.237 73.001
6.18 148.346 75.044
6.19 154.596 76.370
6.20 153.412 77.042
6.21 151.142 77.061
6.22 150.032 76.799
6.23 148.277 76.677
6.24 145.805 --undefined--
6.25 142.693 --undefined--
6.26 --undefined-- --undefined--
6.27 --undefined-- --undefined--
