Time Pitch Intensity
0.01 --undefined-- --undefined--
0.02 158.849 --undefined--
0.03 160.414 --undefined--
0.04 160.075 --undefined--
0.05 158.668 76.076
0.06 156.001 75.787
0.07 151.612 75.430
0.08 149.094 75.319
0.09 147.093 75.333
0.10 145.256 75.232
0.11 143.891 75.121
0.12 142.167 74.556
0.13 140.236 72.444
0.14 142.026 67.951
0.15 143.211 61.231
0.16 147.609 54.466
0.17 141.571 50.808
0.18 --undefined-- 49.836
0.19 --undefined-- 51.176
0.20 --undefined-- 61.047
0.21 --undefined-- 69.202
0.22 167.819 73.355
0.23 157.492 74.322
0.24 144.968 73.105
0.25 142.033 71.061
0.26 141.927 68.852
0.27 142.344 66.835
0.28 141.389 65.978
0.29 142.025 66.865
0.30 142.091 68.627
0.31 141.926 70.521
0.32 145.072 72.237
0.33 145.338 73.146
0.34 144.104 72.998
0.35 142.826 72.634
0.36 144.991 73.115
0.37 146.878 73.888
0.38 148.248 74.520
0.39 148.431 74.993
0.40 148.400 75.271
0.41 148.849 75.332
0.42 148.613 75.155
0.43 147.642 74.596
0.44 144.808 73.199
0.45 140.188 70.424
0.46 140.545 66.155
0.47 140.107 60.830
0.48 --undefined-- 56.479
0.49 --undefined-- 55.132
0.50 --undefined-- 55.691
0.51 --undefined-- 58.799
0.52 --undefined-- 66.043
0.53 171.112 71.676
0.54 164.936 74.128
0.55 146.226 74.560
0.56 142.165 74.561
0.57 140.196 74.565
0.58 138.547 74.016
0.59 135.832 72.276
0.60 134.482 70.115
0.61 135.135 70.121
0.62 139.760 71.835
0.63 139.429 73.144
0.64 138.702 73.468
0.65 138.242 73.219
0.66 137.257 72.730
0.67 134.235 71.956
0.68 129.625 70.680
0.69 125.519 68.784
0.70 125.875 68.340
0.71 135.756 71.529
0.72 131.967 74.242
0.73 127.370 75.403
0.74 123.245 75.913
0.75 120.166 76.135
0.76 116.872 75.833
0.77 113.522 75.071
0.78 111.493 73.822
0.79 106.144 71.643
0.80 106.991 69.043
0.81 105.899 67.065
0.82 102.968 65.664
0.83 108.915 66.571
0.84 118.167 70.521
0.85 118.195 73.872
0.86 117.540 75.223
0.87 108.951 75.404
0.88 106.344 75.575
0.89 104.223 75.449
0.90 102.835 74.866
0.91 103.123 74.410
0.92 103.147 74.358
0.93 102.993 74.405
0.94 104.889 74.437
0.95 105.899 74.551
0.96 105.667 74.753
0.97 105.420 74.984
0.98 105.664 75.232
0.99 105.409 75.429
1.00 105.314 75.555
1.01 104.955 75.478
1.02 106.279 75.135
1.03 106.909 75.254
1.04 107.931 75.710
1.05 107.836 75.681
1.06 107.398 74.906
1.07 106.609 73.216
1.08 104.720 70.419
1.09 104.024 67.167
1.10 98.865 64.257
1.11 --undefined-- 61.343
1.12 --undefined-- 57.599
1.13 --undefined-- 52.812
1.14 --undefined-- 55.405
1.15 --undefined-- 65.107
1.16 --undefined-- 71.446
1.17 165.011 74.193
1.18 148.926 74.376
1.19 146.636 73.944
1.20 148.698 74.239
1.21 150.118 74.734
1.22 153.055 75.104
1.23 154.065 75.059
1.24 153.521 74.314
1.25 152.393 73.343
1.26 158.050 73.304
1.27 158.910 73.826
1.28 157.142 74.047
1.29 153.187 73.991
1.30 148.915 73.918
1.31 143.654 73.706
1.32 137.732 73.506
1.33 133.939 73.927
1.34 130.797 74.718
1.35 127.758 75.293
1.36 125.520 75.560
1.37 123.304 75.727
1.38 122.125 75.768
1.39 121.591 74.762
1.40 100.094 71.703
1.41 99.805 66.733
1.42 98.607 62.180
1.43 --undefined-- 62.686
1.44 --undefined-- 68.861
1.45 --undefined-- 73.062
1.46 119.966 74.855
1.47 117.187 74.865
1.48 112.944 73.690
1.49 109.770 72.608
1.50 113.181 72.674
1.51 115.676 73.239
1.52 115.133 73.870
1.53 116.167 74.666
1.54 116.357 75.398
1.55 115.983 75.674
1.56 117.074 75.542
1.57 118.561 75.285
1.58 119.373 75.013
1.59 120.226 74.721
1.60 120.459 74.317
1.61 119.005 73.253
1.62 113.636 70.896
1.63 110.390 67.878
1.64 115.603 66.911
1.65 125.517 69.245
1.66 127.042 72.355
1.67 127.688 74.445
1.68 125.863 75.401
1.69 122.106 75.771
1.70 119.477 75.848
1.71 117.671 75.187
1.72 114.108 73.384
1.73 109.419 70.887
1.74 110.956 68.424
1.75 112.756 65.977
1.76 109.153 63.463
1.77 109.093 61.096
1.78 122.730 59.783
1.79 122.768 58.873
1.80 121.618 57.997
1.81 138.644 57.576
1.82 136.306 56.192
1.83 138.037 54.730
1.84 138.837 54.547
1.85 139.495 53.260
1.86 --undefined-- 52.719
1.87 --undefined-- 59.134
1.88 --undefined-- 65.662
1.89 92.417 69.815
1.90 92.057 71.957
1.91 102.474 72.843
1.92 74.961 73.030
1.93 75.166 72.792
1.94 82.091 72.478
1.95 82.061 72.542
1.96 97.456 73.182
1.97 105.412 73.865
1.98 104.934 74.145
1.99 107.980 74.116
2.00 112.332 74.139
2.01 118.562 73.962
2.02 125.710 73.285
2.03 132.617 72.691
2.04 145.697 73.306
2.05 151.799 74.372
2.06 156.606 74.712
2.07 161.286 74.637
2.08 162.717 74.670
2.09 163.662 74.635
2.10 162.954 74.456
2.11 159.867 74.332
2.12 154.542 74.465
2.13 147.370 74.744
2.14 142.099 74.940
2.15 138.309 75.171
2.16 135.087 75.561
2.17 132.242 75.903
2.18 128.121 76.116
2.19 123.665 76.143
2.20 119.557 75.807
2.21 115.423 75.453
2.22 113.440 75.519
2.23 112.459 75.241
2.24 111.233 74.288
2.25 111.574 73.420
2.26 111.035 72.747
2.27 109.969 71.437
2.28 108.540 68.653
2.29 108.435 63.878
2.30 120.105 57.779
2.31 112.827 53.288
2.32 117.307 51.645
2.33 118.325 50.981
2.34 --undefined-- 49.613
2.35 --undefined-- 48.779
2.36 --undefined-- 55.340
2.37 --undefined-- 64.912
2.38 --undefined-- 71.373
2.39 134.767 74.647
2.40 128.132 75.497
2.41 119.811 75.116
2.42 104.261 74.919
2.43 102.674 75.020
2.44 101.539 75.075
2.45 100.359 74.904
2.46 99.856 74.166
2.47 101.449 73.069
2.48 102.446 72.149
2.49 103.078 71.593
2.50 103.973 71.266
2.51 104.161 70.888
2.52 104.613 70.379
2.53 105.360 69.860
2.54 106.795 69.478
2.55 106.748 69.355
2.56 106.785 69.473
2.57 108.104 69.805
2.58 108.747 70.209
2.59 109.335 70.414
2.60 109.601 70.208
2.61 109.558 69.613
2.62 109.087 68.932
2.63 109.010 68.468
2.64 109.776 68.251
2.65 110.162 68.110
2.66 110.182 67.786
2.67 109.896 67.009
2.68 108.658 65.751
2.69 109.841 64.220
2.70 114.040 62.302
2.71 113.555 59.518
2.72 112.872 55.479
2.73 --undefined-- 50.759
2.74 --undefined-- 53.021
2.75 --undefined-- 60.972
2.76 --undefined-- 66.718
2.77 --undefined-- 71.485
2.78 --undefined-- 74.539
2.79 129.237 75.379
2.80 125.489 75.013
2.81 123.239 74.737
2.82 122.329 74.577
2.83 121.348 74.096
2.84 119.394 73.497
2.85 116.933 73.120
2.86 115.249 73.023
2.87 114.878 73.050
2.88 114.891 73.076
2.89 116.044 73.360
2.90 116.922 74.063
2.91 117.170 74.804
2.92 117.148 75.202
2.93 116.423 75.275
2.94 115.727 75.222
2.95 114.713 75.158
2.96 113.835 75.231
2.97 113.926 75.474
2.98 114.676 75.633
2.99 115.650 75.615
3.00 116.560 75.565
3.01 117.307 75.606
3.02 117.097 75.746
3.03 116.824 75.859
3.04 116.287 75.844
3.05 116.235 75.752
3.06 116.219 75.631
3.07 116.257 75.399
3.08 115.240 74.838
3.09 113.763 73.940
3.10 112.203 72.924
3.11 111.875 72.116
3.12 112.693 72.066
3.13 115.222 72.857
3.14 114.947 73.714
3.15 112.817 74.072
3.16 111.674 74.022
3.17 110.450 73.795
3.18 109.001 73.515
3.19 108.916 73.191
3.20 108.970 72.848
3.21 107.905 72.226
3.22 105.451 70.696
3.23 102.970 68.182
3.24 105.855 65.830
3.25 113.369 65.331
3.26 118.957 67.087
3.27 122.549 69.744
3.28 125.090 71.889
3.29 127.496 73.085
3.30 129.917 73.393
3.31 136.010 73.169
3.32 140.747 72.567
3.33 143.120 70.734
3.34 143.883 66.651
3.35 159.358 60.049
3.36 --undefined-- 52.785
3.37 --undefined-- 49.643
3.38 --undefined-- 48.450
3.39 --undefined-- 46.607
3.40 --undefined-- 44.395
3.41 --undefined-- 50.450
3.42 --undefined-- 58.724
3.43 --undefined-- 64.602
3.44 --undefined-- 70.367
3.45 170.030 74.448
3.46 167.951 76.218
3.47 162.693 76.507
3.48 158.241 75.843
3.49 153.101 74.437
3.50 150.367 73.182
3.51 150.326 72.210
3.52 150.270 71.529
3.53 154.599 71.970
3.54 156.284 72.702
3.55 155.966 73.115
3.56 154.857 73.384
3.57 154.730 73.599
3.58 154.475 73.744
3.59 153.851 73.867
3.60 153.460 73.917
3.61 153.466 73.922
3.62 153.407 73.961
3.63 153.137 73.932
3.64 153.327 73.856
3.65 153.369 73.837
3.66 153.499 73.784
3.67 153.984 73.645
3.68 153.533 73.390
3.69 152.833 72.868
3.70 152.232 72.048
3.71 150.533 70.851
3.72 147.646 68.827
3.73 145.213 65.495
3.74 147.209 61.029
3.75 --undefined-- 58.627
3.76 --undefined-- 61.861
3.77 --undefined-- 65.500
3.78 --undefined-- 68.816
3.79 --undefined-- 72.217
3.80 131.480 74.014
3.81 128.377 74.291
3.82 123.482 74.053
3.83 120.576 73.948
3.84 117.679 74.067
3.85 114.054 74.303
3.86 112.918 74.616
3.87 110.863 74.766
3.88 109.634 74.790
3.89 108.620 74.764
3.90 108.383 74.613
3.91 108.190 74.489
3.92 108.281 74.424
3.93 108.101 74.250
3.94 108.017 73.665
3.95 106.560 72.585
3.96 112.415 71.749
3.97 112.769 71.700
3.98 113.114 71.924
3.99 112.730 72.135
4.00 112.253 72.332
4.01 111.787 72.690
4.02 114.760 73.415
4.03 112.247 74.173
4.04 111.115 74.629
4.05 110.371 74.918
4.06 108.626 75.085
4.07 107.624 75.165
4.08 106.562 75.195
4.09 106.278 75.125
4.10 106.206 74.914
4.11 105.953 74.646
4.12 106.455 74.181
4.13 106.336 73.522
4.14 105.821 72.688
4.15 106.466 71.127
4.16 105.620 68.086
4.17 108.717 63.368
4.18 116.675 57.545
4.19 117.256 53.206
4.20 --undefined-- 50.507
4.21 --undefined-- 48.734
4.22 --undefined-- 49.453
4.23 --undefined-- 50.816
4.24 --undefined-- 51.863
4.25 --undefined-- 52.722
4.26 --undefined-- 53.257
4.27 --undefined-- 53.982
4.28 --undefined-- 54.498
4.29 --undefined-- 54.375
4.30 --undefined-- 53.701
4.31 --undefined-- 53.194
4.32 --undefined-- 53.169
4.33 --undefined-- 52.699
4.34 --undefined-- 52.229
4.35 --undefined-- 51.722
4.36 --undefined-- 51.568
4.37 --undefined-- 50.971
4.38 --undefined-- 49.192
4.39 --undefined-- 47.379
4.40 --undefined-- 46.382
4.41 --undefined-- 44.531
4.42 --undefined-- 41.846
4.43 --undefined-- 40.317
4.44 --undefined-- 39.860
4.45 --undefined-- 41.242
4.46 --undefined-- 44.101
4.47 --undefined-- 46.255
4.48 --undefined-- 46.954
4.49 --undefined-- 47.594
4.50 --undefined-- 49.208
4.51 --undefined-- 52.739
4.52 --undefined-- 62.630
4.53 --undefined-- 70.642
4.54 171.395 74.645
4.55 159.429 75.627
4.56 149.282 75.244
4.57 146.841 74.707
4.58 143.834 73.798
4.59 140.449 73.180
4.60 141.392 73.773
4.61 142.399 74.695
4.62 143.127 75.260
4.63 143.235 75.571
4.64 144.024 75.864
4.65 145.115 76.109
4.66 146.155 76.204
4.67 147.589 76.086
4.68 147.983 75.566
4.69 146.005 74.243
4.70 143.542 71.605
4.71 142.915 67.199
4.72 150.740 60.954
4.73 145.859 55.356
4.74 --undefined-- 54.723
4.75 --undefined-- 55.461
4.76 --undefined-- 57.361
4.77 --undefined-- 64.681
4.78 180.784 71.339
4.79 171.445 75.132
4.80 166.315 76.811
4.81 163.518 77.332
4.82 161.212 77.197
4.83 157.671 76.545
4.84 148.084 75.579
4.85 141.408 74.959
4.86 137.524 74.916
4.87 133.965 75.050
4.88 130.371 74.883
4.89 128.131 73.801
4.90 --undefined-- 70.932
4.91 --undefined-- 65.545
4.92 --undefined-- 58.662
4.93 129.760 54.502
4.94 129.366 52.905
4.95 --undefined-- 54.155
4.96 --undefined-- 57.977
4.97 --undefined-- 60.336
4.98 --undefined-- 61.439
4.99 --undefined-- 62.602
5.00 --undefined-- 63.925
5.01 --undefined-- 64.482
5.02 --undefined-- --undefined--
5.03 --undefined-- --undefined--
5.04 --undefined-- --undefined--
5.05 --undefined-- --undefined--
