Time Pitch Intensity
0.01 --undefined-- --undefined--
0.02 156.563 --undefined--
0.03 149.609 --undefined--
0.04 143.449 --undefined--
0.05 134.982 76.285
0.06 128.300 76.358
0.07 123.505 75.989
0.08 116.061 74.381
0.09 101.755 72.777
0.10 105.060 73.389
0.11 106.207 74.465
0.12 106.268 74.909
0.13 105.575 74.893
0.14 104.479 74.504
0.15 103.266 73.931
0.16 104.501 73.933
0.17 106.544 74.749
0.18 105.803 75.722
0.19 106.571 76.452
0.20 107.031 76.744
0.21 107.196 76.639
0.22 106.240 75.921
0.23 103.314 74.412
0.24 105.059 73.456
0.25 104.343 73.759
0.26 103.537 74.305
0.27 104.511 74.815
0.28 105.191 75.193
0.29 105.043 75.282
0.30 104.919 75.007
0.31 105.445 74.258
0.32 105.971 72.626
0.33 106.090 69.492
0.34 108.970 64.564
0.35 --undefined-- 64.082
0.36 --undefined-- 67.745
0.37 --undefined-- 67.678
0.38 --undefined-- 63.522
0.39 --undefined-- 59.408
0.40 147.036 64.581
0.41 155.065 70.629
0.42 151.918 74.184
0.43 132.523 75.702
0.44 119.095 76.046
0.45 107.998 75.808
0.46 106.097 75.330
0.47 105.197 74.811
0.48 105.695 74.265
0.49 104.406 73.888
0.50 106.193 74.423
0.51 108.529 75.402
0.52 107.248 76.056
0.53 107.744 76.510
0.54 108.684 76.837
0.55 109.282 76.928
0.56 109.092 76.713
0.57 108.190 76.152
0.58 107.256 75.025
0.59 105.524 73.005
0.60 103.222 69.826
0.61 106.433 65.299
0.62 115.664 59.491
0.63 --undefined-- 55.903
0.64 --undefined-- 64.681
0.65 --undefined-- 72.301
0.66 --undefined-- 76.423
0.67 --undefined-- 77.753
0.68 114.281 77.536
0.69 110.301 77.181
0.70 107.558 77.123
0.71 106.373 77.048
0.72 108.801 76.865
0.73 111.856 76.989
0.74 116.889 77.529
0.75 119.590 77.859
0.76 122.853 77.537
0.77 131.550 77.272
0.78 139.067 77.677
0.79 146.717 78.137
0.80 154.701 78.121
0.81 166.408 77.944
0.82 174.767 77.663
0.83 177.832 76.161
0.84 --undefined-- 72.825
0.85 --undefined-- 68.412
0.86 175.502 63.335
0.87 164.951 58.951
0.88 169.815 56.263
0.89 --undefined-- 52.564
0.90 --undefined-- 49.827
0.91 --undefined-- 48.626
0.92 --undefined-- 47.350
0.93 --undefined-- 45.461
0.94 --undefined-- 43.742
0.95 --undefined-- 42.823
0.96 --undefined-- 41.679
0.97 --undefined-- 41.545
0.98 --undefined-- 44.006
0.99 --undefined-- 45.608
1.00 --undefined-- 45.444
1.01 --undefined-- 44.303
1.02 --undefined-- 43.265
1.03 --undefined-- 41.934
1.04 --undefined-- 40.406
1.05 --undefined-- 42.534
1.06 --undefined-- 45.148
1.07 --undefined-- 45.459
1.08 --undefined-- 44.024
1.09 --undefined-- 41.976
1.10 --undefined-- 51.974
1.11 --undefined-- 64.358
1.12 --undefined-- 72.211
1.13 188.556 76.115
1.14 174.349 77.074
1.15 169.653 76.790
1.16 164.684 76.917
1.17 162.512 77.325
1.18 164.625 77.565
1.19 167.471 77.533
1.20 172.458 77.309
1.21 179.274 77.243
1.22 181.651 77.461
1.23 182.689 77.655
1.24 182.303 77.545
1.25 181.303 77.080
1.26 176.324 75.993
1.27 167.827 73.851
1.28 164.587 70.175
1.29 169.822 64.726
1.30 --undefined-- 65.525
1.31 --undefined-- 72.389
1.32 175.561 76.051
1.33 164.904 77.140
1.34 155.617 77.189
1.35 144.467 76.931
1.36 135.694 76.795
1.37 132.326 77.118
1.38 131.041 77.533
1.39 129.130 77.758
1.40 124.301 77.932
1.41 120.979 78.137
1.42 119.183 77.895
1.43 118.917 77.023
1.44 119.851 76.371
1.45 120.332 76.376
1.46 120.503 76.355
1.47 119.894 76.126
1.48 120.890 76.335
1.49 122.237 76.863
1.50 122.314 77.151
1.51 122.585 77.162
1.52 122.536 77.121
1.53 121.491 77.102
1.54 120.019 77.029
1.55 119.215 76.774
1.56 118.758 76.301
1.57 106.123 75.854
1.58 105.499 75.595
1.59 102.288 75.214
1.60 99.277 74.472
1.61 98.773 73.814
1.62 99.378 73.626
1.63 100.201 73.492
1.64 100.454 73.227
1.65 101.277 73.370
1.66 101.402 73.723
1.67 98.421 73.840
1.68 96.460 73.732
1.69 95.338 73.213
1.70 93.975 72.038
1.71 103.597 70.182
1.72 103.080 67.096
1.73 106.486 62.095
1.74 --undefined-- 56.398
1.75 --undefined-- 52.030
1.76 --undefined-- 49.131
1.77 --undefined-- 48.476
1.78 --undefined-- 49.475
1.79 --undefined-- 50.753
1.80 --undefined-- 51.579
1.81 --undefined-- 51.508
1.82 --undefined-- 50.927
1.83 --undefined-- 50.654
1.84 --undefined-- 50.967
1.85 --undefined-- 50.788
1.86 --undefined-- 49.629
1.87 --undefined-- 48.488
1.88 --undefined-- 48.165
1.89 --undefined-- 47.417
1.90 --undefined-- 45.189
1.91 --undefined-- 41.828
1.92 --undefined-- 38.390
1.93 --undefined-- 40.393
1.94 --undefined-- 45.734
1.95 --undefined-- 48.008
1.96 --undefined-- 53.850
1.97 --undefined-- 64.707
1.98 --undefined-- 71.508
1.99 136.051 75.024
2.00 141.605 76.683
2.01 144.472 77.480
2.02 145.711 77.713
2.03 145.001 77.613
2.04 144.256 77.033
2.05 141.056 75.457
2.06 136.135 72.638
2.07 132.045 68.942
2.08 140.436 65.067
2.09 143.164 60.817
2.10 135.670 56.987
2.11 130.792 61.989
2.12 161.717 70.138
2.13 151.624 75.252
2.14 143.393 77.740
2.15 142.939 78.590
2.16 142.762 78.684
2.17 143.436 78.149
2.18 142.295 76.781
2.19 136.780 75.344
2.20 137.197 75.032
2.21 136.415 75.234
2.22 136.774 75.274
2.23 135.805 75.384
2.24 134.044 76.098
2.25 131.011 76.910
2.26 128.536 77.235
2.27 125.292 77.357
2.28 122.962 77.542
2.29 120.480 77.584
2.30 117.786 77.304
2.31 115.069 77.139
2.32 114.026 77.110
2.33 114.339 76.708
2.34 119.082 76.570
2.35 122.201 76.947
2.36 121.229 77.129
2.37 119.569 76.933
2.38 118.618 76.351
2.39 117.180 75.411
2.40 116.243 74.488
2.41 117.744 74.474
2.42 125.136 75.959
2.43 134.857 77.591
2.44 142.278 78.100
2.45 140.309 77.903
2.46 134.062 77.724
2.47 132.383 77.455
2.48 131.679 77.089
2.49 131.399 76.724
2.50 131.404 76.119
2.51 129.479 75.317
2.52 131.815 75.458
2.53 133.651 76.308
2.54 132.913 76.714
2.55 132.350 76.699
2.56 131.330 76.555
2.57 130.428 76.406
2.58 129.791 76.274
2.59 129.919 76.197
2.60 130.149 76.190
2.61 130.240 76.241
2.62 130.242 76.314
2.63 129.497 76.372
2.64 128.060 76.387
2.65 125.258 76.277
2.66 120.862 76.100
2.67 117.080 76.082
2.68 117.805 76.256
2.69 106.843 76.106
2.70 102.678 75.750
2.71 98.668 75.809
2.72 95.653 76.110
2.73 93.235 76.271
2.74 91.966 76.224
2.75 93.840 76.134
2.76 96.915 75.870
2.77 99.834 75.905
2.78 102.276 76.269
2.79 103.867 76.510
2.80 104.680 76.745
2.81 106.630 77.113
2.82 109.251 77.598
2.83 113.015 77.967
2.84 116.686 77.777
2.85 116.982 77.237
2.86 118.661 77.414
2.87 121.504 78.060
2.88 121.992 78.210
2.89 122.060 77.781
2.90 121.729 77.106
2.91 121.939 76.476
2.92 122.277 75.943
2.93 122.274 75.480
2.94 121.887 75.051
2.95 121.047 74.463
2.96 121.124 73.649
2.97 122.218 72.606
2.98 122.573 71.243
2.99 122.265 69.768
3.00 131.391 68.940
3.01 127.101 68.367
3.02 125.306 66.979
3.03 124.085 64.195
3.04 135.874 59.740
3.05 --undefined-- 53.611
3.06 --undefined-- 47.220
3.07 --undefined-- 43.513
3.08 --undefined-- 43.236
3.09 --undefined-- 44.777
3.10 --undefined-- 50.398
3.11 --undefined-- 60.905
3.12 --undefined-- 67.093
3.13 --undefined-- 69.073
3.14 --undefined-- 69.455
3.15 --undefined-- 72.790
3.16 --undefined-- 75.382
3.17 111.143 75.759
3.18 108.531 75.194
3.19 107.756 74.927
3.20 111.225 75.540
3.21 115.027 76.328
3.22 117.122 76.709
3.23 119.564 76.812
3.24 121.827 76.742
3.25 122.879 76.566
3.26 124.041 76.405
3.27 125.811 76.243
3.28 127.570 76.033
3.29 130.123 76.006
3.30 132.992 76.363
3.31 135.913 76.938
3.32 136.989 77.319
3.33 137.504 77.384
3.34 134.838 77.226
3.35 130.613 76.930
3.36 126.035 76.722
3.37 122.638 76.801
3.38 120.810 77.076
3.39 119.967 77.249
3.40 120.011 77.226
3.41 120.440 77.067
3.42 120.486 76.703
3.43 118.763 75.994
3.44 120.643 75.390
3.45 123.760 75.447
3.46 123.540 75.484
3.47 122.121 74.898
3.48 119.421 73.501
3.49 116.215 71.290
3.50 112.650 70.069
3.51 121.807 73.240
3.52 129.949 76.141
3.53 128.702 77.228
3.54 123.153 77.421
3.55 118.920 77.181
3.56 114.492 76.759
3.57 111.679 76.452
3.58 111.441 76.129
3.59 99.748 75.446
3.60 78.125 74.215
3.61 78.126 72.420
3.62 --undefined-- 69.091
3.63 --undefined-- 62.818
3.64 --undefined-- 56.382
3.65 --undefined-- 59.294
3.66 --undefined-- 62.899
3.67 --undefined-- 66.391
3.68 --undefined-- 68.782
3.69 --undefined-- 69.523
3.70 --undefined-- 71.498
3.71 132.759 74.017
3.72 139.521 75.590
3.73 142.252 76.307
3.74 144.260 76.579
3.75 147.021 76.618
3.76 148.579 76.558
3.77 149.471 76.455
3.78 150.001 76.026
3.79 150.264 74.714
3.80 149.997 72.261
3.81 --undefined-- 70.751
3.82 --undefined-- 71.667
3.83 166.784 74.468
3.84 167.193 76.975
3.85 163.317 77.604
3.86 160.973 77.393
3.87 157.710 77.495
3.88 150.620 77.667
3.89 145.362 77.690
3.90 142.741 77.720
3.91 139.396 77.690
3.92 135.685 77.547
3.93 132.858 77.463
3.94 130.821 77.512
3.95 125.392 77.693
3.96 122.747 77.924
3.97 120.428 77.896
3.98 118.916 77.612
3.99 120.217 77.442
4.00 120.524 77.462
4.01 118.435 77.018
4.02 117.860 75.725
4.03 120.558 75.074
4.04 122.605 76.339
4.05 123.132 77.512
4.06 120.650 77.622
4.07 116.768 77.329
4.08 114.040 77.052
4.09 113.082 76.755
4.10 112.955 76.600
4.11 113.564 76.577
4.12 115.356 76.619
4.13 117.272 76.778
4.14 117.788 76.960
4.15 117.962 77.038
4.16 121.442 77.055
4.17 123.307 76.611
4.18 127.603 75.932
4.19 132.561 76.087
4.20 140.534 77.104
4.21 141.219 77.871
4.22 140.769 78.078
4.23 141.882 78.252
4.24 142.704 78.355
4.25 142.855 78.296
4.26 143.166 78.070
4.27 142.679 77.555
4.28 141.256 76.875
4.29 140.222 75.971
4.30 138.458 74.851
4.31 140.590 73.654
4.32 140.188 72.071
4.33 141.647 70.610
4.34 145.926 71.014
4.35 158.793 73.911
4.36 157.948 76.442
4.37 160.019 77.292
4.38 164.302 77.099
4.39 166.405 76.901
4.40 167.744 76.948
4.41 169.212 76.947
4.42 168.958 76.783
4.43 168.286 76.230
4.44 165.539 74.792
4.45 160.473 72.119
4.46 158.690 69.043
4.47 161.257 67.132
4.48 163.869 65.651
4.49 160.750 62.846
4.50 155.683 60.781
4.51 --undefined-- 67.075
4.52 189.398 73.034
4.53 174.634 76.071
4.54 171.042 77.019
4.55 171.218 77.178
4.56 170.546 77.372
4.57 169.847 77.678
4.58 169.623 77.991
4.59 168.412 78.221
4.60 166.241 78.339
4.61 165.069 78.377
4.62 164.373 78.034
4.63 160.882 76.651
4.64 153.892 74.477
4.65 156.489 74.054
4.66 156.114 75.228
4.67 155.757 76.420
4.68 160.194 77.399
4.69 165.396 77.855
4.70 161.699 77.950
4.71 159.228 78.146
4.72 157.155 78.258
4.73 155.849 78.122
4.74 154.368 78.053
4.75 153.999 78.053
4.76 152.862 77.887
4.77 151.507 77.384
4.78 150.671 76.279
4.79 148.645 74.266
4.80 145.924 71.576
4.81 143.091 68.907
4.82 131.303 66.702
4.83 131.252 65.153
4.84 143.616 64.329
4.85 144.396 63.829
4.86 146.782 64.031
4.87 139.332 66.351
4.88 141.094 70.170
4.89 144.920 73.457
4.90 139.282 75.406
4.91 134.837 76.476
4.92 131.020 77.010
4.93 127.785 77.212
4.94 125.689 77.439
4.95 123.444 77.736
4.96 121.280 77.722
4.97 121.070 77.073
4.98 121.386 76.154
4.99 120.442 75.690
5.00 119.619 75.737
5.01 119.030 75.988
5.02 118.987 76.276
5.03 119.847 76.505
5.04 120.040 76.594
5.05 119.963 76.342
5.06 118.840 75.054
5.07 109.937 72.062
5.08 99.940 68.000
5.09 121.739 64.482
5.10 115.024 60.593
5.11 118.171 57.509
5.12 118.177 55.905
5.13 119.871 60.830
5.14 --undefined-- 69.360
5.15 --undefined-- 74.693
5.16 150.949 76.995
5.17 145.523 77.496
5.18 142.472 77.784
5.19 141.807 78.145
5.20 141.392 78.187
5.21 140.985 77.865
5.22 141.281 77.302
5.23 141.341 76.677
5.24 140.643 --undefined--
5.25 139.560 --undefined--
5.26 --undefined-- --undefined--
5.27 --undefined-- --undefined--
