Time Pitch Intensity
0.01 --undefined-- --undefined--
0.02 168.502 --undefined--
0.03 162.780 --undefined--
0.04 158.944 --undefined--
0.05 155.260 75.035
0.06 154.198 75.610
0.07 149.087 75.483
0.08 138.747 74.637
0.09 122.754 73.900
0.10 109.170 73.732
0.11 101.236 73.580
0.12 99.557 72.820
0.13 --undefined-- 71.730
0.14 --undefined-- 70.673
0.15 99.677 70.287
0.16 96.467 70.376
0.17 92.937 70.067
0.18 96.069 69.770
0.19 97.787 69.854
0.20 97.900 70.210
0.21 98.547 70.410
0.22 98.386 69.606
0.23 98.626 67.041
0.24 --undefined-- 61.989
0.25 --undefined-- 55.114
0.26 --undefined-- 55.670
0.27 --undefined-- 61.747
0.28 --undefined-- 67.905
0.29 130.794 72.705
0.30 127.405 75.420
0.31 124.729 76.424
0.32 123.265 76.453
0.33 123.956 76.301
0.34 124.905 76.214
0.35 123.331 75.730
0.36 120.744 74.148
0.37 119.231 70.775
0.38 99.043 67.181
0.39 98.104 67.304
0.40 107.869 68.686
0.41 119.495 69.976
0.42 121.319 70.990
0.43 119.518 71.641
0.44 117.637 71.860
0.45 116.785 71.995
0.46 113.119 72.534
0.47 113.915 73.419
0.48 115.890 73.993
0.49 118.198 74.128
0.50 120.814 74.061
0.51 120.970 73.419
0.52 117.608 71.440
0.53 110.063 67.909
0.54 109.964 63.934
0.55 111.721 60.895
0.56 117.350 59.226
0.57 115.955 59.259
0.58 --undefined-- 64.285
0.59 --undefined-- 70.635
0.60 159.149 73.860
0.61 148.613 74.293
0.62 142.075 73.565
0.63 140.864 73.222
0.64 141.282 73.267
0.65 143.369 73.395
0.66 145.279 73.526
0.67 146.765 73.510
0.68 146.476 73.149
0.69 145.777 72.015
0.70 146.256 69.445
0.71 147.930 64.805
0.72 --undefined-- 57.713
0.73 --undefined-- 50.691
0.74 --undefined-- 55.528
0.75 --undefined-- 65.250
0.76 --undefined-- 71.187
0.77 142.201 73.789
0.78 130.929 74.204
0.79 120.430 73.925
0.80 115.089 73.757
0.81 108.030 73.509
0.82 104.433 73.554
0.83 104.421 74.025
0.84 103.673 74.215
0.85 102.300 73.946
0.86 102.250 73.430
0.87 103.862 72.505
0.88 103.861 70.647
0.89 101.363 67.259
0.90 105.214 62.129
0.91 114.084 56.655
0.92 109.726 53.685
0.93 107.993 51.877
0.94 107.903 50.707
0.95 --undefined-- 50.117
0.96 --undefined-- 53.696
0.97 --undefined-- 62.496
0.98 --undefined-- 68.460
0.99 123.335 71.677
1.00 125.507 73.323
1.01 126.656 74.285
1.02 127.655 74.839
1.03 129.464 74.621
1.04 128.819 73.244
1.05 127.686 71.989
1.06 134.344 73.217
1.07 144.359 75.123
1.08 145.117 75.807
1.09 142.433 75.526
1.10 140.768 75.405
1.11 139.774 75.472
1.12 138.898 75.389
1.13 137.258 75.037
1.14 134.837 74.116
1.15 133.085 72.166
1.16 128.892 68.576
1.17 111.403 62.695
1.18 137.565 56.092
1.19 134.258 55.407
1.20 131.240 56.786
1.21 --undefined-- 58.369
1.22 --undefined-- 60.058
1.23 --undefined-- 61.901
1.24 --undefined-- 62.719
1.25 --undefined-- 61.418
1.26 --undefined-- 59.562
1.27 --undefined-- 59.241
1.28 --undefined-- 62.907
1.29 --undefined-- 68.932
1.30 --undefined-- 72.473
1.31 116.307 73.742
1.32 109.412 73.984
1.33 104.089 74.062
1.34 101.258 73.999
1.35 98.875 73.688
1.36 98.788 73.471
1.37 99.802 73.599
1.38 100.569 73.789
1.39 101.566 73.666
1.40 101.717 72.903
1.41 99.894 71.026
1.42 97.137 67.510
1.43 --undefined-- 62.913
1.44 --undefined-- 61.680
1.45 --undefined-- 63.695
1.46 --undefined-- 68.558
1.47 --undefined-- 73.021
1.48 123.386 75.016
1.49 120.074 75.165
1.50 114.003 74.654
1.51 114.211 74.676
1.52 117.353 75.275
1.53 117.943 75.652
1.54 116.176 75.301
1.55 117.101 74.079
1.56 121.268 72.245
1.57 123.084 70.341
1.58 126.433 68.921
1.59 135.598 69.325
1.60 146.067 72.065
1.61 156.563 74.825
1.62 162.858 76.306
1.63 166.224 76.411
1.64 169.366 75.550
1.65 171.590 74.070
1.66 171.048 71.481
1.67 166.230 66.790
1.68 168.095 60.368
1.69 168.695 57.424
1.70 167.661 56.057
1.71 166.598 53.077
1.72 166.213 49.499
1.73 --undefined-- 46.657
1.74 --undefined-- 45.081
1.75 --undefined-- 44.343
1.76 --undefined-- 43.029
1.77 --undefined-- 41.689
1.78 --undefined-- 41.211
1.79 --undefined-- 41.541
1.80 --undefined-- 42.490
1.81 --undefined-- 49.509
1.82 --undefined-- 60.898
1.83 --undefined-- 68.750
1.84 --undefined-- 73.010
1.85 122.299 74.641
1.86 118.197 74.567
1.87 111.963 73.660
1.88 109.542 72.657
1.89 106.093 72.407
1.90 108.444 72.901
1.91 108.506 73.239
1.92 107.026 73.205
1.93 106.740 73.074
1.94 106.588 72.838
1.95 106.828 72.405
1.96 106.890 71.772
1.97 105.894 70.653
1.98 103.684 68.576
1.99 97.772 66.144
2.00 --undefined-- 68.081
2.01 120.399 72.247
2.02 119.462 74.485
2.03 117.217 74.951
2.04 112.891 74.713
2.05 113.730 74.774
2.06 115.700 74.660
2.07 117.824 73.477
2.08 116.769 70.745
2.09 110.758 66.528
2.10 115.246 61.656
2.11 118.362 57.720
2.12 119.077 55.412
2.13 120.541 53.471
2.14 116.421 51.404
2.15 --undefined-- 49.915
2.16 --undefined-- 49.527
2.17 --undefined-- 52.466
2.18 --undefined-- 62.671
2.19 194.383 70.353
2.20 181.583 74.225
2.21 173.582 75.380
2.22 170.216 75.305
2.23 166.207 75.053
2.24 163.446 74.806
2.25 161.770 74.571
2.26 161.845 74.248
2.27 161.324 73.801
2.28 161.057 73.514
2.29 161.619 73.621
2.30 162.286 73.894
2.31 162.990 74.159
2.32 163.718 74.350
2.33 163.996 74.467
2.34 163.191 74.561
2.35 162.377 74.576
2.36 161.266 74.567
2.37 160.386 74.591
2.38 160.161 74.691
2.39 158.477 74.808
2.40 156.668 74.848
2.41 153.475 74.926
2.42 148.084 74.819
2.43 139.796 73.996
2.44 128.770 72.343
2.45 123.380 70.221
2.46 114.045 68.199
2.47 112.493 67.856
2.48 121.614 69.332
2.49 124.571 70.566
2.50 115.590 71.146
2.51 102.577 71.708
2.52 97.003 72.424
2.53 94.905 72.780
2.54 95.159 72.835
2.55 97.377 73.287
2.56 101.385 74.140
2.57 104.589 74.979
2.58 108.874 75.680
2.59 113.914 76.125
2.60 120.017 76.247
2.61 128.512 76.192
2.62 134.889 75.946
2.63 140.791 75.366
2.64 138.382 74.811
2.65 140.127 74.961
2.66 141.589 75.150
2.67 136.825 74.490
2.68 129.903 73.207
2.69 123.712 71.789
2.70 115.529 69.957
2.71 116.482 66.913
2.72 --undefined-- 62.293
2.73 126.538 58.008
2.74 126.415 56.077
2.75 131.346 53.588
2.76 --undefined-- 51.212
2.77 --undefined-- 51.124
2.78 --undefined-- 51.810
2.79 --undefined-- 52.587
2.80 --undefined-- 52.991
2.81 --undefined-- 53.385
2.82 --undefined-- 54.242
2.83 --undefined-- 54.599
2.84 --undefined-- 54.185
2.85 --undefined-- 53.811
2.86 --undefined-- 53.507
2.87 --undefined-- 53.093
2.88 --undefined-- 53.070
2.89 --undefined-- 53.767
2.90 153.241 54.622
2.91 150.462 54.457
2.92 150.760 53.030
2.93 --undefined-- 50.458
2.94 --undefined-- 47.557
2.95 --undefined-- 45.801
2.96 --undefined-- 45.131
2.97 --undefined-- 43.914
2.98 --undefined-- 45.132
2.99 --undefined-- 50.665
3.00 --undefined-- 59.144
3.01 --undefined-- 67.597
3.02 --undefined-- 72.564
3.03 154.819 74.420
3.04 146.218 74.517
3.05 147.079 74.572
3.06 149.559 74.954
3.07 149.812 74.851
3.08 147.165 74.160
3.09 145.617 73.943
3.10 146.778 74.393
3.11 147.300 74.920
3.12 149.761 75.428
3.13 155.466 75.598
3.14 153.985 75.185
3.15 152.742 74.687
3.16 152.143 74.421
3.17 151.845 74.326
3.18 151.611 74.302
3.19 151.783 74.290
3.20 152.880 74.352
3.21 154.667 74.322
3.22 157.999 74.029
3.23 166.696 73.869
3.24 175.107 74.017
3.25 187.597 74.348
3.26 194.995 74.811
3.27 200.174 74.959
3.28 205.650 74.921
3.29 209.351 75.009
3.30 210.880 74.957
3.31 208.769 74.595
3.32 204.054 73.941
3.33 195.756 72.821
3.34 186.684 70.602
3.35 176.747 66.449
3.36 155.703 60.221
3.37 --undefined-- 57.851
3.38 --undefined-- 61.616
3.39 --undefined-- 62.835
3.40 --undefined-- 62.384
3.41 178.628 67.813
3.42 161.876 72.907
3.43 152.744 75.143
3.44 144.030 75.558
3.45 137.717 75.534
3.46 137.387 75.589
3.47 138.210 75.351
3.48 138.609 74.307
3.49 135.502 71.859
3.50 127.655 67.877
3.51 131.803 63.155
3.52 139.517 58.455
3.53 139.504 56.207
3.54 --undefined-- 60.141
3.55 --undefined-- 67.977
3.56 159.463 73.214
3.57 157.304 75.148
3.58 137.029 75.155
3.59 133.721 75.124
3.60 129.715 75.241
3.61 125.735 74.804
3.62 124.980 73.496
3.63 124.497 71.591
3.64 123.151 70.086
3.65 123.290 70.098
3.66 123.511 71.954
3.67 124.770 74.481
3.68 126.715 76.133
3.69 126.004 76.373
3.70 123.746 75.898
3.71 122.242 75.638
3.72 120.764 75.594
3.73 119.712 75.786
3.74 119.581 76.128
3.75 119.506 76.203
3.76 118.923 76.018
3.77 117.746 75.871
3.78 116.216 75.783
3.79 115.993 75.650
3.80 116.013 75.340
3.81 114.552 74.295
3.82 111.165 71.580
3.83 111.206 66.542
3.84 115.647 59.830
3.85 115.605 55.086
3.86 118.200 52.646
3.87 --undefined-- 50.532
3.88 --undefined-- 48.889
3.89 --undefined-- 47.611
3.90 --undefined-- 46.065
3.91 --undefined-- 45.465
3.92 --undefined-- 46.677
3.93 --undefined-- 47.283
3.94 --undefined-- 48.957
3.95 --undefined-- 56.590
3.96 --undefined-- 65.835
3.97 161.116 71.973
3.98 156.961 75.017
3.99 133.622 75.843
4.00 132.970 75.524
4.01 128.691 75.219
4.02 127.116 75.310
4.03 128.111 75.357
4.04 129.801 75.350
4.05 132.423 75.308
4.06 134.491 74.813
4.07 139.027 73.721
4.08 143.406 71.998
4.09 143.619 68.973
4.10 157.434 64.526
4.11 168.940 59.713
4.12 145.044 55.025
4.13 138.851 52.736
4.14 138.024 50.950
4.15 --undefined-- 47.363
4.16 --undefined-- 43.535
4.17 --undefined-- 42.321
4.18 --undefined-- 42.646
4.19 --undefined-- 42.775
4.20 --undefined-- 42.641
4.21 --undefined-- 41.797
4.22 --undefined-- 41.698
4.23 --undefined-- 52.012
4.24 --undefined-- 62.198
4.25 218.388 68.617
4.26 208.772 72.011
4.27 204.667 73.525
4.28 204.119 74.150
4.29 202.896 74.163
4.30 201.729 73.612
4.31 199.409 72.344
4.32 197.178 70.083
4.33 203.492 66.471
4.34 209.860 61.538
4.35 200.912 57.528
4.36 198.549 55.227
4.37 200.945 52.684
4.38 --undefined-- 50.064
4.39 --undefined-- 47.992
4.40 --undefined-- 46.997
4.41 --undefined-- 45.389
4.42 --undefined-- 43.240
4.43 --undefined-- 41.370
4.44 --undefined-- 41.538
4.45 --undefined-- 42.987
4.46 --undefined-- 47.865
4.47 --undefined-- 58.015
4.48 --undefined-- 65.084
4.49 138.823 69.311
4.50 135.847 72.113
4.51 136.307 74.137
4.52 131.996 75.356
4.53 128.012 75.855
4.54 127.956 76.012
4.55 128.089 76.115
4.56 128.546 76.122
4.57 128.232 75.991
4.58 127.350 75.828
4.59 127.293 75.666
4.60 127.523 75.483
4.61 129.041 75.322
4.62 132.085 74.929
4.63 133.038 73.969
4.64 132.397 73.103
4.65 145.077 74.204
4.66 149.906 75.959
4.67 151.862 76.486
4.68 154.297 76.164
4.69 155.197 75.795
4.70 153.976 75.328
4.71 153.535 74.611
4.72 148.011 73.906
4.73 147.671 73.089
4.74 145.471 71.904
4.75 146.330 71.345
4.76 145.613 72.242
4.77 141.621 73.362
4.78 138.674 74.044
4.79 130.695 74.703
4.80 125.887 75.316
4.81 121.071 75.329
4.82 115.749 74.259
4.83 108.250 71.828
4.84 98.332 68.246
4.85 113.421 64.139
4.86 114.893 59.888
4.87 116.959 55.958
4.88 118.215 55.869
4.89 --undefined-- 59.593
4.90 --undefined-- 62.625
4.91 --undefined-- 67.040
4.92 --undefined-- 71.696
4.93 136.152 74.043
4.94 123.392 74.178
4.95 119.520 73.083
4.96 118.427 71.390
4.97 116.832 68.713
4.98 112.512 64.749
4.99 110.930 60.942
5.00 116.513 58.840
5.01 116.960 57.319
5.02 118.966 56.030
5.03 120.035 55.449
5.04 122.882 56.747
5.05 --undefined-- 59.310
5.06 --undefined-- 61.302
5.07 --undefined-- 66.448
5.08 --undefined-- 71.922
5.09 152.125 74.592
5.10 146.839 75.078
5.11 143.300 74.545
5.12 140.233 73.246
5.13 136.929 70.298
5.14 148.515 65.159
5.15 146.505 58.772
5.16 145.300 53.154
5.17 145.091 50.382
5.18 --undefined-- 48.209
5.19 --undefined-- 46.440
5.20 --undefined-- 45.094
5.21 --undefined-- 45.666
5.22 --undefined-- 46.509
5.23 --undefined-- 45.559
5.24 --undefined-- 42.616
5.25 --undefined-- 40.076
5.26 --undefined-- 41.944
5.27 --undefined-- 44.145
5.28 --undefined-- 45.316
5.29 --undefined-- 49.609
5.30 --undefined-- 56.340
5.31 --undefined-- 59.869
5.32 --undefined-- 59.344
5.33 --undefined-- --undefined--
5.34 --undefined-- --undefined--
5.35 --undefined-- --undefined--
5.36 --undefined-- --undefined--
