Time Pitch Intensity
0.01 --undefined-- --undefined--
0.02 142.343 --undefined--
0.03 144.534 --undefined--
0.04 143.683 --undefined--
0.05 142.239 54.513
0.06 --undefined-- 50.225
0.07 140.198 53.708
0.08 --undefined-- 62.411
0.09 --undefined-- 68.563
0.10 --undefined-- 71.431
0.11 --undefined-- 71.329
0.12 113.749 69.236
0.13 105.860 66.896
0.14 104.205 65.718
0.15 103.592 65.654
0.16 102.532 66.167
0.17 101.228 66.864
0.18 100.628 67.385
0.19 100.454 66.946
0.20 96.019 65.166
0.21 98.142 63.842
0.22 101.841 64.528
0.23 104.574 65.681
0.24 105.249 65.970
0.25 104.409 65.027
0.26 100.636 62.797
0.27 98.886 59.790
0.28 102.332 57.473
0.29 114.374 57.548
0.30 137.493 62.417
0.31 142.080 67.818
0.32 140.281 71.007
0.33 140.729 72.122
0.34 141.506 72.029
0.35 143.396 71.818
0.36 146.093 72.178
0.37 146.760 72.787
0.38 146.592 73.205
0.39 146.649 73.399
0.40 147.576 73.607
0.41 147.446 73.666
0.42 147.162 72.923
0.43 149.816 70.852
0.44 148.141 67.144
0.45 147.633 63.672
0.46 174.554 67.905
0.47 172.900 72.482
0.48 170.670 74.366
0.49 162.310 74.415
0.50 155.304 73.995
0.51 154.444 73.706
0.52 154.490 73.447
0.53 154.026 72.813
0.54 152.030 71.132
0.55 148.170 67.853
0.56 146.070 62.837
0.57 155.017 58.226
0.58 154.316 56.162
0.59 155.169 54.647
0.60 154.390 52.146
0.61 --undefined-- 48.481
0.62 --undefined-- 47.555
0.63 --undefined-- 48.401
0.64 --undefined-- 48.401
0.65 --undefined-- 48.342
0.66 --undefined-- 48.767
0.67 --undefined-- 49.373
0.68 --undefined-- 50.043
0.69 --undefined-- 50.383
0.70 --undefined-- 50.541
0.71 --undefined-- 50.514
0.72 --undefined-- 50.316
0.73 --undefined-- 49.891
0.74 --undefined-- 48.823
0.75 --undefined-- 47.579
0.76 --undefined-- 46.774
0.77 --undefined-- 45.615
0.78 --undefined-- 43.975
0.79 --undefined-- 45.007
0.80 --undefined-- 49.780
0.81 --undefined-- 51.814
0.82 --undefined-- 49.796
0.83 --undefined-- 44.351
0.84 --undefined-- 40.335
0.85 --undefined-- 45.770
0.86 --undefined-- 53.605
0.87 --undefined-- 62.021
0.88 --undefined-- 68.670
0.89 --undefined-- 71.848
0.90 135.634 72.023
0.91 133.627 71.069
0.92 133.328 70.599
0.93 134.446 70.143
0.94 135.110 69.613
0.95 142.468 69.608
0.96 146.736 69.950
0.97 145.438 70.520
0.98 141.128 70.885
0.99 136.698 70.591
1.00 132.011 70.508
1.01 127.908 71.144
1.02 123.677 71.186
1.03 119.983 70.003
1.04 119.286 68.786
1.05 120.169 68.953
1.06 121.422 69.659
1.07 124.221 70.262
1.08 126.802 70.922
1.09 131.265 71.629
1.10 134.569 72.270
1.11 140.400 72.812
1.12 149.090 73.566
1.13 158.021 74.407
1.14 167.444 74.586
1.15 180.560 74.076
1.16 199.265 73.547
1.17 202.965 73.609
1.18 210.050 74.067
1.19 215.502 74.284
1.20 220.322 74.220
1.21 223.081 74.268
1.22 224.416 74.427
1.23 222.794 74.586
1.24 216.946 74.490
1.25 214.965 73.801
1.26 215.323 72.542
1.27 210.428 71.159
1.28 198.206 70.400
1.29 193.437 71.127
1.30 189.177 72.778
1.31 184.526 73.886
1.32 173.865 74.154
1.33 165.433 74.431
1.34 161.165 74.546
1.35 154.367 73.661
1.36 146.149 72.511
1.37 144.520 71.962
1.38 141.865 71.208
1.39 140.499 69.711
1.40 138.082 68.223
1.41 142.045 68.209
1.42 144.395 69.237
1.43 144.908 70.306
1.44 145.107 71.035
1.45 144.953 70.761
1.46 144.110 69.135
1.47 147.247 66.485
1.48 151.352 62.864
1.49 158.703 58.542
1.50 160.011 55.344
1.51 161.624 53.815
1.52 --undefined-- 53.187
1.53 --undefined-- 52.585
1.54 --undefined-- 51.709
1.55 --undefined-- 52.024
1.56 --undefined-- 55.472
1.57 --undefined-- 63.393
1.58 208.817 69.091
1.59 205.082 71.549
1.60 196.308 71.375
1.61 193.525 69.475
1.62 192.148 67.119
1.63 194.190 66.248
1.64 94.771 66.707
1.65 94.572 66.952
1.66 96.357 67.079
1.67 99.853 67.961
1.68 200.161 69.674
1.69 202.643 71.474
1.70 205.118 72.898
1.71 207.128 73.869
1.72 207.992 74.333
1.73 207.799 74.053
1.74 206.333 73.141
1.75 208.108 72.780
1.76 210.479 73.075
1.77 210.712 73.150
1.78 211.274 73.033
1.79 211.841 72.928
1.80 211.283 72.872
1.81 210.446 72.836
1.82 209.360 72.722
1.83 207.331 72.396
1.84 203.353 71.686
1.85 193.865 70.597
1.86 187.762 69.527
1.87 190.886 67.926
1.88 199.661 64.594
1.89 210.041 59.773
1.90 208.489 55.602
1.91 --undefined-- 53.575
1.92 --undefined-- 55.130
1.93 --undefined-- 56.635
1.94 --undefined-- 57.170
1.95 --undefined-- 59.974
1.96 210.651 67.060
1.97 210.099 71.964
1.98 206.817 73.863
1.99 206.213 73.877
2.00 206.379 73.307
2.01 206.607 72.817
2.02 206.985 72.457
2.03 206.553 72.051
2.04 205.359 71.534
2.05 202.955 71.435
2.06 202.673 72.162
2.07 201.061 73.059
2.08 198.461 73.770
2.09 194.390 74.389
2.10 188.440 74.846
2.11 180.581 74.906
2.12 167.301 74.645
2.13 154.622 74.578
2.14 144.385 74.451
2.15 134.936 73.789
2.16 123.375 72.718
2.17 116.415 71.742
2.18 108.497 71.171
2.19 105.249 70.580
2.20 102.490 69.672
2.21 99.050 68.373
2.22 98.632 67.538
2.23 98.450 67.751
2.24 97.469 68.181
2.25 96.688 68.214
2.26 95.467 67.730
2.27 94.406 66.835
2.28 95.466 65.892
2.29 104.873 66.683
2.30 116.645 69.077
2.31 119.318 71.025
2.32 120.656 72.137
2.33 123.914 72.663
2.34 125.924 72.642
2.35 127.004 71.468
2.36 124.974 68.453
2.37 127.664 64.057
2.38 134.216 60.171
2.39 136.106 56.763
2.40 --undefined-- 55.880
2.41 --undefined-- 63.091
2.42 168.113 69.386
2.43 161.667 72.950
2.44 160.221 74.307
2.45 158.229 74.366
2.46 155.212 74.045
2.47 152.628 73.800
2.48 152.825 73.461
2.49 153.729 73.000
2.50 154.259 72.725
2.51 152.518 72.578
2.52 149.544 72.371
2.53 145.382 72.065
2.54 144.695 72.038
2.55 139.582 72.029
2.56 123.586 71.871
2.57 118.721 72.003
2.58 113.093 71.608
2.59 108.352 70.712
2.60 105.796 69.954
2.61 105.182 69.267
2.62 103.816 68.548
2.63 101.447 67.823
2.64 98.014 67.016
2.65 94.608 66.387
2.66 91.425 65.813
2.67 87.357 64.696
2.68 82.506 63.607
2.69 83.481 63.212
2.70 85.892 63.207
2.71 87.369 63.407
2.72 88.204 64.008
2.73 89.794 64.790
2.74 94.582 64.993
2.75 99.262 64.030
2.76 104.381 63.188
2.77 111.759 63.936
2.78 119.079 65.364
2.79 124.218 67.194
2.80 136.177 69.682
2.81 139.517 71.877
2.82 139.222 72.956
2.83 140.980 73.320
2.84 142.944 73.548
2.85 144.265 73.702
2.86 143.753 73.492
2.87 141.406 72.675
2.88 138.394 71.100
2.89 137.525 68.358
2.90 132.385 64.107
2.91 123.805 60.146
2.92 124.251 60.712
2.93 129.192 64.548
2.94 135.562 68.183
2.95 133.600 70.065
2.96 130.315 70.574
2.97 128.613 70.811
2.98 128.500 71.383
2.99 128.532 71.963
3.00 129.618 72.226
3.01 134.764 72.567
3.02 136.862 73.160
3.03 136.694 73.586
3.04 135.723 73.715
3.05 133.912 73.761
3.06 131.449 73.894
3.07 129.100 73.995
3.08 126.931 73.860
3.09 125.216 73.410
3.10 124.411 72.596
3.11 122.360 70.878
3.12 117.345 67.328
3.13 124.520 61.548
3.14 132.231 55.375
3.15 --undefined-- 53.107
3.16 --undefined-- 54.287
3.17 --undefined-- 56.573
3.18 124.304 62.113
3.19 140.196 67.241
3.20 144.308 70.187
3.21 146.473 71.503
3.22 152.153 72.195
3.23 154.134 72.644
3.24 153.506 72.698
3.25 151.551 72.377
3.26 150.381 72.039
3.27 149.655 71.960
3.28 148.948 71.902
3.29 148.934 71.679
3.30 148.330 71.481
3.31 147.681 71.438
3.32 148.027 71.451
3.33 148.372 71.502
3.34 148.065 71.558
3.35 147.340 71.389
3.36 145.857 70.743
3.37 143.885 69.447
3.38 141.605 67.199
3.39 137.834 63.571
3.40 129.607 58.551
3.41 128.942 54.684
3.42 136.809 59.072
3.43 138.742 65.797
3.44 131.429 69.803
3.45 124.482 71.383
3.46 119.807 71.782
3.47 118.564 72.211
3.48 117.380 72.495
3.49 115.846 72.235
3.50 114.405 71.569
3.51 113.355 70.795
3.52 113.287 70.071
3.53 112.438 69.095
3.54 111.190 67.146
3.55 107.641 63.742
3.56 111.010 59.742
3.57 115.595 56.134
3.58 --undefined-- 51.851
3.59 --undefined-- 47.139
3.60 --undefined-- 50.618
3.61 --undefined-- 57.077
3.62 --undefined-- 64.059
3.63 --undefined-- 69.299
3.64 149.177 71.897
3.65 148.057 72.765
3.66 146.673 72.855
3.67 144.022 72.544
3.68 146.681 72.432
3.69 149.833 72.715
3.70 149.359 73.029
3.71 148.271 73.243
3.72 147.955 73.340
3.73 146.974 73.350
3.74 146.310 73.213
3.75 146.487 72.713
3.76 146.365 71.580
3.77 146.376 69.476
3.78 148.299 65.963
3.79 149.391 61.205
3.80 --undefined-- 58.909
3.81 --undefined-- 59.918
3.82 --undefined-- 65.186
3.83 --undefined-- 70.965
3.84 154.658 73.842
3.85 153.110 74.411
3.86 150.403 73.782
3.87 146.732 72.661
3.88 144.027 71.292
3.89 143.023 70.084
3.90 143.623 69.513
3.91 143.754 69.303
3.92 143.099 68.818
3.93 141.021 67.862
3.94 137.912 66.660
3.95 135.573 65.341
3.96 133.929 63.380
3.97 124.835 60.539
3.98 117.823 58.888
3.99 117.628 61.670
4.00 127.194 65.805
4.01 116.877 68.209
4.02 110.509 69.189
4.03 105.783 69.564
4.04 106.483 69.916
4.05 110.789 70.543
4.06 114.862 71.459
4.07 120.845 72.331
4.08 124.702 72.513
4.09 127.923 71.460
4.10 124.477 68.720
4.11 125.543 64.131
4.12 124.282 57.777
4.13 126.422 51.787
4.14 128.165 49.616
4.15 --undefined-- 47.608
4.16 --undefined-- 47.840
4.17 --undefined-- 57.110
4.18 --undefined-- 64.766
4.19 125.406 69.127
4.20 123.136 71.260
4.21 120.097 71.954
4.22 118.361 71.961
4.23 116.973 71.796
4.24 115.464 71.073
4.25 111.363 68.833
4.26 106.200 64.438
4.27 120.771 58.825
4.28 123.473 54.853
4.29 --undefined-- 53.642
4.30 --undefined-- 55.155
4.31 --undefined-- 58.918
4.32 173.805 66.226
4.33 160.152 71.440
4.34 153.635 73.777
4.35 150.573 73.989
4.36 146.347 72.633
4.37 140.432 70.188
4.38 140.412 68.220
4.39 141.289 68.062
4.40 142.967 68.743
4.41 144.207 69.552
4.42 144.117 70.244
4.43 143.913 70.773
4.44 144.280 71.195
4.45 144.982 71.551
4.46 143.610 71.310
4.47 142.996 69.754
4.48 142.559 66.371
4.49 142.637 60.957
4.50 142.803 54.944
4.51 146.383 53.339
4.52 164.282 60.612
4.53 172.380 68.075
4.54 167.018 71.995
4.55 154.904 73.200
4.56 151.870 72.993
4.57 148.205 72.258
4.58 144.299 71.075
4.59 140.939 69.591
4.60 143.477 68.922
4.61 144.282 69.183
4.62 144.309 69.503
4.63 143.461 69.572
4.64 140.732 69.090
4.65 136.070 67.680
4.66 128.837 65.041
4.67 122.804 62.029
4.68 124.362 63.179
4.69 130.115 67.624
4.70 126.220 70.276
4.71 120.236 70.826
4.72 112.477 70.256
4.73 103.114 69.530
4.74 97.481 68.663
4.75 97.353 67.435
4.76 101.657 66.486
4.77 102.101 66.182
4.78 102.402 65.670
4.79 96.626 65.196
4.80 94.593 64.786
4.81 94.616 64.375
4.82 94.827 64.470
4.83 94.744 64.910
4.84 93.894 65.197
4.85 93.729 65.341
4.86 93.457 65.510
4.87 92.474 65.552
4.88 90.504 65.233
4.89 88.322 64.621
4.90 88.896 64.210
4.91 88.684 64.018
4.92 89.969 63.853
4.93 89.529 63.883
4.94 90.842 63.905
4.95 92.973 63.884
4.96 91.338 63.977
4.97 93.138 64.355
4.98 97.378 --undefined--
4.99 99.612 --undefined--
5.00 --undefined-- --undefined--
5.01 --undefined-- --undefined--
