Time Pitch Intensity
0.01 --undefined-- --undefined--
0.02 118.270 --undefined--
0.03 118.985 --undefined--
0.04 118.419 --undefined--
0.05 115.860 64.328
0.06 111.970 60.701
0.07 --undefined-- 55.047
0.08 --undefined-- 48.567
0.09 --undefined-- 45.881
0.10 --undefined-- 46.253
0.11 --undefined-- 47.065
0.12 --undefined-- 47.433
0.13 --undefined-- 50.063
0.14 --undefined-- 59.240
0.15 --undefined-- 67.442
0.16 185.364 72.307
0.17 175.603 74.664
0.18 169.183 75.502
0.19 167.438 75.714
0.20 167.046 75.752
0.21 166.614 75.455
0.22 166.525 74.656
0.23 166.746 73.456
0.24 166.855 72.195
0.25 168.029 71.410
0.26 168.891 71.176
0.27 167.498 71.154
0.28 165.003 71.159
0.29 161.679 70.733
0.30 149.549 69.411
0.31 142.922 67.380
0.32 135.349 65.334
0.33 134.922 64.200
0.34 137.799 64.558
0.35 136.191 65.951
0.36 139.995 67.982
0.37 143.285 70.077
0.38 146.566 71.728
0.39 146.564 72.659
0.40 145.330 72.875
0.41 143.456 72.823
0.42 142.422 72.897
0.43 141.043 73.219
0.44 139.542 73.675
0.45 137.931 74.009
0.46 135.864 74.046
0.47 134.177 73.642
0.48 132.678 72.741
0.49 132.262 71.128
0.50 123.954 68.381
0.51 122.595 65.150
0.52 122.153 63.150
0.53 120.124 61.884
0.54 --undefined-- 60.291
0.55 --undefined-- 57.686
0.56 --undefined-- 55.056
0.57 --undefined-- 52.972
0.58 --undefined-- 49.035
0.59 --undefined-- 44.121
0.60 --undefined-- 42.051
0.61 --undefined-- 40.148
0.62 --undefined-- 39.172
0.63 --undefined-- 40.361
0.64 --undefined-- 40.888
0.65 --undefined-- 40.320
0.66 --undefined-- 38.749
0.67 --undefined-- 37.518
0.68 --undefined-- 37.950
0.69 --undefined-- 37.712
0.70 --undefined-- 38.811
0.71 --undefined-- 49.218
0.72 --undefined-- 59.278
0.73 --undefined-- 65.458
0.74 129.163 68.586
0.75 128.233 69.791
0.76 127.080 70.038
0.77 126.621 68.963
0.78 118.276 65.725
0.79 113.993 60.632
0.80 101.716 56.107
0.81 --undefined-- 57.649
0.82 139.450 63.574
0.83 151.171 67.864
0.84 158.752 70.037
0.85 161.361 70.857
0.86 165.668 71.109
0.87 171.747 71.277
0.88 173.545 71.439
0.89 171.311 70.451
0.90 159.744 67.112
0.91 137.294 61.505
0.92 --undefined-- 55.315
0.93 --undefined-- 49.252
0.94 --undefined-- 45.320
0.95 --undefined-- 45.619
0.96 --undefined-- 45.516
0.97 --undefined-- 47.317
0.98 --undefined-- 50.962
0.99 --undefined-- 54.676
1.00 --undefined-- 61.124
1.01 --undefined-- 66.132
1.02 123.461 68.558
1.03 118.908 69.189
1.04 111.720 68.991
1.05 108.749 68.363
1.06 109.784 68.101
1.07 110.732 68.793
1.08 116.037 70.250
1.09 119.565 71.656
1.10 123.131 72.295
1.11 127.680 72.692
1.12 133.711 73.758
1.13 137.259 74.878
1.14 140.944 75.121
1.15 144.411 74.480
1.16 147.455 73.080
1.17 148.618 70.178
1.18 138.512 65.040
1.19 138.824 58.620
1.20 --undefined-- 52.508
1.21 --undefined-- 47.218
1.22 --undefined-- 45.009
1.23 --undefined-- 44.652
1.24 --undefined-- 45.759
1.25 --undefined-- 47.160
1.26 --undefined-- 53.273
1.27 --undefined-- 60.784
1.28 --undefined-- 65.310
1.29 123.734 67.345
1.30 120.151 68.178
1.31 118.548 68.706
1.32 115.487 69.013
1.33 113.556 69.057
1.34 113.127 68.827
1.35 117.139 68.416
1.36 120.973 68.033
1.37 121.729 67.791
1.38 125.794 67.671
1.39 130.501 67.610
1.40 132.289 67.696
1.41 134.944 68.215
1.42 140.159 69.024
1.43 142.695 69.684
1.44 147.466 70.047
1.45 148.147 69.808
1.46 150.601 68.636
1.47 144.566 66.343
1.48 93.879 63.035
1.49 93.783 59.062
1.50 --undefined-- 54.373
1.51 --undefined-- 48.701
1.52 --undefined-- 43.333
1.53 --undefined-- 41.640
1.54 --undefined-- 40.377
1.55 --undefined-- 37.457
1.56 --undefined-- 36.419
1.57 --undefined-- 37.633
1.58 --undefined-- 43.154
1.59 --undefined-- 51.632
1.60 190.995 56.728
1.61 153.863 59.446
1.62 146.676 62.728
1.63 156.026 66.508
1.64 154.909 69.107
1.65 157.012 70.615
1.66 158.160 71.551
1.67 158.343 71.850
1.68 157.029 71.089
1.69 155.441 68.713
1.70 147.277 64.105
1.71 --undefined-- 57.386
1.72 --undefined-- 51.833
1.73 --undefined-- 53.376
1.74 --undefined-- 57.610
1.75 --undefined-- 63.909
1.76 --undefined-- 68.968
1.77 136.576 71.601
1.78 127.191 72.479
1.79 124.540 72.194
1.80 123.476 70.718
1.81 117.906 67.989
1.82 102.582 64.629
1.83 104.460 61.809
1.84 --undefined-- 59.225
1.85 --undefined-- 56.179
1.86 --undefined-- 54.586
1.87 98.703 56.740
1.88 107.761 59.501
1.89 114.000 61.193
1.90 101.644 61.618
1.91 101.379 61.014
1.92 98.722 60.204
1.93 99.408 59.875
1.94 101.874 60.109
1.95 100.636 60.483
1.96 101.829 61.009
1.97 105.724 61.614
1.98 108.251 62.109
1.99 110.077 62.624
2.00 112.244 63.234
2.01 112.416 63.543
2.02 111.058 62.910
2.03 107.550 60.761
2.04 96.477 56.721
2.05 --undefined-- 51.193
2.06 --undefined-- 52.006
2.07 --undefined-- 58.253
2.08 --undefined-- 62.876
2.09 148.975 67.173
2.10 148.124 70.315
2.11 139.745 71.936
2.12 136.202 72.786
2.13 137.014 73.411
2.14 137.578 73.804
2.15 137.967 73.918
2.16 139.560 73.909
2.17 140.527 73.595
2.18 140.790 72.591
2.19 140.313 71.126
2.20 139.770 70.200
2.21 141.597 69.990
2.22 143.568 69.846
2.23 145.058 69.539
2.24 146.605 68.988
2.25 146.552 67.999
2.26 144.000 66.398
2.27 142.195 64.059
2.28 147.236 60.919
2.29 146.461 56.934
2.30 --undefined-- 51.275
2.31 --undefined-- 43.959
2.32 --undefined-- 40.257
2.33 --undefined-- 40.948
2.34 --undefined-- 42.225
2.35 --undefined-- 42.762
2.36 --undefined-- 43.240
2.37 --undefined-- 43.697
2.38 --undefined-- 42.571
2.39 --undefined-- 40.101
2.40 --undefined-- 39.511
2.41 --undefined-- 39.483
2.42 --undefined-- 38.581
2.43 --undefined-- 38.980
2.44 --undefined-- 39.656
2.45 --undefined-- 39.211
2.46 --undefined-- 39.022
2.47 --undefined-- 40.050
2.48 --undefined-- 41.299
2.49 --undefined-- 41.192
2.50 --undefined-- 39.532
2.51 --undefined-- 38.065
2.52 --undefined-- 38.110
2.53 --undefined-- 38.368
2.54 --undefined-- 38.468
2.55 --undefined-- 38.941
2.56 --undefined-- 38.800
2.57 --undefined-- 38.067
2.58 --undefined-- 37.249
2.59 --undefined-- 37.770
2.60 --undefined-- 38.630
2.61 --undefined-- 38.396
2.62 --undefined-- 38.556
2.63 --undefined-- 38.496
2.64 --undefined-- 38.201
2.65 --undefined-- 38.387
2.66 --undefined-- 40.369
2.67 --undefined-- 49.239
2.68 --undefined-- 56.747
2.69 --undefined-- 60.306
2.70 --undefined-- 60.608
2.71 --undefined-- 64.358
2.72 179.252 70.648
2.73 164.516 74.588
2.74 159.430 76.726
2.75 157.557 77.460
2.76 161.735 77.035
2.77 168.876 76.302
2.78 162.041 74.886
2.79 160.097 71.281
2.80 152.745 65.262
2.81 156.324 59.115
2.82 --undefined-- 55.108
2.83 --undefined-- 56.595
2.84 --undefined-- 62.992
2.85 189.485 69.127
2.86 173.691 72.588
2.87 163.185 73.648
2.88 151.280 73.379
2.89 146.320 72.700
2.90 143.343 71.798
2.91 141.941 71.162
2.92 142.067 71.056
2.93 142.933 71.070
2.94 141.901 70.637
2.95 140.764 69.317
2.96 141.566 67.029
2.97 139.955 63.475
2.98 --undefined-- 58.313
2.99 --undefined-- 52.432
3.00 --undefined-- 52.169
3.01 --undefined-- 56.127
3.02 --undefined-- 63.333
3.03 217.397 70.411
3.04 200.433 74.524
3.05 190.727 76.464
3.06 189.704 77.513
3.07 187.804 77.742
3.08 184.310 77.003
3.09 183.242 76.074
3.10 183.152 75.233
3.11 183.641 74.243
3.12 184.549 73.217
3.13 185.086 72.063
3.14 185.956 70.720
3.15 188.470 69.967
3.16 193.400 69.919
3.17 197.719 70.003
3.18 200.488 70.115
3.19 200.469 70.059
3.20 197.671 69.435
3.21 192.380 67.706
3.22 182.527 64.393
3.23 175.074 59.326
3.24 --undefined-- 52.454
3.25 --undefined-- 45.624
3.26 --undefined-- 47.546
3.27 --undefined-- 52.889
3.28 --undefined-- 56.987
3.29 --undefined-- 59.210
3.30 --undefined-- 60.022
3.31 --undefined-- 60.096
3.32 --undefined-- 59.471
3.33 --undefined-- 58.141
3.34 --undefined-- 56.550
3.35 --undefined-- 56.065
3.36 --undefined-- 61.080
3.37 191.443 67.324
3.38 183.472 71.521
3.39 177.407 74.042
3.40 177.044 75.385
3.41 177.069 75.954
3.42 176.562 76.076
3.43 174.625 75.993
3.44 171.593 75.957
3.45 166.714 75.947
3.46 159.737 75.350
3.47 152.054 73.395
3.48 145.118 70.436
3.49 134.907 68.437
3.50 123.351 67.208
3.51 116.497 66.201
3.52 112.790 65.561
3.53 110.741 64.976
3.54 109.412 64.467
3.55 108.853 64.205
3.56 109.387 64.219
3.57 109.793 64.357
3.58 110.834 64.400
3.59 111.744 63.996
3.60 111.470 62.683
3.61 107.285 59.994
3.62 --undefined-- 56.153
3.63 --undefined-- 52.644
3.64 --undefined-- 49.940
3.65 --undefined-- 56.422
3.66 --undefined-- 66.806
3.67 --undefined-- 73.249
3.68 164.257 76.737
3.69 161.863 78.643
3.70 161.920 79.617
3.71 163.917 79.884
3.72 165.827 79.938
3.73 167.950 79.811
3.74 170.149 79.435
3.75 172.128 79.181
3.76 173.724 79.289
3.77 175.559 79.502
3.78 177.510 79.547
3.79 178.584 79.360
3.80 178.804 79.088
3.81 177.717 78.732
3.82 176.206 77.833
3.83 173.687 75.911
3.84 169.838 72.582
3.85 --undefined-- 67.424
3.86 --undefined-- 60.755
3.87 --undefined-- 54.131
3.88 --undefined-- 46.929
3.89 --undefined-- 41.127
3.90 --undefined-- 39.624
3.91 --undefined-- 38.582
3.92 --undefined-- 37.220
3.93 --undefined-- 36.151
3.94 --undefined-- 35.591
3.95 --undefined-- 36.184
3.96 --undefined-- 37.244
3.97 --undefined-- 38.421
3.98 --undefined-- 40.231
3.99 --undefined-- 41.983
4.00 --undefined-- 43.792
4.01 --undefined-- 45.939
4.02 --undefined-- 51.183
4.03 --undefined-- 59.785
4.04 158.300 65.665
4.05 143.962 68.460
4.06 139.593 68.991
4.07 131.803 68.633
4.08 127.181 68.417
4.09 128.625 68.687
4.10 133.881 69.140
4.11 140.866 69.303
4.12 147.483 69.346
4.13 153.777 69.220
4.14 165.765 68.766
4.15 174.644 68.327
4.16 182.888 68.201
4.17 191.458 68.333
4.18 199.162 68.584
4.19 205.262 68.955
4.20 209.858 69.547
4.21 210.222 70.140
4.22 206.516 70.277
4.23 199.736 69.521
4.24 190.697 67.812
4.25 182.384 66.276
4.26 184.232 66.842
4.27 187.181 69.798
4.28 178.656 73.698
4.29 170.688 76.615
4.30 163.016 78.221
4.31 157.985 79.293
4.32 155.096 80.136
4.33 153.569 80.609
4.34 151.927 80.847
4.35 150.520 81.126
4.36 149.836 81.238
4.37 149.716 80.979
4.38 149.458 80.502
4.39 149.675 79.791
4.40 150.470 78.621
4.41 150.678 76.794
4.42 150.586 74.410
4.43 149.258 71.531
4.44 146.049 68.165
4.45 137.693 64.335
4.46 139.869 60.678
4.47 --undefined-- 56.848
4.48 --undefined-- 53.518
4.49 --undefined-- 53.342
4.50 --undefined-- 54.205
4.51 --undefined-- 53.327
4.52 --undefined-- 56.794
4.53 --undefined-- 61.097
4.54 109.204 63.468
4.55 115.142 64.926
4.56 115.286 66.072
4.57 117.005 66.961
4.58 119.704 67.651
4.59 121.905 68.223
4.60 123.968 68.793
4.61 126.810 69.252
4.62 129.998 69.574
4.63 133.121 69.974
4.64 136.324 70.610
4.65 139.209 71.260
4.66 142.443 71.731
4.67 144.742 72.023
4.68 147.280 71.986
4.69 149.583 71.422
4.70 151.368 70.299
4.71 152.332 68.759
4.72 150.945 66.892
4.73 148.144 64.138
4.74 145.065 59.637
4.75 --undefined-- 53.187
4.76 --undefined-- 53.858
4.77 --undefined-- 64.469
4.78 --undefined-- 72.307
4.79 --undefined-- 76.670
4.80 178.738 78.499
4.81 175.238 78.951
4.82 173.408 78.407
4.83 172.660 76.798
4.84 172.394 74.566
4.85 171.573 72.590
4.86 173.454 71.951
4.87 172.310 71.977
4.88 171.077 71.730
4.89 170.753 71.122
4.90 171.561 70.391
4.91 170.870 69.485
4.92 168.152 67.985
4.93 162.778 65.225
4.94 158.898 61.267
4.95 --undefined-- 57.508
4.96 --undefined-- 55.983
4.97 --undefined-- 58.794
4.98 215.330 65.819
4.99 199.967 71.396
5.00 191.425 74.263
5.01 183.521 74.839
5.02 177.224 73.962
5.03 174.075 72.867
5.04 169.699 72.196
5.05 170.430 71.774
5.06 168.312 71.301
5.07 164.723 70.599
5.08 159.887 69.632
5.09 154.420 68.460
5.10 151.109 67.848
5.11 150.277 69.545
5.12 149.802 72.321
5.13 144.507 74.137
5.14 139.325 74.780
5.15 132.175 74.453
5.16 127.543 73.009
5.17 127.305 69.893
5.18 109.146 64.589
5.19 --undefined-- 57.754
5.20 --undefined-- 50.527
5.21 --undefined-- 44.402
5.22 --undefined-- 40.547
5.23 --undefined-- 39.512
5.24 --undefined-- 48.129
5.25 --undefined-- 55.551
5.26 --undefined-- 60.916
5.27 --undefined-- 65.857
5.28 134.649 69.485
5.29 132.831 71.719
5.30 131.125 73.438
5.31 131.496 74.990
5.32 131.673 75.873
5.33 130.762 75.973
5.34 129.527 75.648
5.35 129.337 75.299
5.36 128.733 75.015
5.37 128.277 74.576
5.38 127.665 73.801
5.39 126.219 72.420
5.40 121.766 69.809
5.41 110.984 65.144
5.42 --undefined-- 58.117
5.43 --undefined-- 49.672
5.44 --undefined-- 47.775
5.45 --undefined-- 50.441
5.46 --undefined-- 51.819
5.47 --undefined-- 51.827
5.48 --undefined-- 51.548
5.49 --undefined-- 54.183
5.50 --undefined-- 60.517
5.51 136.563 64.800
5.52 119.186 66.505
5.53 108.922 --undefined--
5.54 104.927 --undefined--
5.55 --undefined-- --undefined--
5.56 --undefined-- --undefined--
