Time Pitch Intensity
0.01 --undefined-- --undefined--
0.02 146.285 --undefined--
0.03 148.258 --undefined--
0.04 150.348 --undefined--
0.05 155.212 73.029
0.06 161.279 74.420
0.07 165.496 75.972
0.08 169.350 76.989
0.09 171.651 77.257
0.10 173.668 77.200
0.11 174.477 77.253
0.12 174.333 77.480
0.13 174.745 77.694
0.14 174.408 77.734
0.15 174.688 77.388
0.16 174.673 76.244
0.17 170.610 73.652
0.18 158.772 69.303
0.19 162.586 63.703
0.20 173.279 58.835
0.21 173.152 56.726
0.22 173.053 54.312
0.23 --undefined-- 55.696
0.24 --undefined-- 65.238
0.25 --undefined-- 70.634
0.26 --undefined-- 71.535
0.27 --undefined-- 68.472
0.28 --undefined-- 65.169
0.29 --undefined-- 70.137
0.30 146.566 74.920
0.31 135.977 77.300
0.32 126.569 78.080
0.33 122.039 78.094
0.34 119.104 77.758
0.35 118.277 76.895
0.36 119.710 75.875
0.37 124.213 75.803
0.38 128.390 76.281
0.39 129.829 76.168
0.40 128.052 74.779
0.41 118.548 71.586
0.42 119.980 67.005
0.43 141.618 62.463
0.44 134.060 59.107
0.45 --undefined-- 64.645
0.46 --undefined-- 71.935
0.47 138.318 75.789
0.48 137.224 76.796
0.49 130.262 76.369
0.50 123.850 76.063
0.51 122.415 76.303
0.52 122.774 76.651
0.53 122.238 76.822
0.54 122.137 76.854
0.55 121.589 76.879
0.56 120.190 76.873
0.57 120.868 76.380
0.58 120.693 74.995
0.59 120.700 73.284
0.60 121.305 72.009
0.61 122.534 70.700
0.62 124.398 69.597
0.63 127.093 69.756
0.64 121.367 70.727
0.65 119.446 72.109
0.66 120.397 73.979
0.67 118.111 75.876
0.68 113.047 77.169
0.69 113.162 77.687
0.70 117.339 77.624
0.71 123.467 77.525
0.72 127.370 77.496
0.73 132.003 77.169
0.74 135.928 76.725
0.75 141.775 76.404
0.76 149.886 75.889
0.77 153.060 74.175
0.78 148.947 70.355
0.79 142.689 65.052
0.80 140.294 60.543
0.81 140.778 57.861
0.82 --undefined-- 60.636
0.83 --undefined-- 64.213
0.84 --undefined-- 67.055
0.85 --undefined-- 72.298
0.86 160.163 76.075
0.87 154.035 77.475
0.88 146.618 77.646
0.89 142.466 77.530
0.90 139.034 77.407
0.91 136.555 77.180
0.92 132.854 76.443
0.93 128.855 74.490
0.94 121.813 70.487
0.95 110.186 64.480
0.96 134.949 60.284
0.97 135.778 58.907
0.98 135.439 57.407
0.99 131.302 56.821
1.00 --undefined-- 57.812
1.01 --undefined-- 60.358
1.02 --undefined-- 62.892
1.03 --undefined-- 64.423
1.04 --undefined-- 65.616
1.05 --undefined-- 67.212
1.06 --undefined-- 68.477
1.07 --undefined-- 68.708
1.08 --undefined-- 70.257
1.09 --undefined-- 73.597
1.10 --undefined-- 75.420
1.11 118.968 75.286
1.12 113.965 74.075
1.13 110.065 72.896
1.14 106.139 73.215
1.15 104.598 74.396
1.16 102.504 75.203
1.17 101.150 75.671
1.18 100.650 76.085
1.19 102.377 76.540
1.20 103.276 77.000
1.21 104.623 77.312
1.22 105.026 77.433
1.23 106.924 77.532
1.24 108.665 77.673
1.25 110.462 77.802
1.26 111.443 77.630
1.27 110.358 76.604
1.28 107.565 74.308
1.29 105.223 70.719
1.30 109.983 66.197
1.31 114.006 63.649
1.32 --undefined-- 66.101
1.33 --undefined-- 71.022
1.34 151.796 75.512
1.35 149.647 77.458
1.36 139.281 77.532
1.37 133.020 77.000
1.38 128.871 76.141
1.39 126.346 75.329
1.40 131.321 75.441
1.41 131.945 75.786
1.42 130.214 75.735
1.43 129.974 75.792
1.44 130.342 76.033
1.45 130.659 76.104
1.46 130.802 75.947
1.47 130.822 75.527
1.48 129.543 74.347
1.49 126.259 71.743
1.50 121.424 67.867
1.51 143.877 69.023
1.52 153.967 73.946
1.53 145.391 76.564
1.54 145.519 77.165
1.55 143.298 77.017
1.56 140.260 76.965
1.57 139.997 77.097
1.58 140.116 77.112
1.59 139.338 76.881
1.60 139.092 76.454
1.61 139.516 75.605
1.62 138.828 73.490
1.63 131.651 69.216
1.64 139.792 62.902
1.65 139.900 58.183
1.66 139.268 56.469
1.67 139.104 54.383
1.68 138.843 51.967
1.69 138.942 50.022
1.70 --undefined-- 48.061
1.71 --undefined-- 47.588
1.72 --undefined-- 51.661
1.73 --undefined-- 55.764
1.74 --undefined-- 59.438
1.75 --undefined-- 66.092
1.76 146.669 71.533
1.77 133.047 74.504
1.78 129.818 75.849
1.79 126.333 76.437
1.80 123.383 76.715
1.81 120.919 76.782
1.82 119.055 76.592
1.83 116.955 76.106
1.84 115.323 75.602
1.85 115.164 75.370
1.86 115.032 75.243
1.87 115.950 75.177
1.88 118.532 75.448
1.89 121.311 76.207
1.90 123.648 77.082
1.91 125.269 77.568
1.92 127.444 77.417
1.93 128.367 76.093
1.94 117.177 72.741
1.95 --undefined-- 67.040
1.96 --undefined-- 60.838
1.97 123.286 58.526
1.98 120.716 62.677
1.99 --undefined-- 70.956
2.00 --undefined-- 75.819
2.01 182.381 77.343
2.02 176.757 76.997
2.03 171.389 76.598
2.04 164.356 76.277
2.05 159.117 75.676
2.06 155.815 75.386
2.07 154.049 75.684
2.08 153.190 75.991
2.09 152.355 75.953
2.10 149.537 75.621
2.11 143.739 75.375
2.12 132.768 75.320
2.13 120.728 75.096
2.14 112.541 74.262
2.15 102.264 73.015
2.16 99.208 72.756
2.17 99.702 73.173
2.18 98.341 72.896
2.19 99.905 71.599
2.20 109.362 68.789
2.21 110.502 63.622
2.22 100.146 56.200
2.23 99.312 52.419
2.24 --undefined-- 52.285
2.25 --undefined-- 52.063
2.26 --undefined-- 52.904
2.27 --undefined-- 53.876
2.28 --undefined-- 54.665
2.29 --undefined-- 55.855
2.30 --undefined-- 56.493
2.31 --undefined-- 56.167
2.32 --undefined-- 56.456
2.33 --undefined-- 56.907
2.34 --undefined-- 56.693
2.35 --undefined-- 55.851
2.36 --undefined-- 54.831
2.37 --undefined-- 53.728
2.38 --undefined-- 52.391
2.39 --undefined-- 52.126
2.40 --undefined-- 52.875
2.41 --undefined-- 52.808
2.42 --undefined-- 51.589
2.43 --undefined-- 50.194
2.44 --undefined-- 48.792
2.45 --undefined-- 46.526
2.46 --undefined-- 46.886
2.47 --undefined-- 49.404
2.48 --undefined-- 50.142
2.49 --undefined-- 56.866
2.50 241.594 66.936
2.51 229.780 73.030
2.52 225.260 75.905
2.53 227.765 76.829
2.54 229.767 77.110
2.55 226.903 77.239
2.56 218.711 77.004
2.57 206.647 76.571
2.58 188.967 76.560
2.59 166.260 77.162
2.60 153.719 77.967
2.61 143.108 78.347
2.62 132.445 78.044
2.63 124.350 77.421
2.64 119.905 77.089
2.65 117.646 76.856
2.66 116.700 76.139
2.67 112.352 74.417
2.68 103.802 71.775
2.69 108.308 68.637
2.70 112.846 64.527
2.71 117.574 62.325
2.72 --undefined-- 66.227
2.73 --undefined-- 69.483
2.74 --undefined-- 71.676
2.75 --undefined-- 74.979
2.76 160.098 77.462
2.77 157.656 77.947
2.78 149.784 77.543
2.79 146.078 77.180
2.80 144.312 76.647
2.81 141.391 75.875
2.82 137.736 75.685
2.83 135.252 76.211
2.84 134.853 76.835
2.85 135.025 77.231
2.86 135.936 77.262
2.87 134.255 77.100
2.88 130.804 76.889
2.89 128.426 76.810
2.90 131.393 77.129
2.91 134.605 77.547
2.92 137.981 77.519
2.93 145.234 77.260
2.94 161.763 77.133
2.95 178.291 76.609
2.96 189.446 75.818
2.97 197.620 75.184
2.98 199.713 73.411
2.99 196.719 69.391
3.00 192.428 63.995
3.01 187.434 59.765
3.02 --undefined-- 60.364
3.03 --undefined-- 65.880
3.04 --undefined-- 70.959
3.05 --undefined-- 74.931
3.06 164.878 77.001
3.07 163.784 77.595
3.08 161.592 77.959
3.09 159.932 78.309
3.10 157.754 78.049
3.11 152.920 76.842
3.12 145.763 74.840
3.13 142.292 71.830
3.14 146.065 66.993
3.15 154.974 60.585
3.16 156.858 56.894
3.17 158.893 55.861
3.18 158.406 54.362
3.19 --undefined-- 52.496
3.20 --undefined-- 51.045
3.21 --undefined-- 51.257
3.22 --undefined-- 52.202
3.23 --undefined-- 51.570
3.24 --undefined-- 52.767
3.25 --undefined-- 62.433
3.26 172.832 69.771
3.27 153.655 74.064
3.28 146.093 76.392
3.29 144.808 77.602
3.30 143.798 78.102
3.31 142.942 78.254
3.32 142.247 78.442
3.33 142.783 78.744
3.34 143.334 79.014
3.35 143.160 79.091
3.36 142.093 78.881
3.37 141.202 78.404
3.38 140.967 77.461
3.39 140.991 75.566
3.40 136.961 73.039
3.41 134.207 71.875
3.42 134.707 72.638
3.43 134.790 73.956
3.44 134.792 75.405
3.45 134.348 76.943
3.46 132.814 78.205
3.47 131.715 78.807
3.48 131.082 78.838
3.49 130.205 78.505
3.50 128.430 77.697
3.51 125.293 76.039
3.52 119.880 73.170
3.53 119.633 68.836
3.54 130.017 63.065
3.55 123.655 60.501
3.56 160.472 68.077
3.57 178.226 74.117
3.58 141.190 77.071
3.59 143.618 77.899
3.60 144.263 77.832
3.61 142.711 77.310
3.62 140.267 75.683
3.63 143.883 72.316
3.64 147.869 67.449
3.65 145.070 62.441
3.66 139.091 58.251
3.67 141.986 54.714
3.68 142.591 52.852
3.69 141.538 54.827
3.70 --undefined-- 61.505
3.71 156.676 65.520
3.72 149.414 65.748
3.73 143.255 62.368
3.74 --undefined-- 56.689
3.75 --undefined-- 55.418
3.76 --undefined-- 55.810
3.77 --undefined-- 54.654
3.78 --undefined-- 53.044
3.79 --undefined-- 51.918
3.80 --undefined-- 60.055
3.81 177.380 68.809
3.82 162.084 73.987
3.83 154.360 76.625
3.84 150.224 77.866
3.85 148.058 78.495
3.86 146.843 78.841
3.87 145.717 79.027
3.88 144.986 79.166
3.89 144.094 79.264
3.90 143.296 79.158
3.91 142.542 78.861
3.92 141.908 78.467
3.93 142.050 77.974
3.94 140.751 77.543
3.95 138.117 77.332
3.96 134.480 77.242
3.97 131.846 77.374
3.98 131.502 77.858
3.99 131.697 78.350
4.00 131.881 78.628
4.01 131.268 78.737
4.02 130.711 78.683
4.03 131.077 78.459
4.04 131.097 78.110
4.05 130.663 77.723
4.06 130.849 77.438
4.07 131.177 77.348
4.08 132.513 77.478
4.09 133.586 77.621
4.10 132.818 77.552
4.11 131.597 77.349
4.12 131.628 77.034
4.13 132.147 76.481
4.14 131.260 75.337
4.15 128.342 72.835
4.16 126.606 68.121
4.17 132.407 61.439
4.18 131.190 56.193
4.19 133.353 53.687
4.20 131.251 51.250
4.21 --undefined-- 49.275
4.22 --undefined-- 57.540
4.23 --undefined-- 65.284
4.24 --undefined-- 69.695
4.25 --undefined-- 73.534
4.26 149.610 76.514
4.27 150.665 77.426
4.28 144.135 77.148
4.29 138.982 76.918
4.30 137.377 76.691
4.31 136.181 76.254
4.32 135.004 75.263
4.33 132.126 72.942
4.34 132.372 68.784
4.35 136.516 63.313
4.36 136.712 60.543
4.37 136.420 58.990
4.38 135.908 56.116
4.39 135.609 52.842
4.40 136.812 49.968
4.41 --undefined-- 47.379
4.42 --undefined-- 45.424
4.43 --undefined-- 46.261
4.44 --undefined-- 56.405
4.45 --undefined-- 64.642
4.46 --undefined-- 69.884
4.47 --undefined-- 73.845
4.48 171.067 76.175
4.49 163.421 76.749
4.50 160.084 76.850
4.51 157.797 77.022
4.52 154.460 76.690
4.53 150.443 75.762
4.54 146.194 74.716
4.55 144.577 74.117
4.56 145.614 74.251
4.57 147.787 74.941
4.58 149.196 75.666
4.59 148.794 76.132
4.60 147.925 76.335
4.61 146.166 76.373
4.62 145.236 76.430
4.63 145.416 76.687
4.64 145.821 77.061
4.65 147.532 77.385
4.66 154.290 77.681
4.67 156.502 77.926
4.68 153.591 77.883
4.69 152.664 77.548
4.70 151.335 77.098
4.71 149.896 76.298
4.72 148.413 74.657
4.73 143.492 72.004
4.74 141.827 68.105
4.75 144.316 62.599
4.76 151.429 57.295
4.77 150.093 55.117
4.78 151.491 54.089
4.79 151.910 53.832
4.80 --undefined-- 54.017
4.81 --undefined-- 54.325
4.82 --undefined-- 54.716
4.83 --undefined-- 54.941
4.84 --undefined-- 54.857
4.85 --undefined-- 54.314
4.86 --undefined-- 53.257
4.87 --undefined-- 52.169
4.88 --undefined-- 51.442
4.89 --undefined-- 51.508
4.90 --undefined-- 51.920
4.91 --undefined-- 51.514
4.92 --undefined-- 50.454
4.93 --undefined-- 50.131
4.94 --undefined-- 50.266
4.95 --undefined-- 49.553
4.96 --undefined-- 48.708
4.97 --undefined-- 48.720
4.98 --undefined-- 47.816
4.99 --undefined-- 45.058
5.00 --undefined-- 41.996
5.01 --undefined-- 44.081
5.02 --undefined-- 47.130
5.03 --undefined-- 51.796
5.04 --undefined-- 63.203
5.05 --undefined-- 70.851
5.06 197.500 --undefined--
5.07 196.695 --undefined--
5.08 --undefined-- --undefined--
5.09 --undefined-- --undefined--
