Time Pitch Intensity
0.01 --undefined-- --undefined--
0.02 96.169 --undefined--
0.03 96.464 --undefined--
0.04 101.622 --undefined--
0.05 104.751 72.041
0.06 102.034 72.468
0.07 99.684 72.650
0.08 99.360 72.532
0.09 99.029 72.264
0.10 99.501 71.967
0.11 99.453 71.413
0.12 96.836 69.976
0.13 92.505 67.373
0.14 92.756 64.129
0.15 96.221 60.746
0.16 --undefined-- 59.126
0.17 --undefined-- 60.041
0.18 --undefined-- 64.374
0.19 --undefined-- 69.378
0.20 110.088 72.049
0.21 98.009 72.641
0.22 98.033 72.354
0.23 98.902 72.054
0.24 99.291 71.879
0.25 101.118 71.698
0.26 102.483 71.387
0.27 102.656 70.946
0.28 100.915 70.433
0.29 100.335 70.089
0.30 100.603 70.269
0.31 103.319 71.109
0.32 105.726 72.307
0.33 105.240 73.164
0.34 104.583 73.194
0.35 104.420 72.084
0.36 99.241 69.499
0.37 102.274 65.824
0.38 112.515 62.573
0.39 --undefined-- 59.407
0.40 --undefined-- 55.469
0.41 --undefined-- 52.876
0.42 --undefined-- 56.663
0.43 --undefined-- 65.349
0.44 186.548 72.205
0.45 168.245 76.434
0.46 154.850 78.582
0.47 144.806 79.302
0.48 141.631 79.251
0.49 141.008 78.950
0.50 139.645 78.476
0.51 137.597 77.874
0.52 137.152 77.639
0.53 137.889 78.054
0.54 138.197 78.659
0.55 135.832 79.112
0.56 134.269 79.541
0.57 131.754 79.783
0.58 129.775 79.891
0.59 128.731 79.926
0.60 128.190 79.557
0.61 128.181 78.681
0.62 128.187 77.318
0.63 127.272 75.361
0.64 126.121 72.588
0.65 120.079 68.442
0.66 --undefined-- 62.124
0.67 --undefined-- 53.692
0.68 --undefined-- 50.896
0.69 --undefined-- 50.778
0.70 --undefined-- 49.444
0.71 --undefined-- 49.499
0.72 --undefined-- 50.183
0.73 --undefined-- 50.473
0.74 --undefined-- 50.334
0.75 --undefined-- 50.640
0.76 --undefined-- 51.293
0.77 --undefined-- 50.990
0.78 --undefined-- 50.170
0.79 --undefined-- 49.988
0.80 --undefined-- 49.860
0.81 --undefined-- 49.170
0.82 --undefined-- 48.009
0.83 --undefined-- 47.086
0.84 --undefined-- 46.137
0.85 --undefined-- 44.543
0.86 --undefined-- 43.629
0.87 --undefined-- 50.333
0.88 --undefined-- 58.345
0.89 --undefined-- 62.976
0.90 --undefined-- 64.753
0.91 --undefined-- 65.264
0.92 --undefined-- 65.727
0.93 --undefined-- 66.432
0.94 118.090 67.249
0.95 121.386 68.055
0.96 119.088 68.959
0.97 117.281 70.055
0.98 112.908 71.398
0.99 112.162 72.709
1.00 112.300 73.628
1.01 111.948 73.834
1.02 110.590 72.804
1.03 104.965 70.160
1.04 105.818 66.395
1.05 120.222 61.900
1.06 --undefined-- 56.814
1.07 --undefined-- 56.637
1.08 --undefined-- 62.680
1.09 --undefined-- 68.658
1.10 135.088 72.417
1.11 133.381 74.256
1.12 126.357 74.925
1.13 128.860 75.213
1.14 135.165 75.882
1.15 140.907 76.767
1.16 146.584 77.372
1.17 151.526 77.531
1.18 155.698 77.389
1.19 160.559 77.220
1.20 166.801 76.988
1.21 167.637 76.678
1.22 165.355 76.356
1.23 160.027 76.058
1.24 153.186 75.937
1.25 147.461 75.886
1.26 143.096 75.710
1.27 135.179 75.469
1.28 129.834 75.353
1.29 129.414 75.281
1.30 128.559 74.904
1.31 125.168 74.071
1.32 127.829 73.102
1.33 134.584 72.225
1.34 141.577 71.634
1.35 151.482 71.974
1.36 160.356 73.330
1.37 171.381 74.662
1.38 175.437 75.394
1.39 180.169 75.746
1.40 182.986 75.847
1.41 184.855 75.782
1.42 185.772 75.660
1.43 186.003 75.601
1.44 185.463 75.726
1.45 184.703 75.826
1.46 184.377 75.620
1.47 183.371 75.022
1.48 181.238 74.125
1.49 177.995 72.980
1.50 174.577 71.431
1.51 170.142 69.451
1.52 166.739 67.644
1.53 171.067 68.036
1.54 176.080 70.586
1.55 176.508 73.067
1.56 168.713 74.558
1.57 162.082 74.839
1.58 157.325 74.349
1.59 156.780 73.965
1.60 159.445 73.698
1.61 162.836 72.970
1.62 165.016 71.676
1.63 167.079 70.236
1.64 168.511 69.373
1.65 172.635 69.355
1.66 179.483 70.052
1.67 189.971 71.769
1.68 203.016 74.019
1.69 215.261 75.918
1.70 220.402 77.062
1.71 223.307 77.491
1.72 225.619 77.491
1.73 227.099 77.395
1.74 226.717 77.179
1.75 222.985 76.187
1.76 206.930 73.559
1.77 183.451 68.975
1.78 192.379 63.566
1.79 199.517 58.800
1.80 --undefined-- 53.667
1.81 --undefined-- 53.512
1.82 --undefined-- 58.804
1.83 --undefined-- 63.031
1.84 --undefined-- 67.381
1.85 224.248 73.360
1.86 205.419 77.474
1.87 183.788 79.046
1.88 175.606 79.272
1.89 175.360 79.356
1.90 175.006 79.418
1.91 174.064 79.432
1.92 172.834 79.544
1.93 171.099 79.815
1.94 169.104 80.143
1.95 168.196 80.147
1.96 169.156 79.372
1.97 169.975 77.607
1.98 167.683 74.850
1.99 155.672 71.272
2.00 153.987 67.463
2.01 156.423 63.561
2.02 --undefined-- 60.371
2.03 --undefined-- 63.407
2.04 257.468 70.688
2.05 241.624 76.336
2.06 229.084 79.759
2.07 221.593 81.131
2.08 217.258 80.736
2.09 216.777 79.636
2.10 218.184 78.873
2.11 216.916 78.221
2.12 217.154 77.703
2.13 220.633 77.538
2.14 220.807 77.291
2.15 220.638 76.855
2.16 220.491 76.437
2.17 219.146 76.113
2.18 216.436 75.750
2.19 211.504 74.908
2.20 204.802 73.152
2.21 194.852 70.304
2.22 190.635 66.877
2.23 194.749 64.248
2.24 191.903 66.770
2.25 249.914 73.039
2.26 226.029 77.163
2.27 213.323 79.139
2.28 210.589 80.033
2.29 210.759 80.646
2.30 210.596 80.665
2.31 209.492 79.588
2.32 206.540 78.182
2.33 203.529 77.884
2.34 199.704 78.233
2.35 193.958 78.063
2.36 184.074 77.209
2.37 173.290 76.463
2.38 162.414 76.361
2.39 153.727 76.419
2.40 148.744 76.107
2.41 139.598 75.142
2.42 130.566 73.695
2.43 121.198 72.771
2.44 119.709 72.577
2.45 117.430 72.287
2.46 114.156 71.904
2.47 112.248 71.680
2.48 110.980 71.666
2.49 110.173 71.778
2.50 109.134 71.865
2.51 107.680 71.925
2.52 106.364 72.017
2.53 104.574 72.045
2.54 103.198 71.777
2.55 102.103 70.969
2.56 98.425 69.796
2.57 97.375 69.064
2.58 94.846 68.877
2.59 92.833 68.584
2.60 91.881 68.161
2.61 91.395 67.800
2.62 92.343 67.370
2.63 93.910 66.896
2.64 93.966 66.653
2.65 94.325 66.702
2.66 95.290 67.062
2.67 96.459 67.596
2.68 97.489 67.980
2.69 99.039 68.035
2.70 99.963 67.693
2.71 100.188 66.895
2.72 101.568 65.549
2.73 105.876 63.793
2.74 112.540 62.209
2.75 125.070 63.091
2.76 139.478 67.251
2.77 141.460 70.866
2.78 131.140 72.972
2.79 121.912 74.132
2.80 122.542 74.923
2.81 124.228 75.403
2.82 125.473 75.673
2.83 126.368 76.064
2.84 126.558 76.595
2.85 124.938 76.813
2.86 124.946 76.301
2.87 126.772 75.551
2.88 127.530 75.236
2.89 127.860 74.787
2.90 124.118 73.152
2.91 119.818 69.842
2.92 123.455 65.143
2.93 --undefined-- 60.526
2.94 --undefined-- 59.864
2.95 --undefined-- 60.857
2.96 --undefined-- 60.289
2.97 --undefined-- 60.159
2.98 --undefined-- 66.471
2.99 --undefined-- 72.031
3.00 142.297 74.813
3.01 141.313 75.784
3.02 142.890 75.946
3.03 145.308 75.727
3.04 150.459 75.627
3.05 164.107 76.264
3.06 172.157 76.888
3.07 176.936 77.049
3.08 178.469 77.031
3.09 179.088 76.805
3.10 175.772 75.958
3.11 169.438 73.684
3.12 161.714 69.345
3.13 153.366 63.470
3.14 --undefined-- 57.564
3.15 --undefined-- 51.974
3.16 --undefined-- 47.926
3.17 --undefined-- 47.965
3.18 --undefined-- 51.629
3.19 --undefined-- 58.486
3.20 198.483 67.588
3.21 192.809 73.790
3.22 185.818 76.746
3.23 176.003 77.464
3.24 172.580 77.334
3.25 171.702 77.244
3.26 172.103 77.376
3.27 175.190 77.506
3.28 177.354 77.067
3.29 176.579 75.818
3.30 174.624 74.541
3.31 175.250 74.125
3.32 172.430 74.340
3.33 168.319 74.761
3.34 162.750 75.135
3.35 156.859 75.612
3.36 150.556 76.250
3.37 142.023 76.672
3.38 136.491 76.835
3.39 133.171 77.001
3.40 129.527 77.072
3.41 127.239 76.728
3.42 124.591 75.948
3.43 121.586 74.972
3.44 118.468 74.086
3.45 116.425 73.759
3.46 117.271 74.115
3.47 118.580 74.853
3.48 119.730 75.592
3.49 120.621 76.106
3.50 120.250 76.379
3.51 121.602 76.513
3.52 122.776 76.561
3.53 125.293 76.400
3.54 126.563 75.957
3.55 130.630 75.507
3.56 133.636 75.289
3.57 135.728 74.887
3.58 136.585 73.964
3.59 135.399 72.376
3.60 131.820 69.971
3.61 125.122 66.698
3.62 118.352 63.186
3.63 --undefined-- 64.591
3.64 --undefined-- 70.043
3.65 --undefined-- 74.285
3.66 146.859 76.286
3.67 134.440 76.752
3.68 126.912 76.848
3.69 125.963 77.300
3.70 125.863 77.570
3.71 124.245 77.029
3.72 121.467 75.842
3.73 119.271 74.787
3.74 118.054 74.107
3.75 116.074 73.297
3.76 113.231 72.181
3.77 107.366 71.347
3.78 103.122 70.953
3.79 102.262 70.555
3.80 106.341 70.090
3.81 103.309 69.741
3.82 105.159 69.822
3.83 107.412 70.426
3.84 116.235 71.689
3.85 113.526 73.412
3.86 111.910 75.112
3.87 112.349 76.251
3.88 112.659 75.979
3.89 93.106 73.756
3.90 94.758 69.726
3.91 105.486 64.306
3.92 104.103 57.986
3.93 --undefined-- 54.759
3.94 --undefined-- 55.222
3.95 --undefined-- 54.041
3.96 --undefined-- 50.205
3.97 --undefined-- 48.497
3.98 --undefined-- 52.547
3.99 --undefined-- 56.882
4.00 --undefined-- 61.641
4.01 --undefined-- 68.726
4.02 --undefined-- 74.127
4.03 128.206 76.819
4.04 126.668 77.712
4.05 121.568 77.760
4.06 117.029 77.318
4.07 115.900 76.676
4.08 116.179 75.952
4.09 118.017 75.022
4.10 118.282 73.605
4.11 113.750 71.653
4.12 110.934 69.270
4.13 109.609 66.536
4.14 111.511 63.738
4.15 137.134 65.522
4.16 138.230 70.593
4.17 130.458 74.160
4.18 117.958 76.304
4.19 117.114 77.432
4.20 116.217 77.760
4.21 115.710 77.641
4.22 115.250 77.567
4.23 114.193 77.408
4.24 113.700 76.819
4.25 114.120 76.022
4.26 114.097 75.776
4.27 114.310 76.485
4.28 116.289 77.466
4.29 115.043 77.828
4.30 111.596 77.829
4.31 110.428 78.100
4.32 107.811 78.573
4.33 105.794 79.127
4.34 103.895 79.595
4.35 103.241 79.760
4.36 104.008 79.746
4.37 105.308 79.891
4.38 107.397 80.185
4.39 109.913 80.348
4.40 112.129 80.056
4.41 116.004 79.296
4.42 117.930 78.303
4.43 122.543 77.345
4.44 126.833 76.703
4.45 130.230 76.795
4.46 140.464 77.622
4.47 144.410 78.224
4.48 152.341 78.302
4.49 160.313 78.049
4.50 166.006 77.497
4.51 169.406 76.547
4.52 165.586 75.102
4.53 155.758 72.670
4.54 150.952 68.409
4.55 --undefined-- 61.896
4.56 --undefined-- 53.606
4.57 --undefined-- 47.432
4.58 --undefined-- 45.381
4.59 --undefined-- 45.641
4.60 --undefined-- 45.547
4.61 --undefined-- 45.886
4.62 --undefined-- 46.460
4.63 --undefined-- 46.402
4.64 --undefined-- 46.408
4.65 --undefined-- 46.426
4.66 --undefined-- 45.912
4.67 --undefined-- 45.434
4.68 --undefined-- 44.963
4.69 --undefined-- 44.645
4.70 --undefined-- 44.950
4.71 --undefined-- 45.355
4.72 --undefined-- 45.731
4.73 --undefined-- 46.008
4.74 --undefined-- 45.954
4.75 --undefined-- 45.281
4.76 --undefined-- 44.616
4.77 --undefined-- 44.781
4.78 --undefined-- 44.641
4.79 --undefined-- 43.912
4.80 --undefined-- 42.331
4.81 --undefined-- 42.165
4.82 --undefined-- 45.646
4.83 --undefined-- 47.319
4.84 --undefined-- 46.578
4.85 --undefined-- 46.291
4.86 --undefined-- 47.213
4.87 --undefined-- 47.093
4.88 --undefined-- 45.642
4.89 --undefined-- 43.071
4.90 --undefined-- 40.682
4.91 --undefined-- 42.000
4.92 --undefined-- 45.916
4.93 --undefined-- 52.211
4.94 --undefined-- 57.858
4.95 170.146 62.482
4.96 166.177 65.658
4.97 155.964 67.771
4.98 123.037 70.166
4.99 121.044 72.329
5.00 118.097 73.465
5.01 116.684 73.870
5.02 118.061 74.398
5.03 123.865 74.988
5.04 128.542 75.123
5.05 131.034 75.071
5.06 131.284 75.094
5.07 131.144 75.118
5.08 129.435 75.208
5.09 126.870 75.356
5.10 123.488 75.391
5.11 120.359 75.238
5.12 117.589 75.066
5.13 117.309 74.988
5.14 110.375 74.870
5.15 106.486 74.680
5.16 103.936 74.272
5.17 102.969 73.497
5.18 101.389 72.494
5.19 98.996 71.528
5.20 97.868 70.653
5.21 97.551 70.292
5.22 98.714 70.507
5.23 98.757 70.664
5.24 98.119 70.579
5.25 97.362 70.462
5.26 96.948 --undefined--
5.27 97.716 --undefined--
5.28 --undefined-- --undefined--
5.29 --undefined-- --undefined--
