Time Pitch Intensity
0.01 --undefined-- --undefined--
0.02 143.024 --undefined--
0.03 145.334 --undefined--
0.04 148.008 --undefined--
0.05 150.777 73.438
0.06 153.862 72.867
0.07 156.241 72.123
0.08 157.123 71.079
0.09 154.878 69.404
0.10 149.222 66.686
0.11 103.305 62.950
0.12 80.571 58.968
0.13 --undefined-- 55.328
0.14 --undefined-- 50.487
0.15 --undefined-- 44.179
0.16 --undefined-- 40.948
0.17 --undefined-- 38.851
0.18 --undefined-- 36.378
0.19 --undefined-- 38.023
0.20 --undefined-- 40.156
0.21 --undefined-- 39.593
0.22 --undefined-- 37.773
0.23 --undefined-- 36.350
0.24 --undefined-- 35.881
0.25 --undefined-- 36.208
0.26 --undefined-- 36.893
0.27 --undefined-- 37.373
0.28 --undefined-- 36.729
0.29 --undefined-- 35.512
0.30 --undefined-- 33.273
0.31 --undefined-- 31.652
0.32 --undefined-- 31.993
0.33 --undefined-- 31.921
0.34 --undefined-- 30.670
0.35 --undefined-- 29.052
0.36 --undefined-- 29.832
0.37 --undefined-- 31.910
0.38 --undefined-- 33.739
0.39 --undefined-- 35.138
0.40 --undefined-- 36.797
0.41 --undefined-- 38.197
0.42 --undefined-- 38.284
0.43 --undefined-- 38.198
0.44 --undefined-- 39.169
0.45 --undefined-- 40.635
0.46 --undefined-- 41.702
0.47 --undefined-- 42.226
0.48 --undefined-- 42.565
0.49 --undefined-- 42.361
0.50 --undefined-- 44.019
0.51 --undefined-- 47.974
0.52 --undefined-- 52.485
0.53 --undefined-- 56.616
0.54 --undefined-- 61.756
0.55 229.343 67.856
0.56 227.300 71.670
0.57 211.233 73.352
0.58 208.896 74.211
0.59 209.072 74.932
0.60 209.993 75.280
0.61 210.078 74.959
0.62 209.859 73.895
0.63 206.092 72.532
0.64 204.729 71.764
0.65 203.930 71.342
0.66 203.809 70.796
0.67 203.475 70.179
0.68 201.963 69.678
0.69 197.906 69.216
0.70 190.601 68.400
0.71 180.815 66.803
0.72 170.007 64.041
0.73 158.153 59.682
0.74 --undefined-- 54.720
0.75 --undefined-- 54.537
0.76 --undefined-- 56.528
0.77 --undefined-- 59.044
0.78 --undefined-- 65.358
0.79 --undefined-- 71.933
0.80 167.398 76.061
0.81 154.482 78.217
0.82 147.279 79.247
0.83 144.320 79.445
0.84 140.284 78.753
0.85 137.861 77.623
0.86 136.073 76.416
0.87 133.374 74.599
0.88 132.103 72.368
0.89 132.990 71.145
0.90 132.381 70.785
0.91 132.750 70.471
0.92 133.547 70.035
0.93 133.978 69.506
0.94 134.386 68.913
0.95 134.292 68.155
0.96 133.514 66.884
0.97 130.041 64.591
0.98 123.746 60.959
0.99 --undefined-- 55.987
1.00 --undefined-- 50.457
1.01 --undefined-- 47.809
1.02 --undefined-- 49.102
1.03 --undefined-- 56.420
1.04 166.083 64.875
1.05 164.200 70.385
1.06 146.336 73.204
1.07 132.928 74.282
1.08 127.772 74.660
1.09 126.246 74.966
1.10 126.969 75.125
1.11 128.430 75.029
1.12 129.096 74.993
1.13 124.309 75.085
1.14 124.492 75.302
1.15 125.556 75.600
1.16 126.940 75.425
1.17 129.849 74.670
1.18 129.098 73.407
1.19 127.123 70.976
1.20 115.834 66.818
1.21 111.344 61.186
1.22 --undefined-- 54.692
1.23 --undefined-- 50.487
1.24 --undefined-- 53.462
1.25 --undefined-- 60.849
1.26 --undefined-- 68.242
1.27 138.645 72.716
1.28 126.661 74.708
1.29 121.973 75.321
1.30 117.840 75.413
1.31 115.337 75.269
1.32 113.631 75.032
1.33 112.321 74.719
1.34 112.156 74.272
1.35 112.372 73.356
1.36 110.968 71.565
1.37 107.110 68.591
1.38 102.600 64.154
1.39 100.431 58.233
1.40 --undefined-- 51.743
1.41 --undefined-- 47.471
1.42 --undefined-- 46.776
1.43 --undefined-- 47.977
1.44 --undefined-- 56.458
1.45 --undefined-- 65.346
1.46 144.476 70.738
1.47 130.551 73.311
1.48 126.427 73.775
1.49 119.190 72.411
1.50 107.937 69.222
1.51 106.748 64.830
1.52 --undefined-- 59.450
1.53 --undefined-- 51.916
1.54 --undefined-- 43.298
1.55 --undefined-- 44.207
1.56 --undefined-- 53.831
1.57 147.074 60.983
1.58 134.842 65.529
1.59 125.949 68.489
1.60 127.297 70.706
1.61 122.966 72.382
1.62 119.569 73.321
1.63 117.916 73.809
1.64 118.277 74.144
1.65 118.593 74.368
1.66 119.093 74.542
1.67 119.505 74.718
1.68 120.279 74.925
1.69 119.507 75.175
1.70 119.656 75.406
1.71 119.781 75.325
1.72 120.201 74.765
1.73 120.621 74.030
1.74 120.962 73.460
1.75 120.944 72.946
1.76 120.706 72.226
1.77 120.415 71.076
1.78 119.703 69.076
1.79 --undefined-- 65.720
1.80 --undefined-- 61.170
1.81 --undefined-- 55.067
1.82 --undefined-- 46.503
1.83 --undefined-- 41.665
1.84 --undefined-- 43.254
1.85 --undefined-- 42.600
1.86 --undefined-- 39.222
1.87 --undefined-- 35.612
1.88 --undefined-- 33.532
1.89 --undefined-- 33.165
1.90 --undefined-- 34.353
1.91 --undefined-- 35.805
1.92 --undefined-- 36.172
1.93 --undefined-- 35.098
1.94 --undefined-- 33.118
1.95 --undefined-- 32.181
1.96 --undefined-- 32.774
1.97 --undefined-- 33.358
1.98 --undefined-- 34.146
1.99 --undefined-- 35.109
2.00 --undefined-- 36.676
2.01 --undefined-- 36.743
2.02 --undefined-- 35.174
2.03 --undefined-- 34.010
2.04 --undefined-- 35.804
2.05 --undefined-- 37.957
2.06 --undefined-- 37.643
2.07 --undefined-- 36.232
2.08 --undefined-- 36.725
2.09 --undefined-- 37.566
2.10 --undefined-- 36.558
2.11 --undefined-- 34.504
2.12 --undefined-- 34.305
2.13 --undefined-- 34.993
2.14 --undefined-- 34.798
2.15 --undefined-- 34.683
2.16 --undefined-- 34.789
2.17 --undefined-- 36.122
2.18 --undefined-- 37.159
2.19 --undefined-- 37.582
2.20 --undefined-- 36.970
2.21 --undefined-- 34.431
2.22 --undefined-- 32.280
2.23 --undefined-- 32.750
2.24 --undefined-- 34.611
2.25 --undefined-- 35.739
2.26 --undefined-- 36.016
2.27 --undefined-- 36.340
2.28 --undefined-- 36.429
2.29 --undefined-- 36.224
2.30 --undefined-- 36.397
2.31 --undefined-- 36.942
2.32 --undefined-- 37.476
2.33 --undefined-- 38.504
2.34 --undefined-- 39.268
2.35 --undefined-- 38.756
2.36 --undefined-- 37.588
2.37 --undefined-- 36.179
2.38 --undefined-- 35.097
2.39 --undefined-- 35.167
2.40 --undefined-- 35.878
2.41 --undefined-- 35.718
2.42 --undefined-- 34.819
2.43 --undefined-- 35.216
2.44 --undefined-- 35.956
2.45 --undefined-- 36.333
2.46 --undefined-- 36.634
2.47 --undefined-- 36.523
2.48 --undefined-- 38.301
2.49 --undefined-- 41.319
2.50 --undefined-- 42.883
2.51 --undefined-- 41.284
2.52 --undefined-- 36.862
2.53 --undefined-- 34.221
2.54 --undefined-- 39.002
2.55 --undefined-- 51.653
2.56 --undefined-- 60.251
2.57 186.589 66.734
2.58 190.235 73.211
2.59 194.991 78.306
2.60 197.886 81.301
2.61 200.785 82.651
2.62 205.100 82.870
2.63 211.478 82.195
2.64 218.733 80.998
2.65 223.361 79.844
2.66 227.464 78.918
2.67 230.345 78.085
2.68 231.243 77.233
2.69 231.920 76.417
2.70 232.725 75.491
2.71 232.976 74.139
2.72 230.351 72.266
2.73 219.950 69.832
2.74 207.460 66.886
2.75 --undefined-- 63.914
2.76 --undefined-- 61.115
2.77 --undefined-- 57.408
2.78 --undefined-- 52.875
2.79 --undefined-- 47.626
2.80 --undefined-- 40.858
2.81 --undefined-- 37.200
2.82 --undefined-- 46.145
2.83 --undefined-- 56.740
2.84 116.330 63.480
2.85 122.969 67.610
2.86 129.983 69.991
2.87 126.902 71.289
2.88 126.315 72.060
2.89 127.739 72.545
2.90 129.517 72.907
2.91 132.059 73.348
2.92 135.390 73.907
2.93 139.286 74.447
2.94 142.835 74.894
2.95 145.303 75.178
2.96 147.265 75.167
2.97 149.445 74.848
2.98 150.739 74.309
2.99 151.478 73.513
3.00 150.799 71.975
3.01 145.482 69.005
3.02 133.360 64.452
3.03 --undefined-- 61.802
3.04 --undefined-- 66.733
3.05 --undefined-- 72.343
3.06 164.252 76.334
3.07 155.102 78.651
3.08 150.248 79.965
3.09 149.473 80.785
3.10 148.924 81.222
3.11 148.198 81.217
3.12 147.079 80.470
3.13 146.430 79.195
3.14 144.228 77.809
3.15 144.627 75.713
3.16 144.179 72.285
3.17 142.202 68.022
3.18 135.684 64.492
3.19 128.034 62.364
3.20 125.076 62.002
3.21 123.326 63.334
3.22 122.109 65.614
3.23 122.896 68.281
3.24 123.291 70.774
3.25 120.426 72.686
3.26 121.712 73.681
3.27 122.021 73.033
3.28 114.887 69.945
3.29 93.732 64.134
3.30 --undefined-- 56.673
3.31 --undefined-- 50.342
3.32 --undefined-- 46.221
3.33 --undefined-- 44.774
3.34 --undefined-- 44.134
3.35 --undefined-- 41.937
3.36 --undefined-- 44.212
3.37 --undefined-- 55.133
3.38 --undefined-- 61.806
3.39 --undefined-- 65.063
3.40 --undefined-- 68.525
3.41 148.396 72.438
3.42 142.727 74.839
3.43 132.542 75.903
3.44 130.928 76.295
3.45 129.892 76.229
3.46 129.065 75.695
3.47 128.401 74.930
3.48 127.720 74.257
3.49 121.690 73.596
3.50 121.562 72.391
3.51 120.763 69.799
3.52 112.152 65.258
3.53 104.705 59.751
3.54 104.765 59.193
3.55 139.853 65.304
3.56 140.401 70.885
3.57 142.029 74.356
3.58 142.107 75.897
3.59 135.042 76.193
3.60 132.780 76.264
3.61 132.060 76.082
3.62 130.788 74.637
3.63 126.537 71.097
3.64 119.554 65.397
3.65 112.330 59.042
3.66 --undefined-- 52.608
3.67 --undefined-- 46.370
3.68 --undefined-- 45.358
3.69 --undefined-- 47.578
3.70 --undefined-- 55.503
3.71 --undefined-- 65.457
3.72 201.335 72.068
3.73 178.727 75.604
3.74 170.388 76.888
3.75 165.036 76.423
3.76 160.904 74.862
3.77 161.894 74.081
3.78 162.263 74.525
3.79 161.597 75.062
3.80 161.169 75.389
3.81 160.311 75.440
3.82 158.852 75.093
3.83 156.381 74.177
3.84 153.256 72.718
3.85 149.038 70.716
3.86 145.026 67.811
3.87 140.958 63.505
3.88 --undefined-- 58.506
3.89 --undefined-- 61.818
3.90 186.124 68.908
3.91 163.597 73.283
3.92 148.724 75.198
3.93 129.495 75.589
3.94 120.496 75.352
3.95 114.852 74.778
3.96 111.570 73.794
3.97 111.771 72.777
3.98 112.968 72.234
3.99 117.756 72.166
4.00 119.399 72.135
4.01 122.068 71.806
4.02 126.485 71.367
4.03 127.488 70.807
4.04 127.351 69.752
4.05 126.564 67.662
4.06 125.283 64.066
4.07 123.784 59.393
4.08 --undefined-- 57.727
4.09 --undefined-- 62.848
4.10 171.814 69.237
4.11 160.905 73.008
4.12 150.818 74.225
4.13 143.895 73.729
4.14 141.122 72.548
4.15 144.202 71.825
4.16 148.048 71.911
4.17 148.231 72.124
4.18 147.660 72.185
4.19 146.876 72.069
4.20 145.595 71.730
4.21 143.301 71.263
4.22 140.786 70.290
4.23 137.001 67.724
4.24 131.428 62.717
4.25 --undefined-- 55.149
4.26 --undefined-- 47.449
4.27 --undefined-- 49.594
4.28 --undefined-- 61.108
4.29 195.504 69.529
4.30 189.548 74.285
4.31 161.080 76.618
4.32 154.964 77.422
4.33 150.563 77.461
4.34 148.858 77.337
4.35 147.597 77.332
4.36 146.814 77.251
4.37 145.895 76.561
4.38 144.127 74.688
4.39 143.902 72.254
4.40 145.572 71.038
4.41 147.000 70.417
4.42 148.692 69.663
4.43 148.604 68.590
4.44 145.636 67.129
4.45 143.760 64.975
4.46 --undefined-- 61.412
4.47 --undefined-- 56.008
4.48 --undefined-- 50.605
4.49 --undefined-- 48.600
4.50 --undefined-- 45.482
4.51 --undefined-- 39.846
4.52 --undefined-- 37.360
4.53 --undefined-- 38.184
4.54 --undefined-- 39.775
4.55 --undefined-- 40.736
4.56 --undefined-- 40.507
4.57 --undefined-- 39.296
4.58 --undefined-- 38.070
4.59 --undefined-- 37.928
4.60 --undefined-- 38.513
4.61 --undefined-- 38.231
4.62 --undefined-- 37.277
4.63 --undefined-- 37.083
4.64 --undefined-- 36.937
4.65 --undefined-- 37.055
4.66 --undefined-- 37.563
4.67 --undefined-- 37.369
4.68 --undefined-- 37.070
4.69 --undefined-- 37.227
4.70 --undefined-- 37.178
4.71 --undefined-- 37.877
4.72 --undefined-- 39.998
4.73 --undefined-- 41.143
4.74 --undefined-- 42.396
4.75 --undefined-- 44.237
4.76 --undefined-- 46.731
4.77 --undefined-- 49.660
4.78 --undefined-- 54.526
4.79 --undefined-- 63.432
4.80 180.052 70.524
4.81 178.789 75.027
4.82 175.993 77.186
4.83 170.027 77.741
4.84 161.084 77.438
4.85 157.599 76.611
4.86 155.949 75.232
4.87 153.261 73.672
4.88 151.700 72.761
4.89 150.338 72.507
4.90 148.321 72.517
4.91 147.931 73.095
4.92 146.807 74.030
4.93 145.595 74.750
4.94 143.384 75.244
4.95 139.885 75.696
4.96 135.254 76.174
4.97 131.999 76.447
4.98 129.812 76.096
4.99 125.889 75.036
5.00 126.281 73.774
5.01 124.399 72.963
5.02 123.023 72.540
5.03 118.920 72.300
5.04 116.891 72.361
5.05 117.418 72.746
5.06 115.563 73.275
5.07 114.786 73.557
5.08 113.866 73.358
5.09 111.951 72.462
5.10 108.360 71.355
5.11 105.916 70.834
5.12 104.191 70.431
5.13 100.900 69.958
5.14 98.778 69.579
5.15 98.647 69.394
5.16 99.784 69.523
5.17 101.186 69.860
5.18 102.564 70.003
5.19 102.665 69.829
5.20 103.127 69.718
5.21 103.212 69.639
5.22 103.391 69.382
5.23 102.525 68.576
5.24 100.899 66.756
5.25 99.217 63.839
5.26 96.168 59.840
5.27 --undefined-- 54.581
5.28 --undefined-- 48.551
5.29 --undefined-- 45.066
5.30 --undefined-- 44.219
5.31 --undefined-- 43.798
5.32 --undefined-- 43.133
5.33 --undefined-- 42.807
5.34 --undefined-- 43.995
5.35 --undefined-- 51.962
5.36 --undefined-- 63.780
5.37 219.091 71.475
5.38 197.816 75.506
5.39 187.040 77.065
5.40 184.426 77.280
5.41 184.106 77.245
5.42 183.476 77.728
5.43 181.937 78.859
5.44 179.166 79.782
5.45 177.809 79.864
5.46 178.538 78.998
5.47 180.441 77.570
5.48 180.784 76.323
5.49 181.210 75.204
5.50 178.995 73.122
5.51 170.547 70.187
5.52 173.494 68.832
5.53 172.947 69.123
5.54 168.399 69.628
5.55 161.113 70.280
5.56 153.889 72.062
5.57 153.505 75.072
5.58 132.844 77.346
5.59 129.837 78.119
5.60 121.762 77.845
5.61 116.050 76.817
5.62 111.674 75.258
5.63 108.416 73.686
5.64 104.106 72.332
5.65 101.099 71.415
5.66 102.694 71.032
5.67 105.665 71.213
5.68 107.430 71.661
5.69 109.663 72.071
5.70 111.802 72.338
5.71 112.135 72.105
5.72 115.234 71.536
5.73 118.025 71.344
5.74 118.119 71.769
5.75 121.739 72.999
5.76 121.639 74.227
5.77 118.131 74.487
5.78 117.676 74.347
5.79 113.754 74.226
5.80 112.953 73.708
5.81 116.358 73.051
5.82 115.280 72.425
5.83 115.204 70.877
5.84 113.480 67.567
5.85 101.572 62.250
5.86 --undefined-- 56.879
5.87 --undefined-- 56.850
5.88 133.030 63.191
5.89 135.793 68.831
5.90 136.426 72.232
5.91 132.272 74.226
5.92 129.728 75.418
5.93 128.274 75.834
5.94 127.564 75.461
5.95 125.918 74.181
5.96 120.209 71.498
5.97 113.226 66.932
5.98 112.750 61.052
5.99 --undefined-- 54.662
6.00 --undefined-- 48.027
6.01 --undefined-- 43.119
6.02 --undefined-- 40.945
6.03 --undefined-- 40.030
6.04 --undefined-- 39.576
6.05 --undefined-- 39.970
6.06 --undefined-- 48.650
6.07 --undefined-- 57.879
6.08 --undefined-- 65.082
6.09 180.305 70.299
6.10 172.738 73.429
6.11 167.879 74.709
6.12 166.279 74.768
6.13 165.244 74.106
6.14 169.578 73.685
6.15 171.440 73.830
6.16 171.328 73.870
6.17 169.393 73.638
6.18 167.551 73.315
6.19 162.574 72.958
6.20 158.004 72.090
6.21 154.613 70.366
6.22 145.656 67.955
6.23 139.942 66.411
6.24 139.416 67.510
6.25 138.854 70.012
6.26 139.323 71.895
6.27 133.414 72.731
6.28 127.340 73.251
6.29 123.627 73.090
6.30 110.807 --undefined--
6.31 110.897 --undefined--
6.32 --undefined-- --undefined--
6.33 --undefined-- --undefined--
