Time Pitch Intensity
0.01 --undefined-- --undefined--
0.02 --undefined-- --undefined--
0.03 --undefined-- --undefined--
0.04 --undefined-- --undefined--
0.05 --undefined-- 54.089
0.06 --undefined-- 53.118
0.07 --undefined-- 51.454
0.08 --undefined-- 50.937
0.09 --undefined-- 50.373
0.10 --undefined-- 49.630
0.11 --undefined-- 51.136
0.12 --undefined-- 56.702
0.13 213.794 61.437
0.14 212.984 64.633
0.15 216.072 67.440
0.16 217.885 69.829
0.17 217.833 71.060
0.18 220.508 70.955
0.19 234.179 70.215
0.20 262.716 69.547
0.21 259.301 68.758
0.22 255.835 68.784
0.23 264.865 70.012
0.24 152.791 71.062
0.25 161.950 71.303
0.26 172.081 70.974
0.27 184.635 71.235
0.28 195.696 72.122
0.29 206.271 72.151
0.30 207.953 70.885
0.31 198.076 68.309
0.32 185.983 63.863
0.33 190.769 57.715
0.34 --undefined-- 52.313
0.35 --undefined-- 49.390
0.36 --undefined-- 49.678
0.37 --undefined-- 51.760
0.38 --undefined-- 53.448
0.39 --undefined-- 58.354
0.40 176.580 64.742
0.41 180.625 69.177
0.42 180.266 71.528
0.43 173.411 71.997
0.44 167.249 71.247
0.45 160.950 70.787
0.46 158.095 70.901
0.47 155.303 70.614
0.48 153.979 70.028
0.49 154.409 70.132
0.50 155.085 70.643
0.51 154.883 70.822
0.52 153.451 70.551
0.53 150.592 69.492
0.54 292.198 66.954
0.55 284.079 62.447
0.56 284.512 56.255
0.57 --undefined-- 51.765
0.58 --undefined-- 51.251
0.59 --undefined-- 50.686
0.60 --undefined-- 49.188
0.61 --undefined-- 49.396
0.62 --undefined-- 54.050
0.63 --undefined-- 58.658
0.64 --undefined-- 62.609
0.65 179.554 66.928
0.66 176.540 69.913
0.67 177.217 70.659
0.68 176.990 70.069
0.69 177.310 69.714
0.70 179.431 69.993
0.71 182.005 70.221
0.72 186.139 70.115
0.73 189.741 69.952
0.74 192.588 69.864
0.75 194.149 69.691
0.76 192.628 69.298
0.77 189.462 67.899
0.78 188.529 64.401
0.79 193.143 58.686
0.80 193.703 54.158
0.81 --undefined-- 55.421
0.82 --undefined-- 60.931
0.83 291.360 66.021
0.84 270.840 69.488
0.85 259.413 71.701
0.86 248.611 72.996
0.87 238.156 73.564
0.88 231.203 73.336
0.89 222.959 72.075
0.90 217.486 70.005
0.91 211.269 67.997
0.92 205.345 67.158
0.93 201.238 67.119
0.94 198.363 67.301
0.95 196.472 67.524
0.96 193.875 67.938
0.97 193.197 68.991
0.98 190.501 70.519
0.99 186.835 71.345
1.00 181.388 71.232
1.01 178.003 71.210
1.02 177.013 71.364
1.03 176.080 71.302
1.04 175.604 71.305
1.05 175.695 71.377
1.06 175.946 71.306
1.07 176.036 71.010
1.08 176.757 70.475
1.09 177.092 69.428
1.10 178.682 67.960
1.11 181.002 67.229
1.12 183.635 67.346
1.13 187.298 67.567
1.14 190.051 67.611
1.15 189.791 66.570
1.16 187.869 63.400
1.17 190.828 58.028
1.18 --undefined-- 54.562
1.19 --undefined-- 56.719
1.20 --undefined-- 61.360
1.21 190.389 64.902
1.22 183.906 66.645
1.23 179.609 67.432
1.24 180.006 67.958
1.25 180.827 68.345
1.26 182.710 68.447
1.27 186.421 68.409
1.28 189.959 68.381
1.29 195.486 67.954
1.30 200.317 66.740
1.31 208.539 65.605
1.32 222.865 66.223
1.33 233.417 67.928
1.34 248.275 70.181
1.35 261.229 72.263
1.36 267.999 72.779
1.37 279.415 71.524
1.38 292.263 69.694
1.39 152.229 68.145
1.40 151.601 66.377
1.41 292.478 63.344
1.42 284.916 58.174
1.43 --undefined-- 51.321
1.44 --undefined-- 47.557
1.45 --undefined-- 49.961
1.46 --undefined-- 53.294
1.47 --undefined-- 56.151
1.48 --undefined-- 59.520
1.49 212.952 62.102
1.50 198.796 63.501
1.51 188.790 64.552
1.52 182.736 65.234
1.53 180.487 65.116
1.54 179.610 64.598
1.55 177.525 64.258
1.56 175.148 64.011
1.57 173.091 63.897
1.58 172.655 64.169
1.59 172.170 64.420
1.60 167.246 64.434
1.61 161.913 65.071
1.62 162.263 65.833
1.63 165.310 65.561
1.64 171.672 64.310
1.65 179.226 63.029
1.66 181.013 61.839
1.67 180.313 59.836
1.68 178.829 56.566
1.69 --undefined-- 52.668
1.70 --undefined-- 51.223
1.71 --undefined-- 51.496
1.72 --undefined-- 49.903
1.73 --undefined-- 47.043
1.74 --undefined-- 45.848
1.75 --undefined-- 45.985
1.76 --undefined-- 45.941
1.77 --undefined-- 47.147
1.78 --undefined-- 47.963
1.79 --undefined-- 48.224
1.80 --undefined-- 51.220
1.81 --undefined-- 56.467
1.82 296.129 62.023
1.83 287.764 65.572
1.84 288.509 67.243
1.85 292.405 67.960
1.86 295.841 68.269
1.87 298.264 68.363
1.88 299.584 68.346
1.89 150.519 68.303
1.90 151.553 68.229
1.91 153.031 68.199
1.92 153.641 68.215
1.93 153.942 68.197
1.94 153.500 68.271
1.95 151.108 68.888
1.96 150.799 69.912
1.97 150.239 70.441
1.98 298.867 70.225
1.99 296.977 69.472
2.00 291.941 68.217
2.01 285.040 65.968
2.02 277.557 61.928
2.03 269.663 55.496
2.04 --undefined-- 50.468
2.05 --undefined-- 55.606
2.06 --undefined-- 61.627
2.07 209.461 65.508
2.08 192.384 67.992
2.09 185.101 69.407
2.10 181.442 69.620
2.11 182.190 68.705
2.12 185.020 66.759
2.13 188.328 64.283
2.14 188.607 61.918
2.15 186.727 58.872
2.16 --undefined-- 54.387
2.17 --undefined-- 49.771
2.18 --undefined-- 46.750
2.19 --undefined-- 46.150
2.20 --undefined-- 47.364
2.21 --undefined-- 48.840
2.22 --undefined-- 49.385
2.23 --undefined-- 47.872
2.24 --undefined-- 48.470
2.25 --undefined-- 53.684
2.26 --undefined-- 58.543
2.27 191.141 61.809
2.28 177.634 63.701
2.29 171.069 64.284
2.30 169.798 63.818
2.31 171.387 63.312
2.32 176.592 63.753
2.33 177.561 64.382
2.34 176.299 64.437
2.35 175.956 63.929
2.36 175.095 62.702
2.37 173.425 60.437
2.38 164.309 56.834
2.39 --undefined-- 52.208
2.40 --undefined-- 48.576
2.41 --undefined-- 47.388
2.42 --undefined-- 52.830
2.43 204.507 59.237
2.44 192.600 63.341
2.45 185.727 65.496
2.46 179.529 66.221
2.47 174.276 66.186
2.48 173.010 66.057
2.49 174.818 66.052
2.50 175.782 66.130
2.51 176.610 66.077
2.52 178.957 65.750
2.53 181.047 65.358
2.54 183.972 64.947
2.55 184.857 63.904
2.56 181.209 61.204
2.57 183.484 56.334
2.58 --undefined-- 51.455
2.59 --undefined-- 49.964
2.60 --undefined-- 49.245
2.61 --undefined-- 49.507
2.62 --undefined-- 52.819
2.63 --undefined-- 54.996
2.64 --undefined-- 54.770
2.65 --undefined-- 53.239
2.66 --undefined-- 53.257
2.67 266.119 57.881
2.68 266.153 62.384
2.69 272.603 65.146
2.70 270.046 66.513
2.71 269.498 66.117
2.72 266.500 63.252
2.73 263.421 57.922
2.74 267.915 51.721
2.75 --undefined-- 46.610
2.76 --undefined-- 46.726
2.77 --undefined-- 49.573
2.78 --undefined-- 51.533
2.79 --undefined-- 51.769
2.80 --undefined-- 49.865
2.81 --undefined-- 47.050
2.82 --undefined-- 46.861
2.83 --undefined-- 50.626
2.84 --undefined-- 52.812
2.85 --undefined-- 56.470
2.86 --undefined-- 62.278
2.87 182.126 65.734
2.88 171.779 66.815
2.89 165.202 66.542
2.90 167.205 66.041
2.91 166.864 65.400
2.92 166.336 64.704
2.93 167.381 64.614
2.94 168.158 64.747
2.95 170.144 64.487
2.96 171.545 63.405
2.97 171.054 60.870
2.98 161.468 56.933
2.99 166.932 53.324
3.00 --undefined-- 51.797
3.01 --undefined-- 51.192
3.02 --undefined-- 50.911
3.03 --undefined-- 55.540
3.04 249.342 61.823
3.05 242.057 65.446
3.06 239.705 66.760
3.07 239.508 66.631
3.08 239.854 65.368
3.09 238.863 62.621
3.10 236.275 57.798
3.11 --undefined-- 50.819
3.12 --undefined-- 46.046
3.13 --undefined-- 48.190
3.14 --undefined-- 51.696
3.15 --undefined-- 52.926
3.16 --undefined-- 50.861
3.17 --undefined-- 47.332
3.18 --undefined-- 46.671
3.19 --undefined-- 46.240
3.20 --undefined-- 46.220
3.21 --undefined-- 47.754
3.22 --undefined-- 49.532
3.23 --undefined-- 50.806
3.24 --undefined-- 52.787
3.25 --undefined-- 55.377
3.26 --undefined-- 61.097
3.27 250.957 67.033
3.28 252.291 70.623
3.29 251.224 71.725
3.30 251.584 70.844
3.31 255.281 68.945
3.32 257.869 67.164
3.33 258.773 66.221
3.34 258.664 66.002
3.35 258.072 65.990
3.36 257.794 65.914
3.37 257.032 65.749
3.38 256.040 65.500
3.39 255.255 65.299
3.40 255.200 65.118
3.41 254.983 64.908
3.42 255.143 64.600
3.43 254.247 64.192
3.44 252.476 64.086
3.45 250.416 64.157
3.46 245.882 63.955
3.47 239.289 63.457
3.48 230.307 62.301
3.49 215.897 60.052
3.50 189.662 57.899
3.51 177.862 59.043
3.52 178.525 62.761
3.53 178.018 65.590
3.54 167.002 66.293
3.55 166.200 65.906
3.56 159.546 65.995
3.57 160.054 66.050
3.58 161.606 65.959
3.59 163.633 66.390
3.60 169.044 67.545
3.61 177.104 68.893
3.62 183.879 69.518
3.63 196.011 68.902
3.64 216.819 67.920
3.65 225.887 68.059
3.66 235.801 68.410
3.67 238.403 68.129
3.68 250.781 67.739
3.69 258.173 67.174
3.70 256.526 65.949
3.71 249.053 64.111
3.72 239.943 61.930
3.73 237.396 58.989
3.74 243.789 55.371
3.75 --undefined-- 54.749
3.76 --undefined-- 55.085
3.77 --undefined-- 52.619
3.78 --undefined-- 47.791
3.79 --undefined-- 46.138
3.80 --undefined-- 50.406
3.81 --undefined-- 55.092
3.82 --undefined-- 57.979
3.83 --undefined-- 58.665
3.84 --undefined-- 57.099
3.85 --undefined-- 54.756
3.86 --undefined-- 53.080
3.87 --undefined-- 53.882
3.88 --undefined-- 56.288
3.89 --undefined-- 56.917
3.90 --undefined-- 55.677
3.91 --undefined-- 52.680
3.92 --undefined-- 50.537
3.93 --undefined-- 51.975
3.94 --undefined-- 52.622
3.95 --undefined-- 51.378
3.96 --undefined-- 50.443
3.97 --undefined-- 50.915
3.98 --undefined-- 49.920
3.99 --undefined-- 48.362
4.00 --undefined-- 50.730
4.01 --undefined-- 52.383
4.02 --undefined-- 56.160
4.03 --undefined-- 64.332
4.04 147.248 69.231
4.05 148.247 71.391
4.06 149.832 72.091
4.07 151.051 72.214
4.08 152.853 71.800
4.09 154.998 70.910
4.10 157.550 70.184
4.11 160.457 70.056
4.12 162.627 69.786
4.13 161.782 68.356
4.14 157.755 64.908
4.15 --undefined-- 59.366
4.16 --undefined-- 54.213
4.17 --undefined-- 53.397
4.18 --undefined-- 55.909
4.19 --undefined-- 61.676
4.20 297.553 66.013
4.21 269.212 68.214
4.22 248.131 69.560
4.23 236.270 70.424
4.24 229.807 69.939
4.25 228.090 67.366
4.26 225.383 62.738
4.27 208.436 57.398
4.28 --undefined-- 52.891
4.29 --undefined-- 51.168
4.30 --undefined-- 50.651
4.31 --undefined-- 50.397
4.32 --undefined-- 54.077
4.33 --undefined-- 57.139
4.34 --undefined-- 58.608
4.35 --undefined-- 59.626
4.36 --undefined-- 60.174
4.37 294.452 62.593
4.38 289.387 66.162
4.39 287.667 68.573
4.40 289.198 69.640
4.41 286.687 69.678
4.42 283.815 69.246
4.43 283.218 69.053
4.44 283.839 68.894
4.45 286.276 68.261
4.46 291.481 67.607
4.47 295.898 67.526
4.48 150.491 67.826
4.49 153.518 68.244
4.50 155.480 68.731
4.51 156.165 69.126
4.52 155.121 69.405
4.53 152.883 69.673
4.54 150.531 69.299
4.55 295.800 67.304
4.56 291.082 62.794
4.57 --undefined-- 56.471
4.58 --undefined-- 58.451
4.59 154.670 63.980
4.60 --undefined-- 67.159
4.61 294.978 68.234
4.62 291.833 68.538
4.63 289.384 69.000
4.64 287.708 69.410
4.65 287.314 69.458
4.66 287.966 69.275
4.67 289.075 69.056
4.68 289.990 68.942
4.69 289.960 68.804
4.70 289.464 68.433
4.71 289.082 67.975
4.72 287.078 67.558
4.73 283.148 66.788
4.74 277.312 64.897
4.75 271.548 61.261
4.76 279.178 55.963
4.77 --undefined-- 50.676
4.78 --undefined-- 50.181
4.79 --undefined-- 56.507
4.80 257.508 62.286
4.81 239.211 65.460
4.82 223.499 66.521
4.83 212.886 66.741
4.84 206.054 66.938
4.85 201.967 67.207
4.86 199.137 67.620
4.87 197.686 67.972
4.88 197.553 68.136
4.89 198.933 68.122
4.90 200.816 67.698
4.91 203.567 67.055
4.92 207.589 66.582
4.93 211.460 66.426
4.94 215.915 66.759
4.95 219.853 --undefined--
4.96 221.734 --undefined--
4.97 --undefined-- --undefined--
4.98 --undefined-- --undefined--
