Time Pitch Intensity
0.01 --undefined-- --undefined--
0.02 188.373 --undefined--
0.03 193.927 --undefined--
0.04 198.364 --undefined--
0.05 200.991 67.315
0.06 204.300 65.777
0.07 206.838 65.201
0.08 208.285 65.022
0.09 208.472 64.759
0.10 207.400 64.169
0.11 205.795 63.313
0.12 201.257 62.436
0.13 195.975 62.145
0.14 190.362 62.890
0.15 184.473 64.128
0.16 182.502 65.358
0.17 176.157 66.551
0.18 172.799 67.581
0.19 169.061 68.238
0.20 165.603 68.600
0.21 162.335 68.657
0.22 161.127 68.423
0.23 161.404 68.171
0.24 161.747 67.696
0.25 161.549 66.850
0.26 160.368 66.251
0.27 159.205 66.088
0.28 157.464 65.758
0.29 156.391 65.011
0.30 156.069 64.168
0.31 156.656 63.783
0.32 159.531 63.655
0.33 161.217 63.393
0.34 162.524 62.986
0.35 164.568 62.580
0.36 165.274 62.397
0.37 164.863 62.362
0.38 163.539 61.869
0.39 159.872 60.748
0.40 155.463 60.274
0.41 155.546 61.052
0.42 157.056 62.273
0.43 158.859 63.744
0.44 158.978 65.581
0.45 159.351 67.306
0.46 158.930 67.956
0.47 156.924 67.547
0.48 155.793 67.200
0.49 155.182 67.500
0.50 154.658 68.051
0.51 154.147 68.350
0.52 153.786 68.152
0.53 153.935 67.622
0.54 154.131 66.914
0.55 153.843 66.097
0.56 155.029 65.224
0.57 157.402 64.280
0.58 157.729 63.259
0.59 158.094 62.411
0.60 159.803 62.015
0.61 161.874 62.175
0.62 163.215 63.063
0.63 166.112 63.722
0.64 169.003 63.278
0.65 172.108 63.247
0.66 174.448 64.286
0.67 176.959 64.333
0.68 179.130 62.684
0.69 180.982 59.195
0.70 181.060 53.860
0.71 --undefined-- 51.886
0.72 --undefined-- 56.807
0.73 --undefined-- 60.495
0.74 232.842 63.750
0.75 227.916 66.145
0.76 225.337 67.152
0.77 225.912 67.437
0.78 229.863 67.719
0.79 233.996 68.119
0.80 237.753 68.498
0.81 240.313 68.841
0.82 241.897 69.091
0.83 243.319 69.167
0.84 245.665 69.036
0.85 249.582 68.788
0.86 251.735 68.713
0.87 252.963 68.918
0.88 255.257 69.253
0.89 255.889 69.585
0.90 256.042 69.641
0.91 255.316 69.292
0.92 252.136 68.606
0.93 245.545 67.708
0.94 237.815 66.700
0.95 229.210 65.991
0.96 216.683 65.930
0.97 204.796 66.339
0.98 191.841 66.926
0.99 181.445 67.157
1.00 173.331 66.690
1.01 164.186 65.624
1.02 157.767 64.224
1.03 156.692 63.031
1.04 154.419 62.434
1.05 152.861 62.091
1.06 152.976 61.806
1.07 153.968 61.817
1.08 154.491 62.431
1.09 155.047 62.719
1.10 156.009 62.476
1.11 156.385 62.372
1.12 158.577 62.057
1.13 162.253 61.400
1.14 163.151 60.990
1.15 164.544 60.809
1.16 164.043 60.660
1.17 162.373 60.845
1.18 160.829 61.754
1.19 160.619 63.313
1.20 162.618 64.824
1.21 164.168 66.117
1.22 162.917 67.794
1.23 163.541 69.880
1.24 163.955 71.550
1.25 163.676 72.404
1.26 164.319 72.850
1.27 166.528 73.575
1.28 168.242 74.454
1.29 170.912 74.874
1.30 175.168 74.609
1.31 179.299 74.046
1.32 183.008 73.799
1.33 187.461 73.803
1.34 190.942 73.906
1.35 192.314 74.264
1.36 192.124 74.519
1.37 190.220 74.462
1.38 186.392 74.139
1.39 182.648 73.578
1.40 177.212 72.955
1.41 171.238 72.718
1.42 164.863 72.719
1.43 157.065 72.236
1.44 154.354 70.846
1.45 149.222 68.344
1.46 148.075 64.896
1.47 --undefined-- 61.845
1.48 --undefined-- 59.811
1.49 --undefined-- 57.204
1.50 --undefined-- 54.942
1.51 --undefined-- 54.984
1.52 --undefined-- 55.586
1.53 --undefined-- 55.771
1.54 --undefined-- 54.809
1.55 --undefined-- 53.544
1.56 --undefined-- 52.838
1.57 --undefined-- 53.257
1.58 282.998 56.907
1.59 285.097 59.680
1.60 --undefined-- 59.858
1.61 282.937 58.339
1.62 285.126 57.041
1.63 --undefined-- 56.207
1.64 --undefined-- 56.421
1.65 --undefined-- 58.352
1.66 283.328 58.957
1.67 282.823 58.289
1.68 283.588 59.213
1.69 --undefined-- 59.508
1.70 --undefined-- 57.743
1.71 --undefined-- 55.693
1.72 --undefined-- 54.270
1.73 --undefined-- 53.669
1.74 --undefined-- 53.475
1.75 --undefined-- 52.065
1.76 --undefined-- 51.000
1.77 --undefined-- 51.299
1.78 --undefined-- 51.781
1.79 --undefined-- 50.918
1.80 --undefined-- 49.533
1.81 --undefined-- 49.059
1.82 --undefined-- 47.703
1.83 --undefined-- 49.105
1.84 --undefined-- 53.988
1.85 --undefined-- 56.723
1.86 --undefined-- 56.560
1.87 --undefined-- 57.119
1.88 --undefined-- 63.483
1.89 --undefined-- 68.382
1.90 152.201 70.759
1.91 153.308 71.797
1.92 155.474 72.449
1.93 157.364 72.949
1.94 159.896 73.296
1.95 162.548 73.422
1.96 165.057 73.368
1.97 168.125 73.388
1.98 170.118 73.478
1.99 172.356 73.300
2.00 176.502 72.920
2.01 182.714 73.591
2.02 186.258 75.351
2.03 190.781 76.260
2.04 197.204 75.393
2.05 209.626 73.154
2.06 219.473 71.708
2.07 223.907 71.654
2.08 229.215 71.658
2.09 230.494 71.664
2.10 228.799 71.356
2.11 226.187 70.229
2.12 220.846 67.841
2.13 206.176 64.291
2.14 183.084 61.148
2.15 200.193 58.826
2.16 223.497 56.671
2.17 226.292 56.522
2.18 --undefined-- 57.519
2.19 --undefined-- 58.979
2.20 --undefined-- 59.782
2.21 --undefined-- 58.909
2.22 --undefined-- 57.194
2.23 --undefined-- 57.721
2.24 --undefined-- 57.946
2.25 --undefined-- 58.395
2.26 265.451 62.698
2.27 246.772 66.036
2.28 216.085 67.737
2.29 194.877 68.728
2.30 186.831 69.355
2.31 180.978 69.351
2.32 178.874 68.548
2.33 179.568 67.588
2.34 182.065 67.223
2.35 183.076 67.404
2.36 184.764 67.849
2.37 186.731 68.178
2.38 188.153 68.279
2.39 188.972 68.215
2.40 190.265 67.955
2.41 192.759 67.554
2.42 196.423 67.080
2.43 198.801 66.575
2.44 200.439 65.855
2.45 199.832 64.474
2.46 196.297 61.889
2.47 188.914 58.086
2.48 --undefined-- 54.422
2.49 --undefined-- 52.023
2.50 --undefined-- 50.045
2.51 --undefined-- 50.425
2.52 --undefined-- 51.487
2.53 --undefined-- 51.912
2.54 --undefined-- 53.265
2.55 --undefined-- 53.725
2.56 --undefined-- 53.234
2.57 --undefined-- 52.806
2.58 --undefined-- 53.435
2.59 --undefined-- 59.144
2.60 161.703 64.257
2.61 162.179 67.119
2.62 162.981 68.695
2.63 165.246 69.805
2.64 166.583 70.635
2.65 166.556 71.277
2.66 165.834 71.723
2.67 165.594 71.897
2.68 165.736 71.844
2.69 166.089 71.669
2.70 166.542 71.388
2.71 166.860 71.058
2.72 167.425 70.761
2.73 168.167 70.400
2.74 169.487 69.958
2.75 171.131 69.342
2.76 171.756 68.619
2.77 170.684 68.408
2.78 168.106 68.968
2.79 166.035 69.555
2.80 163.278 69.173
2.81 161.539 66.980
2.82 167.103 62.793
2.83 169.699 58.623
2.84 167.228 57.991
2.85 293.425 59.220
2.86 293.007 62.009
2.87 295.316 64.725
2.88 296.583 65.243
2.89 297.482 64.108
2.90 247.510 64.334
2.91 231.408 65.820
2.92 239.329 65.796
2.93 238.571 64.764
2.94 219.007 64.180
2.95 179.660 64.277
2.96 169.364 65.451
2.97 145.965 67.236
2.98 144.871 68.381
2.99 147.399 68.647
3.00 153.776 68.472
3.01 155.151 68.249
3.02 155.049 68.034
3.03 155.100 67.526
3.04 154.853 66.652
3.05 154.598 65.859
3.06 156.201 65.164
3.07 157.093 64.333
3.08 155.318 63.616
3.09 --undefined-- 62.592
3.10 --undefined-- 61.266
3.11 --undefined-- 60.592
3.12 157.960 59.724
3.13 157.962 58.023
3.14 157.730 55.767
3.15 --undefined-- 53.392
3.16 --undefined-- 50.771
3.17 --undefined-- 48.855
3.18 --undefined-- 51.155
3.19 --undefined-- 52.884
3.20 --undefined-- 52.225
3.21 --undefined-- 52.666
3.22 --undefined-- 54.965
3.23 --undefined-- 57.288
3.24 --undefined-- 58.949
3.25 257.493 61.653
3.26 252.257 64.662
3.27 252.026 66.280
3.28 254.194 66.990
3.29 257.752 67.754
3.30 259.007 68.622
3.31 260.111 69.297
3.32 260.909 69.803
3.33 261.227 70.130
3.34 261.375 70.258
3.35 261.811 70.241
3.36 262.819 70.090
3.37 263.527 69.791
3.38 264.016 69.276
3.39 263.806 68.770
3.40 263.768 68.487
3.41 264.083 68.175
3.42 265.231 67.591
3.43 266.674 66.652
3.44 268.879 65.823
3.45 270.651 65.833
3.46 271.330 66.463
3.47 272.812 67.040
3.48 274.658 67.327
3.49 274.403 67.266
3.50 273.299 66.660
3.51 270.378 65.078
3.52 264.756 61.930
3.53 246.608 57.212
3.54 267.810 55.842
3.55 --undefined-- 58.105
3.56 --undefined-- 58.398
3.57 --undefined-- 56.142
3.58 --undefined-- 51.922
3.59 --undefined-- 49.083
3.60 --undefined-- 49.125
3.61 --undefined-- 49.551
3.62 --undefined-- 53.927
3.63 288.662 60.371
3.64 273.081 64.637
3.65 262.845 66.865
3.66 256.916 68.009
3.67 252.600 68.553
3.68 249.814 68.452
3.69 249.754 68.008
3.70 250.688 67.422
3.71 250.618 66.542
3.72 250.370 65.813
3.73 250.413 65.579
3.74 250.599 65.715
3.75 251.080 66.113
3.76 251.029 66.443
3.77 251.513 66.503
3.78 251.176 66.213
3.79 249.806 65.124
3.80 243.631 62.585
3.81 235.990 58.233
3.82 --undefined-- 52.203
3.83 --undefined-- 46.030
3.84 --undefined-- 43.977
3.85 --undefined-- 46.112
3.86 --undefined-- 47.274
3.87 --undefined-- 46.861
3.88 --undefined-- 48.611
3.89 --undefined-- 50.732
3.90 --undefined-- 52.656
3.91 --undefined-- 56.100
3.92 --undefined-- 60.112
3.93 253.302 62.869
3.94 254.500 64.155
3.95 255.432 64.475
3.96 254.460 64.486
3.97 253.207 64.489
3.98 252.426 64.539
3.99 253.514 64.669
4.00 255.738 64.758
4.01 257.883 64.974
4.02 259.563 65.852
4.03 262.672 67.303
4.04 266.307 68.101
4.05 262.206 67.396
4.06 259.214 65.546
4.07 256.321 64.193
4.08 251.401 63.789
4.09 243.467 63.089
4.10 234.728 62.018
4.11 223.349 61.216
4.12 224.104 60.781
4.13 216.631 60.723
4.14 206.521 61.193
4.15 190.578 63.018
4.16 179.316 66.488
4.17 172.366 69.142
4.18 165.615 70.357
4.19 161.765 70.554
4.20 161.124 70.446
4.21 162.313 70.329
4.22 163.023 69.973
4.23 163.709 69.145
4.24 164.737 68.266
4.25 164.308 67.971
4.26 162.882 67.278
4.27 164.597 65.620
4.28 168.188 64.102
4.29 170.470 63.597
4.30 173.348 63.690
4.31 176.797 64.164
4.32 179.326 65.278
4.33 182.224 67.177
4.34 186.304 69.184
4.35 186.473 70.997
4.36 186.893 72.988
4.37 188.258 74.951
4.38 187.024 76.197
4.39 183.636 76.791
4.40 180.278 77.162
4.41 177.678 77.488
4.42 175.425 77.581
4.43 172.820 77.175
4.44 167.369 75.844
4.45 163.389 73.407
4.46 --undefined-- 69.987
4.47 --undefined-- 65.852
4.48 --undefined-- 61.747
4.49 --undefined-- 58.343
4.50 --undefined-- 55.872
4.51 284.317 55.046
4.52 274.323 55.433
4.53 271.311 56.090
4.54 269.125 56.755
4.55 266.337 56.698
4.56 265.567 57.367
4.57 262.746 57.039
4.58 --undefined-- 54.946
4.59 --undefined-- 55.158
4.60 --undefined-- 56.581
4.61 --undefined-- 57.205
4.62 --undefined-- 58.264
4.63 --undefined-- 58.224
4.64 --undefined-- 55.912
4.65 --undefined-- 52.922
4.66 --undefined-- 52.275
4.67 --undefined-- 52.974
4.68 --undefined-- 55.010
4.69 --undefined-- 56.375
4.70 --undefined-- 54.659
4.71 --undefined-- 50.505
4.72 --undefined-- 52.175
4.73 --undefined-- 54.800
4.74 --undefined-- 54.439
4.75 --undefined-- 56.577
4.76 284.271 61.903
4.77 265.452 65.281
4.78 261.213 67.657
4.79 264.385 69.844
4.80 268.015 71.221
4.81 271.729 71.966
4.82 272.479 72.564
4.83 270.465 72.662
4.84 266.625 71.766
4.85 263.285 69.872
4.86 257.785 67.694
4.87 246.599 65.801
4.88 --undefined-- 63.767
4.89 --undefined-- 61.479
4.90 --undefined-- 60.114
4.91 --undefined-- 59.356
4.92 --undefined-- 58.240
4.93 --undefined-- 57.208
4.94 --undefined-- --undefined--
4.95 --undefined-- --undefined--
4.96 --undefined-- --undefined--
4.97 --undefined-- --undefined--
