Time Pitch Intensity
0.01 --undefined-- --undefined--
0.02 --undefined-- --undefined--
0.03 --undefined-- --undefined--
0.04 --undefined-- --undefined--
0.05 --undefined-- 59.210
0.06 --undefined-- 57.989
0.07 --undefined-- 53.117
0.08 --undefined-- 47.198
0.09 --undefined-- 51.142
0.10 --undefined-- 56.958
0.11 --undefined-- 58.670
0.12 --undefined-- 57.640
0.13 --undefined-- 60.920
0.14 99.996 64.974
0.15 100.148 66.924
0.16 99.083 67.597
0.17 97.936 67.238
0.18 95.363 65.638
0.19 90.603 63.485
0.20 93.380 62.111
0.21 94.834 61.430
0.22 94.599 60.843
0.23 94.430 60.231
0.24 93.716 59.521
0.25 91.759 58.759
0.26 89.623 59.723
0.27 --undefined-- 62.730
0.28 89.092 64.585
0.29 88.465 64.482
0.30 87.332 62.995
0.31 --undefined-- 60.476
0.32 --undefined-- 56.094
0.33 --undefined-- 50.467
0.34 --undefined-- 48.454
0.35 --undefined-- 48.377
0.36 --undefined-- 48.469
0.37 --undefined-- 48.905
0.38 --undefined-- 49.490
0.39 --undefined-- 50.144
0.40 --undefined-- 50.061
0.41 --undefined-- 48.416
0.42 --undefined-- 45.267
0.43 --undefined-- 45.134
0.44 --undefined-- 52.802
0.45 --undefined-- 59.422
0.46 --undefined-- 63.676
0.47 --undefined-- 65.488
0.48 98.900 65.416
0.49 96.212 64.402
0.50 93.180 62.932
0.51 94.483 61.593
0.52 97.144 60.960
0.53 97.477 60.421
0.54 96.854 59.813
0.55 95.578 59.046
0.56 92.686 57.993
0.57 95.767 57.629
0.58 96.610 58.380
0.59 96.613 59.162
0.60 92.545 59.254
0.61 90.019 59.334
0.62 --undefined-- 59.686
0.63 --undefined-- 59.500
0.64 --undefined-- 57.939
0.65 --undefined-- 54.445
0.66 --undefined-- 49.543
0.67 --undefined-- 46.070
0.68 --undefined-- 47.580
0.69 --undefined-- 48.262
0.70 --undefined-- 47.088
0.71 --undefined-- 47.200
0.72 --undefined-- 47.985
0.73 --undefined-- 47.506
0.74 --undefined-- 47.430
0.75 --undefined-- 48.178
0.76 --undefined-- 48.505
0.77 --undefined-- 48.005
0.78 --undefined-- 47.144
0.79 --undefined-- 49.695
0.80 --undefined-- 54.952
0.81 --undefined-- 58.700
0.82 --undefined-- 60.475
0.83 --undefined-- 60.541
0.84 --undefined-- 59.139
0.85 --undefined-- 56.247
0.86 --undefined-- 50.982
0.87 --undefined-- 42.632
0.88 --undefined-- 37.523
0.89 --undefined-- 38.544
0.90 --undefined-- 39.254
0.91 --undefined-- 39.679
0.92 --undefined-- 41.687
0.93 --undefined-- 48.769
0.94 --undefined-- 55.025
0.95 99.767 58.725
0.96 100.124 60.894
0.97 101.019 62.135
0.98 101.418 62.464
0.99 101.092 62.030
1.00 99.853 61.281
1.01 98.659 60.577
1.02 97.739 59.666
1.03 96.202 57.738
1.04 94.923 54.598
1.05 --undefined-- 51.174
1.06 --undefined-- 49.107
1.07 --undefined-- 48.079
1.08 --undefined-- 47.020
1.09 --undefined-- 46.035
1.10 --undefined-- 45.300
1.11 --undefined-- 45.082
1.12 --undefined-- 45.042
1.13 --undefined-- 45.098
1.14 --undefined-- 46.541
1.15 --undefined-- 50.030
1.16 93.406 52.742
1.17 91.576 53.861
1.18 88.462 54.844
1.19 93.073 56.370
1.20 93.550 57.270
1.21 93.654 57.381
1.22 94.040 57.501
1.23 97.455 58.326
1.24 96.391 60.467
1.25 101.385 63.929
1.26 --undefined-- 67.187
1.27 --undefined-- 68.909
1.28 --undefined-- 69.563
1.29 --undefined-- 69.743
1.30 90.119 69.294
1.31 88.932 68.421
1.32 88.686 67.062
1.33 89.853 65.208
1.34 90.100 63.019
1.35 --undefined-- 60.065
1.36 --undefined-- 55.528
1.37 --undefined-- 51.422
1.38 99.834 51.059
1.39 100.115 51.674
1.40 100.396 53.222
1.41 99.130 58.160
1.42 --undefined-- 63.535
1.43 --undefined-- 66.646
1.44 92.734 67.127
1.45 91.340 65.475
1.46 89.637 62.755
1.47 --undefined-- 59.403
1.48 --undefined-- 55.120
1.49 --undefined-- 51.077
1.50 --undefined-- 49.284
1.51 --undefined-- 49.066
1.52 --undefined-- 48.987
1.53 --undefined-- 48.882
1.54 --undefined-- 48.964
1.55 --undefined-- 49.358
1.56 --undefined-- 49.953
1.57 --undefined-- 55.459
1.58 --undefined-- 61.963
1.59 --undefined-- 64.421
1.60 --undefined-- 62.438
1.61 --undefined-- 56.947
1.62 --undefined-- 58.432
1.63 --undefined-- 62.630
1.64 --undefined-- 63.833
1.65 --undefined-- 63.791
1.66 --undefined-- 64.332
1.67 --undefined-- 64.715
1.68 --undefined-- 64.803
1.69 --undefined-- 64.470
1.70 --undefined-- 64.046
1.71 --undefined-- 63.616
1.72 --undefined-- 62.549
1.73 --undefined-- 61.292
1.74 --undefined-- 59.893
1.75 --undefined-- 57.997
1.76 --undefined-- 55.516
1.77 --undefined-- 52.418
1.78 --undefined-- 50.195
1.79 --undefined-- 49.249
1.80 --undefined-- 47.196
1.81 --undefined-- 45.486
1.82 --undefined-- 47.145
1.83 --undefined-- 49.148
1.84 --undefined-- 51.034
1.85 91.761 52.435
1.86 90.398 53.057
1.87 89.941 53.790
1.88 93.362 55.498
1.89 93.480 57.290
1.90 93.370 58.437
1.91 91.293 60.389
1.92 90.881 62.067
1.93 89.976 62.014
1.94 90.246 60.971
1.95 91.023 60.617
1.96 --undefined-- 61.458
1.97 --undefined-- 62.141
1.98 --undefined-- 62.221
1.99 --undefined-- 61.079
2.00 --undefined-- 58.396
2.01 --undefined-- 54.923
2.02 --undefined-- 51.371
2.03 --undefined-- 48.219
2.04 --undefined-- 46.924
2.05 --undefined-- 51.326
2.06 --undefined-- 56.496
2.07 --undefined-- 58.702
2.08 --undefined-- 57.684
2.09 --undefined-- 53.718
2.10 --undefined-- 48.845
2.11 --undefined-- 46.634
2.12 --undefined-- 45.247
2.13 --undefined-- 43.999
2.14 --undefined-- 43.923
2.15 --undefined-- 45.503
2.16 --undefined-- 47.356
2.17 --undefined-- 48.074
2.18 --undefined-- 47.804
2.19 --undefined-- 48.696
2.20 --undefined-- 51.225
2.21 98.064 53.866
2.22 97.101 55.859
2.23 97.316 57.272
2.24 96.376 58.122
2.25 92.992 58.476
2.26 92.674 58.971
2.27 92.277 59.320
2.28 91.535 58.916
2.29 92.305 57.658
2.30 92.440 55.850
2.31 94.501 53.433
2.32 --undefined-- 49.704
2.33 --undefined-- 45.296
2.34 --undefined-- 43.002
2.35 --undefined-- 42.610
2.36 --undefined-- 41.646
2.37 --undefined-- 39.774
2.38 --undefined-- 39.989
2.39 --undefined-- 45.259
2.40 --undefined-- 49.936
2.41 --undefined-- 55.608
2.42 --undefined-- 60.054
2.43 --undefined-- 61.731
2.44 --undefined-- 61.374
2.45 89.990 60.712
2.46 87.658 60.284
2.47 105.332 59.140
2.48 --undefined-- 56.930
2.49 --undefined-- 52.679
2.50 --undefined-- 45.861
2.51 --undefined-- 39.627
2.52 --undefined-- 36.902
2.53 --undefined-- 36.002
2.54 --undefined-- 36.175
2.55 --undefined-- 36.773
2.56 --undefined-- 36.481
2.57 --undefined-- 36.715
2.58 --undefined-- 40.679
2.59 --undefined-- 44.394
2.60 --undefined-- 45.849
2.61 --undefined-- 45.956
2.62 --undefined-- 46.040
2.63 --undefined-- 46.056
2.64 --undefined-- 45.923
2.65 --undefined-- 46.025
2.66 --undefined-- 46.278
2.67 --undefined-- 46.043
2.68 --undefined-- 45.660
2.69 --undefined-- 45.562
2.70 --undefined-- 45.807
2.71 --undefined-- 45.969
2.72 --undefined-- 45.719
2.73 --undefined-- 46.188
2.74 --undefined-- 47.657
2.75 --undefined-- 48.510
2.76 --undefined-- 48.108
2.77 --undefined-- 46.957
2.78 --undefined-- 45.413
2.79 --undefined-- 44.019
2.80 --undefined-- 44.564
2.81 --undefined-- 45.793
2.82 --undefined-- 47.322
2.83 --undefined-- 49.058
2.84 --undefined-- 51.514
2.85 --undefined-- 53.454
2.86 --undefined-- 54.763
2.87 --undefined-- 55.532
2.88 --undefined-- 57.328
2.89 --undefined-- 63.538
2.90 118.265 67.970
2.91 117.229 69.285
2.92 120.298 67.563
2.93 121.056 63.160
2.94 127.889 58.892
2.95 133.460 58.534
2.96 139.297 59.095
2.97 141.324 60.213
2.98 143.248 64.528
2.99 141.288 69.854
3.00 138.660 72.770
3.01 135.175 73.355
3.02 132.096 72.903
3.03 128.180 72.717
3.04 127.008 72.923
3.05 124.707 72.941
3.06 122.252 72.583
3.07 120.720 72.265
3.08 119.188 72.013
3.09 119.073 71.687
3.10 118.642 71.463
3.11 118.915 71.379
3.12 119.499 71.268
3.13 119.210 71.098
3.14 117.391 70.939
3.15 117.049 70.659
3.16 116.609 70.356
3.17 116.412 70.070
3.18 116.362 69.639
3.19 116.329 68.868
3.20 115.977 67.556
3.21 115.684 65.497
3.22 110.047 62.122
3.23 --undefined-- 56.795
3.24 --undefined-- 49.395
3.25 --undefined-- 42.707
3.26 --undefined-- 41.126
3.27 --undefined-- 40.616
3.28 --undefined-- 39.394
3.29 --undefined-- 38.599
3.30 --undefined-- 38.708
3.31 --undefined-- 38.634
3.32 --undefined-- 37.925
3.33 --undefined-- 36.907
3.34 --undefined-- 36.831
3.35 --undefined-- 36.826
3.36 --undefined-- 36.145
3.37 --undefined-- 35.614
3.38 --undefined-- 35.703
3.39 --undefined-- 35.304
3.40 --undefined-- 33.792
3.41 --undefined-- 32.813
3.42 --undefined-- 32.795
3.43 --undefined-- 33.499
3.44 --undefined-- 34.392
3.45 --undefined-- 34.789
3.46 --undefined-- 35.820
3.47 --undefined-- 37.339
3.48 --undefined-- 37.733
3.49 --undefined-- 37.302
3.50 --undefined-- 37.263
3.51 --undefined-- 37.599
3.52 --undefined-- 40.437
3.53 --undefined-- 42.975
3.54 --undefined-- 43.281
3.55 --undefined-- 42.940
3.56 --undefined-- 43.174
3.57 --undefined-- 42.709
3.58 --undefined-- 40.739
3.59 --undefined-- 40.294
3.60 --undefined-- 47.955
3.61 --undefined-- 58.204
3.62 --undefined-- 65.278
3.63 --undefined-- 68.898
3.64 --undefined-- 70.775
3.65 --undefined-- 72.388
3.66 --undefined-- 72.750
3.67 --undefined-- 71.180
3.68 --undefined-- 67.506
3.69 134.824 61.956
3.70 134.223 58.324
3.71 135.110 57.648
3.72 134.757 56.555
3.73 131.573 54.053
3.74 --undefined-- 50.343
3.75 --undefined-- 47.127
3.76 --undefined-- 48.094
3.77 --undefined-- 56.916
3.78 --undefined-- 65.571
3.79 --undefined-- 71.341
3.80 --undefined-- 74.268
3.81 154.165 74.858
3.82 148.107 73.946
3.83 144.666 72.346
3.84 141.877 71.207
3.85 147.556 71.286
3.86 149.653 71.380
3.87 151.485 70.964
3.88 154.875 69.973
3.89 158.452 68.350
3.90 159.192 66.551
3.91 158.460 65.639
3.92 159.058 68.170
3.93 161.669 71.250
3.94 161.882 72.449
3.95 163.128 72.386
3.96 163.481 72.182
3.97 161.977 71.819
3.98 --undefined-- 70.629
3.99 --undefined-- 67.864
4.00 --undefined-- 63.137
4.01 --undefined-- 58.661
4.02 --undefined-- 58.966
4.03 --undefined-- 59.483
4.04 --undefined-- 58.722
4.05 134.127 60.546
4.06 134.333 64.156
4.07 132.525 66.563
4.08 129.587 67.092
4.09 128.202 65.945
4.10 124.097 63.925
4.11 124.059 62.159
4.12 123.924 61.031
4.13 120.785 59.894
4.14 121.361 58.271
4.15 --undefined-- 56.459
4.16 --undefined-- 55.828
4.17 --undefined-- 56.108
4.18 --undefined-- 55.892
4.19 --undefined-- 56.156
4.20 --undefined-- 56.925
4.21 --undefined-- 57.227
4.22 --undefined-- 57.472
4.23 --undefined-- 58.025
4.24 --undefined-- 58.739
4.25 --undefined-- 60.338
4.26 --undefined-- 62.614
4.27 119.815 65.266
4.28 118.905 67.845
4.29 119.140 69.556
4.30 119.607 70.075
4.31 119.190 69.963
4.32 123.299 69.756
4.33 122.111 69.536
4.34 120.301 68.728
4.35 --undefined-- 66.308
4.36 --undefined-- 63.226
4.37 --undefined-- 61.707
4.38 --undefined-- 61.273
4.39 --undefined-- 63.382
4.40 --undefined-- 68.451
4.41 147.261 72.131
4.42 152.260 73.808
4.43 153.138 74.270
4.44 149.845 74.461
4.45 149.133 74.704
4.46 148.373 74.526
4.47 148.694 73.711
4.48 149.443 72.358
4.49 150.215 70.523
4.50 151.159 68.639
4.51 150.696 67.517
4.52 150.204 65.915
4.53 --undefined-- 61.800
4.54 --undefined-- 54.646
4.55 --undefined-- 53.001
4.56 --undefined-- 55.893
4.57 --undefined-- 57.091
4.58 --undefined-- 58.032
4.59 --undefined-- 59.106
4.60 --undefined-- 60.066
4.61 --undefined-- 61.028
4.62 --undefined-- 62.357
4.63 --undefined-- 64.278
4.64 --undefined-- 66.303
4.65 --undefined-- 68.011
4.66 137.325 68.906
4.67 140.530 68.283
4.68 140.226 65.882
4.69 --undefined-- 61.540
4.70 --undefined-- 54.655
4.71 --undefined-- 46.103
4.72 --undefined-- 41.678
4.73 --undefined-- 43.523
4.74 --undefined-- 55.010
4.75 --undefined-- 63.907
4.76 --undefined-- 70.159
4.77 --undefined-- 74.134
4.78 --undefined-- 75.587
4.79 --undefined-- 75.046
4.80 110.436 73.668
4.81 110.151 72.429
4.82 --undefined-- 72.006
4.83 100.497 72.057
4.84 99.911 72.172
4.85 99.453 72.054
4.86 98.664 71.642
4.87 97.868 71.477
4.88 97.231 71.193
4.89 96.749 69.752
4.90 --undefined-- 66.296
4.91 --undefined-- 60.131
4.92 --undefined-- 51.830
4.93 --undefined-- 46.930
4.94 --undefined-- 46.027
4.95 --undefined-- 45.863
4.96 --undefined-- 46.084
4.97 --undefined-- 46.556
4.98 --undefined-- 47.490
4.99 --undefined-- 47.451
5.00 --undefined-- 47.535
5.01 --undefined-- 49.741
5.02 --undefined-- 51.419
5.03 --undefined-- 51.822
5.04 --undefined-- 53.019
5.05 --undefined-- 56.774
5.06 --undefined-- 63.965
5.07 --undefined-- 69.855
5.08 --undefined-- 72.821
5.09 --undefined-- 73.287
5.10 --undefined-- 71.697
5.11 115.052 69.077
5.12 114.061 67.458
5.13 112.032 67.267
5.14 111.492 67.370
5.15 112.274 67.299
5.16 113.015 67.295
5.17 113.489 66.852
5.18 113.803 66.076
5.19 113.952 64.589
5.20 114.087 62.275
5.21 115.174 60.148
5.22 116.678 59.214
5.23 115.608 60.303
5.24 114.566 62.650
5.25 114.122 64.755
5.26 113.423 65.800
5.27 112.641 65.607
5.28 110.693 64.680
5.29 108.219 63.437
5.30 106.253 61.351
5.31 106.321 57.516
5.32 --undefined-- 52.742
5.33 --undefined-- 51.745
5.34 --undefined-- 52.852
5.35 --undefined-- 53.083
5.36 --undefined-- 52.940
5.37 --undefined-- 52.930
5.38 --undefined-- 53.292
5.39 --undefined-- 54.588
5.40 --undefined-- 56.450
5.41 --undefined-- 59.297
5.42 --undefined-- 63.789
5.43 99.371 67.335
5.44 99.722 69.084
5.45 95.474 69.734
5.46 95.505 69.975
5.47 --undefined-- 69.967
5.48 --undefined-- 69.722
5.49 86.287 69.325
5.50 87.041 68.447
5.51 87.856 --undefined--
5.52 89.852 --undefined--
5.53 --undefined-- --undefined--
5.54 --undefined-- --undefined--
