Time Pitch Intensity
0.01 --undefined-- --undefined--
0.02 164.663 --undefined--
0.03 179.958 --undefined--
0.04 191.239 --undefined--
0.05 199.072 77.983
0.06 208.065 78.860
0.07 213.973 79.353
0.08 215.209 79.504
0.09 215.893 79.561
0.10 215.644 79.610
0.11 213.605 79.606
0.12 212.399 79.530
0.13 210.044 79.051
0.14 203.570 77.593
0.15 192.320 74.913
0.16 176.734 71.329
0.17 168.605 67.809
0.18 178.965 66.017
0.19 200.329 68.176
0.20 191.180 71.715
0.21 188.326 74.279
0.22 172.939 75.829
0.23 160.378 76.424
0.24 155.814 76.105
0.25 151.820 75.286
0.26 148.468 74.180
0.27 143.180 72.518
0.28 135.675 69.985
0.29 127.223 66.430
0.30 128.129 62.304
0.31 132.534 58.931
0.32 144.136 59.981
0.33 173.003 65.840
0.34 173.787 70.746
0.35 175.008 75.060
0.36 176.821 78.616
0.37 175.011 80.874
0.38 176.148 82.123
0.39 178.971 82.790
0.40 181.121 83.014
0.41 182.471 82.713
0.42 182.378 81.564
0.43 180.204 79.110
0.44 178.653 75.841
0.45 183.284 74.311
0.46 181.873 74.643
0.47 176.389 75.445
0.48 170.853 76.124
0.49 161.187 76.463
0.50 155.407 76.398
0.51 143.238 76.050
0.52 138.746 75.727
0.53 130.868 75.269
0.54 127.400 74.910
0.55 127.116 74.778
0.56 126.102 74.527
0.57 124.856 74.121
0.58 122.687 73.822
0.59 121.406 73.737
0.60 122.976 73.519
0.61 123.203 72.861
0.62 119.547 71.698
0.63 117.630 70.366
0.64 119.869 69.608
0.65 123.023 69.709
0.66 126.349 70.727
0.67 129.487 72.524
0.68 134.106 74.440
0.69 134.185 76.068
0.70 131.889 77.192
0.71 130.484 77.641
0.72 132.200 77.530
0.73 133.471 77.101
0.74 133.157 76.432
0.75 131.982 75.443
0.76 130.361 73.871
0.77 130.107 71.383
0.78 129.115 67.857
0.79 133.081 63.502
0.80 134.859 59.203
0.81 --undefined-- 60.760
0.82 170.184 67.771
0.83 155.800 72.795
0.84 142.366 75.240
0.85 133.017 75.990
0.86 129.982 76.070
0.87 127.387 75.926
0.88 126.649 75.421
0.89 127.492 74.168
0.90 124.397 71.816
0.91 119.340 68.400
0.92 117.066 64.040
0.93 --undefined-- 58.525
0.94 --undefined-- 51.664
0.95 --undefined-- 52.563
0.96 --undefined-- 61.672
0.97 --undefined-- 68.367
0.98 --undefined-- 72.143
0.99 120.505 73.718
1.00 118.064 74.126
1.01 110.760 74.141
1.02 109.531 74.093
1.03 109.570 73.994
1.04 110.362 73.915
1.05 111.078 74.036
1.06 112.900 74.405
1.07 114.612 74.782
1.08 117.164 75.188
1.09 119.365 75.572
1.10 121.980 75.639
1.11 125.357 75.279
1.12 128.548 74.612
1.13 129.332 74.068
1.14 139.838 73.868
1.15 148.543 73.748
1.16 153.226 74.024
1.17 156.379 74.562
1.18 160.884 74.905
1.19 163.965 74.871
1.20 165.962 74.213
1.21 164.846 72.699
1.22 160.602 70.059
1.23 153.761 66.419
1.24 160.020 62.754
1.25 --undefined-- 59.197
1.26 --undefined-- 59.528
1.27 --undefined-- 67.639
1.28 --undefined-- 72.995
1.29 --undefined-- 75.423
1.30 128.196 75.983
1.31 119.499 75.687
1.32 116.368 75.095
1.33 112.857 74.365
1.34 111.093 73.631
1.35 109.236 73.080
1.36 106.049 72.614
1.37 105.520 72.174
1.38 106.329 72.061
1.39 105.841 72.457
1.40 107.674 73.089
1.41 108.622 73.874
1.42 108.590 74.427
1.43 109.226 74.336
1.44 110.383 73.670
1.45 112.272 72.386
1.46 114.212 70.559
1.47 115.105 68.553
1.48 116.650 66.301
1.49 120.761 63.422
1.50 --undefined-- 59.430
1.51 --undefined-- 55.568
1.52 --undefined-- 54.981
1.53 --undefined-- 59.122
1.54 --undefined-- 64.835
1.55 --undefined-- 69.814
1.56 182.151 73.499
1.57 161.159 75.495
1.58 147.287 76.156
1.59 145.695 76.150
1.60 145.537 76.148
1.61 152.597 76.371
1.62 152.671 76.697
1.63 152.802 76.880
1.64 152.841 76.834
1.65 151.684 76.685
1.66 151.457 76.393
1.67 150.687 75.933
1.68 150.053 75.169
1.69 146.898 73.750
1.70 139.772 71.400
1.71 129.742 68.090
1.72 122.606 64.156
1.73 112.992 60.653
1.74 --undefined-- 58.025
1.75 --undefined-- 59.887
1.76 --undefined-- 66.825
1.77 --undefined-- 71.831
1.78 139.132 74.516
1.79 123.694 75.578
1.80 121.294 75.743
1.81 119.031 75.655
1.82 117.064 75.495
1.83 115.027 75.246
1.84 113.622 74.959
1.85 113.243 74.756
1.86 113.100 74.673
1.87 113.490 74.268
1.88 113.061 72.612
1.89 102.198 69.488
1.90 112.799 66.007
1.91 118.836 62.301
1.92 130.569 58.931
1.93 --undefined-- 64.046
1.94 --undefined-- 70.321
1.95 122.217 73.612
1.96 116.580 74.779
1.97 113.466 74.923
1.98 112.676 74.650
1.99 112.975 74.020
2.00 112.895 72.762
2.01 110.819 70.597
2.02 108.672 68.403
2.03 114.427 67.834
2.04 113.743 68.706
2.05 109.954 70.307
2.06 107.421 71.791
2.07 105.348 72.821
2.08 104.579 73.410
2.09 104.480 73.632
2.10 104.547 73.691
2.11 104.184 73.733
2.12 107.721 73.845
2.13 109.899 73.469
2.14 108.616 71.851
2.15 106.664 69.112
2.16 106.948 66.492
2.17 113.799 65.195
2.18 128.828 66.255
2.19 130.804 68.656
2.20 131.063 70.559
2.21 134.773 71.724
2.22 134.411 72.474
2.23 132.716 72.672
2.24 132.146 71.962
2.25 132.174 70.622
2.26 130.110 69.698
2.27 127.559 69.560
2.28 125.333 69.506
2.29 122.861 69.083
2.30 121.341 68.534
2.31 120.687 68.321
2.32 122.014 68.641
2.33 122.598 69.452
2.34 124.786 70.690
2.35 121.007 72.435
2.36 115.961 74.024
2.37 111.519 74.685
2.38 110.412 74.361
2.39 109.953 73.041
2.40 110.886 70.416
2.41 116.440 66.557
2.42 119.555 62.224
2.43 114.925 57.974
2.44 --undefined-- 55.915
2.45 --undefined-- 59.571
2.46 --undefined-- 67.918
2.47 --undefined-- 73.838
2.48 --undefined-- 76.922
2.49 117.296 77.914
2.50 112.485 77.482
2.51 105.409 76.169
2.52 --undefined-- 73.665
2.53 --undefined-- 69.504
2.54 --undefined-- 64.641
2.55 164.142 61.321
2.56 175.659 58.317
2.57 --undefined-- 53.011
2.58 --undefined-- 47.192
2.59 --undefined-- 43.728
2.60 --undefined-- 41.960
2.61 --undefined-- 44.363
2.62 --undefined-- 46.685
2.63 --undefined-- 47.088
2.64 --undefined-- 46.815
2.65 --undefined-- 47.776
2.66 --undefined-- 47.874
2.67 --undefined-- 46.221
2.68 --undefined-- 45.665
2.69 --undefined-- 47.464
2.70 --undefined-- 49.548
2.71 --undefined-- 49.549
2.72 --undefined-- 46.786
2.73 --undefined-- 45.405
2.74 --undefined-- 46.834
2.75 --undefined-- 47.099
2.76 --undefined-- 47.329
2.77 --undefined-- 47.038
2.78 --undefined-- 45.650
2.79 --undefined-- 43.577
2.80 --undefined-- 41.935
2.81 --undefined-- 43.217
2.82 --undefined-- 45.008
2.83 --undefined-- 45.576
2.84 --undefined-- 45.528
2.85 --undefined-- 44.112
2.86 --undefined-- 41.444
2.87 --undefined-- 40.992
2.88 --undefined-- 42.932
2.89 --undefined-- 44.753
2.90 --undefined-- 44.441
2.91 --undefined-- 41.736
2.92 --undefined-- 40.152
2.93 --undefined-- 41.953
2.94 --undefined-- 44.458
2.95 --undefined-- 46.615
2.96 --undefined-- 47.405
2.97 --undefined-- 47.265
2.98 --undefined-- 47.918
2.99 --undefined-- 48.018
3.00 --undefined-- 47.243
3.01 --undefined-- 47.694
3.02 --undefined-- 47.522
3.03 --undefined-- 46.474
3.04 --undefined-- 47.401
3.05 --undefined-- 49.758
3.06 --undefined-- 56.684
3.07 187.516 65.480
3.08 178.310 71.787
3.09 148.787 75.844
3.10 131.113 78.091
3.11 130.211 78.749
3.12 124.521 77.758
3.13 113.291 75.093
3.14 119.277 71.645
3.15 123.242 68.472
3.16 123.063 64.595
3.17 129.203 59.180
3.18 --undefined-- 52.801
3.19 --undefined-- 56.294
3.20 --undefined-- 65.458
3.21 180.050 71.945
3.22 169.788 75.899
3.23 162.326 78.122
3.24 145.916 79.086
3.25 137.192 79.171
3.26 139.850 79.015
3.27 136.746 78.953
3.28 137.423 78.947
3.29 132.435 78.707
3.30 130.113 77.790
3.31 127.619 76.291
3.32 128.264 75.014
3.33 130.420 74.497
3.34 130.456 74.884
3.35 134.692 76.118
3.36 132.081 77.466
3.37 126.235 78.229
3.38 124.364 78.376
3.39 122.953 78.189
3.40 122.212 77.905
3.41 121.828 77.505
3.42 120.937 76.809
3.43 118.216 75.386
3.44 113.788 72.564
3.45 109.315 68.153
3.46 103.359 62.652
3.47 --undefined-- 56.015
3.48 --undefined-- 51.485
3.49 --undefined-- 57.350
3.50 --undefined-- 62.117
3.51 --undefined-- 64.118
3.52 --undefined-- 64.759
3.53 --undefined-- 67.018
3.54 --undefined-- 71.895
3.55 --undefined-- 75.323
3.56 124.006 76.756
3.57 120.856 76.718
3.58 117.124 75.283
3.59 112.954 72.487
3.60 112.641 68.703
3.61 113.739 64.302
3.62 109.517 60.574
3.63 --undefined-- 61.812
3.64 --undefined-- 64.347
3.65 --undefined-- 65.252
3.66 --undefined-- 65.290
3.67 146.011 68.143
3.68 145.040 71.585
3.69 116.968 73.277
3.70 105.107 73.662
3.71 102.999 73.491
3.72 102.120 73.227
3.73 98.193 72.861
3.74 96.720 72.379
3.75 96.131 71.945
3.76 96.705 71.722
3.77 98.038 71.633
3.78 98.058 71.619
3.79 99.045 71.353
3.80 98.753 69.970
3.81 93.265 67.063
3.82 108.081 63.263
3.83 --undefined-- 58.741
3.84 --undefined-- 52.903
3.85 --undefined-- 48.017
3.86 --undefined-- 54.952
3.87 --undefined-- 64.388
3.88 --undefined-- 70.558
3.89 --undefined-- 73.906
3.90 112.042 75.283
3.91 110.331 75.608
3.92 108.413 75.633
3.93 108.631 75.743
3.94 110.129 76.037
3.95 112.449 76.397
3.96 114.771 76.553
3.97 116.852 76.400
3.98 118.546 76.063
3.99 117.757 75.696
4.00 115.201 75.326
4.01 110.410 75.128
4.02 107.991 75.379
4.03 107.258 75.820
4.04 109.570 75.938
4.05 110.876 75.615
4.06 110.336 75.086
4.07 113.601 74.783
4.08 117.171 75.006
4.09 118.134 75.750
4.10 116.467 76.642
4.11 113.803 77.388
4.12 112.608 77.983
4.13 113.850 78.226
4.14 115.242 78.109
4.15 116.277 77.765
4.16 118.412 76.940
4.17 118.877 74.997
4.18 113.492 71.378
4.19 --undefined-- 67.066
4.20 --undefined-- 63.133
4.21 --undefined-- 58.791
4.22 --undefined-- 55.668
4.23 --undefined-- 53.819
4.24 --undefined-- 54.019
4.25 --undefined-- 58.501
4.26 --undefined-- 62.653
4.27 127.102 66.784
4.28 126.036 70.727
4.29 124.278 73.510
4.30 122.798 75.180
4.31 119.880 76.073
4.32 119.683 76.451
4.33 120.888 76.773
4.34 122.142 77.136
4.35 124.160 77.440
4.36 123.864 77.539
4.37 122.995 77.398
4.38 122.147 77.211
4.39 121.645 77.088
4.40 120.665 76.971
4.41 119.786 76.739
4.42 118.593 76.315
4.43 117.444 75.746
4.44 116.854 75.084
4.45 115.933 74.321
4.46 115.301 73.463
4.47 116.503 72.419
4.48 119.079 71.359
4.49 116.230 70.651
4.50 113.571 70.525
4.51 119.701 71.176
4.52 115.962 72.402
4.53 112.072 74.045
4.54 111.527 75.548
4.55 110.815 76.430
4.56 109.386 76.661
4.57 109.402 76.266
4.58 108.069 75.098
4.59 105.340 72.935
4.60 106.398 69.800
4.61 104.382 65.977
4.62 115.651 62.113
4.63 111.204 59.833
4.64 115.208 58.305
4.65 --undefined-- 56.753
4.66 --undefined-- 55.781
4.67 --undefined-- 54.776
4.68 --undefined-- 54.452
4.69 --undefined-- 56.096
4.70 --undefined-- 57.811
4.71 --undefined-- 64.062
4.72 199.096 72.124
4.73 183.354 76.970
4.74 172.921 79.103
4.75 165.547 79.804
4.76 161.635 80.024
4.77 158.053 79.909
4.78 153.678 79.559
4.79 149.991 79.165
4.80 148.465 78.747
4.81 147.820 78.246
4.82 149.446 77.746
4.83 150.633 77.409
4.84 151.313 77.416
4.85 152.290 77.727
4.86 152.892 78.115
4.87 154.151 78.380
4.88 154.969 78.452
4.89 157.709 78.436
4.90 159.281 78.388
4.91 160.156 78.318
4.92 160.268 78.233
4.93 159.665 78.053
4.94 159.021 77.581
4.95 156.635 76.522
4.96 151.991 74.613
4.97 145.885 71.844
4.98 145.746 68.056
4.99 --undefined-- 62.430
5.00 --undefined-- 54.532
5.01 --undefined-- 47.034
5.02 --undefined-- 44.942
5.03 --undefined-- 44.862
5.04 --undefined-- 47.584
5.05 --undefined-- 53.975
5.06 --undefined-- 61.383
5.07 207.140 70.059
5.08 208.187 76.506
5.09 193.428 80.172
5.10 176.904 81.947
5.11 166.084 82.594
5.12 162.954 82.521
5.13 162.233 81.820
5.14 163.165 80.963
5.15 166.158 80.542
5.16 166.331 80.387
5.17 166.407 80.263
5.18 166.211 80.102
5.19 166.450 79.935
5.20 166.860 79.734
5.21 167.470 79.486
5.22 168.180 79.263
5.23 168.576 79.105
5.24 168.353 --undefined--
5.25 168.419 --undefined--
5.26 --undefined-- --undefined--
5.27 --undefined-- --undefined--
