Time Pitch Intensity
0.01 --undefined-- --undefined--
0.02 132.251 --undefined--
0.03 132.666 --undefined--
0.04 132.762 --undefined--
0.05 133.883 66.114
0.06 139.817 66.024
0.07 143.834 67.150
0.08 142.893 68.042
0.09 138.903 68.165
0.10 134.439 67.875
0.11 128.863 67.529
0.12 126.597 67.202
0.13 126.082 66.945
0.14 126.954 66.916
0.15 128.449 67.093
0.16 129.141 67.410
0.17 130.773 67.852
0.18 133.205 68.207
0.19 134.402 68.255
0.20 134.836 67.863
0.21 134.095 66.784
0.22 131.706 64.568
0.23 128.738 60.552
0.24 --undefined-- 54.165
0.25 --undefined-- 46.034
0.26 --undefined-- 42.297
0.27 --undefined-- 42.607
0.28 --undefined-- 42.474
0.29 --undefined-- 42.441
0.30 --undefined-- 43.530
0.31 --undefined-- 48.195
0.32 --undefined-- 59.399
0.33 --undefined-- 67.515
0.34 181.469 71.959
0.35 173.126 73.866
0.36 165.792 74.531
0.37 160.825 74.989
0.38 158.447 75.413
0.39 157.588 75.467
0.40 158.141 75.108
0.41 158.753 74.761
0.42 158.888 74.536
0.43 159.133 74.157
0.44 159.622 73.694
0.45 159.774 73.364
0.46 159.646 73.178
0.47 159.804 73.041
0.48 160.368 72.894
0.49 162.125 72.789
0.50 163.031 72.670
0.51 160.598 72.021
0.52 --undefined-- 70.142
0.53 --undefined-- 66.817
0.54 --undefined-- 62.634
0.55 --undefined-- 58.124
0.56 --undefined-- 53.599
0.57 --undefined-- 52.576
0.58 --undefined-- 54.447
0.59 --undefined-- 54.781
0.60 --undefined-- 54.141
0.61 --undefined-- 54.325
0.62 --undefined-- 55.272
0.63 --undefined-- 55.425
0.64 --undefined-- 54.672
0.65 --undefined-- 55.349
0.66 --undefined-- 59.972
0.67 --undefined-- 65.230
0.68 152.295 68.113
0.69 147.599 69.117
0.70 146.876 69.366
0.71 146.903 69.476
0.72 146.895 69.539
0.73 144.671 69.602
0.74 145.777 69.811
0.75 149.143 70.016
0.76 149.434 70.163
0.77 149.915 70.234
0.78 149.940 70.158
0.79 149.492 69.903
0.80 148.339 69.470
0.81 146.418 68.874
0.82 145.013 68.206
0.83 139.647 67.641
0.84 137.575 67.266
0.85 138.035 67.018
0.86 138.693 66.714
0.87 139.047 66.387
0.88 139.166 66.025
0.89 140.083 65.572
0.90 141.450 65.203
0.91 143.836 65.084
0.92 147.097 65.240
0.93 150.906 65.710
0.94 153.045 66.268
0.95 153.130 66.362
0.96 152.424 65.590
0.97 155.702 63.704
0.98 153.749 60.792
0.99 150.422 58.066
1.00 152.750 57.250
1.01 158.215 59.144
1.02 175.268 62.577
1.03 178.140 65.463
1.04 177.804 67.037
1.05 167.942 67.293
1.06 156.177 66.668
1.07 150.441 66.040
1.08 147.078 66.145
1.09 144.818 66.878
1.10 143.214 67.684
1.11 142.192 68.168
1.12 140.288 68.477
1.13 142.821 68.856
1.14 145.150 69.035
1.15 143.693 68.851
1.16 143.859 68.367
1.17 143.599 67.383
1.18 140.783 65.380
1.19 136.135 61.696
1.20 --undefined-- 55.753
1.21 --undefined-- 47.676
1.22 --undefined-- 43.000
1.23 --undefined-- 50.877
1.24 --undefined-- 60.178
1.25 170.217 65.705
1.26 164.431 68.283
1.27 160.108 69.127
1.28 156.540 69.073
1.29 152.589 68.528
1.30 149.257 67.941
1.31 147.654 67.666
1.32 147.888 67.664
1.33 148.901 67.640
1.34 150.056 67.500
1.35 147.876 67.025
1.36 145.549 65.465
1.37 140.224 62.257
1.38 137.144 57.181
1.39 --undefined-- 50.225
1.40 --undefined-- 51.807
1.41 --undefined-- 60.619
1.42 173.933 66.110
1.43 158.403 68.876
1.44 156.629 69.901
1.45 153.465 69.905
1.46 151.049 69.654
1.47 150.602 69.721
1.48 151.217 69.804
1.49 151.826 69.684
1.50 152.687 69.685
1.51 153.364 70.025
1.52 153.835 70.534
1.53 152.399 70.889
1.54 --undefined-- 70.719
1.55 --undefined-- 69.436
1.56 --undefined-- 66.264
1.57 --undefined-- 60.706
1.58 --undefined-- 53.031
1.59 --undefined-- 45.469
1.60 --undefined-- 39.747
1.61 --undefined-- 36.508
1.62 --undefined-- 35.976
1.63 --undefined-- 35.740
1.64 --undefined-- 36.008
1.65 --undefined-- 36.199
1.66 --undefined-- 34.585
1.67 --undefined-- 31.441
1.68 --undefined-- 30.922
1.69 --undefined-- 31.240
1.70 --undefined-- 30.706
1.71 --undefined-- 31.406
1.72 --undefined-- 32.145
1.73 --undefined-- 31.265
1.74 --undefined-- 29.909
1.75 --undefined-- 30.623
1.76 --undefined-- 31.037
1.77 --undefined-- 31.056
1.78 --undefined-- 31.308
1.79 --undefined-- 30.592
1.80 --undefined-- 30.793
1.81 --undefined-- 32.817
1.82 --undefined-- 34.423
1.83 --undefined-- 34.373
1.84 --undefined-- 33.544
1.85 --undefined-- 34.190
1.86 --undefined-- 35.694
1.87 --undefined-- 36.481
1.88 --undefined-- 35.826
1.89 --undefined-- 34.446
1.90 --undefined-- 34.586
1.91 --undefined-- 36.212
1.92 --undefined-- 37.073
1.93 --undefined-- 36.301
1.94 --undefined-- 35.717
1.95 --undefined-- 36.724
1.96 --undefined-- 37.714
1.97 --undefined-- 38.076
1.98 --undefined-- 37.157
1.99 --undefined-- 35.927
2.00 --undefined-- 35.963
2.01 --undefined-- 35.338
2.02 --undefined-- 34.245
2.03 --undefined-- 35.520
2.04 --undefined-- 36.890
2.05 --undefined-- 36.453
2.06 --undefined-- 35.498
2.07 --undefined-- 35.562
2.08 --undefined-- 35.177
2.09 --undefined-- 34.445
2.10 --undefined-- 34.423
2.11 --undefined-- 35.258
2.12 --undefined-- 35.422
2.13 --undefined-- 34.501
2.14 --undefined-- 34.415
2.15 --undefined-- 34.976
2.16 --undefined-- 33.747
2.17 --undefined-- 31.296
2.18 --undefined-- 31.118
2.19 --undefined-- 32.783
2.20 --undefined-- 32.884
2.21 --undefined-- 32.027
2.22 --undefined-- 35.660
2.23 --undefined-- 46.198
2.24 --undefined-- 58.248
2.25 --undefined-- 66.649
2.26 199.625 71.342
2.27 198.584 73.333
2.28 196.897 73.589
2.29 194.644 72.462
2.30 190.960 69.583
2.31 182.896 64.607
2.32 192.360 57.743
2.33 --undefined-- 49.080
2.34 --undefined-- 41.882
2.35 --undefined-- 49.701
2.36 --undefined-- 57.803
2.37 --undefined-- 64.836
2.38 192.283 69.724
2.39 188.310 72.621
2.40 184.257 74.155
2.41 180.210 74.635
2.42 177.081 74.522
2.43 175.482 74.417
2.44 174.275 74.441
2.45 173.616 74.517
2.46 172.727 74.642
2.47 172.022 74.781
2.48 171.574 74.865
2.49 170.959 74.886
2.50 170.038 74.891
2.51 169.173 74.927
2.52 168.676 75.003
2.53 168.923 75.108
2.54 168.652 75.272
2.55 168.133 75.425
2.56 167.707 75.287
2.57 167.526 74.523
2.58 167.578 72.812
2.59 167.548 69.825
2.60 163.888 65.181
2.61 163.344 58.709
2.62 --undefined-- 51.236
2.63 --undefined-- 43.358
2.64 --undefined-- 40.199
2.65 --undefined-- 46.477
2.66 --undefined-- 50.121
2.67 --undefined-- 52.872
2.68 --undefined-- 54.798
2.69 --undefined-- 53.885
2.70 --undefined-- 53.246
2.71 --undefined-- 60.494
2.72 195.191 66.403
2.73 195.148 69.523
2.74 194.169 70.969
2.75 180.525 71.603
2.76 171.398 71.688
2.77 169.474 71.306
2.78 170.658 70.654
2.79 172.982 70.043
2.80 174.641 69.403
2.81 178.526 68.463
2.82 177.081 67.375
2.83 174.627 66.519
2.84 173.545 66.036
2.85 173.223 65.816
2.86 173.683 65.807
2.87 174.236 66.062
2.88 174.691 66.492
2.89 174.399 66.926
2.90 173.933 67.342
2.91 173.798 67.756
2.92 174.122 68.194
2.93 175.450 68.740
2.94 177.803 69.573
2.95 181.331 70.842
2.96 184.512 72.228
2.97 186.102 72.972
2.98 178.265 72.716
2.99 174.126 71.580
3.00 171.735 69.376
3.01 164.866 66.195
3.02 166.585 63.170
3.03 168.146 61.406
3.04 166.256 60.945
3.05 173.698 62.030
3.06 175.501 64.885
3.07 183.485 67.814
3.08 185.628 69.648
3.09 181.264 70.274
3.10 176.861 70.306
3.11 175.009 70.420
3.12 174.306 70.731
3.13 173.569 71.029
3.14 172.618 71.185
3.15 171.960 71.258
3.16 171.377 71.228
3.17 170.346 71.060
3.18 169.630 70.712
3.19 169.470 70.089
3.20 168.405 69.401
3.21 171.181 68.924
3.22 173.159 68.271
3.23 169.463 66.932
3.24 157.243 64.751
3.25 90.888 61.901
3.26 92.312 58.388
3.27 --undefined-- 53.431
3.28 --undefined-- 45.926
3.29 --undefined-- 37.811
3.30 --undefined-- 44.515
3.31 --undefined-- 53.111
3.32 --undefined-- 59.128
3.33 192.764 63.313
3.34 202.572 66.318
3.35 207.933 68.777
3.36 212.075 70.892
3.37 212.579 72.410
3.38 214.280 73.281
3.39 219.728 73.555
3.40 223.335 73.376
3.41 223.199 73.033
3.42 221.413 72.301
3.43 214.061 70.420
3.44 208.015 67.118
3.45 217.856 62.593
3.46 --undefined-- 56.230
3.47 --undefined-- 48.172
3.48 --undefined-- 45.129
3.49 --undefined-- 53.915
3.50 248.859 63.397
3.51 243.101 69.071
3.52 235.898 71.773
3.53 234.267 72.639
3.54 233.406 72.666
3.55 233.559 72.492
3.56 233.395 72.337
3.57 232.635 72.036
3.58 230.104 71.335
3.59 225.098 70.146
3.60 220.392 68.366
3.61 218.376 65.572
3.62 218.917 61.181
3.63 --undefined-- 54.961
3.64 --undefined-- 48.728
3.65 --undefined-- 45.537
3.66 --undefined-- 43.594
3.67 --undefined-- 42.096
3.68 --undefined-- 42.569
3.69 --undefined-- 44.282
3.70 --undefined-- 48.304
3.71 --undefined-- 57.350
3.72 241.609 64.695
3.73 238.939 69.155
3.74 235.733 71.502
3.75 234.084 72.539
3.76 232.398 72.849
3.77 230.655 72.761
3.78 228.991 72.382
3.79 226.865 71.525
3.80 219.688 69.845
3.81 212.338 67.390
3.82 221.538 64.236
3.83 229.065 59.420
3.84 --undefined-- 52.068
3.85 --undefined-- 46.426
3.86 --undefined-- 51.803
3.87 228.394 60.008
3.88 214.450 65.468
3.89 191.960 67.810
3.90 179.566 68.081
3.91 171.472 67.703
3.92 167.470 67.501
3.93 164.396 67.622
3.94 161.183 67.662
3.95 157.097 67.240
3.96 154.878 67.267
3.97 156.931 68.184
3.98 158.306 68.921
3.99 158.647 69.169
4.00 159.338 69.072
4.01 158.755 68.695
4.02 158.214 67.913
4.03 157.177 66.207
4.04 159.204 62.890
4.05 --undefined-- 58.553
4.06 --undefined-- 56.489
4.07 --undefined-- 54.301
4.08 --undefined-- 51.187
4.09 --undefined-- 49.993
4.10 --undefined-- 49.495
4.11 --undefined-- 48.693
4.12 --undefined-- 48.889
4.13 --undefined-- 54.291
4.14 159.963 60.135
4.15 149.254 63.222
4.16 137.979 64.356
4.17 136.131 64.698
4.18 135.070 65.099
4.19 134.537 65.627
4.20 134.781 66.052
4.21 134.888 66.288
4.22 135.061 66.291
4.23 134.189 66.102
4.24 133.605 65.819
4.25 133.171 65.507
4.26 133.236 65.351
4.27 134.637 65.329
4.28 135.879 65.104
4.29 136.964 64.862
4.30 136.710 64.914
4.31 136.108 64.901
4.32 136.882 64.628
4.33 136.638 64.411
4.34 136.068 64.372
4.35 137.184 64.258
4.36 137.818 63.729
4.37 135.932 62.334
4.38 125.673 59.588
4.39 121.618 54.770
4.40 --undefined-- 47.523
4.41 --undefined-- 39.096
4.42 --undefined-- 34.628
4.43 --undefined-- 33.209
4.44 --undefined-- 31.471
4.45 --undefined-- 32.331
4.46 --undefined-- 34.270
4.47 --undefined-- 34.935
4.48 --undefined-- 36.528
4.49 --undefined-- 42.585
4.50 --undefined-- 48.250
4.51 --undefined-- 50.606
4.52 --undefined-- 50.521
4.53 --undefined-- 53.110
4.54 157.273 58.894
4.55 155.958 63.085
4.56 156.135 65.429
4.57 152.709 66.408
4.58 146.689 66.623
4.59 142.386 66.209
4.60 137.416 64.824
4.61 130.994 61.910
4.62 129.508 57.114
4.63 --undefined-- 50.442
4.64 --undefined-- 41.868
4.65 --undefined-- 38.642
4.66 --undefined-- 46.572
4.67 --undefined-- 53.302
4.68 --undefined-- 60.693
4.69 --undefined-- 66.650
4.70 184.064 69.816
4.71 180.981 71.114
4.72 178.848 71.896
4.73 176.142 72.664
4.74 172.610 73.239
4.75 169.052 72.950
4.76 166.160 70.921
4.77 163.103 66.555
4.78 --undefined-- 60.177
4.79 --undefined-- 53.811
4.80 --undefined-- 47.077
4.81 --undefined-- 38.175
4.82 --undefined-- 35.241
4.83 --undefined-- 38.157
4.84 --undefined-- 38.945
4.85 --undefined-- 37.248
4.86 --undefined-- 35.328
4.87 --undefined-- 34.836
4.88 --undefined-- 34.249
4.89 --undefined-- 36.054
4.90 --undefined-- 39.005
4.91 --undefined-- 39.563
4.92 --undefined-- 37.531
4.93 --undefined-- 40.690
4.94 --undefined-- 52.544
4.95 --undefined-- 62.144
4.96 --undefined-- 67.991
4.97 187.582 70.745
4.98 179.658 71.558
4.99 172.485 71.563
5.00 167.621 71.468
5.01 166.260 71.556
5.02 167.624 71.756
5.03 171.144 71.872
5.04 178.363 71.828
5.05 184.644 71.564
5.06 188.848 71.223
5.07 200.661 71.771
5.08 207.939 72.407
5.09 211.924 71.935
5.10 216.376 69.783
5.11 221.908 65.345
5.12 --undefined-- 58.069
5.13 --undefined-- 51.071
5.14 --undefined-- 56.616
5.15 236.599 64.373
5.16 227.657 68.605
5.17 206.118 69.863
5.18 186.294 69.634
5.19 168.484 69.561
5.20 155.097 69.744
5.21 147.641 69.484
5.22 144.064 68.609
5.23 142.173 66.848
5.24 138.240 63.354
5.25 --undefined-- 57.195
5.26 --undefined-- 47.890
5.27 --undefined-- 39.193
5.28 --undefined-- 39.948
5.29 --undefined-- 48.759
5.30 --undefined-- 59.243
5.31 --undefined-- 65.786
5.32 170.683 68.954
5.33 166.252 70.157
5.34 161.967 70.350
5.35 156.930 69.717
5.36 152.040 68.729
5.37 152.051 68.503
5.38 153.299 69.026
5.39 154.562 69.507
5.40 155.217 69.388
5.41 156.069 68.535
5.42 154.687 66.879
5.43 150.935 63.898
5.44 151.608 59.729
5.45 158.439 54.773
5.46 --undefined-- 49.069
5.47 --undefined-- 50.348
5.48 --undefined-- 59.141
5.49 208.003 65.748
5.50 190.095 68.956
5.51 185.012 69.970
5.52 186.273 70.230
5.53 186.134 69.823
5.54 183.926 67.803
5.55 175.981 63.560
5.56 --undefined-- 56.784
5.57 --undefined-- 47.791
5.58 --undefined-- 36.811
5.59 --undefined-- 33.924
5.60 --undefined-- 34.518
5.61 --undefined-- 35.817
5.62 --undefined-- 47.269
5.63 --undefined-- 59.764
5.64 224.727 67.838
5.65 225.669 72.002
5.66 226.122 73.589
5.67 225.766 73.978
5.68 226.107 74.210
5.69 226.913 74.497
5.70 227.860 74.745
5.71 228.445 74.861
5.72 228.463 74.849
5.73 228.410 74.819
5.74 228.367 74.947
5.75 228.200 75.434
5.76 230.145 76.223
5.77 231.462 76.891
5.78 231.326 77.241
5.79 231.435 77.360
5.80 231.080 77.301
5.81 229.772 76.955
5.82 226.867 75.946
5.83 223.280 73.623
5.84 222.590 69.303
5.85 224.603 62.048
5.86 --undefined-- 51.983
5.87 --undefined-- 44.833
5.88 --undefined-- 44.963
5.89 --undefined-- 55.515
5.90 --undefined-- 64.026
5.91 195.344 68.508
5.92 181.552 70.045
5.93 165.156 70.054
5.94 156.222 --undefined--
5.95 151.883 --undefined--
5.96 --undefined-- --undefined--
5.97 --undefined-- --undefined--
