Time Pitch Intensity
0.01 --undefined-- --undefined--
0.02 102.206 --undefined--
0.03 104.106 --undefined--
0.04 104.344 --undefined--
0.05 103.507 60.339
0.06 105.456 60.017
0.07 118.289 62.258
0.08 121.488 65.674
0.09 125.289 68.214
0.10 125.560 69.990
0.11 127.021 71.188
0.12 127.185 71.947
0.13 126.166 72.157
0.14 125.353 71.507
0.15 126.596 70.013
0.16 128.614 68.079
0.17 129.433 66.108
0.18 128.942 64.449
0.19 129.742 63.329
0.20 129.359 62.562
0.21 127.856 61.935
0.22 125.736 61.513
0.23 124.111 61.713
0.24 122.901 62.636
0.25 121.312 64.277
0.26 122.031 66.472
0.27 123.066 68.690
0.28 122.954 70.506
0.29 122.766 71.380
0.30 120.148 71.261
0.31 118.689 70.689
0.32 116.061 69.995
0.33 113.656 69.197
0.34 111.135 68.464
0.35 111.040 68.224
0.36 110.877 68.252
0.37 110.462 68.154
0.38 110.658 68.146
0.39 111.997 68.364
0.40 112.834 68.578
0.41 113.039 68.707
0.42 112.714 68.819
0.43 111.965 68.958
0.44 111.401 69.261
0.45 113.227 69.738
0.46 114.698 69.842
0.47 115.654 69.214
0.48 117.267 68.197
0.49 119.202 67.527
0.50 122.107 67.567
0.51 126.794 68.048
0.52 131.246 68.864
0.53 135.496 69.721
0.54 141.449 70.604
0.55 145.428 71.808
0.56 146.250 72.800
0.57 149.844 73.325
0.58 152.697 73.484
0.59 154.582 73.354
0.60 155.129 73.101
0.61 155.158 72.858
0.62 155.437 72.696
0.63 155.329 72.582
0.64 154.860 72.385
0.65 153.765 72.016
0.66 152.185 71.387
0.67 150.493 70.054
0.68 149.421 67.371
0.69 145.675 62.667
0.70 --undefined-- 56.297
0.71 --undefined-- 52.282
0.72 --undefined-- 50.880
0.73 --undefined-- 48.513
0.74 --undefined-- 44.970
0.75 --undefined-- 42.993
0.76 --undefined-- 45.577
0.77 --undefined-- 52.705
0.78 --undefined-- 59.951
0.79 138.748 64.575
0.80 126.096 66.917
0.81 125.718 67.908
0.82 125.747 68.459
0.83 136.611 68.989
0.84 141.983 69.155
0.85 149.189 68.828
0.86 160.500 68.351
0.87 172.661 68.157
0.88 185.879 68.212
0.89 195.776 68.273
0.90 202.707 68.485
0.91 204.536 68.710
0.92 197.244 67.973
0.93 185.311 65.271
0.94 165.433 60.186
0.95 144.503 55.078
0.96 144.059 54.079
0.97 --undefined-- 54.442
0.98 --undefined-- 54.337
0.99 --undefined-- 52.836
1.00 --undefined-- 51.397
1.01 --undefined-- 50.906
1.02 --undefined-- 51.012
1.03 --undefined-- 53.152
1.04 --undefined-- 59.435
1.05 133.288 64.690
1.06 131.673 67.356
1.07 129.251 68.038
1.08 120.368 67.518
1.09 115.675 66.644
1.10 111.681 65.930
1.11 107.159 65.185
1.12 103.827 64.606
1.13 102.111 64.406
1.14 101.866 64.107
1.15 102.016 63.581
1.16 102.502 63.099
1.17 102.465 62.852
1.18 102.727 62.957
1.19 103.829 63.193
1.20 104.875 63.126
1.21 104.640 62.408
1.22 103.520 60.897
1.23 101.544 58.569
1.24 100.193 55.393
1.25 --undefined-- 51.185
1.26 --undefined-- 45.881
1.27 --undefined-- 42.187
1.28 --undefined-- 42.805
1.29 --undefined-- 48.354
1.30 --undefined-- 57.286
1.31 --undefined-- 63.210
1.32 136.620 65.973
1.33 130.486 66.169
1.34 123.007 64.438
1.35 121.530 61.330
1.36 --undefined-- 57.171
1.37 --undefined-- 52.370
1.38 --undefined-- 47.175
1.39 --undefined-- 46.648
1.40 --undefined-- 50.395
1.41 126.712 54.792
1.42 135.186 59.426
1.43 128.964 62.862
1.44 119.241 65.189
1.45 117.793 66.590
1.46 118.364 67.099
1.47 116.297 67.066
1.48 113.708 66.466
1.49 117.400 64.808
1.50 --undefined-- 61.670
1.51 --undefined-- 58.709
1.52 --undefined-- 57.889
1.53 --undefined-- 56.910
1.54 --undefined-- 55.386
1.55 --undefined-- 53.809
1.56 --undefined-- 54.226
1.57 123.992 58.239
1.58 126.790 62.653
1.59 130.297 66.122
1.60 129.957 68.749
1.61 132.689 70.714
1.62 132.052 71.877
1.63 133.775 72.633
1.64 141.092 73.444
1.65 148.756 74.162
1.66 155.866 74.756
1.67 160.554 74.970
1.68 160.372 74.846
1.69 158.798 74.425
1.70 158.925 73.547
1.71 158.465 72.989
1.72 154.050 73.450
1.73 147.412 74.211
1.74 142.796 74.435
1.75 138.728 73.586
1.76 135.044 71.182
1.77 128.106 66.733
1.78 107.546 60.240
1.79 --undefined-- 52.749
1.80 --undefined-- 45.933
1.81 --undefined-- 41.237
1.82 --undefined-- 39.292
1.83 --undefined-- 47.407
1.84 --undefined-- 55.072
1.85 --undefined-- 58.696
1.86 --undefined-- 61.603
1.87 195.547 66.969
1.88 169.024 71.518
1.89 157.759 74.511
1.90 157.055 76.206
1.91 155.256 76.932
1.92 154.374 77.402
1.93 154.924 77.958
1.94 155.472 78.245
1.95 156.145 78.166
1.96 156.736 77.848
1.97 156.748 77.329
1.98 157.073 76.667
1.99 157.640 76.070
2.00 157.681 75.710
2.01 157.665 75.542
2.02 157.361 75.407
2.03 156.984 75.196
2.04 157.127 74.830
2.05 157.798 74.260
2.06 158.117 73.583
2.07 157.516 73.000
2.08 157.516 72.643
2.09 157.541 72.442
2.10 156.972 72.359
2.11 155.925 72.354
2.12 154.143 72.181
2.13 150.915 71.337
2.14 146.317 69.213
2.15 141.648 65.388
2.16 138.281 59.802
2.17 --undefined-- 52.764
2.18 --undefined-- 45.450
2.19 --undefined-- 40.991
2.20 --undefined-- 47.003
2.21 --undefined-- 54.475
2.22 --undefined-- 58.262
2.23 --undefined-- 61.830
2.24 150.181 66.735
2.25 137.202 70.227
2.26 132.301 72.006
2.27 128.305 72.684
2.28 124.283 72.858
2.29 120.927 72.835
2.30 119.296 72.715
2.31 118.562 72.539
2.32 117.317 72.269
2.33 115.928 71.983
2.34 115.784 71.806
2.35 116.495 71.688
2.36 117.021 71.482
2.37 117.876 71.070
2.38 118.082 70.183
2.39 117.596 68.331
2.40 112.897 65.083
2.41 110.510 60.992
2.42 108.360 57.340
2.43 103.770 53.356
2.44 --undefined-- 47.611
2.45 --undefined-- 40.016
2.46 --undefined-- 42.052
2.47 --undefined-- 52.249
2.48 --undefined-- 59.098
2.49 --undefined-- 62.388
2.50 112.961 63.104
2.51 115.936 62.399
2.52 116.133 60.938
2.53 108.916 59.215
2.54 --undefined-- 56.673
2.55 --undefined-- 54.485
2.56 --undefined-- 56.380
2.57 --undefined-- 63.971
2.58 171.604 70.215
2.59 158.786 73.483
2.60 150.270 74.756
2.61 147.298 75.085
2.62 146.382 74.783
2.63 146.480 74.213
2.64 145.987 74.207
2.65 145.814 74.790
2.66 147.534 75.261
2.67 149.252 75.228
2.68 150.051 74.809
2.69 148.587 74.216
2.70 146.368 73.374
2.71 142.670 72.090
2.72 140.020 70.849
2.73 139.266 70.263
2.74 134.713 69.847
2.75 131.903 69.668
2.76 128.312 70.287
2.77 121.899 71.338
2.78 117.972 71.899
2.79 111.542 71.896
2.80 107.861 71.508
2.81 105.276 70.795
2.82 103.159 69.883
2.83 102.279 68.732
2.84 103.212 67.500
2.85 104.874 66.573
2.86 110.559 66.086
2.87 108.944 65.832
2.88 107.531 65.579
2.89 107.078 64.369
2.90 101.962 61.149
2.91 --undefined-- 55.431
2.92 --undefined-- 47.364
2.93 --undefined-- 38.851
2.94 --undefined-- 41.446
2.95 --undefined-- 50.813
2.96 --undefined-- 55.797
2.97 --undefined-- 56.698
2.98 --undefined-- 54.817
2.99 --undefined-- 52.200
3.00 --undefined-- 50.278
3.01 --undefined-- 50.166
3.02 --undefined-- 50.647
3.03 --undefined-- 50.684
3.04 --undefined-- 50.660
3.05 --undefined-- 51.009
3.06 --undefined-- 52.471
3.07 --undefined-- 55.896
3.08 136.446 59.848
3.09 129.230 62.035
3.10 112.605 62.314
3.11 107.756 61.847
3.12 107.461 61.287
3.13 104.019 60.318
3.14 100.185 59.713
3.15 94.100 59.484
3.16 91.888 59.185
3.17 96.696 59.129
3.18 95.516 59.261
3.19 99.898 59.711
3.20 98.974 60.303
3.21 103.841 60.681
3.22 101.527 59.890
3.23 96.550 56.936
3.24 --undefined-- 51.892
3.25 --undefined-- 46.415
3.26 --undefined-- 41.391
3.27 --undefined-- 46.411
3.28 --undefined-- 54.067
3.29 --undefined-- 58.219
3.30 --undefined-- 59.330
3.31 --undefined-- 59.303
3.32 --undefined-- 59.879
3.33 --undefined-- 59.606
3.34 --undefined-- 57.751
3.35 --undefined-- 55.449
3.36 --undefined-- 57.532
3.37 151.026 63.294
3.38 147.097 67.634
3.39 141.125 70.414
3.40 --undefined-- 72.155
3.41 --undefined-- 73.235
3.42 --undefined-- 73.876
3.43 140.484 74.066
3.44 138.961 73.972
3.45 138.204 73.778
3.46 136.406 73.429
3.47 134.185 72.516
3.48 128.822 70.366
3.49 122.008 66.726
3.50 117.121 62.666
3.51 111.520 60.484
3.52 117.006 63.120
3.53 133.999 67.716
3.54 124.883 70.712
3.55 123.510 72.075
3.56 120.665 72.298
3.57 116.412 71.953
3.58 115.225 71.602
3.59 113.643 70.789
3.60 112.180 68.431
3.61 99.032 63.604
3.62 --undefined-- 56.042
3.63 --undefined-- 48.498
3.64 --undefined-- 48.027
3.65 --undefined-- 52.575
3.66 --undefined-- 55.250
3.67 --undefined-- 55.425
3.68 --undefined-- 56.293
3.69 144.177 62.074
3.70 146.130 67.231
3.71 142.619 69.498
3.72 138.413 69.296
3.73 138.382 68.043
3.74 139.588 67.796
3.75 143.391 69.567
3.76 142.075 71.951
3.77 138.541 73.347
3.78 132.280 73.713
3.79 131.406 73.604
3.80 129.560 72.936
3.81 124.847 71.338
3.82 118.477 68.878
3.83 112.944 65.912
3.84 105.701 62.320
3.85 --undefined-- 57.595
3.86 --undefined-- 52.128
3.87 --undefined-- 48.070
3.88 --undefined-- 46.181
3.89 --undefined-- 45.751
3.90 --undefined-- 47.598
3.91 --undefined-- 54.714
3.92 --undefined-- 61.062
3.93 --undefined-- 64.294
3.94 108.834 65.059
3.95 102.417 64.389
3.96 95.953 63.282
3.97 97.481 62.703
3.98 100.967 62.443
3.99 96.694 61.446
4.00 102.060 59.549
4.01 92.012 56.679
4.02 92.113 53.518
4.03 --undefined-- 53.622
4.04 --undefined-- 56.080
4.05 --undefined-- 57.511
4.06 --undefined-- 58.115
4.07 --undefined-- 60.856
4.08 --undefined-- 64.832
4.09 117.930 67.081
4.10 112.544 67.109
4.11 111.008 65.658
4.12 97.483 63.419
4.13 93.571 61.178
4.14 84.390 59.284
4.15 96.640 57.930
4.16 102.959 58.601
4.17 93.469 59.453
4.18 98.601 59.778
4.19 98.890 60.087
4.20 98.613 60.427
4.21 99.138 60.789
4.22 98.852 60.716
4.23 97.776 59.602
4.24 92.976 57.165
4.25 91.149 55.009
4.26 90.981 57.853
4.27 110.097 61.700
4.28 98.205 63.363
4.29 95.984 63.395
4.30 94.964 63.213
4.31 95.306 63.530
4.32 95.822 64.083
4.33 97.587 64.780
4.34 99.817 65.761
4.35 103.516 66.968
4.36 107.091 68.194
4.37 111.003 69.442
4.38 112.801 70.665
4.39 113.910 71.710
4.40 115.178 72.571
4.41 117.189 73.299
4.42 118.828 73.690
4.43 120.630 73.845
4.44 121.886 73.943
4.45 123.187 74.038
4.46 123.986 74.045
4.47 123.044 73.892
4.48 122.281 73.677
4.49 121.371 73.429
4.50 119.786 73.061
4.51 118.519 72.546
4.52 117.527 71.824
4.53 115.910 70.775
4.54 113.513 69.176
4.55 111.775 66.503
4.56 102.905 62.298
4.57 100.468 58.055
4.58 95.366 54.530
4.59 --undefined-- 50.180
4.60 --undefined-- 44.318
4.61 --undefined-- 37.699
4.62 --undefined-- 33.536
4.63 --undefined-- 31.779
4.64 --undefined-- 32.656
4.65 --undefined-- 33.791
4.66 --undefined-- 33.283
4.67 --undefined-- 36.092
4.68 --undefined-- 46.557
4.69 --undefined-- 56.101
4.70 --undefined-- 64.371
4.71 147.132 70.273
4.72 146.494 73.996
4.73 152.176 76.130
4.74 159.757 76.767
4.75 168.302 75.645
4.76 181.462 73.371
4.77 201.931 72.218
4.78 211.806 72.478
4.79 215.982 72.977
4.80 213.529 73.244
4.81 206.223 73.038
4.82 194.315 72.444
4.83 179.056 71.801
4.84 162.063 71.431
4.85 145.746 71.347
4.86 134.615 71.340
4.87 124.915 71.001
4.88 116.760 70.298
4.89 111.203 69.418
4.90 105.946 68.452
4.91 104.582 67.981
4.92 107.739 68.296
4.93 110.056 68.754
4.94 113.127 69.113
4.95 119.465 69.942
4.96 133.245 71.897
4.97 147.980 74.179
4.98 154.968 75.619
4.99 157.891 75.847
5.00 160.877 75.433
5.01 164.759 75.063
5.02 167.030 74.029
5.03 167.720 70.925
5.04 --undefined-- 64.712
5.05 --undefined-- 55.024
5.06 --undefined-- 44.720
5.07 --undefined-- 41.100
5.08 --undefined-- 39.178
5.09 --undefined-- 49.445
5.10 --undefined-- 60.543
5.11 --undefined-- 67.497
5.12 --undefined-- 71.098
5.13 135.261 72.116
5.14 127.806 71.792
5.15 121.519 71.504
5.16 119.107 71.547
5.17 118.124 71.709
5.18 118.504 71.938
5.19 118.245 72.061
5.20 117.849 72.072
5.21 117.829 72.059
5.22 118.691 72.067
5.23 119.504 --undefined--
5.24 120.285 --undefined--
5.25 --undefined-- --undefined--
5.26 --undefined-- --undefined--
