Time Pitch Intensity
0.01 --undefined-- --undefined--
0.02 195.584 --undefined--
0.03 196.832 --undefined--
0.04 194.234 --undefined--
0.05 186.899 72.975
0.06 176.034 72.528
0.07 167.519 70.944
0.08 147.003 68.338
0.09 144.338 65.527
0.10 170.039 62.872
0.11 178.940 63.839
0.12 181.404 67.693
0.13 188.670 70.938
0.14 193.288 72.477
0.15 198.911 72.383
0.16 211.321 71.132
0.17 217.867 69.880
0.18 219.602 69.404
0.19 221.631 69.333
0.20 225.832 69.451
0.21 242.955 69.438
0.22 250.267 69.261
0.23 255.721 69.654
0.24 258.855 71.057
0.25 260.564 73.159
0.26 262.425 75.652
0.27 262.362 77.806
0.28 259.686 78.885
0.29 255.514 78.589
0.30 250.110 76.641
0.31 245.643 72.687
0.32 234.720 67.210
0.33 215.005 62.610
0.34 215.348 59.035
0.35 224.683 58.510
0.36 169.842 60.815
0.37 163.398 62.148
0.38 163.092 63.872
0.39 165.819 68.408
0.40 158.435 73.373
0.41 158.183 76.066
0.42 137.706 76.521
0.43 129.512 75.740
0.44 126.305 74.965
0.45 126.065 74.582
0.46 126.281 74.029
0.47 125.827 73.350
0.48 126.472 72.970
0.49 125.563 72.667
0.50 123.216 72.317
0.51 119.896 71.997
0.52 118.129 71.744
0.53 116.831 71.619
0.54 115.350 71.807
0.55 113.458 72.282
0.56 111.275 72.721
0.57 110.757 73.004
0.58 111.600 73.002
0.59 112.360 72.352
0.60 112.952 71.234
0.61 114.567 70.246
0.62 113.964 69.033
0.63 110.965 66.942
0.64 107.867 64.216
0.65 105.552 61.903
0.66 109.505 60.438
0.67 111.511 60.903
0.68 122.715 64.844
0.69 126.029 69.209
0.70 123.863 72.230
0.71 122.475 74.148
0.72 122.323 75.303
0.73 123.421 75.838
0.74 124.982 75.708
0.75 125.069 74.630
0.76 126.402 73.069
0.77 130.989 72.637
0.78 133.703 73.065
0.79 137.516 73.430
0.80 139.352 73.631
0.81 141.546 73.709
0.82 142.856 73.615
0.83 144.547 73.362
0.84 146.686 73.108
0.85 145.893 72.932
0.86 141.960 72.772
0.87 139.093 72.326
0.88 135.741 70.967
0.89 132.596 68.395
0.90 132.975 65.449
0.91 139.010 65.017
0.92 147.254 69.772
0.93 160.813 74.570
0.94 164.545 77.532
0.95 161.330 78.949
0.96 150.038 79.360
0.97 147.140 79.246
0.98 146.135 78.779
0.99 145.417 78.137
1.00 144.728 77.366
1.01 143.642 76.179
1.02 143.020 74.136
1.03 143.359 71.677
1.04 146.209 70.358
1.05 146.541 70.037
1.06 146.963 69.931
1.07 146.865 69.887
1.08 146.806 69.846
1.09 146.932 69.808
1.10 146.539 69.830
1.11 146.156 70.056
1.12 148.152 71.212
1.13 146.120 73.201
1.14 144.417 74.694
1.15 144.945 75.370
1.16 144.664 75.558
1.17 143.343 75.466
1.18 141.094 75.027
1.19 138.730 74.062
1.20 136.279 72.730
1.21 132.721 71.924
1.22 129.894 72.319
1.23 127.581 73.211
1.24 125.914 73.840
1.25 122.844 73.836
1.26 119.778 73.416
1.27 119.175 73.018
1.28 119.526 72.702
1.29 118.711 71.866
1.30 115.549 69.547
1.31 113.586 65.834
1.32 118.522 62.794
1.33 114.339 62.205
1.34 129.498 65.726
1.35 135.906 70.411
1.36 140.521 73.966
1.37 142.481 75.985
1.38 140.790 76.374
1.39 135.857 75.717
1.40 135.899 75.214
1.41 137.995 75.142
1.42 139.233 75.201
1.43 140.414 75.200
1.44 141.289 74.585
1.45 139.342 72.520
1.46 132.989 68.545
1.47 127.594 63.488
1.48 126.778 59.690
1.49 123.804 57.091
1.50 127.470 55.601
1.51 127.158 59.236
1.52 154.643 65.918
1.53 147.449 70.731
1.54 138.427 73.184
1.55 131.362 73.537
1.56 125.054 72.286
1.57 122.122 70.348
1.58 117.458 68.521
1.59 115.517 67.629
1.60 119.034 69.114
1.61 117.947 70.737
1.62 115.278 71.430
1.63 112.750 71.943
1.64 113.194 72.395
1.65 113.978 72.578
1.66 115.268 72.592
1.67 115.920 72.452
1.68 115.842 72.002
1.69 115.589 71.366
1.70 115.404 70.980
1.71 116.047 70.928
1.72 116.383 70.941
1.73 116.539 70.473
1.74 116.672 68.700
1.75 115.964 65.084
1.76 120.375 60.316
1.77 121.768 55.327
1.78 --undefined-- 49.556
1.79 --undefined-- 44.826
1.80 --undefined-- 52.985
1.81 --undefined-- 62.505
1.82 --undefined-- 69.145
1.83 --undefined-- 73.002
1.84 148.558 74.575
1.85 140.703 74.441
1.86 136.169 72.948
1.87 129.800 71.004
1.88 131.213 70.926
1.89 132.654 72.326
1.90 133.843 73.645
1.91 134.920 74.685
1.92 135.375 75.235
1.93 135.471 75.066
1.94 135.924 74.362
1.95 135.930 73.532
1.96 132.349 72.594
1.97 129.979 70.800
1.98 123.090 67.258
1.99 122.424 62.160
2.00 116.485 56.571
2.01 --undefined-- 52.517
2.02 --undefined-- 58.596
2.03 163.193 65.506
2.04 149.035 69.699
2.05 138.987 71.683
2.06 131.404 71.563
2.07 123.564 69.233
2.08 111.448 65.094
2.09 110.509 60.641
2.10 112.591 57.470
2.11 121.745 55.996
2.12 126.997 56.572
2.13 127.620 57.735
2.14 123.404 59.069
2.15 124.679 61.104
2.16 129.206 64.283
2.17 126.914 67.431
2.18 123.458 69.571
2.19 121.843 70.765
2.20 121.109 71.289
2.21 120.589 71.322
2.22 120.858 70.884
2.23 119.448 69.782
2.24 121.287 68.364
2.25 126.874 67.668
2.26 129.042 67.525
2.27 129.560 67.387
2.28 130.746 67.167
2.29 130.334 66.697
2.30 129.016 65.645
2.31 125.512 63.502
2.32 125.126 60.049
2.33 --undefined-- 55.459
2.34 --undefined-- 57.319
2.35 --undefined-- 65.790
2.36 162.150 71.150
2.37 150.809 73.739
2.38 140.017 74.471
2.39 137.540 74.296
2.40 137.471 73.780
2.41 136.586 73.048
2.42 136.144 72.044
2.43 134.959 70.549
2.44 135.779 69.064
2.45 137.454 68.423
2.46 137.588 68.318
2.47 137.431 68.370
2.48 136.388 68.460
2.49 135.664 68.754
2.50 139.044 69.874
2.51 136.252 71.560
2.52 136.300 72.654
2.53 135.730 72.928
2.54 134.581 72.938
2.55 133.953 73.066
2.56 133.205 73.263
2.57 132.496 73.480
2.58 132.444 73.695
2.59 132.441 73.849
2.60 131.488 73.901
2.61 130.735 73.864
2.62 128.940 73.669
2.63 126.115 73.281
2.64 121.207 72.874
2.65 118.689 72.601
2.66 115.177 72.243
2.67 114.130 71.667
2.68 113.294 71.080
2.69 113.807 70.830
2.70 112.650 71.034
2.71 111.267 71.676
2.72 111.397 72.602
2.73 112.895 73.171
2.74 114.783 73.097
2.75 114.031 72.608
2.76 111.687 71.981
2.77 110.902 71.356
2.78 110.730 70.807
2.79 111.530 70.608
2.80 113.217 70.751
2.81 114.054 71.007
2.82 116.320 71.647
2.83 118.038 72.321
2.84 119.160 72.470
2.85 121.712 72.265
2.86 122.649 72.270
2.87 125.990 72.676
2.88 126.262 73.309
2.89 127.685 73.900
2.90 128.368 74.019
2.91 128.182 73.589
2.92 129.604 73.086
2.93 129.793 72.762
2.94 129.274 72.494
2.95 128.684 72.174
2.96 128.350 71.663
2.97 128.374 70.651
2.98 126.042 68.618
2.99 121.823 65.376
3.00 121.069 61.586
3.01 117.088 58.142
3.02 118.642 55.142
3.03 --undefined-- 52.245
3.04 --undefined-- 53.730
3.05 --undefined-- 60.750
3.06 --undefined-- 67.183
3.07 138.459 71.275
3.08 127.022 73.229
3.09 123.874 73.800
3.10 119.468 73.629
3.11 117.504 73.396
3.12 116.295 73.397
3.13 115.603 73.445
3.14 115.112 73.487
3.15 114.784 73.518
3.16 113.737 73.537
3.17 113.940 73.559
3.18 113.075 73.545
3.19 113.008 73.452
3.20 112.128 73.315
3.21 111.394 73.243
3.22 110.196 73.217
3.23 109.907 73.262
3.24 109.057 73.371
3.25 108.886 73.482
3.26 109.760 73.557
3.27 110.839 73.664
3.28 112.197 73.859
3.29 112.484 74.024
3.30 112.139 74.082
3.31 110.872 73.982
3.32 109.453 73.749
3.33 108.993 73.533
3.34 108.799 73.492
3.35 109.539 73.631
3.36 110.423 73.820
3.37 110.720 74.061
3.38 111.542 74.360
3.39 112.216 74.574
3.40 112.615 74.692
3.41 112.975 74.726
3.42 113.111 74.668
3.43 112.608 74.588
3.44 111.853 74.504
3.45 111.213 74.417
3.46 111.374 74.372
3.47 111.521 74.399
3.48 111.979 74.553
3.49 112.521 74.799
3.50 113.990 75.051
3.51 115.993 75.252
3.52 118.379 75.050
3.53 121.855 73.924
3.54 124.371 71.911
3.55 --undefined-- 69.637
3.56 83.993 67.716
3.57 82.215 67.461
3.58 103.440 68.484
3.59 126.457 69.042
3.60 119.271 69.278
3.61 120.339 70.074
3.62 117.961 71.137
3.63 112.675 71.721
3.64 109.952 72.042
3.65 113.316 72.273
3.66 111.073 72.247
3.67 109.398 71.847
3.68 106.423 71.242
3.69 105.254 70.827
3.70 104.591 70.824
3.71 104.464 70.812
3.72 103.483 70.687
3.73 103.173 70.664
3.74 103.344 70.791
3.75 104.205 71.051
3.76 104.428 71.245
3.77 104.553 71.232
3.78 104.256 71.082
3.79 104.271 70.997
3.80 104.895 70.840
3.81 103.948 69.764
3.82 101.553 67.062
3.83 97.541 63.505
3.84 116.322 60.953
3.85 109.585 58.967
3.86 114.629 56.949
3.87 --undefined-- 54.930
3.88 --undefined-- 55.118
3.89 --undefined-- 57.859
3.90 --undefined-- 62.496
3.91 137.929 67.573
3.92 130.008 70.611
3.93 115.219 71.914
3.94 111.911 72.384
3.95 110.540 72.362
3.96 109.548 71.932
3.97 108.551 71.161
3.98 106.224 70.327
3.99 106.091 69.827
4.00 104.836 69.508
4.01 103.948 69.209
4.02 103.592 68.947
4.03 103.203 68.650
4.04 102.704 68.357
4.05 102.564 68.091
4.06 102.460 67.781
4.07 102.188 67.397
4.08 101.879 66.988
4.09 101.824 66.612
4.10 101.777 66.300
4.11 102.470 66.125
4.12 103.325 66.286
4.13 105.071 66.981
4.14 106.060 67.972
4.15 106.524 68.644
4.16 105.757 68.978
4.17 105.311 69.438
4.18 104.752 70.066
4.19 104.995 70.454
4.20 104.071 70.504
4.21 103.810 70.656
4.22 103.358 70.993
4.23 103.357 71.145
4.24 102.272 71.059
4.25 102.584 70.959
4.26 102.042 70.889
4.27 101.980 70.786
4.28 101.673 70.669
4.29 101.502 70.669
4.30 101.577 70.894
4.31 102.639 71.217
4.32 102.568 71.368
4.33 103.169 71.384
4.34 104.307 71.301
4.35 104.916 70.969
4.36 105.924 70.544
4.37 106.096 70.257
4.38 106.177 70.113
4.39 106.491 70.076
4.40 106.692 70.174
4.41 106.796 70.380
4.42 106.091 70.582
4.43 106.024 70.544
4.44 105.654 69.775
4.45 105.081 67.810
4.46 98.479 64.637
4.47 --undefined-- 61.535
4.48 --undefined-- 59.027
4.49 --undefined-- 56.648
4.50 144.258 55.513
4.51 154.510 55.619
4.52 172.773 56.014
4.53 197.539 55.273
4.54 --undefined-- 52.573
4.55 --undefined-- 48.867
4.56 --undefined-- 47.987
4.57 --undefined-- 51.597
4.58 238.525 55.507
4.59 220.497 57.954
4.60 218.435 58.750
4.61 88.204 59.192
4.62 94.331 60.504
4.63 96.815 61.842
4.64 105.115 63.051
4.65 100.595 63.877
4.66 102.600 64.178
4.67 107.061 64.438
4.68 105.607 65.152
4.69 103.684 65.895
4.70 104.220 66.394
4.71 105.312 66.886
4.72 107.113 67.481
4.73 108.457 67.735
4.74 109.376 67.104
4.75 107.209 65.153
4.76 105.183 62.088
4.77 117.845 59.674
4.78 126.147 57.964
4.79 125.020 58.343
4.80 152.788 65.336
4.81 161.965 71.156
4.82 156.430 74.576
4.83 148.939 76.767
4.84 142.675 78.440
4.85 144.073 79.610
4.86 142.561 80.117
4.87 141.194 79.947
4.88 139.522 78.736
4.89 136.435 75.810
4.90 130.022 71.562
4.91 130.325 70.050
4.92 133.539 73.020
4.93 136.006 --undefined--
4.94 136.248 --undefined--
4.95 --undefined-- --undefined--
4.96 --undefined-- --undefined--
