Time Pitch Intensity
0.01 --undefined-- --undefined--
0.02 --undefined-- --undefined--
0.03 --undefined-- --undefined--
0.04 --undefined-- --undefined--
0.05 --undefined-- 50.048
0.06 --undefined-- 52.807
0.07 --undefined-- 59.043
0.08 153.689 64.153
0.09 170.477 67.348
0.10 186.538 69.622
0.11 190.557 71.829
0.12 191.122 73.780
0.13 191.359 74.668
0.14 193.240 74.338
0.15 196.259 73.410
0.16 195.611 72.516
0.17 193.336 71.359
0.18 186.829 69.152
0.19 185.681 66.002
0.20 188.468 62.790
0.21 190.736 59.986
0.22 196.271 57.190
0.23 198.171 53.560
0.24 --undefined-- 48.294
0.25 --undefined-- 42.921
0.26 --undefined-- 47.159
0.27 --undefined-- 58.788
0.28 251.727 67.485
0.29 242.621 72.742
0.30 237.821 75.115
0.31 234.778 75.449
0.32 235.455 75.137
0.33 237.495 75.052
0.34 240.457 75.115
0.35 246.620 75.140
0.36 255.039 75.014
0.37 258.889 74.585
0.38 259.136 73.758
0.39 255.818 72.478
0.40 246.349 70.437
0.41 233.988 67.064
0.42 226.689 61.988
0.43 240.515 55.240
0.44 --undefined-- 49.424
0.45 --undefined-- 49.648
0.46 --undefined-- 56.513
0.47 276.623 65.029
0.48 239.911 70.302
0.49 216.208 72.827
0.50 202.793 73.473
0.51 181.381 73.243
0.52 172.385 73.011
0.53 166.956 72.554
0.54 159.416 72.181
0.55 155.716 72.795
0.56 154.260 73.505
0.57 152.531 73.907
0.58 152.361 74.149
0.59 151.711 73.966
0.60 151.062 73.072
0.61 156.432 71.377
0.62 168.105 68.847
0.63 169.526 65.327
0.64 172.628 62.254
0.65 181.899 62.411
0.66 191.469 64.592
0.67 187.826 67.357
0.68 182.674 70.098
0.69 178.906 72.118
0.70 173.535 72.995
0.71 169.217 73.109
0.72 167.625 73.039
0.73 166.805 72.708
0.74 165.865 71.816
0.75 163.351 70.070
0.76 159.123 67.185
0.77 167.452 63.700
0.78 172.592 61.266
0.79 171.474 60.143
0.80 181.050 61.724
0.81 178.042 65.894
0.82 174.404 69.400
0.83 168.122 71.183
0.84 158.578 71.475
0.85 148.399 71.356
0.86 142.728 71.347
0.87 140.826 71.320
0.88 145.159 71.631
0.89 152.377 72.105
0.90 160.749 72.292
0.91 165.618 72.367
0.92 170.886 72.489
0.93 182.994 72.767
0.94 186.428 73.158
0.95 188.717 73.557
0.96 191.756 73.922
0.97 185.726 74.236
0.98 183.291 74.385
0.99 182.991 74.215
1.00 182.644 73.658
1.01 180.749 72.450
1.02 179.601 70.071
1.03 184.791 66.357
1.04 195.589 61.714
1.05 187.085 55.835
1.06 --undefined-- 48.126
1.07 --undefined-- 42.600
1.08 --undefined-- 42.730
1.09 --undefined-- 44.201
1.10 --undefined-- 45.330
1.11 --undefined-- 46.241
1.12 --undefined-- 46.999
1.13 --undefined-- 46.302
1.14 --undefined-- 44.548
1.15 --undefined-- 43.662
1.16 --undefined-- 43.166
1.17 --undefined-- 41.732
1.18 --undefined-- 39.338
1.19 --undefined-- 37.548
1.20 --undefined-- 38.024
1.21 --undefined-- 38.923
1.22 --undefined-- 38.700
1.23 --undefined-- 36.715
1.24 --undefined-- 34.332
1.25 --undefined-- 35.673
1.26 --undefined-- 38.062
1.27 --undefined-- 39.257
1.28 --undefined-- 38.841
1.29 --undefined-- 36.616
1.30 --undefined-- 34.665
1.31 --undefined-- 37.013
1.32 --undefined-- 40.640
1.33 --undefined-- 43.347
1.34 --undefined-- 45.998
1.35 --undefined-- 50.743
1.36 --undefined-- 59.277
1.37 --undefined-- 65.970
1.38 178.174 69.538
1.39 172.733 71.366
1.40 162.225 72.687
1.41 165.671 73.323
1.42 173.000 73.118
1.43 180.941 72.557
1.44 188.025 72.122
1.45 191.839 71.583
1.46 193.870 70.497
1.47 207.083 69.261
1.48 212.364 68.846
1.49 213.217 68.993
1.50 212.416 69.385
1.51 209.818 69.905
1.52 205.330 70.303
1.53 199.717 70.589
1.54 192.732 70.974
1.55 179.826 71.616
1.56 158.642 72.179
1.57 146.141 71.932
1.58 132.024 70.676
1.59 123.648 69.402
1.60 119.001 69.007
1.61 115.909 68.889
1.62 114.749 68.864
1.63 114.910 69.031
1.64 114.699 69.244
1.65 115.548 69.396
1.66 117.553 69.532
1.67 120.154 69.734
1.68 122.564 69.955
1.69 123.390 70.194
1.70 123.063 70.413
1.71 121.886 70.486
1.72 120.497 70.393
1.73 120.340 70.261
1.74 120.715 70.104
1.75 121.803 69.798
1.76 125.912 69.296
1.77 132.547 69.049
1.78 140.145 69.783
1.79 146.710 71.179
1.80 152.189 72.036
1.81 158.073 72.037
1.82 163.206 71.757
1.83 167.357 71.622
1.84 171.387 71.498
1.85 174.511 71.283
1.86 178.000 71.027
1.87 180.068 70.892
1.88 182.923 71.005
1.89 184.030 71.146
1.90 184.777 71.105
1.91 187.091 70.930
1.92 191.070 70.739
1.93 192.660 70.623
1.94 192.081 70.709
1.95 193.931 70.887
1.96 194.756 70.805
1.97 190.624 70.465
1.98 184.852 70.267
1.99 179.707 70.336
2.00 173.862 70.248
2.01 168.387 69.927
2.02 162.133 69.757
2.03 154.484 69.749
2.04 150.520 69.771
2.05 147.053 69.759
2.06 142.387 69.773
2.07 139.554 69.854
2.08 137.581 69.868
2.09 137.038 69.782
2.10 137.752 69.762
2.11 137.007 70.129
2.12 133.170 70.645
2.13 131.362 70.773
2.14 133.799 70.426
2.15 136.998 69.838
2.16 139.110 69.008
2.17 139.776 67.784
2.18 138.775 66.521
2.19 141.079 66.105
2.20 149.869 66.950
2.21 159.760 68.572
2.22 159.788 70.140
2.23 155.825 71.103
2.24 130.234 71.344
2.25 124.284 70.921
2.26 123.938 70.230
2.27 123.486 69.967
2.28 122.724 70.235
2.29 121.810 70.638
2.30 121.600 70.928
2.31 122.763 70.983
2.32 125.041 70.987
2.33 128.279 71.311
2.34 131.694 71.725
2.35 136.493 71.608
2.36 142.222 70.364
2.37 140.329 67.539
2.38 148.625 63.516
2.39 161.179 60.206
2.40 167.309 58.262
2.41 178.393 56.593
2.42 189.468 54.491
2.43 192.436 51.885
2.44 --undefined-- 50.711
2.45 --undefined-- 56.406
2.46 --undefined-- 62.194
2.47 151.422 65.871
2.48 146.467 67.823
2.49 144.065 68.603
2.50 142.997 68.499
2.51 141.862 67.781
2.52 146.530 67.383
2.53 150.497 67.613
2.54 155.454 67.844
2.55 171.841 68.186
2.56 179.973 68.582
2.57 184.464 68.674
2.58 189.252 68.349
2.59 194.136 67.595
2.60 197.999 66.271
2.61 201.003 65.004
2.62 198.850 65.200
2.63 186.887 66.291
2.64 168.001 67.397
2.65 159.385 68.521
2.66 151.600 69.482
2.67 149.198 70.061
2.68 143.671 70.331
2.69 144.997 70.486
2.70 148.421 70.529
2.71 150.678 70.340
2.72 152.372 69.801
2.73 153.621 69.112
2.74 158.482 68.700
2.75 159.029 68.433
2.76 157.010 68.015
2.77 158.203 67.917
2.78 162.916 68.470
2.79 167.416 69.341
2.80 166.291 70.126
2.81 157.465 70.672
2.82 149.526 70.956
2.83 145.038 70.881
2.84 141.747 70.639
2.85 139.722 70.529
2.86 141.136 70.494
2.87 142.848 70.067
2.88 140.319 68.380
2.89 138.832 64.773
2.90 150.355 59.281
2.91 --undefined-- 52.245
2.92 --undefined-- 44.425
2.93 --undefined-- 43.182
2.94 --undefined-- 45.372
2.95 --undefined-- 48.119
2.96 --undefined-- 52.342
2.97 --undefined-- 55.478
2.98 --undefined-- 56.424
2.99 --undefined-- 55.489
3.00 --undefined-- 54.318
3.01 --undefined-- 54.805
3.02 --undefined-- 59.380
3.03 182.486 65.319
3.04 160.279 68.815
3.05 153.898 70.464
3.06 147.713 71.107
3.07 144.287 70.933
3.08 140.951 70.280
3.09 136.076 69.622
3.10 131.476 69.163
3.11 128.867 68.911
3.12 127.159 68.636
3.13 126.643 68.301
3.14 126.779 68.028
3.15 128.201 67.730
3.16 131.787 67.390
3.17 136.532 67.228
3.18 139.127 67.345
3.19 140.271 67.438
3.20 140.743 67.410
3.21 139.092 67.286
3.22 136.478 66.594
3.23 134.744 65.011
3.24 136.429 63.019
3.25 135.970 61.365
3.26 135.869 60.304
3.27 137.554 59.800
3.28 138.434 59.725
3.29 138.193 60.181
3.30 133.743 61.431
3.31 128.632 63.178
3.32 126.028 64.450
3.33 122.681 64.879
3.34 114.096 64.862
3.35 --undefined-- 64.434
3.36 74.636 62.999
3.37 75.199 60.773
3.38 --undefined-- 58.101
3.39 --undefined-- 56.488
3.40 --undefined-- 56.896
3.41 --undefined-- 57.851
3.42 --undefined-- 60.970
3.43 --undefined-- 62.919
3.44 --undefined-- 63.755
3.45 103.179 64.203
3.46 108.336 64.660
3.47 114.618 65.395
3.48 109.549 65.845
3.49 109.746 65.595
3.50 110.891 64.775
3.51 109.927 63.504
3.52 108.501 61.600
3.53 105.653 58.733
3.54 104.966 54.616
3.55 --undefined-- 49.219
3.56 --undefined-- 44.454
3.57 --undefined-- 42.635
3.58 --undefined-- 41.037
3.59 --undefined-- 39.998
3.60 --undefined-- 39.915
3.61 --undefined-- 39.314
3.62 --undefined-- 39.052
3.63 --undefined-- 40.192
3.64 --undefined-- 46.787
3.65 --undefined-- 54.169
3.66 137.396 58.907
3.67 122.056 61.643
3.68 126.510 63.419
3.69 121.350 64.726
3.70 122.854 65.752
3.71 123.750 66.525
3.72 129.570 66.832
3.73 131.905 66.703
3.74 131.317 66.322
3.75 130.960 65.616
3.76 126.541 64.512
3.77 120.521 64.064
3.78 120.678 64.835
3.79 118.499 65.291
3.80 115.301 65.444
3.81 110.727 65.621
3.82 106.489 65.538
3.83 102.607 64.974
3.84 100.234 64.143
3.85 99.196 63.661
3.86 98.083 63.737
3.87 96.601 63.601
3.88 97.352 62.784
3.89 99.578 61.088
3.90 101.714 57.850
3.91 100.645 52.173
3.92 --undefined-- 44.683
3.93 --undefined-- 41.086
3.94 --undefined-- 41.631
3.95 --undefined-- 44.032
3.96 --undefined-- 48.142
3.97 --undefined-- 54.355
3.98 --undefined-- 61.176
3.99 --undefined-- 65.415
4.00 169.274 67.053
4.01 163.805 66.746
4.02 156.135 64.663
4.03 147.903 60.653
4.04 174.794 55.369
4.05 --undefined-- 49.672
4.06 --undefined-- 44.826
4.07 --undefined-- 42.858
4.08 --undefined-- 41.414
4.09 --undefined-- 39.233
4.10 --undefined-- 37.359
4.11 --undefined-- 35.585
4.12 --undefined-- 36.405
4.13 --undefined-- 38.765
4.14 --undefined-- 41.427
4.15 --undefined-- 45.026
4.16 --undefined-- 46.636
4.17 --undefined-- 50.225
4.18 --undefined-- 58.314
4.19 --undefined-- 63.350
4.20 --undefined-- 65.298
4.21 --undefined-- 65.147
4.22 98.178 64.130
4.23 97.078 63.476
4.24 107.860 63.703
4.25 97.747 64.344
4.26 86.687 64.807
4.27 88.932 65.131
4.28 92.068 65.086
4.29 80.643 64.625
4.30 87.034 64.213
4.31 86.585 63.943
4.32 94.144 64.140
4.33 94.361 64.402
4.34 94.242 64.205
4.35 100.421 63.788
4.36 101.786 63.515
4.37 111.715 63.689
4.38 111.571 64.529
4.39 112.713 65.436
4.40 114.811 65.863
4.41 119.660 65.896
4.42 123.682 65.687
4.43 123.928 65.511
4.44 122.413 65.463
4.45 121.084 65.098
4.46 119.918 64.176
4.47 118.701 62.712
4.48 126.071 60.819
4.49 119.764 59.183
4.50 129.427 58.364
4.51 125.073 57.328
4.52 129.184 55.190
4.53 127.810 51.246
4.54 --undefined-- 45.750
4.55 --undefined-- 43.297
4.56 --undefined-- 42.987
4.57 --undefined-- 41.774
4.58 --undefined-- 41.876
4.59 --undefined-- 43.591
4.60 --undefined-- 45.728
4.61 --undefined-- 48.403
4.62 --undefined-- 56.549
4.63 --undefined-- 63.324
4.64 182.491 66.930
4.65 179.152 68.141
4.66 173.118 68.160
4.67 171.582 67.873
4.68 170.759 67.620
4.69 175.555 67.564
4.70 189.885 67.759
4.71 193.259 67.942
4.72 195.421 68.173
4.73 196.357 68.480
4.74 196.608 68.703
4.75 198.138 68.746
4.76 198.189 68.497
4.77 197.825 68.002
4.78 197.973 67.453
4.79 195.666 67.051
4.80 189.814 66.953
4.81 182.238 67.258
4.82 172.496 67.771
4.83 164.569 67.959
4.84 149.262 67.519
4.85 136.557 66.686
4.86 133.978 65.814
4.87 133.929 64.906
4.88 134.915 63.663
4.89 136.213 61.216
4.90 137.178 56.984
4.91 --undefined-- 50.979
4.92 --undefined-- 44.932
4.93 --undefined-- 42.477
4.94 --undefined-- 43.242
4.95 --undefined-- 51.306
4.96 --undefined-- 60.347
4.97 --undefined-- 65.745
4.98 --undefined-- 68.036
4.99 --undefined-- 67.986
5.00 103.676 66.448
5.01 94.327 64.401
5.02 87.630 62.670
5.03 85.842 61.590
5.04 86.117 60.930
5.05 84.991 60.522
5.06 86.240 60.457
5.07 89.980 60.493
5.08 92.856 60.465
5.09 107.135 60.839
5.10 109.506 61.361
5.11 110.819 61.633
5.12 109.596 61.922
5.13 110.284 62.355
5.14 111.577 62.883
5.15 111.823 63.451
5.16 111.990 64.205
5.17 109.601 64.907
5.18 108.984 65.112
5.19 108.952 64.740
5.20 112.118 64.489
5.21 110.902 64.727
5.22 104.363 64.606
5.23 104.281 63.930
5.24 105.296 63.174
5.25 110.405 62.611
5.26 111.266 62.378
5.27 112.606 62.642
5.28 118.542 63.234
5.29 120.177 63.853
5.30 118.470 64.435
5.31 118.438 64.889
5.32 120.000 --undefined--
5.33 125.859 --undefined--
5.34 --undefined-- --undefined--
5.35 --undefined-- --undefined--
