Time Pitch Intensity
0.01 --undefined-- --undefined--
0.02 260.146 --undefined--
0.03 261.512 --undefined--
0.04 255.959 --undefined--
0.05 253.285 58.814
0.06 --undefined-- 57.523
0.07 --undefined-- 56.261
0.08 211.875 60.736
0.09 215.701 66.129
0.10 219.299 69.714
0.11 215.406 71.835
0.12 211.474 73.181
0.13 206.451 73.946
0.14 201.134 73.928
0.15 196.513 73.341
0.16 193.020 72.688
0.17 190.150 72.280
0.18 186.769 72.135
0.19 183.364 72.265
0.20 181.339 72.676
0.21 179.949 73.112
0.22 179.632 73.493
0.23 180.818 73.768
0.24 181.309 73.742
0.25 180.922 73.388
0.26 179.917 72.612
0.27 177.761 71.277
0.28 175.475 69.847
0.29 181.224 70.051
0.30 183.414 71.584
0.31 179.223 72.493
0.32 177.011 72.784
0.33 172.530 73.176
0.34 170.403 73.595
0.35 167.938 73.484
0.36 165.589 72.671
0.37 162.793 71.802
0.38 166.587 71.813
0.39 167.125 72.154
0.40 167.908 72.407
0.41 168.358 72.533
0.42 168.244 72.511
0.43 167.777 72.491
0.44 168.203 72.629
0.45 168.846 72.841
0.46 169.300 72.973
0.47 170.052 73.023
0.48 170.865 73.042
0.49 171.143 72.987
0.50 170.941 72.754
0.51 170.602 72.220
0.52 169.399 71.532
0.53 171.197 71.438
0.54 169.297 72.348
0.55 167.525 73.338
0.56 166.736 73.825
0.57 165.992 73.925
0.58 165.802 73.855
0.59 165.917 73.727
0.60 165.515 73.626
0.61 165.119 73.604
0.62 164.724 73.695
0.63 164.403 73.935
0.64 164.043 74.245
0.65 163.914 74.479
0.66 163.789 74.540
0.67 163.389 74.316
0.68 162.329 73.764
0.69 161.154 72.957
0.70 160.704 72.049
0.71 160.594 71.236
0.72 161.053 70.688
0.73 162.996 70.433
0.74 165.649 70.320
0.75 168.754 70.213
0.76 169.825 69.800
0.77 167.872 68.439
0.78 168.540 65.799
0.79 --undefined-- 62.303
0.80 --undefined-- 58.484
0.81 --undefined-- 54.231
0.82 --undefined-- 49.083
0.83 --undefined-- 43.528
0.84 --undefined-- 39.977
0.85 --undefined-- 39.000
0.86 --undefined-- 40.043
0.87 --undefined-- 40.170
0.88 --undefined-- 40.170
0.89 --undefined-- 41.189
0.90 --undefined-- 40.612
0.91 --undefined-- 39.632
0.92 --undefined-- 40.305
0.93 --undefined-- 41.289
0.94 --undefined-- 42.113
0.95 --undefined-- 42.093
0.96 --undefined-- 42.495
0.97 --undefined-- 44.841
0.98 --undefined-- 46.907
0.99 --undefined-- 53.439
1.00 194.317 61.825
1.01 189.159 66.829
1.02 182.323 68.903
1.03 177.154 68.953
1.04 173.724 67.568
1.05 168.931 64.394
1.06 --undefined-- 58.898
1.07 --undefined-- 51.188
1.08 --undefined-- 43.299
1.09 --undefined-- 40.849
1.10 --undefined-- 41.413
1.11 --undefined-- 42.263
1.12 --undefined-- 43.469
1.13 --undefined-- 49.574
1.14 --undefined-- 59.448
1.15 199.737 66.173
1.16 194.265 69.745
1.17 189.053 71.154
1.18 186.209 71.544
1.19 185.069 71.651
1.20 183.634 71.646
1.21 182.780 71.692
1.22 182.490 71.730
1.23 183.064 71.709
1.24 183.799 71.808
1.25 183.864 72.030
1.26 183.671 72.122
1.27 183.882 71.863
1.28 184.421 71.399
1.29 186.152 71.075
1.30 186.909 70.952
1.31 187.697 70.748
1.32 185.497 70.072
1.33 181.706 68.625
1.34 --undefined-- 66.135
1.35 --undefined-- 62.469
1.36 --undefined-- 57.667
1.37 --undefined-- 52.040
1.38 --undefined-- 47.455
1.39 --undefined-- 47.498
1.40 --undefined-- 51.231
1.41 --undefined-- 54.516
1.42 --undefined-- 55.552
1.43 --undefined-- 54.991
1.44 --undefined-- 54.145
1.45 --undefined-- 55.523
1.46 --undefined-- 61.846
1.47 193.295 67.011
1.48 182.169 69.473
1.49 178.507 70.209
1.50 175.503 70.240
1.51 175.567 69.984
1.52 178.650 69.633
1.53 185.454 69.211
1.54 192.357 68.937
1.55 202.062 69.476
1.56 215.220 71.032
1.57 225.523 72.623
1.58 230.496 73.036
1.59 231.700 72.347
1.60 236.200 71.711
1.61 236.826 70.956
1.62 234.923 69.016
1.63 232.910 65.600
1.64 204.916 61.166
1.65 --undefined-- 57.028
1.66 --undefined-- 54.014
1.67 --undefined-- 51.842
1.68 --undefined-- 49.717
1.69 --undefined-- 48.606
1.70 --undefined-- 48.999
1.71 --undefined-- 55.781
1.72 227.507 63.994
1.73 197.802 68.804
1.74 192.107 70.994
1.75 184.665 71.672
1.76 177.818 71.566
1.77 172.132 71.179
1.78 168.061 70.912
1.79 165.970 70.877
1.80 164.701 70.960
1.81 163.964 70.992
1.82 163.864 70.930
1.83 163.711 70.840
1.84 163.866 70.687
1.85 164.603 70.367
1.86 166.145 70.167
1.87 167.827 70.346
1.88 167.993 70.526
1.89 168.117 70.469
1.90 169.556 70.168
1.91 172.097 69.443
1.92 172.088 68.090
1.93 169.160 66.210
1.94 152.676 64.167
1.95 134.051 62.572
1.96 116.688 61.394
1.97 114.920 60.199
1.98 --undefined-- 60.819
1.99 154.437 63.795
2.00 155.637 66.179
2.01 155.364 66.967
2.02 148.484 66.566
2.03 143.457 65.634
2.04 137.190 64.359
2.05 136.606 63.331
2.06 133.979 63.222
2.07 131.440 64.153
2.08 132.012 65.312
2.09 133.818 66.135
2.10 137.014 66.762
2.11 140.311 67.188
2.12 143.370 67.289
2.13 145.427 66.854
2.14 144.666 65.392
2.15 140.663 62.381
2.16 135.314 57.347
2.17 --undefined-- 49.989
2.18 --undefined-- 44.847
2.19 --undefined-- 52.842
2.20 --undefined-- 62.018
2.21 172.235 67.388
2.22 167.213 69.575
2.23 158.410 69.849
2.24 156.139 69.932
2.25 155.590 70.409
2.26 154.776 70.676
2.27 154.784 70.507
2.28 155.683 69.913
2.29 156.599 69.040
2.30 158.031 68.228
2.31 160.202 67.561
2.32 160.382 66.357
2.33 156.654 63.687
2.34 153.953 59.188
2.35 --undefined-- 52.977
2.36 --undefined-- 49.973
2.37 286.027 53.744
2.38 285.117 55.444
2.39 --undefined-- 55.127
2.40 --undefined-- 56.107
2.41 --undefined-- 58.218
2.42 --undefined-- 59.240
2.43 --undefined-- 58.856
2.44 --undefined-- 59.182
2.45 167.587 62.345
2.46 166.238 65.188
2.47 173.043 66.691
2.48 177.291 67.526
2.49 182.846 68.110
2.50 191.016 68.474
2.51 199.989 68.578
2.52 204.671 68.513
2.53 211.552 68.563
2.54 216.156 68.848
2.55 222.553 69.256
2.56 227.397 69.636
2.57 230.768 69.837
2.58 232.559 69.900
2.59 230.878 70.065
2.60 225.566 70.294
2.61 219.506 70.395
2.62 209.998 70.352
2.63 203.364 70.259
2.64 194.247 70.077
2.65 185.079 69.844
2.66 181.722 69.625
2.67 178.338 68.927
2.68 174.568 66.948
2.69 169.219 63.323
2.70 174.765 57.932
2.71 --undefined-- 50.487
2.72 --undefined-- 47.074
2.73 --undefined-- 52.997
2.74 --undefined-- 61.718
2.75 --undefined-- 68.087
2.76 186.334 71.156
2.77 176.218 72.064
2.78 172.954 72.228
2.79 171.410 72.063
2.80 170.160 71.453
2.81 169.687 70.746
2.82 169.552 70.239
2.83 168.337 69.802
2.84 167.550 69.479
2.85 167.488 69.401
2.86 166.857 69.555
2.87 166.359 69.728
2.88 164.736 69.731
2.89 162.337 69.506
2.90 158.595 69.191
2.91 155.848 69.041
2.92 154.552 68.977
2.93 152.735 68.832
2.94 150.215 69.055
2.95 152.895 69.556
2.96 152.387 69.800
2.97 151.637 69.788
2.98 151.740 69.701
2.99 152.985 69.655
3.00 153.405 69.592
3.01 154.403 69.591
3.02 154.789 69.684
3.03 155.840 69.545
3.04 155.987 69.077
3.05 155.735 68.538
3.06 156.191 68.326
3.07 154.391 68.319
3.08 152.518 68.065
3.09 151.251 67.855
3.10 151.349 67.921
3.11 151.487 68.291
3.12 151.281 68.942
3.13 151.084 69.533
3.14 150.491 69.872
3.15 149.712 69.945
3.16 148.593 69.820
3.17 147.579 69.622
3.18 146.630 69.375
3.19 145.410 69.069
3.20 144.532 68.754
3.21 143.691 68.344
3.22 142.383 67.622
3.23 141.174 66.601
3.24 139.191 65.327
3.25 134.567 63.601
3.26 131.645 61.471
3.27 --undefined-- 58.947
3.28 --undefined-- 54.828
3.29 --undefined-- 48.724
3.30 --undefined-- 44.604
3.31 --undefined-- 42.264
3.32 --undefined-- 38.924
3.33 --undefined-- 37.243
3.34 --undefined-- 38.354
3.35 --undefined-- 39.121
3.36 --undefined-- 39.411
3.37 --undefined-- 39.051
3.38 --undefined-- 38.036
3.39 --undefined-- 37.692
3.40 --undefined-- 37.973
3.41 --undefined-- 37.722
3.42 --undefined-- 37.096
3.43 --undefined-- 37.633
3.44 --undefined-- 38.127
3.45 --undefined-- 39.049
3.46 --undefined-- 41.917
3.47 --undefined-- 42.676
3.48 --undefined-- 40.580
3.49 --undefined-- 38.472
3.50 --undefined-- 39.488
3.51 --undefined-- 40.759
3.52 --undefined-- 40.543
3.53 --undefined-- 39.199
3.54 --undefined-- 37.569
3.55 --undefined-- 36.710
3.56 --undefined-- 37.864
3.57 --undefined-- 40.198
3.58 --undefined-- 41.379
3.59 --undefined-- 42.069
3.60 --undefined-- 42.879
3.61 --undefined-- 42.812
3.62 --undefined-- 41.671
3.63 --undefined-- 40.330
3.64 --undefined-- 41.177
3.65 --undefined-- 42.770
3.66 --undefined-- 42.103
3.67 --undefined-- 39.699
3.68 --undefined-- 38.657
3.69 --undefined-- 39.349
3.70 --undefined-- 39.692
3.71 --undefined-- 38.770
3.72 --undefined-- 38.119
3.73 --undefined-- 38.405
3.74 --undefined-- 39.318
3.75 --undefined-- 41.096
3.76 --undefined-- 42.515
3.77 --undefined-- 42.625
3.78 --undefined-- 41.537
3.79 --undefined-- 41.190
3.80 --undefined-- 41.911
3.81 --undefined-- 41.943
3.82 --undefined-- 41.370
3.83 --undefined-- 40.266
3.84 --undefined-- 38.775
3.85 --undefined-- 39.103
3.86 --undefined-- 39.899
3.87 --undefined-- 39.722
3.88 --undefined-- 39.562
3.89 --undefined-- 39.340
3.90 --undefined-- 39.923
3.91 --undefined-- 39.666
3.92 --undefined-- 37.794
3.93 --undefined-- 37.285
3.94 --undefined-- 39.359
3.95 --undefined-- 41.182
3.96 --undefined-- 40.491
3.97 --undefined-- 38.701
3.98 --undefined-- 39.468
3.99 --undefined-- 41.609
4.00 --undefined-- 46.433
4.01 --undefined-- 50.585
4.02 --undefined-- 52.308
4.03 --undefined-- 52.663
4.04 --undefined-- 56.452
4.05 221.626 64.389
4.06 210.562 69.586
4.07 199.895 71.910
4.08 193.310 72.613
4.09 191.870 72.647
4.10 191.370 72.273
4.11 190.323 71.490
4.12 189.001 70.085
4.13 186.541 68.242
4.14 184.003 66.849
4.15 184.694 66.807
4.16 186.718 68.029
4.17 188.093 69.711
4.18 187.925 71.228
4.19 184.127 72.302
4.20 181.080 72.838
4.21 178.480 72.829
4.22 175.816 72.539
4.23 174.435 72.321
4.24 173.688 72.102
4.25 173.091 71.671
4.26 172.305 71.055
4.27 171.774 70.547
4.28 171.518 70.284
4.29 171.424 70.163
4.30 171.455 70.099
4.31 171.412 70.002
4.32 171.321 69.879
4.33 170.885 69.694
4.34 170.614 69.419
4.35 170.166 68.969
4.36 168.061 68.136
4.37 162.428 66.645
4.38 --undefined-- 64.430
4.39 --undefined-- 60.930
4.40 --undefined-- 54.903
4.41 --undefined-- 46.316
4.42 --undefined-- 41.294
4.43 --undefined-- 40.444
4.44 --undefined-- 41.263
4.45 --undefined-- 41.351
4.46 --undefined-- 40.647
4.47 --undefined-- 39.809
4.48 --undefined-- 40.612
4.49 --undefined-- 41.582
4.50 --undefined-- 41.684
4.51 --undefined-- 39.975
4.52 --undefined-- 37.534
4.53 --undefined-- 38.755
4.54 --undefined-- 41.290
4.55 --undefined-- 41.631
4.56 --undefined-- 40.024
4.57 --undefined-- 38.835
4.58 --undefined-- 38.189
4.59 --undefined-- 37.972
4.60 --undefined-- 37.874
4.61 --undefined-- 37.536
4.62 --undefined-- 37.790
4.63 --undefined-- 37.989
4.64 --undefined-- 37.971
4.65 --undefined-- 38.083
4.66 --undefined-- 37.958
4.67 --undefined-- 37.385
4.68 --undefined-- 36.517
4.69 --undefined-- 37.433
4.70 --undefined-- 38.742
4.71 --undefined-- 39.548
4.72 --undefined-- 40.235
4.73 --undefined-- 40.304
4.74 --undefined-- 40.707
4.75 --undefined-- 44.677
4.76 --undefined-- 55.071
4.77 240.556 63.793
4.78 253.494 69.338
4.79 253.898 72.306
4.80 254.861 73.546
4.81 257.978 74.050
4.82 262.832 74.573
4.83 266.896 75.203
4.84 267.205 75.397
4.85 261.835 74.725
4.86 257.811 73.170
4.87 258.031 70.928
4.88 257.996 68.888
4.89 252.198 68.015
4.90 242.794 68.372
4.91 236.148 69.843
4.92 233.153 71.689
4.93 227.340 72.997
4.94 212.516 73.568
4.95 200.752 73.870
4.96 194.099 73.772
4.97 188.652 73.212
4.98 184.972 72.613
4.99 182.546 72.022
5.00 181.521 71.527
5.01 180.265 71.497
5.02 179.357 71.901
5.03 179.769 72.326
5.04 181.244 72.702
5.05 182.989 72.963
5.06 183.734 72.931
5.07 183.948 72.559
5.08 183.297 71.750
5.09 181.535 70.832
5.10 187.143 70.927
5.11 188.647 71.683
5.12 186.165 71.918
5.13 181.147 71.912
5.14 177.156 72.133
5.15 174.017 72.304
5.16 171.420 72.165
5.17 169.792 71.655
5.18 168.155 70.737
5.19 167.372 70.309
5.20 171.733 70.790
5.21 171.157 71.201
5.22 171.584 71.421
5.23 172.600 71.623
5.24 173.697 71.859
5.25 174.308 72.106
5.26 174.797 72.316
5.27 175.235 72.380
5.28 174.861 72.232
5.29 174.001 71.888
5.30 174.623 71.470
5.31 175.135 71.274
5.32 171.481 71.447
5.33 169.048 71.636
5.34 167.061 71.616
5.35 165.752 71.467
5.36 165.289 71.301
5.37 165.061 71.134
5.38 165.108 70.921
5.39 165.117 70.760
5.40 165.108 70.780
5.41 165.188 70.983
5.42 165.710 71.341
5.43 166.177 71.820
5.44 166.160 72.274
5.45 165.994 72.603
5.46 165.984 72.769
5.47 166.051 72.717
5.48 166.054 72.481
5.49 166.641 72.190
5.50 167.564 71.873
5.51 169.186 71.469
5.52 168.709 70.914
5.53 161.020 69.798
5.54 --undefined-- 67.498
5.55 --undefined-- 64.013
5.56 --undefined-- 59.407
5.57 --undefined-- 53.458
5.58 --undefined-- 47.736
5.59 --undefined-- 46.779
5.60 --undefined-- 49.147
5.61 --undefined-- 50.983
5.62 --undefined-- 51.296
5.63 --undefined-- 50.311
5.64 --undefined-- 49.141
5.65 --undefined-- 49.066
5.66 --undefined-- 50.724
5.67 --undefined-- 52.932
5.68 195.104 53.500
5.69 190.544 54.926
5.70 192.140 62.270
5.71 194.665 68.005
5.72 196.174 71.108
5.73 201.047 72.786
5.74 207.887 73.730
5.75 215.307 73.971
5.76 224.281 73.872
5.77 232.846 73.812
5.78 238.606 73.499
5.79 252.444 72.955
5.80 262.859 72.527
5.81 268.141 72.335
5.82 270.708 72.824
5.83 265.330 73.633
5.84 256.707 74.076
5.85 246.964 74.089
5.86 234.459 73.700
5.87 215.698 73.110
5.88 200.778 72.390
5.89 180.508 71.580
5.90 169.262 71.067
5.91 159.816 70.712
5.92 154.041 70.192
5.93 151.438 69.653
5.94 150.963 69.177
5.95 150.753 68.727
5.96 151.508 68.288
5.97 152.120 67.767
5.98 152.806 67.195
5.99 152.341 66.325
6.00 151.071 64.593
6.01 151.188 61.399
6.02 --undefined-- 56.163
6.03 --undefined-- 50.287
6.04 --undefined-- 49.450
6.05 --undefined-- 51.254
6.06 --undefined-- 52.388
6.07 --undefined-- 52.546
6.08 --undefined-- 53.252
6.09 --undefined-- --undefined--
6.10 254.078 --undefined--
6.11 --undefined-- --undefined--
6.12 --undefined-- --undefined--
