Time Pitch Intensity
0.01 --undefined-- --undefined--
0.02 114.640 --undefined--
0.03 111.037 --undefined--
0.04 108.986 --undefined--
0.05 107.252 53.185
0.06 104.283 53.115
0.07 104.091 53.057
0.08 103.416 52.680
0.09 102.263 52.582
0.10 104.751 55.093
0.11 107.777 58.919
0.12 103.525 62.406
0.13 109.740 66.006
0.14 112.394 68.631
0.15 117.834 70.567
0.16 124.588 72.039
0.17 132.923 73.091
0.18 139.287 73.784
0.19 145.007 74.138
0.20 146.434 74.229
0.21 149.760 73.953
0.22 153.779 73.288
0.23 156.241 72.258
0.24 156.422 71.094
0.25 155.435 70.265
0.26 155.425 69.811
0.27 154.339 69.489
0.28 152.699 69.343
0.29 151.660 68.980
0.30 148.896 67.834
0.31 146.617 65.518
0.32 --undefined-- 61.288
0.33 --undefined-- 55.108
0.34 --undefined-- 49.991
0.35 --undefined-- 47.213
0.36 --undefined-- 45.575
0.37 --undefined-- 47.535
0.38 --undefined-- 54.615
0.39 --undefined-- 62.930
0.40 --undefined-- 68.907
0.41 --undefined-- 72.264
0.42 --undefined-- 73.728
0.43 --undefined-- 73.282
0.44 --undefined-- 70.469
0.45 --undefined-- 66.823
0.46 --undefined-- 67.959
0.47 135.029 71.338
0.48 131.664 73.131
0.49 124.257 73.536
0.50 120.978 73.692
0.51 119.542 74.098
0.52 118.445 74.649
0.53 117.497 74.991
0.54 116.161 74.798
0.55 114.463 74.246
0.56 113.289 73.719
0.57 114.075 73.687
0.58 115.886 73.946
0.59 116.748 73.905
0.60 116.569 73.367
0.61 116.643 72.455
0.62 116.456 71.460
0.63 116.174 70.385
0.64 116.607 69.270
0.65 117.235 68.156
0.66 116.991 66.699
0.67 116.065 64.455
0.68 115.451 61.136
0.69 116.718 57.890
0.70 116.709 57.003
0.71 115.485 57.012
0.72 114.726 57.190
0.73 114.569 57.503
0.74 114.792 57.824
0.75 113.691 58.232
0.76 112.139 62.183
0.77 --undefined-- 68.324
0.78 --undefined-- 71.946
0.79 103.520 72.655
0.80 101.149 71.423
0.81 98.048 70.069
0.82 97.400 69.558
0.83 97.360 69.390
0.84 96.933 69.031
0.85 96.380 68.712
0.86 96.090 68.547
0.87 96.141 68.207
0.88 95.628 68.022
0.89 96.325 68.307
0.90 97.421 68.760
0.91 98.081 69.092
0.92 97.395 68.868
0.93 96.380 68.133
0.94 95.964 67.056
0.95 92.017 65.299
0.96 95.591 63.128
0.97 92.623 60.879
0.98 94.700 58.406
0.99 94.614 55.572
1.00 --undefined-- 51.811
1.01 --undefined-- 47.710
1.02 --undefined-- 45.803
1.03 --undefined-- 45.065
1.04 --undefined-- 44.645
1.05 --undefined-- 48.654
1.06 --undefined-- 54.996
1.07 --undefined-- 59.779
1.08 --undefined-- 62.865
1.09 --undefined-- 64.987
1.10 --undefined-- 67.169
1.11 108.759 68.743
1.12 108.821 69.092
1.13 --undefined-- 68.561
1.14 --undefined-- 68.452
1.15 91.633 69.566
1.16 92.414 70.479
1.17 94.747 70.416
1.18 97.271 69.874
1.19 100.462 69.706
1.20 103.880 69.844
1.21 106.223 69.970
1.22 108.575 69.877
1.23 114.090 70.084
1.24 117.253 70.177
1.25 118.930 69.523
1.26 120.300 67.900
1.27 120.311 64.608
1.28 --undefined-- 58.792
1.29 --undefined-- 51.312
1.30 --undefined-- 47.169
1.31 --undefined-- 49.542
1.32 --undefined-- 58.030
1.33 --undefined-- 65.844
1.34 --undefined-- 70.622
1.35 --undefined-- 72.327
1.36 107.130 72.152
1.37 105.530 71.551
1.38 105.886 70.457
1.39 108.985 69.155
1.40 109.420 68.484
1.41 110.832 67.662
1.42 114.078 66.857
1.43 118.971 66.085
1.44 118.750 64.067
1.45 118.383 60.165
1.46 --undefined-- 54.574
1.47 --undefined-- 49.888
1.48 --undefined-- 54.994
1.49 --undefined-- 60.592
1.50 --undefined-- 62.628
1.51 --undefined-- 61.361
1.52 --undefined-- 58.261
1.53 --undefined-- 57.002
1.54 --undefined-- 59.810
1.55 112.341 63.300
1.56 112.719 66.284
1.57 112.103 68.486
1.58 105.484 69.612
1.59 99.946 70.019
1.60 96.230 70.241
1.61 92.922 70.186
1.62 93.942 69.669
1.63 94.545 68.815
1.64 94.219 67.455
1.65 95.332 65.540
1.66 99.548 64.138
1.67 100.146 64.008
1.68 102.862 64.177
1.69 104.122 64.187
1.70 105.658 64.825
1.71 108.432 67.269
1.72 111.107 69.958
1.73 109.046 71.417
1.74 108.622 71.701
1.75 109.209 71.217
1.76 110.332 70.516
1.77 111.443 69.777
1.78 111.719 69.112
1.79 112.143 68.749
1.80 112.312 68.510
1.81 112.883 67.977
1.82 113.945 67.185
1.83 115.305 66.151
1.84 119.121 64.680
1.85 121.451 62.567
1.86 123.279 60.037
1.87 128.971 57.975
1.88 129.456 56.443
1.89 --undefined-- 54.043
1.90 --undefined-- 50.331
1.91 --undefined-- 46.626
1.92 --undefined-- 44.981
1.93 --undefined-- 44.923
1.94 --undefined-- 53.417
1.95 --undefined-- 63.121
1.96 288.987 68.192
1.97 289.748 69.205
1.98 --undefined-- 67.106
1.99 98.761 63.673
2.00 105.094 61.026
2.01 109.386 59.960
2.02 105.249 58.830
2.03 102.499 56.739
2.04 102.680 54.754
2.05 101.824 53.823
2.06 101.650 53.530
2.07 98.516 54.516
2.08 96.109 56.577
2.09 96.016 58.444
2.10 98.453 59.978
2.11 98.230 61.458
2.12 99.323 62.765
2.13 99.879 63.575
2.14 100.683 64.119
2.15 100.261 64.869
2.16 101.474 65.523
2.17 100.836 66.081
2.18 101.694 66.765
2.19 102.294 67.413
2.20 102.862 67.769
2.21 103.694 67.643
2.22 104.191 66.931
2.23 105.294 65.864
2.24 105.494 65.105
2.25 103.646 64.873
2.26 102.829 64.595
2.27 --undefined-- 63.752
2.28 87.959 62.552
2.29 80.958 60.751
2.30 79.821 57.759
2.31 --undefined-- 54.343
2.32 --undefined-- 50.894
2.33 --undefined-- 46.972
2.34 --undefined-- 43.001
2.35 --undefined-- 41.124
2.36 --undefined-- 42.459
2.37 --undefined-- 43.197
2.38 --undefined-- 42.694
2.39 --undefined-- 41.834
2.40 --undefined-- 41.033
2.41 --undefined-- 41.252
2.42 --undefined-- 42.611
2.43 --undefined-- 43.141
2.44 --undefined-- 44.460
2.45 --undefined-- 53.404
2.46 --undefined-- 61.359
2.47 --undefined-- 65.740
2.48 --undefined-- 67.477
2.49 --undefined-- 69.017
2.50 --undefined-- 71.073
2.51 132.276 72.083
2.52 131.626 71.595
2.53 132.796 70.069
2.54 135.348 68.585
2.55 135.147 67.584
2.56 134.017 66.486
2.57 132.141 64.634
2.58 131.606 61.423
2.59 --undefined-- 56.597
2.60 --undefined-- 52.560
2.61 --undefined-- 51.537
2.62 --undefined-- 54.211
2.63 132.965 60.505
2.64 131.786 65.760
2.65 130.282 68.722
2.66 129.057 69.484
2.67 127.776 68.517
2.68 127.415 66.691
2.69 127.671 65.017
2.70 126.702 63.707
2.71 127.031 62.488
2.72 126.347 61.334
2.73 124.356 60.601
2.74 --undefined-- 60.983
2.75 --undefined-- 62.348
2.76 --undefined-- 65.373
2.77 --undefined-- 67.773
2.78 --undefined-- 67.473
2.79 --undefined-- 65.211
2.80 --undefined-- 65.213
2.81 --undefined-- 67.875
2.82 --undefined-- 69.381
2.83 --undefined-- 69.483
2.84 --undefined-- 68.622
2.85 --undefined-- 66.760
2.86 --undefined-- 65.000
2.87 --undefined-- 64.237
2.88 90.940 62.485
2.89 93.926 59.192
2.90 95.392 55.744
2.91 98.711 54.610
2.92 102.027 54.971
2.93 102.623 55.453
2.94 105.737 56.830
2.95 110.256 60.175
2.96 114.061 64.180
2.97 117.899 67.208
2.98 116.990 68.665
2.99 117.323 68.815
3.00 117.475 68.281
3.01 116.248 67.247
3.02 114.394 65.079
3.03 112.454 61.067
3.04 --undefined-- 54.875
3.05 --undefined-- 49.537
3.06 --undefined-- 53.235
3.07 --undefined-- 59.561
3.08 --undefined-- 62.659
3.09 --undefined-- 63.292
3.10 --undefined-- 63.583
3.11 --undefined-- 65.337
3.12 --undefined-- 67.438
3.13 --undefined-- 67.688
3.14 --undefined-- 67.419
3.15 84.554 68.042
3.16 84.420 67.678
3.17 84.499 66.266
3.18 83.653 64.714
3.19 83.992 63.432
3.20 84.365 63.492
3.21 --undefined-- 64.057
3.22 --undefined-- 63.503
3.23 --undefined-- 62.718
3.24 --undefined-- 62.340
3.25 --undefined-- 60.793
3.26 --undefined-- 57.096
3.27 --undefined-- 52.178
3.28 --undefined-- 50.106
3.29 --undefined-- 49.501
3.30 --undefined-- 49.335
3.31 --undefined-- 50.453
3.32 --undefined-- 56.285
3.33 --undefined-- 62.558
3.34 88.848 66.038
3.35 89.038 67.106
3.36 91.034 66.659
3.37 84.922 65.831
3.38 85.604 65.280
3.39 88.907 65.516
3.40 84.076 65.688
3.41 91.037 65.567
3.42 89.540 65.432
3.43 95.037 65.802
3.44 94.180 66.264
3.45 94.551 65.358
3.46 95.723 62.657
3.47 --undefined-- 58.245
3.48 --undefined-- 56.539
3.49 --undefined-- 60.926
3.50 --undefined-- 63.985
3.51 --undefined-- 65.453
3.52 --undefined-- 66.238
3.53 --undefined-- 66.506
3.54 --undefined-- 65.388
3.55 --undefined-- 62.452
3.56 --undefined-- 60.941
3.57 --undefined-- 62.382
3.58 --undefined-- 63.033
3.59 85.953 62.528
3.60 --undefined-- 62.450
3.61 --undefined-- 61.638
3.62 --undefined-- 58.620
3.63 --undefined-- 53.014
3.64 --undefined-- 46.927
3.65 --undefined-- 44.680
3.66 --undefined-- 46.408
3.67 --undefined-- 50.595
3.68 --undefined-- 53.131
3.69 --undefined-- 53.661
3.70 --undefined-- 53.648
3.71 --undefined-- 54.566
3.72 87.905 56.451
3.73 89.759 59.651
3.74 --undefined-- 63.753
3.75 --undefined-- 65.934
3.76 --undefined-- 66.477
3.77 --undefined-- 66.359
3.78 --undefined-- 64.952
3.79 --undefined-- 63.986
3.80 --undefined-- 62.994
3.81 --undefined-- 61.736
3.82 --undefined-- 61.168
3.83 --undefined-- 58.087
3.84 --undefined-- 55.156
3.85 --undefined-- 58.919
3.86 --undefined-- 61.074
3.87 --undefined-- 60.868
3.88 --undefined-- 62.533
3.89 --undefined-- 66.162
3.90 --undefined-- 68.731
3.91 --undefined-- 68.933
3.92 --undefined-- 67.681
3.93 --undefined-- 67.331
3.94 --undefined-- 66.767
3.95 --undefined-- 64.822
3.96 --undefined-- 63.567
3.97 --undefined-- 65.820
3.98 --undefined-- 68.583
3.99 --undefined-- 69.780
4.00 108.727 70.356
4.01 107.732 70.819
4.02 107.145 70.844
4.03 107.259 70.716
4.04 106.709 70.573
4.05 106.125 69.811
4.06 105.485 68.405
4.07 105.376 67.288
4.08 103.866 66.374
4.09 102.361 64.659
4.10 101.747 62.399
4.11 101.719 61.005
4.12 100.673 60.105
4.13 100.341 58.895
4.14 98.169 56.798
4.15 --undefined-- 53.121
4.16 --undefined-- 47.934
4.17 --undefined-- 44.448
4.18 --undefined-- 49.802
4.19 --undefined-- 56.105
4.20 --undefined-- 58.848
4.21 --undefined-- 59.342
4.22 --undefined-- 60.740
4.23 --undefined-- 63.251
4.24 --undefined-- 64.867
4.25 252.666 67.121
4.26 254.125 69.535
4.27 253.285 70.246
4.28 250.739 69.444
4.29 249.944 67.203
4.30 --undefined-- 63.569
4.31 --undefined-- 60.149
4.32 --undefined-- 56.482
4.33 --undefined-- 52.212
4.34 --undefined-- 48.727
4.35 --undefined-- 45.295
4.36 --undefined-- 42.268
4.37 --undefined-- 40.553
4.38 --undefined-- 39.867
4.39 --undefined-- 39.448
4.40 --undefined-- 39.522
4.41 --undefined-- 38.429
4.42 --undefined-- 38.123
4.43 --undefined-- 39.621
4.44 --undefined-- 39.735
4.45 --undefined-- 37.916
4.46 --undefined-- 35.607
4.47 --undefined-- 34.344
4.48 --undefined-- 33.906
4.49 --undefined-- 35.283
4.50 --undefined-- 36.192
4.51 --undefined-- 35.727
4.52 --undefined-- 36.740
4.53 --undefined-- 42.667
4.54 --undefined-- 55.866
4.55 --undefined-- 64.644
4.56 --undefined-- 69.559
4.57 154.983 72.460
4.58 148.120 75.023
4.59 135.095 77.130
4.60 136.261 78.353
4.61 135.190 78.263
4.62 132.198 77.172
4.63 128.143 75.677
4.64 120.194 73.855
4.65 110.462 71.717
4.66 109.611 68.927
4.67 98.288 65.386
4.68 --undefined-- 61.104
4.69 --undefined-- 56.314
4.70 --undefined-- 51.282
4.71 --undefined-- 46.910
4.72 --undefined-- 45.014
4.73 --undefined-- 46.847
4.74 --undefined-- 53.319
4.75 --undefined-- 60.130
4.76 --undefined-- 64.379
4.77 140.121 65.925
4.78 140.463 65.631
4.79 138.850 64.694
4.80 140.303 64.870
4.81 144.210 67.730
4.82 145.784 71.569
4.83 152.364 74.820
4.84 156.371 76.766
4.85 155.622 77.109
4.86 150.026 76.210
4.87 155.685 75.671
4.88 160.006 76.244
4.89 164.419 77.174
4.90 169.976 78.198
4.91 166.716 79.260
4.92 166.837 79.978
4.93 166.498 80.172
4.94 165.380 79.815
4.95 163.518 78.965
4.96 159.435 77.621
4.97 152.038 75.684
4.98 146.238 73.100
4.99 139.016 69.824
5.00 129.275 67.068
5.01 140.345 68.623
5.02 149.158 72.497
5.03 147.613 74.501
5.04 141.957 74.457
5.05 140.063 73.934
5.06 140.890 73.717
5.07 140.795 73.493
5.08 141.296 73.448
5.09 144.905 73.902
5.10 142.852 74.777
5.11 139.581 75.283
5.12 137.026 75.216
5.13 134.752 75.191
5.14 133.559 75.462
5.15 132.770 75.551
5.16 130.707 75.222
5.17 129.074 74.845
5.18 128.886 74.636
5.19 129.605 74.441
5.20 130.271 74.151
5.21 129.760 73.730
5.22 129.417 73.264
5.23 128.135 72.973
5.24 126.419 72.733
5.25 123.291 72.440
5.26 120.140 --undefined--
5.27 118.150 --undefined--
5.28 --undefined-- --undefined--
5.29 --undefined-- --undefined--
