Time Pitch Intensity
0.01 --undefined-- --undefined--
0.02 109.115 --undefined--
0.03 114.337 --undefined--
0.04 117.589 --undefined--
0.05 114.487 71.091
0.06 102.354 67.815
0.07 99.856 62.073
0.08 --undefined-- 55.415
0.09 --undefined-- 61.926
0.10 --undefined-- 70.503
0.11 132.336 75.248
0.12 112.452 76.723
0.13 113.008 75.820
0.14 107.647 73.529
0.15 107.969 70.088
0.16 108.392 65.076
0.17 118.555 58.907
0.18 --undefined-- 53.974
0.19 --undefined-- 50.430
0.20 --undefined-- 47.179
0.21 --undefined-- 45.931
0.22 --undefined-- 46.408
0.23 --undefined-- 47.293
0.24 --undefined-- 47.795
0.25 --undefined-- 53.179
0.26 --undefined-- 61.476
0.27 --undefined-- 66.609
0.28 112.571 68.970
0.29 107.429 69.972
0.30 103.851 70.723
0.31 97.081 71.410
0.32 94.119 71.962
0.33 93.062 72.635
0.34 94.260 73.674
0.35 96.369 74.728
0.36 97.515 75.336
0.37 97.549 75.821
0.38 101.961 76.655
0.39 105.265 77.444
0.40 107.106 77.965
0.41 109.781 78.306
0.42 113.644 78.539
0.43 113.016 78.769
0.44 113.493 78.928
0.45 114.063 78.843
0.46 115.854 78.731
0.47 118.619 78.776
0.48 121.223 78.710
0.49 121.928 78.360
0.50 122.427 77.639
0.51 119.862 76.070
0.52 100.571 73.184
0.53 --undefined-- 68.758
0.54 --undefined-- 64.749
0.55 --undefined-- 64.588
0.56 --undefined-- 68.017
0.57 94.600 71.847
0.58 111.498 74.165
0.59 132.668 75.351
0.60 135.410 76.375
0.61 140.688 77.547
0.62 142.212 78.434
0.63 146.004 78.877
0.64 152.022 78.945
0.65 157.321 78.891
0.66 163.698 78.856
0.67 170.019 78.539
0.68 175.205 77.580
0.69 177.642 75.826
0.70 174.067 73.149
0.71 172.750 69.591
0.72 171.611 66.064
0.73 --undefined-- 64.511
0.74 --undefined-- 64.445
0.75 --undefined-- 67.339
0.76 --undefined-- 73.457
0.77 160.469 77.057
0.78 155.808 77.942
0.79 150.874 77.653
0.80 149.447 77.556
0.81 149.370 77.675
0.82 148.409 77.763
0.83 147.499 77.839
0.84 146.467 77.996
0.85 145.195 78.203
0.86 144.239 78.353
0.87 144.631 78.457
0.88 145.899 78.437
0.89 146.015 77.921
0.90 143.470 76.541
0.91 139.519 74.520
0.92 138.304 72.736
0.93 137.988 71.686
0.94 138.489 71.617
0.95 143.508 74.073
0.96 155.790 77.352
0.97 153.641 78.881
0.98 150.691 78.855
0.99 149.216 78.485
1.00 148.182 78.253
1.01 146.543 77.842
1.02 144.500 77.222
1.03 142.902 76.588
1.04 140.822 75.900
1.05 139.683 75.115
1.06 138.525 74.520
1.07 137.136 74.393
1.08 136.517 74.594
1.09 134.068 74.881
1.10 131.795 75.254
1.11 130.152 75.639
1.12 128.887 75.893
1.13 128.576 76.138
1.14 127.299 76.616
1.15 125.739 77.229
1.16 125.777 77.773
1.17 126.686 78.196
1.18 127.304 78.407
1.19 126.210 78.374
1.20 124.063 78.064
1.21 120.826 76.917
1.22 116.365 74.112
1.23 104.317 70.913
1.24 125.612 73.199
1.25 126.120 76.370
1.26 122.135 77.970
1.27 120.612 78.401
1.28 120.296 77.744
1.29 120.730 75.611
1.30 113.923 71.374
1.31 99.816 64.987
1.32 118.154 58.428
1.33 --undefined-- 54.730
1.34 --undefined-- 57.912
1.35 --undefined-- 64.697
1.36 --undefined-- 70.965
1.37 --undefined-- 75.883
1.38 155.052 78.251
1.39 150.935 78.573
1.40 150.924 78.246
1.41 150.755 77.730
1.42 147.154 77.211
1.43 150.841 77.705
1.44 152.934 78.600
1.45 153.213 79.222
1.46 153.424 79.559
1.47 152.323 79.619
1.48 149.722 79.435
1.49 146.414 78.986
1.50 144.676 78.412
1.51 132.382 77.988
1.52 128.673 77.750
1.53 121.930 77.572
1.54 118.553 77.039
1.55 106.551 75.885
1.56 105.520 74.525
1.57 101.590 73.649
1.58 101.234 73.265
1.59 108.973 73.305
1.60 121.975 74.025
1.61 129.342 75.890
1.62 135.330 78.063
1.63 135.510 79.279
1.64 136.706 79.686
1.65 138.133 79.770
1.66 140.097 79.559
1.67 141.930 78.957
1.68 143.409 77.968
1.69 136.726 76.207
1.70 131.686 73.287
1.71 131.448 70.232
1.72 132.466 69.592
1.73 132.966 72.060
1.74 133.392 75.029
1.75 129.629 76.848
1.76 124.519 77.501
1.77 118.255 77.467
1.78 112.923 77.182
1.79 110.509 77.152
1.80 112.131 77.308
1.81 113.734 77.096
1.82 113.733 76.274
1.83 113.726 74.779
1.84 113.878 72.261
1.85 112.697 67.926
1.86 112.441 61.282
1.87 --undefined-- 53.147
1.88 --undefined-- 45.615
1.89 --undefined-- 40.104
1.90 --undefined-- 38.874
1.91 --undefined-- 41.298
1.92 --undefined-- 49.572
1.93 --undefined-- 57.807
1.94 --undefined-- 64.173
1.95 --undefined-- 69.975
1.96 --undefined-- 74.149
1.97 135.514 75.876
1.98 125.862 75.837
1.99 122.703 75.767
2.00 125.247 76.448
2.01 126.600 76.902
2.02 126.894 76.914
2.03 127.360 76.799
2.04 128.124 76.656
2.05 128.628 76.258
2.06 129.570 74.941
2.07 126.975 72.061
2.08 --undefined-- 70.790
2.09 --undefined-- 75.140
2.10 151.369 78.132
2.11 140.114 78.933
2.12 138.320 78.761
2.13 137.065 78.606
2.14 137.144 78.630
2.15 136.539 78.448
2.16 134.601 77.339
2.17 131.412 74.433
2.18 119.215 68.992
2.19 136.528 61.142
2.20 133.998 56.164
2.21 132.743 56.587
2.22 131.896 63.901
2.23 --undefined-- 72.122
2.24 158.184 76.775
2.25 153.840 78.269
2.26 142.911 78.040
2.27 138.640 77.795
2.28 135.849 77.425
2.29 134.006 76.511
2.30 133.188 75.582
2.31 131.471 75.186
2.32 131.416 75.511
2.33 133.616 76.580
2.34 133.942 77.707
2.35 129.505 78.225
2.36 124.545 78.345
2.37 121.496 78.410
2.38 118.533 78.088
2.39 116.450 76.552
2.40 108.518 73.160
2.41 116.659 67.863
2.42 113.529 61.205
2.43 --undefined-- 54.566
2.44 117.607 51.854
2.45 121.545 51.206
2.46 --undefined-- 50.199
2.47 --undefined-- 49.135
2.48 --undefined-- 48.314
2.49 --undefined-- 49.380
2.50 --undefined-- 51.788
2.51 --undefined-- 54.649
2.52 --undefined-- 62.866
2.53 --undefined-- 70.683
2.54 144.117 75.494
2.55 141.706 78.042
2.56 139.437 79.199
2.57 137.007 79.588
2.58 134.760 79.550
2.59 131.955 79.052
2.60 128.903 77.636
2.61 122.366 75.253
2.62 120.905 73.568
2.63 120.976 73.903
2.64 122.373 75.620
2.65 125.934 77.724
2.66 126.073 78.938
2.67 124.903 79.001
2.68 121.930 78.521
2.69 120.984 78.167
2.70 121.733 78.006
2.71 121.724 77.815
2.72 120.882 77.658
2.73 120.874 77.604
2.74 120.773 77.184
2.75 119.691 75.796
2.76 119.825 73.491
2.77 123.812 71.728
2.78 131.592 72.211
2.79 131.126 73.566
2.80 120.779 74.535
2.81 115.933 75.274
2.82 111.939 75.923
2.83 107.865 76.389
2.84 106.006 76.735
2.85 105.994 76.907
2.86 107.692 76.876
2.87 107.596 76.664
2.88 107.551 75.905
2.89 107.767 73.827
2.90 103.670 69.626
2.91 107.573 62.625
2.92 --undefined-- 52.755
2.93 --undefined-- 44.458
2.94 --undefined-- 44.215
2.95 --undefined-- 48.116
2.96 --undefined-- 57.261
2.97 --undefined-- 64.425
2.98 --undefined-- 68.266
2.99 --undefined-- 72.307
3.00 143.184 76.295
3.01 130.853 78.162
3.02 128.351 78.402
3.03 126.260 77.974
3.04 124.609 77.355
3.05 123.567 76.686
3.06 123.233 75.933
3.07 125.113 75.286
3.08 125.493 74.953
3.09 125.456 74.791
3.10 125.124 74.706
3.11 124.815 74.729
3.12 124.505 74.855
3.13 124.724 75.004
3.14 125.023 75.176
3.15 126.178 75.515
3.16 126.495 75.955
3.17 125.958 76.036
3.18 126.753 75.332
3.19 128.452 73.674
3.20 124.242 71.616
3.21 124.992 71.043
3.22 133.554 72.617
3.23 139.453 74.279
3.24 131.223 74.925
3.25 126.934 74.872
3.26 123.186 74.695
3.27 119.237 74.541
3.28 117.549 74.642
3.29 118.023 75.495
3.30 120.383 76.909
3.31 121.580 78.110
3.32 121.033 78.634
3.33 120.109 78.670
3.34 120.129 78.634
3.35 119.737 78.527
3.36 119.646 78.343
3.37 118.709 78.251
3.38 118.539 78.233
3.39 115.218 77.854
3.40 115.654 76.445
3.41 114.549 73.320
3.42 108.223 68.343
3.43 113.713 64.960
3.44 --undefined-- 69.976
3.45 --undefined-- 75.406
3.46 --undefined-- 78.095
3.47 112.510 78.801
3.48 111.250 78.796
3.49 113.491 78.796
3.50 113.558 79.004
3.51 111.733 78.945
3.52 110.388 77.889
3.53 105.708 75.394
3.54 --undefined-- 70.783
3.55 --undefined-- 63.547
3.56 --undefined-- 55.786
3.57 --undefined-- 52.008
3.58 --undefined-- 51.912
3.59 --undefined-- 56.185
3.60 --undefined-- 59.526
3.61 --undefined-- 60.367
3.62 --undefined-- 59.493
3.63 --undefined-- 57.949
3.64 --undefined-- 56.151
3.65 --undefined-- 55.149
3.66 --undefined-- 54.988
3.67 --undefined-- 54.689
3.68 --undefined-- 54.435
3.69 --undefined-- 55.031
3.70 --undefined-- 55.781
3.71 --undefined-- 55.814
3.72 --undefined-- 55.396
3.73 --undefined-- 55.309
3.74 --undefined-- 55.329
3.75 --undefined-- 55.118
3.76 --undefined-- 55.406
3.77 --undefined-- 55.268
3.78 --undefined-- 54.100
3.79 --undefined-- 53.541
3.80 --undefined-- 53.314
3.81 --undefined-- 53.055
3.82 --undefined-- 53.203
3.83 --undefined-- 53.217
3.84 --undefined-- 52.976
3.85 --undefined-- 51.310
3.86 --undefined-- 47.609
3.87 --undefined-- 45.742
3.88 --undefined-- 47.393
3.89 --undefined-- 51.248
3.90 --undefined-- 62.390
3.91 196.388 70.586
3.92 179.757 75.227
3.93 176.294 77.095
3.94 174.716 76.688
3.95 171.126 74.166
3.96 168.777 69.623
3.97 177.405 66.135
3.98 202.397 72.107
3.99 198.165 77.119
4.00 189.320 78.763
4.01 176.091 78.416
4.02 165.722 78.103
4.03 158.943 78.356
4.04 152.836 78.651
4.05 149.980 78.922
4.06 146.318 79.087
4.07 144.521 79.133
4.08 144.406 79.159
4.09 144.630 78.878
4.10 145.284 78.266
4.11 146.512 77.963
4.12 149.404 77.701
4.13 152.496 76.825
4.14 155.042 75.984
4.15 170.356 76.575
4.16 176.198 77.780
4.17 176.864 78.303
4.18 177.193 78.399
4.19 178.084 78.574
4.20 178.990 78.716
4.21 179.656 78.653
4.22 180.291 78.208
4.23 181.078 77.251
4.24 178.713 76.133
4.25 175.310 75.086
4.26 171.355 73.553
4.27 173.039 72.274
4.28 183.971 73.586
4.29 190.166 76.706
4.30 192.898 78.835
4.31 192.902 79.509
4.32 191.120 79.420
4.33 189.763 79.013
4.34 187.988 77.842
4.35 183.921 75.010
4.36 173.132 70.294
4.37 176.860 65.579
4.38 180.562 64.203
4.39 182.617 68.985
4.40 181.173 74.469
4.41 172.487 77.553
4.42 168.235 78.599
4.43 163.764 78.586
4.44 157.160 78.332
4.45 151.320 77.938
4.46 147.420 76.820
4.47 143.799 74.033
4.48 129.912 68.926
4.49 149.412 62.211
4.50 147.648 56.165
4.51 --undefined-- 54.456
4.52 --undefined-- 65.232
4.53 --undefined-- 73.321
4.54 142.996 77.370
4.55 140.222 78.378
4.56 128.036 78.036
4.57 125.264 78.135
4.58 124.323 78.573
4.59 124.466 78.775
4.60 123.361 78.608
4.61 121.343 77.804
4.62 118.071 75.798
4.63 113.219 72.228
4.64 110.653 66.946
4.65 117.003 61.116
4.66 117.444 59.550
4.67 --undefined-- 62.867
4.68 --undefined-- 65.739
4.69 --undefined-- 67.248
4.70 --undefined-- 67.503
4.71 --undefined-- 66.128
4.72 --undefined-- 66.246
4.73 176.814 72.725
4.74 178.777 77.596
4.75 176.424 79.540
4.76 177.534 79.616
4.77 181.769 79.134
4.78 182.921 78.791
4.79 182.908 78.654
4.80 182.285 78.513
4.81 182.200 78.269
4.82 182.845 78.028
4.83 181.809 78.105
4.84 182.170 78.666
4.85 182.843 79.292
4.86 182.825 79.513
4.87 181.030 78.765
4.88 178.164 76.306
4.89 172.750 71.326
4.90 171.772 63.716
4.91 --undefined-- 57.935
4.92 --undefined-- 59.106
4.93 --undefined-- 65.931
4.94 183.109 73.031
4.95 179.299 76.605
4.96 155.652 77.403
4.97 146.980 77.257
4.98 143.081 77.384
4.99 140.462 77.143
5.00 138.490 75.515
5.01 --undefined-- 71.576
5.02 --undefined-- 64.760
5.03 --undefined-- 56.293
5.04 --undefined-- 52.163
5.05 --undefined-- 51.357
5.06 --undefined-- 50.556
5.07 --undefined-- 55.543
5.08 --undefined-- 63.920
5.09 --undefined-- 71.378
5.10 143.184 76.166
5.11 143.172 78.004
5.12 142.579 77.970
5.13 133.361 --undefined--
5.14 131.160 --undefined--
5.15 --undefined-- --undefined--
5.16 --undefined-- --undefined--
