Time Pitch Intensity
0.01 --undefined-- --undefined--
0.02 --undefined-- --undefined--
0.03 --undefined-- --undefined--
0.04 --undefined-- --undefined--
0.05 --undefined-- 57.141
0.06 --undefined-- 60.180
0.07 --undefined-- 61.880
0.08 --undefined-- 63.550
0.09 --undefined-- 65.539
0.10 104.694 67.339
0.11 106.049 68.805
0.12 107.953 69.544
0.13 108.835 69.541
0.14 112.961 69.022
0.15 114.175 67.445
0.16 115.291 64.649
0.17 113.949 61.100
0.18 113.559 56.400
0.19 --undefined-- 51.094
0.20 --undefined-- 50.141
0.21 --undefined-- 53.190
0.22 --undefined-- 55.956
0.23 --undefined-- 59.225
0.24 --undefined-- 63.510
0.25 --undefined-- 68.503
0.26 --undefined-- 71.952
0.27 --undefined-- 73.160
0.28 --undefined-- 73.004
0.29 --undefined-- 72.323
0.30 99.338 71.621
0.31 97.635 71.277
0.32 97.198 70.521
0.33 97.509 68.871
0.34 --undefined-- 66.222
0.35 --undefined-- 61.585
0.36 --undefined-- 53.581
0.37 --undefined-- 42.550
0.38 --undefined-- 37.926
0.39 --undefined-- 37.404
0.40 --undefined-- 36.453
0.41 --undefined-- 35.882
0.42 --undefined-- 35.434
0.43 --undefined-- 33.638
0.44 --undefined-- 32.335
0.45 --undefined-- 32.713
0.46 --undefined-- 34.504
0.47 --undefined-- 36.122
0.48 --undefined-- 35.935
0.49 --undefined-- 35.483
0.50 --undefined-- 35.763
0.51 --undefined-- 35.871
0.52 --undefined-- 35.714
0.53 --undefined-- 35.624
0.54 --undefined-- 35.417
0.55 --undefined-- 36.541
0.56 --undefined-- 41.206
0.57 --undefined-- 45.559
0.58 --undefined-- 47.646
0.59 --undefined-- 48.705
0.60 --undefined-- 50.232
0.61 --undefined-- 51.269
0.62 --undefined-- 51.495
0.63 --undefined-- 52.427
0.64 --undefined-- 54.909
0.65 --undefined-- 57.690
0.66 --undefined-- 59.304
0.67 --undefined-- 60.413
0.68 --undefined-- 61.676
0.69 --undefined-- 62.188
0.70 --undefined-- 61.820
0.71 --undefined-- 61.663
0.72 --undefined-- 64.008
0.73 --undefined-- 67.522
0.74 118.856 69.719
0.75 118.144 70.661
0.76 117.075 70.960
0.77 113.267 70.952
0.78 111.912 70.574
0.79 110.895 70.259
0.80 109.804 70.892
0.81 109.587 71.345
0.82 109.019 70.803
0.83 108.478 70.197
0.84 108.301 70.292
0.85 108.655 70.504
0.86 109.218 70.370
0.87 108.769 69.835
0.88 108.419 68.785
0.89 107.309 66.631
0.90 103.535 62.466
0.91 --undefined-- 55.529
0.92 --undefined-- 46.061
0.93 --undefined-- 40.224
0.94 --undefined-- 45.524
0.95 --undefined-- 52.745
0.96 --undefined-- 58.059
0.97 --undefined-- 61.582
0.98 --undefined-- 63.708
0.99 --undefined-- 64.759
1.00 --undefined-- 65.237
1.01 --undefined-- 65.664
1.02 --undefined-- 66.674
1.03 --undefined-- 68.219
1.04 121.753 69.575
1.05 116.332 70.554
1.06 116.903 70.633
1.07 113.523 69.829
1.08 109.845 68.855
1.09 108.663 68.225
1.10 105.668 67.503
1.11 106.141 65.846
1.12 102.472 62.705
1.13 96.101 58.332
1.14 94.415 54.527
1.15 93.174 55.868
1.16 98.656 60.743
1.17 103.655 64.946
1.18 105.290 67.635
1.19 104.762 69.245
1.20 102.812 70.091
1.21 101.405 69.941
1.22 99.702 68.980
1.23 98.578 67.816
1.24 97.627 66.428
1.25 96.787 64.536
1.26 92.372 62.033
1.27 94.613 59.029
1.28 95.966 55.584
1.29 --undefined-- 52.100
1.30 --undefined-- 49.858
1.31 --undefined-- 49.288
1.32 --undefined-- 50.108
1.33 --undefined-- 51.765
1.34 --undefined-- 53.407
1.35 --undefined-- 55.552
1.36 --undefined-- 57.957
1.37 --undefined-- 59.404
1.38 --undefined-- 59.784
1.39 --undefined-- 60.090
1.40 --undefined-- 60.876
1.41 --undefined-- 60.881
1.42 --undefined-- 59.880
1.43 --undefined-- 59.559
1.44 --undefined-- 60.655
1.45 --undefined-- 62.771
1.46 --undefined-- 64.255
1.47 --undefined-- 64.167
1.48 --undefined-- 63.695
1.49 --undefined-- 64.823
1.50 --undefined-- 65.792
1.51 --undefined-- 65.114
1.52 --undefined-- 63.413
1.53 98.256 62.502
1.54 97.533 62.806
1.55 97.147 63.398
1.56 92.637 64.292
1.57 87.652 65.693
1.58 87.400 66.542
1.59 80.666 66.493
1.60 80.730 66.280
1.61 77.567 66.062
1.62 74.820 65.073
1.63 75.248 63.194
1.64 --undefined-- 61.151
1.65 --undefined-- 57.910
1.66 --undefined-- 52.916
1.67 --undefined-- 50.145
1.68 76.326 50.794
1.69 79.090 51.076
1.70 81.919 50.957
1.71 87.216 51.154
1.72 90.949 51.549
1.73 90.236 53.947
1.74 96.368 59.589
1.75 98.213 64.633
1.76 97.809 67.910
1.77 97.454 70.091
1.78 98.123 71.490
1.79 100.621 71.999
1.80 101.500 71.951
1.81 102.942 71.943
1.82 103.122 72.058
1.83 103.107 72.090
1.84 103.348 71.857
1.85 103.150 71.574
1.86 102.558 71.207
1.87 102.320 70.284
1.88 102.268 69.361
1.89 101.220 68.829
1.90 100.648 67.637
1.91 --undefined-- 64.886
1.92 --undefined-- 59.919
1.93 --undefined-- 52.740
1.94 --undefined-- 47.172
1.95 --undefined-- 45.262
1.96 --undefined-- 44.716
1.97 --undefined-- 45.125
1.98 --undefined-- 45.919
1.99 --undefined-- 46.208
2.00 --undefined-- 46.308
2.01 --undefined-- 45.963
2.02 --undefined-- 45.505
2.03 --undefined-- 44.975
2.04 --undefined-- 43.993
2.05 --undefined-- 43.794
2.06 --undefined-- 47.361
2.07 --undefined-- 51.124
2.08 97.702 53.422
2.09 96.758 55.172
2.10 95.604 57.135
2.11 92.078 58.141
2.12 91.829 57.573
2.13 87.873 56.328
2.14 86.918 55.177
2.15 84.423 54.115
2.16 --undefined-- 52.391
2.17 --undefined-- 49.657
2.18 --undefined-- 47.347
2.19 --undefined-- 46.005
2.20 --undefined-- 45.567
2.21 --undefined-- 47.016
2.22 --undefined-- 48.449
2.23 --undefined-- 53.190
2.24 --undefined-- 62.319
2.25 --undefined-- 69.156
2.26 --undefined-- 73.049
2.27 --undefined-- 74.199
2.28 --undefined-- 73.211
2.29 --undefined-- 70.781
2.30 --undefined-- 66.987
2.31 --undefined-- 61.031
2.32 --undefined-- 52.938
2.33 --undefined-- 48.762
2.34 --undefined-- 45.313
2.35 --undefined-- 41.350
2.36 --undefined-- 39.713
2.37 --undefined-- 39.423
2.38 --undefined-- 51.092
2.39 --undefined-- 61.546
2.40 --undefined-- 67.088
2.41 --undefined-- 68.489
2.42 --undefined-- 66.529
2.43 --undefined-- 63.045
2.44 --undefined-- 60.518
2.45 --undefined-- 58.321
2.46 --undefined-- 56.755
2.47 96.467 57.475
2.48 88.217 58.748
2.49 86.081 59.497
2.50 86.426 59.797
2.51 83.322 59.492
2.52 --undefined-- 57.671
2.53 --undefined-- 54.152
2.54 --undefined-- 49.389
2.55 --undefined-- 43.649
2.56 --undefined-- 41.446
2.57 --undefined-- 42.498
2.58 --undefined-- 43.539
2.59 --undefined-- 44.765
2.60 --undefined-- 46.826
2.61 --undefined-- 47.684
2.62 --undefined-- 45.515
2.63 --undefined-- 40.995
2.64 --undefined-- 41.065
2.65 --undefined-- 48.100
2.66 --undefined-- 57.136
2.67 --undefined-- 62.759
2.68 --undefined-- 64.249
2.69 --undefined-- 63.953
2.70 --undefined-- 66.530
2.71 99.772 68.909
2.72 96.780 69.569
2.73 97.355 69.246
2.74 97.080 68.463
2.75 95.636 67.000
2.76 93.880 64.428
2.77 --undefined-- 60.373
2.78 --undefined-- 54.280
2.79 --undefined-- 46.139
2.80 --undefined-- 41.010
2.81 --undefined-- 40.145
2.82 --undefined-- 38.937
2.83 --undefined-- 38.470
2.84 --undefined-- 38.315
2.85 --undefined-- 37.688
2.86 --undefined-- 36.828
2.87 --undefined-- 37.217
2.88 --undefined-- 41.272
2.89 --undefined-- 44.738
2.90 --undefined-- 44.885
2.91 --undefined-- 42.126
2.92 --undefined-- 39.362
2.93 --undefined-- 38.326
2.94 --undefined-- 38.557
2.95 --undefined-- 46.494
2.96 --undefined-- 54.991
2.97 --undefined-- 59.680
2.98 --undefined-- 61.431
2.99 --undefined-- 62.042
3.00 --undefined-- 62.704
3.01 --undefined-- 63.331
3.02 --undefined-- 64.488
3.03 --undefined-- 65.331
3.04 --undefined-- 65.536
3.05 --undefined-- 66.104
3.06 --undefined-- 68.274
3.07 --undefined-- 70.408
3.08 105.297 70.542
3.09 104.713 68.795
3.10 104.480 66.680
3.11 108.430 66.159
3.12 113.600 66.206
3.13 --undefined-- 64.764
3.14 --undefined-- 60.276
3.15 --undefined-- 51.647
3.16 --undefined-- 41.569
3.17 --undefined-- 38.446
3.18 --undefined-- 36.156
3.19 --undefined-- 38.531
3.20 --undefined-- 51.443
3.21 --undefined-- 59.771
3.22 --undefined-- 63.043
3.23 --undefined-- 63.180
3.24 104.964 65.385
3.25 103.322 68.844
3.26 102.950 70.732
3.27 101.919 70.993
3.28 101.898 70.233
3.29 100.966 69.342
3.30 99.447 68.673
3.31 96.170 68.157
3.32 91.465 67.579
3.33 89.481 66.789
3.34 --undefined-- 66.081
3.35 --undefined-- 65.885
3.36 --undefined-- 66.604
3.37 --undefined-- 67.834
3.38 --undefined-- 68.101
3.39 --undefined-- 67.146
3.40 --undefined-- 66.908
3.41 92.573 67.361
3.42 93.241 67.490
3.43 95.259 67.674
3.44 95.744 67.407
3.45 95.796 66.303
3.46 95.917 64.728
3.47 96.012 62.412
3.48 97.136 59.794
3.49 96.032 58.321
3.50 96.636 57.886
3.51 103.899 59.713
3.52 108.568 63.671
3.53 109.520 67.132
3.54 110.605 69.377
3.55 111.121 70.640
3.56 110.596 70.989
3.57 109.321 70.434
3.58 108.104 69.671
3.59 105.978 69.168
3.60 105.259 68.283
3.61 105.497 66.622
3.62 101.592 63.472
3.63 101.853 57.621
3.64 --undefined-- 48.966
3.65 --undefined-- 47.119
3.66 --undefined-- 57.854
3.67 --undefined-- 65.636
3.68 --undefined-- 69.585
3.69 --undefined-- 70.106
3.70 --undefined-- 68.392
3.71 --undefined-- 68.012
3.72 --undefined-- 69.134
3.73 --undefined-- 69.248
3.74 --undefined-- 68.089
3.75 --undefined-- 65.720
3.76 --undefined-- 61.757
3.77 --undefined-- 56.242
3.78 --undefined-- 54.009
3.79 --undefined-- 55.753
3.80 96.293 56.519
3.81 96.088 56.740
3.82 95.844 56.447
3.83 95.694 55.234
3.84 95.837 53.539
3.85 97.198 52.707
3.86 96.563 53.006
3.87 96.182 53.922
3.88 95.841 55.644
3.89 95.256 58.622
3.90 94.959 62.809
3.91 95.196 66.270
3.92 91.262 67.964
3.93 87.861 67.954
3.94 --undefined-- 66.536
3.95 81.623 63.348
3.96 81.888 58.342
3.97 84.550 54.921
3.98 90.085 55.808
3.99 90.034 56.466
4.00 90.575 55.835
4.01 92.283 54.999
4.02 92.616 54.554
4.03 --undefined-- 53.538
4.04 --undefined-- 50.607
4.05 --undefined-- 45.729
4.06 --undefined-- 41.845
4.07 --undefined-- 39.753
4.08 --undefined-- 38.038
4.09 --undefined-- 49.157
4.10 --undefined-- 59.597
4.11 --undefined-- 66.337
4.12 --undefined-- 70.880
4.13 --undefined-- 73.122
4.14 108.790 73.034
4.15 108.561 71.431
4.16 110.569 70.229
4.17 112.495 70.221
4.18 112.889 70.195
4.19 111.597 69.543
4.20 110.476 68.637
4.21 109.629 67.299
4.22 108.473 64.746
4.23 --undefined-- 60.462
4.24 --undefined-- 54.060
4.25 --undefined-- 54.473
4.26 --undefined-- 62.903
4.27 --undefined-- 68.162
4.28 --undefined-- 70.913
4.29 --undefined-- 72.569
4.30 --undefined-- 73.368
4.31 --undefined-- 73.095
4.32 --undefined-- 71.996
4.33 --undefined-- 70.521
4.34 --undefined-- 70.190
4.35 --undefined-- 71.257
4.36 --undefined-- 71.653
4.37 103.295 71.105
4.38 101.813 70.717
4.39 98.140 71.049
4.40 95.197 71.300
4.41 94.849 70.286
4.42 83.892 67.557
4.43 --undefined-- 63.142
4.44 --undefined-- 57.239
4.45 --undefined-- 49.656
4.46 --undefined-- 41.813
4.47 --undefined-- 39.512
4.48 --undefined-- 47.811
4.49 --undefined-- 53.520
4.50 --undefined-- 54.579
4.51 --undefined-- 51.074
4.52 --undefined-- 43.022
4.53 --undefined-- 41.089
4.54 --undefined-- 53.536
4.55 --undefined-- 61.513
4.56 --undefined-- 65.147
4.57 --undefined-- 65.230
4.58 --undefined-- 64.303
4.59 --undefined-- 65.060
4.60 --undefined-- 67.205
4.61 92.938 69.013
4.62 92.466 69.403
4.63 92.060 68.216
4.64 89.741 65.897
4.65 91.112 63.827
4.66 88.523 62.621
4.67 87.986 61.679
4.68 88.106 60.691
4.69 88.862 59.965
4.70 92.590 59.379
4.71 92.443 58.217
4.72 88.788 56.666
4.73 88.251 56.181
4.74 --undefined-- 58.620
4.75 --undefined-- 62.645
4.76 --undefined-- 66.068
4.77 --undefined-- 68.138
4.78 --undefined-- 68.295
4.79 86.474 66.832
4.80 86.589 64.643
4.81 84.988 61.667
4.82 --undefined-- 57.611
4.83 93.896 53.812
4.84 93.686 52.725
4.85 96.760 52.135
4.86 97.317 51.162
4.87 97.122 50.540
4.88 97.035 49.636
4.89 --undefined-- 48.257
4.90 --undefined-- 47.208
4.91 --undefined-- 48.224
4.92 --undefined-- 51.172
4.93 --undefined-- 51.698
4.94 --undefined-- 48.392
4.95 --undefined-- 45.869
4.96 --undefined-- 50.731
4.97 --undefined-- 55.479
4.98 --undefined-- 59.483
4.99 --undefined-- 62.597
5.00 --undefined-- 63.560
5.01 --undefined-- 61.327
5.02 --undefined-- 55.585
5.03 --undefined-- 48.026
5.04 --undefined-- 43.045
5.05 --undefined-- 40.657
5.06 --undefined-- 43.795
5.07 --undefined-- 49.508
5.08 --undefined-- 53.923
5.09 --undefined-- 59.935
5.10 --undefined-- 66.500
5.11 --undefined-- 70.399
5.12 115.099 72.033
5.13 114.363 72.333
5.14 113.433 72.022
5.15 112.141 71.452
5.16 109.789 70.589
5.17 107.445 69.566
5.18 106.325 68.697
5.19 105.303 68.252
5.20 104.084 67.667
5.21 102.312 66.138
5.22 96.983 63.447
5.23 99.081 61.186
5.24 98.535 60.379
5.25 95.476 59.444
5.26 94.221 58.215
5.27 93.962 58.330
5.28 93.104 61.571
5.29 100.341 64.731
5.30 100.741 65.872
5.31 96.957 65.032
5.32 96.003 62.189
5.33 --undefined-- 57.142
5.34 --undefined-- 50.102
5.35 --undefined-- 43.923
5.36 --undefined-- 43.887
5.37 --undefined-- 45.341
5.38 --undefined-- 45.890
5.39 --undefined-- 46.778
5.40 --undefined-- 50.467
5.41 --undefined-- 53.418
5.42 --undefined-- 55.325
5.43 --undefined-- 58.087
5.44 --undefined-- 61.053
5.45 91.354 62.809
5.46 90.789 63.342
5.47 91.541 63.614
5.48 92.026 63.795
5.49 89.493 63.208
5.50 87.071 61.903
5.51 --undefined-- 60.416
5.52 --undefined-- 60.784
5.53 --undefined-- 62.199
5.54 --undefined-- 62.167
5.55 --undefined-- 61.286
5.56 --undefined-- 60.202
5.57 --undefined-- 58.918
5.58 --undefined-- 58.917
5.59 --undefined-- 60.727
5.60 --undefined-- 63.247
5.61 --undefined-- 68.331
5.62 156.099 --undefined--
5.63 156.772 --undefined--
5.64 --undefined-- --undefined--
5.65 --undefined-- --undefined--
