Time Pitch Intensity
0.01 --undefined-- --undefined--
0.02 187.966 --undefined--
0.03 186.500 --undefined--
0.04 185.908 --undefined--
0.05 184.579 66.050
0.06 183.685 67.467
0.07 183.212 69.432
0.08 181.312 71.430
0.09 178.209 72.933
0.10 174.098 73.496
0.11 171.323 72.852
0.12 167.341 71.284
0.13 161.176 69.369
0.14 154.238 67.352
0.15 144.682 65.262
0.16 140.575 63.265
0.17 137.678 60.879
0.18 135.821 59.074
0.19 140.129 59.040
0.20 154.085 59.602
0.21 145.775 59.520
0.22 140.152 57.838
0.23 --undefined-- 53.864
0.24 --undefined-- 47.378
0.25 --undefined-- 42.037
0.26 --undefined-- 40.285
0.27 --undefined-- 40.712
0.28 --undefined-- 42.572
0.29 --undefined-- 43.310
0.30 --undefined-- 43.784
0.31 --undefined-- 44.892
0.32 --undefined-- 45.938
0.33 --undefined-- 46.857
0.34 --undefined-- 47.817
0.35 --undefined-- 48.267
0.36 --undefined-- 48.324
0.37 --undefined-- 48.746
0.38 --undefined-- 48.738
0.39 --undefined-- 47.825
0.40 --undefined-- 46.814
0.41 --undefined-- 45.942
0.42 --undefined-- 44.822
0.43 --undefined-- 42.974
0.44 --undefined-- 40.971
0.45 --undefined-- 39.767
0.46 --undefined-- 38.179
0.47 --undefined-- 35.958
0.48 --undefined-- 34.075
0.49 --undefined-- 35.193
0.50 --undefined-- 36.778
0.51 --undefined-- 36.056
0.52 --undefined-- 39.017
0.53 --undefined-- 47.881
0.54 --undefined-- 59.414
0.55 --undefined-- 68.065
0.56 211.334 73.263
0.57 209.992 75.683
0.58 204.429 76.255
0.59 199.019 76.453
0.60 197.506 76.602
0.61 196.388 75.852
0.62 194.978 74.364
0.63 191.672 72.946
0.64 189.379 71.558
0.65 186.793 69.612
0.66 184.516 67.925
0.67 208.626 68.246
0.68 215.345 69.971
0.69 220.923 71.418
0.70 213.746 72.063
0.71 210.301 72.244
0.72 209.787 72.282
0.73 208.459 72.266
0.74 206.105 72.063
0.75 202.663 71.712
0.76 197.088 71.533
0.77 193.544 71.721
0.78 192.386 72.006
0.79 193.165 72.170
0.80 195.268 72.298
0.81 197.269 72.263
0.82 197.987 71.634
0.83 194.381 69.816
0.84 187.944 66.125
0.85 195.943 60.263
0.86 191.239 54.888
0.87 190.619 53.735
0.88 192.719 53.110
0.89 193.047 51.455
0.90 --undefined-- 49.636
0.91 --undefined-- 48.697
0.92 --undefined-- 48.729
0.93 --undefined-- 49.974
0.94 --undefined-- 53.116
0.95 --undefined-- 61.905
0.96 --undefined-- 70.121
0.97 160.794 74.784
0.98 157.523 76.456
0.99 153.861 76.360
1.00 152.924 76.072
1.01 153.159 76.179
1.02 153.559 76.425
1.03 153.959 76.652
1.04 154.539 76.588
1.05 155.812 75.773
1.06 161.109 74.425
1.07 162.984 74.003
1.08 163.692 74.690
1.09 162.999 75.241
1.10 157.193 74.816
1.11 152.525 72.749
1.12 143.159 68.492
1.13 138.616 61.813
1.14 144.644 54.228
1.15 144.669 51.061
1.16 154.534 50.986
1.17 153.494 51.778
1.18 --undefined-- 53.418
1.19 --undefined-- 55.931
1.20 --undefined-- 62.220
1.21 294.376 69.615
1.22 276.199 73.965
1.23 256.548 75.622
1.24 237.233 75.739
1.25 231.665 75.278
1.26 226.283 74.656
1.27 220.830 73.945
1.28 214.825 72.770
1.29 207.543 70.199
1.30 --undefined-- 65.445
1.31 --undefined-- 58.894
1.32 --undefined-- 52.600
1.33 --undefined-- 50.572
1.34 --undefined-- 53.680
1.35 --undefined-- 57.644
1.36 203.845 61.085
1.37 209.883 63.775
1.38 206.214 65.776
1.39 198.620 67.232
1.40 191.748 68.243
1.41 184.515 68.916
1.42 181.726 69.597
1.43 171.599 70.329
1.44 163.650 70.927
1.45 156.569 71.099
1.46 153.313 70.737
1.47 151.693 70.004
1.48 149.065 68.678
1.49 142.493 66.623
1.50 132.619 64.475
1.51 128.267 62.721
1.52 126.346 60.748
1.53 129.703 58.123
1.54 141.454 54.408
1.55 --undefined-- 50.550
1.56 --undefined-- 48.943
1.57 --undefined-- 46.560
1.58 --undefined-- 41.063
1.59 --undefined-- 36.499
1.60 --undefined-- 39.626
1.61 --undefined-- 42.140
1.62 --undefined-- 42.397
1.63 --undefined-- 40.436
1.64 --undefined-- 36.739
1.65 --undefined-- 33.065
1.66 --undefined-- 30.501
1.67 --undefined-- 38.300
1.68 --undefined-- 47.954
1.69 --undefined-- 55.777
1.70 --undefined-- 61.545
1.71 --undefined-- 64.418
1.72 --undefined-- 64.692
1.73 --undefined-- 64.254
1.74 --undefined-- 64.619
1.75 --undefined-- 64.887
1.76 --undefined-- 63.838
1.77 --undefined-- 61.640
1.78 --undefined-- 60.672
1.79 276.412 65.862
1.80 278.238 70.822
1.81 275.786 72.900
1.82 275.112 73.034
1.83 275.329 72.517
1.84 276.291 71.989
1.85 278.364 71.636
1.86 281.328 71.771
1.87 283.465 71.994
1.88 281.461 71.142
1.89 270.110 68.175
1.90 263.278 62.549
1.91 --undefined-- 55.261
1.92 --undefined-- 51.930
1.93 --undefined-- 51.128
1.94 --undefined-- 50.265
1.95 --undefined-- 49.736
1.96 --undefined-- 49.330
1.97 --undefined-- 49.032
1.98 --undefined-- 47.919
1.99 --undefined-- 48.689
2.00 --undefined-- 56.898
2.01 241.109 62.583
2.02 215.755 64.906
2.03 195.414 65.360
2.04 181.901 65.175
2.05 168.271 64.751
2.06 157.914 64.264
2.07 151.544 63.747
2.08 152.764 63.975
2.09 151.122 64.867
2.10 150.798 65.174
2.11 148.559 64.590
2.12 142.272 63.350
2.13 136.974 61.781
2.14 136.811 60.130
2.15 137.316 58.412
2.16 --undefined-- 56.705
2.17 --undefined-- 55.435
2.18 --undefined-- 54.566
2.19 119.349 53.936
2.20 129.855 53.540
2.21 130.660 53.214
2.22 140.292 52.563
2.23 175.653 50.982
2.24 --undefined-- 47.925
2.25 --undefined-- 44.560
2.26 --undefined-- 44.202
2.27 --undefined-- 45.104
2.28 --undefined-- 46.159
2.29 --undefined-- 46.748
2.30 --undefined-- 46.899
2.31 --undefined-- 45.870
2.32 --undefined-- 43.855
2.33 --undefined-- 42.997
2.34 --undefined-- 43.615
2.35 --undefined-- 43.760
2.36 --undefined-- 43.417
2.37 --undefined-- 44.247
2.38 --undefined-- 46.438
2.39 --undefined-- 48.964
2.40 --undefined-- 50.409
2.41 --undefined-- 50.695
2.42 --undefined-- 54.785
2.43 --undefined-- 61.348
2.44 170.846 65.719
2.45 168.451 67.714
2.46 162.126 67.908
2.47 155.243 66.890
2.48 148.391 65.400
2.49 143.356 64.305
2.50 141.006 63.315
2.51 138.126 62.072
2.52 136.794 61.218
2.53 136.671 60.839
2.54 141.356 61.095
2.55 150.205 61.782
2.56 156.930 62.402
2.57 163.493 63.258
2.58 169.122 64.209
2.59 175.723 64.837
2.60 181.781 65.457
2.61 185.352 66.359
2.62 187.926 67.225
2.63 189.772 67.567
2.64 190.152 66.823
2.65 193.985 64.282
2.66 200.889 59.198
2.67 --undefined-- 53.450
2.68 --undefined-- 54.244
2.69 --undefined-- 56.029
2.70 --undefined-- 57.180
2.71 --undefined-- 59.048
2.72 227.234 64.737
2.73 234.221 69.643
2.74 232.913 72.473
2.75 230.081 73.792
2.76 228.366 74.014
2.77 225.530 73.164
2.78 221.914 71.548
2.79 218.935 70.281
2.80 216.863 69.912
2.81 215.020 69.974
2.82 214.420 70.124
2.83 215.045 69.942
2.84 217.120 69.123
2.85 217.937 67.602
2.86 211.886 65.243
2.87 206.714 61.752
2.88 211.698 56.679
2.89 --undefined-- 49.167
2.90 --undefined-- 40.302
2.91 --undefined-- 43.546
2.92 --undefined-- 51.198
2.93 --undefined-- 60.020
2.94 --undefined-- 66.659
2.95 212.620 70.320
2.96 206.482 72.145
2.97 199.004 73.444
2.98 194.281 73.709
2.99 184.613 72.616
3.00 179.062 71.799
3.01 175.386 72.125
3.02 173.025 72.637
3.03 172.554 72.777
3.04 173.023 72.529
3.05 173.720 72.176
3.06 174.662 71.966
3.07 176.103 71.907
3.08 177.686 72.107
3.09 178.315 72.766
3.10 178.456 73.475
3.11 177.810 73.548
3.12 176.023 72.694
3.13 172.362 71.075
3.14 168.837 68.992
3.15 168.926 66.681
3.16 170.249 64.321
3.17 171.674 62.171
3.18 172.548 60.622
3.19 174.090 59.719
3.20 178.294 59.353
3.21 175.432 59.309
3.22 159.774 59.225
3.23 153.950 59.300
3.24 --undefined-- 59.705
3.25 --undefined-- 59.853
3.26 --undefined-- 59.663
3.27 --undefined-- 59.656
3.28 --undefined-- 59.807
3.29 --undefined-- 60.119
3.30 144.990 60.149
3.31 148.798 59.626
3.32 147.844 58.813
3.33 147.157 58.113
3.34 138.136 57.814
3.35 138.550 57.832
3.36 141.322 58.150
3.37 143.982 58.565
3.38 145.717 58.688
3.39 145.150 58.620
3.40 145.677 59.024
3.41 150.404 60.025
3.42 155.290 60.966
3.43 157.538 61.268
3.44 154.445 60.498
3.45 153.777 58.699
3.46 157.171 56.204
3.47 --undefined-- 52.481
3.48 --undefined-- 47.037
3.49 --undefined-- 42.482
3.50 --undefined-- 41.932
3.51 --undefined-- 42.362
3.52 --undefined-- 44.100
3.53 --undefined-- 47.584
3.54 --undefined-- 49.826
3.55 --undefined-- 49.863
3.56 --undefined-- 48.734
3.57 --undefined-- 47.478
3.58 --undefined-- 45.805
3.59 --undefined-- 52.619
3.60 --undefined-- 63.907
3.61 267.545 71.012
3.62 268.226 74.525
3.63 267.014 75.471
3.64 266.771 75.037
3.65 267.432 74.272
3.66 267.658 73.551
3.67 266.654 72.098
3.68 267.303 68.973
3.69 264.303 64.045
3.70 86.818 58.269
3.71 86.833 53.250
3.72 --undefined-- 48.757
3.73 --undefined-- 44.009
3.74 --undefined-- 41.076
3.75 --undefined-- 39.469
3.76 --undefined-- 36.895
3.77 --undefined-- 33.195
3.78 --undefined-- 29.786
3.79 --undefined-- 28.543
3.80 --undefined-- 28.654
3.81 --undefined-- 29.121
3.82 --undefined-- 29.499
3.83 --undefined-- 30.139
3.84 --undefined-- 31.389
3.85 --undefined-- 32.011
3.86 --undefined-- 31.415
3.87 --undefined-- 30.361
3.88 --undefined-- 29.161
3.89 --undefined-- 28.751
3.90 --undefined-- 30.283
3.91 --undefined-- 32.286
3.92 --undefined-- 33.098
3.93 --undefined-- 32.279
3.94 --undefined-- 30.796
3.95 --undefined-- 29.508
3.96 --undefined-- 28.202
3.97 --undefined-- 26.826
3.98 --undefined-- 27.072
3.99 --undefined-- 28.197
4.00 --undefined-- 28.552
4.01 --undefined-- 29.782
4.02 --undefined-- 31.640
4.03 --undefined-- 36.128
4.04 --undefined-- 49.541
4.05 --undefined-- 59.033
4.06 220.078 64.849
4.07 206.370 68.242
4.08 197.676 70.408
4.09 193.285 71.900
4.10 189.629 72.918
4.11 186.687 73.633
4.12 184.475 74.116
4.13 184.306 74.565
4.14 187.303 75.179
4.15 191.019 75.684
4.16 193.571 75.757
4.17 194.597 75.433
4.18 195.575 74.731
4.19 194.138 73.142
4.20 189.683 69.688
4.21 190.138 63.555
4.22 189.462 56.042
4.23 189.282 54.144
4.24 188.926 54.085
4.25 194.197 53.596
4.26 --undefined-- 59.397
4.27 --undefined-- 67.977
4.28 175.461 72.885
4.29 171.295 74.476
4.30 168.829 74.105
4.31 169.032 73.240
4.32 168.733 72.214
4.33 167.990 70.976
4.34 166.503 69.760
4.35 163.976 68.036
4.36 164.202 64.919
4.37 163.683 59.722
4.38 --undefined-- 54.002
4.39 --undefined-- 52.633
4.40 --undefined-- 53.093
4.41 --undefined-- 54.357
4.42 --undefined-- 57.170
4.43 --undefined-- 59.693
4.44 --undefined-- 60.629
4.45 --undefined-- 62.733
4.46 264.480 67.766
4.47 257.854 71.453
4.48 234.549 73.300
4.49 218.723 73.743
4.50 205.899 73.428
4.51 196.789 73.209
4.52 193.086 73.077
4.53 191.683 72.859
4.54 192.506 72.580
4.55 192.758 72.283
4.56 193.549 72.068
4.57 194.417 71.758
4.58 194.037 70.969
4.59 190.530 69.803
4.60 190.375 69.281
4.61 191.385 69.684
4.62 189.577 70.042
4.63 186.341 69.922
4.64 180.631 69.611
4.65 175.801 69.978
4.66 171.774 71.276
4.67 169.296 72.612
4.68 149.809 73.295
4.69 147.669 73.395
4.70 145.584 73.313
4.71 144.999 73.278
4.72 145.706 73.269
4.73 146.953 73.083
4.74 148.137 72.491
4.75 149.160 71.522
4.76 149.910 70.638
4.77 150.295 70.261
4.78 151.581 69.851
4.79 155.605 69.084
4.80 158.441 68.244
4.81 158.388 66.853
4.82 156.029 64.647
4.83 154.014 62.077
4.84 156.559 58.683
4.85 --undefined-- 53.094
4.86 --undefined-- 47.002
4.87 --undefined-- 45.200
4.88 --undefined-- 45.188
4.89 --undefined-- 46.556
4.90 --undefined-- 49.257
4.91 --undefined-- 52.300
4.92 --undefined-- 54.704
4.93 --undefined-- 56.637
4.94 --undefined-- 61.892
4.95 223.081 67.529
4.96 202.946 70.900
4.97 197.198 72.811
4.98 190.480 74.187
4.99 185.415 75.201
5.00 182.221 75.688
5.01 181.661 75.736
5.02 181.982 75.703
5.03 182.493 75.715
5.04 183.799 75.608
5.05 186.247 75.129
5.06 189.037 73.549
5.07 185.606 69.906
5.08 173.463 63.584
5.09 178.527 55.753
5.10 181.910 50.507
5.11 --undefined-- 47.863
5.12 --undefined-- 45.923
5.13 --undefined-- 45.306
5.14 --undefined-- 44.956
5.15 --undefined-- 45.684
5.16 --undefined-- 55.544
5.17 --undefined-- 65.462
5.18 271.142 71.943
5.19 265.805 75.245
5.20 262.121 76.435
5.21 260.263 76.601
5.22 260.530 76.504
5.23 261.865 76.340
5.24 264.341 76.103
5.25 268.109 75.789
5.26 271.648 75.358
5.27 273.475 74.828
5.28 275.009 74.373
5.29 277.666 74.009
5.30 279.669 73.458
5.31 278.755 72.505
5.32 274.804 70.898
5.33 268.670 67.759
5.34 252.564 62.165
5.35 --undefined-- 53.527
5.36 --undefined-- 46.697
5.37 --undefined-- 45.526
5.38 --undefined-- 45.296
5.39 --undefined-- 44.799
5.40 --undefined-- 44.162
5.41 --undefined-- 44.835
5.42 --undefined-- 47.284
5.43 --undefined-- 49.523
5.44 --undefined-- 50.486
5.45 --undefined-- 56.661
5.46 292.125 65.198
5.47 290.978 70.313
5.48 282.987 72.485
5.49 280.710 73.020
5.50 279.213 73.058
5.51 278.404 72.942
5.52 279.500 72.543
5.53 284.962 --undefined--
5.54 286.162 --undefined--
5.55 --undefined-- --undefined--
5.56 --undefined-- --undefined--
