Time Pitch Intensity
0.01 --undefined-- --undefined--
0.02 --undefined-- --undefined--
0.03 --undefined-- --undefined--
0.04 --undefined-- --undefined--
0.05 --undefined-- 45.290
0.06 --undefined-- 45.601
0.07 --undefined-- 46.382
0.08 --undefined-- 46.544
0.09 --undefined-- 45.934
0.10 --undefined-- 46.146
0.11 --undefined-- 46.865
0.12 --undefined-- 46.415
0.13 --undefined-- 45.306
0.14 --undefined-- 44.910
0.15 --undefined-- 44.284
0.16 --undefined-- 42.786
0.17 --undefined-- 40.785
0.18 --undefined-- 38.663
0.19 --undefined-- 37.482
0.20 --undefined-- 37.344
0.21 --undefined-- 37.270
0.22 --undefined-- 36.406
0.23 --undefined-- 44.435
0.24 --undefined-- 54.783
0.25 --undefined-- 61.549
0.26 --undefined-- 67.440
0.27 172.720 72.901
0.28 166.743 76.747
0.29 164.189 78.809
0.30 162.287 79.714
0.31 161.829 80.199
0.32 163.299 80.175
0.33 167.293 79.159
0.34 170.574 78.027
0.35 170.767 77.865
0.36 170.875 77.668
0.37 173.579 76.567
0.38 176.519 74.624
0.39 174.123 72.214
0.40 168.563 69.016
0.41 153.166 64.298
0.42 156.822 58.233
0.43 --undefined-- 52.083
0.44 --undefined-- 48.380
0.45 --undefined-- 47.528
0.46 --undefined-- 46.866
0.47 --undefined-- 45.942
0.48 --undefined-- 45.527
0.49 --undefined-- 45.450
0.50 --undefined-- 44.875
0.51 --undefined-- 43.825
0.52 --undefined-- 43.292
0.53 --undefined-- 43.824
0.54 --undefined-- 52.251
0.55 --undefined-- 61.456
0.56 212.521 67.219
0.57 193.963 70.640
0.58 191.653 73.092
0.59 189.432 75.530
0.60 188.274 77.823
0.61 189.274 79.077
0.62 188.650 78.839
0.63 188.272 77.744
0.64 189.316 77.297
0.65 190.779 77.797
0.66 190.853 78.300
0.67 188.956 78.127
0.68 181.567 77.129
0.69 174.934 75.066
0.70 165.879 71.192
0.71 144.363 64.868
0.72 --undefined-- 56.350
0.73 --undefined-- 49.138
0.74 --undefined-- 47.004
0.75 --undefined-- 47.784
0.76 --undefined-- 55.265
0.77 --undefined-- 65.141
0.78 --undefined-- 71.532
0.79 --undefined-- 75.108
0.80 170.918 76.904
0.81 166.593 77.630
0.82 161.691 77.814
0.83 159.317 77.950
0.84 158.699 78.267
0.85 159.347 78.686
0.86 159.818 79.000
0.87 160.811 79.051
0.88 162.431 78.698
0.89 164.049 77.955
0.90 165.239 77.090
0.91 166.721 76.187
0.92 167.364 74.932
0.93 164.921 72.875
0.94 --undefined-- 69.812
0.95 --undefined-- 67.043
0.96 --undefined-- 65.956
0.97 --undefined-- 64.366
0.98 --undefined-- 63.338
0.99 --undefined-- 66.113
1.00 163.207 69.651
1.01 157.537 72.634
1.02 155.574 74.671
1.03 154.418 76.055
1.04 154.256 77.159
1.05 154.544 77.928
1.06 154.966 78.267
1.07 155.399 78.304
1.08 156.916 78.112
1.09 157.766 77.791
1.10 158.554 77.212
1.11 157.483 75.988
1.12 155.030 74.111
1.13 151.185 72.077
1.14 --undefined-- 70.430
1.15 --undefined-- 69.565
1.16 --undefined-- 68.838
1.17 --undefined-- 68.272
1.18 --undefined-- 69.151
1.19 170.378 71.263
1.20 153.679 73.727
1.21 153.612 75.815
1.22 155.936 77.255
1.23 158.929 77.941
1.24 160.291 78.102
1.25 160.029 78.056
1.26 159.550 77.934
1.27 158.770 77.663
1.28 158.054 77.159
1.29 157.258 76.187
1.30 155.740 74.086
1.31 151.806 70.127
1.32 146.660 64.782
1.33 144.233 61.016
1.34 140.389 59.498
1.35 136.589 62.389
1.36 172.492 68.183
1.37 143.612 72.400
1.38 130.535 74.600
1.39 127.999 75.136
1.40 122.299 74.545
1.41 120.271 73.144
1.42 117.173 70.670
1.43 118.786 66.415
1.44 --undefined-- 60.076
1.45 --undefined-- 53.393
1.46 --undefined-- 49.626
1.47 --undefined-- 47.405
1.48 --undefined-- 45.869
1.49 --undefined-- 45.886
1.50 --undefined-- 48.834
1.51 --undefined-- 57.817
1.52 165.736 65.771
1.53 162.074 70.520
1.54 145.920 73.008
1.55 142.964 74.237
1.56 140.508 74.726
1.57 137.889 74.664
1.58 135.937 74.152
1.59 134.487 73.499
1.60 134.516 73.475
1.61 135.022 74.282
1.62 132.761 75.160
1.63 127.055 75.554
1.64 121.077 75.283
1.65 116.686 74.208
1.66 111.740 72.236
1.67 105.848 69.195
1.68 --undefined-- 64.832
1.69 --undefined-- 58.759
1.70 --undefined-- 51.949
1.71 --undefined-- 46.666
1.72 --undefined-- 43.210
1.73 --undefined-- 44.494
1.74 --undefined-- 52.226
1.75 --undefined-- 60.349
1.76 --undefined-- 66.716
1.77 141.261 70.538
1.78 139.414 72.220
1.79 134.819 72.757
1.80 133.785 73.156
1.81 133.940 73.841
1.82 134.674 74.658
1.83 135.769 75.406
1.84 137.428 75.932
1.85 138.338 76.207
1.86 138.956 76.332
1.87 140.380 76.453
1.88 141.141 76.563
1.89 141.663 76.444
1.90 142.707 75.966
1.91 144.325 75.260
1.92 146.094 74.514
1.93 147.575 73.696
1.94 147.504 72.652
1.95 146.015 71.098
1.96 143.739 68.715
1.97 139.907 65.546
1.98 --undefined-- 61.920
1.99 --undefined-- 58.972
2.00 --undefined-- 58.562
2.01 --undefined-- 57.546
2.02 --undefined-- 53.532
2.03 --undefined-- 50.567
2.04 --undefined-- 51.469
2.05 --undefined-- 51.697
2.06 --undefined-- 52.662
2.07 --undefined-- 52.199
2.08 --undefined-- 48.041
2.09 --undefined-- 40.255
2.10 --undefined-- 35.863
2.11 --undefined-- 42.381
2.12 --undefined-- 49.370
2.13 --undefined-- 53.083
2.14 --undefined-- 54.625
2.15 --undefined-- 55.233
2.16 --undefined-- 55.504
2.17 --undefined-- 55.681
2.18 --undefined-- 55.796
2.19 --undefined-- 57.183
2.20 --undefined-- 63.932
2.21 --undefined-- 70.778
2.22 146.517 75.052
2.23 145.254 76.796
2.24 137.685 76.771
2.25 134.130 76.585
2.26 132.531 76.826
2.27 132.384 76.836
2.28 134.081 76.566
2.29 134.109 76.634
2.30 137.633 77.688
2.31 143.200 78.965
2.32 146.226 79.650
2.33 148.118 79.784
2.34 149.612 79.566
2.35 151.825 79.144
2.36 156.640 79.045
2.37 160.048 79.833
2.38 162.259 80.585
2.39 167.465 80.379
2.40 172.774 79.222
2.41 180.457 77.716
2.42 185.148 76.780
2.43 186.150 76.441
2.44 184.497 75.759
2.45 178.767 73.985
2.46 167.530 70.908
2.47 151.472 66.605
2.48 148.357 60.936
2.49 --undefined-- 54.406
2.50 --undefined-- 50.161
2.51 --undefined-- 49.274
2.52 --undefined-- 50.263
2.53 --undefined-- 52.616
2.54 --undefined-- 55.214
2.55 --undefined-- 56.408
2.56 --undefined-- 56.464
2.57 --undefined-- 55.724
2.58 --undefined-- 54.313
2.59 --undefined-- 54.158
2.60 --undefined-- 55.173
2.61 --undefined-- 55.901
2.62 --undefined-- 56.099
2.63 --undefined-- 55.703
2.64 --undefined-- 55.231
2.65 --undefined-- 58.465
2.66 --undefined-- 65.764
2.67 185.402 71.030
2.68 182.937 74.072
2.69 182.788 75.769
2.70 186.546 76.581
2.71 189.026 76.725
2.72 188.752 76.560
2.73 187.272 76.635
2.74 186.180 76.893
2.75 185.376 77.024
2.76 185.650 76.838
2.77 185.352 75.579
2.78 182.586 72.125
2.79 162.230 65.643
2.80 --undefined-- 56.408
2.81 --undefined-- 52.765
2.82 --undefined-- 61.846
2.83 --undefined-- 68.683
2.84 169.597 72.562
2.85 158.825 74.367
2.86 149.645 74.680
2.87 139.675 73.815
2.88 134.798 71.981
2.89 127.991 68.862
2.90 122.750 63.943
2.91 --undefined-- 57.318
2.92 --undefined-- 50.993
2.93 --undefined-- 48.907
2.94 --undefined-- 47.438
2.95 --undefined-- 45.427
2.96 --undefined-- 44.260
2.97 --undefined-- 42.619
2.98 --undefined-- 39.992
2.99 --undefined-- 39.059
3.00 --undefined-- 41.505
3.01 --undefined-- 44.495
3.02 --undefined-- 50.918
3.03 --undefined-- 60.043
3.04 --undefined-- 66.200
3.05 125.887 69.305
3.06 116.785 70.258
3.07 112.118 70.072
3.08 107.245 69.409
3.09 102.456 68.620
3.10 98.488 67.859
3.11 95.560 67.038
3.12 95.287 66.452
3.13 96.671 65.589
3.14 93.968 62.925
3.15 --undefined-- 58.012
3.16 --undefined-- 53.088
3.17 --undefined-- 50.631
3.18 --undefined-- 50.505
3.19 --undefined-- 54.487
3.20 --undefined-- 61.237
3.21 118.560 66.159
3.22 113.824 68.929
3.23 110.510 70.125
3.24 108.899 70.415
3.25 111.094 70.559
3.26 115.560 71.024
3.27 122.428 71.924
3.28 131.786 73.036
3.29 141.310 74.009
3.30 145.408 74.703
3.31 148.058 74.822
3.32 147.846 73.944
3.33 143.035 71.525
3.34 142.080 67.020
3.35 143.113 60.285
3.36 --undefined-- 53.318
3.37 --undefined-- 50.296
3.38 --undefined-- 48.823
3.39 --undefined-- 49.453
3.40 --undefined-- 57.813
3.41 --undefined-- 65.263
3.42 140.186 69.461
3.43 133.528 71.275
3.44 128.521 71.787
3.45 126.236 71.913
3.46 125.000 72.007
3.47 124.744 71.969
3.48 123.867 71.835
3.49 123.143 71.746
3.50 122.319 71.711
3.51 122.244 71.640
3.52 121.736 71.505
3.53 121.462 71.294
3.54 122.217 70.795
3.55 122.730 69.767
3.56 118.345 68.280
3.57 113.085 66.638
3.58 108.781 64.760
3.59 103.393 62.758
3.60 107.029 61.102
3.61 115.261 58.567
3.62 --undefined-- 53.934
3.63 --undefined-- 48.769
3.64 --undefined-- 44.922
3.65 --undefined-- 40.814
3.66 --undefined-- 39.845
3.67 --undefined-- 40.541
3.68 --undefined-- 39.140
3.69 --undefined-- 36.627
3.70 --undefined-- 35.982
3.71 --undefined-- 36.500
3.72 --undefined-- 37.330
3.73 --undefined-- 37.523
3.74 --undefined-- 36.569
3.75 --undefined-- 37.608
3.76 --undefined-- 39.968
3.77 --undefined-- 40.599
3.78 --undefined-- 38.785
3.79 --undefined-- 36.294
3.80 --undefined-- 36.302
3.81 --undefined-- 37.764
3.82 --undefined-- 39.374
3.83 --undefined-- 39.902
3.84 --undefined-- 39.343
3.85 --undefined-- 39.135
3.86 --undefined-- 39.824
3.87 --undefined-- 40.824
3.88 --undefined-- 41.948
3.89 --undefined-- 42.146
3.90 --undefined-- 41.219
3.91 --undefined-- 40.455
3.92 --undefined-- 40.445
3.93 --undefined-- 40.513
3.94 --undefined-- 39.901
3.95 --undefined-- 38.696
3.96 --undefined-- 37.600
3.97 --undefined-- 37.456
3.98 --undefined-- 38.540
3.99 --undefined-- 40.246
4.00 --undefined-- 41.255
4.01 --undefined-- 42.186
4.02 --undefined-- 42.604
4.03 --undefined-- 40.614
4.04 --undefined-- 37.484
4.05 --undefined-- 37.682
4.06 --undefined-- 40.163
4.07 --undefined-- 44.892
4.08 --undefined-- 50.121
4.09 --undefined-- 56.146
4.10 --undefined-- 64.825
4.11 203.659 70.924
4.12 190.789 74.050
4.13 191.657 75.333
4.14 193.817 75.901
4.15 193.954 76.164
4.16 192.129 75.955
4.17 186.718 74.667
4.18 170.721 71.543
4.19 147.597 66.384
4.20 --undefined-- 60.504
4.21 --undefined-- 58.898
4.22 --undefined-- 59.595
4.23 --undefined-- 62.220
4.24 --undefined-- 69.081
4.25 164.307 74.493
4.26 152.628 77.358
4.27 142.322 78.654
4.28 134.682 78.999
4.29 133.563 78.692
4.30 131.825 78.229
4.31 130.273 77.772
4.32 128.568 77.206
4.33 125.931 76.318
4.34 123.763 75.272
4.35 121.944 74.494
4.36 121.010 74.339
4.37 122.235 74.537
4.38 123.608 74.615
4.39 124.834 74.467
4.40 125.903 74.087
4.41 126.164 73.438
4.42 124.826 72.643
4.43 123.357 71.675
4.44 120.240 70.526
4.45 141.983 69.412
4.46 141.837 67.782
4.47 136.479 64.679
4.48 --undefined-- 60.302
4.49 --undefined-- 56.996
4.50 --undefined-- 54.147
4.51 --undefined-- 48.670
4.52 --undefined-- 41.366
4.53 --undefined-- 37.683
4.54 --undefined-- 38.141
4.55 --undefined-- 40.869
4.56 --undefined-- 47.803
4.57 --undefined-- 54.625
4.58 --undefined-- 57.856
4.59 --undefined-- 57.350
4.60 --undefined-- 53.769
4.61 --undefined-- 50.202
4.62 --undefined-- 49.046
4.63 --undefined-- 49.260
4.64 --undefined-- 50.028
4.65 --undefined-- 53.296
4.66 --undefined-- 63.483
4.67 --undefined-- 71.346
4.68 208.238 75.503
4.69 190.929 76.896
4.70 185.646 77.169
4.71 185.293 77.082
4.72 185.654 76.984
4.73 184.313 77.234
4.74 182.576 77.382
4.75 179.617 77.169
4.76 174.020 76.698
4.77 169.300 75.536
4.78 165.583 73.300
4.79 164.301 73.081
4.80 164.946 75.745
4.81 167.210 77.292
4.82 169.732 77.506
4.83 173.379 77.436
4.84 179.186 77.726
4.85 185.308 78.266
4.86 191.908 78.593
4.87 198.697 78.352
4.88 205.043 77.137
4.89 210.065 74.325
4.90 207.426 69.360
4.91 188.152 61.838
4.92 --undefined-- 53.936
4.93 --undefined-- 49.532
4.94 --undefined-- 49.705
4.95 --undefined-- 56.872
4.96 210.397 65.952
4.97 204.518 71.768
4.98 189.313 74.587
4.99 178.132 75.443
5.00 168.678 75.476
5.01 162.582 75.367
5.02 157.739 75.427
5.03 154.046 75.876
5.04 151.051 76.378
5.05 147.774 76.336
5.06 146.748 75.833
5.07 147.068 75.419
5.08 148.398 74.914
5.09 147.923 74.316
5.10 147.780 73.676
5.11 146.501 72.000
5.12 137.429 68.069
5.13 --undefined-- 61.475
5.14 --undefined-- 53.321
5.15 --undefined-- 47.160
5.16 --undefined-- 48.358
5.17 --undefined-- 59.085
5.18 --undefined-- 67.599
5.19 --undefined-- 72.610
5.20 131.427 74.988
5.21 128.065 75.639
5.22 123.463 75.526
5.23 121.541 75.388
5.24 120.928 75.228
5.25 121.251 74.920
5.26 121.106 74.442
5.27 119.854 73.686
5.28 117.576 73.050
5.29 122.965 73.459
5.30 129.937 74.361
5.31 137.988 75.097
5.32 145.256 75.801
5.33 152.031 76.133
5.34 160.272 75.835
5.35 167.711 75.126
5.36 173.455 74.257
5.37 176.575 73.282
5.38 175.981 72.057
5.39 170.251 70.279
5.40 157.914 67.806
5.41 --undefined-- 64.174
5.42 --undefined-- 59.001
5.43 --undefined-- 51.901
5.44 --undefined-- 43.668
5.45 --undefined-- 40.093
5.46 --undefined-- 39.402
5.47 --undefined-- 39.141
5.48 --undefined-- 39.641
5.49 --undefined-- 42.623
5.50 --undefined-- 44.906
5.51 --undefined-- 48.251
5.52 --undefined-- 55.401
5.53 124.025 59.958
5.54 118.604 61.502
5.55 105.561 61.488
5.56 105.474 62.913
5.57 117.873 66.428
5.58 130.441 69.729
5.59 128.516 71.690
5.60 126.533 72.429
5.61 125.765 72.731
5.62 126.745 73.224
5.63 127.461 73.765
5.64 128.359 73.999
5.65 130.573 73.957
5.66 137.006 74.133
5.67 148.004 74.452
5.68 151.174 74.860
5.69 157.509 75.297
5.70 163.059 76.087
5.71 164.544 --undefined--
5.72 164.802 --undefined--
5.73 --undefined-- --undefined--
5.74 --undefined-- --undefined--
