Time Pitch Intensity
0.01 --undefined-- --undefined--
0.02 115.413 --undefined--
0.03 116.001 --undefined--
0.04 114.096 --undefined--
0.05 111.501 66.838
0.06 111.121 64.182
0.07 --undefined-- 60.642
0.08 --undefined-- 56.104
0.09 --undefined-- 51.922
0.10 --undefined-- 49.343
0.11 --undefined-- 46.653
0.12 --undefined-- 43.754
0.13 --undefined-- 41.274
0.14 --undefined-- 39.156
0.15 --undefined-- 37.093
0.16 --undefined-- 35.937
0.17 --undefined-- 35.600
0.18 --undefined-- 34.981
0.19 --undefined-- 34.439
0.20 --undefined-- 34.429
0.21 --undefined-- 35.111
0.22 --undefined-- 35.951
0.23 --undefined-- 37.200
0.24 --undefined-- 38.558
0.25 --undefined-- 39.970
0.26 --undefined-- 41.360
0.27 --undefined-- 42.378
0.28 --undefined-- 43.450
0.29 --undefined-- 43.959
0.30 --undefined-- 44.115
0.31 --undefined-- 44.684
0.32 --undefined-- 44.834
0.33 --undefined-- 44.321
0.34 --undefined-- 43.989
0.35 --undefined-- 43.693
0.36 --undefined-- 43.204
0.37 --undefined-- 42.978
0.38 --undefined-- 43.040
0.39 --undefined-- 43.008
0.40 --undefined-- 42.571
0.41 --undefined-- 41.639
0.42 --undefined-- 40.519
0.43 --undefined-- 39.891
0.44 --undefined-- 39.910
0.45 --undefined-- 39.924
0.46 --undefined-- 39.476
0.47 --undefined-- 38.869
0.48 --undefined-- 38.654
0.49 --undefined-- 38.435
0.50 --undefined-- 38.088
0.51 --undefined-- 37.851
0.52 --undefined-- 38.385
0.53 --undefined-- 40.571
0.54 --undefined-- 47.969
0.55 --undefined-- 57.175
0.56 --undefined-- 63.781
0.57 110.819 68.191
0.58 111.920 70.549
0.59 116.201 70.999
0.60 115.219 70.154
0.61 113.453 68.421
0.62 111.596 65.273
0.63 --undefined-- 59.683
0.64 --undefined-- 51.370
0.65 --undefined-- 42.852
0.66 --undefined-- 39.205
0.67 --undefined-- 38.106
0.68 --undefined-- 39.913
0.69 --undefined-- 44.471
0.70 --undefined-- 50.044
0.71 --undefined-- 55.482
0.72 --undefined-- 57.994
0.73 --undefined-- 58.990
0.74 --undefined-- 63.556
0.75 --undefined-- 67.923
0.76 --undefined-- 70.009
0.77 --undefined-- 70.515
0.78 91.949 69.998
0.79 89.876 69.128
0.80 89.426 68.786
0.81 89.734 68.570
0.82 91.227 67.818
0.83 94.585 66.725
0.84 98.854 65.881
0.85 102.331 64.885
0.86 105.439 63.157
0.87 108.006 62.553
0.88 111.391 66.117
0.89 112.290 69.411
0.90 110.241 70.352
0.91 108.027 69.878
0.92 105.164 69.475
0.93 105.468 69.208
0.94 103.943 68.442
0.95 105.098 66.433
0.96 102.689 62.337
0.97 102.321 55.620
0.98 --undefined-- 47.314
0.99 --undefined-- 46.524
1.00 --undefined-- 53.010
1.01 --undefined-- 60.694
1.02 --undefined-- 65.986
1.03 93.525 68.432
1.04 97.754 68.457
1.05 101.726 66.450
1.06 100.377 62.530
1.07 --undefined-- 56.741
1.08 --undefined-- 49.869
1.09 --undefined-- 45.073
1.10 --undefined-- 41.230
1.11 --undefined-- 37.781
1.12 --undefined-- 36.584
1.13 --undefined-- 41.752
1.14 --undefined-- 51.608
1.15 --undefined-- 58.367
1.16 --undefined-- 62.276
1.17 --undefined-- 63.619
1.18 --undefined-- 64.414
1.19 86.974 67.122
1.20 86.545 69.071
1.21 86.105 69.244
1.22 79.751 68.128
1.23 79.634 66.734
1.24 79.944 65.907
1.25 82.676 65.860
1.26 86.212 65.988
1.27 86.665 65.629
1.28 94.378 65.061
1.29 100.368 64.436
1.30 103.807 63.572
1.31 108.007 62.989
1.32 111.407 62.878
1.33 111.897 63.138
1.34 113.260 63.410
1.35 114.103 62.691
1.36 114.021 59.819
1.37 --undefined-- 54.060
1.38 --undefined-- 46.135
1.39 --undefined-- 40.914
1.40 --undefined-- 38.510
1.41 --undefined-- 37.759
1.42 --undefined-- 43.442
1.43 --undefined-- 53.439
1.44 --undefined-- 63.368
1.45 --undefined-- 69.840
1.46 --undefined-- 72.793
1.47 --undefined-- 73.035
1.48 91.307 71.744
1.49 83.013 70.025
1.50 83.975 68.129
1.51 79.538 66.208
1.52 81.731 64.682
1.53 83.590 64.214
1.54 82.936 63.920
1.55 79.988 62.596
1.56 79.863 60.320
1.57 78.722 57.122
1.58 83.815 54.232
1.59 83.907 54.310
1.60 86.423 56.696
1.61 90.533 59.955
1.62 96.289 63.026
1.63 103.194 65.454
1.64 103.697 66.930
1.65 105.992 67.324
1.66 108.376 66.597
1.67 105.738 64.333
1.68 101.904 59.837
1.69 --undefined-- 52.561
1.70 --undefined-- 47.414
1.71 --undefined-- 49.935
1.72 --undefined-- 51.345
1.73 --undefined-- 56.181
1.74 --undefined-- 62.968
1.75 --undefined-- 67.660
1.76 --undefined-- 69.231
1.77 --undefined-- 68.350
1.78 --undefined-- 65.797
1.79 --undefined-- 61.014
1.80 --undefined-- 52.533
1.81 --undefined-- 42.032
1.82 --undefined-- 38.605
1.83 --undefined-- 36.965
1.84 --undefined-- 36.453
1.85 --undefined-- 36.028
1.86 --undefined-- 35.675
1.87 --undefined-- 36.070
1.88 --undefined-- 37.496
1.89 --undefined-- 47.056
1.90 --undefined-- 58.009
1.91 --undefined-- 65.222
1.92 --undefined-- 68.931
1.93 --undefined-- 69.585
1.94 --undefined-- 68.091
1.95 --undefined-- 66.142
1.96 --undefined-- 64.453
1.97 --undefined-- 63.319
1.98 --undefined-- 62.769
1.99 --undefined-- 61.964
2.00 --undefined-- 61.941
2.01 --undefined-- 62.782
2.02 --undefined-- 63.967
2.03 --undefined-- 65.593
2.04 --undefined-- 66.531
2.05 --undefined-- 66.282
2.06 --undefined-- 65.164
2.07 --undefined-- 63.590
2.08 --undefined-- 61.327
2.09 91.422 58.304
2.10 93.455 54.872
2.11 86.174 51.078
2.12 82.440 48.069
2.13 81.995 48.230
2.14 88.475 50.316
2.15 --undefined-- 52.111
2.16 80.496 55.188
2.17 --undefined-- 58.756
2.18 --undefined-- 59.973
2.19 --undefined-- 60.823
2.20 --undefined-- 63.081
2.21 --undefined-- 64.395
2.22 --undefined-- 63.943
2.23 81.350 61.634
2.24 84.994 57.718
2.25 82.695 53.945
2.26 80.432 52.512
2.27 80.392 52.469
2.28 77.949 52.387
2.29 76.928 52.378
2.30 76.987 52.546
2.31 77.002 52.601
2.32 76.910 52.836
2.33 76.006 53.201
2.34 76.161 53.345
2.35 76.289 53.170
2.36 77.183 52.739
2.37 80.726 52.374
2.38 81.025 51.965
2.39 81.057 51.101
2.40 81.187 49.761
2.41 80.594 48.005
2.42 --undefined-- 45.672
2.43 --undefined-- 42.860
2.44 --undefined-- 45.859
2.45 --undefined-- 53.477
2.46 --undefined-- 57.558
2.47 --undefined-- 58.648
2.48 --undefined-- 61.717
2.49 --undefined-- 66.407
2.50 87.815 68.957
2.51 88.615 69.736
2.52 88.761 69.523
2.53 89.134 68.736
2.54 89.001 68.012
2.55 88.324 67.800
2.56 87.593 68.003
2.57 85.322 68.263
2.58 84.919 68.295
2.59 84.998 68.219
2.60 84.821 68.163
2.61 84.371 68.078
2.62 83.574 67.820
2.63 82.847 67.452
2.64 82.230 67.100
2.65 81.345 65.939
2.66 80.392 63.627
2.67 79.555 61.224
2.68 79.376 59.127
2.69 --undefined-- 56.207
2.70 --undefined-- 51.851
2.71 --undefined-- 47.347
2.72 --undefined-- 43.450
2.73 --undefined-- 41.044
2.74 --undefined-- 41.531
2.75 --undefined-- 44.433
2.76 --undefined-- 47.410
2.77 --undefined-- 54.163
2.78 --undefined-- 62.691
2.79 --undefined-- 67.631
2.80 113.527 69.557
2.81 112.899 69.992
2.82 116.717 70.027
2.83 115.219 69.406
2.84 115.026 67.605
2.85 111.167 64.230
2.86 110.954 59.370
2.87 113.036 54.664
2.88 --undefined-- 50.719
2.89 --undefined-- 47.055
2.90 --undefined-- 44.837
2.91 --undefined-- 45.102
2.92 --undefined-- 50.055
2.93 --undefined-- 54.334
2.94 89.625 55.970
2.95 90.671 55.802
2.96 84.996 54.914
2.97 83.053 54.128
2.98 82.823 53.569
2.99 82.474 52.473
3.00 80.671 51.033
3.01 80.714 50.052
3.02 84.732 49.701
3.03 84.571 49.981
3.04 87.098 50.102
3.05 93.441 49.592
3.06 --undefined-- 49.414
3.07 --undefined-- 50.812
3.08 --undefined-- 55.809
3.09 --undefined-- 60.963
3.10 --undefined-- 65.012
3.11 109.274 67.748
3.12 107.504 69.202
3.13 109.958 69.719
3.14 114.485 69.358
3.15 115.280 67.817
3.16 115.810 64.472
3.17 --undefined-- 58.468
3.18 --undefined-- 49.450
3.19 --undefined-- 42.055
3.20 --undefined-- 38.952
3.21 --undefined-- 36.745
3.22 --undefined-- 35.243
3.23 --undefined-- 35.315
3.24 --undefined-- 35.985
3.25 --undefined-- 36.987
3.26 --undefined-- 44.904
3.27 --undefined-- 55.670
3.28 --undefined-- 63.634
3.29 --undefined-- 68.075
3.30 --undefined-- 69.434
3.31 --undefined-- 68.887
3.32 84.081 67.938
3.33 81.227 66.892
3.34 77.629 65.410
3.35 76.068 63.920
3.36 75.940 62.655
3.37 75.907 60.806
3.38 76.551 57.783
3.39 --undefined-- 53.575
3.40 --undefined-- 48.269
3.41 --undefined-- 43.960
3.42 --undefined-- 43.564
3.43 --undefined-- 47.948
3.44 --undefined-- 52.001
3.45 --undefined-- 54.809
3.46 --undefined-- 60.557
3.47 93.997 65.156
3.48 94.220 67.233
3.49 94.110 67.055
3.50 92.814 64.765
3.51 --undefined-- 60.259
3.52 --undefined-- 53.202
3.53 --undefined-- 44.689
3.54 --undefined-- 40.410
3.55 --undefined-- 39.021
3.56 --undefined-- 37.704
3.57 --undefined-- 37.319
3.58 --undefined-- 43.019
3.59 --undefined-- 49.449
3.60 --undefined-- 53.996
3.61 --undefined-- 58.402
3.62 --undefined-- 60.784
3.63 --undefined-- 62.185
3.64 --undefined-- 66.215
3.65 --undefined-- 69.262
3.66 120.536 70.071
3.67 119.710 69.174
3.68 113.141 66.886
3.69 116.644 63.728
3.70 119.973 61.024
3.71 119.972 59.635
3.72 120.207 59.286
3.73 119.116 59.593
3.74 116.032 59.979
3.75 114.287 60.198
3.76 114.159 60.174
3.77 114.352 59.957
3.78 115.884 59.822
3.79 116.123 59.897
3.80 116.489 60.093
3.81 117.089 60.231
3.82 116.518 60.197
3.83 116.204 60.087
3.84 116.765 60.006
3.85 116.608 59.944
3.86 116.304 59.903
3.87 117.164 59.976
3.88 116.507 59.970
3.89 114.715 59.406
3.90 113.448 57.727
3.91 112.303 55.235
3.92 --undefined-- 56.985
3.93 --undefined-- 61.583
3.94 --undefined-- 63.956
3.95 --undefined-- 63.832
3.96 --undefined-- 62.207
3.97 --undefined-- 60.576
3.98 --undefined-- 60.144
3.99 --undefined-- 60.469
4.00 --undefined-- 60.333
4.01 --undefined-- 61.688
4.02 --undefined-- 66.551
4.03 --undefined-- 69.825
4.04 --undefined-- 70.865
4.05 114.482 70.981
4.06 112.301 70.795
4.07 112.627 70.705
4.08 112.002 70.492
4.09 111.700 69.632
4.10 110.825 68.381
4.11 109.568 67.514
4.12 108.464 66.928
4.13 108.048 66.151
4.14 106.872 65.166
4.15 105.810 64.327
4.16 106.557 64.009
4.17 107.128 64.387
4.18 107.403 65.371
4.19 107.760 66.297
4.20 106.554 66.530
4.21 104.717 65.687
4.22 98.248 63.353
4.23 98.441 59.541
4.24 --undefined-- 55.453
4.25 --undefined-- 52.988
4.26 --undefined-- 53.441
4.27 --undefined-- 54.670
4.28 --undefined-- 55.831
4.29 --undefined-- 57.393
4.30 --undefined-- 59.367
4.31 101.795 61.860
4.32 101.119 63.244
4.33 99.493 62.744
4.34 99.439 60.632
4.35 98.638 57.695
4.36 98.332 55.783
4.37 97.730 55.071
4.38 96.848 54.511
4.39 96.144 53.934
4.40 93.995 53.623
4.41 93.366 53.548
4.42 93.107 53.600
4.43 93.103 53.758
4.44 93.364 53.717
4.45 94.259 53.585
4.46 94.931 53.576
4.47 94.507 53.693
4.48 93.425 53.669
4.49 92.863 52.998
4.50 90.630 51.245
4.51 --undefined-- 48.391
4.52 --undefined-- 45.589
4.53 --undefined-- 47.084
4.54 --undefined-- 52.285
4.55 --undefined-- 56.680
4.56 --undefined-- 59.182
4.57 --undefined-- 59.601
4.58 --undefined-- 60.939
4.59 --undefined-- 65.630
4.60 113.051 68.889
4.61 112.363 69.677
4.62 111.332 69.132
4.63 109.238 68.102
4.64 104.379 66.131
4.65 --undefined-- 62.531
4.66 --undefined-- 57.257
4.67 --undefined-- 51.595
4.68 --undefined-- 45.563
4.69 --undefined-- 43.365
4.70 --undefined-- 43.022
4.71 --undefined-- 43.399
4.72 --undefined-- 47.468
4.73 --undefined-- 50.424
4.74 --undefined-- 53.668
4.75 --undefined-- 56.758
4.76 --undefined-- 58.502
4.77 --undefined-- 61.356
4.78 --undefined-- 65.200
4.79 --undefined-- 67.255
4.80 86.712 67.050
4.81 84.238 65.577
4.82 82.222 64.731
4.83 81.093 64.724
4.84 80.412 64.777
4.85 82.280 64.830
4.86 83.516 64.857
4.87 84.165 64.505
4.88 85.222 63.790
4.89 87.406 62.810
4.90 87.283 61.174
4.91 88.345 58.654
4.92 89.425 56.245
4.93 87.355 54.784
4.94 87.889 54.063
4.95 87.148 53.619
4.96 86.470 52.883
4.97 85.478 52.039
4.98 84.375 51.911
4.99 83.698 53.144
5.00 83.919 55.665
5.01 81.690 58.633
5.02 81.165 61.245
5.03 83.018 63.480
5.04 85.494 65.740
5.05 86.104 67.392
5.06 84.742 67.842
5.07 85.118 67.783
5.08 85.406 68.174
5.09 86.069 68.593
5.10 87.282 68.693
5.11 90.007 69.139
5.12 92.577 70.260
5.13 94.349 70.995
5.14 95.602 70.790
5.15 97.166 70.040
5.16 98.054 69.336
5.17 100.192 68.863
5.18 104.148 68.768
5.19 103.462 68.612
5.20 105.929 67.699
5.21 111.271 66.139
5.22 108.750 64.156
5.23 --undefined-- 60.504
5.24 --undefined-- 53.894
5.25 --undefined-- 46.740
5.26 --undefined-- 44.387
5.27 --undefined-- 41.957
5.28 --undefined-- 38.650
5.29 --undefined-- 37.461
5.30 --undefined-- 37.629
5.31 --undefined-- 37.589
5.32 --undefined-- 38.050
5.33 --undefined-- 39.550
5.34 --undefined-- 41.265
5.35 --undefined-- 42.981
5.36 --undefined-- 45.351
5.37 --undefined-- 47.419
5.38 --undefined-- 47.730
5.39 --undefined-- 47.228
5.40 --undefined-- 46.576
5.41 --undefined-- 45.482
5.42 --undefined-- 45.142
5.43 --undefined-- 45.206
5.44 --undefined-- 45.299
5.45 --undefined-- 45.669
5.46 --undefined-- 45.947
5.47 --undefined-- 46.291
5.48 --undefined-- 46.857
5.49 --undefined-- 46.999
5.50 --undefined-- 46.745
5.51 --undefined-- 46.413
5.52 --undefined-- 45.980
5.53 --undefined-- 45.156
5.54 --undefined-- 43.839
5.55 --undefined-- 42.579
5.56 --undefined-- 41.778
5.57 --undefined-- 41.287
5.58 --undefined-- 40.828
5.59 --undefined-- 40.521
5.60 --undefined-- 39.900
5.61 --undefined-- 39.007
5.62 --undefined-- 38.638
5.63 --undefined-- 38.787
5.64 --undefined-- 38.588
5.65 --undefined-- 41.292
5.66 --undefined-- 49.460
5.67 --undefined-- 54.057
5.68 --undefined-- 54.243
5.69 --undefined-- 51.443
5.70 --undefined-- 54.827
5.71 --undefined-- 59.675
5.72 100.068 61.179
5.73 99.539 60.155
5.74 112.662 59.553
5.75 116.680 60.834
5.76 121.041 62.104
5.77 125.928 62.733
5.78 125.544 --undefined--
5.79 121.820 --undefined--
5.80 --undefined-- --undefined--
5.81 --undefined-- --undefined--
