Time Pitch Intensity
0.01 --undefined-- --undefined--
0.02 144.490 --undefined--
0.03 142.763 --undefined--
0.04 143.509 --undefined--
0.05 --undefined-- 51.118
0.06 --undefined-- 55.390
0.07 --undefined-- 62.175
0.08 --undefined-- 67.636
0.09 --undefined-- 70.640
0.10 --undefined-- 71.856
0.11 --undefined-- 71.386
0.12 --undefined-- 69.346
0.13 --undefined-- 67.161
0.14 --undefined-- 65.241
0.15 --undefined-- 63.002
0.16 --undefined-- 61.057
0.17 --undefined-- 57.185
0.18 --undefined-- 50.291
0.19 --undefined-- 46.522
0.20 --undefined-- 47.868
0.21 --undefined-- 49.417
0.22 --undefined-- 49.969
0.23 --undefined-- 51.784
0.24 --undefined-- 54.294
0.25 --undefined-- 54.083
0.26 --undefined-- 51.048
0.27 --undefined-- 47.783
0.28 --undefined-- 46.459
0.29 --undefined-- 48.263
0.30 --undefined-- 49.613
0.31 --undefined-- 51.854
0.32 --undefined-- 57.248
0.33 --undefined-- 60.689
0.34 --undefined-- 62.286
0.35 258.906 62.261
0.36 258.908 60.813
0.37 --undefined-- 59.302
0.38 --undefined-- 61.043
0.39 --undefined-- 63.195
0.40 83.341 64.240
0.41 82.658 66.438
0.42 97.722 68.501
0.43 97.588 68.117
0.44 --undefined-- 64.376
0.45 --undefined-- 56.557
0.46 --undefined-- 45.421
0.47 --undefined-- 42.086
0.48 --undefined-- 44.353
0.49 --undefined-- 47.815
0.50 --undefined-- 51.007
0.51 218.603 52.708
0.52 219.877 52.219
0.53 --undefined-- 52.161
0.54 --undefined-- 54.187
0.55 --undefined-- 55.639
0.56 --undefined-- 56.339
0.57 --undefined-- 57.391
0.58 --undefined-- 58.677
0.59 --undefined-- 60.362
0.60 --undefined-- 63.754
0.61 --undefined-- 66.399
0.62 --undefined-- 66.844
0.63 116.504 66.081
0.64 116.769 65.493
0.65 129.712 64.514
0.66 137.801 62.818
0.67 139.664 60.567
0.68 142.477 57.170
0.69 --undefined-- 51.899
0.70 --undefined-- 47.040
0.71 --undefined-- 45.205
0.72 --undefined-- 51.393
0.73 --undefined-- 61.628
0.74 --undefined-- 68.571
0.75 --undefined-- 71.980
0.76 --undefined-- 72.641
0.77 --undefined-- 71.812
0.78 --undefined-- 69.609
0.79 --undefined-- 65.606
0.80 --undefined-- 63.482
0.81 --undefined-- 62.998
0.82 80.352 61.399
0.83 79.534 59.373
0.84 --undefined-- 56.961
0.85 --undefined-- 55.418
0.86 --undefined-- 53.461
0.87 --undefined-- 49.548
0.88 --undefined-- 46.453
0.89 --undefined-- 43.866
0.90 --undefined-- 41.315
0.91 --undefined-- 40.189
0.92 --undefined-- 39.677
0.93 --undefined-- 38.994
0.94 --undefined-- 38.801
0.95 --undefined-- 39.451
0.96 --undefined-- 39.761
0.97 --undefined-- 38.912
0.98 --undefined-- 40.109
0.99 --undefined-- 43.772
1.00 --undefined-- 45.938
1.01 --undefined-- 46.391
1.02 --undefined-- 46.144
1.03 --undefined-- 45.331
1.04 --undefined-- 44.822
1.05 --undefined-- 45.233
1.06 --undefined-- 45.451
1.07 --undefined-- 45.043
1.08 --undefined-- 44.586
1.09 --undefined-- 44.382
1.10 --undefined-- 44.269
1.11 --undefined-- 43.936
1.12 --undefined-- 43.845
1.13 --undefined-- 44.306
1.14 --undefined-- 44.191
1.15 --undefined-- 42.885
1.16 --undefined-- 41.159
1.17 --undefined-- 39.770
1.18 --undefined-- 38.737
1.19 --undefined-- 38.645
1.20 --undefined-- 39.517
1.21 --undefined-- 40.076
1.22 --undefined-- 39.810
1.23 --undefined-- 39.571
1.24 --undefined-- 39.914
1.25 --undefined-- 39.524
1.26 --undefined-- 38.916
1.27 --undefined-- 41.475
1.28 --undefined-- 52.290
1.29 --undefined-- 60.174
1.30 --undefined-- 63.623
1.31 --undefined-- 65.894
1.32 --undefined-- 70.013
1.33 192.311 72.224
1.34 191.868 71.129
1.35 190.120 66.622
1.36 208.244 62.410
1.37 218.337 64.783
1.38 227.482 67.029
1.39 237.719 68.231
1.40 247.420 68.887
1.41 258.748 69.464
1.42 270.399 70.047
1.43 283.932 70.414
1.44 293.912 70.754
1.45 299.190 70.910
1.46 151.054 70.808
1.47 149.985 70.824
1.48 150.128 70.889
1.49 150.077 70.865
1.50 150.257 70.795
1.51 151.008 70.821
1.52 151.615 70.975
1.53 152.150 71.048
1.54 152.164 70.734
1.55 150.394 70.789
1.56 --undefined-- 72.385
1.57 --undefined-- 73.254
1.58 163.975 73.069
1.59 164.470 73.330
1.60 165.448 73.999
1.61 165.940 74.455
1.62 165.366 74.294
1.63 163.863 73.298
1.64 161.880 71.005
1.65 156.204 66.593
1.66 159.826 59.945
1.67 164.759 55.794
1.68 161.134 55.380
1.69 164.968 57.388
1.70 167.969 62.071
1.71 167.291 64.643
1.72 163.762 65.533
1.73 --undefined-- 67.168
1.74 276.027 70.356
1.75 261.580 72.888
1.76 --undefined-- 73.593
1.77 --undefined-- 73.352
1.78 --undefined-- 72.925
1.79 --undefined-- 72.197
1.80 --undefined-- 71.195
1.81 --undefined-- 69.854
1.82 --undefined-- 67.794
1.83 --undefined-- 64.064
1.84 126.210 58.680
1.85 128.523 55.913
1.86 128.647 56.454
1.87 131.161 57.890
1.88 135.074 59.792
1.89 139.741 61.151
1.90 146.157 62.367
1.91 --undefined-- 66.138
1.92 173.000 69.897
1.93 179.077 71.868
1.94 188.338 72.808
1.95 194.700 73.231
1.96 199.136 73.251
1.97 201.987 73.096
1.98 203.877 72.925
1.99 205.385 72.757
2.00 205.573 72.437
2.01 204.923 71.658
2.02 203.552 70.277
2.03 201.575 68.378
2.04 201.046 65.673
2.05 199.173 61.760
2.06 196.061 59.056
2.07 187.471 58.747
2.08 182.135 58.385
2.09 183.294 59.246
2.10 187.958 60.821
2.11 205.567 61.722
2.12 209.938 61.787
2.13 206.223 62.118
2.14 212.225 63.497
2.15 211.817 65.375
2.16 212.966 67.777
2.17 200.159 70.655
2.18 187.103 72.729
2.19 177.212 73.468
2.20 172.390 73.288
2.21 170.732 72.471
2.22 170.473 70.887
2.23 171.893 69.121
2.24 172.594 68.383
2.25 171.903 68.547
2.26 171.066 68.995
2.27 170.375 69.495
2.28 170.541 69.953
2.29 171.694 70.262
2.30 173.501 70.321
2.31 175.231 70.025
2.32 176.466 69.230
2.33 177.323 67.909
2.34 177.939 66.298
2.35 178.179 64.837
2.36 178.404 63.798
2.37 178.751 63.065
2.38 179.412 62.497
2.39 179.397 62.140
2.40 178.995 62.156
2.41 179.010 62.274
2.42 179.440 62.050
2.43 179.984 61.410
2.44 179.826 60.499
2.45 179.270 59.338
2.46 178.599 57.936
2.47 178.230 56.447
2.48 177.974 54.835
2.49 177.230 53.081
2.50 175.282 51.077
2.51 --undefined-- 48.765
2.52 --undefined-- 47.499
2.53 --undefined-- 46.954
2.54 --undefined-- 46.432
2.55 --undefined-- 46.036
2.56 --undefined-- 44.724
2.57 --undefined-- 43.996
2.58 --undefined-- 45.075
2.59 --undefined-- 44.797
2.60 --undefined-- 42.585
2.61 --undefined-- 40.591
2.62 --undefined-- 40.143
2.63 --undefined-- 40.100
2.64 --undefined-- 40.573
2.65 --undefined-- 40.834
2.66 --undefined-- 39.647
2.67 --undefined-- 38.333
2.68 --undefined-- 38.628
2.69 --undefined-- 38.239
2.70 --undefined-- 37.449
2.71 --undefined-- 38.981
2.72 --undefined-- 41.466
2.73 --undefined-- 44.173
2.74 --undefined-- 48.696
2.75 --undefined-- 53.285
2.76 --undefined-- 58.854
2.77 --undefined-- 64.966
2.78 160.713 69.057
2.79 156.628 70.841
2.80 152.223 70.868
2.81 149.214 70.076
2.82 147.488 69.474
2.83 148.044 68.649
2.84 151.070 66.595
2.85 150.602 63.123
2.86 --undefined-- 60.162
2.87 --undefined-- 61.813
2.88 --undefined-- 63.907
2.89 --undefined-- 63.989
2.90 --undefined-- 62.315
2.91 --undefined-- 60.164
2.92 193.189 58.847
2.93 202.275 57.712
2.94 208.224 55.029
2.95 --undefined-- 52.781
2.96 --undefined-- 59.857
2.97 148.307 67.435
2.98 150.815 71.520
2.99 149.343 72.758
3.00 147.896 72.536
3.01 147.920 72.114
3.02 148.953 71.568
3.03 149.221 70.262
3.04 150.560 67.513
3.05 156.404 64.268
3.06 159.206 63.313
3.07 162.529 63.636
3.08 165.028 64.480
3.09 164.546 66.757
3.10 162.349 70.295
3.11 159.292 72.484
3.12 156.590 72.647
3.13 150.492 71.740
3.14 145.614 70.610
3.15 --undefined-- 69.580
3.16 --undefined-- 69.331
3.17 141.176 69.657
3.18 141.254 69.793
3.19 131.275 69.489
3.20 136.363 68.875
3.21 138.885 68.098
3.22 142.032 67.141
3.23 145.431 66.078
3.24 145.574 64.835
3.25 147.057 63.080
3.26 146.971 60.859
3.27 143.849 58.022
3.28 143.026 54.746
3.29 147.856 54.435
3.30 152.959 59.621
3.31 159.617 65.609
3.32 160.619 69.627
3.33 159.719 71.497
3.34 157.447 71.421
3.35 152.866 69.678
3.36 148.601 66.638
3.37 145.949 62.408
3.38 --undefined-- 57.640
3.39 --undefined-- 55.723
3.40 --undefined-- 56.343
3.41 --undefined-- 56.081
3.42 --undefined-- 54.295
3.43 --undefined-- 55.695
3.44 --undefined-- 63.353
3.45 --undefined-- 68.813
3.46 149.104 71.438
3.47 143.505 72.163
3.48 137.307 72.239
3.49 133.568 72.182
3.50 134.510 71.917
3.51 133.917 71.505
3.52 131.237 71.008
3.53 129.945 70.615
3.54 130.305 70.111
3.55 131.257 69.325
3.56 133.567 68.720
3.57 135.345 68.750
3.58 136.799 69.199
3.59 138.794 69.573
3.60 141.060 69.204
3.61 143.875 67.713
3.62 148.335 65.681
3.63 155.063 64.980
3.64 160.642 65.358
3.65 167.025 65.198
3.66 175.485 64.417
3.67 178.288 63.281
3.68 179.349 61.915
3.69 179.508 60.170
3.70 179.964 58.020
3.71 182.536 56.316
3.72 195.485 55.002
3.73 --undefined-- 52.695
3.74 --undefined-- 48.679
3.75 --undefined-- 46.246
3.76 --undefined-- 54.785
3.77 --undefined-- 62.133
3.78 --undefined-- 64.831
3.79 --undefined-- 63.218
3.80 --undefined-- 58.470
3.81 --undefined-- 55.749
3.82 --undefined-- 55.807
3.83 --undefined-- 57.069
3.84 --undefined-- 60.487
3.85 --undefined-- 65.725
3.86 180.773 69.997
3.87 176.851 72.165
3.88 173.392 72.644
3.89 170.536 72.118
3.90 169.036 70.898
3.91 168.766 69.541
3.92 167.063 68.788
3.93 165.494 68.747
3.94 165.048 68.997
3.95 164.999 69.236
3.96 165.408 69.488
3.97 166.265 69.728
3.98 167.348 69.843
3.99 168.734 69.803
4.00 170.160 69.537
4.01 171.513 68.694
4.02 174.162 66.444
4.03 --undefined-- 61.712
4.04 161.697 54.493
4.05 163.703 49.795
4.06 165.735 49.725
4.07 165.108 49.964
4.08 --undefined-- 52.689
4.09 --undefined-- 57.456
4.10 --undefined-- 63.890
4.11 --undefined-- 68.552
4.12 174.120 70.835
4.13 172.028 71.765
4.14 168.524 71.993
4.15 164.701 71.568
4.16 162.372 70.607
4.17 159.051 69.273
4.18 154.428 67.509
4.19 148.747 65.412
4.20 144.693 63.055
4.21 141.530 60.216
4.22 --undefined-- 57.928
4.23 76.243 56.951
4.24 75.676 56.749
4.25 --undefined-- 62.632
4.26 --undefined-- 68.382
4.27 --undefined-- 71.438
4.28 145.172 72.899
4.29 146.473 73.549
4.30 148.531 73.414
4.31 153.078 72.399
4.32 156.547 70.778
4.33 159.983 69.168
4.34 162.721 67.846
4.35 165.094 66.781
4.36 167.169 65.933
4.37 169.495 64.953
4.38 171.186 63.667
4.39 173.119 62.089
4.40 174.447 60.189
4.41 173.623 57.406
4.42 171.781 54.018
4.43 --undefined-- 53.059
4.44 --undefined-- 56.110
4.45 --undefined-- 58.438
4.46 --undefined-- 59.273
4.47 --undefined-- 60.339
4.48 --undefined-- 63.819
4.49 202.135 67.450
4.50 194.644 70.337
4.51 179.717 72.389
4.52 169.083 73.132
4.53 160.928 72.652
4.54 155.307 71.518
4.55 151.658 69.993
4.56 151.225 67.786
4.57 152.089 65.454
4.58 152.882 64.511
4.59 154.096 64.560
4.60 157.005 64.413
4.61 161.086 63.722
4.62 163.609 62.785
4.63 165.094 62.309
4.64 166.076 62.381
4.65 166.981 62.675
4.66 167.753 62.775
4.67 167.639 62.252
4.68 167.347 60.776
4.69 168.957 58.152
4.70 174.815 53.945
4.71 --undefined-- 48.432
4.72 --undefined-- 45.674
4.73 --undefined-- 45.663
4.74 --undefined-- 46.406
4.75 --undefined-- 48.270
4.76 --undefined-- 50.029
4.77 --undefined-- 51.219
4.78 --undefined-- 51.525
4.79 --undefined-- 51.317
4.80 --undefined-- 51.419
4.81 --undefined-- 52.011
4.82 --undefined-- 52.813
4.83 --undefined-- 52.832
4.84 --undefined-- 52.017
4.85 --undefined-- 51.883
4.86 --undefined-- 52.691
4.87 --undefined-- 53.065
4.88 --undefined-- 51.770
4.89 --undefined-- 48.705
4.90 --undefined-- 44.268
4.91 --undefined-- 41.468
4.92 --undefined-- 52.312
4.93 --undefined-- 61.184
4.94 --undefined-- 65.631
4.95 --undefined-- 68.199
4.96 --undefined-- 70.517
4.97 --undefined-- 71.303
4.98 163.014 71.138
4.99 158.116 71.878
5.00 156.772 72.463
5.01 155.012 72.240
5.02 152.412 71.489
5.03 150.516 70.230
5.04 148.721 68.189
5.05 147.419 64.895
5.06 149.407 60.608
5.07 140.631 59.681
5.08 137.964 61.474
5.09 134.691 62.729
5.10 131.942 63.358
5.11 130.716 63.446
5.12 130.289 63.175
5.13 130.351 63.110
5.14 130.418 63.495
5.15 130.849 63.839
5.16 131.645 63.878
5.17 132.755 63.636
5.18 133.798 63.222
5.19 134.866 62.432
5.20 136.057 60.919
5.21 136.715 60.885
5.22 142.543 66.155
5.23 145.225 70.788
5.24 146.318 72.878
5.25 145.035 73.098
5.26 145.228 72.844
5.27 146.403 72.466
5.28 147.436 71.490
5.29 148.273 69.811
5.30 152.394 67.858
5.31 154.707 66.119
5.32 160.915 64.956
5.33 169.956 64.309
5.34 177.597 63.029
5.35 186.359 60.295
5.36 --undefined-- 57.173
5.37 --undefined-- --undefined--
5.38 --undefined-- --undefined--
5.39 --undefined-- --undefined--
5.40 --undefined-- --undefined--
