Time Pitch Intensity
0.01 --undefined-- --undefined--
0.02 117.686 --undefined--
0.03 116.427 --undefined--
0.04 115.427 --undefined--
0.05 115.425 69.964
0.06 115.319 69.476
0.07 115.151 68.765
0.08 113.014 67.947
0.09 111.553 66.175
0.10 104.686 62.554
0.11 --undefined-- 57.828
0.12 --undefined-- 56.560
0.13 --undefined-- 58.746
0.14 --undefined-- 60.260
0.15 --undefined-- 60.079
0.16 --undefined-- 58.585
0.17 --undefined-- 59.473
0.18 --undefined-- 65.091
0.19 134.405 68.916
0.20 128.336 70.640
0.21 125.990 71.051
0.22 124.584 70.716
0.23 122.765 69.977
0.24 121.674 69.091
0.25 122.283 68.148
0.26 121.781 66.921
0.27 121.327 65.116
0.28 121.652 62.510
0.29 123.702 59.658
0.30 124.181 58.127
0.31 123.254 57.779
0.32 122.528 57.548
0.33 121.046 57.290
0.34 119.073 56.933
0.35 116.724 56.095
0.36 117.451 54.742
0.37 --undefined-- 54.105
0.38 --undefined-- 55.428
0.39 --undefined-- 57.196
0.40 --undefined-- 57.950
0.41 --undefined-- 57.772
0.42 --undefined-- 56.889
0.43 --undefined-- 58.389
0.44 --undefined-- 64.105
0.45 120.393 68.007
0.46 118.964 69.427
0.47 113.567 69.208
0.48 107.742 68.394
0.49 108.641 67.405
0.50 105.291 65.870
0.51 105.493 62.832
0.52 106.476 58.783
0.53 107.545 57.131
0.54 107.972 57.259
0.55 110.479 57.469
0.56 110.961 57.819
0.57 111.994 58.382
0.58 113.015 59.820
0.59 116.692 63.076
0.60 116.979 66.128
0.61 116.954 67.694
0.62 117.218 68.094
0.63 117.920 68.265
0.64 116.550 68.564
0.65 115.373 68.632
0.66 114.881 68.306
0.67 113.933 67.777
0.68 113.571 67.157
0.69 112.948 65.893
0.70 --undefined-- 63.189
0.71 --undefined-- 58.793
0.72 --undefined-- 53.082
0.73 --undefined-- 46.356
0.74 --undefined-- 41.170
0.75 --undefined-- 38.102
0.76 --undefined-- 36.423
0.77 --undefined-- 36.129
0.78 --undefined-- 38.196
0.79 --undefined-- 42.574
0.80 --undefined-- 45.903
0.81 --undefined-- 47.437
0.82 --undefined-- 47.702
0.83 --undefined-- 47.603
0.84 --undefined-- 47.957
0.85 --undefined-- 48.655
0.86 --undefined-- 48.890
0.87 --undefined-- 49.005
0.88 --undefined-- 49.244
0.89 --undefined-- 49.127
0.90 --undefined-- 49.096
0.91 --undefined-- 49.733
0.92 --undefined-- 50.383
0.93 --undefined-- 50.695
0.94 --undefined-- 50.493
0.95 --undefined-- 49.746
0.96 --undefined-- 48.751
0.97 --undefined-- 47.893
0.98 --undefined-- 47.376
0.99 --undefined-- 47.698
1.00 --undefined-- 48.147
1.01 --undefined-- 47.758
1.02 --undefined-- 47.352
1.03 --undefined-- 46.836
1.04 --undefined-- 45.502
1.05 --undefined-- 44.616
1.06 --undefined-- 44.695
1.07 --undefined-- 44.556
1.08 --undefined-- 43.723
1.09 --undefined-- 41.912
1.10 --undefined-- 39.878
1.11 --undefined-- 38.536
1.12 --undefined-- 37.764
1.13 --undefined-- 37.678
1.14 --undefined-- 38.140
1.15 --undefined-- 38.407
1.16 --undefined-- 38.511
1.17 --undefined-- 38.403
1.18 --undefined-- 38.153
1.19 --undefined-- 39.278
1.20 --undefined-- 43.844
1.21 --undefined-- 49.058
1.22 --undefined-- 52.378
1.23 95.481 53.882
1.24 95.649 54.826
1.25 94.628 57.570
1.26 91.625 62.971
1.27 100.776 67.393
1.28 92.034 69.798
1.29 92.352 70.710
1.30 92.222 70.594
1.31 94.279 70.399
1.32 95.759 70.521
1.33 95.978 69.787
1.34 96.466 68.161
1.35 97.858 66.957
1.36 98.014 66.420
1.37 98.614 65.933
1.38 99.679 65.450
1.39 100.238 65.147
1.40 101.916 65.138
1.41 104.176 65.053
1.42 105.452 64.402
1.43 106.554 63.223
1.44 108.450 62.281
1.45 110.071 62.395
1.46 111.275 62.875
1.47 113.775 62.269
1.48 --undefined-- 59.487
1.49 --undefined-- 54.134
1.50 --undefined-- 48.895
1.51 --undefined-- 46.631
1.52 --undefined-- 44.330
1.53 --undefined-- 45.213
1.54 --undefined-- 51.624
1.55 --undefined-- 55.224
1.56 --undefined-- 55.417
1.57 --undefined-- 55.750
1.58 --undefined-- 58.755
1.59 --undefined-- 61.771
1.60 --undefined-- 63.944
1.61 --undefined-- 65.178
1.62 123.282 65.701
1.63 123.312 65.893
1.64 123.676 65.760
1.65 124.574 65.466
1.66 124.955 65.363
1.67 125.138 65.390
1.68 124.278 65.531
1.69 123.411 65.838
1.70 122.211 66.116
1.71 121.635 66.166
1.72 120.949 66.070
1.73 119.546 65.873
1.74 118.656 65.625
1.75 117.935 65.396
1.76 117.502 64.861
1.77 117.701 63.654
1.78 118.367 61.607
1.79 114.837 58.587
1.80 113.516 54.646
1.81 111.459 50.876
1.82 110.193 50.324
1.83 109.702 54.838
1.84 114.729 60.849
1.85 113.536 65.702
1.86 113.269 68.560
1.87 108.817 69.690
1.88 107.728 69.756
1.89 105.157 69.170
1.90 105.805 68.594
1.91 104.859 68.511
1.92 103.332 68.156
1.93 101.537 66.968
1.94 99.392 64.402
1.95 --undefined-- 59.734
1.96 --undefined-- 52.755
1.97 --undefined-- 45.329
1.98 --undefined-- 41.767
1.99 --undefined-- 46.092
2.00 92.429 54.256
2.01 92.037 60.790
2.02 92.920 65.387
2.03 97.758 68.214
2.04 87.764 69.313
2.05 86.175 69.381
2.06 --undefined-- 69.030
2.07 81.118 68.411
2.08 80.604 67.864
2.09 81.605 67.846
2.10 79.491 68.007
2.11 79.413 67.417
2.12 79.337 66.346
2.13 82.608 66.642
2.14 83.754 66.896
2.15 86.700 66.099
2.16 85.912 65.290
2.17 83.914 64.893
2.18 84.277 64.461
2.19 86.774 63.968
2.20 86.736 63.614
2.21 82.239 63.332
2.22 81.263 63.079
2.23 80.468 62.503
2.24 80.528 60.911
2.25 79.350 58.821
2.26 79.740 57.520
2.27 78.706 56.428
2.28 78.366 54.714
2.29 80.402 52.561
2.30 83.010 51.535
2.31 83.310 51.919
2.32 83.468 52.056
2.33 83.346 51.167
2.34 84.611 49.123
2.35 --undefined-- 46.131
2.36 --undefined-- 42.534
2.37 --undefined-- 42.594
2.38 --undefined-- 49.923
2.39 --undefined-- 54.436
2.40 --undefined-- 56.832
2.41 --undefined-- 62.064
2.42 --undefined-- 67.237
2.43 --undefined-- 69.632
2.44 116.805 70.004
2.45 120.255 70.009
2.46 108.391 70.316
2.47 108.091 70.778
2.48 108.363 71.192
2.49 110.258 71.383
2.50 110.867 71.398
2.51 112.836 71.138
2.52 115.563 70.750
2.53 117.101 70.518
2.54 119.187 70.320
2.55 120.858 70.114
2.56 121.140 69.742
2.57 120.010 68.842
2.58 117.760 67.231
2.59 115.657 64.602
2.60 --undefined-- 60.286
2.61 --undefined-- 53.491
2.62 --undefined-- 44.654
2.63 --undefined-- 39.785
2.64 --undefined-- 44.283
2.65 --undefined-- 49.691
2.66 --undefined-- 51.752
2.67 --undefined-- 51.754
2.68 --undefined-- 52.605
2.69 --undefined-- 53.836
2.70 --undefined-- 54.392
2.71 --undefined-- 56.387
2.72 --undefined-- 59.056
2.73 76.142 59.564
2.74 77.339 57.800
2.75 80.039 54.401
2.76 79.880 51.112
2.77 83.317 50.536
2.78 83.818 50.924
2.79 84.937 51.208
2.80 85.624 51.496
2.81 85.925 51.772
2.82 86.717 52.341
2.83 87.129 52.859
2.84 91.265 53.517
2.85 94.576 54.961
2.86 98.222 57.384
2.87 101.550 60.564
2.88 103.400 63.295
2.89 102.900 65.108
2.90 106.724 66.170
2.91 108.226 66.655
2.92 111.045 66.749
2.93 110.762 66.836
2.94 110.691 66.696
2.95 110.035 65.367
2.96 109.161 61.806
2.97 --undefined-- 55.354
2.98 --undefined-- 46.537
2.99 --undefined-- 40.428
3.00 --undefined-- 38.685
3.01 --undefined-- 42.171
3.02 --undefined-- 48.828
3.03 --undefined-- 53.922
3.04 --undefined-- 57.014
3.05 --undefined-- 62.631
3.06 --undefined-- 68.220
3.07 119.700 70.579
3.08 118.742 70.044
3.09 115.106 67.966
3.10 114.580 66.082
3.11 118.413 64.546
3.12 113.909 62.736
3.13 115.638 61.442
3.14 112.204 62.101
3.15 110.638 63.569
3.16 108.798 64.513
3.17 104.789 64.622
3.18 104.339 64.370
3.19 101.246 64.271
3.20 96.410 64.135
3.21 93.656 63.621
3.22 92.918 62.678
3.23 91.869 61.382
3.24 91.473 59.056
3.25 91.066 54.770
3.26 91.746 49.578
3.27 91.461 48.139
3.28 91.150 51.244
3.29 91.513 55.640
3.30 94.667 59.499
3.31 97.855 62.332
3.32 100.957 64.540
3.33 101.115 66.378
3.34 102.184 67.570
3.35 102.804 67.975
3.36 102.491 67.169
3.37 135.495 64.162
3.38 --undefined-- 58.034
3.39 --undefined-- 49.166
3.40 --undefined-- 42.358
3.41 --undefined-- 39.103
3.42 --undefined-- 38.142
3.43 --undefined-- 37.642
3.44 --undefined-- 37.578
3.45 --undefined-- 42.142
3.46 --undefined-- 53.822
3.47 --undefined-- 62.788
3.48 --undefined-- 67.963
3.49 --undefined-- 70.060
3.50 --undefined-- 70.010
3.51 80.375 68.861
3.52 80.221 67.490
3.53 79.762 66.489
3.54 78.387 65.340
3.55 --undefined-- 63.229
3.56 87.651 61.071
3.57 89.228 59.734
3.58 92.500 58.676
3.59 92.319 57.691
3.60 92.125 56.522
3.61 --undefined-- 54.194
3.62 --undefined-- 49.468
3.63 --undefined-- 42.057
3.64 --undefined-- 36.377
3.65 --undefined-- 35.400
3.66 --undefined-- 35.387
3.67 --undefined-- 35.754
3.68 --undefined-- 36.692
3.69 --undefined-- 38.791
3.70 --undefined-- 48.647
3.71 --undefined-- 59.879
3.72 --undefined-- 66.436
3.73 115.269 69.060
3.74 116.411 68.570
3.75 111.509 65.775
3.76 --undefined-- 61.595
3.77 77.573 56.916
3.78 77.243 52.930
3.79 --undefined-- 51.755
3.80 --undefined-- 53.212
3.81 --undefined-- 55.478
3.82 --undefined-- 56.878
3.83 --undefined-- 57.682
3.84 --undefined-- 59.319
3.85 --undefined-- 61.225
3.86 99.185 63.260
3.87 96.992 65.047
3.88 98.099 66.066
3.89 101.040 66.035
3.90 101.398 64.869
3.91 103.688 63.294
3.92 104.148 61.747
3.93 105.854 59.690
3.94 106.804 57.924
3.95 108.333 57.737
3.96 109.313 58.402
3.97 109.909 59.085
3.98 110.174 59.763
3.99 110.434 60.461
4.00 110.110 61.186
4.01 110.386 62.650
4.02 110.051 65.086
4.03 108.705 66.924
4.04 110.007 67.597
4.05 111.194 66.982
4.06 110.980 64.492
4.07 109.033 60.073
4.08 --undefined-- 54.033
4.09 --undefined-- 46.504
4.10 --undefined-- 40.905
4.11 --undefined-- 42.784
4.12 --undefined-- 47.703
4.13 --undefined-- 50.945
4.14 --undefined-- 51.057
4.15 --undefined-- 51.057
4.16 --undefined-- 55.998
4.17 --undefined-- 58.996
4.18 --undefined-- 59.230
4.19 --undefined-- 57.803
4.20 --undefined-- 57.320
4.21 --undefined-- 58.919
4.22 --undefined-- 62.348
4.23 --undefined-- 66.216
4.24 112.702 68.263
4.25 94.476 68.268
4.26 98.324 67.119
4.27 104.112 66.317
4.28 104.562 66.158
4.29 108.032 65.705
4.30 113.482 64.985
4.31 113.734 63.970
4.32 112.947 62.153
4.33 111.342 60.868
4.34 109.996 62.477
4.35 109.550 65.027
4.36 108.364 67.101
4.37 107.727 68.153
4.38 101.051 67.746
4.39 98.719 66.476
4.40 96.335 65.367
4.41 93.195 64.359
4.42 92.192 62.411
4.43 90.482 58.026
4.44 --undefined-- 51.004
4.45 --undefined-- 44.084
4.46 --undefined-- 41.430
4.47 --undefined-- 46.087
4.48 --undefined-- 52.799
4.49 100.415 57.921
4.50 93.794 61.165
4.51 91.438 62.781
4.52 88.994 63.282
4.53 89.427 63.139
4.54 87.120 62.322
4.55 84.489 60.437
4.56 83.195 57.155
4.57 85.901 54.116
4.58 85.626 53.494
4.59 85.958 53.404
4.60 86.622 52.471
4.61 83.824 50.229
4.62 --undefined-- 46.970
4.63 --undefined-- 43.693
4.64 --undefined-- 41.253
4.65 --undefined-- 40.329
4.66 --undefined-- 39.317
4.67 --undefined-- 38.658
4.68 --undefined-- 43.161
4.69 --undefined-- 50.996
4.70 --undefined-- 56.000
4.71 --undefined-- 59.982
4.72 89.285 63.487
4.73 86.356 64.977
4.74 86.655 64.700
4.75 86.465 63.531
4.76 88.550 61.556
4.77 88.285 59.017
4.78 90.352 56.215
4.79 91.282 53.449
4.80 97.805 53.477
4.81 101.229 55.298
4.82 101.765 56.640
4.83 104.929 57.607
4.84 107.112 58.194
4.85 111.350 58.204
4.86 111.620 57.361
4.87 109.651 55.541
4.88 --undefined-- 53.244
4.89 --undefined-- 49.693
4.90 --undefined-- 43.977
4.91 --undefined-- 46.931
4.92 --undefined-- 57.556
4.93 --undefined-- 64.923
4.94 --undefined-- 68.905
4.95 --undefined-- 70.266
4.96 --undefined-- 69.904
4.97 110.605 68.608
4.98 112.132 66.522
4.99 112.469 63.337
5.00 113.669 59.565
5.01 115.191 57.686
5.02 114.698 57.476
5.03 113.847 57.324
5.04 112.476 57.020
5.05 110.680 56.500
5.06 108.296 55.994
5.07 105.353 55.652
5.08 103.521 55.253
5.09 102.325 54.853
5.10 100.120 54.462
5.11 98.136 53.787
5.12 95.586 52.920
5.13 94.718 52.370
5.14 90.854 52.559
5.15 --undefined-- 53.148
5.16 --undefined-- 56.834
5.17 --undefined-- 61.648
5.18 86.817 64.334
5.19 87.298 65.235
5.20 103.953 65.081
5.21 99.228 64.428
5.22 97.385 63.469
5.23 81.198 61.850
5.24 82.916 59.448
5.25 83.652 56.816
5.26 84.327 54.572
5.27 85.935 52.242
5.28 83.308 50.260
5.29 86.012 49.748
5.30 --undefined-- 49.294
5.31 --undefined-- 47.841
5.32 --undefined-- 45.868
5.33 --undefined-- 44.250
5.34 --undefined-- 43.295
5.35 --undefined-- 42.288
5.36 --undefined-- 41.192
5.37 --undefined-- 40.420
5.38 --undefined-- 39.761
5.39 --undefined-- 39.174
5.40 --undefined-- 38.986
5.41 --undefined-- 39.054
5.42 --undefined-- 38.846
5.43 --undefined-- 38.462
5.44 --undefined-- 38.355
5.45 --undefined-- 39.980
5.46 --undefined-- 45.293
5.47 --undefined-- 49.157
5.48 --undefined-- 49.188
5.49 --undefined-- 45.810
5.50 --undefined-- 42.467
5.51 --undefined-- 42.344
5.52 --undefined-- 42.430
5.53 --undefined-- 41.968
5.54 --undefined-- 41.319
5.55 --undefined-- 40.855
5.56 --undefined-- 40.941
5.57 --undefined-- 41.387
5.58 --undefined-- 41.672
5.59 --undefined-- 41.799
5.60 --undefined-- --undefined--
5.61 --undefined-- --undefined--
5.62 --undefined-- --undefined--
5.63 --undefined-- --undefined--
