Time Pitch Intensity
0.01 --undefined-- --undefined--
0.02 150.238 --undefined--
0.03 146.130 --undefined--
0.04 136.399 --undefined--
0.05 126.677 65.686
0.06 120.051 64.829
0.07 112.587 64.825
0.08 112.943 64.915
0.09 103.128 64.662
0.10 95.616 64.657
0.11 88.272 64.799
0.12 83.487 64.731
0.13 83.153 64.120
0.14 83.274 62.957
0.15 94.772 61.917
0.16 108.660 61.682
0.17 109.983 62.554
0.18 114.690 63.930
0.19 125.058 64.836
0.20 138.409 65.430
0.21 148.998 66.266
0.22 160.207 68.267
0.23 168.467 70.894
0.24 171.026 72.162
0.25 178.117 71.813
0.26 191.039 70.727
0.27 200.002 70.049
0.28 204.578 70.416
0.29 207.321 70.973
0.30 207.823 70.649
0.31 204.911 69.111
0.32 201.226 66.581
0.33 200.068 63.776
0.34 199.245 61.876
0.35 202.767 61.856
0.36 212.270 62.897
0.37 215.971 64.301
0.38 201.715 65.833
0.39 186.352 67.245
0.40 181.445 68.407
0.41 169.717 69.580
0.42 164.478 70.254
0.43 155.558 69.886
0.44 150.209 69.281
0.45 147.941 69.006
0.46 146.993 68.752
0.47 147.201 68.512
0.48 148.776 68.257
0.49 150.969 67.680
0.50 149.654 66.682
0.51 147.734 65.011
0.52 149.864 62.208
0.53 152.685 57.834
0.54 148.776 51.741
0.55 --undefined-- 46.218
0.56 --undefined-- 46.215
0.57 --undefined-- 52.881
0.58 --undefined-- 61.942
0.59 --undefined-- 67.693
0.60 157.798 70.487
0.61 148.861 71.164
0.62 147.287 70.334
0.63 136.619 68.985
0.64 140.140 68.077
0.65 141.611 67.569
0.66 136.831 67.308
0.67 131.780 67.332
0.68 131.667 67.609
0.69 131.350 67.856
0.70 131.520 67.984
0.71 132.020 67.972
0.72 132.453 67.829
0.73 132.480 67.525
0.74 132.262 67.210
0.75 131.689 67.056
0.76 131.383 66.960
0.77 131.560 66.821
0.78 132.279 66.679
0.79 133.206 66.612
0.80 132.797 66.620
0.81 131.411 66.486
0.82 128.182 65.682
0.83 118.873 64.244
0.84 118.488 63.427
0.85 122.426 63.232
0.86 129.852 63.670
0.87 148.053 64.828
0.88 168.032 65.755
0.89 177.533 66.691
0.90 196.486 68.040
0.91 196.212 69.295
0.92 196.105 69.846
0.93 196.587 69.991
0.94 196.235 70.005
0.95 192.552 69.416
0.96 --undefined-- 67.748
0.97 --undefined-- 65.842
0.98 --undefined-- 64.808
0.99 --undefined-- 63.745
1.00 --undefined-- 62.453
1.01 --undefined-- 62.958
1.02 127.010 64.794
1.03 119.819 65.890
1.04 119.231 65.897
1.05 126.275 65.626
1.06 144.863 65.670
1.07 152.391 66.042
1.08 149.673 65.960
1.09 146.331 65.540
1.10 138.051 65.344
1.11 137.023 65.672
1.12 134.432 66.268
1.13 133.511 66.616
1.14 133.328 66.645
1.15 133.079 66.712
1.16 133.193 66.973
1.17 132.970 67.298
1.18 133.338 67.473
1.19 134.391 67.248
1.20 135.592 66.709
1.21 136.660 66.263
1.22 138.225 66.195
1.23 139.788 66.577
1.24 141.522 67.397
1.25 143.168 68.351
1.26 144.706 68.839
1.27 146.208 68.497
1.28 148.300 67.642
1.29 150.055 67.076
1.30 151.044 67.032
1.31 152.934 67.156
1.32 155.056 67.269
1.33 158.025 67.371
1.34 162.226 67.539
1.35 164.764 67.659
1.36 164.645 67.504
1.37 164.788 66.825
1.38 166.309 65.666
1.39 169.225 64.487
1.40 172.601 63.867
1.41 174.056 63.745
1.42 175.184 63.522
1.43 174.036 63.008
1.44 171.127 61.876
1.45 168.210 59.477
1.46 --undefined-- 55.625
1.47 --undefined-- 51.184
1.48 --undefined-- 46.350
1.49 --undefined-- 40.830
1.50 --undefined-- 40.012
1.51 --undefined-- 45.560
1.52 --undefined-- 49.419
1.53 --undefined-- 50.513
1.54 --undefined-- 49.970
1.55 --undefined-- 48.757
1.56 --undefined-- 47.065
1.57 --undefined-- 45.640
1.58 --undefined-- 46.007
1.59 --undefined-- 48.661
1.60 --undefined-- 50.263
1.61 --undefined-- 49.400
1.62 --undefined-- 46.716
1.63 --undefined-- 44.907
1.64 --undefined-- 44.920
1.65 --undefined-- 45.589
1.66 --undefined-- 49.483
1.67 --undefined-- 57.522
1.68 --undefined-- 63.952
1.69 174.270 68.066
1.70 168.843 70.793
1.71 166.496 72.291
1.72 164.068 72.587
1.73 158.347 72.372
1.74 158.524 72.366
1.75 158.870 72.288
1.76 158.161 71.907
1.77 156.990 71.364
1.78 153.410 70.661
1.79 151.429 70.183
1.80 149.475 69.966
1.81 146.050 69.751
1.82 141.400 69.481
1.83 139.106 69.110
1.84 136.923 68.569
1.85 135.103 67.997
1.86 133.825 67.962
1.87 132.714 68.732
1.88 130.904 69.575
1.89 128.880 69.813
1.90 126.700 69.281
1.91 124.368 68.102
1.92 123.501 66.917
1.93 123.936 66.707
1.94 123.575 66.970
1.95 121.801 66.870
1.96 119.457 66.348
1.97 118.447 65.540
1.98 118.985 64.562
1.99 120.793 63.733
2.00 123.672 63.406
2.01 128.277 63.586
2.02 131.772 64.125
2.03 132.611 64.934
2.04 132.699 65.888
2.05 130.728 66.938
2.06 128.650 67.645
2.07 126.130 67.751
2.08 124.418 67.624
2.09 124.134 67.303
2.10 123.800 66.241
2.11 114.609 64.287
2.12 115.002 61.453
2.13 122.235 57.812
2.14 126.593 54.379
2.15 140.546 51.537
2.16 141.336 48.086
2.17 --undefined-- 44.124
2.18 --undefined-- 41.749
2.19 --undefined-- 40.840
2.20 --undefined-- 41.204
2.21 --undefined-- 42.100
2.22 --undefined-- 47.033
2.23 --undefined-- 55.616
2.24 --undefined-- 61.568
2.25 --undefined-- 65.132
2.26 126.131 67.056
2.27 123.814 67.954
2.28 120.567 68.663
2.29 120.213 68.997
2.30 118.238 68.244
2.31 116.600 67.039
2.32 117.140 66.448
2.33 119.071 66.315
2.34 122.666 66.332
2.35 123.679 66.151
2.36 122.802 65.922
2.37 125.488 66.721
2.38 133.015 67.615
2.39 136.332 67.597
2.40 145.262 67.033
2.41 154.134 66.113
2.42 156.247 64.395
2.43 155.675 61.640
2.44 152.374 58.137
2.45 151.582 54.338
2.46 152.942 52.501
2.47 --undefined-- 58.876
2.48 --undefined-- 64.497
2.49 159.721 67.550
2.50 153.090 68.831
2.51 148.350 69.204
2.52 145.847 69.282
2.53 143.380 69.228
2.54 139.791 68.924
2.55 138.769 68.332
2.56 139.721 67.971
2.57 143.100 68.254
2.58 144.685 68.627
2.59 145.423 68.645
2.60 146.215 68.386
2.61 149.868 68.147
2.62 146.497 68.200
2.63 143.948 68.468
2.64 144.031 68.683
2.65 148.128 68.638
2.66 150.161 68.531
2.67 148.804 68.459
2.68 145.169 68.496
2.69 143.228 68.678
2.70 143.557 68.471
2.71 144.792 68.032
2.72 144.542 67.874
2.73 143.771 67.796
2.74 143.590 67.444
2.75 144.308 67.027
2.76 143.581 66.923
2.77 136.071 67.184
2.78 134.405 67.528
2.79 134.968 67.665
2.80 136.629 67.521
2.81 136.843 67.027
2.82 136.194 66.105
2.83 136.640 64.283
2.84 136.054 60.861
2.85 135.624 55.555
2.86 136.287 49.966
2.87 136.998 47.405
2.88 137.809 46.169
2.89 --undefined-- 44.671
2.90 --undefined-- 42.939
2.91 --undefined-- 43.628
2.92 --undefined-- 52.208
2.93 --undefined-- 60.113
2.94 --undefined-- 64.870
2.95 --undefined-- 66.984
2.96 134.499 67.451
2.97 132.063 67.596
2.98 131.178 67.812
2.99 130.968 67.855
3.00 130.123 67.817
3.01 129.885 67.678
3.02 128.625 67.145
3.03 125.968 65.822
3.04 120.991 63.788
3.05 124.696 61.822
3.06 124.474 60.402
3.07 124.934 59.683
3.08 129.718 59.949
3.09 132.304 61.202
3.10 132.344 63.172
3.11 132.633 65.167
3.12 131.632 66.726
3.13 124.786 68.058
3.14 124.251 68.657
3.15 122.703 68.405
3.16 119.284 68.021
3.17 111.859 67.507
3.18 106.357 66.715
3.19 100.617 65.734
3.20 98.589 64.569
3.21 97.008 63.354
3.22 96.490 62.057
3.23 92.855 60.701
3.24 86.876 59.420
3.25 83.855 58.852
3.26 83.728 59.252
3.27 87.213 60.253
3.28 94.438 61.430
3.29 97.046 61.766
3.30 98.987 60.553
3.31 101.239 57.797
3.32 103.540 54.151
3.33 92.223 50.468
3.34 92.322 47.653
3.35 --undefined-- 51.686
3.36 --undefined-- 58.467
3.37 136.806 62.496
3.38 117.091 64.061
3.39 110.603 64.107
3.40 103.401 63.503
3.41 99.884 62.517
3.42 95.617 61.238
3.43 92.973 60.466
3.44 92.464 60.621
3.45 95.626 60.864
3.46 97.271 60.983
3.47 100.120 61.341
3.48 101.419 62.016
3.49 103.457 62.816
3.50 105.143 63.482
3.51 105.820 63.938
3.52 105.062 64.198
3.53 105.048 64.183
3.54 106.148 64.045
3.55 104.581 64.053
3.56 101.277 64.025
3.57 99.721 63.900
3.58 96.789 63.796
3.59 94.025 63.437
3.60 92.344 62.831
3.61 92.033 62.410
3.62 91.524 62.185
3.63 92.527 61.818
3.64 93.976 61.227
3.65 94.729 60.537
3.66 95.425 60.016
3.67 96.218 59.789
3.68 97.060 59.959
3.69 98.547 60.584
3.70 100.548 61.481
3.71 102.513 62.345
3.72 105.105 63.118
3.73 108.218 63.878
3.74 110.438 64.581
3.75 112.742 65.163
3.76 114.022 65.530
3.77 114.744 65.506
3.78 117.076 65.065
3.79 117.885 64.147
3.80 115.667 62.223
3.81 113.377 58.738
3.82 119.765 54.250
3.83 127.635 50.776
3.84 123.324 49.109
3.85 119.518 47.740
3.86 --undefined-- 48.381
3.87 --undefined-- 56.472
3.88 --undefined-- 63.559
3.89 --undefined-- 67.620
3.90 142.705 69.442
3.91 142.301 69.996
3.92 134.691 70.336
3.93 134.240 71.045
3.94 134.127 71.405
3.95 133.992 70.964
3.96 134.185 70.141
3.97 134.790 69.450
3.98 135.645 69.071
3.99 136.327 68.978
4.00 137.120 68.962
4.01 137.649 68.855
4.02 137.894 68.613
4.03 137.234 68.355
4.04 136.007 68.059
4.05 --undefined-- 67.121
4.06 --undefined-- 64.551
4.07 --undefined-- 59.858
4.08 --undefined-- 54.297
4.09 --undefined-- 50.266
4.10 --undefined-- 48.128
4.11 --undefined-- 46.675
4.12 --undefined-- 44.766
4.13 --undefined-- 42.616
4.14 --undefined-- 40.314
4.15 --undefined-- 37.815
4.16 --undefined-- 35.074
4.17 --undefined-- 33.607
4.18 --undefined-- 35.325
4.19 --undefined-- 39.837
4.20 --undefined-- 45.091
4.21 --undefined-- 54.433
4.22 --undefined-- 61.670
4.23 --undefined-- 65.811
4.24 140.539 67.877
4.25 140.202 68.578
4.26 139.878 68.273
4.27 151.117 68.642
4.28 158.316 69.922
4.29 167.923 70.624
4.30 175.111 70.718
4.31 180.182 70.120
4.32 182.724 69.101
4.33 182.723 68.568
4.34 182.807 68.603
4.35 182.879 68.654
4.36 184.166 68.657
4.37 178.918 68.901
4.38 174.046 69.736
4.39 171.549 70.424
4.40 162.796 70.120
4.41 154.154 69.403
4.42 148.885 69.411
4.43 143.410 69.706
4.44 136.788 69.467
4.45 132.802 68.893
4.46 130.931 68.527
4.47 130.247 68.356
4.48 129.489 68.240
4.49 127.914 67.811
4.50 125.157 66.352
4.51 124.462 63.456
4.52 124.676 60.076
4.53 124.695 58.416
4.54 126.295 59.042
4.55 132.041 61.091
4.56 132.442 63.070
4.57 129.813 64.143
4.58 124.439 64.447
4.59 116.522 64.362
4.60 113.800 64.143
4.61 111.538 63.605
4.62 109.334 62.636
4.63 108.397 61.819
4.64 109.676 61.820
4.65 111.102 62.343
4.66 113.834 63.207
4.67 119.164 64.387
4.68 122.024 65.513
4.69 125.922 66.277
4.70 130.053 66.759
4.71 136.163 67.244
4.72 139.063 67.603
4.73 142.910 67.636
4.74 144.476 67.470
4.75 147.045 67.564
4.76 145.855 67.892
4.77 151.396 68.114
4.78 149.208 68.187
4.79 146.297 67.889
4.80 147.311 66.799
4.81 142.742 64.528
4.82 138.157 61.347
4.83 142.253 58.379
4.84 146.057 56.038
4.85 147.425 53.027
4.86 148.160 50.222
4.87 --undefined-- 54.163
4.88 --undefined-- 60.249
4.89 149.298 64.266
4.90 144.716 66.211
4.91 127.762 67.013
4.92 125.562 67.274
4.93 119.781 67.142
4.94 115.797 66.994
4.95 109.087 66.966
4.96 102.859 66.721
4.97 96.292 66.352
4.98 94.882 66.038
4.99 94.847 65.453
5.00 96.616 64.936
5.01 98.621 64.884
5.02 101.153 64.663
5.03 103.669 64.112
5.04 104.858 63.851
5.05 103.933 63.451
5.06 102.712 62.108
5.07 94.003 59.344
5.08 --undefined-- 54.799
5.09 --undefined-- 49.057
5.10 --undefined-- --undefined--
5.11 --undefined-- --undefined--
5.12 --undefined-- --undefined--
5.13 --undefined-- --undefined--
