Time Pitch Intensity
0.01 --undefined-- --undefined--
0.02 152.699 --undefined--
0.03 151.258 --undefined--
0.04 --undefined-- --undefined--
0.05 --undefined-- 68.452
0.06 163.590 67.184
0.07 172.463 66.542
0.08 186.710 67.248
0.09 195.074 67.604
0.10 208.915 67.392
0.11 230.873 68.887
0.12 234.458 71.306
0.13 240.237 72.615
0.14 247.840 73.329
0.15 252.302 74.338
0.16 252.735 75.184
0.17 248.951 75.133
0.18 238.782 74.430
0.19 224.675 74.106
0.20 208.510 73.678
0.21 194.590 72.071
0.22 185.621 68.979
0.23 195.570 64.924
0.24 195.516 62.835
0.25 --undefined-- 63.604
0.26 --undefined-- 63.403
0.27 --undefined-- 61.895
0.28 294.888 60.221
0.29 265.881 60.422
0.30 255.544 62.036
0.31 257.210 61.436
0.32 257.163 58.455
0.33 294.213 56.212
0.34 291.431 56.061
0.35 278.772 55.721
0.36 277.441 54.745
0.37 286.006 54.768
0.38 288.705 54.977
0.39 --undefined-- 54.935
0.40 --undefined-- 55.516
0.41 --undefined-- 56.578
0.42 --undefined-- 58.002
0.43 --undefined-- 59.320
0.44 --undefined-- 58.873
0.45 --undefined-- 56.691
0.46 --undefined-- 55.299
0.47 --undefined-- 54.888
0.48 --undefined-- 54.833
0.49 --undefined-- 56.510
0.50 --undefined-- 57.716
0.51 --undefined-- 58.783
0.52 --undefined-- 62.186
0.53 282.962 65.880
0.54 298.772 68.849
0.55 149.983 70.650
0.56 145.962 71.142
0.57 146.503 71.217
0.58 148.830 71.652
0.59 152.802 72.296
0.60 154.842 72.992
0.61 156.276 73.213
0.62 157.130 72.074
0.63 151.064 69.366
0.64 --undefined-- 67.064
0.65 --undefined-- 65.474
0.66 --undefined-- 62.030
0.67 --undefined-- 58.759
0.68 --undefined-- 60.977
0.69 --undefined-- 64.241
0.70 --undefined-- 66.193
0.71 --undefined-- 66.971
0.72 198.290 68.634
0.73 205.829 70.221
0.74 211.729 70.035
0.75 216.774 69.230
0.76 219.959 68.628
0.77 222.734 67.552
0.78 221.227 65.608
0.79 204.953 62.729
0.80 189.743 59.476
0.81 --undefined-- 57.760
0.82 --undefined-- 58.226
0.83 --undefined-- 60.651
0.84 194.604 66.941
0.85 186.120 71.334
0.86 174.246 73.052
0.87 163.905 72.817
0.88 154.668 71.639
0.89 298.652 70.214
0.90 289.038 69.083
0.91 288.201 68.222
0.92 265.080 66.705
0.93 244.063 65.288
0.94 239.077 66.059
0.95 229.864 67.444
0.96 219.159 67.903
0.97 208.979 67.759
0.98 194.920 67.666
0.99 182.417 67.159
1.00 181.271 65.351
1.01 181.468 62.624
1.02 --undefined-- 59.742
1.03 --undefined-- 57.042
1.04 --undefined-- 55.045
1.05 --undefined-- 54.733
1.06 --undefined-- 57.010
1.07 --undefined-- 58.267
1.08 --undefined-- 57.744
1.09 --undefined-- 60.020
1.10 186.780 63.406
1.11 184.906 65.720
1.12 183.139 67.009
1.13 182.334 67.247
1.14 178.042 66.960
1.15 174.090 66.629
1.16 170.976 66.198
1.17 167.756 65.903
1.18 166.096 65.552
1.19 161.697 65.294
1.20 161.740 65.760
1.21 170.902 66.321
1.22 170.555 66.455
1.23 165.190 66.320
1.24 171.028 66.464
1.25 172.224 66.684
1.26 172.360 65.728
1.27 170.822 63.032
1.28 174.481 60.565
1.29 172.073 60.297
1.30 --undefined-- 60.114
1.31 --undefined-- 59.547
1.32 --undefined-- 59.188
1.33 --undefined-- 60.191
1.34 --undefined-- 62.745
1.35 --undefined-- 65.204
1.36 230.803 67.062
1.37 230.826 68.305
1.38 228.875 68.927
1.39 227.145 69.116
1.40 226.061 69.075
1.41 225.467 68.938
1.42 224.919 68.909
1.43 224.722 69.083
1.44 224.725 69.253
1.45 226.862 69.279
1.46 231.279 69.177
1.47 234.515 68.880
1.48 236.493 68.095
1.49 236.510 66.563
1.50 232.990 64.559
1.51 228.960 63.445
1.52 228.585 62.658
1.53 264.229 60.020
1.54 268.142 55.515
1.55 --undefined-- 53.183
1.56 --undefined-- 55.048
1.57 --undefined-- 56.611
1.58 --undefined-- 55.755
1.59 --undefined-- 52.212
1.60 --undefined-- 48.828
1.61 --undefined-- 49.471
1.62 --undefined-- 51.630
1.63 --undefined-- 57.650
1.64 --undefined-- 62.610
1.65 --undefined-- 65.004
1.66 165.268 65.358
1.67 156.963 64.706
1.68 157.289 64.163
1.69 157.979 64.395
1.70 160.712 65.787
1.71 160.835 66.403
1.72 160.162 65.060
1.73 157.728 62.850
1.74 156.840 62.752
1.75 157.403 64.234
1.76 157.011 64.752
1.77 158.339 64.053
1.78 159.550 62.850
1.79 161.372 61.968
1.80 166.389 62.100
1.81 171.830 62.623
1.82 177.542 62.658
1.83 182.869 61.481
1.84 187.263 59.116
1.85 --undefined-- 57.117
1.86 --undefined-- 57.080
1.87 262.228 61.475
1.88 255.834 66.344
1.89 255.616 69.326
1.90 262.056 70.659
1.91 271.960 71.046
1.92 278.287 71.050
1.93 287.027 71.027
1.94 153.789 71.465
1.95 157.561 72.054
1.96 158.121 72.305
1.97 156.620 72.039
1.98 154.142 71.263
1.99 --undefined-- 70.078
2.00 290.225 68.662
2.01 275.758 67.791
2.02 258.697 68.568
2.03 244.931 70.046
2.04 230.753 70.681
2.05 221.899 70.186
2.06 217.768 69.074
2.07 215.697 68.232
2.08 209.821 68.249
2.09 203.974 68.257
2.10 201.498 67.240
2.11 193.508 65.987
2.12 188.145 66.027
2.13 183.974 66.812
2.14 179.474 67.364
2.15 176.453 67.430
2.16 164.047 67.532
2.17 158.987 68.379
2.18 156.403 69.641
2.19 154.443 70.543
2.20 152.708 70.705
2.21 151.331 70.328
2.22 150.685 70.166
2.23 150.823 70.334
2.24 151.277 70.242
2.25 152.411 69.778
2.26 153.467 69.054
2.27 156.383 68.008
2.28 161.073 66.760
2.29 167.099 65.618
2.30 176.678 65.393
2.31 183.770 66.726
2.32 186.585 67.801
2.33 189.435 67.285
2.34 190.565 64.835
2.35 190.020 60.473
2.36 191.346 56.523
2.37 --undefined-- 58.187
2.38 --undefined-- 59.838
2.39 211.446 59.067
2.40 207.107 59.833
2.41 208.040 62.274
2.42 211.609 63.607
2.43 209.332 64.675
2.44 195.470 66.121
2.45 167.272 66.970
2.46 161.382 66.570
2.47 155.845 65.414
2.48 156.289 64.535
2.49 156.856 64.056
2.50 156.729 63.604
2.51 156.525 62.983
2.52 154.357 61.997
2.53 152.640 60.428
2.54 152.515 59.824
2.55 --undefined-- 61.580
2.56 --undefined-- 62.138
2.57 --undefined-- 60.731
2.58 --undefined-- 60.694
2.59 --undefined-- 63.117
2.60 --undefined-- 64.445
2.61 --undefined-- 63.585
2.62 214.007 62.615
2.63 200.654 65.383
2.64 164.635 67.806
2.65 157.650 68.240
2.66 158.768 67.330
2.67 162.366 66.734
2.68 170.391 67.291
2.69 181.245 68.471
2.70 188.599 69.485
2.71 193.338 69.421
2.72 206.437 68.419
2.73 221.835 67.923
2.74 234.433 67.778
2.75 241.814 66.924
2.76 249.258 65.311
2.77 250.112 62.860
2.78 241.105 60.457
2.79 --undefined-- 60.554
2.80 --undefined-- 60.898
2.81 --undefined-- 59.302
2.82 --undefined-- 55.178
2.83 --undefined-- 52.306
2.84 --undefined-- 54.508
2.85 --undefined-- 56.558
2.86 --undefined-- 57.111
2.87 --undefined-- 59.489
2.88 --undefined-- 63.797
2.89 --undefined-- 66.748
2.90 --undefined-- 68.486
2.91 --undefined-- 69.605
2.92 84.552 70.568
2.93 84.983 71.327
2.94 83.903 71.572
2.95 84.110 71.278
2.96 85.199 70.359
2.97 88.177 69.232
2.98 90.677 68.206
2.99 92.426 68.050
3.00 --undefined-- 69.990
3.01 --undefined-- 72.014
3.02 --undefined-- 73.365
3.03 217.568 74.118
3.04 223.940 75.034
3.05 229.669 76.298
3.06 233.108 76.725
3.07 236.386 76.018
3.08 236.299 74.861
3.09 231.939 73.387
3.10 230.183 70.668
3.11 --undefined-- 66.575
3.12 --undefined-- 62.357
3.13 --undefined-- 58.169
3.14 --undefined-- 54.590
3.15 --undefined-- 52.111
3.16 --undefined-- 51.947
3.17 --undefined-- 53.505
3.18 --undefined-- 53.387
3.19 --undefined-- 53.715
3.20 --undefined-- 55.873
3.21 --undefined-- 55.502
3.22 --undefined-- 55.586
3.23 --undefined-- 60.833
3.24 --undefined-- 64.386
3.25 231.216 65.939
3.26 223.416 66.507
3.27 210.948 67.002
3.28 211.703 68.100
3.29 210.917 69.423
3.30 208.888 70.040
3.31 207.071 69.745
3.32 205.245 68.796
3.33 200.943 67.043
3.34 187.182 64.209
3.35 196.573 60.948
3.36 205.137 59.156
3.37 --undefined-- 58.308
3.38 --undefined-- 60.478
3.39 --undefined-- 65.537
3.40 253.405 68.522
3.41 250.521 69.699
3.42 251.567 70.790
3.43 254.987 72.213
3.44 258.857 72.741
3.45 261.596 71.786
3.46 260.267 70.099
3.47 255.479 68.996
3.48 252.424 68.206
3.49 247.017 67.476
3.50 238.371 67.281
3.51 230.176 67.617
3.52 221.662 67.862
3.53 207.549 68.017
3.54 198.670 68.289
3.55 189.402 68.491
3.56 185.321 68.582
3.57 180.175 68.551
3.58 181.242 68.724
3.59 181.934 69.283
3.60 182.879 69.760
3.61 184.181 69.915
3.62 184.986 69.955
3.63 186.386 69.951
3.64 187.069 69.791
3.65 188.306 69.530
3.66 189.815 69.311
3.67 189.767 69.133
3.68 189.296 68.930
3.69 189.971 68.615
3.70 191.143 68.395
3.71 193.834 68.394
3.72 194.242 68.431
3.73 193.911 68.454
3.74 194.871 68.404
3.75 196.645 68.116
3.76 198.484 67.554
3.77 200.508 66.795
3.78 202.315 66.140
3.79 204.048 65.987
3.80 208.270 66.416
3.81 212.150 67.178
3.82 214.317 67.881
3.83 215.323 68.556
3.84 215.369 69.031
3.85 215.569 69.232
3.86 216.337 69.365
3.87 217.002 69.480
3.88 217.502 69.582
3.89 217.906 69.779
3.90 218.182 69.994
3.91 218.532 69.818
3.92 219.133 68.940
3.93 218.972 67.064
3.94 213.199 63.714
3.95 211.098 58.773
3.96 217.478 55.014
3.97 217.987 56.009
3.98 --undefined-- 56.379
3.99 --undefined-- 55.857
4.00 --undefined-- 60.006
4.01 --undefined-- 65.288
4.02 293.356 68.352
4.03 292.513 69.943
4.04 293.016 70.558
4.05 293.125 70.061
4.06 293.060 69.013
4.07 295.091 68.331
4.08 299.200 67.712
4.09 150.651 67.117
4.10 150.470 66.856
4.11 299.017 66.694
4.12 295.042 66.031
4.13 285.776 64.372
4.14 269.135 61.400
4.15 267.302 58.435
4.16 289.838 60.349
4.17 --undefined-- 62.692
4.18 --undefined-- 62.434
4.19 --undefined-- 59.902
4.20 --undefined-- 57.630
4.21 --undefined-- 56.694
4.22 --undefined-- 54.207
4.23 --undefined-- 49.605
4.24 --undefined-- 50.339
4.25 --undefined-- 55.423
4.26 --undefined-- 59.744
4.27 --undefined-- 62.864
4.28 --undefined-- 64.398
4.29 --undefined-- 64.803
4.30 154.908 65.192
4.31 161.512 66.225
4.32 162.771 67.244
4.33 159.453 68.022
4.34 161.623 68.151
4.35 165.431 67.346
4.36 169.033 66.460
4.37 177.407 66.226
4.38 185.648 66.297
4.39 188.551 65.909
4.40 193.576 65.013
4.41 198.108 64.599
4.42 204.140 64.587
4.43 206.973 65.403
4.44 207.462 67.368
4.45 205.966 69.276
4.46 201.347 71.047
4.47 195.348 72.387
4.48 191.263 73.205
4.49 190.517 73.304
4.50 191.011 72.288
4.51 193.006 70.417
4.52 199.609 68.512
4.53 202.164 67.611
4.54 205.145 67.788
4.55 209.073 67.960
4.56 211.300 67.463
4.57 212.819 66.040
4.58 207.615 63.545
4.59 250.846 59.630
4.60 --undefined-- 53.542
4.61 --undefined-- 47.762
4.62 --undefined-- 46.397
4.63 --undefined-- 49.765
4.64 --undefined-- 57.761
4.65 --undefined-- 64.238
4.66 --undefined-- 67.613
4.67 --undefined-- 68.601
4.68 165.294 68.239
4.69 164.499 67.347
4.70 165.149 66.580
4.71 164.352 65.830
4.72 163.533 65.125
4.73 162.756 64.875
4.74 162.161 64.493
4.75 161.020 63.864
4.76 161.317 63.510
4.77 163.492 63.765
4.78 167.568 64.203
4.79 169.751 64.540
4.80 171.946 64.595
4.81 172.007 64.248
4.82 166.979 64.203
4.83 172.506 64.702
4.84 170.968 64.891
4.85 168.151 64.714
4.86 167.170 64.377
4.87 165.162 63.687
4.88 163.108 63.397
4.89 166.335 64.096
4.90 163.428 64.518
4.91 166.088 64.730
4.92 169.055 65.224
4.93 169.543 65.595
4.94 170.459 --undefined--
4.95 173.421 --undefined--
4.96 --undefined-- --undefined--
4.97 --undefined-- --undefined--
