Time Pitch Intensity
0.01 --undefined-- --undefined--
0.02 170.107 --undefined--
0.03 172.152 --undefined--
0.04 168.796 --undefined--
0.05 150.933 68.095
0.06 144.986 68.548
0.07 138.315 68.139
0.08 136.389 67.317
0.09 136.262 66.988
0.10 137.306 67.294
0.11 137.314 67.424
0.12 139.765 67.278
0.13 142.757 67.603
0.14 143.866 68.237
0.15 144.226 68.533
0.16 144.820 68.189
0.17 143.877 67.237
0.18 142.093 65.578
0.19 137.665 62.531
0.20 140.704 57.383
0.21 146.942 51.215
0.22 145.400 47.162
0.23 --undefined-- 45.319
0.24 --undefined-- 43.968
0.25 --undefined-- 43.036
0.26 --undefined-- 43.490
0.27 --undefined-- 47.996
0.28 --undefined-- 57.649
0.29 --undefined-- 64.255
0.30 --undefined-- 67.621
0.31 128.469 68.893
0.32 123.151 69.341
0.33 120.448 69.033
0.34 116.467 68.104
0.35 113.135 67.198
0.36 112.089 66.567
0.37 110.932 66.015
0.38 109.958 65.612
0.39 109.184 65.750
0.40 108.218 66.069
0.41 107.595 65.902
0.42 107.448 65.437
0.43 104.252 65.161
0.44 100.713 64.732
0.45 96.668 63.635
0.46 --undefined-- 61.782
0.47 --undefined-- 59.030
0.48 --undefined-- 54.772
0.49 --undefined-- 49.645
0.50 --undefined-- 46.465
0.51 --undefined-- 43.761
0.52 --undefined-- 42.788
0.53 --undefined-- 42.746
0.54 --undefined-- 42.656
0.55 --undefined-- 43.916
0.56 --undefined-- 45.207
0.57 --undefined-- 45.804
0.58 --undefined-- 46.134
0.59 --undefined-- 46.284
0.60 --undefined-- 46.101
0.61 --undefined-- 46.131
0.62 --undefined-- 46.584
0.63 --undefined-- 46.589
0.64 --undefined-- 46.444
0.65 --undefined-- 46.315
0.66 --undefined-- 45.384
0.67 --undefined-- 43.918
0.68 --undefined-- 42.068
0.69 --undefined-- 38.679
0.70 --undefined-- 33.505
0.71 --undefined-- 29.071
0.72 --undefined-- 28.537
0.73 --undefined-- 29.659
0.74 --undefined-- 30.553
0.75 --undefined-- 33.487
0.76 --undefined-- 45.495
0.77 --undefined-- 56.235
0.78 --undefined-- 62.968
0.79 154.386 66.952
0.80 153.424 69.107
0.81 152.066 69.920
0.82 155.382 70.622
0.83 162.595 71.750
0.84 169.077 72.355
0.85 176.351 72.395
0.86 184.076 71.936
0.87 195.886 71.395
0.88 202.405 71.594
0.89 208.007 72.213
0.90 210.602 72.823
0.91 212.365 73.228
0.92 215.489 73.350
0.93 213.849 73.146
0.94 210.970 72.533
0.95 208.820 71.572
0.96 205.322 70.410
0.97 200.826 69.246
0.98 194.958 68.557
0.99 190.248 68.527
1.00 185.059 68.456
1.01 177.337 68.444
1.02 171.263 69.365
1.03 165.641 70.282
1.04 160.100 70.381
1.05 153.740 70.203
1.06 149.453 70.407
1.07 146.449 70.827
1.08 144.633 71.022
1.09 143.922 70.840
1.10 143.397 70.378
1.11 143.585 69.612
1.12 143.677 68.131
1.13 139.545 65.756
1.14 138.537 63.259
1.15 142.035 61.316
1.16 143.805 60.001
1.17 149.281 61.092
1.18 148.938 64.329
1.19 145.727 66.651
1.20 140.072 67.282
1.21 130.363 67.170
1.22 125.181 67.663
1.23 121.810 68.096
1.24 118.635 67.987
1.25 118.454 67.640
1.26 118.826 66.502
1.27 119.689 64.310
1.28 116.208 61.488
1.29 117.547 58.539
1.30 121.367 55.554
1.31 139.287 52.518
1.32 --undefined-- 49.237
1.33 --undefined-- 45.816
1.34 --undefined-- 42.939
1.35 --undefined-- 40.157
1.36 --undefined-- 42.200
1.37 --undefined-- 53.846
1.38 --undefined-- 62.570
1.39 --undefined-- 67.789
1.40 174.860 70.317
1.41 170.451 71.060
1.42 167.493 70.937
1.43 164.871 70.522
1.44 163.977 70.200
1.45 163.825 70.027
1.46 164.601 69.939
1.47 165.023 69.879
1.48 165.407 69.684
1.49 166.215 69.383
1.50 170.063 69.243
1.51 171.914 69.487
1.52 172.940 69.966
1.53 173.214 70.470
1.54 172.974 70.863
1.55 173.085 71.102
1.56 171.805 71.184
1.57 168.457 70.978
1.58 161.783 70.333
1.59 150.121 69.543
1.60 143.083 68.941
1.61 140.909 68.229
1.62 136.701 67.298
1.63 120.856 66.337
1.64 112.209 65.644
1.65 109.086 64.851
1.66 103.738 63.547
1.67 100.236 62.596
1.68 103.467 62.834
1.69 109.632 63.901
1.70 112.551 65.133
1.71 116.144 66.082
1.72 121.634 66.563
1.73 129.280 66.930
1.74 136.720 67.448
1.75 138.455 67.842
1.76 141.431 68.308
1.77 143.212 68.926
1.78 144.061 69.301
1.79 145.311 69.395
1.80 146.200 69.429
1.81 146.648 69.394
1.82 147.056 69.308
1.83 147.395 69.222
1.84 146.467 68.937
1.85 146.002 68.298
1.86 145.877 67.430
1.87 146.780 66.448
1.88 148.494 65.273
1.89 150.165 64.009
1.90 151.291 62.672
1.91 150.794 60.447
1.92 150.782 56.203
1.93 --undefined-- 49.893
1.94 --undefined-- 45.216
1.95 --undefined-- 42.742
1.96 --undefined-- 39.046
1.97 --undefined-- 36.306
1.98 --undefined-- 37.599
1.99 --undefined-- 41.348
2.00 --undefined-- 52.147
2.01 --undefined-- 60.120
2.02 151.028 64.148
2.03 142.392 65.412
2.04 137.682 65.477
2.05 119.999 66.041
2.06 110.568 67.023
2.07 108.251 67.346
2.08 107.732 66.774
2.09 110.020 65.800
2.10 109.052 64.488
2.11 112.724 62.807
2.12 119.269 61.549
2.13 124.334 61.011
2.14 125.786 61.555
2.15 124.538 63.527
2.16 119.274 65.403
2.17 113.534 66.478
2.18 109.110 66.635
2.19 106.177 66.102
2.20 105.402 65.476
2.21 104.673 65.382
2.22 102.175 65.582
2.23 102.164 65.294
2.24 102.400 64.705
2.25 102.236 64.385
2.26 103.621 64.201
2.27 106.912 64.196
2.28 107.568 64.493
2.29 109.265 64.736
2.30 107.167 64.434
2.31 106.852 62.991
2.32 75.440 60.193
2.33 --undefined-- 56.201
2.34 --undefined-- 51.754
2.35 --undefined-- 52.037
2.36 --undefined-- 55.208
2.37 --undefined-- 59.261
2.38 88.215 62.918
2.39 109.856 65.404
2.40 117.503 66.694
2.41 121.745 67.189
2.42 124.111 67.186
2.43 121.869 66.722
2.44 117.880 66.170
2.45 114.878 65.649
2.46 113.623 65.234
2.47 113.935 65.024
2.48 113.361 64.576
2.49 111.232 63.605
2.50 111.682 62.166
2.51 111.660 60.724
2.52 110.465 59.159
2.53 110.007 57.058
2.54 113.678 54.582
2.55 130.503 53.272
2.56 131.204 56.137
2.57 129.769 60.424
2.58 129.717 63.257
2.59 130.031 64.702
2.60 131.097 65.670
2.61 128.610 66.488
2.62 128.400 66.893
2.63 128.259 66.829
2.64 127.323 66.232
2.65 125.533 64.798
2.66 119.440 62.026
2.67 108.574 58.267
2.68 --undefined-- 54.503
2.69 --undefined-- 51.033
2.70 --undefined-- 47.765
2.71 --undefined-- 44.439
2.72 --undefined-- 43.382
2.73 --undefined-- 46.245
2.74 --undefined-- 49.595
2.75 --undefined-- 51.992
2.76 123.406 54.317
2.77 128.010 56.949
2.78 129.623 59.766
2.79 128.741 62.688
2.80 115.357 64.984
2.81 110.694 65.904
2.82 102.734 65.782
2.83 100.387 65.684
2.84 100.159 66.016
2.85 100.116 66.505
2.86 99.426 66.749
2.87 98.338 66.525
2.88 99.989 65.852
2.89 107.245 65.203
2.90 107.404 65.140
2.91 110.479 65.555
2.92 111.984 66.124
2.93 113.996 66.404
2.94 116.224 66.341
2.95 121.139 66.538
2.96 123.901 67.090
2.97 127.049 67.302
2.98 131.277 67.233
2.99 134.226 67.305
3.00 137.085 67.497
3.01 140.653 67.957
3.02 141.632 68.836
3.03 141.487 69.801
3.04 142.069 70.548
3.05 144.021 70.686
3.06 144.429 70.126
3.07 144.105 69.269
3.08 142.999 68.287
3.09 141.584 66.636
3.10 141.581 63.766
3.11 142.365 60.152
3.12 145.255 56.575
3.13 143.729 52.041
3.14 143.456 47.369
3.15 143.428 46.154
3.16 --undefined-- 46.340
3.17 --undefined-- 46.910
3.18 --undefined-- 48.114
3.19 --undefined-- 49.896
3.20 --undefined-- 50.470
3.21 --undefined-- 49.605
3.22 --undefined-- 49.401
3.23 --undefined-- 50.063
3.24 --undefined-- 50.102
3.25 --undefined-- 49.277
3.26 --undefined-- 48.330
3.27 --undefined-- 47.255
3.28 --undefined-- 45.917
3.29 --undefined-- 43.978
3.30 --undefined-- 40.863
3.31 --undefined-- 37.466
3.32 --undefined-- 35.335
3.33 --undefined-- 34.301
3.34 --undefined-- 34.514
3.35 --undefined-- 35.134
3.36 --undefined-- 37.297
3.37 --undefined-- 41.373
3.38 --undefined-- 45.642
3.39 --undefined-- 50.985
3.40 --undefined-- 57.400
3.41 --undefined-- 63.540
3.42 168.735 68.330
3.43 165.204 71.120
3.44 153.134 72.116
3.45 140.609 72.180
3.46 138.236 72.022
3.47 135.050 71.747
3.48 133.256 71.444
3.49 131.436 71.299
3.50 128.854 71.088
3.51 125.189 70.355
3.52 119.080 69.226
3.53 114.356 68.281
3.54 112.581 67.752
3.55 111.763 67.434
3.56 110.805 66.895
3.57 110.246 65.932
3.58 110.238 65.271
3.59 110.335 65.333
3.60 110.800 65.495
3.61 113.424 65.902
3.62 120.097 66.702
3.63 127.805 67.266
3.64 133.734 67.625
3.65 136.626 67.829
3.66 149.083 67.336
3.67 155.113 66.246
3.68 156.036 65.158
3.69 152.480 64.339
3.70 152.525 64.280
3.71 160.104 65.556
3.72 171.195 67.316
3.73 177.683 69.085
3.74 179.222 70.648
3.75 177.663 71.731
3.76 170.605 72.128
3.77 164.694 71.725
3.78 160.208 70.732
3.79 152.913 69.903
3.80 151.215 69.602
3.81 150.778 69.521
3.82 151.054 69.590
3.83 152.188 69.726
3.84 152.935 69.845
3.85 154.182 69.952
3.86 155.286 70.005
3.87 156.146 69.848
3.88 156.873 69.470
3.89 159.170 69.058
3.90 160.575 68.711
3.91 160.795 68.468
3.92 161.296 68.616
3.93 164.007 69.240
3.94 166.452 69.820
3.95 167.996 70.078
3.96 169.037 70.090
3.97 169.943 69.940
3.98 167.210 69.821
3.99 165.627 69.764
4.00 162.855 69.661
4.01 161.743 69.606
4.02 160.891 69.619
4.03 160.232 69.620
4.04 158.895 69.674
4.05 157.621 69.826
4.06 155.688 69.631
4.07 152.135 68.433
4.08 144.366 66.006
4.09 149.834 62.756
4.10 157.038 59.689
4.11 159.130 56.790
4.12 160.487 52.778
4.13 --undefined-- 47.627
4.14 --undefined-- 50.191
4.15 --undefined-- 58.858
4.16 --undefined-- 64.388
4.17 --undefined-- 66.927
4.18 --undefined-- 67.337
4.19 --undefined-- 66.648
4.20 119.959 65.959
4.21 116.101 65.387
4.22 111.912 64.428
4.23 108.572 62.594
4.24 100.361 59.911
4.25 --undefined-- 57.106
4.26 --undefined-- 53.660
4.27 --undefined-- 49.206
4.28 --undefined-- 44.889
4.29 --undefined-- 41.695
4.30 --undefined-- 40.303
4.31 --undefined-- 43.082
4.32 --undefined-- 47.595
4.33 --undefined-- 51.261
4.34 --undefined-- 53.419
4.35 --undefined-- 53.899
4.36 --undefined-- 54.785
4.37 139.155 57.167
4.38 135.919 59.759
4.39 135.147 62.624
4.40 120.579 64.576
4.41 106.533 64.953
4.42 97.506 64.402
4.43 96.128 64.398
4.44 96.274 65.060
4.45 97.022 65.130
4.46 97.532 64.316
4.47 96.876 63.117
4.48 93.233 61.757
4.49 92.431 60.496
4.50 94.076 59.531
4.51 92.159 58.811
4.52 91.908 58.344
4.53 95.894 58.227
4.54 99.238 58.829
4.55 103.564 59.744
4.56 107.358 60.188
4.57 109.947 59.722
4.58 108.855 58.026
4.59 104.091 55.194
4.60 108.613 51.812
4.61 --undefined-- 48.155
4.62 --undefined-- 44.976
4.63 --undefined-- 45.422
4.64 --undefined-- 50.706
4.65 --undefined-- 58.139
4.66 --undefined-- 62.878
4.67 131.280 64.876
4.68 132.304 65.103
4.69 135.191 64.923
4.70 136.168 65.313
4.71 140.723 66.226
4.72 145.399 67.372
4.73 149.099 68.421
4.74 151.829 69.234
4.75 154.387 69.856
4.76 155.700 70.127
4.77 159.611 69.991
4.78 164.973 69.855
4.79 167.526 70.123
4.80 165.715 70.649
4.81 162.508 71.094
4.82 154.569 71.462
4.83 150.000 71.576
4.84 143.175 70.978
4.85 135.939 69.591
4.86 130.635 67.920
4.87 126.925 66.180
4.88 123.643 64.006
4.89 119.302 61.818
4.90 118.096 60.529
4.91 119.385 59.680
4.92 124.537 59.776
4.93 134.997 62.015
4.94 142.760 65.045
4.95 144.286 67.341
4.96 144.348 68.489
4.97 141.897 68.774
4.98 139.586 68.752
4.99 138.742 68.562
5.00 139.366 68.182
5.01 143.024 67.784
5.02 144.779 66.885
5.03 142.413 64.533
5.04 141.898 60.925
5.05 149.512 57.803
5.06 148.426 55.054
5.07 144.617 51.140
5.08 --undefined-- 45.852
5.09 --undefined-- 42.427
5.10 --undefined-- 46.654
5.11 --undefined-- 56.415
5.12 --undefined-- 63.000
5.13 144.759 66.393
5.14 143.976 67.662
5.15 136.882 67.672
5.16 130.350 66.969
5.17 123.756 66.055
5.18 121.120 65.042
5.19 116.205 63.990
5.20 111.469 64.147
5.21 113.826 65.107
5.22 113.577 65.717
5.23 114.921 65.840
5.24 118.413 65.651
5.25 120.674 65.651
5.26 121.039 65.786
5.27 121.478 --undefined--
5.28 120.757 --undefined--
5.29 --undefined-- --undefined--
5.30 --undefined-- --undefined--
