Time Pitch Intensity
0.01 --undefined-- --undefined--
0.02 110.320 --undefined--
0.03 109.446 --undefined--
0.04 108.592 --undefined--
0.05 107.857 70.270
0.06 106.475 69.061
0.07 103.001 68.002
0.08 102.533 66.857
0.09 102.819 65.835
0.10 103.571 65.428
0.11 103.109 65.523
0.12 103.837 65.723
0.13 104.056 65.913
0.14 103.740 66.027
0.15 104.460 66.197
0.16 108.866 66.743
0.17 111.700 67.554
0.18 115.201 68.163
0.19 117.639 68.643
0.20 121.113 69.228
0.21 125.738 69.906
0.22 132.598 70.779
0.23 139.740 71.806
0.24 146.296 72.690
0.25 151.743 73.236
0.26 156.480 73.438
0.27 159.783 73.451
0.28 161.679 73.565
0.29 162.323 73.815
0.30 162.177 73.983
0.31 162.430 74.016
0.32 162.320 74.061
0.33 161.773 74.191
0.34 161.560 74.355
0.35 161.430 74.388
0.36 161.069 74.123
0.37 160.720 73.549
0.38 158.874 72.849
0.39 156.804 72.237
0.40 154.694 71.739
0.41 152.774 71.375
0.42 150.349 71.320
0.43 148.723 71.727
0.44 148.322 72.527
0.45 152.724 73.494
0.46 149.916 74.214
0.47 142.125 74.524
0.48 139.185 74.460
0.49 132.064 74.042
0.50 127.299 73.768
0.51 123.315 73.671
0.52 121.909 73.474
0.53 121.390 73.222
0.54 120.624 73.122
0.55 119.811 72.992
0.56 120.318 72.603
0.57 121.181 72.345
0.58 122.029 72.469
0.59 122.394 72.706
0.60 122.334 72.738
0.61 122.391 72.495
0.62 122.405 72.157
0.63 122.515 71.948
0.64 122.696 71.949
0.65 123.068 72.032
0.66 123.794 72.095
0.67 126.494 72.203
0.68 128.717 72.342
0.69 130.414 72.490
0.70 130.471 72.525
0.71 129.716 71.864
0.72 126.351 69.744
0.73 122.136 66.199
0.74 126.544 62.381
0.75 124.024 58.699
0.76 126.402 54.766
0.77 --undefined-- 52.921
0.78 --undefined-- 60.448
0.79 169.439 67.673
0.80 163.417 71.985
0.81 161.972 74.217
0.82 159.808 75.365
0.83 156.573 76.027
0.84 153.267 76.263
0.85 149.819 76.069
0.86 145.825 75.600
0.87 141.683 75.058
0.88 137.390 74.223
0.89 132.727 72.316
0.90 118.937 68.794
0.91 112.380 64.070
0.92 114.389 59.319
0.93 --undefined-- 55.285
0.94 --undefined-- 52.276
0.95 --undefined-- 48.788
0.96 --undefined-- 43.796
0.97 --undefined-- 40.921
0.98 --undefined-- 39.257
0.99 --undefined-- 38.303
1.00 --undefined-- 38.863
1.01 --undefined-- 39.400
1.02 --undefined-- 39.745
1.03 --undefined-- 42.046
1.04 --undefined-- 49.832
1.05 155.764 57.517
1.06 147.513 62.264
1.07 124.810 65.036
1.08 123.088 67.323
1.09 123.324 69.496
1.10 124.032 71.254
1.11 125.623 72.455
1.12 128.308 73.163
1.13 129.930 73.592
1.14 132.323 73.983
1.15 135.374 73.955
1.16 137.066 72.556
1.17 136.222 69.249
1.18 135.638 64.613
1.19 135.513 60.070
1.20 --undefined-- 57.588
1.21 --undefined-- 61.139
1.22 199.119 67.138
1.23 170.643 71.047
1.24 163.157 72.915
1.25 161.345 73.474
1.26 159.737 73.384
1.27 158.440 73.189
1.28 159.427 73.301
1.29 159.452 73.503
1.30 157.775 73.429
1.31 154.331 72.898
1.32 150.342 71.748
1.33 146.287 69.797
1.34 140.670 66.780
1.35 135.920 63.616
1.36 151.647 64.891
1.37 152.958 68.951
1.38 150.697 71.608
1.39 148.635 72.726
1.40 139.585 72.873
1.41 136.496 72.628
1.42 134.400 72.296
1.43 132.198 71.935
1.44 131.508 71.527
1.45 129.837 70.876
1.46 126.505 69.881
1.47 122.047 68.861
1.48 119.713 68.538
1.49 117.511 68.985
1.50 114.300 69.442
1.51 108.512 69.601
1.52 102.554 69.783
1.53 98.604 70.096
1.54 95.255 70.420
1.55 93.541 70.492
1.56 91.700 69.844
1.57 91.205 68.662
1.58 92.637 68.322
1.59 96.697 68.882
1.60 98.378 69.292
1.61 98.688 69.444
1.62 99.347 69.497
1.63 101.422 69.506
1.64 104.422 69.406
1.65 106.530 69.147
1.66 107.776 68.716
1.67 109.874 68.062
1.68 113.353 67.128
1.69 118.081 66.037
1.70 111.422 65.275
1.71 97.414 65.186
1.72 96.110 65.574
1.73 99.907 66.148
1.74 99.796 66.381
1.75 114.033 66.365
1.76 121.006 66.362
1.77 122.470 66.524
1.78 124.889 67.290
1.79 128.977 68.917
1.80 131.422 70.158
1.81 131.756 69.724
1.82 124.162 67.478
1.83 123.343 64.430
1.84 121.352 61.635
1.85 119.958 59.673
1.86 120.417 61.697
1.87 149.827 67.198
1.88 140.825 71.001
1.89 131.310 72.415
1.90 125.484 72.527
1.91 122.853 72.645
1.92 122.010 72.869
1.93 120.815 73.065
1.94 120.244 73.436
1.95 119.028 73.945
1.96 118.217 74.401
1.97 117.648 74.656
1.98 117.321 74.736
1.99 117.167 74.700
2.00 117.002 74.612
2.01 117.274 74.570
2.02 116.687 74.574
2.03 116.015 74.549
2.04 115.530 74.459
2.05 114.942 74.233
2.06 113.593 73.833
2.07 112.467 73.245
2.08 112.901 72.135
2.09 110.344 69.824
2.10 101.130 65.859
2.11 117.443 60.443
2.12 --undefined-- 54.252
2.13 --undefined-- 47.422
2.14 --undefined-- 47.168
2.15 --undefined-- 55.487
2.16 --undefined-- 62.853
2.17 --undefined-- 68.558
2.18 --undefined-- 71.987
2.19 118.496 72.931
2.20 112.048 71.932
2.21 104.568 70.296
2.22 102.154 69.060
2.23 105.424 68.524
2.24 109.212 68.592
2.25 110.771 68.765
2.26 113.271 69.112
2.27 116.981 69.869
2.28 122.705 70.908
2.29 126.148 71.823
2.30 128.114 72.420
2.31 130.306 72.847
2.32 132.561 73.217
2.33 133.377 73.359
2.34 131.751 73.198
2.35 128.531 72.941
2.36 126.272 72.784
2.37 122.695 72.877
2.38 118.429 73.168
2.39 114.739 73.342
2.40 111.697 73.342
2.41 110.949 73.260
2.42 110.232 73.192
2.43 111.648 73.145
2.44 112.972 72.912
2.45 113.649 72.586
2.46 115.239 72.171
2.47 115.692 70.814
2.48 111.281 67.470
2.49 114.316 61.773
2.50 --undefined-- 54.784
2.51 --undefined-- 53.145
2.52 --undefined-- 55.116
2.53 --undefined-- 58.492
2.54 179.334 65.303
2.55 162.121 69.839
2.56 147.529 71.593
2.57 141.443 71.586
2.58 133.822 70.685
2.59 128.401 69.442
2.60 123.199 68.529
2.61 119.971 68.299
2.62 116.446 68.693
2.63 112.710 69.250
2.64 109.131 69.606
2.65 105.941 69.736
2.66 102.988 69.585
2.67 101.398 69.131
2.68 100.520 68.622
2.69 101.158 68.175
2.70 101.403 67.637
2.71 102.080 67.014
2.72 102.206 66.360
2.73 102.876 66.116
2.74 107.257 67.253
2.75 112.223 69.074
2.76 111.532 70.262
2.77 107.851 70.755
2.78 106.198 70.955
2.79 105.607 70.980
2.80 105.169 70.758
2.81 105.888 70.181
2.82 105.651 69.062
2.83 104.303 67.090
2.84 101.972 63.941
2.85 101.920 59.463
2.86 --undefined-- 53.655
2.87 --undefined-- 47.348
2.88 --undefined-- 45.842
2.89 --undefined-- 54.678
2.90 --undefined-- 62.777
2.91 --undefined-- 67.215
2.92 112.493 68.906
2.93 99.921 69.069
2.94 97.008 68.683
2.95 93.864 67.994
2.96 93.745 67.187
2.97 95.468 66.620
2.98 100.213 66.454
2.99 101.426 66.462
3.00 104.160 66.662
3.01 107.620 67.397
3.02 110.237 68.439
3.03 113.733 69.392
3.04 114.901 70.088
3.05 115.235 70.606
3.06 116.693 71.147
3.07 117.942 71.648
3.08 118.764 72.005
3.09 119.664 72.243
3.10 119.962 72.431
3.11 118.947 72.572
3.12 117.230 72.555
3.13 115.673 72.392
3.14 113.610 72.107
3.15 110.925 71.727
3.16 109.335 71.338
3.17 107.388 70.863
3.18 105.604 70.287
3.19 103.574 69.749
3.20 101.422 69.286
3.21 99.587 68.834
3.22 98.335 68.291
3.23 97.316 67.549
3.24 96.767 66.845
3.25 96.107 65.972
3.26 94.013 64.331
3.27 93.714 61.976
3.28 99.517 59.359
3.29 103.896 56.599
3.30 --undefined-- 53.334
3.31 --undefined-- 50.124
3.32 --undefined-- 50.613
3.33 --undefined-- 57.509
3.34 --undefined-- 63.106
3.35 104.191 65.849
3.36 102.015 66.762
3.37 100.894 67.000
3.38 100.427 67.001
3.39 100.641 66.961
3.40 100.446 66.997
3.41 99.949 67.048
3.42 99.799 66.936
3.43 100.480 66.705
3.44 101.452 66.478
3.45 101.083 66.320
3.46 101.067 66.169
3.47 102.050 65.950
3.48 104.081 65.689
3.49 104.490 65.414
3.50 104.132 65.093
3.51 102.120 64.788
3.52 101.728 64.674
3.53 100.987 64.874
3.54 101.064 65.423
3.55 101.161 66.245
3.56 102.431 67.101
3.57 103.175 67.696
3.58 103.476 67.956
3.59 102.843 68.072
3.60 102.547 68.100
3.61 102.012 67.921
3.62 102.429 67.616
3.63 102.069 67.300
3.64 101.868 66.966
3.65 101.769 66.558
3.66 101.541 65.701
3.67 98.405 63.565
3.68 --undefined-- 59.368
3.69 --undefined-- 52.599
3.70 --undefined-- 44.955
3.71 --undefined-- 45.305
3.72 --undefined-- 50.387
3.73 --undefined-- 55.517
3.74 --undefined-- 58.662
3.75 --undefined-- 59.576
3.76 --undefined-- 59.165
3.77 --undefined-- 61.975
3.78 --undefined-- 66.754
3.79 113.215 69.162
3.80 112.652 69.332
3.81 107.273 67.795
3.82 99.188 64.637
3.83 --undefined-- 60.123
3.84 --undefined-- 54.767
3.85 --undefined-- 48.393
3.86 --undefined-- 45.952
3.87 --undefined-- 53.095
3.88 --undefined-- 58.875
3.89 --undefined-- 61.640
3.90 --undefined-- 61.684
3.91 --undefined-- 61.806
3.92 --undefined-- 65.354
3.93 102.106 67.855
3.94 97.687 68.565
3.95 95.323 68.783
3.96 94.453 68.924
3.97 89.271 68.298
3.98 86.319 67.011
3.99 87.780 66.403
4.00 84.386 66.606
4.01 84.636 66.734
4.02 84.826 66.517
4.03 84.878 65.672
4.04 88.941 64.164
4.05 87.787 61.862
4.06 82.972 58.814
4.07 98.105 56.238
4.08 --undefined-- 54.344
4.09 --undefined-- 54.366
4.10 --undefined-- 61.150
4.11 --undefined-- 66.990
4.12 109.215 70.242
4.13 111.499 71.647
4.14 113.509 72.232
4.15 115.181 72.631
4.16 116.294 72.880
4.17 116.649 72.892
4.18 116.364 72.765
4.19 115.897 72.698
4.20 114.978 72.773
4.21 113.336 72.863
4.22 111.259 72.771
4.23 108.590 72.346
4.24 105.777 71.768
4.25 103.993 71.099
4.26 103.009 69.416
4.27 96.362 65.677
4.28 98.333 60.351
4.29 101.701 55.466
4.30 --undefined-- 52.062
4.31 --undefined-- 54.409
4.32 --undefined-- 57.202
4.33 129.844 61.586
4.34 130.457 66.344
4.35 104.569 68.814
4.36 103.875 69.313
4.37 102.382 69.040
4.38 101.901 68.666
4.39 101.948 68.110
4.40 103.647 67.513
4.41 105.902 67.341
4.42 106.379 67.477
4.43 106.370 67.751
4.44 106.866 68.265
4.45 107.147 68.932
4.46 107.124 69.435
4.47 107.173 69.631
4.48 107.480 69.586
4.49 107.924 69.506
4.50 107.233 69.452
4.51 106.008 69.414
4.52 105.550 69.403
4.53 105.059 69.374
4.54 104.184 69.285
4.55 103.415 69.004
4.56 103.889 68.418
4.57 105.312 67.625
4.58 108.148 66.703
4.59 109.926 65.327
4.60 110.976 62.761
4.61 109.460 58.663
4.62 --undefined-- 53.031
4.63 --undefined-- 47.795
4.64 --undefined-- 45.464
4.65 --undefined-- 47.313
4.66 --undefined-- 58.069
4.67 --undefined-- 65.799
4.68 --undefined-- 69.875
4.69 110.052 71.245
4.70 106.508 71.199
4.71 101.048 70.767
4.72 97.374 70.712
4.73 97.759 70.878
4.74 96.957 70.875
4.75 96.934 70.811
4.76 97.919 70.719
4.77 98.911 70.383
4.78 98.408 69.536
4.79 97.572 68.050
4.80 97.129 65.850
4.81 98.548 63.308
4.82 102.726 62.819
4.83 104.892 65.297
4.84 108.191 67.932
4.85 108.275 69.722
4.86 108.032 70.714
4.87 108.065 71.088
4.88 107.475 70.910
4.89 103.158 70.225
4.90 100.045 69.437
4.91 100.106 68.835
4.92 97.573 68.172
4.93 95.053 67.580
4.94 94.245 67.408
4.95 94.469 67.219
4.96 91.302 66.617
4.97 90.446 65.863
4.98 86.666 --undefined--
4.99 85.110 --undefined--
5.00 --undefined-- --undefined--
5.01 --undefined-- --undefined--
