Time Pitch Intensity
0.01 --undefined-- --undefined--
0.02 179.120 --undefined--
0.03 179.930 --undefined--
0.04 179.745 --undefined--
0.05 177.577 75.190
0.06 175.363 75.207
0.07 172.446 74.144
0.08 165.597 71.178
0.09 149.341 66.142
0.10 153.413 60.701
0.11 --undefined-- 65.663
0.12 --undefined-- 73.183
0.13 --undefined-- 77.698
0.14 165.527 79.703
0.15 161.820 80.064
0.16 158.271 79.480
0.17 159.659 78.158
0.18 163.703 76.328
0.19 166.166 75.292
0.20 166.049 74.965
0.21 167.557 73.891
0.22 180.204 72.091
0.23 191.520 72.094
0.24 200.988 75.339
0.25 211.749 78.886
0.26 212.659 80.379
0.27 203.009 79.469
0.28 200.032 77.582
0.29 199.007 75.749
0.30 193.436 73.432
0.31 191.038 72.143
0.32 188.205 71.723
0.33 184.644 71.115
0.34 180.920 70.789
0.35 177.869 71.141
0.36 173.827 71.995
0.37 169.134 73.482
0.38 171.835 75.647
0.39 148.923 76.962
0.40 144.760 76.967
0.41 138.661 76.507
0.42 131.653 76.127
0.43 129.262 75.813
0.44 128.374 75.564
0.45 127.406 75.373
0.46 125.363 75.273
0.47 122.728 75.032
0.48 120.710 74.423
0.49 119.096 73.613
0.50 117.904 72.652
0.51 114.721 71.950
0.52 119.696 71.787
0.53 120.844 71.555
0.54 121.619 71.031
0.55 119.826 69.966
0.56 118.096 68.065
0.57 --undefined-- 64.983
0.58 --undefined-- 60.745
0.59 --undefined-- 55.825
0.60 --undefined-- 49.911
0.61 --undefined-- 45.847
0.62 --undefined-- 49.721
0.63 --undefined-- 58.121
0.64 101.069 63.577
0.65 102.843 66.677
0.66 117.308 68.324
0.67 115.797 69.166
0.68 114.235 69.624
0.69 112.285 69.885
0.70 111.465 70.027
0.71 112.248 70.305
0.72 114.151 70.929
0.73 117.012 71.808
0.74 120.011 72.765
0.75 123.676 73.709
0.76 127.476 74.535
0.77 132.228 75.339
0.78 138.778 76.221
0.79 139.802 76.558
0.80 135.248 75.713
0.81 136.505 73.440
0.82 136.085 69.265
0.83 --undefined-- 62.796
0.84 --undefined-- 55.667
0.85 --undefined-- 55.495
0.86 --undefined-- 57.406
0.87 --undefined-- 58.452
0.88 --undefined-- 64.060
0.89 179.554 70.954
0.90 173.429 75.327
0.91 166.103 77.624
0.92 163.137 78.517
0.93 162.227 78.573
0.94 162.000 78.005
0.95 160.368 76.771
0.96 160.866 75.634
0.97 156.953 74.909
0.98 150.958 73.354
0.99 143.697 69.995
1.00 --undefined-- 64.195
1.01 --undefined-- 55.868
1.02 --undefined-- 52.094
1.03 --undefined-- 61.766
1.04 --undefined-- 69.058
1.05 148.995 72.898
1.06 138.116 74.183
1.07 124.802 73.988
1.08 120.931 72.836
1.09 116.610 71.161
1.10 --undefined-- 69.173
1.11 --undefined-- 66.041
1.12 --undefined-- 62.408
1.13 --undefined-- 59.710
1.14 --undefined-- 56.568
1.15 --undefined-- 51.902
1.16 --undefined-- 47.294
1.17 --undefined-- 45.765
1.18 --undefined-- 47.160
1.19 --undefined-- 49.270
1.20 --undefined-- 51.274
1.21 --undefined-- 54.944
1.22 --undefined-- 60.290
1.23 110.430 64.725
1.24 103.712 67.540
1.25 103.619 68.696
1.26 102.264 68.886
1.27 101.306 68.983
1.28 102.412 69.265
1.29 104.359 69.772
1.30 108.649 70.689
1.31 112.996 71.730
1.32 118.407 72.455
1.33 127.213 72.694
1.34 133.242 72.222
1.35 135.239 70.392
1.36 126.525 66.619
1.37 118.521 61.117
1.38 --undefined-- 55.351
1.39 --undefined-- 50.742
1.40 --undefined-- 54.138
1.41 --undefined-- 60.160
1.42 --undefined-- 63.407
1.43 192.644 66.989
1.44 172.526 72.006
1.45 155.850 76.008
1.46 152.969 78.622
1.47 153.305 80.379
1.48 154.882 81.343
1.49 154.557 81.132
1.50 154.317 80.149
1.51 155.277 79.319
1.52 156.752 78.924
1.53 157.350 78.540
1.54 158.037 77.617
1.55 159.292 76.627
1.56 159.802 75.979
1.57 164.620 75.326
1.58 165.202 74.980
1.59 164.889 74.706
1.60 162.598 74.339
1.61 160.618 74.025
1.62 157.477 73.404
1.63 153.805 71.764
1.64 147.793 68.350
1.65 --undefined-- 63.082
1.66 --undefined-- 58.640
1.67 --undefined-- 55.923
1.68 --undefined-- 51.279
1.69 --undefined-- 45.102
1.70 --undefined-- 42.918
1.71 --undefined-- 43.096
1.72 --undefined-- 43.437
1.73 --undefined-- 42.993
1.74 --undefined-- 41.603
1.75 --undefined-- 40.111
1.76 --undefined-- 38.512
1.77 --undefined-- 37.920
1.78 --undefined-- 39.202
1.79 --undefined-- 40.520
1.80 --undefined-- 40.842
1.81 --undefined-- 39.877
1.82 --undefined-- 37.799
1.83 --undefined-- 36.702
1.84 --undefined-- 37.483
1.85 --undefined-- 37.616
1.86 --undefined-- 36.973
1.87 --undefined-- 36.728
1.88 --undefined-- 37.316
1.89 --undefined-- 38.116
1.90 --undefined-- 37.903
1.91 --undefined-- 36.585
1.92 --undefined-- 36.160
1.93 --undefined-- 37.833
1.94 --undefined-- 38.925
1.95 --undefined-- 39.149
1.96 --undefined-- 38.570
1.97 --undefined-- 38.515
1.98 --undefined-- 39.264
1.99 --undefined-- 38.708
2.00 --undefined-- 44.569
2.01 --undefined-- 57.521
2.02 --undefined-- 66.161
2.03 182.568 71.802
2.04 179.813 75.513
2.05 178.264 77.837
2.06 177.955 79.033
2.07 176.149 79.302
2.08 172.791 78.615
2.09 169.049 77.055
2.10 165.275 75.401
2.11 160.435 74.835
2.12 156.959 75.701
2.13 153.582 77.149
2.14 150.128 78.365
2.15 145.782 78.730
2.16 137.227 78.168
2.17 128.304 77.190
2.18 123.369 76.251
2.19 119.890 75.528
2.20 117.856 74.919
2.21 114.392 73.749
2.22 113.467 70.805
2.23 --undefined-- 65.208
2.24 --undefined-- 57.109
2.25 --undefined-- 50.963
2.26 --undefined-- 51.695
2.27 --undefined-- 57.603
2.28 --undefined-- 60.966
2.29 --undefined-- 60.783
2.30 --undefined-- 59.043
2.31 --undefined-- 58.257
2.32 --undefined-- 57.375
2.33 --undefined-- 56.127
2.34 --undefined-- 56.422
2.35 --undefined-- 61.883
2.36 --undefined-- 67.446
2.37 153.820 70.310
2.38 153.558 71.228
2.39 143.562 71.550
2.40 150.014 72.536
2.41 153.208 73.999
2.42 152.655 75.015
2.43 151.274 75.344
2.44 149.570 75.121
2.45 140.456 74.783
2.46 136.105 74.248
2.47 132.168 73.204
2.48 129.780 72.045
2.49 131.625 71.472
2.50 137.448 71.717
2.51 134.987 72.759
2.52 131.384 73.870
2.53 125.456 74.369
2.54 121.831 74.452
2.55 115.445 74.156
2.56 112.759 73.150
2.57 110.380 71.441
2.58 111.727 69.935
2.59 113.146 68.777
2.60 111.525 66.705
2.61 99.958 62.675
2.62 --undefined-- 56.489
2.63 --undefined-- 49.781
2.64 --undefined-- 46.389
2.65 --undefined-- 53.833
2.66 --undefined-- 61.927
2.67 --undefined-- 66.860
2.68 118.187 69.181
2.69 116.733 69.796
2.70 112.149 69.476
2.71 103.239 68.787
2.72 102.037 68.565
2.73 102.648 69.277
2.74 103.770 70.425
2.75 105.375 71.279
2.76 108.347 71.845
2.77 110.853 72.541
2.78 114.567 73.760
2.79 118.969 75.198
2.80 124.229 76.227
2.81 128.151 76.749
2.82 131.837 77.285
2.83 138.033 78.045
2.84 144.743 78.813
2.85 151.491 79.134
2.86 158.135 78.389
2.87 164.207 76.583
2.88 165.961 74.025
2.89 167.586 71.125
2.90 --undefined-- 68.875
2.91 --undefined-- 65.935
2.92 --undefined-- 61.339
2.93 --undefined-- 55.571
2.94 --undefined-- 47.804
2.95 --undefined-- 41.565
2.96 --undefined-- 41.155
2.97 --undefined-- 41.316
2.98 --undefined-- 39.663
2.99 --undefined-- 37.748
3.00 --undefined-- 37.550
3.01 --undefined-- 41.135
3.02 --undefined-- 46.193
3.03 --undefined-- 48.909
3.04 --undefined-- 49.182
3.05 --undefined-- 48.802
3.06 --undefined-- 49.965
3.07 --undefined-- 52.785
3.08 --undefined-- 59.693
3.09 --undefined-- 67.171
3.10 144.173 71.791
3.11 141.368 74.277
3.12 142.399 75.775
3.13 147.443 76.587
3.14 154.818 76.820
3.15 160.484 76.953
3.16 166.954 76.907
3.17 167.940 76.591
3.18 164.682 75.970
3.19 158.260 75.004
3.20 153.710 73.549
3.21 148.046 71.049
3.22 145.553 66.932
3.23 135.038 62.265
3.24 131.101 60.061
3.25 121.369 58.999
3.26 117.006 58.138
3.27 --undefined-- 62.096
3.28 --undefined-- 66.940
3.29 --undefined-- 69.951
3.30 --undefined-- 71.961
3.31 --undefined-- 73.114
3.32 118.468 73.967
3.33 117.327 74.765
3.34 119.146 75.124
3.35 120.272 75.211
3.36 121.574 75.076
3.37 122.551 74.707
3.38 124.950 73.753
3.39 --undefined-- 71.366
3.40 --undefined-- 66.553
3.41 --undefined-- 59.123
3.42 --undefined-- 51.592
3.43 --undefined-- 49.562
3.44 --undefined-- 53.509
3.45 --undefined-- 57.542
3.46 --undefined-- 64.332
3.47 193.684 70.391
3.48 173.617 73.761
3.49 163.509 75.294
3.50 157.924 75.415
3.51 153.394 74.239
3.52 151.955 73.651
3.53 159.802 74.673
3.54 163.558 75.441
3.55 164.617 75.551
3.56 165.518 75.403
3.57 165.386 75.159
3.58 161.956 74.201
3.59 156.206 71.493
3.60 143.024 66.342
3.61 --undefined-- 58.838
3.62 --undefined-- 50.796
3.63 --undefined-- 46.276
3.64 --undefined-- 45.839
3.65 --undefined-- 50.559
3.66 --undefined-- 60.427
3.67 --undefined-- 68.088
3.68 144.266 72.297
3.69 118.468 73.565
3.70 102.853 72.617
3.71 91.859 70.395
3.72 92.070 68.006
3.73 92.026 66.210
3.74 89.512 64.799
3.75 91.100 64.349
3.76 92.411 64.811
3.77 92.430 65.184
3.78 91.148 65.084
3.79 93.200 64.783
3.80 94.821 64.546
3.81 97.702 64.549
3.82 100.119 64.987
3.83 101.695 65.448
3.84 105.943 65.086
3.85 109.860 63.056
3.86 --undefined-- 58.715
3.87 --undefined-- 52.473
3.88 --undefined-- 49.702
3.89 --undefined-- 51.832
3.90 --undefined-- 54.330
3.91 --undefined-- 56.213
3.92 --undefined-- 58.551
3.93 --undefined-- 62.332
3.94 125.153 65.565
3.95 113.498 66.737
3.96 111.165 66.193
3.97 102.173 65.313
3.98 100.936 65.070
3.99 100.643 65.074
4.00 100.540 64.682
4.01 100.238 64.193
4.02 102.247 64.235
4.03 105.390 64.670
4.04 106.323 64.863
4.05 105.715 64.202
4.06 103.571 62.268
4.07 101.264 58.818
4.08 --undefined-- 53.842
4.09 --undefined-- 49.310
4.10 --undefined-- 53.753
4.11 --undefined-- 62.137
4.12 --undefined-- 68.330
4.13 125.402 71.752
4.14 127.780 73.243
4.15 127.048 73.746
4.16 126.403 74.155
4.17 126.379 74.655
4.18 126.102 75.097
4.19 125.400 75.366
4.20 126.091 75.203
4.21 126.095 74.008
4.22 122.575 71.050
4.23 117.805 65.681
4.24 --undefined-- 57.961
4.25 --undefined-- 51.885
4.26 --undefined-- 49.597
4.27 --undefined-- 47.598
4.28 --undefined-- 46.815
4.29 --undefined-- 48.016
4.30 --undefined-- 52.266
4.31 --undefined-- 62.907
4.32 --undefined-- 70.997
4.33 --undefined-- 75.511
4.34 132.944 77.219
4.35 126.342 77.198
4.36 123.630 76.578
4.37 121.003 75.901
4.38 120.304 75.133
4.39 120.101 74.380
4.40 125.026 73.824
4.41 125.465 73.454
4.42 128.957 73.052
4.43 127.341 72.799
4.44 125.825 72.893
4.45 126.265 72.969
4.46 123.066 72.583
4.47 117.807 71.672
4.48 115.449 70.339
4.49 110.043 68.507
4.50 102.050 66.830
4.51 101.650 66.805
4.52 109.287 68.584
4.53 124.377 70.643
4.54 137.147 72.054
4.55 136.639 72.500
4.56 129.874 71.989
4.57 128.726 71.272
4.58 129.891 71.112
4.59 127.684 71.427
4.60 128.611 71.904
4.61 129.204 71.920
4.62 128.459 71.289
4.63 126.795 70.360
4.64 126.144 69.174
4.65 124.257 67.578
4.66 118.417 65.748
4.67 116.208 64.034
4.68 111.012 62.049
4.69 102.070 59.778
4.70 100.968 58.929
4.71 98.481 59.963
4.72 101.128 61.770
4.73 100.317 63.608
4.74 101.587 65.369
4.75 103.697 66.904
4.76 103.382 67.917
4.77 103.180 68.454
4.78 103.013 68.562
4.79 101.546 68.341
4.80 101.072 68.070
4.81 100.328 67.744
4.82 98.952 66.966
4.83 96.495 66.081
4.84 96.822 66.514
4.85 103.110 68.119
4.86 105.512 69.343
4.87 104.979 69.805
4.88 104.548 69.820
4.89 105.316 69.687
4.90 107.448 69.443
4.91 101.675 69.116
4.92 100.925 68.807
4.93 101.361 68.839
4.94 102.196 69.787
4.95 103.909 70.906
4.96 105.351 71.542
4.97 107.548 71.887
4.98 109.994 72.325
4.99 111.789 72.736
5.00 113.402 73.209
5.01 115.538 73.763
5.02 117.725 74.184
5.03 121.064 74.267
5.04 123.526 73.916
5.05 126.618 73.494
5.06 128.639 73.105
5.07 129.086 72.290
5.08 131.579 71.021
5.09 133.998 70.017
5.10 135.551 69.428
5.11 135.644 68.740
5.12 134.131 67.498
5.13 128.525 65.426
5.14 --undefined-- 62.925
5.15 --undefined-- 60.162
5.16 --undefined-- 55.980
5.17 --undefined-- 51.646
5.18 --undefined-- 46.892
5.19 --undefined-- 40.911
5.20 --undefined-- 37.986
5.21 --undefined-- 36.188
5.22 --undefined-- 36.006
5.23 --undefined-- 38.302
5.24 --undefined-- 39.202
5.25 --undefined-- 39.084
5.26 --undefined-- 47.352
5.27 --undefined-- 55.887
5.28 140.449 61.265
5.29 129.867 64.514
5.30 126.171 66.592
5.31 122.790 68.089
5.32 118.836 69.094
5.33 115.229 69.753
5.34 113.838 70.126
5.35 113.655 70.272
5.36 114.061 70.341
5.37 115.348 70.429
5.38 116.770 70.300
5.39 116.309 69.124
5.40 111.410 66.137
5.41 111.543 61.504
5.42 106.253 56.781
5.43 --undefined-- 51.722
5.44 --undefined-- 46.180
5.45 --undefined-- --undefined--
5.46 --undefined-- --undefined--
5.47 --undefined-- --undefined--
5.48 --undefined-- --undefined--
