Time Pitch Intensity
0.01 --undefined-- --undefined--
0.02 206.354 --undefined--
0.03 204.605 --undefined--
0.04 201.497 --undefined--
0.05 190.183 62.176
0.06 183.777 58.796
0.07 186.110 57.874
0.08 187.155 58.864
0.09 202.664 61.703
0.10 210.572 65.084
0.11 219.787 67.576
0.12 219.568 68.890
0.13 216.989 69.310
0.14 214.273 69.240
0.15 212.416 68.866
0.16 210.691 68.083
0.17 209.444 66.335
0.18 209.591 62.630
0.19 --undefined-- 56.057
0.20 --undefined-- 46.828
0.21 --undefined-- 43.664
0.22 --undefined-- 42.858
0.23 --undefined-- 41.012
0.24 --undefined-- 39.872
0.25 --undefined-- 39.337
0.26 --undefined-- 44.028
0.27 --undefined-- 55.341
0.28 --undefined-- 63.423
0.29 163.807 67.604
0.30 161.904 69.106
0.31 158.001 69.240
0.32 154.953 68.986
0.33 151.920 68.505
0.34 150.980 67.963
0.35 150.497 67.593
0.36 150.355 67.250
0.37 150.256 66.584
0.38 150.753 65.674
0.39 154.947 64.636
0.40 158.360 62.666
0.41 --undefined-- 58.408
0.42 --undefined-- 50.938
0.43 --undefined-- 42.747
0.44 --undefined-- 40.351
0.45 --undefined-- 41.727
0.46 --undefined-- 49.787
0.47 --undefined-- 59.233
0.48 --undefined-- 65.108
0.49 --undefined-- 67.629
0.50 148.752 68.204
0.51 145.906 68.583
0.52 145.066 68.915
0.53 146.948 68.763
0.54 147.865 68.378
0.55 149.480 68.088
0.56 150.835 68.114
0.57 151.831 68.572
0.58 152.212 69.273
0.59 153.396 69.883
0.60 154.601 70.181
0.61 155.770 70.069
0.62 158.376 69.691
0.63 161.675 69.428
0.64 164.891 69.472
0.65 168.400 69.753
0.66 172.261 70.263
0.67 175.845 70.921
0.68 181.040 71.377
0.69 187.464 71.301
0.70 192.775 70.693
0.71 196.957 69.512
0.72 197.982 67.041
0.73 194.405 62.378
0.74 --undefined-- 54.916
0.75 --undefined-- 45.350
0.76 --undefined-- 42.264
0.77 --undefined-- 43.285
0.78 --undefined-- 42.651
0.79 --undefined-- 40.360
0.80 --undefined-- 45.379
0.81 --undefined-- 52.166
0.82 --undefined-- 54.920
0.83 --undefined-- 54.225
0.84 --undefined-- 51.658
0.85 --undefined-- 51.311
0.86 --undefined-- 56.208
0.87 180.196 61.450
0.88 172.301 64.656
0.89 162.629 66.182
0.90 151.539 66.761
0.91 142.838 67.069
0.92 137.625 67.117
0.93 135.382 66.737
0.94 135.209 65.809
0.95 135.048 63.688
0.96 132.454 59.797
0.97 --undefined-- 54.009
0.98 --undefined-- 46.932
0.99 --undefined-- 42.307
1.00 --undefined-- 45.577
1.01 --undefined-- 51.689
1.02 --undefined-- 54.885
1.03 --undefined-- 57.584
1.04 239.332 64.101
1.05 219.031 68.804
1.06 214.252 70.907
1.07 213.459 71.613
1.08 213.844 72.156
1.09 213.748 72.750
1.10 213.549 73.300
1.11 214.389 74.054
1.12 216.349 74.773
1.13 216.708 75.200
1.14 216.653 75.537
1.15 216.486 75.892
1.16 216.862 76.177
1.17 217.174 76.300
1.18 216.807 76.151
1.19 215.093 75.460
1.20 211.365 73.692
1.21 207.866 70.102
1.22 209.560 63.878
1.23 --undefined-- 54.391
1.24 --undefined-- 46.320
1.25 --undefined-- 48.168
1.26 --undefined-- 49.745
1.27 --undefined-- 52.159
1.28 208.253 59.812
1.29 197.087 65.461
1.30 184.883 68.415
1.31 177.457 69.647
1.32 169.833 69.917
1.33 163.941 69.677
1.34 159.079 69.208
1.35 156.341 68.772
1.36 155.655 68.599
1.37 155.570 68.726
1.38 154.973 69.084
1.39 154.636 69.587
1.40 155.164 70.179
1.41 155.567 70.665
1.42 155.856 70.950
1.43 156.574 71.101
1.44 157.643 71.164
1.45 158.060 71.090
1.46 156.786 70.666
1.47 154.588 69.660
1.48 150.672 67.848
1.49 145.242 65.155
1.50 142.247 62.361
1.51 147.150 61.154
1.52 148.953 61.586
1.53 150.859 62.892
1.54 150.972 64.434
1.55 151.592 65.731
1.56 151.156 66.612
1.57 150.937 67.164
1.58 149.886 67.378
1.59 148.451 67.308
1.60 147.596 67.174
1.61 148.890 67.144
1.62 148.693 67.157
1.63 149.514 67.221
1.64 149.819 67.295
1.65 152.373 67.183
1.66 152.238 66.859
1.67 150.803 66.418
1.68 150.858 65.796
1.69 150.262 65.067
1.70 149.430 64.691
1.71 147.452 64.840
1.72 146.469 65.066
1.73 145.460 64.952
1.74 143.918 64.542
1.75 141.897 63.988
1.76 137.554 63.294
1.77 132.196 62.002
1.78 127.324 59.413
1.79 --undefined-- 55.309
1.80 --undefined-- 51.508
1.81 --undefined-- 48.152
1.82 --undefined-- 43.654
1.83 --undefined-- 41.345
1.84 --undefined-- 40.492
1.85 --undefined-- 39.427
1.86 --undefined-- 38.028
1.87 --undefined-- 38.183
1.88 --undefined-- 38.240
1.89 --undefined-- 37.099
1.90 --undefined-- 36.162
1.91 --undefined-- 36.488
1.92 --undefined-- 36.821
1.93 --undefined-- 37.682
1.94 --undefined-- 40.265
1.95 --undefined-- 41.444
1.96 --undefined-- 39.841
1.97 --undefined-- 39.267
1.98 --undefined-- 41.477
1.99 --undefined-- 42.576
2.00 --undefined-- 41.841
2.01 --undefined-- 39.633
2.02 --undefined-- 37.958
2.03 --undefined-- 38.318
2.04 --undefined-- 39.017
2.05 --undefined-- 39.638
2.06 --undefined-- 40.139
2.07 --undefined-- 39.463
2.08 --undefined-- 38.539
2.09 --undefined-- 38.961
2.10 --undefined-- 40.527
2.11 --undefined-- 41.025
2.12 --undefined-- 40.089
2.13 --undefined-- 40.183
2.14 --undefined-- 40.925
2.15 --undefined-- 40.261
2.16 --undefined-- 41.163
2.17 --undefined-- 42.635
2.18 --undefined-- 41.951
2.19 --undefined-- 39.965
2.20 --undefined-- 38.822
2.21 --undefined-- 39.117
2.22 --undefined-- 41.073
2.23 --undefined-- 42.422
2.24 --undefined-- 42.825
2.25 --undefined-- 42.330
2.26 --undefined-- 41.868
2.27 --undefined-- 41.268
2.28 --undefined-- 38.900
2.29 --undefined-- 36.424
2.30 --undefined-- 38.618
2.31 --undefined-- 41.228
2.32 --undefined-- 41.542
2.33 --undefined-- 40.287
2.34 --undefined-- 39.087
2.35 --undefined-- 40.005
2.36 --undefined-- 41.879
2.37 --undefined-- 42.358
2.38 --undefined-- 41.908
2.39 --undefined-- 41.448
2.40 --undefined-- 41.238
2.41 --undefined-- 41.596
2.42 --undefined-- 41.970
2.43 --undefined-- 41.446
2.44 --undefined-- 39.697
2.45 --undefined-- 38.288
2.46 --undefined-- 38.560
2.47 --undefined-- 39.402
2.48 --undefined-- 41.737
2.49 --undefined-- 42.945
2.50 --undefined-- 42.214
2.51 --undefined-- 41.333
2.52 --undefined-- 41.677
2.53 --undefined-- 42.218
2.54 --undefined-- 42.689
2.55 --undefined-- 42.711
2.56 --undefined-- 43.005
2.57 --undefined-- 43.007
2.58 --undefined-- 41.796
2.59 --undefined-- 40.539
2.60 --undefined-- 40.073
2.61 --undefined-- 41.083
2.62 --undefined-- 43.416
2.63 --undefined-- 52.492
2.64 229.653 61.604
2.65 225.808 66.947
2.66 217.862 69.274
2.67 212.804 69.897
2.68 210.144 70.285
2.69 206.636 71.112
2.70 201.292 72.163
2.71 196.555 73.185
2.72 194.842 74.017
2.73 193.706 74.483
2.74 193.138 74.653
2.75 192.364 74.501
2.76 191.953 73.667
2.77 192.049 71.664
2.78 187.880 68.315
2.79 182.410 64.700
2.80 180.870 61.607
2.81 180.989 57.786
2.82 --undefined-- 52.732
2.83 --undefined-- 56.482
2.84 --undefined-- 64.839
2.85 209.551 69.747
2.86 206.881 72.066
2.87 207.658 72.928
2.88 210.676 73.247
2.89 215.036 73.190
2.90 217.154 71.838
2.91 216.429 67.921
2.92 217.042 60.560
2.93 --undefined-- 50.708
2.94 --undefined-- 47.334
2.95 --undefined-- 56.954
2.96 --undefined-- 66.066
2.97 280.968 71.157
2.98 268.550 73.142
2.99 260.882 73.281
3.00 254.076 72.472
3.01 244.109 70.538
3.02 --undefined-- 67.180
3.03 --undefined-- 62.340
3.04 --undefined-- 56.194
3.05 234.078 52.591
3.06 234.746 52.821
3.07 207.349 55.727
3.08 190.546 59.209
3.09 197.133 62.387
3.10 199.494 65.241
3.11 200.608 67.436
3.12 201.868 69.028
3.13 200.789 70.329
3.14 196.918 71.288
3.15 191.054 72.152
3.16 187.557 73.080
3.17 183.515 73.750
3.18 180.944 74.058
3.19 178.568 74.100
3.20 176.099 74.104
3.21 174.883 74.191
3.22 173.648 74.220
3.23 172.784 73.963
3.24 172.369 73.441
3.25 172.585 73.037
3.26 172.879 72.887
3.27 173.175 72.779
3.28 172.873 72.592
3.29 172.391 72.319
3.30 171.836 71.994
3.31 171.461 71.700
3.32 171.377 71.489
3.33 171.990 71.261
3.34 172.489 70.841
3.35 172.587 69.990
3.36 170.741 68.519
3.37 167.809 66.525
3.38 176.938 64.134
3.39 --undefined-- 61.001
3.40 --undefined-- 56.289
3.41 --undefined-- 49.079
3.42 --undefined-- 44.013
3.43 --undefined-- 44.021
3.44 --undefined-- 43.578
3.45 --undefined-- 44.453
3.46 --undefined-- 45.943
3.47 --undefined-- 45.877
3.48 --undefined-- 44.519
3.49 --undefined-- 42.791
3.50 --undefined-- 41.672
3.51 --undefined-- 42.249
3.52 --undefined-- 43.200
3.53 --undefined-- 42.603
3.54 --undefined-- 41.539
3.55 --undefined-- 41.328
3.56 --undefined-- 41.201
3.57 --undefined-- 41.937
3.58 --undefined-- 42.990
3.59 --undefined-- 43.792
3.60 --undefined-- 44.742
3.61 --undefined-- 44.841
3.62 --undefined-- 42.851
3.63 --undefined-- 40.352
3.64 --undefined-- 40.587
3.65 --undefined-- 41.781
3.66 --undefined-- 41.753
3.67 --undefined-- 40.871
3.68 --undefined-- 41.951
3.69 --undefined-- 42.179
3.70 --undefined-- 39.825
3.71 --undefined-- 37.599
3.72 --undefined-- 38.184
3.73 --undefined-- 39.713
3.74 --undefined-- 40.358
3.75 --undefined-- 41.141
3.76 --undefined-- 41.395
3.77 --undefined-- 40.481
3.78 --undefined-- 39.712
3.79 --undefined-- 41.852
3.80 --undefined-- 52.928
3.81 299.381 62.167
3.82 282.557 67.641
3.83 280.059 70.457
3.84 282.140 71.742
3.85 284.986 72.353
3.86 288.504 72.709
3.87 290.799 72.923
3.88 294.499 72.879
3.89 --undefined-- 72.603
3.90 151.805 72.309
3.91 152.164 71.963
3.92 151.756 71.205
3.93 150.289 69.484
3.94 148.671 66.301
3.95 144.598 61.373
3.96 --undefined-- 55.852
3.97 --undefined-- 53.193
3.98 --undefined-- 52.537
3.99 --undefined-- 51.490
4.00 --undefined-- 50.367
4.01 --undefined-- 50.855
4.02 --undefined-- 53.020
4.03 --undefined-- 55.456
4.04 --undefined-- 61.505
4.05 160.989 67.404
4.06 156.908 70.494
4.07 154.295 71.493
4.08 154.614 71.592
4.09 154.512 71.265
4.10 153.405 70.226
4.11 297.809 68.264
4.12 289.717 66.626
4.13 287.084 67.951
4.14 276.096 70.829
4.15 262.890 73.194
4.16 248.049 74.453
4.17 234.541 74.456
4.18 215.427 73.512
4.19 202.230 72.377
4.20 179.533 71.628
4.21 168.019 71.044
4.22 155.969 70.317
4.23 151.860 69.608
4.24 150.473 68.887
4.25 147.726 68.325
4.26 142.695 68.095
4.27 140.105 67.876
4.28 140.191 67.612
4.29 144.316 67.489
4.30 147.926 67.394
4.31 148.950 66.984
4.32 148.615 65.589
4.33 145.769 62.459
4.34 --undefined-- 56.969
4.35 --undefined-- 49.529
4.36 --undefined-- 50.503
4.37 --undefined-- 53.976
4.38 --undefined-- 59.412
4.39 195.824 66.028
4.40 189.670 69.893
4.41 187.046 71.640
4.42 186.426 72.584
4.43 185.779 73.411
4.44 184.665 73.918
4.45 183.897 73.943
4.46 183.140 73.364
4.47 182.262 72.183
4.48 180.801 70.493
4.49 179.383 68.307
4.50 178.526 65.789
4.51 178.151 62.972
4.52 179.199 58.850
4.53 --undefined-- 52.189
4.54 --undefined-- 43.998
4.55 --undefined-- 41.533
4.56 --undefined-- 41.609
4.57 --undefined-- 41.633
4.58 --undefined-- 45.842
4.59 --undefined-- 56.308
4.60 --undefined-- 64.243
4.61 181.790 68.461
4.62 172.126 70.241
4.63 166.719 70.819
4.64 163.866 70.873
4.65 162.688 70.632
4.66 163.334 70.261
4.67 164.902 69.685
4.68 167.875 69.074
4.69 173.543 68.970
4.70 179.709 69.327
4.71 184.945 69.644
4.72 191.840 69.528
4.73 196.332 68.560
4.74 193.109 66.020
4.75 183.221 61.181
4.76 --undefined-- 53.621
4.77 --undefined-- 43.709
4.78 --undefined-- 38.411
4.79 --undefined-- 41.966
4.80 --undefined-- 52.166
4.81 --undefined-- 62.950
4.82 247.065 69.961
4.83 238.567 74.000
4.84 232.186 75.852
4.85 227.206 76.410
4.86 224.280 76.468
4.87 222.129 76.416
4.88 222.388 75.832
4.89 223.760 74.139
4.90 221.817 71.475
4.91 216.963 68.379
4.92 202.346 65.122
4.93 189.196 61.447
4.94 181.621 57.993
4.95 204.729 54.499
4.96 --undefined-- 50.478
4.97 --undefined-- 48.249
4.98 --undefined-- 45.184
4.99 --undefined-- 40.704
5.00 --undefined-- 37.828
5.01 --undefined-- 36.716
5.02 --undefined-- 38.695
5.03 --undefined-- 39.908
5.04 --undefined-- 38.697
5.05 --undefined-- 37.858
5.06 --undefined-- 38.480
5.07 --undefined-- 38.112
5.08 --undefined-- 41.538
5.09 --undefined-- 51.538
5.10 195.808 59.119
5.11 189.669 63.571
5.12 186.304 66.005
5.13 183.805 67.317
5.14 184.822 68.084
5.15 186.921 68.410
5.16 188.686 68.634
5.17 191.883 69.164
5.18 196.794 70.135
5.19 198.100 71.418
5.20 198.220 72.742
5.21 195.885 73.354
5.22 193.182 72.548
5.23 193.119 70.207
5.24 207.607 67.080
5.25 228.409 65.050
5.26 229.131 64.630
5.27 221.575 64.928
5.28 202.578 66.329
5.29 204.404 68.689
5.30 211.895 70.866
5.31 215.132 72.271
5.32 210.796 72.711
5.33 205.617 72.434
5.34 201.899 71.992
5.35 200.304 71.816
5.36 198.727 71.838
5.37 196.912 71.788
5.38 195.332 71.639
5.39 194.080 71.575
5.40 192.852 71.747
5.41 192.750 72.160
5.42 193.973 72.536
5.43 195.172 72.744
5.44 197.300 72.745
5.45 198.513 72.431
5.46 197.696 71.649
5.47 194.072 70.115
5.48 187.012 67.182
5.49 182.007 61.892
5.50 --undefined-- 53.453
5.51 --undefined-- 44.831
5.52 --undefined-- 44.097
5.53 --undefined-- 44.968
5.54 --undefined-- 44.686
5.55 --undefined-- 45.023
5.56 --undefined-- 53.618
5.57 --undefined-- 62.488
5.58 210.177 67.539
5.59 202.021 69.591
5.60 194.490 69.940
5.61 190.593 69.771
5.62 188.810 69.586
5.63 187.057 69.432
5.64 185.407 69.261
5.65 183.741 68.980
5.66 181.781 68.312
5.67 179.216 66.685
5.68 174.198 63.257
5.69 173.759 57.487
5.70 --undefined-- 49.071
5.71 --undefined-- 45.806
5.72 --undefined-- 54.099
5.73 --undefined-- 62.251
5.74 202.707 67.421
5.75 195.588 69.731
5.76 189.078 70.379
5.77 186.353 70.580
5.78 183.806 70.583
5.79 182.591 70.330
5.80 182.193 70.169
5.81 182.435 70.233
5.82 182.755 70.281
5.83 183.101 70.207
5.84 183.317 70.041
5.85 183.744 69.869
5.86 183.083 69.719
5.87 183.009 69.474
5.88 183.492 68.795
5.89 181.431 67.060
5.90 175.390 63.959
5.91 175.956 59.447
5.92 --undefined-- 55.081
5.93 --undefined-- 57.448
5.94 294.533 60.643
5.95 295.221 60.809
5.96 --undefined-- 58.831
5.97 --undefined-- 57.833
5.98 --undefined-- 57.882
5.99 --undefined-- 56.970
6.00 --undefined-- 56.632
6.01 --undefined-- 62.788
6.02 257.312 68.888
6.03 250.354 72.319
6.04 248.029 73.962
6.05 246.634 74.790
6.06 245.295 75.314
6.07 243.660 75.706
6.08 241.764 76.028
6.09 238.926 76.317
6.10 235.425 76.787
6.11 235.028 77.370
6.12 234.896 77.676
6.13 233.683 77.690
6.14 232.706 77.564
6.15 231.175 77.254
6.16 228.045 76.394
6.17 222.173 74.432
6.18 214.781 70.640
6.19 212.896 64.459
6.20 --undefined-- 55.521
6.21 --undefined-- 48.379
6.22 --undefined-- 46.475
6.23 --undefined-- 45.556
6.24 --undefined-- 47.184
6.25 --undefined-- 51.098
6.26 --undefined-- 59.595
6.27 225.285 66.648
6.28 215.371 70.928
6.29 207.510 73.155
6.30 199.858 74.083
6.31 194.693 74.348
6.32 190.564 74.309
6.33 188.373 74.110
6.34 186.250 73.811
6.35 184.078 73.432
6.36 181.868 72.972
6.37 180.829 72.482
6.38 180.249 --undefined--
6.39 179.256 --undefined--
6.40 --undefined-- --undefined--
6.41 --undefined-- --undefined--
