Time Pitch Intensity
0.01 --undefined-- --undefined--
0.02 94.240 --undefined--
0.03 95.061 --undefined--
0.04 95.771 --undefined--
0.05 96.679 69.297
0.06 96.921 69.379
0.07 96.945 69.140
0.08 97.285 68.246
0.09 96.473 66.415
0.10 94.788 63.703
0.11 103.729 60.963
0.12 100.663 59.372
0.13 118.140 63.435
0.14 115.469 68.610
0.15 111.883 71.494
0.16 109.368 73.002
0.17 112.655 74.285
0.18 117.675 75.463
0.19 121.585 75.954
0.20 127.054 75.600
0.21 133.517 75.017
0.22 138.456 74.765
0.23 145.207 74.665
0.24 151.480 74.407
0.25 156.760 73.978
0.26 160.413 73.284
0.27 163.355 72.259
0.28 166.209 71.018
0.29 168.090 69.937
0.30 161.066 69.712
0.31 151.263 70.548
0.32 133.761 71.649
0.33 125.627 72.277
0.34 122.453 72.606
0.35 119.842 72.770
0.36 115.790 72.755
0.37 117.194 72.836
0.38 116.102 72.901
0.39 115.877 73.005
0.40 117.384 73.299
0.41 118.280 73.522
0.42 118.005 73.049
0.43 115.651 71.744
0.44 113.897 70.465
0.45 116.277 69.782
0.46 115.889 69.163
0.47 114.627 68.095
0.48 117.385 66.769
0.49 127.642 66.453
0.50 127.143 67.664
0.51 128.293 69.446
0.52 128.938 71.328
0.53 126.445 73.083
0.54 125.227 74.522
0.55 123.439 75.595
0.56 120.931 76.222
0.57 121.220 76.506
0.58 122.504 76.594
0.59 124.377 76.517
0.60 126.273 76.356
0.61 126.558 76.307
0.62 127.221 76.325
0.63 127.593 75.917
0.64 124.518 74.362
0.65 121.203 71.245
0.66 129.058 67.126
0.67 131.293 63.299
0.68 143.390 60.476
0.69 --undefined-- 60.874
0.70 --undefined-- 65.664
0.71 167.193 70.985
0.72 158.076 74.270
0.73 147.186 75.344
0.74 130.912 75.330
0.75 128.438 75.256
0.76 128.384 75.207
0.77 128.717 75.018
0.78 128.778 74.830
0.79 128.918 74.869
0.80 129.679 74.986
0.81 126.261 74.604
0.82 122.179 73.024
0.83 124.855 70.205
0.84 127.879 66.785
0.85 125.044 63.858
0.86 135.989 65.359
0.87 155.350 70.005
0.88 145.049 73.282
0.89 134.089 75.045
0.90 125.562 75.614
0.91 120.348 75.089
0.92 116.006 73.272
0.93 112.734 70.018
0.94 120.501 65.871
0.95 131.905 61.696
0.96 --undefined-- 56.765
0.97 --undefined-- 50.273
0.98 --undefined-- 44.461
0.99 --undefined-- 43.150
1.00 --undefined-- 46.722
1.01 --undefined-- 52.202
1.02 --undefined-- 55.833
1.03 --undefined-- 56.823
1.04 --undefined-- 56.043
1.05 --undefined-- 57.937
1.06 --undefined-- 66.911
1.07 243.401 73.671
1.08 231.646 77.433
1.09 229.254 79.256
1.10 229.396 80.067
1.11 230.221 80.279
1.12 231.636 80.164
1.13 231.458 79.990
1.14 224.614 79.778
1.15 214.991 79.420
1.16 215.118 79.260
1.17 215.088 79.493
1.18 214.275 79.904
1.19 212.216 80.081
1.20 207.490 79.781
1.21 201.806 78.864
1.22 191.420 76.820
1.23 172.204 73.212
1.24 164.902 67.876
1.25 --undefined-- 60.750
1.26 --undefined-- 53.328
1.27 --undefined-- 50.830
1.28 --undefined-- 51.240
1.29 --undefined-- 53.057
1.30 --undefined-- 56.731
1.31 --undefined-- 63.999
1.32 --undefined-- 70.866
1.33 --undefined-- 74.925
1.34 --undefined-- 76.660
1.35 114.635 76.622
1.36 103.501 75.400
1.37 96.847 74.095
1.38 96.407 73.370
1.39 97.994 72.790
1.40 98.868 72.066
1.41 96.443 70.719
1.42 84.146 67.973
1.43 --undefined-- 63.550
1.44 --undefined-- 57.721
1.45 --undefined-- 52.288
1.46 --undefined-- 50.494
1.47 --undefined-- 49.836
1.48 --undefined-- 48.664
1.49 --undefined-- 48.355
1.50 --undefined-- 48.824
1.51 --undefined-- 48.895
1.52 --undefined-- 48.605
1.53 --undefined-- 48.482
1.54 --undefined-- 48.771
1.55 --undefined-- 48.530
1.56 --undefined-- 47.506
1.57 --undefined-- 46.212
1.58 --undefined-- 44.841
1.59 --undefined-- 43.403
1.60 --undefined-- 42.074
1.61 --undefined-- 41.351
1.62 --undefined-- 41.307
1.63 --undefined-- 42.392
1.64 --undefined-- 45.246
1.65 --undefined-- 47.878
1.66 --undefined-- 49.790
1.67 --undefined-- 52.044
1.68 --undefined-- 54.787
1.69 --undefined-- 58.307
1.70 --undefined-- 66.046
1.71 --undefined-- 71.834
1.72 124.277 74.696
1.73 119.430 75.738
1.74 115.505 76.213
1.75 113.029 76.680
1.76 114.415 77.061
1.77 114.909 77.151
1.78 114.306 76.557
1.79 109.842 74.789
1.80 109.607 71.987
1.81 115.383 69.236
1.82 112.621 67.346
1.83 126.769 67.916
1.84 136.076 71.160
1.85 129.150 74.306
1.86 126.802 75.933
1.87 114.950 76.237
1.88 109.839 76.137
1.89 108.895 76.107
1.90 108.562 76.146
1.91 107.775 76.111
1.92 107.534 75.919
1.93 107.523 75.712
1.94 107.959 75.620
1.95 108.912 75.610
1.96 112.032 75.576
1.97 112.482 75.415
1.98 112.160 74.800
1.99 111.047 73.127
2.00 105.918 70.126
2.01 106.671 66.582
2.02 113.852 63.763
2.03 126.930 61.281
2.04 77.078 59.720
2.05 80.670 61.820
2.06 181.564 66.489
2.07 160.516 71.169
2.08 146.975 74.250
2.09 137.805 75.556
2.10 125.818 75.824
2.11 125.044 76.059
2.12 125.212 76.476
2.13 125.636 76.626
2.14 125.513 76.440
2.15 126.167 76.180
2.16 125.846 76.012
2.17 124.740 75.932
2.18 124.533 75.847
2.19 123.908 75.761
2.20 123.976 75.661
2.21 123.970 75.560
2.22 123.766 75.536
2.23 123.200 75.551
2.24 122.065 75.562
2.25 122.115 75.444
2.26 121.529 74.615
2.27 114.285 72.327
2.28 112.960 68.478
2.29 --undefined-- 63.695
2.30 --undefined-- 58.154
2.31 --undefined-- 52.505
2.32 --undefined-- 49.719
2.33 --undefined-- 48.325
2.34 --undefined-- 50.018
2.35 --undefined-- 58.863
2.36 --undefined-- 66.339
2.37 --undefined-- 71.081
2.38 120.724 73.853
2.39 118.635 74.771
2.40 111.889 73.673
2.41 107.815 70.945
2.42 113.222 67.362
2.43 115.947 62.771
2.44 --undefined-- 60.608
2.45 --undefined-- 67.293
2.46 154.044 73.286
2.47 142.268 76.369
2.48 131.531 77.373
2.49 131.048 77.657
2.50 131.129 77.860
2.51 130.373 77.605
2.52 129.760 76.803
2.53 131.205 75.687
2.54 132.301 74.362
2.55 132.496 73.239
2.56 130.071 72.746
2.57 124.725 72.763
2.58 121.619 72.514
2.59 115.316 71.594
2.60 108.756 70.267
2.61 107.526 69.267
2.62 107.173 69.320
2.63 104.599 70.042
2.64 101.886 70.834
2.65 100.318 71.474
2.66 99.252 71.797
2.67 98.644 71.828
2.68 97.044 71.584
2.69 96.988 70.965
2.70 94.038 70.044
2.71 92.842 68.994
2.72 93.619 68.477
2.73 94.578 68.917
2.74 99.979 69.942
2.75 104.497 70.971
2.76 107.145 71.483
2.77 110.087 70.864
2.78 114.980 68.519
2.79 127.484 64.154
2.80 --undefined-- 59.155
2.81 --undefined-- 65.914
2.82 --undefined-- 74.572
2.83 201.031 79.554
2.84 193.010 81.934
2.85 193.751 82.833
2.86 195.089 82.927
2.87 199.063 82.467
2.88 205.486 81.473
2.89 207.895 79.922
2.90 205.609 77.975
2.91 201.389 75.827
2.92 199.956 72.992
2.93 196.921 68.189
2.94 --undefined-- 60.222
2.95 --undefined-- 51.379
2.96 --undefined-- 49.123
2.97 --undefined-- 47.227
2.98 --undefined-- 46.365
2.99 --undefined-- 46.676
3.00 --undefined-- 46.399
3.01 --undefined-- 45.432
3.02 --undefined-- 44.290
3.03 --undefined-- 43.225
3.04 --undefined-- 42.719
3.05 --undefined-- 42.013
3.06 --undefined-- 41.241
3.07 --undefined-- 40.076
3.08 --undefined-- 38.505
3.09 --undefined-- 37.628
3.10 --undefined-- 36.847
3.11 --undefined-- 37.595
3.12 --undefined-- 39.913
3.13 --undefined-- 41.080
3.14 --undefined-- 39.812
3.15 --undefined-- 35.651
3.16 --undefined-- 31.495
3.17 --undefined-- 32.735
3.18 --undefined-- 34.190
3.19 --undefined-- 35.154
3.20 --undefined-- 37.036
3.21 --undefined-- 41.965
3.22 --undefined-- 47.523
3.23 --undefined-- 50.587
3.24 --undefined-- 57.130
3.25 212.051 64.822
3.26 207.175 69.314
3.27 162.567 71.975
3.28 149.814 74.277
3.29 127.979 76.238
3.30 128.121 77.558
3.31 126.895 78.343
3.32 126.303 78.894
3.33 127.458 79.458
3.34 125.878 79.974
3.35 126.675 80.239
3.36 126.624 80.134
3.37 125.493 79.492
3.38 124.294 77.946
3.39 120.549 75.231
3.40 125.959 72.114
3.41 137.041 71.253
3.42 156.479 74.008
3.43 155.660 76.815
3.44 146.761 78.127
3.45 142.238 78.360
3.46 141.927 78.101
3.47 142.066 77.740
3.48 144.105 77.544
3.49 145.945 77.488
3.50 150.966 77.570
3.51 153.176 77.761
3.52 155.191 77.860
3.53 158.940 77.490
3.54 159.461 75.962
3.55 154.019 72.609
3.56 152.051 67.476
3.57 154.603 61.895
3.58 --undefined-- 59.681
3.59 --undefined-- 61.207
3.60 --undefined-- 66.545
3.61 214.108 73.368
3.62 205.863 77.094
3.63 197.715 78.256
3.64 197.474 78.284
3.65 199.021 78.136
3.66 200.255 77.567
3.67 199.481 75.772
3.68 185.260 72.098
3.69 179.711 67.048
3.70 188.193 63.564
3.71 --undefined-- 64.425
3.72 --undefined-- 69.225
3.73 265.633 74.870
3.74 237.663 78.879
3.75 231.459 81.298
3.76 226.406 82.614
3.77 225.207 82.754
3.78 223.962 81.487
3.79 219.552 79.477
3.80 215.774 78.528
3.81 211.591 78.320
3.82 205.083 76.942
3.83 192.136 73.467
3.84 182.659 68.523
3.85 205.171 65.064
3.86 198.809 62.274
3.87 --undefined-- 57.916
3.88 --undefined-- 55.793
3.89 --undefined-- 64.179
3.90 266.189 71.848
3.91 241.349 76.110
3.92 219.214 77.802
3.93 208.575 78.185
3.94 205.683 78.129
3.95 204.772 77.966
3.96 204.301 77.994
3.97 203.973 78.237
3.98 203.480 78.461
3.99 202.309 78.529
4.00 200.899 78.458
4.01 198.187 78.136
4.02 193.566 77.261
4.03 186.493 75.492
4.04 175.787 73.053
4.05 166.022 70.831
4.06 152.174 69.385
4.07 142.892 68.804
4.08 138.663 69.131
4.09 142.255 70.971
4.10 145.384 73.707
4.11 140.937 75.493
4.12 135.210 76.261
4.13 130.649 76.207
4.14 126.046 75.689
4.15 123.478 75.267
4.16 123.353 74.943
4.17 122.254 74.456
4.18 121.721 73.131
4.19 119.301 70.143
4.20 112.654 64.965
4.21 --undefined-- 58.612
4.22 --undefined-- 58.480
4.23 --undefined-- 62.988
4.24 --undefined-- 69.032
4.25 --undefined-- 73.319
4.26 128.144 75.433
4.27 124.875 75.894
4.28 122.503 74.571
4.29 116.068 71.207
4.30 117.481 66.210
4.31 127.482 60.041
4.32 --undefined-- 53.125
4.33 --undefined-- 47.489
4.34 --undefined-- 48.512
4.35 --undefined-- 52.207
4.36 --undefined-- 55.330
4.37 --undefined-- 57.964
4.38 --undefined-- 60.177
4.39 --undefined-- 61.698
4.40 --undefined-- 62.948
4.41 --undefined-- 63.863
4.42 --undefined-- 64.409
4.43 --undefined-- 64.255
4.44 --undefined-- 63.746
4.45 --undefined-- 65.834
4.46 --undefined-- 70.029
4.47 --undefined-- 72.505
4.48 109.418 73.237
4.49 103.788 72.873
4.50 99.764 72.046
4.51 101.069 71.681
4.52 101.755 71.651
4.53 100.564 71.274
4.54 97.243 70.464
4.55 95.335 69.731
4.56 94.394 69.387
4.57 94.176 69.361
4.58 94.659 69.393
4.59 93.923 69.173
4.60 91.995 68.647
4.61 92.550 67.990
4.62 90.773 67.473
4.63 87.901 67.273
4.64 87.284 67.184
4.65 86.541 66.763
4.66 86.540 65.909
4.67 89.516 65.727
4.68 91.979 66.396
4.69 95.371 66.969
4.70 96.505 66.889
4.71 96.193 65.954
4.72 95.487 64.240
4.73 98.097 61.868
4.74 98.903 59.799
4.75 --undefined-- 63.753
4.76 --undefined-- 69.511
4.77 119.857 73.070
4.78 109.556 74.782
4.79 109.133 75.297
4.80 110.226 74.829
4.81 109.543 73.170
4.82 106.525 70.360
4.83 111.704 66.742
4.84 118.517 61.971
4.85 --undefined-- 54.944
4.86 --undefined-- 52.078
4.87 --undefined-- 60.745
4.88 --undefined-- 68.841
4.89 --undefined-- 73.736
4.90 119.366 75.766
4.91 114.305 76.064
4.92 110.487 75.942
4.93 113.140 76.262
4.94 114.402 76.709
4.95 114.831 76.842
4.96 115.047 76.577
4.97 115.143 75.917
4.98 114.994 74.678
4.99 114.755 72.450
5.00 111.020 68.991
5.01 109.057 64.704
5.02 --undefined-- 61.448
5.03 --undefined-- 65.537
5.04 --undefined-- 73.118
5.05 --undefined-- 77.704
5.06 129.399 79.934
5.07 126.844 81.014
5.08 126.248 81.459
5.09 123.700 81.262
5.10 121.775 80.728
5.11 121.953 79.968
5.12 123.521 78.474
5.13 122.249 76.014
5.14 119.779 72.671
5.15 133.149 68.681
5.16 129.036 63.766
5.17 --undefined-- 57.185
5.18 --undefined-- 50.415
5.19 --undefined-- 48.792
5.20 --undefined-- 47.135
5.21 --undefined-- 46.648
5.22 --undefined-- 47.276
5.23 --undefined-- 46.677
5.24 --undefined-- 44.540
5.25 --undefined-- 41.721
5.26 --undefined-- 41.127
5.27 --undefined-- 41.662
5.28 --undefined-- 41.084
5.29 --undefined-- 40.924
5.30 --undefined-- 41.125
5.31 --undefined-- 39.765
5.32 --undefined-- 39.433
5.33 --undefined-- 41.030
5.34 --undefined-- 41.318
5.35 --undefined-- 40.120
5.36 --undefined-- 39.782
5.37 --undefined-- 40.749
5.38 --undefined-- 40.476
5.39 --undefined-- 38.816
5.40 --undefined-- 37.503
5.41 --undefined-- 39.108
5.42 --undefined-- 40.696
5.43 --undefined-- 40.521
5.44 --undefined-- 40.549
5.45 --undefined-- 42.344
5.46 --undefined-- 43.654
5.47 --undefined-- 43.925
5.48 --undefined-- 43.209
5.49 --undefined-- 41.654
5.50 --undefined-- 39.992
5.51 --undefined-- 38.680
5.52 --undefined-- 39.277
5.53 --undefined-- 40.883
5.54 --undefined-- 40.944
5.55 --undefined-- 39.361
5.56 --undefined-- 38.686
5.57 --undefined-- 39.359
5.58 --undefined-- 39.065
5.59 --undefined-- 39.103
5.60 --undefined-- 40.817
5.61 --undefined-- 41.956
5.62 --undefined-- 41.261
5.63 --undefined-- 39.614
5.64 --undefined-- 38.267
5.65 --undefined-- 38.152
5.66 --undefined-- 39.203
5.67 --undefined-- 40.958
5.68 --undefined-- 46.757
5.69 --undefined-- 57.025
5.70 --undefined-- 64.224
5.71 --undefined-- 68.431
5.72 --undefined-- 71.170
5.73 97.716 --undefined--
5.74 104.703 --undefined--
5.75 --undefined-- --undefined--
5.76 --undefined-- --undefined--
