Time Pitch Intensity
0.01 --undefined-- --undefined--
0.02 --undefined-- --undefined--
0.03 --undefined-- --undefined--
0.04 --undefined-- --undefined--
0.05 --undefined-- 56.121
0.06 178.920 61.588
0.07 161.080 64.528
0.08 152.710 65.880
0.09 145.573 66.874
0.10 132.015 67.875
0.11 123.734 68.687
0.12 119.303 68.992
0.13 117.316 68.719
0.14 115.166 68.404
0.15 113.625 68.463
0.16 113.217 68.604
0.17 114.604 68.660
0.18 119.046 68.849
0.19 124.791 69.263
0.20 129.787 69.754
0.21 136.147 70.033
0.22 140.927 70.102
0.23 143.115 70.245
0.24 143.884 70.765
0.25 144.247 71.346
0.26 145.201 71.596
0.27 146.508 71.495
0.28 147.058 70.618
0.29 147.638 68.482
0.30 158.190 65.236
0.31 177.163 61.282
0.32 172.864 55.749
0.33 --undefined-- 47.898
0.34 --undefined-- 41.409
0.35 --undefined-- 40.763
0.36 --undefined-- 41.932
0.37 --undefined-- 44.395
0.38 --undefined-- 46.176
0.39 --undefined-- 45.524
0.40 --undefined-- 43.096
0.41 --undefined-- 41.492
0.42 --undefined-- 41.589
0.43 --undefined-- 41.883
0.44 --undefined-- 41.820
0.45 --undefined-- 41.166
0.46 --undefined-- 39.811
0.47 --undefined-- 37.696
0.48 --undefined-- 35.844
0.49 --undefined-- 36.118
0.50 --undefined-- 37.161
0.51 --undefined-- 37.496
0.52 --undefined-- 37.247
0.53 --undefined-- 36.034
0.54 --undefined-- 33.273
0.55 --undefined-- 31.876
0.56 --undefined-- 34.916
0.57 --undefined-- 37.321
0.58 --undefined-- 38.079
0.59 --undefined-- 38.108
0.60 --undefined-- 39.898
0.61 --undefined-- 43.230
0.62 --undefined-- 46.366
0.63 --undefined-- 49.063
0.64 --undefined-- 52.755
0.65 173.676 58.770
0.66 170.372 63.509
0.67 149.509 66.274
0.68 132.773 67.782
0.69 124.746 68.723
0.70 122.132 69.296
0.71 123.203 69.617
0.72 124.021 69.785
0.73 125.926 69.717
0.74 127.445 69.536
0.75 129.298 69.567
0.76 134.660 70.013
0.77 139.251 70.834
0.78 145.594 71.408
0.79 155.812 71.298
0.80 160.278 70.766
0.81 162.743 70.042
0.82 168.215 68.687
0.83 192.880 66.355
0.84 205.978 63.051
0.85 203.197 58.516
0.86 --undefined-- 52.337
0.87 --undefined-- 45.078
0.88 --undefined-- 41.268
0.89 --undefined-- 41.060
0.90 --undefined-- 40.993
0.91 --undefined-- 39.682
0.92 --undefined-- 37.428
0.93 --undefined-- 35.864
0.94 --undefined-- 36.213
0.95 --undefined-- 37.499
0.96 --undefined-- 39.092
0.97 --undefined-- 39.115
0.98 --undefined-- 36.519
0.99 --undefined-- 32.536
1.00 --undefined-- 33.920
1.01 --undefined-- 37.241
1.02 --undefined-- 39.216
1.03 --undefined-- 44.544
1.04 --undefined-- 50.724
1.05 --undefined-- 53.473
1.06 --undefined-- 53.868
1.07 --undefined-- 54.419
1.08 --undefined-- 55.635
1.09 --undefined-- 60.348
1.10 157.435 66.180
1.11 141.745 69.859
1.12 137.986 71.480
1.13 128.511 71.858
1.14 124.198 72.266
1.15 111.420 72.573
1.16 110.980 71.777
1.17 111.327 70.472
1.18 113.014 69.979
1.19 115.671 70.193
1.20 118.898 70.592
1.21 122.161 70.931
1.22 125.777 71.082
1.23 129.089 70.997
1.24 133.823 70.960
1.25 137.840 71.302
1.26 140.164 71.802
1.27 141.782 72.101
1.28 142.298 72.213
1.29 142.367 72.305
1.30 142.460 72.430
1.31 142.958 72.492
1.32 143.343 72.492
1.33 142.461 72.280
1.34 140.093 71.611
1.35 138.735 70.783
1.36 136.294 70.014
1.37 134.434 69.373
1.38 131.178 69.335
1.39 130.062 69.619
1.40 130.979 70.005
1.41 132.920 70.394
1.42 133.976 70.765
1.43 134.264 70.959
1.44 136.044 70.820
1.45 137.297 70.655
1.46 136.356 70.247
1.47 133.534 68.644
1.48 127.602 65.609
1.49 138.155 62.224
1.50 151.254 58.769
1.51 181.457 55.568
1.52 171.678 53.124
1.53 --undefined-- 49.322
1.54 --undefined-- 48.566
1.55 --undefined-- 56.662
1.56 --undefined-- 62.435
1.57 146.622 65.624
1.58 136.695 67.285
1.59 125.503 68.293
1.60 120.788 68.876
1.61 118.739 68.951
1.62 116.473 68.539
1.63 115.202 68.082
1.64 114.239 67.783
1.65 113.341 67.332
1.66 110.083 66.530
1.67 102.020 64.869
1.68 96.828 61.838
1.69 95.345 57.654
1.70 125.375 53.762
1.71 128.698 51.662
1.72 --undefined-- 48.700
1.73 --undefined-- 43.808
1.74 --undefined-- 39.284
1.75 --undefined-- 36.675
1.76 --undefined-- 36.796
1.77 --undefined-- 39.386
1.78 --undefined-- 41.279
1.79 --undefined-- 40.986
1.80 --undefined-- 39.262
1.81 --undefined-- 37.488
1.82 --undefined-- 36.650
1.83 --undefined-- 37.711
1.84 --undefined-- 38.862
1.85 --undefined-- 39.545
1.86 --undefined-- 39.508
1.87 --undefined-- 37.998
1.88 --undefined-- 35.684
1.89 --undefined-- 35.735
1.90 --undefined-- 37.549
1.91 --undefined-- 38.773
1.92 --undefined-- 38.690
1.93 --undefined-- 37.075
1.94 --undefined-- 34.162
1.95 --undefined-- 33.016
1.96 --undefined-- 35.874
1.97 --undefined-- 39.741
1.98 --undefined-- 42.941
1.99 --undefined-- 46.389
2.00 --undefined-- 55.770
2.01 --undefined-- 63.272
2.02 --undefined-- 67.575
2.03 --undefined-- 69.898
2.04 --undefined-- 70.908
2.05 141.704 71.283
2.06 144.936 72.022
2.07 157.483 73.012
2.08 161.057 73.230
2.09 163.838 72.365
2.10 168.426 71.076
2.11 172.664 69.521
2.12 177.378 67.421
2.13 192.154 65.379
2.14 194.946 64.179
2.15 193.736 63.882
2.16 185.943 64.777
2.17 177.904 66.481
2.18 166.815 68.379
2.19 156.903 70.276
2.20 140.865 71.679
2.21 135.631 72.037
2.22 131.668 70.657
2.23 122.697 67.015
2.24 123.232 62.298
2.25 84.998 59.203
2.26 80.241 56.240
2.27 --undefined-- 52.104
2.28 --undefined-- 47.294
2.29 --undefined-- 43.064
2.30 --undefined-- 41.011
2.31 --undefined-- 48.062
2.32 --undefined-- 56.900
2.33 --undefined-- 62.618
2.34 --undefined-- 65.839
2.35 117.243 67.538
2.36 111.640 68.157
2.37 103.445 67.707
2.38 98.777 66.750
2.39 96.370 66.074
2.40 95.332 65.574
2.41 95.276 64.524
2.42 93.298 62.260
2.43 94.420 59.063
2.44 94.131 56.424
2.45 98.946 54.806
2.46 --undefined-- 53.196
2.47 --undefined-- 50.815
2.48 --undefined-- 48.773
2.49 --undefined-- 54.085
2.50 --undefined-- 61.541
2.51 168.833 66.627
2.52 166.872 69.468
2.53 159.047 70.470
2.54 157.976 70.385
2.55 160.583 70.167
2.56 162.497 70.265
2.57 164.802 70.538
2.58 165.928 70.551
2.59 165.159 69.815
2.60 160.027 68.515
2.61 165.137 68.131
2.62 168.136 68.714
2.63 167.448 69.502
2.64 166.035 70.518
2.65 165.804 71.256
2.66 165.377 71.375
2.67 164.393 71.091
2.68 163.959 70.313
2.69 163.952 68.783
2.70 165.593 66.901
2.71 167.965 65.324
2.72 173.233 64.132
2.73 174.138 63.342
2.74 173.901 62.789
2.75 173.771 62.261
2.76 171.367 62.072
2.77 169.560 62.180
2.78 167.189 62.574
2.79 164.334 63.475
2.80 162.030 64.527
2.81 159.358 65.535
2.82 155.007 66.568
2.83 150.821 67.563
2.84 143.852 68.450
2.85 133.670 68.976
2.86 129.171 69.008
2.87 126.351 68.965
2.88 125.466 69.110
2.89 124.715 69.126
2.90 125.955 69.005
2.91 127.723 69.014
2.92 131.037 68.919
2.93 135.299 68.618
2.94 138.567 68.549
2.95 138.877 68.752
2.96 140.075 69.002
2.97 142.316 69.251
2.98 140.780 69.050
2.99 137.646 68.507
3.00 133.041 68.491
3.01 123.559 69.009
3.02 118.970 69.320
3.03 115.824 69.317
3.04 114.108 69.083
3.05 114.309 68.502
3.06 118.307 67.759
3.07 122.302 67.382
3.08 127.879 67.294
3.09 134.234 66.787
3.10 135.805 65.120
3.11 137.158 62.423
3.12 160.219 59.857
3.13 176.902 57.480
3.14 181.419 54.560
3.15 187.768 50.856
3.16 --undefined-- 46.227
3.17 --undefined-- 42.902
3.18 --undefined-- 48.356
3.19 --undefined-- 57.388
3.20 --undefined-- 63.653
3.21 182.719 67.483
3.22 177.074 69.416
3.23 172.118 69.830
3.24 168.598 69.180
3.25 166.264 67.580
3.26 164.550 65.113
3.27 181.857 64.778
3.28 185.848 66.911
3.29 187.228 68.420
3.30 187.841 69.153
3.31 187.213 69.467
3.32 187.821 69.451
3.33 189.043 69.085
3.34 192.656 68.472
3.35 186.250 67.713
3.36 174.179 67.292
3.37 169.782 67.360
3.38 167.517 67.761
3.39 163.917 67.985
3.40 160.660 67.538
3.41 157.579 66.205
3.42 153.777 63.907
3.43 154.616 60.747
3.44 149.851 56.528
3.45 --undefined-- 51.620
3.46 --undefined-- 48.852
3.47 --undefined-- 48.307
3.48 --undefined-- 47.347
3.49 --undefined-- 46.094
3.50 --undefined-- 46.102
3.51 --undefined-- 48.917
3.52 --undefined-- 56.236
3.53 --undefined-- 62.277
3.54 --undefined-- 65.300
3.55 --undefined-- 65.572
3.56 --undefined-- 63.166
3.57 --undefined-- 58.277
3.58 --undefined-- 51.481
3.59 --undefined-- 43.567
3.60 --undefined-- 40.167
3.61 --undefined-- 39.823
3.62 --undefined-- 42.416
3.63 --undefined-- 52.791
3.64 151.817 60.472
3.65 147.066 64.809
3.66 142.875 66.851
3.67 138.954 67.476
3.68 133.016 67.291
3.69 129.454 66.841
3.70 127.645 66.306
3.71 126.781 65.395
3.72 123.576 63.896
3.73 118.332 61.583
3.74 107.645 58.124
3.75 112.038 53.540
3.76 --undefined-- 48.211
3.77 --undefined-- 42.873
3.78 --undefined-- 39.829
3.79 --undefined-- 38.647
3.80 --undefined-- 37.924
3.81 --undefined-- 37.387
3.82 --undefined-- 35.696
3.83 --undefined-- 33.492
3.84 --undefined-- 38.385
3.85 --undefined-- 51.943
3.86 --undefined-- 62.054
3.87 --undefined-- 68.337
3.88 --undefined-- 71.623
3.89 --undefined-- 72.628
3.90 --undefined-- 72.092
3.91 --undefined-- 70.948
3.92 --undefined-- 69.810
3.93 84.906 68.386
3.94 --undefined-- 66.155
3.95 --undefined-- 63.607
3.96 --undefined-- 61.220
3.97 --undefined-- 56.687
3.98 --undefined-- 49.410
3.99 --undefined-- 45.648
4.00 --undefined-- 52.415
4.01 --undefined-- 59.491
4.02 104.555 63.671
4.03 107.825 66.013
4.04 122.835 67.557
4.05 134.666 68.881
4.06 140.763 70.121
4.07 144.513 71.195
4.08 142.989 71.616
4.09 142.342 71.388
4.10 143.941 70.867
4.11 149.142 70.055
4.12 152.637 68.887
4.13 155.329 67.232
4.14 156.225 64.525
4.15 152.572 60.001
4.16 147.375 52.967
4.17 --undefined-- 44.838
4.18 --undefined-- 41.521
4.19 --undefined-- 41.756
4.20 --undefined-- 41.142
4.21 --undefined-- 40.755
4.22 --undefined-- 51.415
4.23 --undefined-- 60.627
4.24 --undefined-- 66.437
4.25 158.865 69.902
4.26 155.046 71.751
4.27 152.291 72.504
4.28 149.953 72.513
4.29 147.459 71.649
4.30 145.665 69.934
4.31 147.674 67.909
4.32 149.008 66.036
4.33 145.747 64.213
4.34 145.377 62.898
4.35 147.397 62.849
4.36 149.915 63.698
4.37 150.963 64.984
4.38 148.329 66.412
4.39 142.474 67.914
4.40 123.794 68.909
4.41 123.600 68.963
4.42 127.051 68.602
4.43 129.945 68.238
4.44 134.754 67.971
4.45 133.633 68.160
4.46 138.174 68.550
4.47 141.222 68.700
4.48 141.868 68.394
4.49 143.486 67.746
4.50 146.784 67.345
4.51 148.506 67.534
4.52 146.713 67.806
4.53 144.357 67.674
4.54 139.633 67.204
4.55 134.470 66.667
4.56 129.640 66.170
4.57 124.889 65.506
4.58 119.949 63.954
4.59 113.461 61.137
4.60 107.109 57.608
4.61 113.298 54.388
4.62 145.524 50.412
4.63 --undefined-- 45.119
4.64 --undefined-- 41.722
4.65 --undefined-- 41.770
4.66 --undefined-- 46.215
4.67 --undefined-- 56.083
4.68 --undefined-- 63.092
4.69 165.173 66.745
4.70 152.304 68.296
4.71 145.438 68.869
4.72 144.136 68.768
4.73 142.433 68.061
4.74 140.027 67.310
4.75 138.556 66.717
4.76 137.738 66.031
4.77 137.248 65.207
4.78 135.527 64.357
4.79 136.053 63.482
4.80 140.005 62.701
4.81 142.424 62.204
4.82 145.360 62.226
4.83 145.583 62.701
4.84 144.740 63.267
4.85 142.405 63.678
4.86 137.677 63.787
4.87 127.689 63.523
4.88 118.853 63.161
4.89 112.955 62.925
4.90 111.444 62.866
4.91 107.639 62.452
4.92 101.087 60.949
4.93 105.262 58.287
4.94 111.611 54.731
4.95 124.396 49.982
4.96 --undefined-- 45.267
4.97 --undefined-- 47.468
4.98 --undefined-- 49.969
4.99 --undefined-- 51.413
5.00 125.415 55.170
5.01 122.107 58.437
5.02 121.789 60.151
5.03 121.905 60.871
5.04 117.083 61.052
5.05 106.273 61.005
5.06 98.698 61.005
5.07 88.978 60.760
5.08 90.088 60.092
5.09 90.579 59.547
5.10 --undefined-- 59.044
5.11 --undefined-- 58.542
5.12 --undefined-- 58.089
5.13 --undefined-- 56.610
5.14 --undefined-- 54.244
5.15 --undefined-- 51.496
5.16 --undefined-- 48.426
5.17 --undefined-- 44.748
5.18 --undefined-- 41.031
5.19 --undefined-- 42.567
5.20 --undefined-- 50.449
5.21 --undefined-- 57.410
5.22 107.596 61.529
5.23 104.870 63.470
5.24 103.754 64.134
5.25 105.152 64.454
5.26 106.345 64.885
5.27 109.196 65.307
5.28 111.336 65.089
5.29 108.048 63.410
5.30 108.250 60.073
5.31 120.257 55.328
5.32 --undefined-- 49.492
5.33 --undefined-- 44.042
5.34 --undefined-- 44.453
5.35 --undefined-- 45.889
5.36 --undefined-- 46.138
5.37 --undefined-- 45.822
5.38 --undefined-- 50.208
5.39 160.863 57.847
5.40 153.848 62.689
5.41 141.192 65.011
5.42 137.802 65.763
5.43 135.074 65.794
5.44 131.361 65.563
5.45 127.380 65.351
5.46 126.401 65.240
5.47 127.982 64.998
5.48 127.925 64.635
5.49 124.369 64.374
5.50 102.836 64.259
5.51 103.317 63.687
5.52 88.320 62.100
5.53 85.048 60.014
5.54 --undefined-- 58.775
5.55 --undefined-- 57.925
5.56 --undefined-- 56.934
5.57 --undefined-- 55.595
5.58 109.030 53.759
5.59 103.063 50.619
5.60 --undefined-- 45.883
5.61 --undefined-- 41.925
5.62 --undefined-- 39.444
5.63 --undefined-- 38.133
5.64 --undefined-- 36.790
5.65 --undefined-- 35.182
5.66 --undefined-- 36.406
5.67 --undefined-- 39.044
5.68 --undefined-- 40.751
5.69 --undefined-- 41.181
5.70 --undefined-- 40.978
5.71 --undefined-- 41.248
5.72 --undefined-- 42.921
5.73 133.141 45.025
5.74 134.564 46.533
5.75 139.267 47.976
5.76 137.693 49.783
5.77 255.535 52.614
5.78 228.047 57.240
5.79 204.344 62.417
5.80 210.677 66.434
5.81 214.542 69.195
5.82 216.725 71.429
5.83 223.766 73.230
5.84 227.226 74.308
5.85 228.782 74.847
5.86 229.049 74.993
5.87 228.028 74.849
5.88 226.473 74.585
5.89 224.332 74.299
5.90 222.559 74.029
5.91 220.518 73.780
5.92 217.734 73.546
5.93 214.561 73.311
5.94 211.937 73.058
5.95 209.286 72.741
5.96 206.658 72.380
5.97 204.066 72.066
5.98 201.806 71.835
5.99 199.087 71.595
6.00 195.979 71.301
6.01 192.968 70.912
6.02 190.117 70.516
6.03 185.166 70.784
6.04 175.615 71.716
6.05 164.609 --undefined--
6.06 152.892 --undefined--
6.07 --undefined-- --undefined--
6.08 --undefined-- --undefined--
