Time Pitch Intensity
0.01 --undefined-- --undefined--
0.02 163.729 --undefined--
0.03 156.255 --undefined--
0.04 --undefined-- --undefined--
0.05 --undefined-- 64.853
0.06 --undefined-- 64.771
0.07 --undefined-- 60.741
0.08 187.104 60.331
0.09 189.174 64.724
0.10 184.525 67.849
0.11 176.708 69.403
0.12 174.667 69.284
0.13 173.709 67.880
0.14 171.668 66.816
0.15 168.850 66.767
0.16 167.928 66.919
0.17 167.700 67.143
0.18 167.666 67.440
0.19 168.181 67.676
0.20 169.101 67.782
0.21 170.054 67.628
0.22 170.114 66.924
0.23 169.582 65.454
0.24 171.448 63.252
0.25 174.688 60.144
0.26 177.120 55.543
0.27 --undefined-- 49.441
0.28 --undefined-- 43.755
0.29 --undefined-- 41.721
0.30 --undefined-- 43.775
0.31 --undefined-- 47.986
0.32 --undefined-- 59.013
0.33 --undefined-- 65.805
0.34 --undefined-- 68.036
0.35 --undefined-- 69.014
0.36 --undefined-- 73.825
0.37 229.509 77.218
0.38 232.318 77.777
0.39 232.864 76.506
0.40 235.569 75.336
0.41 236.791 75.051
0.42 236.797 74.917
0.43 235.349 74.690
0.44 231.709 74.808
0.45 221.514 75.516
0.46 212.661 75.895
0.47 204.802 75.079
0.48 193.559 72.890
0.49 --undefined-- 70.220
0.50 --undefined-- 68.465
0.51 --undefined-- 66.983
0.52 --undefined-- 65.625
0.53 --undefined-- 64.299
0.54 --undefined-- 61.420
0.55 --undefined-- 56.312
0.56 --undefined-- 50.104
0.57 --undefined-- 44.244
0.58 --undefined-- 39.160
0.59 --undefined-- 36.708
0.60 --undefined-- 36.602
0.61 --undefined-- 36.204
0.62 --undefined-- 35.403
0.63 --undefined-- 35.096
0.64 --undefined-- 34.817
0.65 --undefined-- 34.088
0.66 --undefined-- 33.534
0.67 --undefined-- 32.935
0.68 --undefined-- 33.709
0.69 --undefined-- 35.525
0.70 --undefined-- 36.430
0.71 --undefined-- 37.327
0.72 --undefined-- 37.674
0.73 --undefined-- 36.429
0.74 --undefined-- 35.455
0.75 --undefined-- 35.928
0.76 --undefined-- 36.258
0.77 --undefined-- 36.880
0.78 --undefined-- 37.701
0.79 --undefined-- 37.692
0.80 --undefined-- 36.527
0.81 --undefined-- 35.783
0.82 --undefined-- 36.367
0.83 --undefined-- 36.935
0.84 --undefined-- 37.390
0.85 --undefined-- 36.896
0.86 --undefined-- 35.498
0.87 --undefined-- 34.936
0.88 --undefined-- 34.690
0.89 --undefined-- 34.454
0.90 --undefined-- 34.812
0.91 --undefined-- 37.555
0.92 --undefined-- 44.246
0.93 --undefined-- 48.834
0.94 --undefined-- 49.491
0.95 --undefined-- 46.713
0.96 --undefined-- 43.703
0.97 --undefined-- 43.886
0.98 --undefined-- 44.410
0.99 --undefined-- 44.333
1.00 --undefined-- 44.562
1.01 --undefined-- 45.561
1.02 --undefined-- 46.676
1.03 --undefined-- 46.978
1.04 --undefined-- 46.911
1.05 --undefined-- 46.788
1.06 --undefined-- 46.424
1.07 --undefined-- 46.296
1.08 --undefined-- 46.977
1.09 --undefined-- 48.700
1.10 --undefined-- 49.773
1.11 --undefined-- 48.879
1.12 --undefined-- 46.670
1.13 --undefined-- 45.120
1.14 --undefined-- 43.914
1.15 --undefined-- 42.351
1.16 --undefined-- 41.109
1.17 --undefined-- 40.160
1.18 --undefined-- 39.035
1.19 --undefined-- 37.674
1.20 --undefined-- 36.337
1.21 --undefined-- 35.306
1.22 --undefined-- 35.939
1.23 --undefined-- 37.309
1.24 --undefined-- 37.501
1.25 --undefined-- 37.205
1.26 --undefined-- 37.009
1.27 --undefined-- 36.464
1.28 --undefined-- 37.290
1.29 --undefined-- 45.312
1.30 --undefined-- 55.631
1.31 --undefined-- 62.563
1.32 --undefined-- 68.709
1.33 --undefined-- 74.423
1.34 260.425 77.842
1.35 267.080 78.651
1.36 258.187 77.804
1.37 262.717 76.947
1.38 266.889 76.568
1.39 267.489 75.929
1.40 264.482 74.195
1.41 271.909 71.052
1.42 271.195 67.870
1.43 270.043 66.243
1.44 269.012 65.984
1.45 266.624 66.200
1.46 264.595 66.484
1.47 262.200 66.746
1.48 260.057 66.944
1.49 257.795 67.084
1.50 255.953 67.128
1.51 255.621 67.045
1.52 256.099 66.782
1.53 255.023 66.339
1.54 256.235 65.748
1.55 260.440 64.374
1.56 258.670 61.317
1.57 255.695 56.418
1.58 257.653 50.951
1.59 --undefined-- 48.595
1.60 --undefined-- 51.571
1.61 --undefined-- 56.100
1.62 --undefined-- 59.791
1.63 --undefined-- 62.207
1.64 --undefined-- 63.077
1.65 --undefined-- 62.571
1.66 --undefined-- 63.404
1.67 166.103 66.683
1.68 166.353 69.510
1.69 158.589 71.606
1.70 158.186 73.152
1.71 157.255 74.103
1.72 156.693 74.490
1.73 156.861 74.328
1.74 157.621 73.730
1.75 157.750 73.079
1.76 157.955 72.521
1.77 158.382 71.715
1.78 157.665 70.038
1.79 156.968 68.229
1.80 171.411 69.476
1.81 173.051 72.104
1.82 179.545 74.285
1.83 186.010 75.613
1.84 192.202 76.167
1.85 202.077 76.417
1.86 216.587 76.904
1.87 223.933 77.230
1.88 229.335 76.359
1.89 241.410 74.355
1.90 255.527 72.495
1.91 261.962 70.976
1.92 266.032 68.591
1.93 272.355 64.798
1.94 270.686 59.643
1.95 --undefined-- 53.932
1.96 --undefined-- 49.787
1.97 --undefined-- 46.641
1.98 --undefined-- 42.632
1.99 --undefined-- 39.473
2.00 --undefined-- 37.630
2.01 --undefined-- 36.112
2.02 --undefined-- 36.187
2.03 --undefined-- 37.645
2.04 --undefined-- 38.980
2.05 --undefined-- 39.338
2.06 --undefined-- 38.669
2.07 --undefined-- 37.780
2.08 --undefined-- 37.194
2.09 --undefined-- 36.795
2.10 --undefined-- 36.887
2.11 --undefined-- 37.649
2.12 --undefined-- 38.360
2.13 --undefined-- 37.824
2.14 --undefined-- 36.894
2.15 --undefined-- 36.533
2.16 --undefined-- 36.257
2.17 --undefined-- 36.331
2.18 --undefined-- 37.302
2.19 --undefined-- 38.654
2.20 --undefined-- 39.124
2.21 --undefined-- 39.416
2.22 --undefined-- 41.422
2.23 --undefined-- 43.608
2.24 --undefined-- 47.508
2.25 --undefined-- 59.419
2.26 --undefined-- 68.149
2.27 --undefined-- 72.806
2.28 147.307 74.572
2.29 143.722 74.615
2.30 142.737 73.902
2.31 141.879 73.239
2.32 141.249 72.862
2.33 140.843 72.668
2.34 139.648 71.926
2.35 138.510 69.899
2.36 142.636 67.571
2.37 141.218 66.570
2.38 141.529 66.306
2.39 142.374 66.226
2.40 142.407 66.077
2.41 142.155 65.882
2.42 142.353 65.986
2.43 143.514 66.709
2.44 144.842 68.231
2.45 146.038 70.917
2.46 151.155 74.210
2.47 151.054 76.219
2.48 148.628 76.531
2.49 145.109 76.341
2.50 141.374 76.553
2.51 136.758 76.810
2.52 133.729 76.805
2.53 129.865 76.389
2.54 128.055 75.286
2.55 125.573 73.423
2.56 --undefined-- 71.071
2.57 --undefined-- 68.024
2.58 --undefined-- 64.951
2.59 --undefined-- 60.996
2.60 --undefined-- 53.556
2.61 --undefined-- 43.194
2.62 --undefined-- 41.857
2.63 --undefined-- 49.805
2.64 --undefined-- 54.773
2.65 --undefined-- 55.238
2.66 --undefined-- 51.252
2.67 --undefined-- 43.727
2.68 --undefined-- 39.616
2.69 --undefined-- 38.391
2.70 --undefined-- 37.410
2.71 --undefined-- 37.413
2.72 --undefined-- 37.386
2.73 --undefined-- 36.267
2.74 --undefined-- 34.695
2.75 --undefined-- 34.030
2.76 --undefined-- 34.124
2.77 --undefined-- 34.222
2.78 --undefined-- 34.856
2.79 --undefined-- 35.641
2.80 --undefined-- 35.511
2.81 --undefined-- 34.551
2.82 --undefined-- 33.514
2.83 --undefined-- 33.843
2.84 --undefined-- 35.525
2.85 --undefined-- 35.497
2.86 --undefined-- 34.942
2.87 --undefined-- 36.173
2.88 --undefined-- 36.714
2.89 --undefined-- 37.705
2.90 --undefined-- 50.892
2.91 --undefined-- 64.275
2.92 --undefined-- 72.393
2.93 --undefined-- 76.561
2.94 246.391 77.666
2.95 243.847 76.648
2.96 249.643 74.658
2.97 255.611 71.905
2.98 259.459 67.328
2.99 --undefined-- 59.899
3.00 --undefined-- 51.683
3.01 --undefined-- 52.974
3.02 --undefined-- 53.312
3.03 --undefined-- 50.084
3.04 --undefined-- 50.346
3.05 --undefined-- 52.086
3.06 --undefined-- 49.644
3.07 --undefined-- 42.829
3.08 --undefined-- 36.349
3.09 --undefined-- 34.658
3.10 --undefined-- 42.953
3.11 --undefined-- 56.560
3.12 --undefined-- 65.040
3.13 --undefined-- 69.949
3.14 --undefined-- 73.686
3.15 249.089 76.356
3.16 246.623 76.765
3.17 238.685 75.380
3.18 233.523 73.936
3.19 230.610 73.049
3.20 228.805 71.878
3.21 228.266 69.962
3.22 228.891 67.541
3.23 230.782 65.999
3.24 233.075 66.041
3.25 235.005 66.646
3.26 236.028 67.223
3.27 237.069 67.569
3.28 238.575 67.653
3.29 239.156 67.483
3.30 238.533 67.073
3.31 237.601 66.450
3.32 235.659 65.646
3.33 233.439 64.647
3.34 229.929 63.569
3.35 224.985 62.528
3.36 217.118 61.205
3.37 206.175 59.215
3.38 191.607 57.439
3.39 183.194 56.682
3.40 174.652 55.887
3.41 165.467 55.372
3.42 158.541 56.210
3.43 157.533 58.143
3.44 155.888 60.375
3.45 147.613 62.542
3.46 148.011 64.210
3.47 142.131 65.200
3.48 143.603 65.789
3.49 138.380 66.109
3.50 132.608 65.932
3.51 126.713 65.551
3.52 123.080 65.727
3.53 123.996 65.798
3.54 --undefined-- 64.119
3.55 --undefined-- 60.310
3.56 --undefined-- 56.782
3.57 --undefined-- 54.943
3.58 --undefined-- 53.397
3.59 --undefined-- 51.520
3.60 --undefined-- 49.976
3.61 --undefined-- 48.770
3.62 --undefined-- 45.427
3.63 --undefined-- 42.618
3.64 --undefined-- 42.255
3.65 --undefined-- 42.410
3.66 --undefined-- 44.817
3.67 --undefined-- 45.381
3.68 --undefined-- 43.568
3.69 --undefined-- 40.806
3.70 --undefined-- 39.054
3.71 --undefined-- 39.365
3.72 --undefined-- 39.684
3.73 --undefined-- 39.235
3.74 --undefined-- 38.912
3.75 --undefined-- 38.354
3.76 --undefined-- 37.696
3.77 --undefined-- 37.821
3.78 --undefined-- 38.151
3.79 --undefined-- 38.109
3.80 --undefined-- 37.587
3.81 --undefined-- 37.096
3.82 --undefined-- 36.533
3.83 --undefined-- 34.935
3.84 --undefined-- 33.044
3.85 --undefined-- 34.072
3.86 --undefined-- 36.676
3.87 --undefined-- 38.282
3.88 --undefined-- 37.901
3.89 --undefined-- 37.557
3.90 --undefined-- 38.455
3.91 --undefined-- 38.271
3.92 --undefined-- 36.389
3.93 --undefined-- 35.198
3.94 --undefined-- 35.922
3.95 --undefined-- 37.156
3.96 --undefined-- 40.289
3.97 --undefined-- 44.231
3.98 --undefined-- 45.296
3.99 --undefined-- 43.015
4.00 --undefined-- 48.325
4.01 --undefined-- 62.847
4.02 --undefined-- 71.666
4.03 --undefined-- 75.649
4.04 239.261 75.737
4.05 237.046 72.897
4.06 231.574 67.630
4.07 230.080 59.971
4.08 --undefined-- 51.957
4.09 --undefined-- 46.180
4.10 --undefined-- 41.554
4.11 --undefined-- 39.134
4.12 --undefined-- 38.721
4.13 --undefined-- 39.515
4.14 --undefined-- 40.214
4.15 --undefined-- 50.886
4.16 --undefined-- 60.148
4.17 --undefined-- 65.226
4.18 --undefined-- 69.640
4.19 241.314 73.927
4.20 237.573 75.995
4.21 228.767 76.155
4.22 227.058 75.619
4.23 227.567 74.455
4.24 227.200 72.341
4.25 225.876 70.086
4.26 225.375 69.058
4.27 226.084 69.085
4.28 227.788 69.389
4.29 231.229 69.784
4.30 234.823 70.168
4.31 236.245 70.465
4.32 238.557 70.556
4.33 241.899 70.405
4.34 243.239 70.062
4.35 243.802 69.449
4.36 242.915 68.262
4.37 239.874 66.107
4.38 238.568 63.028
4.39 239.169 58.839
4.40 --undefined-- 53.171
4.41 --undefined-- 46.531
4.42 --undefined-- 50.543
4.43 --undefined-- 57.555
4.44 --undefined-- 60.586
4.45 --undefined-- 60.765
4.46 --undefined-- 60.253
4.47 --undefined-- 60.452
4.48 --undefined-- 61.138
4.49 --undefined-- 62.085
4.50 --undefined-- 62.123
4.51 --undefined-- 61.121
4.52 --undefined-- 63.435
4.53 --undefined-- 70.509
4.54 --undefined-- 75.485
4.55 --undefined-- 77.709
4.56 162.623 78.262
4.57 159.307 77.925
4.58 151.543 77.053
4.59 --undefined-- 76.361
4.60 --undefined-- 76.044
4.61 --undefined-- 75.073
4.62 --undefined-- 73.361
4.63 --undefined-- 72.247
4.64 --undefined-- 71.234
4.65 93.008 69.470
4.66 83.620 67.888
4.67 76.871 66.570
4.68 77.252 65.069
4.69 --undefined-- 63.620
4.70 --undefined-- 62.156
4.71 280.636 60.531
4.72 279.150 58.915
4.73 --undefined-- 55.583
4.74 --undefined-- 52.768
4.75 --undefined-- 52.033
4.76 --undefined-- 49.315
4.77 --undefined-- 48.877
4.78 --undefined-- 49.465
4.79 --undefined-- 47.398
4.80 --undefined-- 43.975
4.81 --undefined-- 42.806
4.82 --undefined-- 44.123
4.83 --undefined-- 44.730
4.84 --undefined-- 45.095
4.85 --undefined-- 45.579
4.86 --undefined-- 44.548
4.87 --undefined-- 42.383
4.88 --undefined-- 41.168
4.89 --undefined-- 41.414
4.90 --undefined-- 41.039
4.91 --undefined-- 39.566
4.92 --undefined-- 37.730
4.93 --undefined-- 35.916
4.94 --undefined-- 35.264
4.95 --undefined-- 36.002
4.96 --undefined-- 36.964
4.97 --undefined-- 37.822
4.98 --undefined-- 38.615
4.99 --undefined-- 38.755
5.00 --undefined-- 45.224
5.01 --undefined-- 54.169
5.02 --undefined-- 58.571
5.03 --undefined-- 59.095
5.04 --undefined-- 59.404
5.05 --undefined-- 64.571
5.06 --undefined-- 69.090
5.07 --undefined-- 70.581
5.08 --undefined-- 69.026
5.09 148.409 65.354
5.10 147.802 63.152
5.11 146.293 63.282
5.12 139.487 63.519
5.13 138.563 63.583
5.14 137.681 64.674
5.15 --undefined-- 68.889
5.16 --undefined-- 72.308
5.17 --undefined-- 73.119
5.18 --undefined-- 72.092
5.19 --undefined-- 70.582
5.20 --undefined-- 69.281
5.21 --undefined-- 67.841
5.22 --undefined-- 66.278
5.23 --undefined-- 64.510
5.24 --undefined-- 61.735
5.25 --undefined-- 59.117
5.26 --undefined-- 57.360
5.27 --undefined-- 53.434
5.28 --undefined-- 46.467
5.29 --undefined-- 44.663
5.30 --undefined-- 44.583
5.31 --undefined-- 41.308
5.32 --undefined-- 36.736
5.33 --undefined-- 35.377
5.34 --undefined-- 36.290
5.35 --undefined-- 35.593
5.36 --undefined-- 33.878
5.37 --undefined-- 33.539
5.38 --undefined-- 34.069
5.39 --undefined-- 34.525
5.40 --undefined-- 33.929
5.41 --undefined-- 33.451
5.42 --undefined-- 33.651
5.43 --undefined-- 34.729
5.44 --undefined-- 40.451
5.45 --undefined-- 55.871
5.46 --undefined-- 66.592
5.47 --undefined-- 73.005
5.48 --undefined-- 76.296
5.49 --undefined-- 77.397
5.50 225.657 77.035
5.51 224.727 75.766
5.52 225.581 73.869
5.53 230.366 71.016
5.54 235.367 66.619
5.55 231.770 60.323
5.56 --undefined-- 52.036
5.57 --undefined-- 44.375
5.58 --undefined-- 39.856
5.59 --undefined-- 37.321
5.60 --undefined-- 36.224
5.61 --undefined-- 36.242
5.62 --undefined-- 36.935
5.63 --undefined-- 37.696
5.64 --undefined-- 37.690
5.65 --undefined-- 36.925
5.66 --undefined-- 36.048
5.67 --undefined-- 34.818
5.68 --undefined-- 34.109
5.69 --undefined-- 34.182
5.70 --undefined-- 33.469
5.71 --undefined-- 32.885
5.72 --undefined-- 33.853
5.73 --undefined-- 34.499
5.74 --undefined-- 34.610
5.75 --undefined-- 38.084
5.76 --undefined-- 53.554
5.77 --undefined-- 63.937
5.78 --undefined-- 69.263
5.79 --undefined-- 71.028
5.80 --undefined-- 73.115
5.81 231.788 76.229
5.82 223.577 77.623
5.83 219.904 77.624
5.84 217.939 76.935
5.85 216.859 75.571
5.86 213.888 73.715
5.87 211.303 71.449
5.88 210.470 68.731
5.89 209.720 65.662
5.90 208.478 63.001
5.91 209.597 61.869
5.92 210.426 61.642
5.93 210.336 61.854
5.94 210.346 62.593
5.95 210.413 63.497
5.96 211.173 64.263
5.97 212.678 64.905
5.98 214.975 65.587
5.99 216.415 66.202
6.00 216.602 66.438
6.01 217.018 66.252
6.02 216.335 65.654
6.03 214.750 64.639
6.04 212.840 63.481
6.05 209.857 62.562
6.06 205.678 62.102
6.07 201.328 62.068
6.08 196.578 62.318
6.09 190.249 63.626
6.10 191.335 66.975
6.11 188.763 71.147
6.12 --undefined-- 74.502
6.13 --undefined-- 76.243
6.14 --undefined-- 76.299
6.15 --undefined-- 75.142
6.16 --undefined-- 73.252
6.17 --undefined-- 70.343
6.18 --undefined-- 65.875
6.19 --undefined-- 63.300
6.20 --undefined-- 63.183
6.21 --undefined-- 61.825
6.22 --undefined-- 60.620
6.23 --undefined-- 58.984
6.24 --undefined-- 57.061
6.25 --undefined-- 56.132
6.26 --undefined-- 55.373
6.27 --undefined-- 53.105
6.28 --undefined-- 49.727
6.29 --undefined-- 48.060
6.30 --undefined-- 46.235
6.31 --undefined-- 42.877
6.32 --undefined-- 39.386
6.33 --undefined-- 36.847
6.34 --undefined-- 36.685
6.35 --undefined-- 37.422
6.36 --undefined-- 37.913
6.37 --undefined-- 37.348
6.38 --undefined-- 35.884
6.39 --undefined-- 34.634
6.40 --undefined-- 34.566
6.41 --undefined-- 35.063
6.42 --undefined-- 34.875
6.43 --undefined-- 34.551
6.44 --undefined-- 35.075
6.45 --undefined-- 36.373
6.46 --undefined-- 36.813
6.47 --undefined-- 35.918
6.48 --undefined-- 34.638
6.49 --undefined-- 33.909
6.50 --undefined-- 33.477
6.51 --undefined-- 33.846
6.52 --undefined-- 34.504
6.53 --undefined-- 34.426
6.54 --undefined-- 33.883
6.55 --undefined-- 33.128
6.56 --undefined-- 32.428
6.57 --undefined-- 32.615
6.58 --undefined-- 40.730
6.59 --undefined-- 51.176
6.60 --undefined-- 58.044
6.61 --undefined-- 62.142
6.62 272.929 65.826
6.63 248.989 69.689
6.64 251.542 72.828
6.65 257.000 74.922
6.66 262.700 76.288
6.67 267.942 77.065
6.68 273.911 77.210
6.69 277.985 76.682
6.70 280.326 76.402
6.71 279.950 77.612
6.72 275.849 79.477
6.73 269.349 80.544
6.74 262.521 80.547
6.75 256.683 79.772
6.76 250.986 78.632
6.77 246.391 77.291
6.78 242.365 75.430
6.79 238.641 72.249
6.80 237.213 66.910
6.81 236.495 59.789
6.82 236.401 54.636
6.83 --undefined-- 50.527
6.84 --undefined-- 44.569
6.85 --undefined-- 39.754
6.86 --undefined-- 46.853
6.87 --undefined-- 58.330
6.88 --undefined-- 65.086
6.89 --undefined-- 69.844
6.90 290.278 74.329
6.91 273.512 77.183
6.92 268.240 77.771
6.93 266.180 77.039
6.94 268.824 76.580
6.95 271.079 76.581
6.96 274.818 76.738
6.97 271.006 76.391
6.98 266.146 74.102
6.99 260.166 69.303
7.00 244.943 64.860
7.01 228.407 64.345
7.02 213.983 64.773
7.03 189.383 65.312
7.04 182.332 65.490
7.05 174.365 64.549
7.06 162.522 63.247
7.07 154.867 63.018
7.08 149.981 63.568
7.09 143.889 66.699
7.10 143.630 71.694
7.11 144.499 73.927
7.12 147.117 73.736
7.13 153.725 73.731
7.14 153.719 74.299
7.15 146.771 74.369
7.16 142.592 74.447
7.17 142.658 74.781
7.18 141.223 74.535
7.19 149.185 73.570
7.20 149.875 72.693
7.21 149.554 72.001
7.22 148.048 70.694
7.23 146.833 68.604
7.24 147.246 66.980
7.25 147.485 66.855
7.26 147.545 67.213
7.27 149.884 67.559
7.28 152.364 67.846
7.29 154.051 68.080
7.30 154.682 68.606
7.31 155.370 70.269
7.32 157.876 72.649
7.33 155.857 --undefined--
7.34 154.261 --undefined--
7.35 --undefined-- --undefined--
7.36 --undefined-- --undefined--
