Time Pitch Intensity
0.01 --undefined-- --undefined--
0.02 162.830 --undefined--
0.03 161.059 --undefined--
0.04 156.536 --undefined--
0.05 150.326 72.781
0.06 144.464 71.744
0.07 139.006 70.677
0.08 134.079 69.451
0.09 130.403 67.656
0.10 127.836 65.712
0.11 127.014 64.132
0.12 127.082 63.241
0.13 128.299 63.321
0.14 131.535 64.575
0.15 135.201 65.917
0.16 138.788 66.299
0.17 139.405 65.277
0.18 138.458 62.595
0.19 --undefined-- 57.874
0.20 --undefined-- 52.553
0.21 --undefined-- 51.577
0.22 --undefined-- 51.401
0.23 130.257 52.423
0.24 130.768 54.299
0.25 128.449 58.158
0.26 --undefined-- 64.377
0.27 --undefined-- 68.345
0.28 --undefined-- 69.551
0.29 --undefined-- 68.575
0.30 107.278 66.534
0.31 104.124 65.043
0.32 102.834 64.160
0.33 102.313 63.412
0.34 102.595 62.902
0.35 102.621 62.676
0.36 102.926 62.987
0.37 103.445 63.334
0.38 103.064 63.143
0.39 101.414 62.544
0.40 100.119 61.247
0.41 --undefined-- 58.132
0.42 --undefined-- 52.526
0.43 --undefined-- 46.920
0.44 --undefined-- 44.717
0.45 --undefined-- 44.060
0.46 --undefined-- 44.153
0.47 --undefined-- 45.042
0.48 --undefined-- 47.934
0.49 --undefined-- 50.299
0.50 --undefined-- 50.341
0.51 --undefined-- 49.846
0.52 --undefined-- 50.989
0.53 --undefined-- 52.568
0.54 --undefined-- 54.078
0.55 --undefined-- 55.099
0.56 --undefined-- 55.075
0.57 --undefined-- 53.733
0.58 --undefined-- 53.568
0.59 --undefined-- 56.781
0.60 117.614 59.253
0.61 117.186 60.225
0.62 114.113 60.240
0.63 113.894 58.998
0.64 --undefined-- 55.447
0.65 --undefined-- 49.295
0.66 --undefined-- 45.171
0.67 --undefined-- 45.036
0.68 --undefined-- 47.674
0.69 --undefined-- 52.922
0.70 --undefined-- 58.211
0.71 --undefined-- 65.172
0.72 --undefined-- 70.338
0.73 171.499 72.023
0.74 167.862 70.955
0.75 167.493 69.087
0.76 168.794 67.943
0.77 169.468 67.423
0.78 169.974 66.823
0.79 168.770 65.100
0.80 164.818 61.551
0.81 76.222 56.446
0.82 76.088 52.551
0.83 76.002 51.035
0.84 --undefined-- 50.779
0.85 --undefined-- 54.083
0.86 144.482 59.444
0.87 137.339 63.192
0.88 131.041 65.166
0.89 125.437 66.183
0.90 120.919 66.936
0.91 120.081 67.347
0.92 119.941 66.640
0.93 119.330 64.034
0.94 --undefined-- 58.914
0.95 --undefined-- 51.949
0.96 --undefined-- 53.517
0.97 --undefined-- 60.721
0.98 --undefined-- 65.863
0.99 137.614 68.645
1.00 140.568 69.742
1.01 142.945 69.754
1.02 144.640 69.284
1.03 147.930 68.718
1.04 149.481 68.082
1.05 148.068 67.542
1.06 140.444 66.492
1.07 141.055 63.927
1.08 140.929 59.608
1.09 137.963 54.626
1.10 --undefined-- 50.880
1.11 --undefined-- 48.925
1.12 --undefined-- 47.463
1.13 --undefined-- 46.773
1.14 --undefined-- 48.483
1.15 --undefined-- 54.826
1.16 --undefined-- 59.386
1.17 --undefined-- 60.519
1.18 --undefined-- 62.551
1.19 195.418 67.211
1.20 192.585 69.759
1.21 192.920 69.900
1.22 194.158 68.546
1.23 196.476 67.001
1.24 200.364 66.424
1.25 203.742 66.848
1.26 204.999 67.238
1.27 202.971 66.093
1.28 198.510 62.319
1.29 --undefined-- 55.706
1.30 --undefined-- 49.695
1.31 --undefined-- 55.304
1.32 --undefined-- 62.603
1.33 --undefined-- 66.421
1.34 --undefined-- 66.893
1.35 --undefined-- 65.229
1.36 --undefined-- 67.910
1.37 --undefined-- 71.625
1.38 --undefined-- 72.746
1.39 117.000 71.859
1.40 111.453 69.895
1.41 107.241 67.505
1.42 105.756 65.404
1.43 105.931 63.604
1.44 106.178 61.870
1.45 105.589 59.991
1.46 106.486 58.366
1.47 108.349 57.862
1.48 --undefined-- 57.521
1.49 --undefined-- 56.570
1.50 --undefined-- 54.455
1.51 --undefined-- 51.582
1.52 --undefined-- 53.704
1.53 --undefined-- 57.344
1.54 --undefined-- 61.011
1.55 --undefined-- 65.972
1.56 119.751 69.256
1.57 118.776 69.785
1.58 115.573 68.172
1.59 115.818 66.176
1.60 117.020 65.467
1.61 118.511 65.676
1.62 120.056 66.134
1.63 121.544 66.505
1.64 124.122 66.620
1.65 128.296 67.047
1.66 131.355 67.451
1.67 133.562 67.008
1.68 134.204 65.440
1.69 135.467 63.041
1.70 137.043 62.549
1.71 --undefined-- 66.168
1.72 145.335 69.209
1.73 147.769 70.393
1.74 150.776 70.137
1.75 153.075 69.507
1.76 153.662 69.271
1.77 153.401 69.043
1.78 153.065 69.146
1.79 152.532 70.493
1.80 152.204 72.123
1.81 152.079 72.777
1.82 150.345 72.187
1.83 146.714 70.737
1.84 144.054 69.651
1.85 141.489 69.273
1.86 138.354 68.379
1.87 133.987 66.207
1.88 --undefined-- 62.294
1.89 --undefined-- 56.621
1.90 --undefined-- 50.627
1.91 --undefined-- 47.103
1.92 --undefined-- 49.156
1.93 --undefined-- 51.635
1.94 --undefined-- 51.198
1.95 --undefined-- 50.174
1.96 --undefined-- 53.339
1.97 --undefined-- 56.969
1.98 115.088 58.173
1.99 111.186 56.713
2.00 108.012 53.269
2.01 --undefined-- 49.753
2.02 --undefined-- 55.181
2.03 --undefined-- 61.530
2.04 --undefined-- 63.437
2.05 --undefined-- 62.299
2.06 --undefined-- 63.568
2.07 --undefined-- 66.733
2.08 112.355 68.523
2.09 111.136 68.884
2.10 109.343 68.332
2.11 108.283 67.205
2.12 107.680 65.397
2.13 107.119 62.952
2.14 107.358 60.262
2.15 107.557 57.398
2.16 102.381 54.705
2.17 102.415 52.044
2.18 --undefined-- 48.594
2.19 --undefined-- 44.904
2.20 --undefined-- 46.325
2.21 --undefined-- 52.352
2.22 --undefined-- 56.694
2.23 --undefined-- 59.033
2.24 105.927 60.036
2.25 105.869 59.246
2.26 --undefined-- 55.871
2.27 --undefined-- 50.306
2.28 --undefined-- 46.987
2.29 --undefined-- 47.439
2.30 --undefined-- 47.573
2.31 --undefined-- 46.128
2.32 --undefined-- 43.869
2.33 --undefined-- 42.589
2.34 --undefined-- 43.052
2.35 --undefined-- 46.255
2.36 --undefined-- 50.576
2.37 --undefined-- 54.055
2.38 --undefined-- 56.571
2.39 --undefined-- 57.519
2.40 --undefined-- 55.803
2.41 --undefined-- 52.123
2.42 --undefined-- 49.494
2.43 --undefined-- 49.064
2.44 --undefined-- 48.772
2.45 --undefined-- 48.699
2.46 --undefined-- 48.969
2.47 --undefined-- 47.469
2.48 --undefined-- 45.861
2.49 --undefined-- 48.386
2.50 --undefined-- 51.759
2.51 --undefined-- 57.066
2.52 --undefined-- 61.454
2.53 --undefined-- 63.231
2.54 --undefined-- 62.402
2.55 --undefined-- 59.395
2.56 --undefined-- 56.793
2.57 117.378 56.997
2.58 117.965 57.897
2.59 117.750 58.668
2.60 111.605 58.832
2.61 111.975 58.289
2.62 112.830 57.495
2.63 112.860 56.956
2.64 114.977 55.991
2.65 --undefined-- 54.146
2.66 --undefined-- 52.055
2.67 --undefined-- 51.475
2.68 --undefined-- 52.334
2.69 --undefined-- 53.655
2.70 --undefined-- 55.128
2.71 --undefined-- 57.594
2.72 --undefined-- 62.433
2.73 --undefined-- 65.691
2.74 --undefined-- 66.010
2.75 105.867 64.207
2.76 105.988 62.160
2.77 106.291 60.417
2.78 106.791 58.278
2.79 105.031 56.048
2.80 104.161 54.272
2.81 103.731 52.579
2.82 --undefined-- 49.622
2.83 --undefined-- 45.955
2.84 --undefined-- 45.585
2.85 --undefined-- 46.815
2.86 --undefined-- 47.751
2.87 --undefined-- 50.012
2.88 --undefined-- 56.412
2.89 --undefined-- 62.792
2.90 --undefined-- 65.929
2.91 --undefined-- 66.422
2.92 116.758 65.770
2.93 118.379 64.752
2.94 118.796 63.476
2.95 119.602 62.113
2.96 123.281 61.443
2.97 124.892 61.790
2.98 131.359 63.730
2.99 133.685 66.239
3.00 133.708 67.653
3.01 134.345 68.091
3.02 135.131 68.075
3.03 135.836 67.980
3.04 136.932 67.862
3.05 137.514 67.329
3.06 137.037 66.158
3.07 136.286 64.174
3.08 135.623 60.680
3.09 --undefined-- 54.947
3.10 --undefined-- 48.096
3.11 --undefined-- 45.116
3.12 --undefined-- 44.816
3.13 --undefined-- 50.544
3.14 --undefined-- 60.179
3.15 --undefined-- 65.012
3.16 --undefined-- 65.502
3.17 --undefined-- 65.127
3.18 --undefined-- 66.991
3.19 --undefined-- 67.155
3.20 --undefined-- 64.781
3.21 --undefined-- 60.240
3.22 161.920 56.252
3.23 165.044 55.382
3.24 165.522 54.740
3.25 163.848 53.122
3.26 --undefined-- 51.235
3.27 --undefined-- 51.268
3.28 --undefined-- 53.467
3.29 --undefined-- 57.624
3.30 --undefined-- 61.311
3.31 --undefined-- 65.442
3.32 --undefined-- 69.527
3.33 --undefined-- 70.973
3.34 119.383 69.510
3.35 120.260 66.866
3.36 120.177 65.843
3.37 119.980 65.758
3.38 119.891 65.245
3.39 119.919 64.059
3.40 120.789 62.530
3.41 121.562 60.981
3.42 120.177 59.876
3.43 120.011 59.358
3.44 120.294 59.702
3.45 120.531 60.006
3.46 121.333 59.635
3.47 124.001 59.394
3.48 127.496 60.212
3.49 132.071 61.683
3.50 136.510 63.175
3.51 138.942 65.014
3.52 145.799 67.432
3.53 149.086 69.409
3.54 149.219 70.428
3.55 148.803 71.256
3.56 148.276 72.587
3.57 150.927 73.404
3.58 147.705 72.940
3.59 139.150 71.884
3.60 137.094 70.469
3.61 129.265 67.732
3.62 --undefined-- 63.487
3.63 --undefined-- 58.048
3.64 147.049 53.127
3.65 --undefined-- 50.318
3.66 --undefined-- 48.383
3.67 --undefined-- 49.105
3.68 --undefined-- 56.297
3.69 --undefined-- 64.718
3.70 --undefined-- 70.328
3.71 --undefined-- 72.386
3.72 --undefined-- 71.444
3.73 106.217 69.015
3.74 107.404 67.539
3.75 109.967 67.898
3.76 113.847 69.267
3.77 115.136 70.273
3.78 117.292 70.516
3.79 118.766 71.153
3.80 118.898 71.504
3.81 118.971 70.600
3.82 118.191 68.982
3.83 118.012 67.576
3.84 118.278 66.053
3.85 113.696 63.180
3.86 --undefined-- 58.072
3.87 --undefined-- 54.057
3.88 --undefined-- 58.381
3.89 --undefined-- 61.731
3.90 --undefined-- 61.977
3.91 --undefined-- 59.145
3.92 --undefined-- 55.231
3.93 --undefined-- 55.302
3.94 --undefined-- 57.387
3.95 --undefined-- 59.375
3.96 --undefined-- 64.235
3.97 --undefined-- 69.025
3.98 --undefined-- 70.987
3.99 --undefined-- 70.117
4.00 --undefined-- 67.227
4.01 --undefined-- 63.984
4.02 --undefined-- 61.414
4.03 --undefined-- 58.264
4.04 --undefined-- 53.409
4.05 --undefined-- 48.360
4.06 --undefined-- 46.707
4.07 --undefined-- 46.215
4.08 --undefined-- 46.134
4.09 --undefined-- 47.533
4.10 --undefined-- 53.230
4.11 --undefined-- 59.241
4.12 --undefined-- 62.648
4.13 139.702 65.037
4.14 139.043 67.328
4.15 136.299 68.874
4.16 132.627 69.405
4.17 128.838 68.915
4.18 122.921 67.870
4.19 118.452 66.882
4.20 117.767 66.098
4.21 116.849 65.389
4.22 116.184 64.354
4.23 115.213 63.162
4.24 114.206 62.414
4.25 114.406 62.240
4.26 114.686 61.947
4.27 108.637 61.374
4.28 107.411 60.862
4.29 108.935 60.919
4.30 110.297 62.481
4.31 106.026 64.893
4.32 103.810 67.005
4.33 --undefined-- 68.676
4.34 --undefined-- 69.417
4.35 --undefined-- 68.557
4.36 --undefined-- 65.916
4.37 --undefined-- 61.757
4.38 --undefined-- 56.826
4.39 --undefined-- 51.628
4.40 --undefined-- 47.346
4.41 --undefined-- 44.718
4.42 --undefined-- 42.340
4.43 --undefined-- 41.535
4.44 --undefined-- 42.047
4.45 --undefined-- 42.886
4.46 --undefined-- 43.929
4.47 --undefined-- 44.977
4.48 --undefined-- 47.339
4.49 --undefined-- 51.626
4.50 --undefined-- 54.725
4.51 --undefined-- 55.631
4.52 --undefined-- 58.181
4.53 --undefined-- 63.715
4.54 --undefined-- 67.357
4.55 120.448 68.258
4.56 116.715 67.208
4.57 115.238 65.635
4.58 113.940 64.235
4.59 112.926 63.459
4.60 113.559 64.139
4.61 116.164 65.367
4.62 118.857 66.319
4.63 121.133 66.754
4.64 122.297 66.551
4.65 122.812 65.635
4.66 121.886 63.597
4.67 --undefined-- 59.774
4.68 --undefined-- 53.720
4.69 --undefined-- 50.028
4.70 --undefined-- 52.228
4.71 --undefined-- 54.075
4.72 --undefined-- 55.018
4.73 --undefined-- 55.295
4.74 --undefined-- 58.155
4.75 --undefined-- 61.613
4.76 112.340 62.561
4.77 109.229 61.466
4.78 106.547 60.057
4.79 106.384 58.967
4.80 105.740 58.054
4.81 105.812 58.306
4.82 106.453 59.713
4.83 106.851 61.370
4.84 108.819 62.283
4.85 109.998 62.167
4.86 110.184 61.720
4.87 110.296 60.862
4.88 107.212 58.647
4.89 104.938 57.437
4.90 --undefined-- 63.045
4.91 --undefined-- 65.823
4.92 --undefined-- 64.414
4.93 --undefined-- 61.079
4.94 --undefined-- 64.707
4.95 --undefined-- 68.477
4.96 --undefined-- 68.851
4.97 --undefined-- 66.597
4.98 --undefined-- 64.146
4.99 --undefined-- 62.704
5.00 --undefined-- --undefined--
5.01 --undefined-- --undefined--
5.02 --undefined-- --undefined--
5.03 --undefined-- --undefined--
