Time Pitch Intensity
0.01 --undefined-- --undefined--
0.02 183.687 --undefined--
0.03 184.748 --undefined--
0.04 183.816 --undefined--
0.05 171.403 68.333
0.06 --undefined-- 60.279
0.07 --undefined-- 55.529
0.08 --undefined-- 53.466
0.09 --undefined-- 50.809
0.10 --undefined-- 46.923
0.11 --undefined-- 42.247
0.12 --undefined-- 48.284
0.13 --undefined-- 57.234
0.14 --undefined-- 61.582
0.15 --undefined-- 61.969
0.16 180.372 61.596
0.17 184.035 64.891
0.18 189.086 67.414
0.19 190.549 68.351
0.20 190.404 68.931
0.21 189.594 69.894
0.22 188.555 71.092
0.23 187.518 72.300
0.24 187.760 72.987
0.25 186.627 72.682
0.26 184.406 71.171
0.27 179.196 68.614
0.28 177.757 66.685
0.29 177.826 66.742
0.30 176.496 67.372
0.31 174.974 67.943
0.32 174.372 68.476
0.33 174.294 68.839
0.34 173.374 68.815
0.35 171.855 68.402
0.36 169.992 67.739
0.37 166.866 66.291
0.38 161.589 63.150
0.39 152.273 58.038
0.40 --undefined-- 51.787
0.41 --undefined-- 46.175
0.42 --undefined-- 41.425
0.43 --undefined-- 38.233
0.44 --undefined-- 52.878
0.45 --undefined-- 64.452
0.46 --undefined-- 71.006
0.47 --undefined-- 74.052
0.48 129.805 74.855
0.49 127.108 74.842
0.50 126.825 74.492
0.51 128.335 73.482
0.52 131.430 72.075
0.53 133.312 70.642
0.54 135.990 68.589
0.55 139.979 65.744
0.56 143.630 62.565
0.57 150.950 60.114
0.58 156.426 61.459
0.59 162.877 65.116
0.60 168.261 67.928
0.61 175.247 69.444
0.62 180.647 69.794
0.63 184.685 69.195
0.64 189.005 68.141
0.65 192.549 67.300
0.66 193.641 66.800
0.67 191.684 65.786
0.68 188.542 63.729
0.69 183.497 60.617
0.70 176.353 56.511
0.71 --undefined-- 51.819
0.72 --undefined-- 47.067
0.73 --undefined-- 42.793
0.74 --undefined-- 39.545
0.75 --undefined-- 37.709
0.76 --undefined-- 36.355
0.77 --undefined-- 34.741
0.78 --undefined-- 33.921
0.79 --undefined-- 33.711
0.80 --undefined-- 33.292
0.81 --undefined-- 32.417
0.82 --undefined-- 34.277
0.83 --undefined-- 47.931
0.84 --undefined-- 59.207
0.85 201.055 66.638
0.86 193.227 71.666
0.87 191.740 75.313
0.88 193.140 77.329
0.89 194.525 77.278
0.90 195.067 74.953
0.91 190.033 70.152
0.92 --undefined-- 62.729
0.93 --undefined-- 56.751
0.94 --undefined-- 55.363
0.95 --undefined-- 54.074
0.96 --undefined-- 52.154
0.97 --undefined-- 49.622
0.98 --undefined-- 46.301
0.99 --undefined-- 42.042
1.00 --undefined-- 39.741
1.01 --undefined-- 44.035
1.02 --undefined-- 48.761
1.03 --undefined-- 56.207
1.04 --undefined-- 63.760
1.05 --undefined-- 69.094
1.06 --undefined-- 72.163
1.07 --undefined-- 73.070
1.08 --undefined-- 71.763
1.09 --undefined-- 67.938
1.10 --undefined-- 61.196
1.11 --undefined-- 51.594
1.12 --undefined-- 44.766
1.13 --undefined-- 43.202
1.14 --undefined-- 42.149
1.15 --undefined-- 40.354
1.16 --undefined-- 37.140
1.17 --undefined-- 32.796
1.18 --undefined-- 30.323
1.19 --undefined-- 31.002
1.20 --undefined-- 32.654
1.21 --undefined-- 33.621
1.22 --undefined-- 34.219
1.23 --undefined-- 35.371
1.24 --undefined-- 36.632
1.25 --undefined-- 36.982
1.26 --undefined-- 36.433
1.27 --undefined-- 35.138
1.28 --undefined-- 33.677
1.29 --undefined-- 31.712
1.30 --undefined-- 30.686
1.31 --undefined-- 37.651
1.32 --undefined-- 47.150
1.33 --undefined-- 55.472
1.34 --undefined-- 63.303
1.35 131.862 69.302
1.36 131.962 72.874
1.37 129.156 74.343
1.38 124.216 74.811
1.39 122.111 74.990
1.40 122.161 75.135
1.41 122.973 75.470
1.42 124.969 75.430
1.43 126.305 74.813
1.44 127.656 73.892
1.45 128.710 72.711
1.46 129.002 71.432
1.47 128.952 70.438
1.48 130.128 69.740
1.49 130.766 69.110
1.50 132.212 68.333
1.51 135.430 67.437
1.52 140.633 66.505
1.53 145.042 65.557
1.54 147.158 64.681
1.55 148.463 64.069
1.56 149.053 63.665
1.57 148.315 63.051
1.58 145.934 61.901
1.59 136.565 59.969
1.60 130.502 57.468
1.61 --undefined-- 55.348
1.62 --undefined-- 53.756
1.63 --undefined-- 51.888
1.64 --undefined-- 50.573
1.65 --undefined-- 49.939
1.66 --undefined-- 49.618
1.67 --undefined-- 50.073
1.68 --undefined-- 49.704
1.69 --undefined-- 48.225
1.70 --undefined-- 47.994
1.71 --undefined-- 48.912
1.72 --undefined-- 49.533
1.73 --undefined-- 51.272
1.74 129.473 55.629
1.75 129.634 59.847
1.76 130.994 62.438
1.77 133.078 63.626
1.78 137.975 64.189
1.79 146.639 64.440
1.80 149.063 63.830
1.81 152.315 62.111
1.82 151.887 59.497
1.83 151.338 56.904
1.84 --undefined-- 54.922
1.85 --undefined-- 55.955
1.86 --undefined-- 62.280
1.87 --undefined-- 67.360
1.88 --undefined-- 69.797
1.89 --undefined-- 69.857
1.90 --undefined-- 68.437
1.91 --undefined-- 66.983
1.92 --undefined-- 65.163
1.93 --undefined-- 62.337
1.94 --undefined-- 58.642
1.95 --undefined-- 53.638
1.96 --undefined-- 48.658
1.97 --undefined-- 46.686
1.98 --undefined-- 46.449
1.99 --undefined-- 45.887
2.00 --undefined-- 46.201
2.01 --undefined-- 47.629
2.02 --undefined-- 47.462
2.03 --undefined-- 44.616
2.04 --undefined-- 41.729
2.05 --undefined-- 47.545
2.06 --undefined-- 53.331
2.07 --undefined-- 57.288
2.08 --undefined-- 59.505
2.09 --undefined-- 59.562
2.10 --undefined-- 57.702
2.11 --undefined-- 57.435
2.12 --undefined-- 62.785
2.13 189.943 68.434
2.14 191.985 72.360
2.15 186.488 74.208
2.16 181.807 73.731
2.17 178.351 71.019
2.18 --undefined-- 66.650
2.19 --undefined-- 61.291
2.20 --undefined-- 57.673
2.21 --undefined-- 57.933
2.22 --undefined-- 58.379
2.23 --undefined-- 58.566
2.24 --undefined-- 58.683
2.25 133.588 58.593
2.26 132.564 58.378
2.27 129.484 58.062
2.28 127.850 57.976
2.29 --undefined-- 58.435
2.30 --undefined-- 62.009
2.31 107.019 65.814
2.32 106.626 67.613
2.33 91.112 67.778
2.34 91.227 66.655
2.35 103.345 64.072
2.36 99.102 60.894
2.37 --undefined-- 58.442
2.38 --undefined-- 56.646
2.39 95.528 55.672
2.40 99.253 55.339
2.41 94.545 54.965
2.42 91.159 54.526
2.43 90.922 54.104
2.44 98.994 54.034
2.45 103.878 54.877
2.46 --undefined-- 56.317
2.47 --undefined-- 57.031
2.48 --undefined-- 56.488
2.49 --undefined-- 54.833
2.50 --undefined-- 52.251
2.51 --undefined-- 50.193
2.52 --undefined-- 49.187
2.53 --undefined-- 50.062
2.54 --undefined-- 50.711
2.55 --undefined-- 51.963
2.56 131.901 57.750
2.57 133.373 63.959
2.58 136.186 68.488
2.59 134.438 70.981
2.60 131.683 71.519
2.61 129.617 70.448
2.62 129.455 68.534
2.63 128.423 66.896
2.64 130.570 65.968
2.65 133.558 65.260
2.66 134.672 64.467
2.67 134.327 63.478
2.68 133.742 61.950
2.69 131.886 59.414
2.70 --undefined-- 55.155
2.71 --undefined-- 48.490
2.72 --undefined-- 39.411
2.73 --undefined-- 30.839
2.74 --undefined-- 31.155
2.75 --undefined-- 42.639
2.76 --undefined-- 55.155
2.77 --undefined-- 63.449
2.78 136.435 68.375
2.79 134.847 71.046
2.80 132.033 72.159
2.81 129.668 72.199
2.82 128.111 71.759
2.83 126.854 71.276
2.84 126.355 70.589
2.85 125.864 69.444
2.86 126.318 68.216
2.87 125.874 67.289
2.88 126.395 66.463
2.89 126.410 65.674
2.90 125.821 64.893
2.91 125.188 63.932
2.92 125.108 62.769
2.93 125.578 61.691
2.94 125.929 60.798
2.95 125.989 59.889
2.96 125.377 58.887
2.97 124.624 57.911
2.98 124.694 57.162
2.99 124.597 56.492
3.00 123.406 56.324
3.01 122.793 57.488
3.02 125.655 59.307
3.03 --undefined-- 60.844
3.04 --undefined-- 62.276
3.05 --undefined-- 63.831
3.06 --undefined-- 66.161
3.07 --undefined-- 69.006
3.08 --undefined-- 70.642
3.09 --undefined-- 72.071
3.10 111.209 74.017
3.11 111.439 75.007
3.12 109.579 74.597
3.13 109.756 73.697
3.14 110.129 73.132
3.15 109.893 72.358
3.16 108.151 70.454
3.17 106.204 66.961
3.18 107.288 62.662
3.19 110.225 60.238
3.20 113.458 59.835
3.21 116.178 59.449
3.22 118.270 58.143
3.23 117.897 55.563
3.24 --undefined-- 51.453
3.25 --undefined-- 46.539
3.26 --undefined-- 44.337
3.27 --undefined-- 44.974
3.28 --undefined-- 46.221
3.29 --undefined-- 51.236
3.30 --undefined-- 57.695
3.31 --undefined-- 62.783
3.32 --undefined-- 67.875
3.33 --undefined-- 71.937
3.34 135.075 74.728
3.35 137.310 76.553
3.36 137.754 77.046
3.37 137.028 76.106
3.38 --undefined-- 74.039
3.39 --undefined-- 71.604
3.40 --undefined-- 69.976
3.41 --undefined-- 68.173
3.42 --undefined-- 65.960
3.43 --undefined-- 62.868
3.44 --undefined-- 59.400
3.45 --undefined-- 60.553
3.46 78.892 61.478
3.47 --undefined-- 60.420
3.48 --undefined-- 56.541
3.49 --undefined-- 50.168
3.50 --undefined-- 47.804
3.51 --undefined-- 49.154
3.52 --undefined-- 51.599
3.53 --undefined-- 53.521
3.54 136.158 57.177
3.55 140.215 62.036
3.56 144.242 65.954
3.57 143.493 68.356
3.58 140.551 69.190
3.59 139.300 68.673
3.60 137.743 67.503
3.61 136.386 66.393
3.62 136.395 65.083
3.63 136.302 63.510
3.64 135.561 61.785
3.65 133.069 59.234
3.66 --undefined-- 54.848
3.67 --undefined-- 48.223
3.68 --undefined-- 44.903
3.69 --undefined-- 52.033
3.70 --undefined-- 59.300
3.71 127.937 64.065
3.72 127.556 66.664
3.73 125.388 67.913
3.74 123.019 68.159
3.75 123.422 67.539
3.76 121.349 66.825
3.77 121.154 66.361
3.78 121.268 65.860
3.79 121.218 65.353
3.80 121.312 64.910
3.81 121.457 64.598
3.82 121.849 64.449
3.83 122.340 64.520
3.84 123.346 64.706
3.85 123.477 64.772
3.86 123.124 64.573
3.87 122.075 63.931
3.88 121.486 63.126
3.89 122.086 61.701
3.90 --undefined-- 58.189
3.91 --undefined-- 51.539
3.92 --undefined-- 41.448
3.93 --undefined-- 31.570
3.94 --undefined-- 28.387
3.95 --undefined-- 36.451
3.96 --undefined-- 43.021
3.97 --undefined-- 45.493
3.98 --undefined-- 45.007
3.99 --undefined-- 45.369
4.00 --undefined-- 51.592
4.01 --undefined-- 58.765
4.02 --undefined-- 64.632
4.03 --undefined-- 67.385
4.04 --undefined-- 66.838
4.05 --undefined-- 64.043
4.06 --undefined-- 59.951
4.07 --undefined-- 56.902
4.08 --undefined-- 57.116
4.09 --undefined-- 57.428
4.10 --undefined-- 56.697
4.11 106.529 56.802
4.12 106.944 58.005
4.13 102.637 59.852
4.14 103.293 62.574
4.15 107.138 65.052
4.16 107.127 66.240
4.17 109.521 66.379
4.18 90.886 66.419
4.19 89.074 66.073
4.20 99.220 65.328
4.21 101.483 64.994
4.22 90.249 64.923
4.23 90.161 64.148
4.24 90.194 62.233
4.25 --undefined-- 59.216
4.26 --undefined-- 55.768
4.27 --undefined-- 53.221
4.28 --undefined-- 51.971
4.29 --undefined-- 52.425
4.30 --undefined-- 54.768
4.31 --undefined-- 57.920
4.32 141.926 61.737
4.33 142.456 66.865
4.34 148.051 71.770
4.35 147.695 75.083
4.36 146.440 76.612
4.37 146.101 77.165
4.38 145.694 77.401
4.39 145.992 77.569
4.40 146.304 77.736
4.41 147.481 77.961
4.42 148.026 78.242
4.43 148.172 78.569
4.44 148.586 78.848
4.45 149.678 78.947
4.46 150.565 78.778
4.47 151.926 78.229
4.48 152.596 77.265
4.49 153.436 75.880
4.50 152.079 73.629
4.51 150.918 69.761
4.52 147.327 64.465
4.53 148.176 60.525
4.54 146.819 58.776
4.55 145.341 57.579
4.56 143.696 56.718
4.57 144.203 55.680
4.58 --undefined-- 54.373
4.59 --undefined-- 53.883
4.60 --undefined-- 54.172
4.61 --undefined-- 54.489
4.62 --undefined-- 54.442
4.63 --undefined-- 53.977
4.64 --undefined-- 53.288
4.65 --undefined-- 52.620
4.66 --undefined-- 51.908
4.67 --undefined-- 50.835
4.68 --undefined-- 49.240
4.69 --undefined-- 47.374
4.70 --undefined-- 45.150
4.71 --undefined-- 42.198
4.72 --undefined-- 37.992
4.73 --undefined-- 32.378
4.74 --undefined-- 29.872
4.75 --undefined-- 33.879
4.76 --undefined-- 37.401
4.77 --undefined-- 39.466
4.78 --undefined-- 40.746
4.79 --undefined-- 42.023
4.80 --undefined-- 43.178
4.81 --undefined-- 43.784
4.82 --undefined-- 43.782
4.83 --undefined-- 43.695
4.84 --undefined-- 44.044
4.85 --undefined-- 44.516
4.86 --undefined-- 44.331
4.87 --undefined-- 43.796
4.88 --undefined-- 43.818
4.89 --undefined-- 43.969
4.90 --undefined-- 43.295
4.91 --undefined-- 41.926
4.92 --undefined-- 40.975
4.93 --undefined-- 40.674
4.94 --undefined-- 40.386
4.95 --undefined-- 39.660
4.96 --undefined-- 38.523
4.97 --undefined-- 37.152
4.98 --undefined-- 35.900
4.99 --undefined-- 34.534
5.00 --undefined-- 33.269
5.01 --undefined-- 33.620
5.02 --undefined-- 33.599
5.03 --undefined-- 31.717
5.04 --undefined-- 28.219
5.05 --undefined-- 24.172
5.06 --undefined-- 23.371
5.07 --undefined-- 31.731
5.08 --undefined-- 46.845
5.09 --undefined-- 56.088
5.10 --undefined-- 61.621
5.11 127.267 65.020
5.12 125.508 67.141
5.13 125.148 67.989
5.14 124.053 68.108
5.15 123.401 68.021
5.16 123.067 68.030
5.17 122.664 68.373
5.18 121.468 68.857
5.19 119.716 69.175
5.20 118.596 69.049
5.21 117.815 68.537
5.22 117.943 68.523
5.23 116.984 69.168
5.24 116.846 69.969
5.25 115.838 70.789
5.26 115.304 71.327
5.27 115.096 71.464
5.28 114.353 71.443
5.29 114.186 71.566
5.30 114.365 71.591
5.31 114.246 71.525
5.32 113.816 71.441
5.33 113.296 71.189
5.34 113.693 70.806
5.35 112.856 70.426
5.36 113.382 70.030
5.37 112.815 69.636
5.38 113.892 68.931
5.39 114.859 67.762
5.40 115.008 66.708
5.41 115.084 66.292
5.42 113.852 66.025
5.43 111.256 64.490
5.44 --undefined-- 60.700
5.45 --undefined-- 54.589
5.46 --undefined-- 47.710
5.47 --undefined-- 44.963
5.48 --undefined-- 45.786
5.49 --undefined-- 48.108
5.50 --undefined-- 52.140
5.51 124.731 57.305
5.52 127.529 62.675
5.53 133.396 66.918
5.54 133.812 69.116
5.55 131.107 69.335
5.56 129.081 68.343
5.57 130.294 67.350
5.58 131.652 66.610
5.59 134.567 65.244
5.60 135.357 62.693
5.61 132.432 58.802
5.62 --undefined-- 53.374
5.63 --undefined-- 47.279
5.64 --undefined-- 43.569
5.65 --undefined-- 47.662
5.66 --undefined-- 52.962
5.67 --undefined-- 56.950
5.68 --undefined-- 59.842
5.69 --undefined-- 61.120
5.70 --undefined-- 61.043
5.71 --undefined-- 59.390
5.72 --undefined-- 55.976
5.73 --undefined-- 52.430
5.74 --undefined-- 51.366
5.75 --undefined-- 53.578
5.76 --undefined-- 58.148
5.77 --undefined-- 62.244
5.78 --undefined-- 64.935
5.79 --undefined-- 65.173
5.80 --undefined-- 63.829
5.81 --undefined-- 63.059
5.82 --undefined-- 62.426
5.83 --undefined-- 61.352
5.84 --undefined-- 60.626
5.85 --undefined-- 60.037
5.86 --undefined-- 59.285
5.87 --undefined-- 58.725
5.88 --undefined-- 58.273
5.89 --undefined-- 57.742
5.90 --undefined-- 56.976
5.91 --undefined-- 56.247
5.92 --undefined-- 55.584
5.93 --undefined-- 54.665
5.94 --undefined-- 53.379
5.95 --undefined-- 52.140
5.96 --undefined-- 50.820
5.97 --undefined-- 49.098
5.98 --undefined-- 46.629
5.99 --undefined-- 43.027
6.00 --undefined-- 39.076
6.01 --undefined-- 35.476
6.02 --undefined-- 32.586
6.03 --undefined-- 36.758
6.04 --undefined-- 46.531
6.05 --undefined-- 52.236
6.06 --undefined-- 56.209
6.07 --undefined-- 61.027
6.08 123.675 64.901
6.09 123.234 67.102
6.10 121.168 --undefined--
6.11 120.039 --undefined--
6.12 --undefined-- --undefined--
6.13 --undefined-- --undefined--
