Time Pitch Intensity
0.01 --undefined-- --undefined--
0.02 102.792 --undefined--
0.03 104.393 --undefined--
0.04 105.066 --undefined--
0.05 105.317 73.365
0.06 105.486 73.498
0.07 104.830 73.685
0.08 105.035 73.815
0.09 104.081 73.301
0.10 97.541 72.027
0.11 94.773 71.031
0.12 93.845 70.882
0.13 95.515 70.983
0.14 97.611 71.041
0.15 101.202 71.196
0.16 104.769 71.395
0.17 106.939 71.522
0.18 109.648 71.557
0.19 113.065 71.621
0.20 119.018 71.973
0.21 128.300 72.663
0.22 132.807 73.598
0.23 136.276 74.624
0.24 139.010 75.412
0.25 141.275 75.813
0.26 143.219 75.986
0.27 144.646 75.946
0.28 144.989 75.417
0.29 143.462 73.922
0.30 141.088 70.992
0.31 134.734 66.407
0.32 127.257 60.219
0.33 128.296 55.296
0.34 --undefined-- 54.558
0.35 --undefined-- 61.838
0.36 --undefined-- 71.252
0.37 --undefined-- 76.752
0.38 152.463 78.766
0.39 139.932 78.141
0.40 131.947 76.079
0.41 108.593 73.898
0.42 105.321 72.315
0.43 105.475 70.995
0.44 113.306 70.941
0.45 111.893 71.940
0.46 111.199 72.442
0.47 109.009 72.139
0.48 109.550 71.814
0.49 112.855 72.264
0.50 115.347 72.881
0.51 117.452 73.173
0.52 120.911 73.232
0.53 124.039 73.095
0.54 123.041 72.316
0.55 119.673 70.437
0.56 116.138 67.431
0.57 109.259 63.888
0.58 115.255 63.956
0.59 121.019 68.954
0.60 116.660 72.535
0.61 107.578 73.775
0.62 105.844 73.574
0.63 103.496 72.683
0.64 96.807 71.287
0.65 112.575 70.568
0.66 118.487 70.891
0.67 124.503 71.247
0.68 133.727 71.810
0.69 141.156 72.883
0.70 149.829 74.141
0.71 159.162 75.323
0.72 169.580 76.220
0.73 178.353 76.556
0.74 183.631 76.385
0.75 182.207 75.714
0.76 178.514 73.706
0.77 169.303 69.461
0.78 161.473 63.303
0.79 175.144 58.276
0.80 172.984 55.338
0.81 --undefined-- 53.351
0.82 --undefined-- 52.948
0.83 --undefined-- 54.046
0.84 --undefined-- 55.358
0.85 --undefined-- 56.977
0.86 --undefined-- 62.734
0.87 --undefined-- 70.340
0.88 --undefined-- 74.961
0.89 114.888 76.739
0.90 105.969 76.721
0.91 100.594 76.294
0.92 99.829 76.069
0.93 99.990 75.904
0.94 100.809 75.837
0.95 102.036 75.724
0.96 104.953 75.575
0.97 109.593 75.961
0.98 117.131 77.080
0.99 121.031 78.286
1.00 125.460 79.045
1.01 127.716 79.088
1.02 129.560 78.444
1.03 136.344 78.343
1.04 149.167 79.666
1.05 150.295 80.916
1.06 150.960 81.371
1.07 154.274 81.260
1.08 153.059 80.997
1.09 152.850 80.722
1.10 151.238 80.372
1.11 150.589 79.923
1.12 150.214 79.521
1.13 149.220 78.966
1.14 148.749 77.679
1.15 152.093 75.231
1.16 149.585 71.371
1.17 148.955 65.785
1.18 151.384 58.462
1.19 152.462 52.385
1.20 --undefined-- 49.376
1.21 --undefined-- 47.380
1.22 --undefined-- 47.925
1.23 --undefined-- 48.793
1.24 --undefined-- 49.463
1.25 --undefined-- 50.343
1.26 --undefined-- 51.084
1.27 --undefined-- 52.064
1.28 --undefined-- 53.183
1.29 --undefined-- 53.647
1.30 --undefined-- 53.598
1.31 --undefined-- 54.208
1.32 --undefined-- 55.123
1.33 --undefined-- 54.986
1.34 --undefined-- 54.214
1.35 --undefined-- 54.125
1.36 --undefined-- 54.242
1.37 --undefined-- 54.335
1.38 --undefined-- 54.106
1.39 --undefined-- 53.140
1.40 --undefined-- 51.993
1.41 --undefined-- 50.748
1.42 --undefined-- 49.160
1.43 --undefined-- 46.776
1.44 --undefined-- 44.321
1.45 --undefined-- 41.669
1.46 --undefined-- 40.791
1.47 --undefined-- 49.382
1.48 --undefined-- 56.677
1.49 --undefined-- 62.805
1.50 --undefined-- 67.476
1.51 --undefined-- 70.465
1.52 --undefined-- 73.530
1.53 123.990 76.196
1.54 120.586 77.511
1.55 116.532 77.914
1.56 114.619 78.104
1.57 113.172 78.226
1.58 110.916 78.092
1.59 114.067 77.912
1.60 114.121 77.847
1.61 114.303 77.583
1.62 112.295 76.505
1.63 110.688 74.049
1.64 106.415 70.261
1.65 104.193 65.632
1.66 104.469 60.540
1.67 111.813 56.548
1.68 --undefined-- 59.942
1.69 --undefined-- 69.144
1.70 --undefined-- 75.383
1.71 153.412 78.310
1.72 142.985 78.767
1.73 134.583 77.882
1.74 128.851 75.882
1.75 123.204 71.844
1.76 125.748 65.576
1.77 --undefined-- 58.908
1.78 --undefined-- 54.504
1.79 --undefined-- 51.975
1.80 --undefined-- 48.743
1.81 --undefined-- 45.311
1.82 --undefined-- 45.475
1.83 --undefined-- 52.307
1.84 --undefined-- 63.514
1.85 --undefined-- 72.780
1.86 217.177 78.259
1.87 214.611 80.569
1.88 214.477 80.801
1.89 217.566 80.276
1.90 220.473 79.883
1.91 220.056 79.772
1.92 221.009 79.428
1.93 222.123 78.459
1.94 219.521 77.586
1.95 218.316 77.532
1.96 214.077 77.677
1.97 207.775 77.620
1.98 197.944 77.273
1.99 184.645 76.781
2.00 173.328 76.743
2.01 164.687 77.787
2.02 143.750 78.980
2.03 132.408 79.128
2.04 122.254 78.565
2.05 115.795 77.793
2.06 108.955 77.071
2.07 104.665 76.341
2.08 101.811 75.162
2.09 97.659 73.471
2.10 92.213 71.647
2.11 88.049 70.049
2.12 --undefined-- 68.447
2.13 --undefined-- 66.939
2.14 --undefined-- 65.085
2.15 --undefined-- 61.708
2.16 --undefined-- 57.126
2.17 --undefined-- 55.530
2.18 --undefined-- 58.929
2.19 104.061 64.698
2.20 104.179 69.115
2.21 116.705 71.975
2.22 117.554 73.798
2.23 120.607 75.166
2.24 125.645 76.197
2.25 130.265 76.822
2.26 136.047 77.436
2.27 142.635 78.037
2.28 148.016 78.397
2.29 151.377 78.554
2.30 151.127 78.381
2.31 148.211 77.515
2.32 147.180 75.968
2.33 145.642 73.962
2.34 144.707 72.083
2.35 142.904 71.000
2.36 137.616 70.699
2.37 131.688 71.398
2.38 129.902 72.701
2.39 119.362 73.767
2.40 112.423 74.130
2.41 106.430 73.524
2.42 100.919 72.579
2.43 98.287 71.862
2.44 99.215 71.067
2.45 102.413 70.915
2.46 105.407 71.420
2.47 108.042 71.866
2.48 109.966 72.025
2.49 112.936 71.932
2.50 116.125 71.868
2.51 118.800 71.849
2.52 121.110 71.688
2.53 122.716 71.247
2.54 126.179 70.342
2.55 128.109 68.622
2.56 128.170 66.272
2.57 128.368 64.210
2.58 129.407 62.753
2.59 129.953 62.773
2.60 138.923 65.989
2.61 148.416 70.248
2.62 147.096 73.881
2.63 146.463 76.308
2.64 141.456 77.455
2.65 134.246 78.021
2.66 130.633 78.532
2.67 128.791 78.755
2.68 127.496 78.505
2.69 125.985 77.990
2.70 125.192 77.653
2.71 124.619 77.647
2.72 124.231 77.894
2.73 123.346 78.202
2.74 122.848 78.381
2.75 122.618 78.478
2.76 122.085 78.455
2.77 120.938 78.116
2.78 119.230 77.378
2.79 116.537 76.284
2.80 113.905 74.896
2.81 111.514 73.203
2.82 109.095 71.252
2.83 106.483 69.605
2.84 107.015 69.707
2.85 110.021 71.415
2.86 110.268 72.897
2.87 106.261 73.434
2.88 104.536 73.345
2.89 102.942 73.130
2.90 102.330 72.843
2.91 101.940 72.427
2.92 101.775 72.038
2.93 102.388 71.875
2.94 103.655 72.008
2.95 103.911 72.305
2.96 106.434 72.569
2.97 106.193 72.796
2.98 108.224 73.008
2.99 108.156 73.172
3.00 109.573 73.446
3.01 111.681 73.784
3.02 113.352 74.051
3.03 116.466 74.256
3.04 117.879 74.527
3.05 118.641 74.928
3.06 118.757 75.198
3.07 118.453 74.918
3.08 116.235 74.156
3.09 113.173 73.309
3.10 110.583 72.670
3.11 106.939 72.196
3.12 105.064 71.425
3.13 103.935 69.574
3.14 95.858 65.967
3.15 96.454 60.781
3.16 --undefined-- 55.358
3.17 --undefined-- 52.132
3.18 --undefined-- 56.120
3.19 --undefined-- 63.944
3.20 --undefined-- 70.232
3.21 121.109 74.106
3.22 124.162 76.182
3.23 129.378 77.252
3.24 134.481 77.949
3.25 151.416 78.817
3.26 163.775 79.778
3.27 176.774 80.503
3.28 190.503 80.913
3.29 202.648 81.035
3.30 212.336 80.766
3.31 215.935 79.776
3.32 210.255 77.622
3.33 195.684 74.444
3.34 184.031 71.264
3.35 186.496 68.237
3.36 201.871 64.627
3.37 --undefined-- 63.890
3.38 --undefined-- 66.981
3.39 --undefined-- 69.350
3.40 --undefined-- 73.342
3.41 206.390 77.914
3.42 194.427 79.961
3.43 182.059 80.114
3.44 170.949 80.118
3.45 164.914 80.451
3.46 160.100 80.835
3.47 155.809 81.211
3.48 152.846 81.573
3.49 151.543 81.845
3.50 151.054 81.886
3.51 150.357 81.496
3.52 148.696 80.057
3.53 146.020 76.626
3.54 143.381 70.716
3.55 148.457 66.715
3.56 166.941 72.904
3.57 156.554 77.794
3.58 149.875 79.601
3.59 135.551 79.163
3.60 129.507 77.838
3.61 120.740 76.549
3.62 116.747 75.761
3.63 116.240 75.907
3.64 117.373 76.463
3.65 118.447 76.746
3.66 118.597 76.524
3.67 118.688 76.152
3.68 117.802 75.672
3.69 112.746 74.641
3.70 123.160 73.658
3.71 126.987 73.286
3.72 127.817 73.194
3.73 125.702 73.173
3.74 122.922 73.273
3.75 120.365 73.510
3.76 119.736 73.796
3.77 115.837 74.061
3.78 114.161 74.114
3.79 112.843 73.956
3.80 112.644 73.708
3.81 112.607 73.320
3.82 110.911 72.688
3.83 113.354 72.336
3.84 115.022 72.506
3.85 115.200 72.662
3.86 115.969 72.670
3.87 116.554 72.678
3.88 117.042 72.579
3.89 116.577 71.910
3.90 112.891 70.237
3.91 109.803 67.669
3.92 103.523 64.981
3.93 --undefined-- 64.424
3.94 --undefined-- 67.733
3.95 119.081 71.677
3.96 119.454 74.085
3.97 111.169 74.856
3.98 110.117 74.846
3.99 109.032 74.714
4.00 106.707 74.652
4.01 104.424 74.458
4.02 101.541 73.758
4.03 100.379 72.913
4.04 100.445 72.243
4.05 100.412 71.776
4.06 100.096 71.660
4.07 100.200 71.688
4.08 100.193 71.303
4.09 98.368 69.704
4.10 93.651 66.467
4.11 97.949 62.745
4.12 100.341 60.383
4.13 105.157 60.366
4.14 108.224 64.062
4.15 122.738 69.139
4.16 122.118 72.900
4.17 118.967 74.854
4.18 117.294 75.349
4.19 115.312 75.206
4.20 114.525 75.174
4.21 113.924 75.250
4.22 114.437 75.479
4.23 115.383 75.786
4.24 117.091 75.962
4.25 118.882 76.081
4.26 121.110 76.233
4.27 122.448 76.295
4.28 124.527 76.102
4.29 131.055 76.407
4.30 142.058 77.854
4.31 145.708 79.236
4.32 150.116 80.056
4.33 158.885 80.421
4.34 163.928 80.445
4.35 164.786 80.497
4.36 167.996 80.651
4.37 174.556 80.728
4.38 174.685 80.429
4.39 172.968 79.288
4.40 172.028 77.014
4.41 169.404 73.079
4.42 168.331 66.986
4.43 174.527 58.903
4.44 174.277 54.288
4.45 173.499 54.240
4.46 172.498 54.508
4.47 172.828 54.206
4.48 --undefined-- 53.771
4.49 --undefined-- 53.797
4.50 --undefined-- 53.966
4.51 --undefined-- 53.729
4.52 --undefined-- 53.750
4.53 --undefined-- 54.367
4.54 --undefined-- 54.867
4.55 --undefined-- 54.581
4.56 --undefined-- 53.697
4.57 --undefined-- 52.770
4.58 --undefined-- 51.454
4.59 --undefined-- 49.339
4.60 --undefined-- 46.891
4.61 --undefined-- 44.823
4.62 --undefined-- 42.294
4.63 --undefined-- 38.941
4.64 --undefined-- 37.351
4.65 --undefined-- 43.231
4.66 --undefined-- 48.889
4.67 --undefined-- 52.985
4.68 --undefined-- 56.623
4.69 --undefined-- 60.150
4.70 --undefined-- 62.401
4.71 --undefined-- 62.576
4.72 --undefined-- 61.472
4.73 --undefined-- 60.751
4.74 --undefined-- 61.456
4.75 --undefined-- 62.936
4.76 --undefined-- 64.073
4.77 --undefined-- 64.515
4.78 --undefined-- 64.703
4.79 --undefined-- 65.531
4.80 --undefined-- 70.491
4.81 149.298 76.003
4.82 148.309 78.976
4.83 143.508 79.860
4.84 130.224 79.779
4.85 126.945 79.571
4.86 124.589 79.026
4.87 122.933 78.111
4.88 124.836 77.591
4.89 128.872 77.501
4.90 134.650 77.165
4.91 143.944 76.731
4.92 152.956 76.790
4.93 162.026 77.080
4.94 172.644 77.038
4.95 180.468 76.484
4.96 188.842 75.854
4.97 200.866 75.824
4.98 207.804 76.126
4.99 214.982 76.285
5.00 221.056 76.264
5.01 226.934 76.213
5.02 232.500 76.044
5.03 237.332 75.810
5.04 239.107 75.711
5.05 238.852 75.511
5.06 234.974 74.723
5.07 225.847 73.033
5.08 216.442 70.140
5.09 209.823 --undefined--
5.10 --undefined-- --undefined--
5.11 --undefined-- --undefined--
5.12 --undefined-- --undefined--
