Time Pitch Intensity
0.01 --undefined-- --undefined--
0.02 --undefined-- --undefined--
0.03 --undefined-- --undefined--
0.04 --undefined-- --undefined--
0.05 --undefined-- 65.147
0.06 --undefined-- 64.761
0.07 --undefined-- 64.493
0.08 --undefined-- 64.009
0.09 88.749 62.458
0.10 88.912 60.307
0.11 90.789 58.565
0.12 --undefined-- 60.000
0.13 --undefined-- 62.131
0.14 --undefined-- 62.572
0.15 --undefined-- 61.714
0.16 --undefined-- 60.373
0.17 --undefined-- 59.495
0.18 --undefined-- 59.630
0.19 --undefined-- 59.784
0.20 --undefined-- 59.395
0.21 --undefined-- 59.384
0.22 --undefined-- 62.657
0.23 --undefined-- 67.477
0.24 --undefined-- 70.005
0.25 --undefined-- 69.689
0.26 --undefined-- 66.700
0.27 --undefined-- 60.974
0.28 --undefined-- 52.100
0.29 --undefined-- 43.500
0.30 --undefined-- 42.412
0.31 --undefined-- 48.803
0.32 --undefined-- 54.841
0.33 --undefined-- 58.347
0.34 --undefined-- 60.057
0.35 --undefined-- 59.975
0.36 --undefined-- 58.445
0.37 --undefined-- 56.881
0.38 --undefined-- 56.186
0.39 --undefined-- 55.674
0.40 --undefined-- 54.713
0.41 --undefined-- 53.767
0.42 --undefined-- 53.107
0.43 --undefined-- 52.839
0.44 --undefined-- 53.323
0.45 --undefined-- 54.566
0.46 --undefined-- 56.003
0.47 --undefined-- 56.994
0.48 --undefined-- 60.494
0.49 --undefined-- 65.570
0.50 --undefined-- 68.205
0.51 106.008 68.576
0.52 104.184 67.839
0.53 102.924 66.895
0.54 98.413 65.651
0.55 98.425 63.838
0.56 100.702 62.182
0.57 100.069 61.690
0.58 99.581 61.498
0.59 98.457 60.782
0.60 99.468 60.542
0.61 98.877 60.750
0.62 97.458 60.406
0.63 97.317 59.737
0.64 96.412 59.391
0.65 95.860 59.368
0.66 95.330 59.476
0.67 94.866 59.386
0.68 96.211 58.110
0.69 93.655 55.111
0.70 94.595 52.667
0.71 95.225 52.668
0.72 94.985 53.163
0.73 94.528 53.751
0.74 93.940 54.357
0.75 94.415 55.101
0.76 94.531 55.965
0.77 94.624 58.207
0.78 --undefined-- 63.263
0.79 --undefined-- 67.242
0.80 --undefined-- 69.073
0.81 --undefined-- 69.295
0.82 --undefined-- 68.479
0.83 87.897 66.936
0.84 82.777 65.066
0.85 76.593 63.217
0.86 --undefined-- 61.911
0.87 --undefined-- 61.667
0.88 --undefined-- 61.521
0.89 --undefined-- 60.810
0.90 --undefined-- 59.235
0.91 --undefined-- 57.044
0.92 --undefined-- 54.379
0.93 --undefined-- 51.279
0.94 --undefined-- 48.158
0.95 82.630 47.841
0.96 81.715 49.164
0.97 81.805 49.894
0.98 82.656 49.961
0.99 83.849 49.988
1.00 85.169 50.169
1.01 86.510 50.446
1.02 84.290 50.746
1.03 82.610 51.504
1.04 --undefined-- 53.041
1.05 --undefined-- 55.360
1.06 --undefined-- 58.073
1.07 --undefined-- 61.714
1.08 85.860 64.193
1.09 83.826 63.822
1.10 82.314 60.340
1.11 84.015 55.341
1.12 86.013 52.994
1.13 87.247 52.606
1.14 88.260 52.482
1.15 88.053 52.084
1.16 87.466 51.696
1.17 87.541 51.539
1.18 86.674 50.993
1.19 87.713 50.341
1.20 88.441 49.999
1.21 88.480 49.855
1.22 88.728 49.609
1.23 88.555 48.525
1.24 --undefined-- 46.208
1.25 --undefined-- 45.929
1.26 --undefined-- 50.635
1.27 --undefined-- 52.575
1.28 --undefined-- 50.076
1.29 --undefined-- 43.496
1.30 --undefined-- 40.276
1.31 --undefined-- 50.414
1.32 --undefined-- 60.793
1.33 --undefined-- 67.546
1.34 --undefined-- 70.948
1.35 --undefined-- 71.829
1.36 108.368 71.641
1.37 106.775 71.056
1.38 104.012 70.035
1.39 101.163 69.037
1.40 98.465 67.875
1.41 95.628 65.871
1.42 92.215 63.236
1.43 --undefined-- 60.145
1.44 --undefined-- 55.480
1.45 --undefined-- 50.541
1.46 --undefined-- 49.535
1.47 --undefined-- 49.694
1.48 --undefined-- 48.834
1.49 --undefined-- 48.302
1.50 --undefined-- 48.784
1.51 --undefined-- 49.356
1.52 --undefined-- 48.105
1.53 --undefined-- 44.971
1.54 --undefined-- 42.744
1.55 --undefined-- 40.876
1.56 --undefined-- 37.858
1.57 --undefined-- 36.136
1.58 --undefined-- 36.033
1.59 --undefined-- 35.914
1.60 --undefined-- 35.961
1.61 --undefined-- 36.786
1.62 --undefined-- 37.738
1.63 --undefined-- 38.277
1.64 --undefined-- 38.753
1.65 --undefined-- 39.303
1.66 --undefined-- 39.802
1.67 --undefined-- 40.315
1.68 --undefined-- 40.868
1.69 --undefined-- 41.515
1.70 --undefined-- 41.864
1.71 --undefined-- 42.362
1.72 --undefined-- 43.430
1.73 --undefined-- 44.316
1.74 --undefined-- 44.671
1.75 --undefined-- 44.358
1.76 --undefined-- 43.673
1.77 --undefined-- 43.545
1.78 --undefined-- 43.778
1.79 --undefined-- 44.321
1.80 --undefined-- 45.035
1.81 --undefined-- 45.364
1.82 --undefined-- 45.504
1.83 --undefined-- 45.747
1.84 --undefined-- 46.126
1.85 --undefined-- 45.896
1.86 --undefined-- 45.337
1.87 --undefined-- 45.754
1.88 --undefined-- 46.352
1.89 --undefined-- 46.429
1.90 --undefined-- 46.143
1.91 --undefined-- 45.429
1.92 --undefined-- 44.353
1.93 --undefined-- 43.729
1.94 --undefined-- 44.034
1.95 --undefined-- 43.950
1.96 --undefined-- 43.313
1.97 --undefined-- 42.629
1.98 --undefined-- 41.741
1.99 --undefined-- 40.653
2.00 --undefined-- 39.820
2.01 --undefined-- 39.911
2.02 --undefined-- 40.029
2.03 --undefined-- 39.559
2.04 --undefined-- 39.087
2.05 --undefined-- 38.892
2.06 --undefined-- 39.163
2.07 --undefined-- 39.117
2.08 --undefined-- 38.449
2.09 --undefined-- 38.429
2.10 --undefined-- 39.154
2.11 --undefined-- 39.218
2.12 --undefined-- 39.361
2.13 --undefined-- 43.516
2.14 --undefined-- 51.265
2.15 --undefined-- 57.089
2.16 96.566 60.181
2.17 93.755 60.790
2.18 91.803 60.042
2.19 93.614 59.669
2.20 91.632 59.656
2.21 92.116 59.298
2.22 95.867 58.845
2.23 96.448 58.613
2.24 96.953 58.376
2.25 97.084 58.208
2.26 96.887 58.227
2.27 96.958 58.370
2.28 96.937 58.402
2.29 97.360 58.329
2.30 98.387 58.298
2.31 99.578 58.350
2.32 101.649 58.613
2.33 102.646 58.906
2.34 103.015 58.906
2.35 102.927 58.607
2.36 101.314 57.597
2.37 98.693 55.707
2.38 97.217 54.921
2.39 --undefined-- 55.085
2.40 --undefined-- 54.316
2.41 --undefined-- 58.427
2.42 --undefined-- 62.800
2.43 --undefined-- 64.531
2.44 --undefined-- 64.994
2.45 --undefined-- 67.888
2.46 111.925 71.445
2.47 109.729 73.267
2.48 108.482 73.971
2.49 109.130 74.120
2.50 110.118 73.889
2.51 112.041 73.284
2.52 116.181 72.200
2.53 118.433 71.177
2.54 120.853 70.893
2.55 123.465 70.779
2.56 126.723 69.769
2.57 130.440 67.383
2.58 134.330 63.757
2.59 144.829 59.688
2.60 146.406 57.373
2.61 145.809 57.019
2.62 143.916 56.952
2.63 137.068 56.781
2.64 130.282 56.642
2.65 125.091 56.366
2.66 119.899 56.069
2.67 115.056 55.815
2.68 110.704 55.406
2.69 107.191 54.991
2.70 104.150 54.749
2.71 99.224 54.767
2.72 97.074 54.944
2.73 96.707 54.862
2.74 96.389 54.575
2.75 96.507 54.449
2.76 93.842 54.416
2.77 92.679 54.513
2.78 92.040 54.460
2.79 90.914 53.795
2.80 87.928 52.493
2.81 --undefined-- 50.166
2.82 --undefined-- 47.433
2.83 --undefined-- 51.126
2.84 --undefined-- 57.295
2.85 --undefined-- 61.159
2.86 --undefined-- 63.013
2.87 --undefined-- 65.525
2.88 93.072 69.271
2.89 90.188 71.432
2.90 88.805 71.911
2.91 89.224 71.785
2.92 91.842 71.676
2.93 94.184 71.451
2.94 95.518 71.036
2.95 97.127 70.512
2.96 100.049 69.944
2.97 103.663 69.325
2.98 106.518 68.490
2.99 110.473 67.743
3.00 112.819 67.055
3.01 115.770 65.438
3.02 122.400 62.782
3.03 128.625 60.385
3.04 132.395 59.281
3.05 130.878 58.763
3.06 130.904 58.358
3.07 125.462 57.968
3.08 122.912 57.345
3.09 120.484 56.576
3.10 117.904 55.836
3.11 114.600 55.616
3.12 108.132 56.181
3.13 97.908 57.370
3.14 93.387 59.512
3.15 90.888 61.804
3.16 90.153 63.140
3.17 89.447 63.196
3.18 87.736 62.114
3.19 87.467 60.021
3.20 84.704 57.323
3.21 84.867 56.041
3.22 84.717 56.200
3.23 82.212 57.259
3.24 81.944 59.972
3.25 84.755 62.850
3.26 81.299 64.813
3.27 80.554 65.858
3.28 79.493 66.256
3.29 81.075 66.348
3.30 82.111 66.677
3.31 83.875 67.072
3.32 85.258 66.339
3.33 --undefined-- 63.556
3.34 --undefined-- 58.087
3.35 --undefined-- 49.727
3.36 --undefined-- 41.993
3.37 --undefined-- 46.433
3.38 --undefined-- 53.071
3.39 --undefined-- 56.149
3.40 --undefined-- 59.487
3.41 126.129 64.011
3.42 125.713 66.627
3.43 130.024 67.454
3.44 129.273 67.606
3.45 126.736 67.960
3.46 125.806 68.829
3.47 128.359 70.139
3.48 128.063 71.117
3.49 120.721 71.396
3.50 117.170 71.047
3.51 109.053 70.356
3.52 101.029 70.515
3.53 96.680 71.002
3.54 92.896 70.766
3.55 91.658 69.669
3.56 92.472 67.160
3.57 94.391 62.969
3.58 --undefined-- 57.564
3.59 --undefined-- 50.863
3.60 --undefined-- 44.210
3.61 --undefined-- 40.453
3.62 --undefined-- 38.232
3.63 --undefined-- 41.690
3.64 --undefined-- 52.414
3.65 --undefined-- 58.967
3.66 --undefined-- 61.777
3.67 --undefined-- 64.568
3.68 --undefined-- 68.826
3.69 --undefined-- 71.294
3.70 --undefined-- 71.341
3.71 --undefined-- 69.024
3.72 --undefined-- 64.202
3.73 --undefined-- 57.573
3.74 102.316 54.345
3.75 101.739 54.615
3.76 102.457 54.976
3.77 102.656 55.387
3.78 103.732 55.926
3.79 103.662 56.270
3.80 103.023 56.412
3.81 102.654 56.422
3.82 102.793 56.463
3.83 103.482 56.871
3.84 103.431 57.354
3.85 103.160 57.354
3.86 102.338 56.567
3.87 101.347 54.781
3.88 100.657 51.659
3.89 --undefined-- 46.722
3.90 --undefined-- 43.745
3.91 --undefined-- 53.436
3.92 --undefined-- 62.541
3.93 --undefined-- 68.787
3.94 130.588 72.326
3.95 127.464 73.810
3.96 125.019 73.620
3.97 120.435 72.102
3.98 116.621 70.528
3.99 116.308 70.240
4.00 116.914 70.467
4.01 117.476 70.454
4.02 117.868 70.226
4.03 118.836 69.926
4.04 119.684 69.756
4.05 119.467 69.564
4.06 117.777 69.293
4.07 115.507 69.127
4.08 111.493 68.344
4.09 106.765 65.881
4.10 103.253 61.334
4.11 97.389 56.455
4.12 91.189 55.208
4.13 --undefined-- 55.476
4.14 --undefined-- 57.793
4.15 --undefined-- 62.294
4.16 --undefined-- 65.072
4.17 --undefined-- 65.468
4.18 --undefined-- 63.894
4.19 --undefined-- 61.389
4.20 --undefined-- 58.936
4.21 --undefined-- 57.432
4.22 --undefined-- 57.434
4.23 --undefined-- 56.662
4.24 --undefined-- 55.002
4.25 --undefined-- 52.614
4.26 --undefined-- 49.466
4.27 77.148 48.103
4.28 78.556 48.469
4.29 79.317 48.746
4.30 79.465 48.990
4.31 81.521 49.803
4.32 85.896 50.696
4.33 85.122 51.212
4.34 88.386 51.537
4.35 89.389 51.940
4.36 93.422 52.666
4.37 93.917 53.980
4.38 95.832 55.474
4.39 98.669 57.802
4.40 103.128 62.143
4.41 105.610 65.851
4.42 102.984 67.558
4.43 102.737 67.789
4.44 106.283 67.634
4.45 106.112 67.616
4.46 105.635 67.367
4.47 104.730 66.803
4.48 103.603 66.287
4.49 103.236 66.184
4.50 103.119 66.527
4.51 103.001 66.685
4.52 100.157 65.843
4.53 101.189 64.533
4.54 100.334 63.646
4.55 97.189 62.951
4.56 95.790 62.577
4.57 93.596 62.734
4.58 90.754 63.069
4.59 90.788 63.272
4.60 90.650 63.521
4.61 90.996 64.149
4.62 89.812 64.878
4.63 89.150 65.115
4.64 89.763 65.218
4.65 91.965 65.460
4.66 91.202 65.693
4.67 93.784 65.878
4.68 96.975 65.961
4.69 100.809 66.457
4.70 103.903 67.345
4.71 106.660 67.696
4.72 107.374 67.102
4.73 107.009 65.665
4.74 106.189 63.536
4.75 --undefined-- 60.590
4.76 --undefined-- 57.362
4.77 --undefined-- 55.455
4.78 --undefined-- 54.549
4.79 --undefined-- 53.483
4.80 --undefined-- 52.479
4.81 --undefined-- 52.028
4.82 --undefined-- 51.774
4.83 --undefined-- 51.570
4.84 --undefined-- 51.742
4.85 --undefined-- 52.216
4.86 --undefined-- 53.111
4.87 --undefined-- 56.767
4.88 --undefined-- 61.149
4.89 --undefined-- 64.431
4.90 --undefined-- 65.437
4.91 --undefined-- 65.330
4.92 --undefined-- 65.791
4.93 --undefined-- 65.973
4.94 --undefined-- 66.601
4.95 --undefined-- 66.995
4.96 99.876 66.495
4.97 99.838 65.580
4.98 98.889 64.732
4.99 102.420 64.054
5.00 102.665 63.740
5.01 102.679 63.871
5.02 103.247 64.299
5.03 104.463 64.523
5.04 105.311 64.240
5.05 107.575 64.608
5.06 107.279 65.510
5.07 107.582 65.911
5.08 107.521 65.760
5.09 107.977 65.510
5.10 108.428 65.563
5.11 107.844 65.776
5.12 107.755 65.818
5.13 107.855 65.614
5.14 107.810 65.443
5.15 108.435 65.132
5.16 108.217 63.959
5.17 107.417 62.586
5.18 107.327 62.076
5.19 106.896 61.960
5.20 105.231 61.739
5.21 103.971 60.729
5.22 103.451 58.158
5.23 102.422 53.625
5.24 --undefined-- 48.214
5.25 --undefined-- 43.549
5.26 --undefined-- 40.427
5.27 --undefined-- 43.848
5.28 --undefined-- 51.132
5.29 --undefined-- 55.762
5.30 --undefined-- 57.985
5.31 --undefined-- 60.774
5.32 --undefined-- 65.309
5.33 --undefined-- 68.565
5.34 109.603 69.898
5.35 111.610 69.852
5.36 109.030 69.050
5.37 109.883 68.308
5.38 108.918 67.861
5.39 107.008 67.421
5.40 104.462 67.193
5.41 103.261 --undefined--
5.42 100.157 --undefined--
5.43 --undefined-- --undefined--
5.44 --undefined-- --undefined--
