Time Pitch Intensity
0.01 --undefined-- --undefined--
0.02 81.467 --undefined--
0.03 82.008 --undefined--
0.04 84.051 --undefined--
0.05 85.434 71.376
0.06 86.796 71.509
0.07 88.320 71.507
0.08 90.543 71.150
0.09 90.123 70.552
0.10 90.347 69.737
0.11 --undefined-- 67.930
0.12 --undefined-- 63.973
0.13 --undefined-- 57.012
0.14 --undefined-- 47.735
0.15 --undefined-- 40.283
0.16 --undefined-- 36.371
0.17 --undefined-- 34.740
0.18 --undefined-- 35.711
0.19 --undefined-- 41.695
0.20 --undefined-- 47.147
0.21 --undefined-- 49.806
0.22 --undefined-- 49.744
0.23 --undefined-- 48.203
0.24 --undefined-- 50.162
0.25 --undefined-- 57.643
0.26 --undefined-- 64.968
0.27 87.818 69.757
0.28 87.609 72.220
0.29 83.328 72.890
0.30 77.343 72.739
0.31 76.651 72.357
0.32 86.965 71.845
0.33 85.843 71.435
0.34 85.534 70.922
0.35 86.808 70.402
0.36 87.238 70.097
0.37 75.991 69.579
0.38 79.353 68.652
0.39 79.263 67.503
0.40 81.865 66.385
0.41 85.407 64.806
0.42 --undefined-- 61.510
0.43 --undefined-- 55.201
0.44 --undefined-- 45.525
0.45 --undefined-- 38.550
0.46 --undefined-- 36.609
0.47 --undefined-- 38.245
0.48 --undefined-- 39.270
0.49 --undefined-- 38.769
0.50 --undefined-- 38.793
0.51 --undefined-- 39.604
0.52 --undefined-- 40.340
0.53 --undefined-- 41.565
0.54 --undefined-- 42.723
0.55 --undefined-- 43.130
0.56 --undefined-- 43.308
0.57 --undefined-- 43.806
0.58 --undefined-- 44.309
0.59 --undefined-- 44.303
0.60 --undefined-- 43.834
0.61 --undefined-- 43.679
0.62 --undefined-- 44.134
0.63 --undefined-- 44.721
0.64 --undefined-- 45.699
0.65 --undefined-- 46.367
0.66 --undefined-- 45.747
0.67 --undefined-- 44.085
0.68 --undefined-- 43.214
0.69 --undefined-- 42.885
0.70 --undefined-- 42.338
0.71 --undefined-- 42.670
0.72 --undefined-- 43.069
0.73 --undefined-- 43.206
0.74 --undefined-- 43.570
0.75 --undefined-- 42.841
0.76 --undefined-- 40.304
0.77 --undefined-- 37.100
0.78 --undefined-- 38.877
0.79 --undefined-- 51.231
0.80 --undefined-- 60.644
0.81 --undefined-- 67.158
0.82 --undefined-- 71.972
0.83 --undefined-- 74.779
0.84 --undefined-- 75.616
0.85 103.600 75.094
0.86 106.486 74.363
0.87 106.507 73.996
0.88 106.060 73.405
0.89 106.744 72.322
0.90 106.964 70.888
0.91 106.547 69.190
0.92 104.881 66.753
0.93 105.391 62.895
0.94 103.089 58.788
0.95 105.843 57.815
0.96 105.706 57.613
0.97 105.386 56.410
0.98 --undefined-- 55.174
0.99 --undefined-- 59.032
1.00 --undefined-- 63.068
1.01 --undefined-- 64.429
1.02 --undefined-- 63.803
1.03 --undefined-- 61.927
1.04 --undefined-- 58.543
1.05 --undefined-- 53.326
1.06 --undefined-- 48.327
1.07 --undefined-- 46.231
1.08 --undefined-- 45.109
1.09 --undefined-- 44.643
1.10 --undefined-- 45.386
1.11 --undefined-- 47.125
1.12 --undefined-- 48.419
1.13 --undefined-- 49.028
1.14 --undefined-- 49.075
1.15 --undefined-- 48.273
1.16 --undefined-- 45.765
1.17 --undefined-- 42.702
1.18 --undefined-- 41.706
1.19 --undefined-- 41.665
1.20 --undefined-- 41.526
1.21 --undefined-- 41.269
1.22 --undefined-- 41.483
1.23 --undefined-- 41.783
1.24 --undefined-- 43.047
1.25 --undefined-- 47.229
1.26 --undefined-- 53.217
1.27 75.141 58.088
1.28 75.902 61.217
1.29 --undefined-- 62.220
1.30 --undefined-- 61.128
1.31 --undefined-- 60.439
1.32 78.046 61.353
1.33 81.651 62.007
1.34 82.041 61.929
1.35 85.265 61.738
1.36 86.720 61.994
1.37 87.346 63.183
1.38 --undefined-- 65.416
1.39 83.115 67.356
1.40 81.947 68.683
1.41 80.834 69.546
1.42 78.233 70.111
1.43 76.853 70.280
1.44 75.993 70.052
1.45 75.560 69.571
1.46 75.304 68.678
1.47 78.079 67.595
1.48 82.122 66.520
1.49 83.103 65.179
1.50 84.899 63.089
1.51 85.586 60.061
1.52 85.747 56.090
1.53 --undefined-- 51.023
1.54 --undefined-- 45.261
1.55 --undefined-- 41.193
1.56 --undefined-- 39.722
1.57 --undefined-- 39.018
1.58 --undefined-- 38.845
1.59 --undefined-- 39.417
1.60 --undefined-- 40.903
1.61 --undefined-- 43.302
1.62 --undefined-- 45.142
1.63 --undefined-- 45.597
1.64 --undefined-- 49.136
1.65 --undefined-- 59.048
1.66 --undefined-- 66.132
1.67 --undefined-- 70.447
1.68 80.344 72.688
1.69 76.742 73.112
1.70 76.405 72.257
1.71 85.688 71.112
1.72 84.369 70.479
1.73 83.687 70.305
1.74 83.205 69.963
1.75 86.079 69.131
1.76 74.588 68.142
1.77 --undefined-- 67.695
1.78 80.824 67.317
1.79 84.312 66.826
1.80 --undefined-- 65.634
1.81 --undefined-- 63.298
1.82 --undefined-- 59.805
1.83 --undefined-- 53.752
1.84 --undefined-- 45.330
1.85 --undefined-- 39.524
1.86 --undefined-- 37.942
1.87 --undefined-- 38.032
1.88 --undefined-- 38.506
1.89 --undefined-- 38.744
1.90 --undefined-- 38.517
1.91 --undefined-- 38.708
1.92 --undefined-- 38.909
1.93 --undefined-- 38.570
1.94 --undefined-- 37.896
1.95 --undefined-- 36.861
1.96 --undefined-- 36.738
1.97 --undefined-- 37.816
1.98 --undefined-- 38.275
1.99 --undefined-- 38.652
2.00 --undefined-- 39.429
2.01 --undefined-- 39.610
2.02 --undefined-- 38.974
2.03 --undefined-- 38.639
2.04 --undefined-- 38.491
2.05 --undefined-- 38.060
2.06 --undefined-- 38.542
2.07 --undefined-- 39.392
2.08 --undefined-- 39.500
2.09 --undefined-- 39.281
2.10 --undefined-- 39.233
2.11 --undefined-- 38.990
2.12 --undefined-- 38.433
2.13 --undefined-- 38.516
2.14 --undefined-- 38.969
2.15 --undefined-- 39.159
2.16 --undefined-- 39.400
2.17 --undefined-- 39.044
2.18 --undefined-- 37.909
2.19 --undefined-- 37.582
2.20 --undefined-- 37.596
2.21 --undefined-- 37.620
2.22 --undefined-- 37.736
2.23 --undefined-- 36.899
2.24 --undefined-- 35.681
2.25 --undefined-- 34.585
2.26 --undefined-- 34.122
2.27 --undefined-- 35.644
2.28 --undefined-- 37.693
2.29 --undefined-- 39.478
2.30 --undefined-- 39.913
2.31 --undefined-- 39.386
2.32 --undefined-- 40.184
2.33 --undefined-- 44.053
2.34 --undefined-- 52.076
2.35 --undefined-- 60.400
2.36 --undefined-- 69.079
2.37 --undefined-- 75.198
2.38 123.007 78.087
2.39 118.057 78.440
2.40 117.161 77.696
2.41 120.461 77.186
2.42 128.251 77.088
2.43 134.454 76.800
2.44 138.384 75.647
2.45 139.252 73.753
2.46 135.192 71.135
2.47 --undefined-- 66.647
2.48 --undefined-- 59.314
2.49 --undefined-- 50.616
2.50 --undefined-- 48.714
2.51 --undefined-- 54.285
2.52 --undefined-- 59.788
2.53 --undefined-- 63.826
2.54 --undefined-- 65.376
2.55 --undefined-- 64.170
2.56 --undefined-- 61.186
2.57 --undefined-- 62.442
2.58 158.912 68.460
2.59 152.605 72.122
2.60 149.207 72.690
2.61 144.298 70.545
2.62 139.876 66.484
2.63 135.772 61.151
2.64 --undefined-- 54.512
2.65 --undefined-- 48.156
2.66 --undefined-- 44.514
2.67 --undefined-- 43.884
2.68 --undefined-- 46.815
2.69 --undefined-- 55.024
2.70 --undefined-- 64.947
2.71 --undefined-- 71.583
2.72 --undefined-- 75.289
2.73 --undefined-- 76.779
2.74 --undefined-- 76.943
2.75 --undefined-- 76.577
2.76 --undefined-- 75.735
2.77 --undefined-- 73.853
2.78 --undefined-- 70.096
2.79 --undefined-- 63.477
2.80 --undefined-- 53.802
2.81 --undefined-- 45.606
2.82 --undefined-- 39.565
2.83 --undefined-- 34.514
2.84 --undefined-- 32.646
2.85 --undefined-- 34.266
2.86 --undefined-- 38.878
2.87 --undefined-- 47.328
2.88 --undefined-- 54.954
2.89 88.390 60.342
2.90 88.503 63.640
2.91 86.877 65.072
2.92 85.426 64.921
2.93 88.638 64.406
2.94 94.017 64.851
2.95 98.749 65.152
2.96 102.555 64.701
2.97 104.905 63.648
2.98 105.262 62.462
2.99 105.414 62.399
3.00 105.355 65.042
3.01 109.889 67.994
3.02 106.491 69.923
3.03 106.824 71.292
3.04 106.276 72.415
3.05 105.048 73.195
3.06 102.833 73.433
3.07 100.044 73.037
3.08 97.114 72.425
3.09 95.168 71.957
3.10 90.270 71.509
3.11 86.293 70.827
3.12 83.188 69.737
3.13 82.917 68.097
3.14 82.496 65.418
3.15 --undefined-- 61.627
3.16 --undefined-- 56.963
3.17 --undefined-- 51.441
3.18 --undefined-- 46.369
3.19 --undefined-- 42.930
3.20 --undefined-- 40.448
3.21 --undefined-- 38.788
3.22 --undefined-- 40.205
3.23 --undefined-- 47.726
3.24 --undefined-- 55.111
3.25 82.609 60.870
3.26 81.446 65.617
3.27 80.505 69.758
3.28 80.748 72.692
3.29 81.499 73.621
3.30 82.325 72.708
3.31 83.982 71.194
3.32 85.363 70.309
3.33 86.531 69.858
3.34 87.397 69.537
3.35 87.867 69.659
3.36 90.072 70.206
3.37 93.179 70.705
3.38 95.727 70.813
3.39 95.513 69.793
3.40 --undefined-- 66.414
3.41 --undefined-- 59.497
3.42 --undefined-- 48.456
3.43 --undefined-- 39.797
3.44 --undefined-- 41.182
3.45 --undefined-- 46.794
3.46 --undefined-- 54.096
3.47 106.260 60.660
3.48 104.779 65.660
3.49 99.454 68.978
3.50 95.923 71.063
3.51 94.290 72.263
3.52 92.126 72.362
3.53 90.263 71.320
3.54 88.117 69.451
3.55 --undefined-- 66.270
3.56 --undefined-- 61.253
3.57 --undefined-- 55.902
3.58 --undefined-- 51.774
3.59 --undefined-- 48.371
3.60 --undefined-- 46.582
3.61 --undefined-- 45.814
3.62 --undefined-- 47.428
3.63 --undefined-- 52.477
3.64 87.030 58.634
3.65 86.055 63.885
3.66 83.904 67.650
3.67 80.123 69.661
3.68 79.805 70.093
3.69 77.448 69.684
3.70 77.179 69.144
3.71 77.525 68.949
3.72 78.307 69.164
3.73 80.184 69.329
3.74 83.514 69.583
3.75 85.292 70.497
3.76 88.551 71.779
3.77 90.729 72.463
3.78 92.963 72.435
3.79 94.746 72.219
3.80 95.901 72.102
3.81 96.603 71.927
3.82 96.991 71.662
3.83 98.595 71.354
3.84 98.120 70.573
3.85 97.722 68.727
3.86 --undefined-- 65.168
3.87 --undefined-- 59.068
3.88 --undefined-- 49.965
3.89 --undefined-- 40.713
3.90 --undefined-- 36.458
3.91 --undefined-- 35.704
3.92 --undefined-- 37.064
3.93 --undefined-- 36.998
3.94 --undefined-- 35.900
3.95 --undefined-- 35.234
3.96 --undefined-- 34.791
3.97 --undefined-- 36.307
3.98 --undefined-- 38.037
3.99 --undefined-- 37.346
4.00 --undefined-- 35.691
4.01 --undefined-- 36.376
4.02 --undefined-- 39.713
4.03 --undefined-- 43.709
4.04 --undefined-- 47.299
4.05 --undefined-- 51.407
4.06 108.440 58.232
4.07 108.194 65.894
4.08 116.260 71.177
4.09 118.699 74.286
4.10 120.588 75.868
4.11 120.068 75.728
4.12 116.134 73.939
4.13 114.247 72.095
4.14 113.424 71.307
4.15 113.377 70.722
4.16 113.018 69.181
4.17 115.619 66.095
4.18 121.236 62.613
4.19 122.901 61.104
4.20 123.549 60.829
4.21 122.446 61.033
4.22 121.177 60.804
4.23 119.323 60.158
4.24 116.626 60.535
4.25 112.520 65.454
4.26 116.425 71.321
4.27 116.307 74.469
4.28 113.662 75.276
4.29 --undefined-- 75.281
4.30 --undefined-- 75.216
4.31 --undefined-- 74.714
4.32 --undefined-- 73.921
4.33 --undefined-- 73.083
4.34 --undefined-- 72.389
4.35 --undefined-- 71.614
4.36 --undefined-- 69.939
4.37 --undefined-- 66.914
4.38 --undefined-- 62.425
4.39 --undefined-- 55.623
4.40 --undefined-- 46.077
4.41 --undefined-- 38.279
4.42 --undefined-- 36.809
4.43 --undefined-- 36.615
4.44 --undefined-- 36.619
4.45 --undefined-- 38.667
4.46 --undefined-- 43.994
4.47 --undefined-- 50.158
4.48 --undefined-- 54.965
4.49 80.348 58.068
4.50 81.375 59.568
4.51 75.644 60.440
4.52 87.832 61.891
4.53 87.753 63.226
4.54 88.378 63.211
4.55 90.085 62.066
4.56 92.622 60.717
4.57 94.141 59.953
4.58 94.309 60.014
4.59 93.918 60.943
4.60 93.568 63.950
4.61 95.462 67.553
4.62 91.868 69.823
4.63 91.086 70.708
4.64 91.095 70.817
4.65 90.838 70.688
4.66 89.403 70.520
4.67 89.857 70.398
4.68 89.624 70.686
4.69 88.828 71.294
4.70 89.201 71.890
4.71 90.358 72.244
4.72 91.315 72.161
4.73 92.842 71.601
4.74 94.885 70.982
4.75 96.199 70.811
4.76 96.370 70.532
4.77 92.510 69.848
4.78 90.727 68.947
4.79 86.858 67.348
4.80 --undefined-- 64.260
4.81 --undefined-- 58.898
4.82 --undefined-- 51.934
4.83 --undefined-- 45.045
4.84 --undefined-- 39.849
4.85 --undefined-- 39.190
4.86 --undefined-- 39.867
4.87 --undefined-- 42.009
4.88 --undefined-- 49.456
4.89 --undefined-- 57.758
4.90 --undefined-- 64.275
4.91 --undefined-- 69.399
4.92 --undefined-- 72.722
4.93 84.056 74.204
4.94 79.997 74.335
4.95 78.369 73.670
4.96 74.574 72.228
4.97 88.362 70.155
4.98 --undefined-- 67.534
4.99 --undefined-- 63.932
5.00 --undefined-- 58.975
5.01 --undefined-- 52.408
5.02 --undefined-- 45.216
5.03 --undefined-- 39.912
5.04 --undefined-- 38.612
5.05 --undefined-- 38.126
5.06 --undefined-- 36.606
5.07 --undefined-- 35.009
5.08 --undefined-- 34.559
5.09 --undefined-- 42.063
5.10 --undefined-- 51.005
5.11 92.129 57.876
5.12 86.437 63.341
5.13 83.878 67.652
5.14 --undefined-- 70.904
5.15 --undefined-- 72.808
5.16 --undefined-- 73.141
5.17 --undefined-- 71.878
5.18 --undefined-- 69.621
5.19 --undefined-- 68.799
5.20 --undefined-- 67.562
5.21 --undefined-- 65.137
5.22 --undefined-- 64.691
5.23 --undefined-- 66.165
5.24 --undefined-- 68.956
5.25 97.842 70.604
5.26 93.978 70.921
5.27 90.560 70.592
5.28 92.051 70.629
5.29 92.336 70.878
5.30 92.523 70.979
5.31 93.533 70.876
5.32 94.598 70.577
5.33 96.118 70.342
5.34 96.171 70.179
5.35 98.407 69.790
5.36 98.723 68.903
5.37 98.510 67.215
5.38 98.463 64.476
5.39 97.835 60.276
5.40 96.365 54.676
5.41 --undefined-- 48.872
5.42 --undefined-- 44.904
5.43 --undefined-- 43.256
5.44 --undefined-- 43.185
5.45 --undefined-- 43.763
5.46 --undefined-- 45.287
5.47 --undefined-- 47.531
5.48 --undefined-- 50.250
5.49 80.673 53.768
5.50 80.428 57.684
5.51 76.696 61.486
5.52 75.515 65.054
5.53 74.553 68.106
5.54 84.547 69.788
5.55 86.016 70.036
5.56 87.254 70.057
5.57 88.351 70.425
5.58 75.503 70.334
5.59 75.295 69.720
5.60 79.598 69.528
5.61 82.077 70.267
5.62 81.647 70.872
5.63 78.675 70.949
5.64 77.938 70.440
5.65 76.374 68.817
5.66 76.294 65.935
5.67 76.885 61.855
5.68 76.272 56.289
5.69 --undefined-- 50.354
5.70 --undefined-- 45.102
5.71 --undefined-- 40.507
5.72 --undefined-- 36.945
5.73 --undefined-- 35.601
5.74 --undefined-- 36.129
5.75 --undefined-- 37.210
5.76 --undefined-- 36.984
5.77 --undefined-- 36.021
5.78 --undefined-- 37.300
5.79 --undefined-- 39.103
5.80 --undefined-- 41.604
5.81 --undefined-- 46.239
5.82 --undefined-- 51.300
5.83 81.609 57.159
5.84 83.518 63.166
5.85 81.893 68.056
5.86 80.367 71.315
5.87 79.579 72.860
5.88 79.285 72.676
5.89 78.726 71.495
5.90 77.942 70.154
5.91 77.279 68.387
5.92 78.361 66.100
5.93 78.844 63.565
5.94 --undefined-- 60.468
5.95 --undefined-- 55.606
5.96 --undefined-- 48.508
5.97 --undefined-- 40.641
5.98 --undefined-- 41.439
5.99 --undefined-- 48.924
6.00 --undefined-- 55.280
6.01 --undefined-- 60.275
6.02 --undefined-- 64.607
6.03 --undefined-- 67.347
6.04 --undefined-- 68.002
6.05 --undefined-- 66.701
6.06 --undefined-- 64.401
6.07 245.606 62.030
6.08 244.803 58.444
6.09 --undefined-- 56.912
6.10 --undefined-- 61.481
6.11 --undefined-- 65.023
6.12 --undefined-- 66.466
6.13 --undefined-- 66.184
6.14 --undefined-- 63.853
6.15 --undefined-- 59.042
6.16 --undefined-- 55.006
6.17 --undefined-- 54.901
6.18 --undefined-- 54.979
6.19 --undefined-- 55.171
6.20 75.049 56.318
6.21 75.539 57.276
6.22 75.683 57.277
6.23 75.892 56.186
6.24 76.029 54.130
6.25 --undefined-- 50.847
6.26 --undefined-- 46.874
6.27 --undefined-- 45.104
6.28 --undefined-- 47.164
6.29 --undefined-- 55.710
6.30 --undefined-- 62.330
6.31 --undefined-- 66.056
6.32 --undefined-- --undefined--
6.33 --undefined-- --undefined--
6.34 --undefined-- --undefined--
6.35 --undefined-- --undefined--
