Time Pitch Intensity
0.01 --undefined-- --undefined--
0.02 97.593 --undefined--
0.03 97.208 --undefined--
0.04 97.055 --undefined--
0.05 98.919 70.617
0.06 101.123 69.792
0.07 102.962 69.576
0.08 105.418 69.287
0.09 109.167 69.033
0.10 112.992 68.770
0.11 120.553 68.610
0.12 125.936 68.809
0.13 126.952 68.117
0.14 127.042 65.371
0.15 --undefined-- 60.273
0.16 --undefined-- 52.696
0.17 --undefined-- 46.512
0.18 --undefined-- 46.521
0.19 --undefined-- 47.909
0.20 --undefined-- 49.644
0.21 --undefined-- 50.356
0.22 --undefined-- 50.812
0.23 --undefined-- 60.173
0.24 --undefined-- 69.295
0.25 --undefined-- 74.439
0.26 139.800 76.578
0.27 136.917 76.669
0.28 134.402 75.762
0.29 132.291 74.755
0.30 130.965 74.057
0.31 130.025 73.660
0.32 128.878 73.353
0.33 127.876 72.994
0.34 127.237 72.132
0.35 126.719 70.114
0.36 125.107 66.795
0.37 127.826 62.897
0.38 129.713 60.289
0.39 130.293 59.512
0.40 130.189 58.392
0.41 130.183 55.683
0.42 --undefined-- 51.687
0.43 --undefined-- 48.442
0.44 --undefined-- 47.613
0.45 --undefined-- 49.074
0.46 --undefined-- 54.162
0.47 129.270 61.018
0.48 123.096 67.265
0.49 120.058 71.724
0.50 117.184 73.820
0.51 113.161 73.906
0.52 107.004 73.370
0.53 103.940 73.247
0.54 101.200 72.690
0.55 96.787 71.522
0.56 94.712 70.641
0.57 93.894 70.254
0.58 93.760 70.312
0.59 93.619 71.071
0.60 92.839 72.127
0.61 91.044 72.820
0.62 88.935 73.159
0.63 88.280 73.306
0.64 85.933 73.284
0.65 83.408 72.917
0.66 80.762 72.410
0.67 79.118 72.190
0.68 77.832 72.094
0.69 75.184 72.034
0.70 75.564 71.903
0.71 76.597 71.644
0.72 77.460 71.313
0.73 78.947 70.917
0.74 79.692 70.521
0.75 82.710 69.922
0.76 82.754 68.719
0.77 82.761 67.311
0.78 84.866 66.212
0.79 86.515 65.019
0.80 89.989 63.164
0.81 90.131 60.648
0.82 90.133 59.618
0.83 90.541 62.585
0.84 92.420 66.932
0.85 93.888 70.575
0.86 95.179 72.639
0.87 97.023 73.167
0.88 100.318 72.896
0.89 102.955 72.375
0.90 104.393 71.495
0.91 105.020 69.654
0.92 --undefined-- 65.746
0.93 --undefined-- 58.775
0.94 --undefined-- 49.043
0.95 --undefined-- 41.940
0.96 --undefined-- 40.305
0.97 --undefined-- 42.530
0.98 --undefined-- 43.740
0.99 --undefined-- 43.577
1.00 --undefined-- 46.273
1.01 --undefined-- 53.583
1.02 --undefined-- 61.040
1.03 95.015 66.959
1.04 94.687 70.721
1.05 94.521 72.256
1.06 93.544 71.621
1.07 88.652 69.002
1.08 89.691 64.585
1.09 92.757 60.083
1.10 94.041 62.279
1.11 108.748 68.609
1.12 108.343 72.459
1.13 105.237 73.732
1.14 103.670 73.432
1.15 100.248 72.806
1.16 98.344 72.705
1.17 96.319 73.075
1.18 92.839 73.366
1.19 89.602 73.118
1.20 85.606 71.903
1.21 --undefined-- 69.170
1.22 --undefined-- 64.165
1.23 --undefined-- 56.553
1.24 --undefined-- 48.836
1.25 --undefined-- 42.840
1.26 --undefined-- 38.979
1.27 --undefined-- 37.626
1.28 --undefined-- 36.392
1.29 --undefined-- 37.610
1.30 --undefined-- 46.754
1.31 --undefined-- 55.908
1.32 --undefined-- 62.497
1.33 --undefined-- 66.898
1.34 --undefined-- 69.931
1.35 77.166 72.203
1.36 75.921 73.434
1.37 75.079 73.287
1.38 86.833 72.013
1.39 75.280 70.099
1.40 75.160 67.783
1.41 75.280 65.469
1.42 76.170 64.039
1.43 75.683 63.387
1.44 76.171 63.140
1.45 76.872 63.546
1.46 77.465 64.743
1.47 77.838 66.237
1.48 78.537 67.702
1.49 79.545 69.079
1.50 79.910 70.286
1.51 79.719 71.121
1.52 78.892 71.759
1.53 78.124 72.491
1.54 78.346 72.958
1.55 78.492 72.794
1.56 79.272 72.337
1.57 81.106 71.590
1.58 84.020 70.619
1.59 85.492 70.140
1.60 86.891 70.460
1.61 87.935 70.944
1.62 88.727 71.066
1.63 89.304 70.926
1.64 89.804 70.958
1.65 89.773 71.015
1.66 90.306 70.416
1.67 86.818 68.397
1.68 87.042 64.237
1.69 --undefined-- 57.605
1.70 --undefined-- 49.672
1.71 --undefined-- 42.700
1.72 --undefined-- 39.290
1.73 --undefined-- 40.496
1.74 --undefined-- 40.966
1.75 --undefined-- 39.752
1.76 --undefined-- 38.071
1.77 --undefined-- 36.585
1.78 --undefined-- 37.284
1.79 --undefined-- 37.681
1.80 --undefined-- 36.409
1.81 --undefined-- 35.551
1.82 --undefined-- 36.457
1.83 --undefined-- 37.385
1.84 --undefined-- 38.016
1.85 --undefined-- 37.667
1.86 --undefined-- 37.403
1.87 --undefined-- 41.133
1.88 --undefined-- 45.748
1.89 --undefined-- 50.250
1.90 --undefined-- 57.925
1.91 --undefined-- 63.950
1.92 --undefined-- 65.961
1.93 82.279 64.641
1.94 78.654 62.608
1.95 77.835 61.906
1.96 76.423 61.927
1.97 75.830 62.318
1.98 75.771 62.461
1.99 76.607 62.354
2.00 76.110 62.175
2.01 76.323 62.286
2.02 76.494 62.858
2.03 75.849 63.783
2.04 76.139 64.765
2.05 --undefined-- 64.671
2.06 --undefined-- 61.748
2.07 --undefined-- 55.181
2.08 --undefined-- 54.199
2.09 --undefined-- 62.625
2.10 --undefined-- 67.176
2.11 --undefined-- 67.984
2.12 --undefined-- 67.152
2.13 --undefined-- 67.777
2.14 --undefined-- 68.538
2.15 --undefined-- 69.454
2.16 --undefined-- 71.219
2.17 99.311 72.593
2.18 98.563 73.225
2.19 99.406 73.361
2.20 99.218 72.979
2.21 99.182 72.215
2.22 99.694 71.575
2.23 99.886 71.476
2.24 99.990 71.786
2.25 99.153 72.102
2.26 98.702 72.229
2.27 97.377 72.184
2.28 96.559 72.013
2.29 95.841 71.433
2.30 95.874 70.236
2.31 96.599 68.846
2.32 97.979 68.030
2.33 99.411 68.016
2.34 100.031 68.244
2.35 100.493 68.402
2.36 100.995 68.478
2.37 101.544 68.447
2.38 102.866 68.292
2.39 103.199 68.121
2.40 103.119 67.885
2.41 102.406 67.646
2.42 101.700 67.351
2.43 102.227 66.788
2.44 105.506 65.763
2.45 107.618 63.930
2.46 108.751 60.975
2.47 109.209 56.973
2.48 --undefined-- 52.465
2.49 --undefined-- 49.369
2.50 --undefined-- 50.537
2.51 --undefined-- 51.571
2.52 --undefined-- 50.803
2.53 --undefined-- 49.291
2.54 --undefined-- 46.194
2.55 --undefined-- 40.468
2.56 --undefined-- 35.571
2.57 --undefined-- 36.416
2.58 --undefined-- 42.295
2.59 --undefined-- 51.296
2.60 102.386 58.198
2.61 97.023 62.589
2.62 92.736 64.970
2.63 89.429 66.006
2.64 85.804 67.115
2.65 85.479 68.932
2.66 88.548 69.932
2.67 88.884 69.781
2.68 87.601 68.974
2.69 85.447 67.726
2.70 84.238 65.671
2.71 --undefined-- 62.342
2.72 --undefined-- 57.516
2.73 --undefined-- 50.994
2.74 --undefined-- 43.812
2.75 --undefined-- 39.960
2.76 --undefined-- 39.878
2.77 --undefined-- 41.374
2.78 --undefined-- 42.122
2.79 --undefined-- 44.334
2.80 --undefined-- 53.834
2.81 --undefined-- 62.456
2.82 85.979 68.709
2.83 83.831 72.807
2.84 82.508 74.916
2.85 82.078 75.224
2.86 83.266 74.434
2.87 85.185 73.611
2.88 87.126 72.816
2.89 88.781 71.188
2.90 88.412 67.920
2.91 86.037 62.648
2.92 86.575 56.365
2.93 --undefined-- 49.918
2.94 --undefined-- 42.699
2.95 --undefined-- 38.077
2.96 --undefined-- 39.544
2.97 --undefined-- 41.014
2.98 --undefined-- 41.610
2.99 --undefined-- 48.759
3.00 --undefined-- 57.123
3.01 --undefined-- 61.761
3.02 --undefined-- 65.280
3.03 --undefined-- 69.843
3.04 --undefined-- 73.133
3.05 --undefined-- 74.251
3.06 85.360 73.766
3.07 83.350 72.555
3.08 80.357 71.236
3.09 78.188 69.825
3.10 76.627 67.939
3.11 --undefined-- 65.165
3.12 --undefined-- 61.040
3.13 --undefined-- 55.354
3.14 --undefined-- 47.920
3.15 --undefined-- 40.207
3.16 --undefined-- 38.874
3.17 --undefined-- 41.330
3.18 --undefined-- 46.468
3.19 --undefined-- 53.743
3.20 --undefined-- 62.179
3.21 --undefined-- 68.268
3.22 --undefined-- 71.918
3.23 --undefined-- 73.562
3.24 --undefined-- 73.657
3.25 --undefined-- 72.748
3.26 --undefined-- 71.243
3.27 --undefined-- 70.087
3.28 75.509 70.113
3.29 79.012 69.568
3.30 80.719 67.519
3.31 89.396 64.475
3.32 88.713 62.230
3.33 89.701 61.034
3.34 90.280 59.387
3.35 90.310 56.610
3.36 --undefined-- 52.409
3.37 --undefined-- 46.582
3.38 --undefined-- 41.212
3.39 --undefined-- 40.331
3.40 --undefined-- 41.640
3.41 --undefined-- 42.687
3.42 --undefined-- 43.625
3.43 --undefined-- 44.392
3.44 --undefined-- 48.371
3.45 --undefined-- 58.837
3.46 106.542 66.711
3.47 106.057 71.501
3.48 87.812 73.902
3.49 78.964 74.395
3.50 --undefined-- 73.653
3.51 --undefined-- 72.228
3.52 --undefined-- 69.688
3.53 --undefined-- 67.806
3.54 --undefined-- 69.152
3.55 --undefined-- 69.909
3.56 --undefined-- 70.257
3.57 --undefined-- 71.036
3.58 80.000 71.768
3.59 82.661 72.108
3.60 83.609 71.919
3.61 85.568 71.398
3.62 86.998 71.226
3.63 88.030 71.218
3.64 88.145 70.330
3.65 --undefined-- 67.519
3.66 --undefined-- 61.791
3.67 --undefined-- 52.733
3.68 --undefined-- 42.703
3.69 --undefined-- 40.604
3.70 --undefined-- 44.881
3.71 --undefined-- 46.709
3.72 --undefined-- 49.660
3.73 --undefined-- 53.358
3.74 --undefined-- 54.721
3.75 --undefined-- 57.453
3.76 --undefined-- 62.623
3.77 --undefined-- 67.733
3.78 --undefined-- 71.305
3.79 117.818 73.240
3.80 112.908 74.117
3.81 106.206 74.321
3.82 104.878 74.140
3.83 95.329 73.886
3.84 92.563 73.907
3.85 90.990 73.897
3.86 90.424 73.564
3.87 87.349 72.998
3.88 83.521 72.112
3.89 80.689 71.128
3.90 79.310 70.620
3.91 79.282 70.434
3.92 77.346 70.030
3.93 77.078 70.041
3.94 81.887 71.102
3.95 82.007 72.613
3.96 81.857 73.736
3.97 81.295 74.158
3.98 80.329 74.247
3.99 81.119 74.080
4.00 82.222 73.535
4.01 85.906 72.787
4.02 87.447 71.973
4.03 93.428 71.340
4.04 100.004 71.115
4.05 102.768 70.327
4.06 107.158 67.843
4.07 --undefined-- 63.190
4.08 --undefined-- 55.776
4.09 --undefined-- 45.672
4.10 --undefined-- 38.148
4.11 --undefined-- 35.518
4.12 --undefined-- 36.430
4.13 --undefined-- 38.737
4.14 --undefined-- 42.269
4.15 --undefined-- 48.286
4.16 --undefined-- 54.172
4.17 221.957 57.780
4.18 223.207 62.246
4.19 --undefined-- 68.868
4.20 --undefined-- 73.180
4.21 --undefined-- 74.851
4.22 106.633 75.125
4.23 97.854 74.963
4.24 93.301 74.570
4.25 89.969 74.247
4.26 89.381 73.804
4.27 85.006 73.166
4.28 84.275 72.474
4.29 83.422 71.887
4.30 84.740 71.911
4.31 85.885 72.528
4.32 86.706 72.940
4.33 86.337 73.073
4.34 86.770 73.357
4.35 87.327 73.498
4.36 87.003 73.311
4.37 89.957 73.016
4.38 93.441 71.594
4.39 93.587 69.232
4.40 258.806 69.687
4.41 262.546 69.055
4.42 265.797 64.750
4.43 --undefined-- 56.931
4.44 --undefined-- 48.524
4.45 --undefined-- 40.950
4.46 --undefined-- 38.916
4.47 --undefined-- 38.890
4.48 --undefined-- 38.608
4.49 --undefined-- 37.716
4.50 --undefined-- 36.240
4.51 --undefined-- 35.645
4.52 --undefined-- 36.373
4.53 --undefined-- 36.916
4.54 --undefined-- 38.402
4.55 --undefined-- 39.262
4.56 --undefined-- 37.904
4.57 --undefined-- 35.911
4.58 --undefined-- 35.155
4.59 --undefined-- 34.067
4.60 --undefined-- 33.429
4.61 --undefined-- 35.101
4.62 --undefined-- 36.675
4.63 --undefined-- 37.633
4.64 --undefined-- 38.787
4.65 --undefined-- 43.365
4.66 --undefined-- 50.362
4.67 --undefined-- 56.562
4.68 --undefined-- 61.911
4.69 88.926 66.087
4.70 84.631 69.283
4.71 84.638 71.769
4.72 85.468 73.391
4.73 85.955 73.800
4.74 86.334 72.748
4.75 --undefined-- 69.985
4.76 --undefined-- 65.108
4.77 --undefined-- 57.861
4.78 --undefined-- 49.245
4.79 --undefined-- 46.231
4.80 --undefined-- 49.178
4.81 92.736 55.731
4.82 92.173 61.509
4.83 90.536 65.994
4.84 88.877 69.260
4.85 88.118 71.478
4.86 86.721 72.496
4.87 84.479 72.467
4.88 82.722 71.782
4.89 81.034 71.084
4.90 80.563 70.933
4.91 80.976 71.493
4.92 81.659 72.532
4.93 81.689 73.497
4.94 81.160 73.760
4.95 79.122 73.169
4.96 77.227 71.980
4.97 76.569 70.954
4.98 76.536 70.598
4.99 77.181 70.145
5.00 79.985 68.807
5.01 --undefined-- 66.170
5.02 --undefined-- 61.328
5.03 --undefined-- 53.193
5.04 --undefined-- 43.343
5.05 --undefined-- 38.654
5.06 --undefined-- 38.054
5.07 --undefined-- 41.741
5.08 --undefined-- 48.447
5.09 98.285 53.860
5.10 97.656 57.748
5.11 96.140 60.553
5.12 93.809 63.328
5.13 94.505 65.904
5.14 93.838 67.224
5.15 92.407 66.675
5.16 92.633 64.799
5.17 93.465 62.982
5.18 93.082 61.194
5.19 92.100 58.000
5.20 --undefined-- 52.628
5.21 --undefined-- 48.795
5.22 --undefined-- 53.278
5.23 --undefined-- 61.327
5.24 --undefined-- 68.242
5.25 --undefined-- 71.889
5.26 88.286 72.831
5.27 82.595 72.436
5.28 78.429 71.823
5.29 77.101 71.058
5.30 76.678 69.700
5.31 --undefined-- 67.448
5.32 --undefined-- 64.525
5.33 --undefined-- 60.855
5.34 --undefined-- 55.552
5.35 --undefined-- 47.322
5.36 --undefined-- 39.124
5.37 --undefined-- 37.963
5.38 --undefined-- 38.455
5.39 --undefined-- 38.395
5.40 --undefined-- 41.392
5.41 --undefined-- 50.321
5.42 --undefined-- 58.047
5.43 95.981 63.733
5.44 91.897 67.403
5.45 87.434 69.211
5.46 --undefined-- 69.003
5.47 --undefined-- 66.253
5.48 --undefined-- 60.380
5.49 --undefined-- 52.136
5.50 --undefined-- 45.747
5.51 --undefined-- 42.048
5.52 --undefined-- 39.621
5.53 --undefined-- 37.122
5.54 --undefined-- 35.774
5.55 --undefined-- 35.885
5.56 --undefined-- 39.211
5.57 --undefined-- 45.506
5.58 --undefined-- 51.254
5.59 --undefined-- 54.293
5.60 --undefined-- 57.765
5.61 --undefined-- 64.398
5.62 --undefined-- 69.681
5.63 --undefined-- 72.094
5.64 79.805 72.016
5.65 79.515 70.398
5.66 81.369 68.166
5.67 80.890 65.736
5.68 --undefined-- 65.027
5.69 --undefined-- 67.082
5.70 --undefined-- 69.502
5.71 --undefined-- 71.773
5.72 --undefined-- 73.007
5.73 --undefined-- 73.176
5.74 --undefined-- 72.142
5.75 --undefined-- 68.821
5.76 --undefined-- 63.345
5.77 --undefined-- 57.088
5.78 --undefined-- 50.654
5.79 --undefined-- 48.506
5.80 --undefined-- 52.778
5.81 --undefined-- 56.746
5.82 --undefined-- 60.498
5.83 --undefined-- 63.158
5.84 --undefined-- --undefined--
5.85 --undefined-- --undefined--
5.86 --undefined-- --undefined--
5.87 --undefined-- --undefined--
