Time Pitch Intensity
0.01 --undefined-- --undefined--
0.02 --undefined-- --undefined--
0.03 155.622 --undefined--
0.04 155.282 --undefined--
0.05 156.026 69.021
0.06 154.573 69.190
0.07 152.096 68.672
0.08 151.477 68.296
0.09 152.463 68.204
0.10 153.917 68.146
0.11 156.142 68.214
0.12 157.460 68.259
0.13 159.197 68.029
0.14 159.101 67.588
0.15 158.030 67.130
0.16 157.748 66.209
0.17 155.109 63.845
0.18 147.442 59.315
0.19 --undefined-- 53.260
0.20 --undefined-- 50.116
0.21 --undefined-- 48.850
0.22 --undefined-- 46.215
0.23 --undefined-- 44.184
0.24 --undefined-- 44.386
0.25 --undefined-- 45.361
0.26 --undefined-- 46.292
0.27 --undefined-- 50.812
0.28 --undefined-- 58.134
0.29 225.675 62.546
0.30 221.618 64.479
0.31 207.660 65.306
0.32 198.401 65.887
0.33 196.031 66.153
0.34 195.143 66.104
0.35 194.229 65.933
0.36 192.035 65.912
0.37 189.731 66.206
0.38 187.944 66.677
0.39 187.379 67.081
0.40 184.832 67.279
0.41 183.423 67.291
0.42 183.730 67.359
0.43 185.153 67.378
0.44 184.395 66.488
0.45 182.173 63.768
0.46 185.614 58.901
0.47 179.800 53.757
0.48 --undefined-- 55.229
0.49 --undefined-- 57.841
0.50 --undefined-- 58.770
0.51 --undefined-- 60.939
0.52 199.188 64.373
0.53 195.862 66.827
0.54 191.055 67.956
0.55 186.641 67.908
0.56 183.251 67.195
0.57 181.986 66.632
0.58 180.112 66.443
0.59 180.869 66.517
0.60 181.327 66.651
0.61 181.547 66.836
0.62 182.715 67.057
0.63 184.309 67.191
0.64 185.246 66.925
0.65 185.961 66.160
0.66 187.322 65.592
0.67 189.112 65.550
0.68 189.046 65.299
0.69 187.140 64.310
0.70 185.461 61.852
0.71 188.000 57.167
0.72 --undefined-- 50.968
0.73 --undefined-- 47.750
0.74 --undefined-- 46.684
0.75 --undefined-- 46.593
0.76 --undefined-- 48.718
0.77 --undefined-- 49.470
0.78 --undefined-- 49.650
0.79 --undefined-- 50.451
0.80 --undefined-- 52.462
0.81 258.128 56.852
0.82 272.798 61.205
0.83 284.553 64.116
0.84 290.054 66.078
0.85 291.068 67.616
0.86 289.076 67.635
0.87 285.546 64.844
0.88 288.632 59.231
0.89 288.130 54.883
0.90 287.704 54.085
0.91 291.901 52.573
0.92 --undefined-- 50.076
0.93 --undefined-- 50.052
0.94 --undefined-- 52.899
0.95 --undefined-- 53.434
0.96 --undefined-- 51.203
0.97 --undefined-- 50.357
0.98 --undefined-- 51.878
0.99 --undefined-- 53.856
1.00 --undefined-- 54.298
1.01 --undefined-- 51.794
1.02 --undefined-- 49.521
1.03 --undefined-- 51.832
1.04 --undefined-- 57.378
1.05 --undefined-- 62.300
1.06 --undefined-- 65.015
1.07 164.183 65.874
1.08 163.171 65.712
1.09 163.699 65.492
1.10 167.295 65.228
1.11 167.675 64.661
1.12 167.919 64.180
1.13 167.062 63.937
1.14 165.999 63.868
1.15 164.358 64.109
1.16 165.042 64.591
1.17 166.143 64.962
1.18 167.152 64.915
1.19 168.142 63.835
1.20 164.807 60.876
1.21 159.543 55.851
1.22 --undefined-- 52.733
1.23 --undefined-- 53.479
1.24 --undefined-- 52.123
1.25 --undefined-- 52.019
1.26 --undefined-- 58.937
1.27 229.212 63.925
1.28 234.562 66.382
1.29 236.244 67.213
1.30 237.210 67.101
1.31 238.068 66.108
1.32 239.046 63.715
1.33 235.385 59.457
1.34 237.541 53.293
1.35 --undefined-- 46.576
1.36 --undefined-- 43.746
1.37 --undefined-- 44.859
1.38 --undefined-- 46.394
1.39 --undefined-- 50.759
1.40 --undefined-- 57.858
1.41 249.147 63.841
1.42 244.200 67.293
1.43 239.952 68.586
1.44 239.070 68.365
1.45 240.871 67.175
1.46 243.490 65.601
1.47 246.949 64.392
1.48 250.721 64.078
1.49 251.484 64.072
1.50 250.838 63.963
1.51 249.666 63.872
1.52 247.276 63.757
1.53 242.369 63.703
1.54 236.001 63.746
1.55 227.624 63.390
1.56 216.011 61.932
1.57 193.475 59.996
1.58 179.570 60.495
1.59 171.926 63.293
1.60 166.843 65.676
1.61 163.413 66.648
1.62 170.581 66.536
1.63 171.684 65.858
1.64 170.613 65.067
1.65 171.357 64.804
1.66 173.628 64.824
1.67 172.513 64.803
1.68 173.340 64.062
1.69 177.052 61.943
1.70 181.999 60.047
1.71 191.183 61.124
1.72 200.660 62.251
1.73 209.076 62.465
1.74 213.393 62.667
1.75 220.216 63.587
1.76 220.748 64.979
1.77 218.985 66.175
1.78 213.220 67.325
1.79 206.718 68.830
1.80 198.898 70.462
1.81 191.191 71.681
1.82 182.223 71.963
1.83 170.902 71.273
1.84 165.931 69.819
1.85 160.551 67.369
1.86 156.133 63.639
1.87 --undefined-- 58.898
1.88 --undefined-- 54.556
1.89 --undefined-- 52.227
1.90 --undefined-- 53.195
1.91 --undefined-- 54.646
1.92 --undefined-- 53.965
1.93 --undefined-- 53.290
1.94 --undefined-- 54.848
1.95 --undefined-- 54.940
1.96 --undefined-- 53.926
1.97 --undefined-- 53.353
1.98 --undefined-- 52.644
1.99 --undefined-- 51.641
2.00 --undefined-- 50.917
2.01 --undefined-- 50.470
2.02 --undefined-- 50.173
2.03 --undefined-- 48.943
2.04 --undefined-- 47.687
2.05 --undefined-- 48.258
2.06 --undefined-- 48.034
2.07 --undefined-- 46.841
2.08 --undefined-- 48.312
2.09 --undefined-- 50.819
2.10 --undefined-- 50.718
2.11 --undefined-- 49.294
2.12 --undefined-- 49.983
2.13 --undefined-- 49.524
2.14 --undefined-- 49.410
2.15 --undefined-- 53.119
2.16 --undefined-- 56.051
2.17 --undefined-- 56.182
2.18 --undefined-- 56.241
2.19 --undefined-- 62.844
2.20 162.206 68.209
2.21 162.943 70.879
2.22 164.905 71.797
2.23 167.663 72.015
2.24 169.184 72.229
2.25 169.081 72.652
2.26 169.207 73.100
2.27 168.540 73.315
2.28 168.116 73.350
2.29 168.608 73.257
2.30 169.207 72.913
2.31 168.326 72.003
2.32 165.192 70.065
2.33 160.089 66.853
2.34 166.478 63.111
2.35 170.271 60.493
2.36 169.717 57.843
2.37 --undefined-- 55.767
2.38 --undefined-- 55.000
2.39 --undefined-- 52.203
2.40 --undefined-- 48.713
2.41 --undefined-- 50.983
2.42 --undefined-- 56.222
2.43 --undefined-- 61.797
2.44 210.566 65.967
2.45 210.101 67.738
2.46 211.096 67.965
2.47 210.240 67.953
2.48 207.488 67.831
2.49 202.521 67.839
2.50 196.044 68.333
2.51 185.081 68.393
2.52 176.709 67.050
2.53 161.550 65.223
2.54 157.325 65.177
2.55 296.463 65.669
2.56 272.152 65.467
2.57 252.972 65.316
2.58 233.654 66.820
2.59 220.616 68.493
2.60 209.314 69.113
2.61 198.452 69.639
2.62 189.996 70.624
2.63 186.140 71.079
2.64 182.988 69.961
2.65 180.150 67.040
2.66 166.092 63.532
2.67 166.083 60.859
2.68 --undefined-- 58.220
2.69 --undefined-- 56.136
2.70 --undefined-- 56.029
2.71 --undefined-- 56.771
2.72 --undefined-- 57.182
2.73 --undefined-- 57.789
2.74 --undefined-- 58.455
2.75 --undefined-- 59.088
2.76 169.534 60.648
2.77 173.693 62.759
2.78 173.543 64.360
2.79 169.323 65.062
2.80 166.634 65.661
2.81 165.272 66.361
2.82 163.657 66.461
2.83 161.900 66.103
2.84 161.267 65.789
2.85 160.342 65.461
2.86 159.482 64.984
2.87 159.434 64.529
2.88 162.251 64.375
2.89 163.818 64.625
2.90 165.297 65.278
2.91 164.777 66.111
2.92 164.750 66.715
2.93 164.613 66.533
2.94 158.938 65.594
2.95 164.885 65.105
2.96 164.751 65.318
2.97 163.150 65.685
2.98 161.896 65.912
2.99 161.008 65.644
3.00 160.106 65.091
3.01 165.621 65.667
3.02 164.584 66.621
3.03 164.068 66.543
3.04 164.859 66.141
3.05 165.053 66.058
3.06 165.290 66.055
3.07 166.526 66.083
3.08 166.886 66.114
3.09 166.903 65.891
3.10 166.053 65.104
3.11 163.676 64.087
3.12 164.679 63.428
3.13 167.150 62.574
3.14 168.341 61.124
3.15 170.866 58.953
3.16 166.320 55.793
3.17 176.594 54.525
3.18 189.156 57.385
3.19 192.048 59.953
3.20 206.266 61.505
3.21 223.980 62.940
3.22 212.683 64.547
3.23 197.851 65.886
3.24 194.752 66.426
3.25 192.767 66.143
3.26 190.311 65.079
3.27 185.824 62.790
3.28 183.415 58.935
3.29 189.257 55.167
3.30 --undefined-- 54.733
3.31 --undefined-- 54.187
3.32 --undefined-- 52.659
3.33 --undefined-- 51.393
3.34 --undefined-- 49.678
3.35 --undefined-- 48.311
3.36 --undefined-- 48.706
3.37 --undefined-- 50.081
3.38 --undefined-- 52.464
3.39 --undefined-- 58.214
3.40 222.247 63.185
3.41 213.522 66.082
3.42 211.275 67.926
3.43 211.853 69.401
3.44 212.653 70.355
3.45 212.405 70.424
3.46 208.763 69.304
3.47 --undefined-- 67.015
3.48 --undefined-- 63.592
3.49 --undefined-- 59.111
3.50 --undefined-- 55.070
3.51 --undefined-- 53.131
3.52 --undefined-- 54.050
3.53 --undefined-- 53.909
3.54 --undefined-- 51.723
3.55 --undefined-- 51.457
3.56 --undefined-- 51.874
3.57 --undefined-- 52.072
3.58 --undefined-- 53.263
3.59 --undefined-- 54.964
3.60 --undefined-- 56.913
3.61 215.468 59.367
3.62 225.901 61.715
3.63 --undefined-- 63.030
3.64 --undefined-- 63.478
3.65 --undefined-- 62.860
3.66 --undefined-- 60.878
3.67 --undefined-- 58.061
3.68 118.945 55.580
3.69 120.006 54.849
3.70 --undefined-- 54.787
3.71 --undefined-- 55.290
3.72 --undefined-- 55.915
3.73 --undefined-- 56.044
3.74 196.432 56.498
3.75 185.765 57.027
3.76 185.386 57.520
3.77 189.211 58.078
3.78 190.396 59.143
3.79 193.704 60.589
3.80 196.181 62.438
3.81 193.097 64.310
3.82 185.857 65.713
3.83 180.246 66.335
3.84 176.412 66.154
3.85 173.956 65.835
3.86 171.666 66.007
3.87 170.034 66.302
3.88 169.288 66.298
3.89 169.389 66.046
3.90 170.406 65.595
3.91 170.528 64.869
3.92 171.277 63.676
3.93 173.523 61.896
3.94 176.888 60.408
3.95 182.372 59.129
3.96 166.703 56.695
3.97 165.104 54.201
3.98 --undefined-- 55.226
3.99 288.767 56.015
4.00 296.583 54.609
4.01 208.768 54.435
4.02 207.592 55.178
4.03 206.300 57.913
4.04 203.343 62.873
4.05 187.386 66.830
4.06 180.939 68.998
4.07 176.658 69.825
4.08 172.480 70.233
4.09 170.565 70.373
4.10 169.737 69.871
4.11 170.085 68.658
4.12 171.892 66.883
4.13 173.078 64.880
4.14 173.865 63.136
4.15 173.225 62.086
4.16 174.465 61.708
4.17 174.711 61.829
4.18 175.521 61.608
4.19 176.814 61.114
4.20 178.228 60.987
4.21 179.064 61.046
4.22 180.932 61.184
4.23 184.042 61.573
4.24 186.418 62.114
4.25 187.968 62.650
4.26 190.717 63.342
4.27 191.710 63.747
4.28 191.817 63.592
4.29 190.829 63.982
4.30 184.228 65.925
4.31 181.641 68.474
4.32 178.895 70.453
4.33 176.384 71.934
4.34 173.941 72.784
4.35 172.074 72.482
4.36 171.976 71.761
4.37 171.026 71.490
4.38 139.830 69.800
4.39 --undefined-- 65.745
4.40 --undefined-- 60.952
4.41 --undefined-- 56.360
4.42 --undefined-- 52.404
4.43 --undefined-- 51.711
4.44 --undefined-- 51.383
4.45 --undefined-- 49.364
4.46 --undefined-- 48.529
4.47 --undefined-- 48.351
4.48 --undefined-- 48.001
4.49 --undefined-- 49.228
4.50 --undefined-- 50.902
4.51 --undefined-- 51.319
4.52 --undefined-- 51.940
4.53 --undefined-- 52.705
4.54 --undefined-- 53.268
4.55 --undefined-- 54.155
4.56 --undefined-- 53.334
4.57 --undefined-- 50.434
4.58 --undefined-- 51.632
4.59 252.794 57.009
4.60 239.583 60.664
4.61 241.705 62.440
4.62 247.968 63.302
4.63 251.469 63.929
4.64 254.034 64.658
4.65 254.303 65.225
4.66 253.552 64.868
4.67 246.517 62.695
4.68 228.545 57.996
4.69 --undefined-- 51.573
4.70 --undefined-- 48.975
4.71 --undefined-- 50.485
4.72 --undefined-- 54.492
4.73 --undefined-- 61.272
4.74 224.562 66.490
4.75 213.781 69.959
4.76 204.949 72.070
4.77 202.618 72.755
4.78 203.989 72.613
4.79 204.752 72.000
4.80 204.836 70.476
4.81 204.418 68.686
4.82 201.431 68.468
4.83 196.028 69.689
4.84 193.534 70.731
4.85 190.989 70.963
4.86 188.252 70.295
4.87 184.836 68.627
4.88 179.209 66.002
4.89 170.040 63.210
4.90 177.839 63.947
4.91 179.114 66.647
4.92 179.087 68.026
4.93 177.094 68.234
4.94 176.062 67.999
4.95 176.450 67.768
4.96 177.265 67.716
4.97 178.992 68.026
4.98 183.892 68.447
4.99 186.448 68.584
5.00 191.387 --undefined--
5.01 196.908 --undefined--
5.02 --undefined-- --undefined--
5.03 --undefined-- --undefined--
