Time Pitch Intensity
0.01 --undefined-- --undefined--
0.02 --undefined-- --undefined--
0.03 --undefined-- --undefined--
0.04 --undefined-- --undefined--
0.05 --undefined-- 49.168
0.06 --undefined-- 47.503
0.07 --undefined-- 46.286
0.08 --undefined-- 44.884
0.09 --undefined-- 44.917
0.10 --undefined-- 44.611
0.11 --undefined-- 42.385
0.12 --undefined-- 40.492
0.13 --undefined-- 40.980
0.14 --undefined-- 47.114
0.15 --undefined-- 56.807
0.16 209.064 64.176
0.17 194.976 69.124
0.18 188.245 71.740
0.19 187.585 72.751
0.20 188.500 73.175
0.21 188.089 73.330
0.22 186.856 73.276
0.23 186.101 73.213
0.24 185.400 72.900
0.25 184.600 72.225
0.26 185.423 71.435
0.27 186.546 70.446
0.28 184.250 68.503
0.29 182.268 64.729
0.30 --undefined-- 58.432
0.31 --undefined-- 51.106
0.32 --undefined-- 48.179
0.33 --undefined-- 47.282
0.34 --undefined-- 46.392
0.35 --undefined-- 45.454
0.36 --undefined-- 45.370
0.37 --undefined-- 46.787
0.38 --undefined-- 52.331
0.39 --undefined-- 61.368
0.40 235.834 67.933
0.41 233.103 71.854
0.42 234.450 73.801
0.43 234.312 74.571
0.44 232.277 74.722
0.45 229.491 74.423
0.46 226.337 73.608
0.47 222.870 72.197
0.48 217.938 70.294
0.49 205.078 67.823
0.50 192.426 64.141
0.51 202.405 58.435
0.52 --undefined-- 50.618
0.53 --undefined-- 44.306
0.54 --undefined-- 44.466
0.55 --undefined-- 45.919
0.56 --undefined-- 53.112
0.57 242.194 62.568
0.58 227.188 68.643
0.59 213.483 71.976
0.60 211.676 73.538
0.61 209.929 73.996
0.62 206.632 73.687
0.63 206.201 73.068
0.64 207.669 72.632
0.65 209.771 72.281
0.66 212.303 71.633
0.67 213.434 70.650
0.68 218.348 70.214
0.69 225.308 70.402
0.70 231.699 70.387
0.71 239.056 70.314
0.72 245.774 70.611
0.73 252.305 70.943
0.74 259.147 70.770
0.75 267.597 70.290
0.76 278.229 70.785
0.77 281.990 72.140
0.78 284.667 72.781
0.79 287.051 72.618
0.80 289.372 72.159
0.81 291.591 71.626
0.82 291.839 71.182
0.83 290.501 71.155
0.84 288.590 71.552
0.85 285.782 72.095
0.86 281.005 72.722
0.87 273.509 73.384
0.88 265.376 73.996
0.89 255.144 74.439
0.90 245.115 74.294
0.91 232.394 73.492
0.92 221.049 72.327
0.93 215.784 70.316
0.94 207.838 66.702
0.95 195.954 61.907
0.96 198.680 56.812
0.97 220.924 51.483
0.98 --undefined-- 46.600
0.99 --undefined-- 43.404
1.00 --undefined-- 42.110
1.01 --undefined-- 40.630
1.02 --undefined-- 39.689
1.03 --undefined-- 39.561
1.04 --undefined-- 46.402
1.05 --undefined-- 57.294
1.06 --undefined-- 65.164
1.07 245.903 69.684
1.08 242.096 71.594
1.09 241.179 71.867
1.10 242.319 71.832
1.11 244.993 72.063
1.12 247.105 72.317
1.13 249.389 72.403
1.14 250.150 72.445
1.15 250.189 72.495
1.16 249.785 72.433
1.17 249.365 72.204
1.18 249.084 71.838
1.19 250.338 71.434
1.20 250.885 70.915
1.21 252.646 70.051
1.22 255.147 68.755
1.23 256.641 67.221
1.24 258.714 65.868
1.25 259.856 64.746
1.26 260.312 63.558
1.27 259.922 62.398
1.28 259.164 61.523
1.29 254.668 61.301
1.30 247.424 62.076
1.31 255.546 63.184
1.32 250.868 64.288
1.33 247.383 65.596
1.34 242.253 66.936
1.35 236.583 68.184
1.36 228.589 69.214
1.37 221.155 69.849
1.38 203.849 70.361
1.39 193.791 71.031
1.40 187.105 71.404
1.41 178.956 71.364
1.42 175.284 71.282
1.43 173.336 71.338
1.44 172.592 71.461
1.45 170.398 71.647
1.46 170.058 71.974
1.47 167.690 72.227
1.48 167.040 72.163
1.49 168.389 71.815
1.50 169.303 71.340
1.51 168.867 71.012
1.52 167.631 70.988
1.53 169.227 71.170
1.54 172.267 71.449
1.55 175.046 72.102
1.56 181.056 72.731
1.57 170.958 72.664
1.58 167.428 72.324
1.59 165.891 71.729
1.60 165.067 70.290
1.61 163.709 68.075
1.62 172.014 66.533
1.63 176.268 66.399
1.64 181.318 66.793
1.65 185.458 67.524
1.66 189.273 68.325
1.67 194.102 68.996
1.68 198.750 69.776
1.69 207.449 70.876
1.70 215.630 71.609
1.71 226.642 71.518
1.72 233.422 71.260
1.73 231.749 71.399
1.74 226.643 71.437
1.75 217.313 71.279
1.76 205.281 71.533
1.77 199.638 72.085
1.78 196.435 72.213
1.79 195.974 71.874
1.80 198.242 71.569
1.81 201.122 71.702
1.82 204.145 72.108
1.83 206.550 72.351
1.84 208.775 71.896
1.85 208.024 70.145
1.86 199.577 67.144
1.87 200.381 63.461
1.88 201.107 58.776
1.89 189.889 53.589
1.90 --undefined-- 54.204
1.91 --undefined-- 61.111
1.92 228.627 67.541
1.93 217.103 71.316
1.94 208.776 72.946
1.95 202.818 73.271
1.96 199.445 73.013
1.97 198.455 72.832
1.98 200.107 73.000
1.99 202.109 73.193
2.00 203.822 72.954
2.01 204.024 71.617
2.02 201.120 68.576
2.03 200.137 63.720
2.04 201.471 57.465
2.05 201.792 51.321
2.06 204.354 49.037
2.07 198.430 48.755
2.08 --undefined-- 48.622
2.09 --undefined-- 50.420
2.10 --undefined-- 53.335
2.11 --undefined-- 55.472
2.12 --undefined-- 57.681
2.13 --undefined-- 59.983
2.14 --undefined-- 60.642
2.15 --undefined-- 60.012
2.16 --undefined-- 59.478
2.17 --undefined-- 60.819
2.18 188.995 64.270
2.19 180.980 66.724
2.20 175.493 67.811
2.21 170.969 68.365
2.22 168.903 68.908
2.23 167.859 69.274
2.24 166.992 69.317
2.25 166.100 69.170
2.26 165.263 68.925
2.27 164.734 68.594
2.28 163.899 68.382
2.29 164.915 68.261
2.30 164.454 68.105
2.31 164.584 67.969
2.32 164.999 67.946
2.33 165.088 68.017
2.34 164.822 68.107
2.35 164.642 68.256
2.36 164.997 68.402
2.37 164.887 68.472
2.38 164.732 68.212
2.39 161.985 67.325
2.40 157.307 65.436
2.41 151.426 62.285
2.42 153.038 58.296
2.43 160.500 54.064
2.44 162.076 50.316
2.45 --undefined-- 48.676
2.46 --undefined-- 50.542
2.47 --undefined-- 55.361
2.48 --undefined-- 59.982
2.49 --undefined-- 62.627
2.50 --undefined-- 65.853
2.51 270.711 70.278
2.52 268.539 72.779
2.53 269.670 73.221
2.54 270.614 72.642
2.55 270.556 72.125
2.56 271.607 71.798
2.57 271.767 71.397
2.58 272.181 70.979
2.59 276.411 70.827
2.60 279.003 70.832
2.61 281.911 70.710
2.62 285.764 70.517
2.63 288.742 70.365
2.64 290.537 70.318
2.65 290.603 70.389
2.66 290.199 70.366
2.67 288.945 69.935
2.68 283.789 68.836
2.69 275.797 66.685
2.70 266.945 62.892
2.71 263.872 57.147
2.72 --undefined-- 55.931
2.73 --undefined-- 60.996
2.74 --undefined-- 64.806
2.75 258.150 68.438
2.76 244.653 71.018
2.77 231.329 72.407
2.78 222.520 73.247
2.79 214.145 73.540
2.80 205.312 73.253
2.81 197.961 72.364
2.82 190.035 70.944
2.83 184.813 69.757
2.84 183.639 69.256
2.85 180.966 69.046
2.86 179.754 69.132
2.87 178.955 69.392
2.88 177.222 69.454
2.89 175.585 69.331
2.90 174.391 69.151
2.91 171.444 68.587
2.92 167.100 67.002
2.93 160.342 63.829
2.94 148.189 58.897
2.95 158.694 55.084
2.96 165.823 57.646
2.97 --undefined-- 61.027
2.98 --undefined-- 65.404
2.99 172.981 69.984
3.00 172.327 72.289
3.01 165.270 72.349
3.02 156.395 71.110
3.03 154.521 69.610
3.04 156.289 68.540
3.05 160.584 68.182
3.06 165.077 68.312
3.07 168.713 68.516
3.08 173.220 68.665
3.09 178.675 68.947
3.10 183.487 69.683
3.11 187.122 70.616
3.12 190.924 71.173
3.13 197.538 71.056
3.14 208.185 70.085
3.15 211.257 67.960
3.16 208.258 64.664
3.17 234.147 61.540
3.18 235.548 58.936
3.19 --undefined-- 56.017
3.20 --undefined-- 55.040
3.21 --undefined-- 55.905
3.22 --undefined-- 58.839
3.23 --undefined-- 61.490
3.24 --undefined-- 62.490
3.25 --undefined-- 62.679
3.26 --undefined-- 62.384
3.27 266.237 64.873
3.28 256.757 68.918
3.29 253.104 71.198
3.30 251.261 72.154
3.31 250.410 72.520
3.32 249.420 72.616
3.33 248.664 72.613
3.34 249.399 72.488
3.35 248.940 72.072
3.36 245.822 71.012
3.37 241.524 68.525
3.38 233.899 63.687
3.39 --undefined-- 56.038
3.40 --undefined-- 48.330
3.41 --undefined-- 45.508
3.42 --undefined-- 50.537
3.43 --undefined-- 59.097
3.44 --undefined-- 64.887
3.45 --undefined-- 69.187
3.46 222.146 72.250
3.47 212.690 73.486
3.48 200.599 73.577
3.49 196.408 73.540
3.50 193.623 73.401
3.51 191.405 73.016
3.52 189.898 72.636
3.53 189.144 72.278
3.54 188.259 71.865
3.55 187.458 71.554
3.56 186.551 71.303
3.57 185.060 71.000
3.58 184.164 70.934
3.59 182.938 71.237
3.60 179.860 71.550
3.61 176.933 71.523
3.62 176.566 70.857
3.63 178.611 69.160
3.64 176.759 66.359
3.65 165.120 62.984
3.66 164.167 59.278
3.67 155.771 54.416
3.68 --undefined-- 49.017
3.69 --undefined-- 46.792
3.70 --undefined-- 45.731
3.71 --undefined-- 43.935
3.72 --undefined-- 43.089
3.73 --undefined-- 44.736
3.74 --undefined-- 48.862
3.75 --undefined-- 54.488
3.76 --undefined-- 61.351
3.77 171.110 67.396
3.78 172.699 71.086
3.79 172.150 72.688
3.80 170.226 73.091
3.81 168.964 73.111
3.82 168.417 72.817
3.83 167.112 72.029
3.84 164.752 70.892
3.85 162.903 69.646
3.86 160.329 68.021
3.87 155.818 65.237
3.88 143.968 60.831
3.89 165.374 55.056
3.90 166.210 49.521
3.91 163.790 47.148
3.92 --undefined-- 45.681
3.93 --undefined-- 44.812
3.94 --undefined-- 45.689
3.95 --undefined-- 51.191
3.96 --undefined-- 59.005
3.97 164.245 64.627
3.98 160.733 68.330
3.99 164.381 70.672
4.00 167.902 71.741
4.01 173.302 71.632
4.02 183.575 70.908
4.03 194.842 70.775
4.04 198.828 71.238
4.05 205.639 71.755
4.06 209.802 72.179
4.07 214.254 72.211
4.08 218.599 72.029
4.09 221.805 72.327
4.10 222.375 73.195
4.11 222.258 73.748
4.12 219.474 73.584
4.13 213.929 73.047
4.14 209.066 72.810
4.15 203.689 72.810
4.16 195.717 72.317
4.17 183.842 71.413
4.18 174.606 70.470
4.19 162.982 69.408
4.20 147.391 68.376
4.21 135.295 67.574
4.22 128.050 66.961
4.23 125.468 66.311
4.24 118.200 65.325
4.25 104.385 63.743
4.26 94.837 62.181
4.27 93.254 61.659
4.28 98.008 62.194
4.29 109.797 63.254
4.30 126.345 63.685
4.31 141.759 63.336
4.32 146.743 62.411
4.33 152.915 60.280
4.34 --undefined-- 56.141
4.35 --undefined-- 52.139
4.36 --undefined-- 56.946
4.37 --undefined-- 62.872
4.38 189.259 68.000
4.39 181.134 71.106
4.40 175.759 72.115
4.41 171.831 72.303
4.42 170.561 72.490
4.43 169.808 72.622
4.44 169.454 72.654
4.45 169.277 72.526
4.46 169.217 72.263
4.47 168.804 72.018
4.48 168.573 71.462
4.49 168.266 69.482
4.50 167.195 64.866
4.51 168.006 57.253
4.52 167.493 50.447
4.53 168.521 47.558
4.54 --undefined-- 44.507
4.55 --undefined-- 41.694
4.56 --undefined-- 40.368
4.57 --undefined-- 42.161
4.58 --undefined-- 54.073
4.59 --undefined-- 64.184
4.60 --undefined-- 70.184
4.61 185.335 72.731
4.62 181.212 73.134
4.63 178.621 72.869
4.64 176.125 72.592
4.65 173.333 72.211
4.66 171.812 71.828
4.67 171.305 71.695
4.68 172.152 71.782
4.69 173.974 71.842
4.70 176.881 71.655
4.71 180.936 71.309
4.72 183.528 71.023
4.73 184.608 70.468
4.74 183.829 69.141
4.75 180.446 66.782
4.76 175.299 63.245
4.77 173.977 58.511
4.78 --undefined-- 53.396
4.79 --undefined-- 50.472
4.80 --undefined-- 50.155
4.81 --undefined-- 50.429
4.82 --undefined-- 51.083
4.83 --undefined-- 52.593
4.84 --undefined-- 53.953
4.85 --undefined-- 55.142
4.86 --undefined-- 56.478
4.87 --undefined-- 57.363
4.88 --undefined-- 60.335
4.89 256.680 65.839
4.90 245.425 69.821
4.91 246.060 72.072
4.92 248.665 73.212
4.93 249.545 73.731
4.94 248.842 73.905
4.95 247.578 73.940
4.96 247.281 73.898
4.97 247.594 73.833
4.98 248.387 73.806
4.99 248.514 73.719
5.00 247.502 73.060
5.01 245.610 70.989
5.02 232.209 67.060
5.03 211.174 61.716
5.04 210.983 55.740
5.05 --undefined-- 49.815
5.06 --undefined-- 44.412
5.07 --undefined-- 41.405
5.08 --undefined-- 40.844
5.09 --undefined-- 40.520
5.10 --undefined-- 39.340
5.11 --undefined-- 38.674
5.12 --undefined-- 43.609
5.13 --undefined-- 56.521
5.14 --undefined-- 66.080
5.15 --undefined-- 71.180
5.16 186.453 72.871
5.17 177.001 72.335
5.18 170.433 --undefined--
5.19 164.016 --undefined--
5.20 --undefined-- --undefined--
5.21 --undefined-- --undefined--
