Time Pitch Intensity
0.01 --undefined-- --undefined--
0.02 --undefined-- --undefined--
0.03 --undefined-- --undefined--
0.04 104.666 --undefined--
0.05 104.908 61.463
0.06 --undefined-- 65.929
0.07 120.233 68.928
0.08 121.466 70.482
0.09 120.636 71.419
0.10 114.464 72.136
0.11 112.581 72.136
0.12 110.693 71.373
0.13 110.059 70.546
0.14 107.224 69.960
0.15 107.042 69.099
0.16 108.363 68.240
0.17 115.920 68.397
0.18 122.046 68.987
0.19 125.609 69.325
0.20 128.839 69.318
0.21 130.858 68.908
0.22 131.746 68.021
0.23 130.454 66.269
0.24 124.785 63.132
0.25 117.308 58.833
0.26 --undefined-- 54.702
0.27 --undefined-- 56.850
0.28 --undefined-- 65.505
0.29 --undefined-- 71.166
0.30 132.501 73.942
0.31 127.918 74.802
0.32 121.305 74.602
0.33 118.241 73.939
0.34 119.692 73.422
0.35 122.027 73.252
0.36 120.821 73.337
0.37 117.081 73.406
0.38 115.540 73.238
0.39 114.401 72.525
0.40 112.982 70.550
0.41 99.721 66.369
0.42 105.291 60.096
0.43 --undefined-- 54.155
0.44 --undefined-- 50.572
0.45 --undefined-- 51.835
0.46 --undefined-- 56.480
0.47 --undefined-- 63.780
0.48 --undefined-- 69.113
0.49 121.391 71.698
0.50 117.426 72.554
0.51 112.131 72.495
0.52 108.307 71.961
0.53 109.437 71.614
0.54 113.855 71.607
0.55 118.395 71.996
0.56 119.630 72.655
0.57 121.528 73.012
0.58 124.346 72.547
0.59 125.516 70.725
0.60 118.686 66.968
0.61 118.683 61.416
0.62 124.063 55.672
0.63 --undefined-- 51.027
0.64 --undefined-- 58.761
0.65 200.650 68.028
0.66 186.746 73.128
0.67 173.229 74.738
0.68 159.984 73.851
0.69 151.661 71.902
0.70 145.236 69.419
0.71 136.010 65.939
0.72 130.252 61.751
0.73 125.400 58.042
0.74 131.213 55.073
0.75 --undefined-- 51.582
0.76 --undefined-- 48.788
0.77 --undefined-- 47.450
0.78 --undefined-- 45.712
0.79 --undefined-- 43.709
0.80 --undefined-- 43.090
0.81 --undefined-- 43.792
0.82 --undefined-- 50.662
0.83 --undefined-- 59.614
0.84 --undefined-- 65.329
0.85 128.707 68.411
0.86 122.283 70.020
0.87 119.007 71.001
0.88 116.683 71.548
0.89 115.474 71.651
0.90 114.643 71.268
0.91 114.063 69.938
0.92 109.075 66.624
0.93 95.585 60.729
0.94 --undefined-- 53.301
0.95 --undefined-- 48.996
0.96 --undefined-- 57.118
0.97 --undefined-- 65.931
0.98 --undefined-- 71.220
0.99 141.226 73.851
1.00 134.348 74.863
1.01 129.424 75.234
1.02 128.935 75.735
1.03 128.514 76.214
1.04 127.903 76.305
1.05 128.481 76.078
1.06 129.775 75.610
1.07 132.233 75.027
1.08 133.769 74.435
1.09 135.749 74.038
1.10 138.007 73.924
1.11 139.772 73.816
1.12 140.084 73.145
1.13 139.421 71.400
1.14 137.765 68.376
1.15 131.480 64.155
1.16 --undefined-- 58.801
1.17 --undefined-- 52.492
1.18 --undefined-- 46.519
1.19 --undefined-- 42.308
1.20 --undefined-- 40.980
1.21 --undefined-- 39.974
1.22 --undefined-- 37.774
1.23 --undefined-- 36.445
1.24 --undefined-- 37.337
1.25 --undefined-- 37.994
1.26 --undefined-- 38.406
1.27 --undefined-- 39.376
1.28 --undefined-- 40.484
1.29 --undefined-- 41.611
1.30 --undefined-- 43.251
1.31 --undefined-- 43.438
1.32 --undefined-- 41.306
1.33 --undefined-- 39.159
1.34 --undefined-- 37.995
1.35 --undefined-- 37.126
1.36 --undefined-- 37.336
1.37 --undefined-- 38.265
1.38 --undefined-- 38.583
1.39 --undefined-- 38.634
1.40 --undefined-- 39.016
1.41 --undefined-- 39.460
1.42 --undefined-- 39.937
1.43 --undefined-- 40.227
1.44 --undefined-- 40.125
1.45 --undefined-- 40.345
1.46 --undefined-- 40.988
1.47 --undefined-- 41.321
1.48 --undefined-- 41.328
1.49 --undefined-- 41.092
1.50 --undefined-- 41.085
1.51 --undefined-- 41.160
1.52 --undefined-- 40.728
1.53 --undefined-- 39.852
1.54 --undefined-- 39.214
1.55 --undefined-- 38.469
1.56 --undefined-- 37.225
1.57 --undefined-- 36.605
1.58 --undefined-- 36.614
1.59 --undefined-- 36.291
1.60 --undefined-- 37.526
1.61 --undefined-- 38.798
1.62 --undefined-- 38.507
1.63 --undefined-- 37.767
1.64 --undefined-- 37.142
1.65 --undefined-- 42.328
1.66 --undefined-- 52.636
1.67 --undefined-- 59.927
1.68 --undefined-- 63.236
1.69 --undefined-- 62.954
1.70 --undefined-- 61.991
1.71 --undefined-- 68.103
1.72 173.113 74.428
1.73 163.504 78.019
1.74 160.616 79.432
1.75 163.707 79.492
1.76 171.435 79.225
1.77 174.977 78.640
1.78 174.716 76.287
1.79 156.817 71.189
1.80 144.820 66.876
1.81 187.536 72.265
1.82 179.258 76.972
1.83 170.632 78.773
1.84 162.130 78.326
1.85 156.908 76.337
1.86 149.186 72.738
1.87 130.531 67.140
1.88 117.204 60.734
1.89 --undefined-- 56.249
1.90 --undefined-- 55.936
1.91 --undefined-- 62.299
1.92 --undefined-- 69.255
1.93 182.972 73.786
1.94 173.223 76.450
1.95 171.345 78.271
1.96 168.498 79.067
1.97 165.242 77.922
1.98 156.837 74.529
1.99 155.907 70.968
2.00 153.094 70.393
2.01 156.592 70.841
2.02 156.129 71.132
2.03 154.964 71.860
2.04 157.471 74.234
2.05 145.639 77.281
2.06 140.957 79.271
2.07 137.330 79.505
2.08 132.285 77.813
2.09 126.128 74.182
2.10 115.266 68.682
2.11 113.044 61.717
2.12 --undefined-- 54.515
2.13 --undefined-- 53.634
2.14 --undefined-- 57.966
2.15 --undefined-- 60.192
2.16 --undefined-- 58.607
2.17 --undefined-- 52.837
2.18 --undefined-- 44.424
2.19 --undefined-- 40.967
2.20 --undefined-- 40.937
2.21 --undefined-- 53.146
2.22 --undefined-- 64.861
2.23 --undefined-- 72.388
2.24 202.561 76.690
2.25 193.751 78.895
2.26 192.293 79.833
2.27 194.031 79.656
2.28 197.568 78.558
2.29 199.741 77.156
2.30 198.266 76.055
2.31 194.051 75.072
2.32 187.516 73.450
2.33 176.241 70.665
2.34 165.943 66.606
2.35 104.531 62.135
2.36 103.471 59.173
2.37 --undefined-- 57.143
2.38 --undefined-- 55.737
2.39 --undefined-- 53.752
2.40 --undefined-- 48.937
2.41 --undefined-- 42.141
2.42 --undefined-- 40.117
2.43 --undefined-- 40.618
2.44 --undefined-- 40.419
2.45 --undefined-- 39.703
2.46 --undefined-- 39.958
2.47 --undefined-- 40.878
2.48 --undefined-- 41.633
2.49 --undefined-- 42.256
2.50 --undefined-- 42.404
2.51 --undefined-- 42.576
2.52 --undefined-- 42.909
2.53 --undefined-- 42.681
2.54 --undefined-- 41.826
2.55 --undefined-- 41.134
2.56 --undefined-- 40.925
2.57 --undefined-- 40.733
2.58 --undefined-- 39.836
2.59 --undefined-- 39.102
2.60 --undefined-- 40.341
2.61 --undefined-- 40.935
2.62 --undefined-- 39.024
2.63 --undefined-- 36.667
2.64 --undefined-- 37.430
2.65 --undefined-- 39.786
2.66 --undefined-- 43.867
2.67 --undefined-- 48.038
2.68 --undefined-- 51.620
2.69 --undefined-- 57.928
2.70 --undefined-- 66.578
2.71 --undefined-- 72.476
2.72 161.728 75.753
2.73 159.577 77.496
2.74 156.181 78.039
2.75 159.861 77.638
2.76 160.312 76.770
2.77 165.826 75.318
2.78 171.673 73.525
2.79 171.385 72.484
2.80 177.109 73.193
2.81 184.859 75.121
2.82 188.891 77.304
2.83 191.219 79.427
2.84 190.890 81.167
2.85 189.307 82.171
2.86 187.575 82.389
2.87 184.573 81.837
2.88 179.710 80.330
2.89 171.598 77.871
2.90 159.632 74.654
2.91 150.924 70.714
2.92 145.866 66.365
2.93 --undefined-- 62.306
2.94 --undefined-- 59.224
2.95 --undefined-- 57.085
2.96 --undefined-- 55.308
2.97 --undefined-- 54.065
2.98 --undefined-- 58.115
2.99 224.218 66.161
3.00 208.396 71.222
3.01 191.200 73.906
3.02 181.731 75.728
3.03 180.420 77.470
3.04 180.182 78.767
3.05 178.378 78.437
3.06 172.339 75.446
3.07 148.557 69.638
3.08 143.454 63.773
3.09 145.821 60.728
3.10 --undefined-- 57.628
3.11 --undefined-- 52.509
3.12 --undefined-- 46.412
3.13 --undefined-- 47.785
3.14 --undefined-- 51.355
3.15 --undefined-- 52.503
3.16 --undefined-- 58.028
3.17 192.968 67.181
3.18 173.899 73.288
3.19 162.244 76.581
3.20 154.730 77.853
3.21 142.826 78.149
3.22 138.514 78.224
3.23 136.191 78.075
3.24 136.228 77.994
3.25 135.845 78.263
3.26 135.617 78.621
3.27 134.946 78.884
3.28 134.607 79.067
3.29 134.852 79.133
3.30 135.357 78.913
3.31 135.537 78.322
3.32 134.526 77.283
3.33 134.861 75.780
3.34 135.491 73.995
3.35 136.387 71.530
3.36 130.669 67.885
3.37 126.508 63.431
3.38 --undefined-- 58.734
3.39 --undefined-- 55.529
3.40 --undefined-- 56.488
3.41 --undefined-- 60.420
3.42 --undefined-- 64.843
3.43 135.835 68.313
3.44 135.742 70.677
3.45 131.097 72.063
3.46 124.582 72.776
3.47 121.577 73.137
3.48 120.923 73.020
3.49 119.645 72.039
3.50 114.132 70.250
3.51 115.235 68.783
3.52 117.137 68.295
3.53 118.002 68.133
3.54 120.354 68.049
3.55 122.553 67.924
3.56 124.332 67.404
3.57 123.951 65.968
3.58 120.603 63.218
3.59 118.832 59.085
3.60 --undefined-- 55.193
3.61 --undefined-- 57.808
3.62 --undefined-- 61.774
3.63 205.347 66.922
3.64 183.527 72.392
3.65 165.734 76.015
3.66 158.171 77.962
3.67 154.244 78.938
3.68 150.986 79.467
3.69 149.599 79.773
3.70 149.758 79.872
3.71 149.149 79.632
3.72 149.023 78.971
3.73 151.544 78.155
3.74 152.534 77.291
3.75 152.777 76.324
3.76 149.300 75.473
3.77 144.646 74.690
3.78 142.730 73.664
3.79 142.309 71.973
3.80 136.119 69.785
3.81 125.719 68.251
3.82 120.895 68.324
3.83 118.383 69.558
3.84 116.885 71.136
3.85 116.735 72.578
3.86 116.593 73.675
3.87 116.401 74.460
3.88 115.012 74.879
3.89 113.045 74.628
3.90 109.145 73.753
3.91 107.980 73.057
3.92 108.066 72.905
3.93 107.971 72.805
3.94 107.596 72.299
3.95 106.509 70.956
3.96 103.168 68.732
3.97 106.221 67.051
3.98 109.007 66.793
3.99 108.993 66.725
4.00 109.042 66.285
4.01 108.299 65.578
4.02 107.264 64.626
4.03 107.343 63.460
4.04 116.289 62.204
4.05 77.120 60.009
4.06 --undefined-- 56.644
4.07 --undefined-- 52.759
4.08 --undefined-- 47.427
4.09 --undefined-- 40.301
4.10 --undefined-- 36.143
4.11 --undefined-- 36.058
4.12 --undefined-- 34.523
4.13 --undefined-- 33.540
4.14 --undefined-- 34.838
4.15 --undefined-- 35.998
4.16 --undefined-- 36.880
4.17 --undefined-- 36.515
4.18 --undefined-- 36.410
4.19 --undefined-- 38.760
4.20 --undefined-- 41.026
4.21 --undefined-- 44.839
4.22 --undefined-- 50.628
4.23 --undefined-- 54.498
4.24 --undefined-- 56.284
4.25 --undefined-- 58.237
4.26 --undefined-- 65.412
4.27 211.682 72.605
4.28 206.531 76.677
4.29 202.108 78.062
4.30 200.251 78.282
4.31 200.252 78.831
4.32 199.942 79.259
4.33 199.465 79.065
4.34 199.316 78.409
4.35 199.362 77.525
4.36 198.981 76.569
4.37 199.833 75.352
4.38 203.068 73.832
4.39 206.061 72.160
4.40 205.938 70.759
4.41 205.906 70.369
4.42 204.807 70.745
4.43 201.520 70.791
4.44 193.446 69.677
4.45 179.347 66.888
4.46 172.149 62.129
4.47 --undefined-- 55.786
4.48 --undefined-- 52.554
4.49 --undefined-- 55.492
4.50 --undefined-- 58.929
4.51 --undefined-- 61.502
4.52 --undefined-- 62.991
4.53 --undefined-- 62.903
4.54 --undefined-- 61.344
4.55 --undefined-- 58.973
4.56 --undefined-- 56.894
4.57 --undefined-- 56.888
4.58 --undefined-- 57.775
4.59 --undefined-- 57.715
4.60 --undefined-- 57.091
4.61 --undefined-- 60.260
4.62 171.047 67.165
4.63 169.897 72.022
4.64 158.706 75.002
4.65 152.980 77.023
4.66 148.882 78.517
4.67 144.565 79.261
4.68 140.462 79.109
4.69 139.107 78.213
4.70 138.375 76.927
4.71 137.052 75.314
4.72 135.820 73.542
4.73 136.030 72.405
4.74 137.183 72.100
4.75 135.559 72.005
4.76 134.925 71.836
4.77 135.788 71.595
4.78 136.622 71.174
4.79 134.768 70.458
4.80 136.671 69.880
4.81 137.865 69.660
4.82 136.957 69.092
4.83 132.817 67.673
4.84 129.323 66.073
4.85 129.432 65.672
4.86 131.438 66.768
4.87 132.945 68.382
4.88 133.840 69.822
4.89 134.100 71.053
4.90 134.414 72.175
4.91 134.709 73.185
4.92 134.777 73.962
4.93 134.879 74.473
4.94 134.816 74.712
4.95 135.114 74.820
4.96 136.238 74.856
4.97 137.580 74.813
4.98 138.150 74.661
4.99 137.723 74.343
5.00 137.200 73.842
5.01 135.592 73.104
5.02 134.240 72.155
5.03 131.671 71.190
5.04 130.622 70.476
5.05 125.777 70.084
5.06 121.300 69.418
5.07 --undefined-- 67.358
5.08 --undefined-- 63.576
5.09 --undefined-- 58.809
5.10 --undefined-- 52.497
5.11 --undefined-- 45.286
5.12 --undefined-- 40.880
5.13 --undefined-- 39.309
5.14 --undefined-- 38.904
5.15 --undefined-- 40.147
5.16 --undefined-- 40.509
5.17 --undefined-- 39.140
5.18 --undefined-- 37.329
5.19 --undefined-- 35.145
5.20 --undefined-- 34.712
5.21 --undefined-- 35.788
5.22 --undefined-- 35.813
5.23 --undefined-- 35.433
5.24 --undefined-- 36.117
5.25 --undefined-- 45.776
5.26 --undefined-- 54.961
5.27 --undefined-- 60.267
5.28 --undefined-- 63.437
5.29 128.227 66.591
5.30 132.606 69.888
5.31 138.581 72.735
5.32 140.141 74.874
5.33 138.512 75.960
5.34 131.149 75.994
5.35 127.765 75.674
5.36 124.563 74.688
5.37 120.813 72.596
5.38 120.078 70.437
5.39 125.152 69.306
5.40 128.215 68.765
5.41 127.805 68.317
5.42 126.756 68.279
5.43 127.930 69.126
5.44 126.921 70.241
5.45 123.532 70.710
5.46 118.350 70.617
5.47 115.523 70.873
5.48 113.908 71.538
5.49 111.706 71.844
5.50 113.203 71.839
5.51 122.615 72.110
5.52 122.457 72.878
5.53 123.910 73.641
5.54 124.260 73.925
5.55 122.238 73.867
5.56 120.250 73.831
5.57 117.906 73.724
5.58 122.173 73.461
5.59 127.378 73.377
5.60 138.888 73.776
5.61 148.103 74.087
5.62 157.307 73.928
5.63 162.213 73.030
5.64 161.970 70.696
5.65 155.668 66.799
5.66 153.848 61.849
5.67 154.483 56.342
5.68 --undefined-- 50.005
5.69 --undefined-- 46.652
5.70 --undefined-- 47.307
5.71 --undefined-- 49.719
5.72 --undefined-- 60.078
5.73 --undefined-- 68.693
5.74 --undefined-- 73.873
5.75 149.493 76.471
5.76 144.249 77.295
5.77 139.521 76.992
5.78 132.881 76.332
5.79 128.161 76.027
5.80 124.668 75.947
5.81 122.162 75.612
5.82 120.794 74.600
5.83 119.512 72.233
5.84 116.175 67.697
5.85 --undefined-- 60.061
5.86 --undefined-- 50.247
5.87 --undefined-- 42.866
5.88 --undefined-- 39.422
5.89 --undefined-- 40.489
5.90 --undefined-- 42.642
5.91 --undefined-- 43.137
5.92 --undefined-- 43.450
5.93 --undefined-- --undefined--
5.94 --undefined-- --undefined--
5.95 --undefined-- --undefined--
5.96 --undefined-- --undefined--
