Time Pitch Intensity
0.01 --undefined-- --undefined--
0.02 --undefined-- --undefined--
0.03 --undefined-- --undefined--
0.04 --undefined-- --undefined--
0.05 --undefined-- 56.900
0.06 288.588 57.330
0.07 285.127 57.767
0.08 285.764 59.605
0.09 296.270 60.957
0.10 278.032 59.350
0.11 --undefined-- 56.055
0.12 --undefined-- 55.357
0.13 --undefined-- 55.124
0.14 --undefined-- 54.655
0.15 --undefined-- 59.246
0.16 199.715 66.066
0.17 200.138 70.397
0.18 201.459 72.211
0.19 203.233 72.531
0.20 202.675 72.748
0.21 200.361 73.458
0.22 196.073 74.624
0.23 192.383 76.056
0.24 189.176 77.142
0.25 186.192 77.410
0.26 184.299 76.845
0.27 183.825 75.760
0.28 182.563 74.504
0.29 --undefined-- 73.546
0.30 --undefined-- 73.732
0.31 --undefined-- 74.887
0.32 --undefined-- 75.690
0.33 --undefined-- 75.289
0.34 --undefined-- 73.867
0.35 --undefined-- 71.995
0.36 158.535 70.348
0.37 155.406 69.505
0.38 152.937 68.381
0.39 --undefined-- 66.482
0.40 --undefined-- 65.175
0.41 --undefined-- 63.861
0.42 --undefined-- 61.500
0.43 --undefined-- 58.109
0.44 --undefined-- 56.681
0.45 --undefined-- 58.033
0.46 --undefined-- 57.718
0.47 --undefined-- 55.221
0.48 --undefined-- 51.193
0.49 --undefined-- 47.514
0.50 --undefined-- 47.552
0.51 --undefined-- 48.812
0.52 --undefined-- 51.291
0.53 --undefined-- 54.736
0.54 --undefined-- 56.134
0.55 --undefined-- 55.431
0.56 --undefined-- 53.916
0.57 --undefined-- 54.849
0.58 --undefined-- 59.092
0.59 --undefined-- 60.957
0.60 --undefined-- 59.436
0.61 --undefined-- 55.628
0.62 --undefined-- 52.964
0.63 --undefined-- 51.020
0.64 --undefined-- 55.073
0.65 233.845 61.611
0.66 207.551 65.547
0.67 200.767 67.609
0.68 192.105 68.713
0.69 189.578 69.124
0.70 190.691 69.057
0.71 190.916 69.215
0.72 189.055 69.857
0.73 188.239 70.805
0.74 188.079 71.955
0.75 188.764 72.954
0.76 189.927 73.310
0.77 192.532 72.615
0.78 201.631 70.655
0.79 205.794 68.090
0.80 207.338 66.565
0.81 208.372 66.115
0.82 207.666 65.011
0.83 196.243 62.394
0.84 185.432 59.151
0.85 185.468 56.406
0.86 --undefined-- 55.449
0.87 --undefined-- 58.861
0.88 --undefined-- 63.080
0.89 256.897 65.897
0.90 257.727 67.160
0.91 259.388 67.332
0.92 261.187 66.991
0.93 262.983 66.570
0.94 263.149 66.484
0.95 267.831 67.032
0.96 270.264 67.709
0.97 270.755 68.171
0.98 271.037 68.515
0.99 270.465 68.708
1.00 269.111 68.566
1.01 267.694 68.023
1.02 264.905 66.736
1.03 257.812 64.146
1.04 239.565 61.378
1.05 263.188 61.693
1.06 254.441 63.142
1.07 246.365 64.102
1.08 246.625 64.810
1.09 250.184 65.280
1.10 246.088 65.787
1.11 --undefined-- 66.848
1.12 --undefined-- 67.405
1.13 --undefined-- 66.076
1.14 --undefined-- 63.008
1.15 --undefined-- 60.547
1.16 --undefined-- 59.295
1.17 --undefined-- 57.620
1.18 --undefined-- 56.132
1.19 --undefined-- 56.130
1.20 --undefined-- 57.306
1.21 --undefined-- 58.975
1.22 --undefined-- 60.124
1.23 --undefined-- 60.022
1.24 --undefined-- 58.198
1.25 --undefined-- 55.552
1.26 --undefined-- 54.018
1.27 --undefined-- 51.031
1.28 --undefined-- 48.922
1.29 --undefined-- 51.633
1.30 --undefined-- 53.543
1.31 --undefined-- 55.341
1.32 285.294 59.187
1.33 287.375 61.329
1.34 289.407 61.558
1.35 295.144 64.735
1.36 259.406 68.785
1.37 260.627 70.716
1.38 259.597 70.593
1.39 255.703 69.554
1.40 254.454 68.968
1.41 255.563 68.567
1.42 256.513 68.139
1.43 256.420 67.806
1.44 255.171 67.543
1.45 253.538 67.394
1.46 250.961 67.293
1.47 248.271 67.208
1.48 245.060 66.942
1.49 241.173 66.448
1.50 238.683 66.194
1.51 236.150 65.767
1.52 230.062 64.699
1.53 219.159 62.900
1.54 --undefined-- 60.178
1.55 --undefined-- 58.269
1.56 --undefined-- 60.334
1.57 --undefined-- 63.216
1.58 217.275 65.808
1.59 205.049 67.711
1.60 190.050 69.026
1.61 172.039 69.976
1.62 --undefined-- 69.843
1.63 --undefined-- 68.305
1.64 --undefined-- 66.182
1.65 --undefined-- 64.645
1.66 --undefined-- 64.141
1.67 --undefined-- 63.824
1.68 --undefined-- 62.912
1.69 --undefined-- 62.481
1.70 183.558 64.147
1.71 177.888 66.094
1.72 181.480 66.560
1.73 --undefined-- 65.012
1.74 --undefined-- 62.254
1.75 229.953 59.878
1.76 217.824 58.351
1.77 209.778 57.393
1.78 201.286 57.128
1.79 191.548 57.369
1.80 179.394 58.477
1.81 169.440 60.326
1.82 159.564 62.236
1.83 162.217 62.722
1.84 161.296 62.241
1.85 162.431 63.073
1.86 162.287 63.600
1.87 162.137 62.303
1.88 163.331 60.602
1.89 162.456 60.303
1.90 162.244 61.732
1.91 162.479 63.315
1.92 159.997 63.610
1.93 165.215 64.139
1.94 161.358 65.152
1.95 161.342 65.254
1.96 163.089 65.432
1.97 165.743 66.770
1.98 167.840 68.440
1.99 168.174 69.731
2.00 168.165 70.503
2.01 169.581 70.817
2.02 171.707 70.645
2.03 174.328 70.133
2.04 176.844 69.965
2.05 177.874 69.969
2.06 179.470 69.088
2.07 181.420 67.004
2.08 181.924 64.139
2.09 179.872 60.489
2.10 183.001 56.224
2.11 --undefined-- 54.140
2.12 --undefined-- 57.218
2.13 --undefined-- 60.373
2.14 --undefined-- 60.853
2.15 --undefined-- 59.096
2.16 --undefined-- 59.579
2.17 221.354 63.319
2.18 205.483 66.625
2.19 199.688 68.769
2.20 197.289 70.115
2.21 196.033 71.188
2.22 196.790 72.145
2.23 199.378 72.820
2.24 202.913 73.184
2.25 202.470 73.165
2.26 200.205 72.428
2.27 200.287 71.190
2.28 201.726 70.250
2.29 197.532 69.875
2.30 196.915 69.924
2.31 196.083 69.998
2.32 194.186 69.978
2.33 192.572 70.178
2.34 191.844 70.261
2.35 191.821 70.019
2.36 191.663 69.869
2.37 192.231 69.647
2.38 192.262 69.177
2.39 190.004 68.280
2.40 184.470 66.581
2.41 176.049 63.832
2.42 156.825 60.983
2.43 178.501 62.590
2.44 211.491 65.785
2.45 202.836 67.661
2.46 195.337 69.236
2.47 189.694 71.089
2.48 182.566 72.328
2.49 180.745 72.466
2.50 180.066 71.789
2.51 179.952 71.034
2.52 179.854 70.872
2.53 182.101 70.723
2.54 187.241 70.185
2.55 189.711 69.583
2.56 192.889 69.173
2.57 196.228 68.804
2.58 201.947 67.967
2.59 207.622 67.275
2.60 211.459 67.342
2.61 212.901 67.194
2.62 211.092 65.985
2.63 204.626 63.069
2.64 199.225 58.335
2.65 --undefined-- 56.734
2.66 --undefined-- 61.646
2.67 --undefined-- 65.418
2.68 237.196 68.628
2.69 230.172 71.321
2.70 229.164 72.792
2.71 228.887 73.482
2.72 227.733 74.296
2.73 227.345 75.634
2.74 227.365 76.836
2.75 227.904 76.980
2.76 227.851 75.874
2.77 228.387 74.457
2.78 229.762 73.675
2.79 230.013 72.854
2.80 230.234 71.754
2.81 231.450 70.915
2.82 232.083 70.398
2.83 232.495 69.816
2.84 232.325 68.689
2.85 231.770 67.311
2.86 233.120 67.340
2.87 232.322 68.649
2.88 228.680 69.154
2.89 225.960 68.326
2.90 234.597 67.081
2.91 254.394 66.819
2.92 258.883 67.495
2.93 254.265 67.413
2.94 241.483 66.278
2.95 214.875 66.071
2.96 193.956 67.412
2.97 187.433 68.512
2.98 183.843 69.014
2.99 179.022 69.140
3.00 176.700 68.941
3.01 176.437 68.329
3.02 176.626 67.896
3.03 177.029 68.040
3.04 175.836 68.191
3.05 175.564 68.039
3.06 176.216 67.883
3.07 176.798 67.983
3.08 177.948 68.252
3.09 181.149 68.806
3.10 184.482 69.476
3.11 185.902 69.982
3.12 185.868 70.562
3.13 187.252 72.181
3.14 190.824 74.735
3.15 191.142 76.580
3.16 190.234 77.274
3.17 189.680 77.496
3.18 189.013 77.956
3.19 187.652 78.670
3.20 185.808 79.084
3.21 183.384 78.520
3.22 176.341 76.953
3.23 168.122 75.072
3.24 --undefined-- 72.723
3.25 --undefined-- 69.607
3.26 --undefined-- 65.757
3.27 --undefined-- 61.174
3.28 --undefined-- 58.153
3.29 --undefined-- 60.311
3.30 --undefined-- 62.796
3.31 --undefined-- 63.078
3.32 --undefined-- 62.512
3.33 --undefined-- 62.925
3.34 --undefined-- 62.218
3.35 --undefined-- 59.038
3.36 --undefined-- 55.904
3.37 --undefined-- 55.990
3.38 --undefined-- 55.487
3.39 --undefined-- 55.965
3.40 --undefined-- 56.543
3.41 --undefined-- 55.968
3.42 --undefined-- 56.695
3.43 --undefined-- 59.177
3.44 --undefined-- 60.980
3.45 --undefined-- 60.687
3.46 --undefined-- 58.242
3.47 --undefined-- 54.650
3.48 --undefined-- 54.780
3.49 --undefined-- 59.205
3.50 --undefined-- 62.593
3.51 287.312 63.026
3.52 286.873 60.850
3.53 289.826 59.201
3.54 296.842 58.427
3.55 --undefined-- 57.231
3.56 --undefined-- 57.282
3.57 --undefined-- 59.513
3.58 --undefined-- 60.723
3.59 --undefined-- 59.128
3.60 --undefined-- 57.358
3.61 --undefined-- 59.571
3.62 --undefined-- 62.660
3.63 --undefined-- 67.503
3.64 --undefined-- 73.721
3.65 188.594 77.645
3.66 193.338 78.788
3.67 196.135 77.813
3.68 191.383 75.564
3.69 188.199 72.152
3.70 194.390 67.151
3.71 192.930 61.565
3.72 191.214 57.876
3.73 191.032 56.501
3.74 --undefined-- 55.488
3.75 --undefined-- 55.865
3.76 --undefined-- 58.311
3.77 --undefined-- 61.763
3.78 --undefined-- 63.394
3.79 --undefined-- 63.610
3.80 246.547 65.898
3.81 234.552 69.135
3.82 232.174 71.680
3.83 229.561 73.638
3.84 225.690 74.940
3.85 223.523 75.695
3.86 222.642 76.195
3.87 220.977 76.472
3.88 220.331 76.577
3.89 220.584 76.711
3.90 219.839 77.115
3.91 217.010 77.585
3.92 211.470 77.495
3.93 202.936 76.423
3.94 --undefined-- 74.325
3.95 --undefined-- 71.543
3.96 --undefined-- 67.312
3.97 --undefined-- 60.916
3.98 --undefined-- 55.787
3.99 --undefined-- 53.838
4.00 --undefined-- 53.866
4.01 --undefined-- 55.159
4.02 --undefined-- 55.763
4.03 --undefined-- 54.837
4.04 --undefined-- 56.557
4.05 --undefined-- 60.356
4.06 223.035 62.908
4.07 201.540 64.257
4.08 193.038 64.955
4.09 188.540 65.284
4.10 183.246 65.260
4.11 177.654 65.048
4.12 174.013 64.689
4.13 170.102 64.244
4.14 166.973 64.011
4.15 167.386 63.490
4.16 168.937 62.378
4.17 168.413 61.533
4.18 164.808 60.983
4.19 163.850 59.444
4.20 --undefined-- 56.771
4.21 --undefined-- 55.224
4.22 --undefined-- 55.353
4.23 --undefined-- 55.895
4.24 --undefined-- 57.574
4.25 --undefined-- 58.954
4.26 283.223 59.331
4.27 284.251 61.332
4.28 197.755 65.109
4.29 192.422 68.215
4.30 191.336 70.238
4.31 191.002 71.532
4.32 192.245 72.096
4.33 195.476 71.769
4.34 201.581 70.401
4.35 212.070 68.673
4.36 218.017 68.178
4.37 221.566 68.442
4.38 229.887 68.997
4.39 232.819 69.204
4.40 233.951 68.929
4.41 233.974 68.628
4.42 231.379 68.505
4.43 225.234 68.619
4.44 212.467 68.977
4.45 202.434 69.944
4.46 194.897 71.038
4.47 190.763 71.148
4.48 196.926 69.618
4.49 203.199 67.603
4.50 199.866 68.453
4.51 194.270 70.933
4.52 187.644 72.590
4.53 186.092 72.994
4.54 185.796 72.420
4.55 186.818 71.481
4.56 189.125 70.406
4.57 190.226 69.227
4.58 191.734 68.223
4.59 194.264 67.514
4.60 195.022 67.216
4.61 194.722 67.506
4.62 192.658 67.925
4.63 190.860 68.237
4.64 189.700 68.674
4.65 186.714 68.796
4.66 184.914 68.192
4.67 183.667 67.226
4.68 180.350 66.136
4.69 167.831 65.169
4.70 166.084 64.690
4.71 164.439 63.854
4.72 162.232 61.801
4.73 157.455 58.741
4.74 --undefined-- 56.057
4.75 --undefined-- 57.672
4.76 --undefined-- 62.937
4.77 206.140 66.331
4.78 202.723 67.730
4.79 205.665 68.165
4.80 211.774 68.882
4.81 215.720 69.996
4.82 218.960 70.154
4.83 224.269 68.944
4.84 236.872 67.709
4.85 236.371 67.518
4.86 232.560 67.371
4.87 226.440 67.367
4.88 223.410 68.773
4.89 222.424 71.017
4.90 213.657 72.079
4.91 208.226 71.722
4.92 205.985 --undefined--
4.93 203.593 --undefined--
4.94 --undefined-- --undefined--
4.95 --undefined-- --undefined--
