Time Pitch Intensity
0.01 --undefined-- --undefined--
0.02 --undefined-- --undefined--
0.03 167.325 --undefined--
0.04 162.203 --undefined--
0.05 158.270 67.488
0.06 180.018 68.227
0.07 181.958 68.976
0.08 178.459 69.296
0.09 175.611 69.268
0.10 172.634 69.087
0.11 172.432 68.953
0.12 174.489 68.866
0.13 174.836 68.687
0.14 172.822 68.339
0.15 171.580 67.936
0.16 169.217 67.500
0.17 166.656 67.027
0.18 163.849 66.593
0.19 161.239 66.208
0.20 158.666 65.876
0.21 155.523 65.582
0.22 152.337 65.200
0.23 149.361 64.626
0.24 146.271 63.863
0.25 142.796 62.984
0.26 139.675 62.094
0.27 136.549 61.241
0.28 133.037 60.535
0.29 128.324 60.024
0.30 125.527 59.647
0.31 123.369 59.471
0.32 126.098 59.325
0.33 119.212 59.086
0.34 120.516 58.699
0.35 110.667 57.873
0.36 111.836 56.569
0.37 118.121 54.618
0.38 --undefined-- 52.078
0.39 --undefined-- 52.566
0.40 92.357 57.677
0.41 90.401 62.739
0.42 90.053 65.899
0.43 90.010 67.336
0.44 86.732 67.871
0.45 85.732 68.098
0.46 84.877 68.244
0.47 84.914 68.023
0.48 81.350 67.475
0.49 80.806 67.159
0.50 80.440 66.913
0.51 82.682 66.299
0.52 81.402 64.591
0.53 79.759 60.910
0.54 --undefined-- 54.615
0.55 --undefined-- 45.898
0.56 --undefined-- 39.179
0.57 --undefined-- 36.782
0.58 --undefined-- 35.172
0.59 --undefined-- 39.545
0.60 --undefined-- 49.342
0.61 --undefined-- 57.588
0.62 --undefined-- 64.683
0.63 --undefined-- 71.041
0.64 --undefined-- 75.249
0.65 --undefined-- 76.727
0.66 96.041 76.038
0.67 88.740 74.514
0.68 85.001 73.270
0.69 83.737 72.167
0.70 82.715 70.484
0.71 82.046 67.491
0.72 80.192 63.037
0.73 --undefined-- 57.167
0.74 --undefined-- 50.465
0.75 --undefined-- 44.979
0.76 --undefined-- 40.517
0.77 --undefined-- 36.707
0.78 --undefined-- 35.880
0.79 --undefined-- 35.772
0.80 --undefined-- 40.036
0.81 --undefined-- 51.147
0.82 --undefined-- 60.038
0.83 91.884 65.776
0.84 91.916 68.259
0.85 90.859 68.109
0.86 --undefined-- 69.610
0.87 --undefined-- 71.614
0.88 288.899 70.101
0.89 278.201 64.528
0.90 --undefined-- 60.683
0.91 --undefined-- 65.318
0.92 --undefined-- 68.197
0.93 --undefined-- 68.231
0.94 --undefined-- 68.155
0.95 93.418 69.244
0.96 96.996 70.172
0.97 97.582 71.000
0.98 97.859 71.604
0.99 96.934 71.902
1.00 97.093 72.077
1.01 96.567 72.290
1.02 95.693 72.402
1.03 94.797 72.376
1.04 94.598 72.411
1.05 93.971 72.429
1.06 92.934 72.239
1.07 92.766 71.818
1.08 92.651 71.248
1.09 93.396 70.734
1.10 94.991 70.590
1.11 97.024 70.871
1.12 99.258 71.237
1.13 101.074 71.616
1.14 102.956 72.091
1.15 103.492 71.973
1.16 98.990 70.202
1.17 --undefined-- 68.073
1.18 --undefined-- 68.236
1.19 --undefined-- 69.066
1.20 --undefined-- 69.696
1.21 --undefined-- 68.850
1.22 --undefined-- 69.208
1.23 --undefined-- 70.588
1.24 --undefined-- 71.568
1.25 --undefined-- 72.410
1.26 82.062 72.574
1.27 80.529 72.204
1.28 80.640 71.900
1.29 77.969 71.657
1.30 77.279 71.248
1.31 76.990 70.610
1.32 76.673 69.448
1.33 75.777 67.718
1.34 75.200 65.331
1.35 75.200 61.493
1.36 --undefined-- 55.583
1.37 --undefined-- 49.044
1.38 --undefined-- 44.338
1.39 --undefined-- 40.991
1.40 --undefined-- 38.957
1.41 --undefined-- 40.246
1.42 --undefined-- 41.583
1.43 --undefined-- 41.314
1.44 --undefined-- 40.225
1.45 --undefined-- 39.973
1.46 --undefined-- 46.429
1.47 --undefined-- 56.649
1.48 --undefined-- 62.200
1.49 --undefined-- 63.350
1.50 --undefined-- 61.025
1.51 --undefined-- 61.155
1.52 --undefined-- 66.453
1.53 --undefined-- 70.223
1.54 --undefined-- 72.250
1.55 98.405 73.300
1.56 94.567 73.718
1.57 92.357 73.814
1.58 90.642 73.689
1.59 88.429 73.219
1.60 87.970 72.564
1.61 85.086 72.237
1.62 82.491 72.280
1.63 79.705 72.304
1.64 78.650 72.177
1.65 77.875 71.758
1.66 77.254 70.884
1.67 76.155 69.992
1.68 76.618 69.493
1.69 77.192 69.270
1.70 76.642 69.208
1.71 75.809 68.721
1.72 77.003 67.616
1.73 --undefined-- 65.627
1.74 --undefined-- 61.569
1.75 --undefined-- 54.653
1.76 --undefined-- 46.189
1.77 --undefined-- 40.311
1.78 --undefined-- 40.791
1.79 --undefined-- 42.122
1.80 --undefined-- 42.358
1.81 --undefined-- 43.371
1.82 --undefined-- 44.110
1.83 --undefined-- 42.834
1.84 --undefined-- 39.994
1.85 --undefined-- 37.971
1.86 --undefined-- 39.366
1.87 --undefined-- 49.328
1.88 --undefined-- 61.464
1.89 --undefined-- 69.398
1.90 --undefined-- 73.516
1.91 --undefined-- 74.764
1.92 --undefined-- 74.379
1.93 83.145 73.657
1.94 82.491 73.113
1.95 83.055 72.653
1.96 84.836 72.099
1.97 85.391 71.176
1.98 85.601 69.632
1.99 86.094 67.182
2.00 82.630 63.471
2.01 83.783 59.418
2.02 --undefined-- 57.832
2.03 --undefined-- 57.756
2.04 --undefined-- 58.951
2.05 97.264 61.743
2.06 97.089 64.479
2.07 95.802 67.125
2.08 95.161 69.714
2.09 93.516 71.426
2.10 91.685 71.984
2.11 91.533 71.930
2.12 91.970 71.722
2.13 88.767 71.362
2.14 89.539 70.508
2.15 92.005 68.568
2.16 92.772 65.244
2.17 93.112 61.584
2.18 93.384 59.168
2.19 93.829 57.044
2.20 94.603 53.943
2.21 --undefined-- 50.060
2.22 --undefined-- 46.945
2.23 --undefined-- 46.033
2.24 --undefined-- 46.276
2.25 --undefined-- 47.589
2.26 97.972 50.560
2.27 97.180 55.412
2.28 95.239 61.357
2.29 93.499 67.062
2.30 91.393 71.392
2.31 91.965 73.656
2.32 92.604 73.789
2.33 85.506 72.455
2.34 85.211 70.879
2.35 80.992 69.746
2.36 78.260 68.433
2.37 76.200 66.832
2.38 76.160 65.138
2.39 77.254 62.720
2.40 77.327 58.537
2.41 --undefined-- 52.237
2.42 --undefined-- 44.753
2.43 --undefined-- 39.869
2.44 --undefined-- 38.781
2.45 --undefined-- 39.025
2.46 --undefined-- 39.583
2.47 --undefined-- 41.341
2.48 --undefined-- 45.318
2.49 --undefined-- 50.758
2.50 90.828 56.666
2.51 91.317 61.961
2.52 91.640 66.128
2.53 92.050 69.227
2.54 93.618 71.166
2.55 94.680 71.544
2.56 95.462 70.303
2.57 93.131 67.610
2.58 --undefined-- 63.040
2.59 --undefined-- 55.747
2.60 --undefined-- 46.353
2.61 --undefined-- 41.853
2.62 --undefined-- 41.427
2.63 --undefined-- 40.291
2.64 --undefined-- 39.390
2.65 --undefined-- 37.992
2.66 --undefined-- 36.784
2.67 --undefined-- 36.180
2.68 --undefined-- 35.957
2.69 --undefined-- 36.946
2.70 --undefined-- 39.231
2.71 --undefined-- 41.312
2.72 --undefined-- 43.926
2.73 --undefined-- 48.370
2.74 --undefined-- 57.656
2.75 --undefined-- 65.925
2.76 --undefined-- 70.902
2.77 --undefined-- 72.996
2.78 93.166 72.840
2.79 86.384 71.210
2.80 83.052 68.963
2.81 83.086 66.900
2.82 86.924 65.432
2.83 88.048 64.242
2.84 86.907 62.725
2.85 85.110 60.501
2.86 81.877 57.247
2.87 --undefined-- 52.736
2.88 --undefined-- 47.163
2.89 --undefined-- 43.478
2.90 --undefined-- 44.292
2.91 --undefined-- 46.466
2.92 --undefined-- 47.702
2.93 --undefined-- 48.334
2.94 --undefined-- 54.761
2.95 --undefined-- 63.447
2.96 --undefined-- 68.846
2.97 87.246 71.283
2.98 87.435 71.777
2.99 87.639 71.486
3.00 88.304 71.071
3.01 89.227 70.038
3.02 --undefined-- 67.159
3.03 --undefined-- 61.322
3.04 --undefined-- 52.475
3.05 --undefined-- 43.906
3.06 --undefined-- 39.596
3.07 --undefined-- 39.146
3.08 --undefined-- 45.924
3.09 --undefined-- 55.069
3.10 --undefined-- 61.950
3.11 --undefined-- 66.948
3.12 --undefined-- 70.423
3.13 --undefined-- 72.324
3.14 --undefined-- 72.938
3.15 78.633 72.860
3.16 77.981 72.319
3.17 76.548 71.227
3.18 76.338 69.668
3.19 77.077 68.214
3.20 79.382 67.695
3.21 79.603 67.904
3.22 80.337 68.388
3.23 81.136 68.954
3.24 81.851 69.563
3.25 82.460 70.413
3.26 82.808 71.119
3.27 81.821 71.184
3.28 81.405 70.722
3.29 81.528 70.071
3.30 83.870 69.422
3.31 85.956 69.090
3.32 84.156 68.585
3.33 --undefined-- 66.561
3.34 --undefined-- 62.004
3.35 --undefined-- 54.261
3.36 --undefined-- 44.773
3.37 --undefined-- 44.774
3.38 --undefined-- 50.402
3.39 --undefined-- 54.142
3.40 --undefined-- 58.830
3.41 --undefined-- 66.024
3.42 --undefined-- 71.263
3.43 107.752 73.580
3.44 101.867 73.827
3.45 98.860 73.432
3.46 94.676 72.965
3.47 92.105 72.497
3.48 89.634 72.317
3.49 89.441 72.088
3.50 90.255 71.500
3.51 90.572 70.159
3.52 90.846 67.570
3.53 93.362 64.643
3.54 97.790 63.464
3.55 98.567 62.898
3.56 98.978 62.077
3.57 97.685 60.998
3.58 96.411 59.438
3.59 91.401 56.896
3.60 --undefined-- 55.604
3.61 --undefined-- 59.896
3.62 --undefined-- 62.358
3.63 --undefined-- 64.481
3.64 --undefined-- 69.708
3.65 106.505 73.360
3.66 79.452 74.567
3.67 77.424 74.450
3.68 76.855 74.067
3.69 77.076 73.459
3.70 78.542 72.319
3.71 79.095 70.266
3.72 79.063 66.787
3.73 78.375 61.646
3.74 --undefined-- 54.974
3.75 --undefined-- 46.786
3.76 --undefined-- 39.292
3.77 --undefined-- 38.605
3.78 --undefined-- 41.629
3.79 --undefined-- 48.559
3.80 96.274 55.868
3.81 92.573 62.382
3.82 90.107 67.755
3.83 88.706 71.467
3.84 85.148 73.280
3.85 82.507 73.222
3.86 81.745 72.218
3.87 81.498 71.676
3.88 81.232 71.563
3.89 80.502 71.607
3.90 79.837 71.717
3.91 78.093 71.748
3.92 77.496 71.686
3.93 77.156 71.558
3.94 76.949 71.347
3.95 76.511 71.255
3.96 77.117 71.588
3.97 77.592 71.915
3.98 77.333 71.662
3.99 78.020 71.228
4.00 78.169 71.045
4.01 78.418 70.889
4.02 78.946 70.708
4.03 80.494 70.815
4.04 80.228 71.208
4.05 79.586 71.457
4.06 79.112 71.136
4.07 78.440 70.276
4.08 78.020 69.347
4.09 77.473 68.615
4.10 77.406 67.794
4.11 78.764 66.180
4.12 78.173 63.423
4.13 79.018 60.313
4.14 78.788 57.213
4.15 --undefined-- 53.234
4.16 --undefined-- 48.543
4.17 --undefined-- 45.254
4.18 --undefined-- 45.169
4.19 --undefined-- 47.592
4.20 --undefined-- 56.198
4.21 --undefined-- 62.891
4.22 221.287 65.655
4.23 234.096 65.829
4.24 248.195 66.075
4.25 244.537 65.370
4.26 --undefined-- 61.354
4.27 --undefined-- 54.063
4.28 --undefined-- 46.688
4.29 --undefined-- 43.394
4.30 --undefined-- 44.649
4.31 --undefined-- 45.433
4.32 --undefined-- 46.337
4.33 --undefined-- 55.045
4.34 --undefined-- 64.204
4.35 --undefined-- 70.371
4.36 --undefined-- 73.259
4.37 --undefined-- 73.599
4.38 --undefined-- 72.522
4.39 --undefined-- 71.154
4.40 82.153 70.035
4.41 81.709 69.567
4.42 80.340 69.003
4.43 79.156 67.644
4.44 79.860 66.407
4.45 79.982 65.820
4.46 79.353 65.703
4.47 79.292 66.566
4.48 78.829 67.806
4.49 77.240 68.595
4.50 76.207 68.800
4.51 --undefined-- 68.742
4.52 --undefined-- 68.828
4.53 --undefined-- 68.918
4.54 --undefined-- 68.813
4.55 --undefined-- 68.214
4.56 --undefined-- 66.994
4.57 --undefined-- 64.785
4.58 --undefined-- 61.255
4.59 --undefined-- 56.855
4.60 --undefined-- 52.351
4.61 --undefined-- 49.348
4.62 --undefined-- 47.214
4.63 --undefined-- 44.997
4.64 --undefined-- 42.410
4.65 --undefined-- 39.629
4.66 --undefined-- 38.318
4.67 --undefined-- 39.594
4.68 --undefined-- 45.379
4.69 --undefined-- 55.542
4.70 --undefined-- 64.129
4.71 --undefined-- 69.619
4.72 --undefined-- 72.820
4.73 --undefined-- 74.314
4.74 --undefined-- 74.365
4.75 79.596 73.797
4.76 81.160 73.499
4.77 81.564 73.230
4.78 76.482 72.415
4.79 76.114 70.860
4.80 --undefined-- 68.015
4.81 --undefined-- 62.644
4.82 --undefined-- 55.423
4.83 --undefined-- 48.452
4.84 --undefined-- 42.815
4.85 --undefined-- 44.300
4.86 --undefined-- 46.898
4.87 --undefined-- 48.441
4.88 --undefined-- 54.366
4.89 81.431 61.347
4.90 80.569 66.229
4.91 80.025 69.100
4.92 --undefined-- 70.569
4.93 --undefined-- 71.142
4.94 79.206 70.962
4.95 76.559 70.545
4.96 --undefined-- 70.476
4.97 --undefined-- 70.494
4.98 --undefined-- 70.125
4.99 77.441 69.147
5.00 77.688 67.734
5.01 77.869 66.218
5.02 83.062 64.683
5.03 83.726 63.391
5.04 86.485 62.617
5.05 85.079 62.756
5.06 86.411 64.484
5.07 89.292 67.350
5.08 74.850 69.991
5.09 77.489 71.607
5.10 80.759 72.298
5.11 84.155 72.471
5.12 87.504 72.613
5.13 92.033 72.521
5.14 95.339 71.815
5.15 97.800 70.818
5.16 102.613 70.049
5.17 111.030 69.555
5.18 118.185 68.782
5.19 128.173 67.472
5.20 132.489 65.189
5.21 134.565 61.276
5.22 --undefined-- 55.364
5.23 --undefined-- 48.315
5.24 --undefined-- 43.028
5.25 --undefined-- 38.485
5.26 --undefined-- 34.108
5.27 --undefined-- 32.791
5.28 --undefined-- 33.442
5.29 --undefined-- 35.558
5.30 --undefined-- 37.478
5.31 --undefined-- 38.023
5.32 --undefined-- 38.249
5.33 --undefined-- 38.680
5.34 --undefined-- 38.107
5.35 --undefined-- 37.248
5.36 --undefined-- 38.426
5.37 --undefined-- 39.357
5.38 --undefined-- 39.245
5.39 --undefined-- 39.257
5.40 --undefined-- 39.398
5.41 --undefined-- 39.405
5.42 --undefined-- 38.943
5.43 --undefined-- 38.025
5.44 --undefined-- 37.290
5.45 --undefined-- 36.849
5.46 --undefined-- 36.578
5.47 --undefined-- 35.685
5.48 --undefined-- 34.539
5.49 --undefined-- 34.682
5.50 --undefined-- 34.620
5.51 --undefined-- 34.864
5.52 --undefined-- 35.893
5.53 --undefined-- 35.663
5.54 --undefined-- 35.033
5.55 --undefined-- 38.416
5.56 --undefined-- 43.896
5.57 --undefined-- 54.095
5.58 --undefined-- 64.120
5.59 --undefined-- 70.404
5.60 --undefined-- 73.989
5.61 --undefined-- 75.587
5.62 101.176 75.830
5.63 100.898 75.214
5.64 101.005 74.630
5.65 100.123 74.520
5.66 100.123 74.057
5.67 100.517 72.991
5.68 100.034 71.948
5.69 97.569 71.335
5.70 95.007 70.743
5.71 93.765 70.186
5.72 89.671 70.607
5.73 88.329 71.658
5.74 88.203 72.110
5.75 83.466 71.629
5.76 81.323 70.599
5.77 80.479 69.398
5.78 80.347 68.231
5.79 80.245 67.351
5.80 79.010 65.975
5.81 75.615 63.169
5.82 --undefined-- 58.640
5.83 --undefined-- 52.127
5.84 --undefined-- 43.934
5.85 --undefined-- --undefined--
5.86 --undefined-- --undefined--
5.87 --undefined-- --undefined--
5.88 --undefined-- --undefined--
