Time Pitch Intensity
0.01 --undefined-- --undefined--
0.02 135.933 --undefined--
0.03 126.745 --undefined--
0.04 120.114 --undefined--
0.05 118.043 71.449
0.06 117.955 70.896
0.07 119.338 70.852
0.08 120.438 71.268
0.09 121.789 72.011
0.10 121.114 72.758
0.11 119.278 73.172
0.12 115.059 73.024
0.13 113.404 71.688
0.14 108.738 69.008
0.15 111.840 66.186
0.16 114.146 64.897
0.17 119.178 66.137
0.18 122.594 69.059
0.19 121.934 71.523
0.20 120.957 72.621
0.21 118.781 71.980
0.22 115.009 69.797
0.23 113.620 66.887
0.24 114.465 64.402
0.25 114.373 62.650
0.26 117.603 61.903
0.27 118.027 64.710
0.28 123.311 69.795
0.29 121.774 73.249
0.30 118.088 74.605
0.31 104.230 74.059
0.32 94.030 72.181
0.33 92.312 70.085
0.34 93.336 68.370
0.35 --undefined-- 66.762
0.36 --undefined-- 65.377
0.37 --undefined-- 63.707
0.38 --undefined-- 61.641
0.39 --undefined-- 61.396
0.40 81.147 61.427
0.41 86.815 61.552
0.42 85.661 62.124
0.43 89.376 62.636
0.44 92.078 63.302
0.45 92.851 63.978
0.46 94.732 64.610
0.47 96.170 65.239
0.48 95.724 65.708
0.49 98.012 65.552
0.50 105.891 64.350
0.51 95.828 62.122
0.52 93.960 59.174
0.53 89.412 55.857
0.54 --undefined-- 52.837
0.55 --undefined-- 51.200
0.56 --undefined-- 50.932
0.57 --undefined-- 51.736
0.58 --undefined-- 53.557
0.59 --undefined-- 59.110
0.60 --undefined-- 65.557
0.61 109.841 69.701
0.62 110.955 72.126
0.63 111.166 73.605
0.64 108.726 74.418
0.65 108.837 74.964
0.66 111.698 75.376
0.67 111.008 75.444
0.68 112.103 75.048
0.69 112.289 74.450
0.70 118.329 74.697
0.71 123.056 75.807
0.72 128.121 76.877
0.73 137.777 77.610
0.74 143.884 77.956
0.75 147.662 78.049
0.76 149.548 78.083
0.77 151.352 78.043
0.78 151.107 77.713
0.79 146.745 76.764
0.80 146.395 74.566
0.81 153.587 70.428
0.82 150.135 64.364
0.83 148.865 59.256
0.84 148.373 57.194
0.85 147.377 55.435
0.86 --undefined-- 54.521
0.87 --undefined-- 54.940
0.88 --undefined-- 55.356
0.89 --undefined-- 55.281
0.90 --undefined-- 55.227
0.91 --undefined-- 56.035
0.92 --undefined-- 56.659
0.93 --undefined-- 56.182
0.94 --undefined-- 55.730
0.95 --undefined-- 56.085
0.96 --undefined-- 56.059
0.97 --undefined-- 55.798
0.98 --undefined-- 55.696
0.99 --undefined-- 55.113
1.00 --undefined-- 54.280
1.01 --undefined-- 53.185
1.02 --undefined-- 51.872
1.03 --undefined-- 50.985
1.04 --undefined-- 49.310
1.05 --undefined-- 45.775
1.06 --undefined-- 41.366
1.07 --undefined-- 38.985
1.08 --undefined-- 40.236
1.09 --undefined-- 46.802
1.10 --undefined-- 55.224
1.11 --undefined-- 65.431
1.12 --undefined-- 72.847
1.13 155.082 76.953
1.14 153.382 78.577
1.15 147.707 78.662
1.16 145.130 78.168
1.17 143.276 77.873
1.18 143.737 77.854
1.19 144.316 78.049
1.20 146.016 78.642
1.21 149.193 79.358
1.22 150.558 79.877
1.23 149.836 80.193
1.24 149.112 80.412
1.25 147.947 80.533
1.26 147.047 80.205
1.27 145.140 78.539
1.28 142.850 74.725
1.29 148.821 69.078
1.30 147.156 63.997
1.31 145.367 60.635
1.32 146.872 58.638
1.33 146.884 59.529
1.34 --undefined-- 63.034
1.35 --undefined-- 65.563
1.36 --undefined-- 67.450
1.37 --undefined-- 71.830
1.38 156.447 75.909
1.39 154.167 78.048
1.40 149.434 78.538
1.41 144.000 77.957
1.42 139.422 77.031
1.43 135.661 76.201
1.44 133.474 75.738
1.45 133.246 75.847
1.46 133.101 76.161
1.47 131.729 76.420
1.48 131.005 76.757
1.49 130.895 77.010
1.50 129.964 77.022
1.51 130.004 76.944
1.52 130.819 76.756
1.53 131.388 76.400
1.54 132.384 75.944
1.55 133.513 75.216
1.56 133.379 73.663
1.57 129.542 70.712
1.58 127.411 66.483
1.59 131.960 61.913
1.60 131.427 57.996
1.61 130.689 57.641
1.62 --undefined-- 61.381
1.63 --undefined-- 68.335
1.64 --undefined-- 73.998
1.65 141.954 76.404
1.66 134.413 76.175
1.67 128.184 74.673
1.68 125.772 73.112
1.69 124.297 72.108
1.70 128.736 71.975
1.71 129.317 72.402
1.72 129.184 72.612
1.73 127.935 71.483
1.74 126.213 68.292
1.75 126.943 63.305
1.76 128.989 58.508
1.77 146.991 55.951
1.78 --undefined-- 61.269
1.79 --undefined-- 67.939
1.80 --undefined-- 71.156
1.81 --undefined-- 71.052
1.82 --undefined-- 69.187
1.83 --undefined-- 67.885
1.84 --undefined-- 67.810
1.85 117.436 69.516
1.86 112.043 71.354
1.87 107.480 72.618
1.88 112.985 73.598
1.89 119.322 74.634
1.90 126.664 75.766
1.91 136.414 77.149
1.92 146.204 78.626
1.93 153.083 79.397
1.94 155.180 78.650
1.95 159.827 76.482
1.96 168.463 74.381
1.97 167.677 72.866
1.98 164.036 72.564
1.99 170.157 75.070
2.00 157.588 77.528
2.01 157.006 77.930
2.02 125.759 76.595
2.03 124.990 74.847
2.04 117.323 73.232
2.05 99.081 71.753
2.06 98.464 70.061
2.07 91.148 68.622
2.08 90.494 67.575
2.09 91.057 66.320
2.10 90.724 65.748
2.11 93.808 66.543
2.12 96.202 68.182
2.13 103.609 70.106
2.14 109.346 71.939
2.15 116.273 73.446
2.16 117.545 74.315
2.17 118.068 74.469
2.18 118.196 74.301
2.19 114.540 74.073
2.20 113.596 73.674
2.21 111.810 73.175
2.22 106.860 72.880
2.23 104.831 72.759
2.24 103.882 72.281
2.25 103.379 71.311
2.26 101.005 70.074
2.27 98.933 68.758
2.28 101.661 67.273
2.29 98.946 65.564
2.30 100.120 63.669
2.31 101.747 61.760
2.32 105.545 60.268
2.33 114.087 58.378
2.34 --undefined-- 54.628
2.35 --undefined-- 49.852
2.36 --undefined-- 49.574
2.37 --undefined-- 51.976
2.38 --undefined-- 55.292
2.39 --undefined-- 63.382
2.40 --undefined-- 71.013
2.41 160.140 75.568
2.42 158.364 77.811
2.43 158.278 78.589
2.44 157.905 78.623
2.45 156.764 78.487
2.46 155.481 78.109
2.47 153.117 77.137
2.48 149.026 75.501
2.49 146.927 72.939
2.50 151.386 68.907
2.51 162.084 63.972
2.52 155.620 60.917
2.53 157.608 60.343
2.54 157.528 61.250
2.55 --undefined-- 62.226
2.56 --undefined-- 61.973
2.57 --undefined-- 62.816
2.58 --undefined-- 67.547
2.59 --undefined-- 71.105
2.60 107.708 72.550
2.61 104.092 72.695
2.62 101.590 72.272
2.63 99.148 71.760
2.64 99.046 71.077
2.65 95.235 69.771
2.66 90.351 67.557
2.67 --undefined-- 64.618
2.68 --undefined-- 61.420
2.69 --undefined-- 59.613
2.70 --undefined-- 61.579
2.71 --undefined-- 62.595
2.72 --undefined-- 64.645
2.73 --undefined-- 67.049
2.74 --undefined-- 68.773
2.75 --undefined-- 70.299
2.76 100.699 71.720
2.77 104.831 73.173
2.78 107.791 74.083
2.79 107.308 74.483
2.80 109.169 74.594
2.81 109.594 73.664
2.82 101.153 71.087
2.83 104.139 67.609
2.84 104.699 64.984
2.85 104.291 63.419
2.86 103.592 63.809
2.87 113.854 66.859
2.88 113.381 70.146
2.89 114.227 72.567
2.90 115.487 74.011
2.91 117.074 74.596
2.92 119.346 74.615
2.93 123.008 74.276
2.94 126.526 73.177
2.95 123.731 70.463
2.96 127.528 66.387
2.97 128.843 64.048
2.98 131.975 67.928
2.99 157.233 73.282
3.00 154.222 75.987
3.01 146.381 76.312
3.02 140.469 74.860
3.03 134.911 71.555
3.04 130.569 66.548
3.05 140.178 61.985
3.06 136.278 58.222
3.07 146.108 54.562
3.08 143.561 51.938
3.09 --undefined-- 50.074
3.10 --undefined-- 50.051
3.11 --undefined-- 52.365
3.12 --undefined-- 59.765
3.13 --undefined-- 68.602
3.14 143.115 73.974
3.15 143.615 76.144
3.16 135.861 76.006
3.17 127.788 74.806
3.18 123.430 73.428
3.19 118.311 71.309
3.20 116.650 68.246
3.21 120.492 66.238
3.22 125.010 66.913
3.23 128.042 68.477
3.24 128.651 69.563
3.25 128.648 70.086
3.26 128.086 70.249
3.27 126.999 70.186
3.28 124.968 69.909
3.29 121.345 69.059
3.30 117.612 67.039
3.31 116.357 63.804
3.32 121.982 59.711
3.33 --undefined-- 54.690
3.34 --undefined-- 50.832
3.35 --undefined-- 49.062
3.36 --undefined-- 48.813
3.37 --undefined-- 50.269
3.38 --undefined-- 56.015
3.39 --undefined-- 62.058
3.40 112.359 65.818
3.41 109.453 68.010
3.42 107.388 69.444
3.43 106.843 70.475
3.44 107.658 71.350
3.45 110.253 72.260
3.46 113.807 73.173
3.47 117.641 73.872
3.48 122.671 74.307
3.49 127.983 74.799
3.50 132.853 75.505
3.51 137.593 76.179
3.52 141.401 76.474
3.53 144.367 76.119
3.54 145.749 74.846
3.55 146.379 72.599
3.56 148.399 70.052
3.57 151.524 68.021
3.58 151.670 65.996
3.59 152.377 63.148
3.60 150.342 59.278
3.61 147.207 55.649
3.62 147.661 55.000
3.63 --undefined-- 60.805
3.64 --undefined-- 68.403
3.65 158.732 73.470
3.66 145.375 75.691
3.67 137.597 75.848
3.68 130.024 75.391
3.69 128.302 75.250
3.70 126.960 75.240
3.71 126.404 75.180
3.72 126.425 75.412
3.73 125.579 76.134
3.74 121.633 76.625
3.75 123.623 76.414
3.76 124.367 76.079
3.77 125.206 76.343
3.78 127.538 76.885
3.79 127.463 77.125
3.80 126.673 76.889
3.81 125.981 76.014
3.82 123.714 74.212
3.83 120.889 71.709
3.84 122.545 69.815
3.85 124.794 69.360
3.86 127.417 70.419
3.87 128.833 72.763
3.88 126.921 74.952
3.89 123.696 76.232
3.90 123.903 76.372
3.91 114.775 75.348
3.92 111.614 74.049
3.93 109.295 73.260
3.94 108.316 72.630
3.95 108.423 72.118
3.96 109.634 71.952
3.97 109.975 71.539
3.98 105.203 70.189
3.99 102.385 67.799
4.00 101.400 64.597
4.01 98.421 60.648
4.02 99.943 56.317
4.03 100.840 52.751
4.04 --undefined-- 49.618
4.05 --undefined-- 46.255
4.06 --undefined-- 43.237
4.07 --undefined-- 41.206
4.08 --undefined-- 41.729
4.09 --undefined-- 47.969
4.10 --undefined-- 55.339
4.11 --undefined-- 61.700
4.12 --undefined-- 68.676
4.13 134.626 73.374
4.14 133.421 75.555
4.15 130.557 75.928
4.16 124.876 75.603
4.17 123.169 75.486
4.18 121.315 75.538
4.19 120.239 75.523
4.20 120.199 75.319
4.21 119.152 74.940
4.22 120.059 74.578
4.23 120.227 74.292
4.24 121.181 74.349
4.25 121.964 74.688
4.26 122.167 74.973
4.27 123.092 75.194
4.28 122.783 74.952
4.29 122.928 73.602
4.30 120.823 70.956
4.31 129.017 68.239
4.32 132.658 67.292
4.33 134.383 66.855
4.34 136.833 66.058
4.35 138.693 64.969
4.36 140.934 64.137
4.37 144.924 63.986
4.38 149.154 64.921
4.39 152.473 67.036
4.40 154.275 69.363
4.41 158.039 71.241
4.42 159.785 72.787
4.43 162.345 74.159
4.44 164.323 75.064
4.45 166.438 75.582
4.46 168.197 76.063
4.47 169.625 76.746
4.48 172.222 77.588
4.49 174.163 78.389
4.50 174.760 78.842
4.51 173.889 78.523
4.52 168.777 77.054
4.53 159.942 74.765
4.54 154.434 72.510
4.55 144.624 71.196
4.56 142.116 73.391
4.57 136.422 76.461
4.58 127.062 77.884
4.59 118.990 77.767
4.60 111.407 76.683
4.61 103.458 75.147
4.62 98.922 73.361
4.63 93.726 71.504
4.64 91.278 69.752
4.65 91.121 68.102
4.66 94.082 66.422
4.67 87.257 64.776
4.68 97.161 63.279
4.69 88.528 61.807
4.70 88.084 60.285
4.71 91.924 59.364
4.72 90.868 58.513
4.73 89.931 57.546
4.74 89.434 56.818
4.75 88.407 56.787
4.76 91.139 58.645
4.77 92.112 61.258
4.78 91.560 63.190
4.79 91.581 64.203
4.80 90.698 64.520
4.81 90.553 64.297
4.82 90.680 63.544
4.83 91.016 62.338
4.84 88.872 60.842
4.85 87.376 59.942
4.86 92.795 61.190
4.87 95.929 63.121
4.88 94.638 64.247
4.89 94.662 64.394
4.90 94.219 63.410
4.91 95.078 61.516
4.92 101.795 59.597
4.93 106.512 57.369
4.94 106.028 54.251
4.95 --undefined-- 56.778
4.96 --undefined-- 64.486
4.97 --undefined-- 70.321
4.98 129.492 73.731
4.99 124.093 75.223
5.00 119.955 75.695
5.01 119.407 75.878
5.02 117.872 --undefined--
5.03 117.052 --undefined--
5.04 --undefined-- --undefined--
5.05 --undefined-- --undefined--
