Time Pitch Intensity
0.01 --undefined-- --undefined--
0.02 139.294 --undefined--
0.03 139.178 --undefined--
0.04 140.592 --undefined--
0.05 142.897 68.742
0.06 144.641 68.872
0.07 146.005 69.652
0.08 147.273 70.380
0.09 148.157 70.812
0.10 149.167 71.005
0.11 151.440 71.044
0.12 154.722 70.915
0.13 157.388 70.545
0.14 160.329 70.043
0.15 162.228 69.539
0.16 164.271 69.156
0.17 166.779 68.950
0.18 169.237 68.804
0.19 170.868 68.477
0.20 173.375 67.518
0.21 176.077 66.125
0.22 178.028 65.551
0.23 178.261 65.947
0.24 177.407 66.210
0.25 175.510 65.608
0.26 170.737 63.955
0.27 163.070 61.375
0.28 158.708 57.886
0.29 --undefined-- 53.807
0.30 --undefined-- 51.072
0.31 --undefined-- 50.251
0.32 --undefined-- 49.258
0.33 --undefined-- 50.120
0.34 --undefined-- 51.540
0.35 --undefined-- 50.551
0.36 --undefined-- 47.333
0.37 --undefined-- 45.916
0.38 --undefined-- 47.027
0.39 --undefined-- 48.371
0.40 --undefined-- 51.370
0.41 --undefined-- 52.860
0.42 --undefined-- 54.340
0.43 170.366 59.222
0.44 169.724 63.206
0.45 169.518 65.320
0.46 169.066 66.288
0.47 167.386 66.774
0.48 165.392 67.094
0.49 163.293 67.193
0.50 159.905 66.754
0.51 158.909 65.742
0.52 158.783 64.851
0.53 160.470 64.563
0.54 161.333 64.583
0.55 162.412 64.476
0.56 165.147 63.873
0.57 167.701 62.462
0.58 167.843 60.162
0.59 162.935 57.174
0.60 168.105 54.283
0.61 --undefined-- 53.986
0.62 --undefined-- 53.900
0.63 --undefined-- 50.905
0.64 --undefined-- 45.703
0.65 --undefined-- 43.581
0.66 --undefined-- 44.611
0.67 --undefined-- 46.729
0.68 --undefined-- 48.325
0.69 --undefined-- 50.435
0.70 --undefined-- 53.973
0.71 214.744 58.036
0.72 196.320 61.569
0.73 195.559 64.000
0.74 196.760 65.038
0.75 192.543 64.797
0.76 190.938 63.740
0.77 189.504 62.646
0.78 182.439 62.332
0.79 181.937 62.707
0.80 190.935 63.780
0.81 194.450 65.260
0.82 202.751 66.319
0.83 204.789 66.882
0.84 204.879 67.374
0.85 205.064 67.818
0.86 206.467 67.765
0.87 206.925 66.531
0.88 217.917 63.940
0.89 218.132 61.278
0.90 215.130 60.729
0.91 212.462 61.317
0.92 211.181 62.247
0.93 209.509 64.033
0.94 207.329 66.029
0.95 202.225 67.025
0.96 198.877 66.782
0.97 194.290 65.793
0.98 190.766 64.728
0.99 190.550 64.196
1.00 190.766 63.932
1.01 190.748 63.411
1.02 192.295 62.851
1.03 199.618 62.407
1.04 201.823 61.994
1.05 201.237 61.524
1.06 201.565 60.890
1.07 202.365 59.908
1.08 201.851 57.884
1.09 --undefined-- 54.722
1.10 --undefined-- 52.628
1.11 --undefined-- 51.663
1.12 --undefined-- 51.382
1.13 --undefined-- 54.463
1.14 269.407 59.582
1.15 267.345 63.486
1.16 272.104 65.876
1.17 278.194 67.321
1.18 285.134 67.909
1.19 290.529 67.646
1.20 290.800 67.066
1.21 292.171 67.154
1.22 296.750 67.792
1.23 292.348 68.415
1.24 282.451 69.604
1.25 264.941 70.971
1.26 --undefined-- 71.616
1.27 --undefined-- 71.373
1.28 --undefined-- 70.117
1.29 --undefined-- 67.747
1.30 --undefined-- 64.405
1.31 --undefined-- 60.240
1.32 --undefined-- 56.859
1.33 241.865 55.601
1.34 226.577 54.482
1.35 199.330 52.890
1.36 194.263 51.564
1.37 193.542 51.300
1.38 197.262 51.979
1.39 205.074 53.336
1.40 210.155 55.145
1.41 216.176 56.830
1.42 208.607 58.257
1.43 177.024 59.775
1.44 171.540 61.081
1.45 167.125 61.835
1.46 169.632 63.106
1.47 172.077 64.774
1.48 170.899 65.231
1.49 168.742 64.036
1.50 162.384 61.903
1.51 --undefined-- 59.982
1.52 --undefined-- 57.941
1.53 --undefined-- 55.965
1.54 167.584 55.125
1.55 162.526 54.376
1.56 169.320 53.915
1.57 178.332 55.270
1.58 186.123 57.352
1.59 187.328 58.995
1.60 187.336 60.662
1.61 184.223 62.466
1.62 182.705 63.869
1.63 181.809 64.771
1.64 180.406 65.192
1.65 178.623 64.964
1.66 179.046 64.338
1.67 180.201 63.922
1.68 180.693 63.611
1.69 179.308 62.710
1.70 169.662 60.950
1.71 169.365 59.525
1.72 172.280 59.199
1.73 170.515 59.176
1.74 168.069 58.923
1.75 165.101 58.333
1.76 163.603 58.031
1.77 162.395 57.856
1.78 162.128 57.256
1.79 162.632 56.579
1.80 161.574 56.645
1.81 162.540 56.616
1.82 162.467 55.194
1.83 --undefined-- 52.199
1.84 --undefined-- 49.341
1.85 --undefined-- 51.960
1.86 --undefined-- 55.100
1.87 197.774 57.088
1.88 199.017 58.804
1.89 189.812 60.216
1.90 184.023 61.512
1.91 177.765 62.468
1.92 174.472 62.716
1.93 171.398 62.266
1.94 169.023 61.614
1.95 167.662 61.310
1.96 165.532 61.431
1.97 165.440 61.686
1.98 167.413 61.735
1.99 169.038 61.722
2.00 170.309 61.790
2.01 171.717 61.394
2.02 173.650 60.717
2.03 176.728 60.556
2.04 178.620 60.781
2.05 176.524 60.251
2.06 171.199 58.307
2.07 200.483 57.268
2.08 204.133 60.740
2.09 204.467 64.377
2.10 202.217 67.269
2.11 203.460 69.462
2.12 205.217 70.866
2.13 207.207 71.934
2.14 210.866 72.791
2.15 213.841 73.097
2.16 216.071 73.241
2.17 216.573 73.872
2.18 214.889 74.682
2.19 212.262 75.033
2.20 206.833 74.736
2.21 --undefined-- 73.626
2.22 --undefined-- 71.359
2.23 --undefined-- 67.987
2.24 --undefined-- 63.555
2.25 --undefined-- 58.563
2.26 --undefined-- 55.778
2.27 --undefined-- 55.172
2.28 --undefined-- 53.036
2.29 --undefined-- 49.320
2.30 --undefined-- 47.512
2.31 --undefined-- 48.488
2.32 --undefined-- 51.791
2.33 --undefined-- 55.475
2.34 --undefined-- 56.886
2.35 --undefined-- 55.316
2.36 --undefined-- 51.661
2.37 --undefined-- 49.321
2.38 --undefined-- 49.318
2.39 --undefined-- 49.618
2.40 --undefined-- 49.375
2.41 --undefined-- 50.237
2.42 --undefined-- 51.175
2.43 --undefined-- 50.784
2.44 --undefined-- 50.589
2.45 --undefined-- 50.427
2.46 --undefined-- 49.522
2.47 --undefined-- 49.835
2.48 --undefined-- 51.184
2.49 --undefined-- 51.135
2.50 --undefined-- 49.444
2.51 --undefined-- 46.918
2.52 --undefined-- 46.754
2.53 --undefined-- 48.568
2.54 --undefined-- 50.525
2.55 --undefined-- 55.796
2.56 --undefined-- 62.127
2.57 155.141 66.942
2.58 155.168 69.437
2.59 159.077 70.040
2.60 162.884 69.875
2.61 166.401 70.429
2.62 169.463 71.590
2.63 170.691 72.138
2.64 171.216 71.576
2.65 171.180 70.152
2.66 169.339 68.387
2.67 166.356 66.109
2.68 161.849 62.617
2.69 169.214 58.669
2.70 169.234 56.692
2.71 169.628 54.672
2.72 --undefined-- 51.671
2.73 --undefined-- 51.782
2.74 --undefined-- 53.629
2.75 --undefined-- 56.472
2.76 --undefined-- 62.324
2.77 155.997 66.799
2.78 161.014 69.573
2.79 167.094 71.413
2.80 172.811 72.758
2.81 179.993 73.706
2.82 187.671 73.707
2.83 198.631 72.515
2.84 207.845 70.770
2.85 212.829 68.977
2.86 217.151 67.273
2.87 215.450 66.273
2.88 209.463 65.077
2.89 169.454 63.229
2.90 161.785 61.623
2.91 --undefined-- 59.167
2.92 --undefined-- 55.402
2.93 --undefined-- 53.741
2.94 --undefined-- 53.496
2.95 --undefined-- 52.060
2.96 --undefined-- 53.298
2.97 265.415 56.990
2.98 240.918 59.437
2.99 191.786 60.736
3.00 186.733 61.582
3.01 185.353 62.151
3.02 182.461 62.461
3.03 180.127 62.438
3.04 178.224 62.298
3.05 177.093 62.318
3.06 175.975 62.337
3.07 175.482 62.312
3.08 175.943 62.381
3.09 176.565 62.529
3.10 177.704 62.660
3.11 178.926 62.642
3.12 180.046 61.910
3.13 177.551 59.527
3.14 --undefined-- 55.381
3.15 --undefined-- 52.923
3.16 --undefined-- 54.114
3.17 --undefined-- 56.917
3.18 236.237 60.955
3.19 225.151 64.052
3.20 225.516 65.933
3.21 226.055 66.762
3.22 228.590 66.895
3.23 232.498 67.002
3.24 235.670 66.825
3.25 237.982 66.131
3.26 238.601 65.445
3.27 237.937 65.256
3.28 237.802 65.366
3.29 239.652 64.905
3.30 243.839 62.867
3.31 252.404 58.488
3.32 --undefined-- 52.048
3.33 --undefined-- 49.123
3.34 --undefined-- 50.031
3.35 --undefined-- 48.916
3.36 --undefined-- 48.996
3.37 --undefined-- 53.836
3.38 --undefined-- 60.710
3.39 293.264 65.537
3.40 294.118 67.727
3.41 297.746 68.195
3.42 152.093 67.927
3.43 156.112 67.570
3.44 158.626 67.115
3.45 163.319 66.164
3.46 162.694 65.168
3.47 152.062 64.598
3.48 292.107 64.425
3.49 285.251 64.449
3.50 275.091 65.203
3.51 261.238 66.694
3.52 --undefined-- 67.410
3.53 --undefined-- 66.860
3.54 --undefined-- 65.312
3.55 --undefined-- 63.283
3.56 --undefined-- 61.219
3.57 --undefined-- 59.607
3.58 80.804 59.686
3.59 80.472 60.251
3.60 --undefined-- 59.298
3.61 --undefined-- 56.068
3.62 --undefined-- 51.073
3.63 --undefined-- 49.865
3.64 --undefined-- 51.707
3.65 --undefined-- 51.965
3.66 --undefined-- 52.932
3.67 264.042 57.684
3.68 258.427 61.805
3.69 263.399 64.972
3.70 268.262 66.932
3.71 271.062 66.700
3.72 272.886 63.748
3.73 268.959 58.708
3.74 271.724 54.192
3.75 273.296 51.528
3.76 --undefined-- 51.227
3.77 --undefined-- 51.390
3.78 --undefined-- 49.835
3.79 --undefined-- 47.010
3.80 --undefined-- 45.502
3.81 --undefined-- 48.054
3.82 --undefined-- 52.218
3.83 266.219 54.957
3.84 235.358 55.768
3.85 217.416 56.552
3.86 213.141 57.571
3.87 216.699 59.091
3.88 218.465 61.105
3.89 201.021 62.762
3.90 173.227 63.226
3.91 166.114 62.139
3.92 157.157 59.907
3.93 147.688 57.395
3.94 146.215 56.639
3.95 156.092 57.331
3.96 158.203 57.308
3.97 157.562 56.224
3.98 155.881 54.288
3.99 150.958 52.790
4.00 147.216 52.936
4.01 145.121 52.644
4.02 151.221 51.961
4.03 152.279 52.433
4.04 155.376 53.101
4.05 156.242 54.044
4.06 178.393 56.007
4.07 200.998 58.871
4.08 198.653 61.572
4.09 182.713 64.212
4.10 179.306 67.152
4.11 177.100 69.800
4.12 175.023 71.400
4.13 173.068 71.890
4.14 171.955 71.610
4.15 171.780 70.504
4.16 172.387 68.691
4.17 172.100 66.239
4.18 172.453 62.666
4.19 174.553 58.114
4.20 172.373 53.234
4.21 --undefined-- 49.280
4.22 --undefined-- 46.935
4.23 --undefined-- 47.941
4.24 --undefined-- 50.254
4.25 --undefined-- 51.121
4.26 --undefined-- 51.172
4.27 --undefined-- 50.737
4.28 --undefined-- 50.248
4.29 --undefined-- 49.058
4.30 --undefined-- 46.004
4.31 --undefined-- 42.745
4.32 --undefined-- 45.714
4.33 --undefined-- 49.276
4.34 --undefined-- 51.166
4.35 --undefined-- 50.974
4.36 --undefined-- 53.207
4.37 --undefined-- 58.739
4.38 --undefined-- 62.277
4.39 192.129 63.992
4.40 195.158 64.579
4.41 198.589 64.520
4.42 202.781 64.150
4.43 206.805 63.708
4.44 213.481 63.367
4.45 217.535 63.353
4.46 219.410 63.752
4.47 218.116 64.409
4.48 214.792 65.092
4.49 202.141 65.661
4.50 183.910 65.834
4.51 176.814 65.011
4.52 168.851 62.569
4.53 --undefined-- 58.260
4.54 --undefined-- 53.453
4.55 --undefined-- 50.609
4.56 --undefined-- 50.083
4.57 --undefined-- 51.026
4.58 --undefined-- 53.805
4.59 --undefined-- 58.948
4.60 202.264 63.095
4.61 199.518 65.445
4.62 195.748 66.681
4.63 194.560 67.258
4.64 193.733 67.234
4.65 194.094 66.922
4.66 195.157 66.693
4.67 196.793 66.252
4.68 197.981 65.555
4.69 197.110 65.368
4.70 197.158 65.558
4.71 198.441 64.977
4.72 199.379 62.616
4.73 199.440 58.349
4.74 188.825 54.267
4.75 196.911 53.906
4.76 198.712 54.744
4.77 --undefined-- 53.047
4.78 --undefined-- 48.910
4.79 --undefined-- 45.928
4.80 --undefined-- 44.797
4.81 --undefined-- 44.527
4.82 --undefined-- 44.063
4.83 --undefined-- 44.265
4.84 --undefined-- 45.554
4.85 --undefined-- 45.042
4.86 --undefined-- 43.416
4.87 --undefined-- 43.037
4.88 --undefined-- 47.007
4.89 --undefined-- 53.488
4.90 --undefined-- 58.664
4.91 --undefined-- 63.664
4.92 277.094 68.133
4.93 277.342 71.403
4.94 275.553 73.488
4.95 272.990 74.666
4.96 270.712 74.980
4.97 270.032 74.202
4.98 271.003 72.055
4.99 270.342 68.875
5.00 270.747 65.971
5.01 278.021 65.848
5.02 284.181 67.390
5.03 284.959 67.922
5.04 282.781 --undefined--
5.05 274.806 --undefined--
5.06 --undefined-- --undefined--
5.07 --undefined-- --undefined--
