Time Pitch Intensity
0.01 --undefined-- --undefined--
0.02 161.129 --undefined--
0.03 163.345 --undefined--
0.04 165.597 --undefined--
0.05 163.080 70.431
0.06 163.530 67.246
0.07 157.007 63.195
0.08 --undefined-- 63.965
0.09 --undefined-- 66.625
0.10 --undefined-- 66.768
0.11 --undefined-- 65.646
0.12 --undefined-- 70.060
0.13 189.644 76.147
0.14 186.273 79.291
0.15 184.869 80.146
0.16 184.831 79.839
0.17 183.591 78.808
0.18 179.034 76.677
0.19 166.065 72.980
0.20 157.396 67.392
0.21 164.273 60.440
0.22 --undefined-- 53.464
0.23 --undefined-- 50.563
0.24 --undefined-- 49.978
0.25 --undefined-- 48.676
0.26 --undefined-- 47.930
0.27 --undefined-- 48.074
0.28 --undefined-- 48.753
0.29 --undefined-- 49.803
0.30 --undefined-- 53.565
0.31 --undefined-- 62.633
0.32 --undefined-- 70.098
0.33 134.625 74.543
0.34 133.420 76.993
0.35 129.120 78.283
0.36 126.805 78.804
0.37 123.110 78.738
0.38 121.606 78.275
0.39 119.713 77.796
0.40 118.567 77.430
0.41 117.143 76.762
0.42 115.123 75.056
0.43 110.685 71.651
0.44 111.272 66.527
0.45 116.183 60.978
0.46 --undefined-- 55.645
0.47 --undefined-- 52.175
0.48 --undefined-- 51.398
0.49 --undefined-- 50.716
0.50 --undefined-- 50.454
0.51 --undefined-- 50.503
0.52 --undefined-- 51.419
0.53 --undefined-- 54.193
0.54 --undefined-- 58.532
0.55 --undefined-- 65.651
0.56 179.352 71.486
0.57 178.466 74.672
0.58 177.440 76.085
0.59 177.654 76.640
0.60 176.517 76.879
0.61 175.196 77.064
0.62 174.173 77.192
0.63 173.532 77.213
0.64 172.841 77.156
0.65 171.902 77.018
0.66 170.814 76.743
0.67 169.942 76.137
0.68 168.199 74.930
0.69 164.641 72.834
0.70 158.368 69.967
0.71 155.533 66.574
0.72 150.447 62.874
0.73 148.143 59.803
0.74 157.228 57.442
0.75 162.167 55.383
0.76 --undefined-- 53.294
0.77 --undefined-- 50.320
0.78 --undefined-- 49.636
0.79 --undefined-- 52.486
0.80 --undefined-- 54.392
0.81 --undefined-- 54.480
0.82 --undefined-- 54.216
0.83 --undefined-- 55.156
0.84 --undefined-- 56.518
0.85 --undefined-- 57.789
0.86 --undefined-- 58.572
0.87 --undefined-- 58.798
0.88 --undefined-- 59.905
0.89 --undefined-- 62.317
0.90 --undefined-- 64.454
0.91 --undefined-- 65.577
0.92 --undefined-- 65.604
0.93 --undefined-- 64.632
0.94 --undefined-- 64.159
0.95 --undefined-- 66.841
0.96 --undefined-- 70.290
0.97 107.851 72.233
0.98 105.656 72.950
0.99 101.730 72.994
1.00 97.980 72.846
1.01 95.019 72.778
1.02 92.853 72.457
1.03 91.938 71.470
1.04 90.162 69.811
1.05 88.857 67.418
1.06 87.210 64.663
1.07 91.760 64.020
1.08 98.342 65.879
1.09 102.540 67.970
1.10 105.510 69.518
1.11 109.104 70.712
1.12 113.443 72.056
1.13 121.150 73.731
1.14 127.028 75.523
1.15 133.636 77.168
1.16 139.229 78.452
1.17 140.867 79.264
1.18 145.191 79.424
1.19 147.023 79.020
1.20 147.808 78.612
1.21 147.754 78.175
1.22 146.550 77.258
1.23 137.491 75.670
1.24 137.881 73.002
1.25 148.637 68.614
1.26 147.169 62.224
1.27 146.908 56.569
1.28 144.319 54.893
1.29 --undefined-- 54.452
1.30 --undefined-- 54.211
1.31 --undefined-- 54.050
1.32 --undefined-- 54.341
1.33 --undefined-- 54.602
1.34 --undefined-- 54.307
1.35 --undefined-- 54.122
1.36 --undefined-- 54.558
1.37 --undefined-- 54.922
1.38 --undefined-- 55.385
1.39 --undefined-- 55.867
1.40 --undefined-- 55.553
1.41 --undefined-- 54.751
1.42 --undefined-- 53.995
1.43 --undefined-- 53.028
1.44 --undefined-- 51.470
1.45 --undefined-- 49.945
1.46 --undefined-- 49.276
1.47 --undefined-- 48.306
1.48 --undefined-- 46.404
1.49 --undefined-- 44.152
1.50 --undefined-- 43.372
1.51 --undefined-- 48.169
1.52 --undefined-- 54.252
1.53 --undefined-- 61.655
1.54 --undefined-- 70.091
1.55 --undefined-- 75.476
1.56 134.410 77.756
1.57 130.313 78.062
1.58 130.249 77.678
1.59 134.724 77.376
1.60 135.343 77.165
1.61 135.522 76.621
1.62 136.238 76.131
1.63 136.501 76.194
1.64 134.546 76.531
1.65 130.999 77.115
1.66 125.535 77.637
1.67 124.106 77.708
1.68 120.682 77.412
1.69 118.186 76.835
1.70 115.475 76.001
1.71 114.727 75.432
1.72 114.859 75.348
1.73 115.354 75.295
1.74 116.930 75.043
1.75 118.036 74.601
1.76 119.350 73.911
1.77 123.055 73.047
1.78 128.384 72.491
1.79 136.148 72.489
1.80 146.399 72.528
1.81 153.913 71.880
1.82 152.840 70.227
1.83 149.423 67.698
1.84 --undefined-- 64.655
1.85 --undefined-- 61.582
1.86 --undefined-- 58.369
1.87 --undefined-- 58.957
1.88 --undefined-- 64.066
1.89 74.618 67.871
1.90 101.547 70.513
1.91 129.435 72.327
1.92 129.980 73.553
1.93 131.733 74.238
1.94 133.068 74.332
1.95 134.349 74.317
1.96 132.352 74.938
1.97 128.659 75.832
1.98 123.379 76.539
1.99 121.610 76.929
2.00 124.465 77.118
2.01 124.370 77.237
2.02 123.022 76.979
2.03 121.862 75.946
2.04 120.735 73.874
2.05 119.086 70.643
2.06 116.721 66.360
2.07 120.791 61.338
2.08 --undefined-- 56.814
2.09 --undefined-- 56.009
2.10 --undefined-- 58.877
2.11 --undefined-- 66.035
2.12 --undefined-- 72.004
2.13 138.187 74.941
2.14 127.855 75.375
2.15 122.714 74.013
2.16 113.219 71.306
2.17 107.361 68.347
2.18 105.022 66.068
2.19 99.596 64.171
2.20 100.117 64.448
2.21 114.145 67.455
2.22 114.774 70.491
2.23 118.022 72.645
2.24 116.700 73.809
2.25 114.893 74.484
2.26 114.527 75.119
2.27 114.628 75.591
2.28 114.748 75.702
2.29 115.324 75.673
2.30 116.806 75.727
2.31 117.592 75.867
2.32 119.351 76.245
2.33 120.129 76.849
2.34 121.929 77.021
2.35 119.300 76.337
2.36 118.697 75.360
2.37 118.315 74.726
2.38 118.775 74.324
2.39 119.442 74.106
2.40 120.216 73.850
2.41 122.427 73.510
2.42 123.794 73.294
2.43 125.526 73.328
2.44 127.033 73.650
2.45 127.674 74.218
2.46 130.775 74.915
2.47 138.782 75.351
2.48 141.318 75.445
2.49 143.922 75.566
2.50 147.596 76.044
2.51 149.183 76.481
2.52 150.209 76.370
2.53 150.093 75.378
2.54 148.040 72.945
2.55 141.088 68.654
2.56 151.885 62.907
2.57 150.380 57.820
2.58 145.647 56.501
2.59 145.564 61.405
2.60 --undefined-- 68.954
2.61 --undefined-- 73.652
2.62 137.927 76.007
2.63 132.468 77.210
2.64 128.873 77.808
2.65 125.904 77.867
2.66 123.495 77.760
2.67 122.732 77.803
2.68 121.596 77.249
2.69 120.347 74.985
2.70 121.057 70.543
2.71 120.037 64.874
2.72 119.311 60.005
2.73 123.299 55.572
2.74 123.754 52.976
2.75 123.242 53.452
2.76 123.523 54.588
2.77 --undefined-- 58.710
2.78 --undefined-- 65.740
2.79 --undefined-- 71.592
2.80 129.622 74.912
2.81 127.100 76.045
2.82 120.877 75.691
2.83 117.360 74.574
2.84 115.656 72.806
2.85 113.916 69.975
2.86 114.721 65.890
2.87 114.984 60.484
2.88 --undefined-- 54.391
2.89 --undefined-- 49.929
2.90 --undefined-- 48.294
2.91 --undefined-- 46.667
2.92 --undefined-- 43.937
2.93 --undefined-- 42.306
2.94 --undefined-- 50.496
2.95 --undefined-- 58.388
2.96 --undefined-- 64.368
2.97 --undefined-- 69.751
2.98 161.168 73.067
2.99 157.603 73.990
3.00 153.556 73.328
3.01 149.478 71.983
3.02 145.477 70.659
3.03 145.030 70.190
3.04 144.955 70.482
3.05 144.880 71.006
3.06 144.566 71.839
3.07 142.859 72.390
3.08 142.470 71.580
3.09 141.546 68.642
3.10 131.762 63.909
3.11 135.794 59.560
3.12 --undefined-- 55.205
3.13 --undefined-- 48.866
3.14 --undefined-- 43.247
3.15 --undefined-- 43.675
3.16 --undefined-- 46.243
3.17 --undefined-- 53.382
3.18 --undefined-- 60.854
3.19 --undefined-- 68.085
3.20 174.917 73.271
3.21 157.475 75.840
3.22 154.761 76.525
3.23 150.501 76.348
3.24 146.332 76.004
3.25 144.866 75.496
3.26 143.781 74.861
3.27 142.897 74.455
3.28 141.749 74.227
3.29 141.133 73.921
3.30 141.230 73.550
3.31 141.315 73.373
3.32 140.733 73.445
3.33 139.367 73.397
3.34 136.992 72.960
3.35 133.419 72.219
3.36 129.035 71.290
3.37 124.063 69.901
3.38 119.534 67.955
3.39 119.954 66.899
3.40 116.597 68.189
3.41 113.683 70.917
3.42 113.373 73.513
3.43 111.993 75.154
3.44 112.162 75.959
3.45 113.204 76.288
3.46 114.922 76.448
3.47 116.735 76.234
3.48 115.439 74.928
3.49 113.085 72.595
3.50 120.986 71.182
3.51 121.892 71.101
3.52 122.010 71.229
3.53 120.729 71.669
3.54 122.292 72.833
3.55 119.696 74.081
3.56 115.025 74.594
3.57 112.559 74.568
3.58 110.790 74.640
3.59 109.720 74.843
3.60 109.535 74.997
3.61 108.659 74.778
3.62 106.471 73.301
3.63 96.795 69.951
3.64 98.837 65.577
3.65 97.255 62.094
3.66 101.430 61.200
3.67 110.595 65.270
3.68 113.646 70.069
3.69 110.531 72.817
3.70 107.572 73.840
3.71 106.778 74.005
3.72 106.620 73.871
3.73 105.674 73.500
3.74 105.263 72.621
3.75 102.299 71.270
3.76 105.365 70.605
3.77 105.049 70.519
3.78 106.900 69.936
3.79 105.184 69.199
3.80 102.751 69.498
3.81 86.301 69.255
3.82 86.703 67.274
3.83 --undefined-- 64.262
3.84 --undefined-- 62.069
3.85 --undefined-- 63.344
3.86 --undefined-- 66.011
3.87 104.678 67.590
3.88 100.121 68.250
3.89 99.536 68.456
3.90 92.431 68.366
3.91 94.552 68.159
3.92 94.444 67.445
3.93 88.118 66.027
3.94 90.277 64.670
3.95 89.160 63.895
3.96 91.340 63.851
3.97 93.037 64.308
3.98 94.182 64.977
3.99 95.241 65.684
4.00 95.773 65.975
4.01 96.019 65.389
4.02 94.632 63.738
4.03 93.287 61.257
4.04 94.155 58.702
4.05 103.020 56.186
4.06 --undefined-- 56.768
4.07 --undefined-- 62.873
4.08 --undefined-- 67.746
4.09 100.395 70.486
4.10 100.166 71.703
4.11 99.480 71.937
4.12 100.429 71.845
4.13 102.051 71.730
4.14 103.001 71.319
4.15 108.281 71.328
4.16 116.675 72.146
4.17 122.042 72.839
4.18 127.594 73.235
4.19 132.088 73.801
4.20 136.064 74.586
4.21 140.013 75.206
4.22 143.626 75.311
4.23 145.767 74.634
4.24 148.501 72.810
4.25 150.688 69.329
4.26 157.752 64.065
4.27 158.864 59.057
4.28 145.497 57.686
4.29 --undefined-- 58.035
4.30 --undefined-- 62.510
4.31 --undefined-- 71.526
4.32 197.699 77.359
4.33 174.381 79.639
4.34 167.614 79.320
4.35 153.785 77.725
4.36 148.381 76.429
4.37 144.172 76.199
4.38 141.868 76.366
4.39 139.491 76.407
4.40 134.570 76.444
4.41 128.858 76.478
4.42 122.933 75.734
4.43 116.171 73.975
4.44 109.475 71.986
4.45 103.314 70.167
4.46 97.237 68.721
4.47 91.023 67.214
4.48 88.299 64.829
4.49 --undefined-- 61.575
4.50 --undefined-- 57.916
4.51 --undefined-- 53.469
4.52 --undefined-- 50.719
4.53 --undefined-- 51.357
4.54 --undefined-- 52.824
4.55 --undefined-- 54.612
4.56 --undefined-- 54.460
4.57 --undefined-- 52.207
4.58 --undefined-- 50.504
4.59 --undefined-- 50.762
4.60 --undefined-- 51.629
4.61 --undefined-- 52.455
4.62 --undefined-- 52.981
4.63 --undefined-- 53.384
4.64 --undefined-- 53.830
4.65 --undefined-- 53.636
4.66 --undefined-- 53.062
4.67 --undefined-- 53.368
4.68 120.930 54.246
4.69 121.001 54.519
4.70 121.207 53.519
4.71 --undefined-- 50.934
4.72 --undefined-- 47.042
4.73 --undefined-- 43.362
4.74 --undefined-- 43.077
4.75 --undefined-- 53.471
4.76 --undefined-- 63.550
4.77 213.702 69.637
4.78 221.308 72.891
4.79 228.833 74.600
4.80 233.342 75.636
4.81 236.724 76.116
4.82 237.242 75.807
4.83 230.481 74.626
4.84 215.425 72.676
4.85 200.807 70.267
4.86 189.014 70.918
4.87 --undefined-- 75.709
4.88 --undefined-- 78.251
4.89 --undefined-- 77.890
4.90 169.343 75.926
4.91 156.021 74.530
4.92 147.573 74.384
4.93 144.869 74.547
4.94 139.972 74.198
4.95 134.259 73.010
4.96 129.222 71.732
4.97 132.885 71.862
4.98 133.989 72.628
4.99 137.022 73.674
5.00 135.757 75.105
5.01 134.490 76.138
5.02 131.324 76.490
5.03 129.352 76.572
5.04 126.749 76.718
5.05 124.373 77.087
5.06 122.337 77.577
5.07 121.066 77.563
5.08 121.102 76.607
5.09 120.479 74.611
5.10 112.405 71.196
5.11 117.225 --undefined--
5.12 120.377 --undefined--
5.13 --undefined-- --undefined--
5.14 --undefined-- --undefined--
