Time Pitch Intensity
0.01 --undefined-- --undefined--
0.02 278.964 --undefined--
0.03 276.648 --undefined--
0.04 273.425 --undefined--
0.05 269.251 72.594
0.06 263.186 72.325
0.07 254.637 71.993
0.08 244.392 71.861
0.09 236.919 72.082
0.10 221.620 72.253
0.11 201.950 72.306
0.12 189.080 72.288
0.13 169.151 71.836
0.14 147.155 70.992
0.15 140.265 69.679
0.16 138.048 67.955
0.17 140.573 66.128
0.18 134.862 64.676
0.19 134.452 63.551
0.20 130.807 62.345
0.21 124.988 61.143
0.22 122.881 59.448
0.23 --undefined-- 56.540
0.24 --undefined-- 52.895
0.25 --undefined-- 50.535
0.26 --undefined-- 49.949
0.27 --undefined-- 49.606
0.28 --undefined-- 48.773
0.29 --undefined-- 50.228
0.30 --undefined-- 55.873
0.31 --undefined-- 60.723
0.32 --undefined-- 63.991
0.33 89.885 66.098
0.34 88.566 67.344
0.35 88.719 67.764
0.36 89.283 67.945
0.37 87.626 68.823
0.38 173.831 70.118
0.39 172.418 70.869
0.40 170.949 71.001
0.41 171.243 70.855
0.42 171.783 70.619
0.43 173.022 70.324
0.44 175.789 70.011
0.45 177.658 69.714
0.46 177.694 69.257
0.47 175.595 68.251
0.48 172.474 66.113
0.49 173.551 62.251
0.50 --undefined-- 56.535
0.51 --undefined-- 51.362
0.52 --undefined-- 51.607
0.53 --undefined-- 56.590
0.54 --undefined-- 62.891
0.55 197.669 67.630
0.56 196.120 70.216
0.57 189.255 71.260
0.58 186.856 71.748
0.59 184.019 72.269
0.60 180.941 72.659
0.61 177.755 72.576
0.62 174.454 72.102
0.63 172.723 71.716
0.64 171.681 71.620
0.65 170.711 71.537
0.66 169.599 71.315
0.67 168.833 71.086
0.68 168.501 71.140
0.69 169.353 71.285
0.70 171.991 71.151
0.71 174.464 70.756
0.72 172.884 70.013
0.73 171.192 68.576
0.74 169.884 66.540
0.75 168.991 64.346
0.76 167.583 62.126
0.77 165.186 60.019
0.78 162.242 58.386
0.79 159.854 57.663
0.80 163.096 57.801
0.81 164.010 58.272
0.82 156.917 58.856
0.83 148.992 59.658
0.84 145.628 60.453
0.85 142.997 60.997
0.86 142.729 61.660
0.87 143.106 62.739
0.88 143.063 63.954
0.89 142.347 65.121
0.90 142.740 66.095
0.91 143.928 66.543
0.92 142.693 65.905
0.93 130.734 64.261
0.94 128.939 63.058
0.95 129.151 63.144
0.96 133.343 63.556
0.97 137.163 63.889
0.98 142.137 64.465
0.99 144.569 65.143
1.00 142.291 65.777
1.01 137.962 66.206
1.02 133.191 65.951
1.03 129.737 65.285
1.04 128.349 64.658
1.05 128.989 63.913
1.06 138.063 62.719
1.07 133.796 61.529
1.08 135.725 61.185
1.09 138.989 61.247
1.10 145.922 61.394
1.11 150.846 61.962
1.12 156.872 63.299
1.13 159.160 64.947
1.14 160.082 65.693
1.15 156.103 64.359
1.16 145.947 60.277
1.17 --undefined-- 53.483
1.18 --undefined-- 47.464
1.19 --undefined-- 47.409
1.20 --undefined-- 51.509
1.21 --undefined-- 56.155
1.22 --undefined-- 61.325
1.23 249.831 67.747
1.24 237.119 72.407
1.25 234.564 74.815
1.26 234.068 75.812
1.27 234.644 76.054
1.28 236.055 75.919
1.29 237.963 75.647
1.30 239.900 75.345
1.31 242.083 75.002
1.32 244.301 74.706
1.33 247.728 74.599
1.34 250.504 74.471
1.35 254.278 74.259
1.36 258.717 74.108
1.37 262.492 74.058
1.38 264.522 73.804
1.39 264.272 72.721
1.40 259.457 70.266
1.41 250.877 66.130
1.42 250.443 59.980
1.43 --undefined-- 52.309
1.44 --undefined-- 50.803
1.45 --undefined-- 54.565
1.46 --undefined-- 56.605
1.47 --undefined-- 55.676
1.48 --undefined-- 54.103
1.49 --undefined-- 59.259
1.50 226.828 66.292
1.51 209.726 70.171
1.52 187.415 71.217
1.53 166.026 70.079
1.54 127.143 67.335
1.55 126.570 63.819
1.56 118.202 60.798
1.57 110.484 59.262
1.58 132.790 59.127
1.59 143.343 59.798
1.60 161.611 61.010
1.61 175.595 63.172
1.62 177.950 65.808
1.63 178.593 68.019
1.64 183.571 69.463
1.65 186.651 70.205
1.66 187.161 70.233
1.67 187.289 69.347
1.68 189.791 67.178
1.69 182.262 63.155
1.70 --undefined-- 56.751
1.71 --undefined-- 48.785
1.72 --undefined-- 41.981
1.73 --undefined-- 33.879
1.74 --undefined-- 26.233
1.75 --undefined-- 27.191
1.76 --undefined-- 29.819
1.77 --undefined-- 31.467
1.78 --undefined-- 31.676
1.79 --undefined-- 32.123
1.80 --undefined-- 33.701
1.81 --undefined-- 34.908
1.82 --undefined-- 35.971
1.83 --undefined-- 36.893
1.84 --undefined-- 37.037
1.85 --undefined-- 35.971
1.86 --undefined-- 34.554
1.87 --undefined-- 35.142
1.88 --undefined-- 36.980
1.89 --undefined-- 38.304
1.90 --undefined-- 39.145
1.91 --undefined-- 38.920
1.92 --undefined-- 37.725
1.93 --undefined-- 37.203
1.94 --undefined-- 36.831
1.95 --undefined-- 35.555
1.96 --undefined-- 33.505
1.97 --undefined-- 32.199
1.98 --undefined-- 32.398
1.99 --undefined-- 32.062
2.00 --undefined-- 30.100
2.01 --undefined-- 28.934
2.02 --undefined-- 31.929
2.03 --undefined-- 33.398
2.04 --undefined-- 31.577
2.05 --undefined-- 27.956
2.06 --undefined-- 26.805
2.07 --undefined-- 36.149
2.08 --undefined-- 47.205
2.09 --undefined-- 53.772
2.10 --undefined-- 57.862
2.11 --undefined-- 61.974
2.12 --undefined-- 66.121
2.13 181.092 68.963
2.14 173.757 70.473
2.15 169.999 71.272
2.16 166.588 71.874
2.17 163.672 72.402
2.18 161.920 72.725
2.19 159.076 72.685
2.20 158.895 72.573
2.21 155.965 72.585
2.22 156.639 72.533
2.23 158.503 72.075
2.24 160.361 71.241
2.25 163.079 70.652
2.26 167.528 70.319
2.27 167.813 69.870
2.28 174.043 69.534
2.29 176.452 69.417
2.30 175.908 69.483
2.31 175.103 69.580
2.32 174.115 69.368
2.33 171.785 68.541
2.34 170.681 67.126
2.35 175.743 66.327
2.36 --undefined-- 68.505
2.37 --undefined-- 71.438
2.38 185.654 72.995
2.39 182.889 73.401
2.40 182.787 73.432
2.41 183.567 73.400
2.42 184.133 73.422
2.43 184.790 73.603
2.44 186.773 73.722
2.45 189.915 73.588
2.46 193.677 73.263
2.47 201.335 73.068
2.48 207.512 73.195
2.49 215.151 73.258
2.50 218.720 73.110
2.51 229.853 73.364
2.52 236.664 74.042
2.53 242.605 74.689
2.54 248.022 75.202
2.55 252.160 75.315
2.56 256.336 74.775
2.57 258.093 73.748
2.58 256.394 72.672
2.59 249.610 72.595
2.60 237.791 73.986
2.61 221.908 74.870
2.62 --undefined-- 74.104
2.63 --undefined-- 71.856
2.64 --undefined-- 68.542
2.65 --undefined-- 63.838
2.66 --undefined-- 57.482
2.67 --undefined-- 51.340
2.68 --undefined-- 47.451
2.69 --undefined-- 45.171
2.70 --undefined-- 47.338
2.71 --undefined-- 52.805
2.72 --undefined-- 55.610
2.73 --undefined-- 56.453
2.74 --undefined-- 58.983
2.75 230.660 63.061
2.76 230.865 66.611
2.77 253.304 69.189
2.78 249.655 70.907
2.79 248.325 72.094
2.80 248.854 72.982
2.81 251.240 73.276
2.82 256.070 73.020
2.83 260.630 72.523
2.84 263.543 72.142
2.85 264.793 72.062
2.86 263.235 71.732
2.87 259.849 71.305
2.88 256.072 71.487
2.89 252.858 71.747
2.90 249.057 71.771
2.91 243.869 71.597
2.92 235.464 71.175
2.93 223.247 70.451
2.94 210.976 69.760
2.95 196.809 70.175
2.96 189.683 71.278
2.97 180.596 71.664
2.98 169.964 71.026
2.99 161.102 69.694
3.00 156.368 68.153
3.01 153.606 66.865
3.02 154.646 66.724
3.03 158.055 67.263
3.04 158.730 67.509
3.05 158.957 67.364
3.06 159.016 67.068
3.07 159.682 66.825
3.08 160.251 66.428
3.09 158.066 65.413
3.10 156.697 63.286
3.11 159.943 59.504
3.12 --undefined-- 53.862
3.13 --undefined-- 48.494
3.14 --undefined-- 49.113
3.15 --undefined-- 59.280
3.16 --undefined-- 67.280
3.17 200.232 71.622
3.18 194.575 73.318
3.19 183.291 73.725
3.20 178.619 73.874
3.21 176.627 73.780
3.22 175.703 73.341
3.23 175.653 72.692
3.24 177.433 72.095
3.25 180.251 71.623
3.26 182.961 71.235
3.27 184.746 70.793
3.28 186.056 70.115
3.29 186.593 69.414
3.30 186.333 68.977
3.31 186.409 68.938
3.32 187.816 69.363
3.33 190.429 70.085
3.34 193.283 70.840
3.35 194.200 71.456
3.36 193.932 71.851
3.37 194.135 72.013
3.38 194.703 71.921
3.39 195.164 71.622
3.40 195.431 71.298
3.41 195.833 71.008
3.42 195.490 70.424
3.43 190.532 69.098
3.44 180.059 66.742
3.45 168.652 63.166
3.46 169.727 58.212
3.47 190.699 53.141
3.48 188.098 51.153
3.49 --undefined-- 51.350
3.50 --undefined-- 55.236
3.51 --undefined-- 59.641
3.52 --undefined-- 61.825
3.53 --undefined-- 62.151
3.54 --undefined-- 63.165
3.55 247.696 67.220
3.56 241.691 70.552
3.57 232.668 71.616
3.58 227.404 71.331
3.59 222.263 70.894
3.60 218.120 70.935
3.61 215.212 71.402
3.62 213.906 71.923
3.63 213.495 72.258
3.64 212.379 72.096
3.65 208.263 70.854
3.66 195.897 67.925
3.67 187.773 62.823
3.68 --undefined-- 55.804
3.69 --undefined-- 51.202
3.70 --undefined-- 51.174
3.71 --undefined-- 52.252
3.72 --undefined-- 55.402
3.73 --undefined-- 62.644
3.74 232.515 68.072
3.75 215.772 70.301
3.76 199.812 70.300
3.77 188.671 69.253
3.78 175.738 67.739
3.79 166.965 66.621
3.80 163.197 66.571
3.81 162.704 66.778
3.82 161.826 66.915
3.83 161.039 67.182
3.84 159.722 67.366
3.85 160.778 67.626
3.86 163.180 67.972
3.87 165.496 68.223
3.88 167.512 68.294
3.89 169.442 68.331
3.90 172.169 68.838
3.91 171.009 69.511
3.92 167.659 69.679
3.93 162.417 69.538
3.94 157.954 69.539
3.95 154.050 69.735
3.96 151.649 69.786
3.97 152.176 69.441
3.98 152.091 69.067
3.99 150.997 68.728
4.00 151.465 68.118
4.01 154.034 67.689
4.02 156.669 67.684
4.03 158.261 67.387
4.04 155.936 66.284
4.05 154.689 64.520
4.06 158.105 62.058
4.07 157.802 58.096
4.08 --undefined-- 52.325
4.09 --undefined-- 47.230
4.10 --undefined-- 49.156
4.11 --undefined-- 55.658
4.12 --undefined-- 60.416
4.13 --undefined-- 62.629
4.14 --undefined-- 65.416
4.15 187.671 69.330
4.16 180.565 71.319
4.17 170.166 71.174
4.18 158.159 70.013
4.19 152.756 69.000
4.20 154.997 68.151
4.21 167.408 67.916
4.22 176.713 68.380
4.23 185.635 69.113
4.24 194.267 70.041
4.25 203.468 70.666
4.26 214.126 70.917
4.27 224.352 70.837
4.28 236.790 70.551
4.29 247.117 70.643
4.30 254.401 70.946
4.31 260.324 71.001
4.32 268.048 70.908
4.33 271.102 71.168
4.34 269.943 71.522
4.35 269.330 72.037
4.36 263.651 73.252
4.37 256.833 74.047
4.38 247.160 73.737
4.39 238.442 73.096
4.40 230.523 72.747
4.41 221.291 72.466
4.42 215.175 72.258
4.43 211.665 71.927
4.44 207.549 70.690
4.45 194.470 67.789
4.46 185.685 62.870
4.47 198.098 56.250
4.48 203.859 52.086
4.49 204.667 52.409
4.50 201.263 53.320
4.51 --undefined-- 59.152
4.52 --undefined-- 66.467
4.53 217.498 70.812
4.54 214.797 72.473
4.55 209.418 72.509
4.56 206.576 72.249
4.57 205.735 72.225
4.58 204.667 72.202
4.59 202.764 71.950
4.60 197.086 70.775
4.61 192.432 67.778
4.62 183.914 62.347
4.63 197.534 56.078
4.64 198.598 54.092
4.65 209.196 53.719
4.66 211.694 52.530
4.67 --undefined-- 50.943
4.68 --undefined-- 49.660
4.69 --undefined-- 48.819
4.70 --undefined-- 48.593
4.71 --undefined-- 50.739
4.72 --undefined-- 57.064
4.73 --undefined-- 62.074
4.74 157.594 64.793
4.75 153.718 65.910
4.76 147.488 66.102
4.77 148.957 66.305
4.78 156.780 67.153
4.79 161.948 68.588
4.80 167.666 69.836
4.81 178.949 69.773
4.82 191.802 67.950
4.83 184.111 64.872
4.84 172.896 61.844
4.85 170.983 60.520
4.86 169.545 60.905
4.87 165.630 62.657
4.88 182.453 65.680
4.89 175.754 68.896
4.90 162.086 71.021
4.91 157.256 71.925
4.92 155.897 72.130
4.93 153.704 72.143
4.94 154.400 72.392
4.95 159.344 72.881
4.96 165.829 72.892
4.97 174.722 72.485
4.98 188.440 72.226
4.99 200.631 71.990
5.00 213.669 71.621
5.01 225.278 70.987
5.02 235.839 70.292
5.03 264.387 71.698
5.04 277.420 74.027
5.05 279.418 74.581
5.06 284.765 73.646
5.07 292.677 72.519
5.08 155.896 71.585
5.09 157.497 69.687
5.10 --undefined-- 65.418
5.11 290.317 58.648
5.12 --undefined-- 50.688
5.13 --undefined-- 45.413
5.14 --undefined-- 42.974
5.15 --undefined-- 41.472
5.16 --undefined-- 41.240
5.17 --undefined-- 42.045
5.18 --undefined-- 43.216
5.19 --undefined-- 43.632
5.20 --undefined-- 43.860
5.21 --undefined-- 44.417
5.22 --undefined-- 44.630
5.23 --undefined-- 44.864
5.24 --undefined-- 45.538
5.25 --undefined-- 46.139
5.26 --undefined-- 46.071
5.27 --undefined-- 45.338
5.28 --undefined-- 45.167
5.29 --undefined-- 45.389
5.30 --undefined-- 44.879
5.31 --undefined-- 43.909
5.32 --undefined-- 42.967
5.33 --undefined-- 42.020
5.34 --undefined-- 41.148
5.35 --undefined-- 39.134
5.36 --undefined-- 34.725
5.37 --undefined-- 31.221
5.38 --undefined-- 34.118
5.39 --undefined-- 35.362
5.40 --undefined-- 35.400
5.41 --undefined-- 47.157
5.42 --undefined-- 56.240
5.43 --undefined-- 61.611
5.44 171.348 64.495
5.45 169.770 66.172
5.46 167.776 67.252
5.47 166.749 67.888
5.48 165.244 --undefined--
5.49 163.940 --undefined--
5.50 --undefined-- --undefined--
5.51 --undefined-- --undefined--
