Time Pitch Intensity
0.01 --undefined-- --undefined--
0.02 168.194 --undefined--
0.03 167.836 --undefined--
0.04 173.787 --undefined--
0.05 182.817 68.107
0.06 197.612 68.952
0.07 205.471 69.540
0.08 216.226 70.372
0.09 223.171 71.063
0.10 230.317 71.401
0.11 234.191 71.561
0.12 235.361 71.518
0.13 236.958 71.208
0.14 236.872 70.815
0.15 233.265 70.471
0.16 228.305 70.181
0.17 222.975 69.782
0.18 215.034 69.127
0.19 206.352 68.277
0.20 195.955 67.311
0.21 185.927 66.503
0.22 180.014 65.918
0.23 174.195 65.314
0.24 166.253 64.900
0.25 161.807 65.391
0.26 154.916 66.540
0.27 150.544 67.809
0.28 149.515 69.056
0.29 150.553 70.218
0.30 152.796 71.022
0.31 157.045 71.246
0.32 162.703 71.147
0.33 166.038 70.673
0.34 167.617 69.245
0.35 160.408 66.597
0.36 168.749 63.403
0.37 172.316 60.535
0.38 171.160 59.830
0.39 180.359 62.908
0.40 177.624 66.607
0.41 175.995 68.975
0.42 172.206 69.971
0.43 165.063 70.130
0.44 161.323 69.692
0.45 158.010 68.773
0.46 152.576 67.756
0.47 149.408 67.050
0.48 147.202 66.515
0.49 146.681 66.024
0.50 146.979 65.645
0.51 147.742 65.409
0.52 151.032 65.570
0.53 154.018 65.929
0.54 156.874 66.303
0.55 159.186 66.856
0.56 160.302 67.389
0.57 160.537 67.731
0.58 161.090 68.195
0.59 162.173 68.961
0.60 163.570 69.721
0.61 164.392 70.091
0.62 163.774 69.974
0.63 163.418 69.551
0.64 164.130 69.106
0.65 165.869 68.752
0.66 170.214 68.457
0.67 174.557 68.354
0.68 178.135 68.524
0.69 180.383 68.776
0.70 179.640 68.941
0.71 180.259 69.163
0.72 183.591 69.565
0.73 184.951 69.945
0.74 186.324 70.181
0.75 189.556 70.254
0.76 194.427 70.237
0.77 197.162 70.231
0.78 199.741 70.289
0.79 202.427 70.475
0.80 204.954 70.479
0.81 206.652 69.966
0.82 206.086 68.820
0.83 205.977 66.983
0.84 207.559 64.713
0.85 207.355 62.447
0.86 201.052 59.893
0.87 192.257 56.380
0.88 202.777 51.699
0.89 --undefined-- 46.956
0.90 --undefined-- 43.374
0.91 --undefined-- 40.980
0.92 --undefined-- 39.318
0.93 --undefined-- 36.478
0.94 --undefined-- 32.970
0.95 --undefined-- 33.781
0.96 --undefined-- 36.426
0.97 --undefined-- 37.272
0.98 --undefined-- 36.577
0.99 --undefined-- 36.467
1.00 --undefined-- 40.039
1.01 --undefined-- 42.404
1.02 --undefined-- 42.998
1.03 --undefined-- 44.305
1.04 --undefined-- 45.850
1.05 --undefined-- 47.540
1.06 --undefined-- 52.003
1.07 183.658 57.868
1.08 166.336 62.182
1.09 156.389 65.038
1.10 154.565 66.814
1.11 156.724 67.807
1.12 159.645 68.438
1.13 162.655 68.951
1.14 166.007 69.550
1.15 169.610 70.309
1.16 173.974 70.932
1.17 178.736 71.199
1.18 181.758 71.110
1.19 184.639 70.486
1.20 187.060 69.195
1.21 186.103 67.828
1.22 182.816 67.407
1.23 186.564 67.680
1.24 191.076 68.060
1.25 193.651 68.178
1.26 195.288 67.830
1.27 194.900 67.328
1.28 194.396 67.157
1.29 193.608 67.171
1.30 192.308 66.789
1.31 192.766 65.413
1.32 195.100 62.669
1.33 192.057 59.109
1.34 196.093 56.029
1.35 198.178 54.075
1.36 201.518 54.981
1.37 208.943 58.738
1.38 199.539 62.187
1.39 189.744 64.344
1.40 181.266 65.399
1.41 173.402 65.974
1.42 168.914 66.752
1.43 166.557 67.485
1.44 164.324 67.536
1.45 160.587 67.130
1.46 157.919 66.728
1.47 156.019 66.447
1.48 154.711 66.446
1.49 153.655 66.609
1.50 152.509 66.618
1.51 151.330 66.451
1.52 150.201 66.255
1.53 149.239 66.066
1.54 147.509 65.821
1.55 143.713 65.405
1.56 138.594 64.743
1.57 131.998 63.981
1.58 125.526 63.479
1.59 120.107 63.266
1.60 114.304 63.084
1.61 110.515 62.823
1.62 107.834 62.489
1.63 106.605 62.335
1.64 107.336 62.443
1.65 109.692 62.598
1.66 110.727 62.682
1.67 111.694 62.827
1.68 113.786 62.963
1.69 115.441 63.066
1.70 117.036 63.229
1.71 117.294 63.466
1.72 116.447 63.940
1.73 113.817 64.662
1.74 113.107 65.148
1.75 113.369 65.213
1.76 116.772 65.210
1.77 118.208 65.230
1.78 117.829 64.944
1.79 119.266 64.137
1.80 120.496 62.605
1.81 117.787 60.003
1.82 112.836 56.899
1.83 116.429 54.390
1.84 146.058 51.587
1.85 146.881 48.633
1.86 --undefined-- 46.147
1.87 --undefined-- 43.093
1.88 --undefined-- 40.671
1.89 --undefined-- 39.007
1.90 --undefined-- 39.341
1.91 --undefined-- 49.661
1.92 --undefined-- 58.514
1.93 181.985 63.542
1.94 180.034 65.791
1.95 177.598 66.468
1.96 178.325 66.458
1.97 182.806 65.919
1.98 187.447 64.342
1.99 181.855 61.263
2.00 182.896 56.755
2.01 189.096 50.619
2.02 --undefined-- 44.624
2.03 --undefined-- 43.977
2.04 --undefined-- 44.629
2.05 --undefined-- 45.066
2.06 --undefined-- 52.761
2.07 --undefined-- 60.907
2.08 --undefined-- 65.434
2.09 189.279 67.178
2.10 165.402 67.321
2.11 151.583 66.870
2.12 144.617 66.483
2.13 142.011 66.093
2.14 140.729 65.120
2.15 134.610 63.120
2.16 130.011 59.725
2.17 138.352 54.867
2.18 139.380 49.165
2.19 --undefined-- 44.763
2.20 --undefined-- 42.828
2.21 --undefined-- 41.612
2.22 --undefined-- 41.365
2.23 --undefined-- 45.394
2.24 --undefined-- 53.200
2.25 --undefined-- 58.616
2.26 136.019 61.253
2.27 127.038 62.114
2.28 120.635 62.324
2.29 116.825 62.254
2.30 114.339 61.783
2.31 113.369 61.220
2.32 113.481 60.691
2.33 112.437 59.617
2.34 110.036 57.380
2.35 113.884 53.785
2.36 --undefined-- 49.039
2.37 --undefined-- 42.910
2.38 --undefined-- 37.684
2.39 --undefined-- 37.260
2.40 --undefined-- 40.784
2.41 --undefined-- 48.791
2.42 167.200 56.510
2.43 166.472 61.033
2.44 147.061 62.976
2.45 144.855 63.419
2.46 142.561 63.300
2.47 140.071 63.212
2.48 136.633 63.301
2.49 135.230 63.684
2.50 134.896 64.353
2.51 134.652 64.876
2.52 134.916 65.154
2.53 135.988 65.315
2.54 137.575 65.477
2.55 139.136 65.607
2.56 140.424 65.540
2.57 141.262 65.251
2.58 141.822 64.925
2.59 142.135 65.049
2.60 146.081 65.828
2.61 149.193 66.603
2.62 154.172 67.068
2.63 164.688 67.374
2.64 173.902 67.415
2.65 180.290 67.081
2.66 184.730 66.901
2.67 189.158 67.082
2.68 192.202 67.167
2.69 194.457 66.954
2.70 196.979 66.627
2.71 199.987 65.903
2.72 203.547 63.982
2.73 190.331 60.165
2.74 178.245 53.969
2.75 --undefined-- 45.741
2.76 --undefined-- 40.748
2.77 --undefined-- 40.721
2.78 --undefined-- 41.045
2.79 --undefined-- 41.300
2.80 --undefined-- 41.501
2.81 --undefined-- 42.400
2.82 --undefined-- 43.747
2.83 --undefined-- 44.849
2.84 --undefined-- 45.669
2.85 --undefined-- 46.154
2.86 --undefined-- 46.335
2.87 --undefined-- 46.123
2.88 --undefined-- 45.523
2.89 --undefined-- 45.083
2.90 --undefined-- 44.383
2.91 --undefined-- 42.951
2.92 --undefined-- 41.225
2.93 --undefined-- 39.909
2.94 --undefined-- 38.882
2.95 --undefined-- 38.181
2.96 --undefined-- 38.006
2.97 --undefined-- 38.355
2.98 --undefined-- 38.277
2.99 --undefined-- 39.830
3.00 --undefined-- 48.873
3.01 --undefined-- 55.550
3.02 --undefined-- 59.537
3.03 161.528 62.180
3.04 162.893 64.365
3.05 163.390 66.176
3.06 157.016 67.668
3.07 148.504 68.962
3.08 142.224 69.441
3.09 140.283 68.194
3.10 134.418 64.812
3.11 111.655 59.448
3.12 --undefined-- 52.874
3.13 --undefined-- 47.319
3.14 --undefined-- 44.789
3.15 --undefined-- 42.620
3.16 --undefined-- 39.844
3.17 --undefined-- 38.066
3.18 --undefined-- 38.573
3.19 --undefined-- 39.632
3.20 --undefined-- 40.121
3.21 --undefined-- 47.598
3.22 --undefined-- 57.914
3.23 206.737 64.605
3.24 202.955 68.055
3.25 195.697 69.256
3.26 188.104 69.477
3.27 185.210 69.524
3.28 185.506 69.472
3.29 184.345 69.468
3.30 184.117 69.572
3.31 185.964 69.724
3.32 187.949 69.890
3.33 189.827 70.033
3.34 191.669 70.120
3.35 191.570 70.223
3.36 190.338 70.538
3.37 187.667 70.724
3.38 182.569 70.577
3.39 181.182 70.795
3.40 179.068 71.357
3.41 177.123 71.329
3.42 177.524 70.236
3.43 182.117 68.535
3.44 183.284 66.888
3.45 181.581 64.786
3.46 178.603 61.335
3.47 179.123 56.516
3.48 --undefined-- 52.325
3.49 --undefined-- 50.020
3.50 --undefined-- 47.903
3.51 --undefined-- 45.701
3.52 --undefined-- 44.776
3.53 --undefined-- 43.444
3.54 --undefined-- 41.717
3.55 --undefined-- 42.282
3.56 --undefined-- 43.593
3.57 --undefined-- 44.297
3.58 --undefined-- 46.385
3.59 --undefined-- 50.829
3.60 --undefined-- 58.531
3.61 --undefined-- 65.193
3.62 216.326 69.003
3.63 209.695 70.742
3.64 203.741 71.435
3.65 198.322 71.507
3.66 191.810 71.030
3.67 187.730 70.426
3.68 187.422 70.027
3.69 187.192 70.012
3.70 185.725 70.567
3.71 183.493 71.248
3.72 182.059 71.458
3.73 184.437 70.965
3.74 192.566 69.833
3.75 193.908 68.438
3.76 191.252 67.287
3.77 187.785 66.599
3.78 185.080 66.248
3.79 182.556 65.935
3.80 181.082 65.639
3.81 180.313 65.816
3.82 178.828 67.057
3.83 173.297 68.727
3.84 167.887 69.550
3.85 160.305 69.584
3.86 155.740 69.782
3.87 149.545 69.998
3.88 142.095 69.370
3.89 135.077 68.139
3.90 130.648 67.323
3.91 127.998 66.977
3.92 126.526 66.536
3.93 125.321 66.077
3.94 126.311 65.831
3.95 128.263 65.634
3.96 132.142 65.590
3.97 137.821 66.346
3.98 141.154 67.517
3.99 141.476 68.095
4.00 141.361 68.215
4.01 143.492 68.401
4.02 142.767 68.654
4.03 142.007 69.053
4.04 141.952 69.680
4.05 141.711 70.224
4.06 141.064 70.449
4.07 140.013 70.238
4.08 139.517 69.640
4.09 139.944 68.790
4.10 140.475 67.915
4.11 140.309 67.055
4.12 139.161 65.448
4.13 138.575 62.330
4.14 167.530 57.761
4.15 170.941 53.278
4.16 164.704 49.284
4.17 140.979 46.337
4.18 --undefined-- 43.502
4.19 --undefined-- 40.594
4.20 --undefined-- 40.393
4.21 --undefined-- 47.959
4.22 --undefined-- 57.235
4.23 --undefined-- 62.918
4.24 154.798 65.666
4.25 147.156 66.646
4.26 131.611 66.751
4.27 126.075 66.420
4.28 117.158 65.757
4.29 112.417 64.914
4.30 113.408 64.356
4.31 111.403 64.161
4.32 113.115 63.991
4.33 113.436 63.880
4.34 117.604 64.157
4.35 117.903 64.690
4.36 119.206 65.127
4.37 120.576 65.546
4.38 115.672 65.997
4.39 114.916 66.038
4.40 109.675 65.268
4.41 108.000 63.884
4.42 105.852 62.519
4.43 104.337 61.537
4.44 105.547 61.355
4.45 105.876 61.893
4.46 105.387 62.576
4.47 100.057 63.022
4.48 99.368 63.199
4.49 96.093 63.228
4.50 95.723 63.118
4.51 96.891 63.101
4.52 92.441 63.207
4.53 92.515 62.724
4.54 75.802 60.998
4.55 91.977 57.703
4.56 93.331 52.102
4.57 --undefined-- 45.946
4.58 --undefined-- 42.855
4.59 --undefined-- 43.305
4.60 --undefined-- 47.121
4.61 --undefined-- 50.977
4.62 86.674 53.828
4.63 84.425 55.833
4.64 101.965 57.917
4.65 107.174 59.957
4.66 111.243 61.663
4.67 106.489 62.709
4.68 106.146 63.170
4.69 106.501 63.440
4.70 105.280 63.603
4.71 104.388 63.606
4.72 103.793 63.686
4.73 103.726 63.788
4.74 104.104 63.815
4.75 105.507 63.957
4.76 106.484 64.122
4.77 109.777 64.116
4.78 112.548 64.361
4.79 114.784 64.774
4.80 118.521 65.021
4.81 123.093 65.361
4.82 127.582 65.915
4.83 132.202 66.489
4.84 136.358 66.930
4.85 144.171 67.502
4.86 148.597 68.183
4.87 150.691 68.535
4.88 151.807 68.483
4.89 152.251 68.375
4.90 150.658 68.186
4.91 149.980 67.858
4.92 149.404 67.276
4.93 147.576 65.759
4.94 145.146 62.866
4.95 155.521 59.179
4.96 156.856 55.430
4.97 152.924 50.769
4.98 --undefined-- 44.988
4.99 --undefined-- 40.955
5.00 --undefined-- 40.067
5.01 --undefined-- 39.101
5.02 --undefined-- 38.088
5.03 --undefined-- 37.414
5.04 --undefined-- 37.576
5.05 --undefined-- 40.120
5.06 --undefined-- 47.116
5.07 --undefined-- 54.866
5.08 180.292 60.781
5.09 167.759 64.467
5.10 156.168 66.372
5.11 153.903 66.936
5.12 148.405 66.496
5.13 142.952 64.804
5.14 142.831 61.233
5.15 149.235 55.598
5.16 --undefined-- 48.645
5.17 --undefined-- 45.340
5.18 --undefined-- 46.082
5.19 --undefined-- 46.828
5.20 --undefined-- 46.727
5.21 --undefined-- 45.727
5.22 --undefined-- 44.886
5.23 --undefined-- 45.095
5.24 --undefined-- 45.342
5.25 --undefined-- 45.714
5.26 --undefined-- 46.501
5.27 --undefined-- 52.002
5.28 --undefined-- 60.000
5.29 --undefined-- 65.077
5.30 133.865 67.460
5.31 130.090 68.305
5.32 122.486 68.684
5.33 118.534 68.795
5.34 114.481 68.352
5.35 109.916 67.746
5.36 108.701 67.577
5.37 108.472 67.469
5.38 107.955 67.234
5.39 108.907 67.105
5.40 106.068 66.850
5.41 106.595 66.441
5.42 107.456 66.119
5.43 107.768 65.984
5.44 107.826 66.202
5.45 106.552 66.485
5.46 105.300 66.490
5.47 104.514 66.128
5.48 104.113 65.540
5.49 102.559 --undefined--
5.50 101.815 --undefined--
5.51 --undefined-- --undefined--
5.52 --undefined-- --undefined--
