Time Pitch Intensity
0.01 --undefined-- --undefined--
0.02 --undefined-- --undefined--
0.03 --undefined-- --undefined--
0.04 --undefined-- --undefined--
0.05 --undefined-- 60.610
0.06 --undefined-- 64.105
0.07 105.437 65.733
0.08 105.656 66.023
0.09 105.149 65.992
0.10 106.414 66.046
0.11 105.993 66.205
0.12 105.423 66.225
0.13 104.357 66.048
0.14 102.249 65.663
0.15 101.820 65.262
0.16 101.331 64.999
0.17 101.172 64.644
0.18 100.743 64.436
0.19 99.843 64.554
0.20 99.822 64.642
0.21 99.569 64.697
0.22 99.492 64.567
0.23 99.615 64.407
0.24 99.596 64.593
0.25 100.342 64.854
0.26 101.304 64.898
0.27 102.068 65.022
0.28 103.022 65.275
0.29 104.249 65.593
0.30 104.357 65.880
0.31 105.650 66.361
0.32 106.610 66.721
0.33 102.965 66.329
0.34 99.914 65.763
0.35 96.114 65.653
0.36 91.904 66.340
0.37 91.895 67.221
0.38 91.317 67.625
0.39 89.270 67.564
0.40 89.483 67.481
0.41 88.535 67.736
0.42 88.683 68.023
0.43 89.055 68.287
0.44 88.920 68.613
0.45 89.160 68.830
0.46 88.975 69.143
0.47 88.562 69.528
0.48 88.248 69.660
0.49 88.432 69.583
0.50 87.884 69.697
0.51 87.513 70.053
0.52 85.894 70.400
0.53 85.600 70.628
0.54 84.871 70.692
0.55 84.132 70.470
0.56 83.152 69.893
0.57 84.058 69.337
0.58 82.384 68.555
0.59 --undefined-- 66.707
0.60 --undefined-- 62.885
0.61 --undefined-- 56.179
0.62 --undefined-- 46.804
0.63 --undefined-- 46.096
0.64 --undefined-- 53.495
0.65 --undefined-- 59.711
0.66 --undefined-- 64.166
0.67 --undefined-- 66.459
0.68 --undefined-- 67.576
0.69 --undefined-- 68.627
0.70 --undefined-- 68.322
0.71 --undefined-- 66.463
0.72 124.923 64.414
0.73 121.896 62.713
0.74 119.638 61.178
0.75 118.730 60.431
0.76 116.555 60.229
0.77 115.111 59.572
0.78 111.890 59.071
0.79 111.440 58.984
0.80 110.221 57.840
0.81 --undefined-- 55.990
0.82 --undefined-- 55.923
0.83 --undefined-- 57.680
0.84 --undefined-- 60.331
0.85 --undefined-- 62.596
0.86 --undefined-- 63.376
0.87 --undefined-- 62.237
0.88 --undefined-- 59.998
0.89 --undefined-- 60.794
0.90 --undefined-- 63.596
0.91 --undefined-- 64.858
0.92 96.958 65.130
0.93 94.315 65.159
0.94 91.697 64.884
0.95 89.120 63.842
0.96 85.439 61.673
0.97 79.093 58.243
0.98 --undefined-- 53.648
0.99 --undefined-- 51.193
1.00 --undefined-- 56.277
1.01 --undefined-- 60.032
1.02 78.023 61.529
1.03 77.205 61.661
1.04 78.735 60.793
1.05 --undefined-- 59.278
1.06 --undefined-- 57.295
1.07 --undefined-- 54.308
1.08 --undefined-- 50.310
1.09 --undefined-- 48.469
1.10 --undefined-- 48.001
1.11 --undefined-- 47.475
1.12 --undefined-- 47.044
1.13 --undefined-- 45.117
1.14 --undefined-- 42.301
1.15 --undefined-- 49.153
1.16 --undefined-- 57.222
1.17 --undefined-- 61.653
1.18 --undefined-- 64.807
1.19 --undefined-- 66.950
1.20 --undefined-- 66.805
1.21 --undefined-- 63.810
1.22 --undefined-- 57.353
1.23 --undefined-- 47.071
1.24 --undefined-- 37.695
1.25 --undefined-- 35.627
1.26 --undefined-- 43.175
1.27 --undefined-- 53.493
1.28 --undefined-- 59.166
1.29 --undefined-- 62.100
1.30 --undefined-- 64.489
1.31 85.472 65.904
1.32 77.750 65.559
1.33 --undefined-- 63.754
1.34 --undefined-- 60.894
1.35 --undefined-- 57.374
1.36 --undefined-- 53.336
1.37 --undefined-- 48.254
1.38 --undefined-- 42.277
1.39 --undefined-- 37.491
1.40 --undefined-- 35.694
1.41 --undefined-- 36.548
1.42 --undefined-- 37.956
1.43 --undefined-- 38.872
1.44 --undefined-- 40.463
1.45 --undefined-- 42.360
1.46 --undefined-- 44.223
1.47 --undefined-- 45.327
1.48 --undefined-- 45.895
1.49 --undefined-- 46.746
1.50 --undefined-- 47.399
1.51 --undefined-- 47.134
1.52 --undefined-- 46.179
1.53 --undefined-- 45.309
1.54 --undefined-- 44.850
1.55 --undefined-- 44.425
1.56 --undefined-- 43.932
1.57 --undefined-- 43.198
1.58 --undefined-- 42.097
1.59 --undefined-- 40.608
1.60 --undefined-- 38.778
1.61 --undefined-- 37.534
1.62 --undefined-- 37.478
1.63 --undefined-- 37.555
1.64 --undefined-- 36.665
1.65 --undefined-- 35.211
1.66 --undefined-- 37.296
1.67 --undefined-- 44.925
1.68 --undefined-- 49.291
1.69 --undefined-- 49.783
1.70 --undefined-- 47.774
1.71 --undefined-- 45.898
1.72 --undefined-- 44.966
1.73 --undefined-- 46.795
1.74 --undefined-- 50.218
1.75 --undefined-- 51.958
1.76 89.173 52.338
1.77 87.884 52.203
1.78 88.680 52.020
1.79 87.750 52.298
1.80 88.025 53.798
1.81 87.931 57.576
1.82 --undefined-- 60.906
1.83 91.039 62.342
1.84 92.357 62.961
1.85 92.829 63.292
1.86 92.988 63.364
1.87 92.862 63.428
1.88 92.895 63.181
1.89 92.942 62.211
1.90 92.803 60.081
1.91 --undefined-- 56.028
1.92 --undefined-- 49.215
1.93 --undefined-- 40.353
1.94 --undefined-- 43.881
1.95 --undefined-- 56.946
1.96 --undefined-- 65.028
1.97 --undefined-- 68.494
1.98 --undefined-- 67.792
1.99 --undefined-- 64.377
2.00 --undefined-- 63.497
2.01 --undefined-- 64.266
2.02 --undefined-- 65.811
2.03 --undefined-- 68.061
2.04 114.787 70.148
2.05 112.550 71.735
2.06 109.554 72.119
2.07 108.687 71.087
2.08 108.071 68.994
2.09 107.221 66.521
2.10 108.083 64.880
2.11 108.261 64.414
2.12 109.059 63.635
2.13 --undefined-- 60.652
2.14 --undefined-- 54.359
2.15 --undefined-- 53.445
2.16 --undefined-- 59.136
2.17 --undefined-- 60.842
2.18 --undefined-- 61.590
2.19 --undefined-- 65.114
2.20 --undefined-- 67.499
2.21 114.643 67.894
2.22 114.334 66.772
2.23 112.401 64.570
2.24 110.871 62.365
2.25 106.722 61.152
2.26 104.299 60.299
2.27 103.366 59.595
2.28 101.068 59.108
2.29 100.214 59.174
2.30 99.260 60.933
2.31 97.708 63.624
2.32 97.085 65.994
2.33 96.531 67.862
2.34 95.217 69.097
2.35 95.027 69.499
2.36 92.932 68.468
2.37 --undefined-- 65.470
2.38 --undefined-- 60.936
2.39 --undefined-- 58.879
2.40 --undefined-- 59.907
2.41 --undefined-- 60.695
2.42 --undefined-- 60.649
2.43 --undefined-- 60.356
2.44 --undefined-- 60.407
2.45 --undefined-- 60.559
2.46 --undefined-- 60.850
2.47 --undefined-- 60.810
2.48 --undefined-- 59.405
2.49 --undefined-- 56.052
2.50 --undefined-- 56.199
2.51 --undefined-- 61.425
2.52 --undefined-- 64.036
2.53 --undefined-- 64.543
2.54 --undefined-- 64.724
2.55 --undefined-- 63.772
2.56 --undefined-- 63.018
2.57 --undefined-- 63.514
2.58 --undefined-- 61.879
2.59 --undefined-- 60.823
2.60 --undefined-- 61.047
2.61 --undefined-- 60.343
2.62 --undefined-- 60.646
2.63 --undefined-- 59.500
2.64 --undefined-- 57.359
2.65 --undefined-- 56.972
2.66 --undefined-- 56.724
2.67 --undefined-- 57.145
2.68 84.820 57.941
2.69 91.332 59.109
2.70 92.590 62.471
2.71 95.966 66.272
2.72 99.458 68.042
2.73 98.878 68.348
2.74 100.749 68.360
2.75 100.633 68.182
2.76 100.596 67.717
2.77 100.368 67.140
2.78 98.562 66.490
2.79 95.139 65.805
2.80 92.226 65.094
2.81 90.783 64.457
2.82 89.155 64.119
2.83 86.549 64.240
2.84 83.942 64.337
2.85 83.032 63.819
2.86 79.885 62.474
2.87 --undefined-- 60.140
2.88 --undefined-- 56.188
2.89 --undefined-- 50.389
2.90 --undefined-- 44.665
2.91 --undefined-- 41.512
2.92 --undefined-- 38.670
2.93 --undefined-- 35.914
2.94 --undefined-- 35.621
2.95 --undefined-- 37.353
2.96 --undefined-- 38.628
2.97 --undefined-- 39.638
2.98 --undefined-- 40.556
2.99 --undefined-- 41.443
3.00 --undefined-- 42.602
3.01 --undefined-- 43.665
3.02 --undefined-- 44.282
3.03 --undefined-- 44.104
3.04 --undefined-- 42.815
3.05 --undefined-- 40.960
3.06 --undefined-- 39.472
3.07 --undefined-- 38.688
3.08 --undefined-- 38.157
3.09 --undefined-- 37.417
3.10 --undefined-- 36.073
3.11 --undefined-- 34.177
3.12 --undefined-- 32.247
3.13 --undefined-- 30.862
3.14 --undefined-- 30.686
3.15 --undefined-- 32.078
3.16 --undefined-- 42.243
3.17 --undefined-- 54.571
3.18 --undefined-- 62.825
3.19 165.627 67.877
3.20 165.441 70.845
3.21 164.458 72.515
3.22 163.862 72.979
3.23 163.138 72.320
3.24 157.520 71.370
3.25 153.505 71.637
3.26 147.393 73.414
3.27 140.574 75.192
3.28 135.268 75.784
3.29 126.041 75.455
3.30 121.500 75.226
3.31 119.288 74.217
3.32 117.354 71.323
3.33 120.112 67.679
3.34 120.410 65.539
3.35 118.416 64.106
3.36 129.565 67.419
3.37 138.375 72.100
3.38 140.338 74.160
3.39 141.578 74.186
3.40 141.775 73.067
3.41 140.597 71.490
3.42 138.692 69.951
3.43 134.651 68.235
3.44 128.990 66.791
3.45 123.918 67.546
3.46 120.282 69.889
3.47 117.660 71.666
3.48 114.601 72.642
3.49 112.602 73.661
3.50 111.807 74.767
3.51 110.596 75.528
3.52 107.093 75.719
3.53 101.766 75.161
3.54 98.645 74.029
3.55 96.773 72.581
3.56 96.186 70.685
3.57 96.658 68.266
3.58 96.096 65.383
3.59 95.323 63.256
3.60 95.123 62.720
3.61 94.954 62.875
3.62 94.792 64.068
3.63 92.884 66.689
3.64 92.290 69.093
3.65 92.314 70.202
3.66 91.818 70.444
3.67 92.150 70.645
3.68 93.588 71.263
3.69 94.440 72.026
3.70 94.991 72.447
3.71 94.753 72.352
3.72 94.573 71.801
3.73 94.216 70.837
3.74 93.153 69.372
3.75 92.373 67.389
3.76 91.929 65.007
3.77 91.127 62.161
3.78 89.354 58.386
3.79 --undefined-- 53.490
3.80 --undefined-- 47.561
3.81 --undefined-- 42.270
3.82 --undefined-- 43.556
3.83 --undefined-- 54.404
3.84 --undefined-- 64.093
3.85 --undefined-- 69.771
3.86 97.306 72.467
3.87 92.965 73.477
3.88 91.848 73.394
3.89 90.694 72.192
3.90 89.997 70.359
3.91 89.379 68.531
3.92 88.779 66.375
3.93 88.219 63.280
3.94 --undefined-- 58.730
3.95 --undefined-- 51.555
3.96 --undefined-- 41.905
3.97 --undefined-- 45.338
3.98 --undefined-- 55.023
3.99 --undefined-- 61.361
4.00 --undefined-- 66.284
4.01 --undefined-- 69.644
4.02 --undefined-- 70.260
4.03 --undefined-- 67.275
4.04 --undefined-- 60.229
4.05 --undefined-- 48.973
4.06 --undefined-- 51.945
4.07 --undefined-- 58.808
4.08 --undefined-- 63.239
4.09 --undefined-- 66.359
4.10 84.542 67.549
4.11 83.913 66.693
4.12 80.433 64.248
4.13 80.390 60.455
4.14 --undefined-- 54.956
4.15 --undefined-- 48.057
4.16 --undefined-- 41.025
4.17 --undefined-- 36.617
4.18 --undefined-- 39.860
4.19 --undefined-- 47.807
4.20 --undefined-- 54.092
4.21 --undefined-- 58.462
4.22 --undefined-- 60.948
4.23 --undefined-- 61.517
4.24 --undefined-- 61.866
4.25 --undefined-- 64.547
4.26 --undefined-- 67.276
4.27 94.337 68.569
4.28 94.052 68.993
4.29 95.235 69.532
4.30 96.380 70.311
4.31 97.653 70.924
4.32 98.214 70.997
4.33 98.868 70.585
4.34 99.956 70.052
4.35 100.867 69.467
4.36 101.614 68.736
4.37 101.779 67.641
4.38 101.671 65.894
4.39 99.321 62.657
4.40 --undefined-- 57.093
4.41 --undefined-- 49.582
4.42 --undefined-- 44.920
4.43 --undefined-- 47.929
4.44 --undefined-- 56.256
4.45 --undefined-- 63.881
4.46 --undefined-- 69.314
4.47 --undefined-- 72.556
4.48 --undefined-- 74.868
4.49 --undefined-- 76.693
4.50 --undefined-- 76.729
4.51 --undefined-- 75.271
4.52 --undefined-- 73.051
4.53 --undefined-- 69.132
4.54 --undefined-- 64.764
4.55 108.600 62.335
4.56 106.917 60.126
4.57 105.979 58.577
4.58 103.510 57.978
4.59 102.585 57.631
4.60 102.207 57.310
4.61 102.182 57.613
4.62 101.089 59.146
4.63 --undefined-- 59.912
4.64 --undefined-- 58.691
4.65 --undefined-- 57.829
4.66 --undefined-- 60.239
4.67 --undefined-- 62.130
4.68 --undefined-- 61.716
4.69 --undefined-- 59.389
4.70 --undefined-- 57.022
4.71 --undefined-- 56.548
4.72 --undefined-- 57.258
4.73 --undefined-- 58.123
4.74 --undefined-- 59.041
4.75 --undefined-- 59.298
4.76 --undefined-- 57.756
4.77 --undefined-- 56.839
4.78 --undefined-- 61.773
4.79 --undefined-- 65.607
4.80 91.479 66.636
4.81 90.821 65.877
4.82 85.688 64.121
4.83 83.033 61.899
4.84 80.890 60.530
4.85 79.568 60.285
4.86 76.468 60.264
4.87 76.037 59.542
4.88 --undefined-- 57.469
4.89 --undefined-- 53.600
4.90 --undefined-- 48.808
4.91 --undefined-- 53.104
4.92 --undefined-- 60.025
4.93 --undefined-- 63.825
4.94 76.791 65.083
4.95 74.893 65.046
4.96 --undefined-- 64.277
4.97 --undefined-- 63.076
4.98 --undefined-- 61.938
4.99 --undefined-- 60.142
5.00 --undefined-- 56.772
5.01 --undefined-- 52.404
5.02 --undefined-- 49.728
5.03 --undefined-- 49.858
5.04 --undefined-- 50.261
5.05 --undefined-- 49.924
5.06 --undefined-- 49.035
5.07 --undefined-- 47.659
5.08 --undefined-- 45.068
5.09 --undefined-- 41.295
5.10 --undefined-- 37.877
5.11 --undefined-- 43.620
5.12 --undefined-- 50.328
5.13 --undefined-- 53.704
5.14 --undefined-- 55.165
5.15 --undefined-- 55.400
5.16 --undefined-- 58.068
5.17 --undefined-- 63.507
5.18 86.924 67.041
5.19 83.462 68.779
5.20 83.510 69.575
5.21 81.330 69.524
5.22 79.514 68.714
5.23 77.921 67.498
5.24 77.728 66.525
5.25 76.228 65.994
5.26 75.905 65.658
5.27 75.122 65.261
5.28 --undefined-- 64.862
5.29 --undefined-- 64.421
5.30 --undefined-- 63.063
5.31 --undefined-- 60.073
5.32 --undefined-- 54.733
5.33 --undefined-- 46.903
5.34 --undefined-- 42.402
5.35 --undefined-- 41.482
5.36 --undefined-- 39.810
5.37 --undefined-- 37.349
5.38 --undefined-- 36.709
5.39 --undefined-- 39.028
5.40 --undefined-- 41.479
5.41 --undefined-- 41.904
5.42 --undefined-- 40.337
5.43 --undefined-- 38.602
5.44 --undefined-- 38.320
5.45 --undefined-- 38.245
5.46 --undefined-- 37.973
5.47 --undefined-- 37.512
5.48 --undefined-- 36.310
5.49 --undefined-- 34.180
5.50 --undefined-- 32.410
5.51 --undefined-- 37.303
5.52 --undefined-- 47.365
5.53 --undefined-- 52.745
5.54 --undefined-- 53.728
5.55 --undefined-- 53.362
5.56 --undefined-- 58.767
5.57 --undefined-- 62.959
5.58 --undefined-- 66.151
5.59 --undefined-- 68.889
5.60 --undefined-- 69.967
5.61 80.033 70.174
5.62 79.942 69.961
5.63 79.413 69.108
5.64 77.637 --undefined--
5.65 77.048 --undefined--
5.66 --undefined-- --undefined--
5.67 --undefined-- --undefined--
