Time Pitch Intensity
0.01 --undefined-- --undefined--
0.02 --undefined-- --undefined--
0.03 --undefined-- --undefined--
0.04 --undefined-- --undefined--
0.05 --undefined-- 69.712
0.06 --undefined-- 69.338
0.07 --undefined-- 67.986
0.08 --undefined-- 65.618
0.09 --undefined-- 61.924
0.10 --undefined-- 56.802
0.11 --undefined-- 51.954
0.12 --undefined-- 49.035
0.13 --undefined-- 47.621
0.14 --undefined-- 46.875
0.15 --undefined-- 49.288
0.16 --undefined-- 53.394
0.17 182.090 56.322
0.18 181.360 57.991
0.19 179.029 58.793
0.20 175.315 58.825
0.21 170.261 57.887
0.22 163.406 56.308
0.23 159.704 55.394
0.24 159.404 55.653
0.25 158.001 55.964
0.26 156.517 55.834
0.27 156.349 55.858
0.28 154.693 56.689
0.29 152.926 57.641
0.30 152.119 58.011
0.31 151.572 58.283
0.32 156.183 59.361
0.33 158.112 60.718
0.34 158.026 61.717
0.35 160.234 63.014
0.36 164.285 64.700
0.37 167.415 66.006
0.38 170.439 66.680
0.39 173.723 66.814
0.40 177.143 66.540
0.41 180.544 66.365
0.42 182.386 66.435
0.43 176.697 65.619
0.44 176.390 62.759
0.45 173.088 57.746
0.46 --undefined-- 52.320
0.47 --undefined-- 51.112
0.48 --undefined-- 55.301
0.49 --undefined-- 58.890
0.50 --undefined-- 59.946
0.51 --undefined-- 59.947
0.52 181.548 62.131
0.53 179.680 64.159
0.54 163.603 64.653
0.55 152.446 64.525
0.56 150.498 64.394
0.57 149.876 64.035
0.58 151.617 63.622
0.59 154.851 63.515
0.60 157.301 63.560
0.61 160.187 63.276
0.62 163.160 62.795
0.63 167.474 62.417
0.64 171.885 61.914
0.65 172.133 60.473
0.66 165.270 57.329
0.67 --undefined-- 52.791
0.68 --undefined-- 49.221
0.69 --undefined-- 47.880
0.70 --undefined-- 49.255
0.71 --undefined-- 53.363
0.72 276.763 59.986
0.73 257.962 64.872
0.74 255.419 67.178
0.75 256.203 67.428
0.76 258.838 66.250
0.77 262.147 63.945
0.78 260.752 60.364
0.79 256.483 55.857
0.80 --undefined-- 52.593
0.81 --undefined-- 51.416
0.82 --undefined-- 52.902
0.83 --undefined-- 54.512
0.84 --undefined-- 54.738
0.85 --undefined-- 54.965
0.86 --undefined-- 55.541
0.87 --undefined-- 55.222
0.88 --undefined-- 54.290
0.89 --undefined-- 53.863
0.90 --undefined-- 55.458
0.91 --undefined-- 58.007
0.92 --undefined-- 59.681
0.93 --undefined-- 61.919
0.94 --undefined-- 64.843
0.95 177.554 66.827
0.96 174.473 67.353
0.97 171.140 66.803
0.98 168.157 66.112
0.99 166.315 64.983
1.00 163.943 62.282
1.01 --undefined-- 58.388
1.02 --undefined-- 56.704
1.03 --undefined-- 59.272
1.04 --undefined-- 61.039
1.05 --undefined-- 59.752
1.06 --undefined-- 55.252
1.07 --undefined-- 51.497
1.08 --undefined-- 51.329
1.09 --undefined-- 49.479
1.10 --undefined-- 46.594
1.11 --undefined-- 45.542
1.12 --undefined-- 46.547
1.13 --undefined-- 48.630
1.14 --undefined-- 49.815
1.15 --undefined-- 50.683
1.16 --undefined-- 52.123
1.17 --undefined-- 54.639
1.18 --undefined-- 59.879
1.19 265.257 65.246
1.20 258.538 68.747
1.21 251.516 70.851
1.22 248.493 72.062
1.23 247.072 72.482
1.24 246.776 72.328
1.25 247.621 71.875
1.26 248.676 71.138
1.27 249.955 70.146
1.28 250.002 69.325
1.29 249.396 68.850
1.30 247.977 68.253
1.31 246.818 67.346
1.32 245.883 66.135
1.33 244.432 64.336
1.34 244.328 62.851
1.35 254.445 63.285
1.36 255.692 63.942
1.37 257.115 64.373
1.38 262.438 64.973
1.39 265.338 65.923
1.40 263.376 67.278
1.41 262.753 68.704
1.42 261.816 69.561
1.43 261.030 69.409
1.44 260.469 68.204
1.45 260.939 65.958
1.46 263.009 62.358
1.47 262.326 57.253
1.48 --undefined-- 52.284
1.49 --undefined-- 49.475
1.50 --undefined-- 46.732
1.51 --undefined-- 44.645
1.52 --undefined-- 44.610
1.53 --undefined-- 45.866
1.54 --undefined-- 47.399
1.55 --undefined-- 49.766
1.56 --undefined-- 52.527
1.57 --undefined-- 54.393
1.58 --undefined-- 54.261
1.59 --undefined-- 52.390
1.60 --undefined-- 51.089
1.61 --undefined-- 51.284
1.62 --undefined-- 52.613
1.63 --undefined-- 53.714
1.64 --undefined-- 53.262
1.65 --undefined-- 52.342
1.66 --undefined-- 52.062
1.67 --undefined-- 51.716
1.68 --undefined-- 50.930
1.69 --undefined-- 50.336
1.70 --undefined-- 50.085
1.71 --undefined-- 49.866
1.72 --undefined-- 49.804
1.73 --undefined-- 49.076
1.74 --undefined-- 48.708
1.75 --undefined-- 49.778
1.76 --undefined-- 49.583
1.77 --undefined-- 46.985
1.78 --undefined-- 45.810
1.79 --undefined-- 46.136
1.80 --undefined-- 44.449
1.81 --undefined-- 43.418
1.82 --undefined-- 46.171
1.83 --undefined-- 50.502
1.84 --undefined-- 54.486
1.85 --undefined-- 57.976
1.86 248.326 62.384
1.87 274.361 66.602
1.88 277.276 69.295
1.89 270.701 71.422
1.90 271.468 75.066
1.91 274.771 78.413
1.92 277.161 79.727
1.93 278.428 79.869
1.94 283.551 78.817
1.95 287.192 75.744
1.96 290.105 72.773
1.97 289.064 72.352
1.98 288.321 72.011
1.99 286.313 70.786
2.00 284.490 69.009
2.01 279.935 67.287
2.02 273.487 65.575
2.03 266.985 63.433
2.04 263.783 61.704
2.05 269.208 61.587
2.06 273.287 63.152
2.07 269.426 65.503
2.08 238.217 69.324
2.09 221.368 73.045
2.10 208.205 74.963
2.11 202.584 75.066
2.12 202.644 73.578
2.13 205.163 70.416
2.14 204.964 65.657
2.15 204.660 60.861
2.16 204.869 58.513
2.17 203.589 56.552
2.18 --undefined-- 53.224
2.19 --undefined-- 50.581
2.20 --undefined-- 51.249
2.21 --undefined-- 52.302
2.22 --undefined-- 52.450
2.23 --undefined-- 52.408
2.24 --undefined-- 52.291
2.25 --undefined-- 52.778
2.26 --undefined-- 53.821
2.27 --undefined-- 55.142
2.28 --undefined-- 57.263
2.29 --undefined-- 62.114
2.30 277.344 66.364
2.31 --undefined-- 68.535
2.32 --undefined-- 69.709
2.33 --undefined-- 69.033
2.34 --undefined-- 66.181
2.35 217.140 66.714
2.36 207.089 68.700
2.37 196.118 68.598
2.38 193.093 67.922
2.39 191.677 67.906
2.40 190.862 68.025
2.41 189.255 67.866
2.42 187.113 67.366
2.43 185.704 66.973
2.44 185.596 67.154
2.45 187.744 67.438
2.46 188.751 67.191
2.47 189.454 66.292
2.48 192.029 65.046
2.49 192.892 63.753
2.50 190.590 61.581
2.51 186.919 58.183
2.52 --undefined-- 56.147
2.53 --undefined-- 56.993
2.54 --undefined-- 57.032
2.55 --undefined-- 54.522
2.56 --undefined-- 50.936
2.57 --undefined-- 50.789
2.58 --undefined-- 52.715
2.59 --undefined-- 55.061
2.60 273.208 58.070
2.61 258.790 61.543
2.62 263.308 63.981
2.63 268.917 65.299
2.64 274.319 66.169
2.65 276.891 66.950
2.66 277.694 67.731
2.67 280.848 68.868
2.68 288.615 70.174
2.69 287.895 70.691
2.70 283.219 70.135
2.71 276.267 68.814
2.72 265.384 67.074
2.73 249.343 65.619
2.74 233.028 65.262
2.75 216.851 65.588
2.76 204.441 66.275
2.77 196.205 66.980
2.78 190.053 66.837
2.79 187.379 65.471
2.80 186.995 63.837
2.81 178.785 63.147
2.82 169.958 62.854
2.83 166.298 62.565
2.84 162.103 62.161
2.85 158.765 61.641
2.86 158.619 61.128
2.87 162.154 60.806
2.88 167.089 60.877
2.89 168.193 61.236
2.90 168.035 61.530
2.91 168.701 61.600
2.92 171.120 61.451
2.93 173.119 60.871
2.94 173.237 59.226
2.95 --undefined-- 55.745
2.96 --undefined-- 50.934
2.97 --undefined-- 48.351
2.98 --undefined-- 49.151
2.99 --undefined-- 54.382
3.00 --undefined-- 59.515
3.01 168.867 61.943
3.02 166.724 62.325
3.03 165.029 61.998
3.04 165.328 62.069
3.05 166.035 62.744
3.06 166.354 63.541
3.07 166.236 64.016
3.08 164.694 64.047
3.09 164.233 63.771
3.10 164.524 63.410
3.11 165.100 62.903
3.12 166.691 62.118
3.13 168.995 60.811
3.14 168.832 58.331
3.15 --undefined-- 53.905
3.16 --undefined-- 48.947
3.17 --undefined-- 48.480
3.18 --undefined-- 49.303
3.19 --undefined-- 48.767
3.20 --undefined-- 51.226
3.21 --undefined-- 57.746
3.22 236.174 62.231
3.23 229.622 64.725
3.24 224.463 66.484
3.25 222.350 67.746
3.26 222.891 68.198
3.27 224.956 67.844
3.28 227.900 67.055
3.29 230.625 66.317
3.30 231.594 65.426
3.31 231.813 63.887
3.32 230.144 62.078
3.33 231.511 61.698
3.34 234.256 62.567
3.35 233.575 62.922
3.36 230.827 62.200
3.37 225.543 60.007
3.38 --undefined-- 55.988
3.39 --undefined-- 52.700
3.40 --undefined-- 55.522
3.41 --undefined-- 60.696
3.42 --undefined-- 64.429
3.43 --undefined-- 66.618
3.44 --undefined-- 67.716
3.45 --undefined-- 67.995
3.46 --undefined-- 67.479
3.47 --undefined-- 66.502
3.48 --undefined-- 66.029
3.49 --undefined-- 65.743
3.50 --undefined-- 64.084
3.51 --undefined-- 60.232
3.52 --undefined-- 55.532
3.53 --undefined-- 53.239
3.54 --undefined-- 52.610
3.55 --undefined-- 53.106
3.56 --undefined-- 53.605
3.57 --undefined-- 53.720
3.58 156.467 55.920
3.59 156.580 59.515
3.60 157.988 61.846
3.61 158.266 62.590
3.62 157.351 62.267
3.63 155.435 61.897
3.64 155.083 62.156
3.65 155.476 62.582
3.66 155.962 62.680
3.67 156.726 62.634
3.68 158.735 62.829
3.69 161.884 63.343
3.70 166.493 64.157
3.71 170.342 65.068
3.72 173.786 65.416
3.73 173.990 64.590
3.74 175.563 63.263
3.75 186.122 63.112
3.76 193.547 63.895
3.77 197.285 65.302
3.78 198.915 68.063
3.79 198.135 70.922
3.80 191.745 73.092
3.81 187.481 74.725
3.82 184.825 75.375
3.83 182.526 75.302
3.84 179.307 75.413
3.85 176.721 75.759
3.86 172.668 75.784
3.87 168.130 75.360
3.88 166.308 74.597
3.89 163.716 73.381
3.90 --undefined-- 71.732
3.91 --undefined-- 68.446
3.92 --undefined-- 62.996
3.93 --undefined-- 57.735
3.94 --undefined-- 55.623
3.95 --undefined-- 54.867
3.96 --undefined-- 54.163
3.97 --undefined-- 54.848
3.98 --undefined-- 54.720
3.99 --undefined-- 53.678
4.00 --undefined-- 52.426
4.01 --undefined-- 50.326
4.02 --undefined-- 49.540
4.03 --undefined-- 48.878
4.04 --undefined-- 49.513
4.05 --undefined-- 53.040
4.06 --undefined-- 54.768
4.07 --undefined-- 53.566
4.08 --undefined-- 51.369
4.09 --undefined-- 50.249
4.10 --undefined-- 49.002
4.11 --undefined-- 49.852
4.12 --undefined-- 51.280
4.13 --undefined-- 50.539
4.14 --undefined-- 48.873
4.15 --undefined-- 49.434
4.16 --undefined-- 50.723
4.17 --undefined-- 52.006
4.18 --undefined-- 52.183
4.19 --undefined-- 52.252
4.20 --undefined-- 52.841
4.21 --undefined-- 52.552
4.22 --undefined-- 51.304
4.23 --undefined-- 49.746
4.24 --undefined-- 49.828
4.25 --undefined-- 50.368
4.26 --undefined-- 49.755
4.27 --undefined-- 49.397
4.28 --undefined-- 50.477
4.29 --undefined-- 52.332
4.30 --undefined-- 53.123
4.31 --undefined-- 52.247
4.32 --undefined-- 52.270
4.33 --undefined-- 52.353
4.34 --undefined-- 50.494
4.35 --undefined-- 48.430
4.36 --undefined-- 48.518
4.37 --undefined-- 48.806
4.38 --undefined-- 48.297
4.39 --undefined-- 47.382
4.40 --undefined-- 46.230
4.41 --undefined-- 45.933
4.42 --undefined-- 48.361
4.43 --undefined-- 51.625
4.44 --undefined-- 52.583
4.45 --undefined-- 50.781
4.46 --undefined-- 50.149
4.47 --undefined-- 52.161
4.48 --undefined-- 56.669
4.49 243.704 62.126
4.50 229.652 65.960
4.51 229.643 68.855
4.52 233.871 71.348
4.53 236.584 72.902
4.54 238.222 73.215
4.55 241.203 72.725
4.56 244.651 72.055
4.57 248.131 71.440
4.58 251.270 70.944
4.59 253.452 70.371
4.60 255.460 69.356
4.61 255.100 68.125
4.62 250.565 67.167
4.63 247.678 66.138
4.64 239.546 63.550
4.65 228.371 58.714
4.66 --undefined-- 54.050
4.67 --undefined-- 54.476
4.68 --undefined-- 57.501
4.69 --undefined-- 60.669
4.70 234.048 63.829
4.71 215.198 66.479
4.72 204.277 68.388
4.73 197.903 69.315
4.74 196.327 69.202
4.75 197.648 68.188
4.76 199.436 66.302
4.77 198.229 63.408
4.78 191.841 59.868
4.79 179.117 56.992
4.80 194.249 55.441
4.81 --undefined-- 56.114
4.82 --undefined-- 57.612
4.83 --undefined-- 57.345
4.84 --undefined-- 57.186
4.85 204.563 60.263
4.86 186.820 63.007
4.87 178.828 64.193
4.88 171.305 64.289
4.89 167.817 64.124
4.90 166.317 64.189
4.91 166.984 64.659
4.92 169.215 65.370
4.93 172.243 65.904
4.94 175.183 65.782
4.95 180.741 65.132
4.96 188.150 64.634
4.97 193.707 64.056
4.98 199.104 --undefined--
4.99 204.763 --undefined--
5.00 --undefined-- --undefined--
5.01 --undefined-- --undefined--
