Time Pitch Intensity
0.01 --undefined-- --undefined--
0.02 132.128 --undefined--
0.03 133.200 --undefined--
0.04 133.971 --undefined--
0.05 135.589 71.456
0.06 137.337 70.496
0.07 139.369 69.182
0.08 141.942 69.130
0.09 142.135 70.820
0.10 143.487 72.463
0.11 --undefined-- 72.811
0.12 --undefined-- 71.546
0.13 115.109 69.200
0.14 116.700 66.637
0.15 110.405 64.161
0.16 113.390 62.162
0.17 116.231 60.984
0.18 101.765 60.784
0.19 110.499 61.002
0.20 125.642 61.517
0.21 138.383 62.928
0.22 148.433 64.648
0.23 154.058 66.074
0.24 163.113 66.592
0.25 181.583 65.316
0.26 186.905 61.694
0.27 --undefined-- 55.983
0.28 --undefined-- 51.447
0.29 --undefined-- 52.514
0.30 --undefined-- 54.827
0.31 --undefined-- 58.134
0.32 --undefined-- 64.839
0.33 208.591 69.712
0.34 202.469 71.970
0.35 199.849 72.633
0.36 201.020 72.683
0.37 203.285 72.774
0.38 206.286 73.128
0.39 208.350 73.542
0.40 209.665 73.780
0.41 210.810 73.775
0.42 212.253 73.614
0.43 211.453 73.385
0.44 210.002 73.120
0.45 209.016 72.803
0.46 206.543 72.277
0.47 203.138 71.368
0.48 198.811 69.823
0.49 193.960 67.108
0.50 193.524 62.743
0.51 --undefined-- 56.848
0.52 --undefined-- 52.119
0.53 198.530 50.714
0.54 197.905 49.672
0.55 --undefined-- 48.382
0.56 --undefined-- 48.358
0.57 --undefined-- 48.765
0.58 --undefined-- 48.308
0.59 --undefined-- 47.160
0.60 --undefined-- 47.089
0.61 --undefined-- 49.832
0.62 --undefined-- 55.332
0.63 --undefined-- 60.349
0.64 --undefined-- 65.081
0.65 187.917 70.032
0.66 182.271 73.681
0.67 179.760 75.758
0.68 175.636 76.616
0.69 170.525 76.780
0.70 166.899 76.659
0.71 164.950 76.231
0.72 164.279 75.268
0.73 163.133 73.805
0.74 161.118 72.116
0.75 160.019 70.485
0.76 159.973 69.471
0.77 165.223 69.431
0.78 165.359 69.598
0.79 166.555 69.607
0.80 167.235 69.490
0.81 167.894 69.267
0.82 168.464 69.191
0.83 169.561 69.262
0.84 170.258 69.431
0.85 170.859 69.594
0.86 171.122 69.668
0.87 171.320 69.770
0.88 170.904 69.900
0.89 171.000 69.914
0.90 169.959 69.776
0.91 167.750 69.188
0.92 164.185 67.572
0.93 162.028 64.260
0.94 158.008 59.135
0.95 148.792 54.823
0.96 --undefined-- 52.727
0.97 --undefined-- 54.980
0.98 --undefined-- 62.128
0.99 --undefined-- 67.651
1.00 --undefined-- 71.769
1.01 199.205 74.518
1.02 193.979 75.778
1.03 189.443 76.008
1.04 188.105 75.768
1.05 187.473 75.455
1.06 187.500 75.020
1.07 188.626 74.456
1.08 188.139 74.211
1.09 188.050 74.359
1.10 189.176 74.751
1.11 190.887 75.400
1.12 193.111 75.737
1.13 193.962 75.102
1.14 192.339 73.956
1.15 195.258 74.115
1.16 197.173 75.024
1.17 198.298 75.509
1.18 200.232 75.923
1.19 200.450 76.302
1.20 199.525 76.345
1.21 198.802 76.058
1.22 196.786 75.151
1.23 192.051 73.199
1.24 190.059 70.027
1.25 198.698 65.622
1.26 196.517 59.907
1.27 196.692 54.045
1.28 --undefined-- 51.888
1.29 --undefined-- 53.169
1.30 --undefined-- 54.450
1.31 --undefined-- 54.860
1.32 --undefined-- 55.094
1.33 --undefined-- 54.911
1.34 --undefined-- 54.094
1.35 --undefined-- 53.371
1.36 --undefined-- 53.688
1.37 --undefined-- 54.158
1.38 --undefined-- 53.699
1.39 --undefined-- 53.078
1.40 --undefined-- 53.506
1.41 --undefined-- 53.895
1.42 --undefined-- 53.976
1.43 --undefined-- 54.051
1.44 --undefined-- 53.235
1.45 --undefined-- 51.733
1.46 --undefined-- 51.192
1.47 --undefined-- 51.619
1.48 --undefined-- 51.328
1.49 --undefined-- 50.035
1.50 --undefined-- 48.514
1.51 --undefined-- 46.976
1.52 --undefined-- 46.171
1.53 --undefined-- 45.370
1.54 --undefined-- 43.067
1.55 --undefined-- 39.722
1.56 --undefined-- 38.781
1.57 --undefined-- 40.784
1.58 --undefined-- 45.989
1.59 --undefined-- 51.890
1.60 --undefined-- 56.662
1.61 --undefined-- 62.651
1.62 --undefined-- 68.443
1.63 197.503 72.248
1.64 192.574 74.476
1.65 190.860 75.697
1.66 191.527 76.125
1.67 194.945 76.204
1.68 194.200 76.378
1.69 201.245 76.629
1.70 202.615 76.407
1.71 213.506 75.148
1.72 222.690 73.762
1.73 227.475 73.376
1.74 229.330 73.730
1.75 230.556 74.184
1.76 231.524 74.524
1.77 232.372 74.942
1.78 235.672 75.558
1.79 240.036 76.234
1.80 242.967 76.662
1.81 243.717 76.843
1.82 244.412 76.912
1.83 244.841 76.630
1.84 245.061 76.207
1.85 248.001 76.322
1.86 251.526 76.727
1.87 253.955 76.823
1.88 255.899 76.790
1.89 256.579 76.695
1.90 256.219 76.272
1.91 256.851 75.630
1.92 258.572 74.918
1.93 259.586 74.147
1.94 260.047 73.252
1.95 260.174 72.203
1.96 260.161 71.084
1.97 260.033 69.958
1.98 260.817 68.780
1.99 263.481 67.495
2.00 266.439 66.270
2.01 265.919 65.501
2.02 265.265 65.411
2.03 268.414 66.192
2.04 268.199 67.645
2.05 268.541 69.213
2.06 269.635 70.794
2.07 269.131 71.963
2.08 266.533 72.248
2.09 262.111 71.780
2.10 258.390 70.613
2.11 254.358 68.129
2.12 240.977 63.487
2.13 --undefined-- 56.462
2.14 --undefined-- 49.154
2.15 --undefined-- 45.750
2.16 --undefined-- 44.554
2.17 --undefined-- 43.972
2.18 --undefined-- 43.279
2.19 --undefined-- 41.770
2.20 --undefined-- 40.830
2.21 --undefined-- 43.491
2.22 --undefined-- 46.912
2.23 --undefined-- 50.535
2.24 --undefined-- 58.374
2.25 241.897 66.508
2.26 231.728 71.306
2.27 219.744 73.399
2.28 209.763 74.090
2.29 203.352 74.294
2.30 199.935 74.129
2.31 197.089 73.488
2.32 192.662 72.484
2.33 191.752 71.837
2.34 193.372 72.026
2.35 194.946 72.776
2.36 197.370 73.627
2.37 201.893 74.182
2.38 207.830 74.210
2.39 213.771 73.543
2.40 213.292 72.244
2.41 210.169 70.746
2.42 201.145 69.487
2.43 200.835 68.527
2.44 190.479 68.220
2.45 189.838 68.799
2.46 188.562 69.564
2.47 184.857 70.062
2.48 174.819 70.321
2.49 164.324 70.426
2.50 156.834 70.146
2.51 150.682 69.475
2.52 147.171 69.101
2.53 145.261 68.961
2.54 143.299 68.509
2.55 142.332 68.102
2.56 142.744 68.091
2.57 141.948 67.965
2.58 141.024 67.253
2.59 139.468 65.478
2.60 133.977 62.095
2.61 129.192 56.955
2.62 --undefined-- 53.399
2.63 --undefined-- 58.617
2.64 --undefined-- 62.797
2.65 --undefined-- 66.182
2.66 --undefined-- 70.843
2.67 165.163 73.985
2.68 163.703 75.296
2.69 164.991 75.792
2.70 168.171 75.901
2.71 171.718 75.590
2.72 176.075 75.120
2.73 181.011 74.811
2.74 188.112 74.816
2.75 198.019 74.892
2.76 208.901 74.618
2.77 213.020 73.789
2.78 213.097 72.747
2.79 216.480 72.206
2.80 215.416 72.101
2.81 212.915 72.185
2.82 210.066 72.435
2.83 207.293 72.706
2.84 204.308 72.804
2.85 201.899 72.714
2.86 185.261 72.314
2.87 171.670 71.794
2.88 164.314 71.662
2.89 158.115 71.841
2.90 153.907 72.014
2.91 150.927 72.274
2.92 148.702 72.394
2.93 149.069 72.282
2.94 151.319 72.223
2.95 154.516 72.350
2.96 157.310 72.655
2.97 159.498 72.890
2.98 161.945 72.899
2.99 163.788 72.796
3.00 166.069 72.454
3.01 167.293 71.271
3.02 164.373 68.389
3.03 163.032 63.443
3.04 156.779 57.644
3.05 160.401 54.155
3.06 169.881 55.029
3.07 249.551 59.019
3.08 250.679 62.862
3.09 251.280 67.494
3.10 235.498 72.217
3.11 228.863 74.849
3.12 224.902 75.698
3.13 221.505 75.652
3.14 219.482 75.303
3.15 218.855 75.023
3.16 219.284 74.898
3.17 220.513 74.727
3.18 221.065 74.124
3.19 219.414 72.896
3.20 217.833 71.599
3.21 217.389 71.230
3.22 216.405 71.436
3.23 216.847 71.581
3.24 217.709 71.604
3.25 219.817 71.461
3.26 219.198 70.966
3.27 217.818 70.171
3.28 215.488 69.060
3.29 210.311 66.992
3.30 207.045 63.131
3.31 --undefined-- 56.898
3.32 --undefined-- 49.311
3.33 --undefined-- 46.548
3.34 --undefined-- 49.468
3.35 --undefined-- 53.395
3.36 --undefined-- 57.290
3.37 --undefined-- 60.055
3.38 --undefined-- 61.916
3.39 --undefined-- 63.855
3.40 --undefined-- 64.975
3.41 --undefined-- 64.424
3.42 --undefined-- 62.191
3.43 --undefined-- 58.814
3.44 --undefined-- 57.120
3.45 --undefined-- 59.286
3.46 178.185 64.313
3.47 181.604 68.368
3.48 178.707 70.318
3.49 172.649 70.536
3.50 158.534 69.602
3.51 146.467 68.492
3.52 142.589 68.129
3.53 141.586 67.994
3.54 142.857 67.858
3.55 144.602 68.070
3.56 145.932 68.413
3.57 147.874 68.802
3.58 150.388 69.333
3.59 152.950 69.728
3.60 152.730 69.892
3.61 151.630 69.987
3.62 151.202 69.946
3.63 151.524 69.782
3.64 151.145 69.724
3.65 150.036 69.813
3.66 149.897 69.963
3.67 149.397 70.440
3.68 147.428 71.536
3.69 144.642 72.467
3.70 144.014 72.788
3.71 --undefined-- 72.845
3.72 --undefined-- 72.709
3.73 74.932 72.372
3.74 75.042 72.211
3.75 146.452 72.362
3.76 146.375 72.461
3.77 147.844 72.324
3.78 151.127 71.951
3.79 152.264 71.069
3.80 148.470 68.816
3.81 141.243 64.669
3.82 149.485 59.113
3.83 --undefined-- 54.870
3.84 --undefined-- 61.777
3.85 174.079 69.563
3.86 173.061 74.032
3.87 171.834 75.862
3.88 170.530 76.132
3.89 170.088 75.819
3.90 170.534 75.156
3.91 172.151 74.249
3.92 174.371 73.642
3.93 176.178 73.722
3.94 178.024 74.374
3.95 178.207 74.903
3.96 174.503 74.923
3.97 174.117 74.852
3.98 171.760 74.773
3.99 169.087 74.508
4.00 166.726 74.234
4.01 164.917 73.956
4.02 164.353 73.318
4.03 163.256 71.984
4.04 161.203 70.894
4.05 162.303 70.715
4.06 162.061 70.776
4.07 161.467 70.970
4.08 161.140 71.128
4.09 161.000 71.168
4.10 160.454 71.130
4.11 159.929 71.116
4.12 159.716 71.179
4.13 159.705 71.333
4.14 160.735 71.833
4.15 163.874 72.702
4.16 160.131 73.525
4.17 158.753 73.971
4.18 158.504 74.175
4.19 158.559 74.357
4.20 157.885 74.422
4.21 157.162 74.234
4.22 156.487 73.709
4.23 156.347 72.980
4.24 156.726 72.550
4.25 157.883 72.577
4.26 158.521 72.839
4.27 159.642 73.236
4.28 161.257 73.851
4.29 164.995 74.977
4.30 168.383 76.072
4.31 172.825 76.585
4.32 177.745 76.767
4.33 178.044 77.022
4.34 177.811 77.057
4.35 177.142 76.709
4.36 175.121 75.979
4.37 --undefined-- 74.698
4.38 --undefined-- 72.551
4.39 --undefined-- 68.790
4.40 --undefined-- 62.931
4.41 --undefined-- 56.370
4.42 --undefined-- 51.335
4.43 --undefined-- 46.526
4.44 --undefined-- 44.912
4.45 --undefined-- 44.550
4.46 --undefined-- 44.449
4.47 --undefined-- 45.341
4.48 --undefined-- 46.304
4.49 --undefined-- 46.665
4.50 --undefined-- 47.021
4.51 --undefined-- 47.281
4.52 --undefined-- 47.503
4.53 --undefined-- 47.595
4.54 --undefined-- 47.580
4.55 --undefined-- 48.307
4.56 --undefined-- 49.636
4.57 --undefined-- 50.321
4.58 --undefined-- 50.439
4.59 --undefined-- 50.351
4.60 --undefined-- 49.954
4.61 --undefined-- 49.753
4.62 --undefined-- 50.519
4.63 --undefined-- 51.496
4.64 --undefined-- 52.186
4.65 --undefined-- 52.670
4.66 --undefined-- 52.866
4.67 --undefined-- 52.978
4.68 --undefined-- 53.132
4.69 --undefined-- 53.048
4.70 --undefined-- 52.644
4.71 --undefined-- 52.189
4.72 --undefined-- 51.318
4.73 --undefined-- 49.059
4.74 --undefined-- 45.129
4.75 --undefined-- 42.999
4.76 --undefined-- 44.468
4.77 --undefined-- 45.602
4.78 --undefined-- 52.945
4.79 --undefined-- 60.839
4.80 170.779 65.129
4.81 177.451 67.064
4.82 192.437 68.693
4.83 201.545 70.868
4.84 208.888 72.612
4.85 211.860 73.375
4.86 209.619 72.455
4.87 202.986 69.207
4.88 --undefined-- 63.541
4.89 --undefined-- 60.234
4.90 --undefined-- 63.567
4.91 --undefined-- 67.797
4.92 285.511 73.075
4.93 285.610 76.457
4.94 281.074 77.277
4.95 261.403 76.668
4.96 235.857 76.159
4.97 202.720 76.493
4.98 187.847 77.207
4.99 177.402 77.622
5.00 173.398 77.478
5.01 172.489 76.626
5.02 173.760 75.016
5.03 171.672 72.928
5.04 163.148 70.072
5.05 158.565 65.899
5.06 157.149 60.710
5.07 167.487 55.825
5.08 --undefined-- 55.159
5.09 --undefined-- 60.256
5.10 --undefined-- 65.806
5.11 245.079 70.742
5.12 244.277 73.716
5.13 250.261 74.944
5.14 256.101 75.168
5.15 261.475 74.864
5.16 267.137 74.560
5.17 271.642 74.599
5.18 274.063 74.754
5.19 275.174 74.563
5.20 275.554 74.066
5.21 275.302 73.615
5.22 275.192 --undefined--
5.23 274.380 --undefined--
5.24 --undefined-- --undefined--
5.25 --undefined-- --undefined--
