Time Pitch Intensity
0.01 --undefined-- --undefined--
0.02 120.483 --undefined--
0.03 122.022 --undefined--
0.04 122.715 --undefined--
0.05 122.762 73.892
0.06 123.467 73.663
0.07 123.632 73.455
0.08 124.167 73.680
0.09 124.823 74.158
0.10 124.992 73.898
0.11 124.755 72.184
0.12 130.177 69.472
0.13 137.454 67.905
0.14 140.262 67.446
0.15 141.947 66.744
0.16 144.104 65.880
0.17 150.067 65.541
0.18 152.836 65.711
0.19 156.794 66.180
0.20 159.091 67.116
0.21 163.476 68.356
0.22 170.074 69.821
0.23 175.212 71.420
0.24 180.464 72.756
0.25 183.110 73.682
0.26 186.163 74.618
0.27 189.303 75.652
0.28 190.199 76.131
0.29 189.149 75.384
0.30 187.113 74.319
0.31 191.024 75.136
0.32 189.347 76.208
0.33 186.665 76.505
0.34 185.825 76.216
0.35 182.050 75.633
0.36 180.483 75.332
0.37 180.020 75.279
0.38 180.353 75.382
0.39 181.279 75.438
0.40 182.285 75.065
0.41 183.431 74.014
0.42 186.163 72.510
0.43 173.388 71.184
0.44 164.517 70.128
0.45 155.182 69.022
0.46 151.670 67.816
0.47 153.382 66.896
0.48 156.419 67.083
0.49 165.537 68.326
0.50 165.972 70.404
0.51 181.874 73.102
0.52 189.990 74.978
0.53 192.006 75.227
0.54 191.782 74.179
0.55 191.057 72.542
0.56 186.592 69.981
0.57 182.113 65.772
0.58 178.631 60.387
0.59 171.122 54.921
0.60 --undefined-- 49.185
0.61 --undefined-- 46.226
0.62 --undefined-- 44.466
0.63 --undefined-- 41.549
0.64 --undefined-- 45.791
0.65 --undefined-- 52.832
0.66 --undefined-- 56.510
0.67 --undefined-- 58.201
0.68 --undefined-- 63.163
0.69 138.967 68.975
0.70 135.737 71.907
0.71 121.882 72.337
0.72 116.898 71.474
0.73 111.304 70.315
0.74 108.551 69.415
0.75 106.917 69.047
0.76 106.074 68.863
0.77 105.479 68.563
0.78 105.265 68.371
0.79 105.120 68.483
0.80 105.364 68.858
0.81 106.050 69.364
0.82 106.741 69.833
0.83 108.548 70.169
0.84 110.530 70.368
0.85 111.877 70.442
0.86 113.033 70.276
0.87 114.190 69.555
0.88 115.922 68.068
0.89 118.434 65.653
0.90 120.116 62.189
0.91 120.334 58.307
0.92 --undefined-- 57.273
0.93 --undefined-- 59.889
0.94 --undefined-- 62.017
0.95 --undefined-- 62.800
0.96 --undefined-- 66.679
0.97 --undefined-- 72.136
0.98 146.391 74.842
0.99 143.965 75.120
1.00 137.024 74.407
1.01 131.359 74.102
1.02 130.076 74.369
1.03 130.487 74.694
1.04 131.092 74.896
1.05 132.057 75.041
1.06 132.548 74.996
1.07 131.921 74.371
1.08 128.145 72.780
1.09 129.177 71.655
1.10 136.567 73.022
1.11 139.980 74.833
1.12 139.011 75.525
1.13 135.113 75.331
1.14 133.529 75.189
1.15 133.554 75.242
1.16 133.919 75.228
1.17 134.263 75.151
1.18 134.384 74.987
1.19 134.185 74.692
1.20 132.881 73.829
1.21 128.980 72.053
1.22 131.349 70.768
1.23 138.303 71.598
1.24 139.725 72.821
1.25 141.113 73.470
1.26 141.984 73.713
1.27 145.136 74.222
1.28 147.036 75.155
1.29 147.227 75.674
1.30 146.329 75.488
1.31 144.549 75.064
1.32 143.279 74.645
1.33 141.535 74.170
1.34 141.438 73.768
1.35 141.867 73.491
1.36 142.539 73.354
1.37 143.548 73.437
1.38 144.632 73.668
1.39 145.160 73.957
1.40 145.406 74.220
1.41 145.582 74.530
1.42 145.221 74.882
1.43 144.294 75.060
1.44 143.890 75.131
1.45 143.013 75.212
1.46 140.641 75.263
1.47 137.823 75.016
1.48 133.821 74.027
1.49 130.919 72.375
1.50 135.894 71.067
1.51 136.425 70.299
1.52 134.509 69.365
1.53 133.627 68.331
1.54 131.458 67.302
1.55 130.054 66.622
1.56 129.683 66.837
1.57 128.879 67.872
1.58 128.879 69.410
1.59 129.477 71.095
1.60 131.071 72.593
1.61 133.873 73.795
1.62 136.902 74.738
1.63 141.272 75.476
1.64 145.428 75.986
1.65 149.387 76.291
1.66 154.029 76.391
1.67 155.799 75.967
1.68 154.057 74.506
1.69 146.282 71.762
1.70 145.011 68.195
1.71 146.767 64.180
1.72 146.608 59.004
1.73 --undefined-- 52.197
1.74 --undefined-- 46.250
1.75 --undefined-- 45.902
1.76 --undefined-- 46.857
1.77 --undefined-- 48.753
1.78 --undefined-- 52.047
1.79 --undefined-- 54.757
1.80 --undefined-- 57.912
1.81 --undefined-- 65.453
1.82 173.294 71.598
1.83 155.294 74.829
1.84 154.525 76.034
1.85 154.488 76.286
1.86 153.640 76.336
1.87 152.407 76.474
1.88 151.420 76.639
1.89 150.299 76.809
1.90 149.064 77.019
1.91 147.902 77.155
1.92 147.282 77.100
1.93 146.705 76.944
1.94 146.213 76.822
1.95 145.855 76.694
1.96 145.226 76.481
1.97 144.685 76.123
1.98 143.830 75.398
1.99 139.477 74.149
2.00 132.321 72.483
2.01 127.807 70.193
2.02 133.236 66.327
2.03 139.538 59.737
2.04 --undefined-- 50.204
2.05 --undefined-- 44.617
2.06 --undefined-- 46.012
2.07 --undefined-- 46.334
2.08 --undefined-- 45.565
2.09 --undefined-- 45.576
2.10 --undefined-- 46.296
2.11 --undefined-- 46.940
2.12 --undefined-- 47.537
2.13 --undefined-- 47.714
2.14 --undefined-- 47.527
2.15 --undefined-- 47.250
2.16 --undefined-- 47.262
2.17 --undefined-- 47.704
2.18 --undefined-- 48.063
2.19 --undefined-- 48.011
2.20 --undefined-- 47.420
2.21 --undefined-- 45.583
2.22 --undefined-- 42.188
2.23 --undefined-- 39.721
2.24 --undefined-- 41.768
2.25 --undefined-- 47.532
2.26 --undefined-- 52.892
2.27 --undefined-- 56.435
2.28 --undefined-- 59.210
2.29 --undefined-- 62.633
2.30 --undefined-- 65.466
2.31 --undefined-- 66.494
2.32 --undefined-- 66.132
2.33 --undefined-- 66.038
2.34 --undefined-- 67.035
2.35 --undefined-- 69.123
2.36 112.020 71.299
2.37 115.380 73.246
2.38 127.778 74.703
2.39 129.334 74.687
2.40 130.936 73.478
2.41 131.217 72.675
2.42 128.593 72.690
2.43 126.215 73.174
2.44 132.979 74.084
2.45 137.139 75.069
2.46 143.975 75.885
2.47 150.772 76.519
2.48 163.639 77.164
2.49 170.512 77.586
2.50 175.648 77.022
2.51 192.072 75.554
2.52 211.865 74.649
2.53 212.881 74.218
2.54 208.862 72.784
2.55 197.606 69.952
2.56 190.385 65.505
2.57 --undefined-- 59.085
2.58 --undefined-- 55.881
2.59 --undefined-- 59.557
2.60 --undefined-- 61.986
2.61 --undefined-- 65.700
2.62 175.355 71.709
2.63 170.015 75.272
2.64 160.330 76.136
2.65 153.309 75.876
2.66 151.194 75.924
2.67 146.457 75.985
2.68 140.979 75.449
2.69 138.407 74.947
2.70 140.702 75.114
2.71 142.863 75.335
2.72 145.098 75.726
2.73 145.606 75.944
2.74 144.130 74.656
2.75 136.871 70.921
2.76 142.985 65.370
2.77 138.202 62.980
2.78 146.900 68.435
2.79 157.063 73.688
2.80 151.317 76.014
2.81 143.518 76.231
2.82 139.349 75.679
2.83 134.814 75.177
2.84 129.501 74.982
2.85 128.627 75.056
2.86 127.515 75.207
2.87 126.969 75.312
2.88 126.876 75.188
2.89 126.688 74.594
2.90 122.484 73.372
2.91 122.441 72.573
2.92 123.420 73.238
2.93 121.914 74.044
2.94 120.833 74.291
2.95 119.258 74.078
2.96 117.784 73.972
2.97 116.934 74.405
2.98 117.283 74.953
2.99 118.316 75.093
3.00 121.888 74.868
3.01 119.015 74.394
3.02 114.404 73.807
3.03 110.609 73.266
3.04 108.487 72.728
3.05 106.588 72.293
3.06 104.469 71.943
3.07 101.816 71.052
3.08 97.872 69.441
3.09 100.701 68.640
3.10 100.999 69.040
3.11 102.114 69.562
3.12 102.846 69.879
3.13 103.290 70.190
3.14 104.797 70.674
3.15 105.582 71.105
3.16 105.851 71.457
3.17 106.528 71.731
3.18 107.678 71.629
3.19 108.288 70.671
3.20 108.415 68.440
3.21 109.289 64.965
3.22 114.873 61.109
3.23 --undefined-- 62.101
3.24 --undefined-- 68.818
3.25 --undefined-- 73.450
3.26 --undefined-- 75.061
3.27 132.130 74.537
3.28 127.625 73.583
3.29 126.912 73.514
3.30 126.512 73.906
3.31 124.645 73.935
3.32 121.830 72.960
3.33 119.664 71.186
3.34 124.467 70.651
3.35 125.366 71.529
3.36 126.329 72.509
3.37 127.190 73.383
3.38 128.261 74.128
3.39 128.950 74.561
3.40 127.774 74.361
3.41 126.405 73.234
3.42 126.817 71.059
3.43 128.910 68.065
3.44 130.734 64.631
3.45 131.801 60.539
3.46 139.604 55.808
3.47 --undefined-- 57.948
3.48 --undefined-- 66.692
3.49 --undefined-- 72.651
3.50 --undefined-- 75.173
3.51 148.873 75.318
3.52 143.952 74.769
3.53 141.271 74.426
3.54 140.994 74.007
3.55 141.501 73.146
3.56 140.685 71.414
3.57 137.467 68.331
3.58 139.601 64.137
3.59 150.324 60.476
3.60 150.986 57.569
3.61 153.934 54.074
3.62 --undefined-- 50.489
3.63 --undefined-- 49.536
3.64 --undefined-- 50.172
3.65 --undefined-- 54.523
3.66 --undefined-- 63.775
3.67 --undefined-- 70.780
3.68 --undefined-- 74.241
3.69 187.868 74.837
3.70 185.024 73.832
3.71 183.659 73.010
3.72 183.693 73.064
3.73 182.869 73.468
3.74 181.758 73.982
3.75 180.576 74.560
3.76 179.678 75.030
3.77 178.840 75.214
3.78 178.391 75.376
3.79 178.995 75.764
3.80 179.384 76.252
3.81 178.097 76.306
3.82 174.699 75.093
3.83 168.374 71.872
3.84 162.344 66.252
3.85 --undefined-- 58.774
3.86 --undefined-- 53.389
3.87 --undefined-- 53.275
3.88 --undefined-- 53.595
3.89 --undefined-- 52.968
3.90 --undefined-- 52.642
3.91 --undefined-- 52.945
3.92 --undefined-- 54.660
3.93 --undefined-- 61.523
3.94 --undefined-- 69.611
3.95 --undefined-- 74.046
3.96 129.386 75.135
3.97 123.747 74.351
3.98 123.429 73.972
3.99 126.195 74.372
4.00 130.352 74.687
4.01 133.151 74.665
4.02 138.725 74.290
4.03 146.529 73.592
4.04 151.649 72.347
4.05 150.858 70.345
4.06 149.062 68.913
4.07 151.150 70.937
4.08 158.284 74.456
4.09 160.933 76.507
4.10 159.812 76.843
4.11 159.976 76.567
4.12 161.602 76.458
4.13 163.607 76.474
4.14 164.839 76.495
4.15 165.311 76.150
4.16 164.266 75.046
4.17 167.286 73.169
4.18 164.609 69.920
4.19 --undefined-- 64.949
4.20 --undefined-- 61.229
4.21 --undefined-- 60.800
4.22 --undefined-- 61.700
4.23 --undefined-- 63.224
4.24 --undefined-- 63.812
4.25 --undefined-- 63.530
4.26 --undefined-- 63.175
4.27 --undefined-- 62.974
4.28 --undefined-- 62.746
4.29 --undefined-- 62.649
4.30 --undefined-- 61.966
4.31 --undefined-- 60.705
4.32 --undefined-- 62.223
4.33 --undefined-- 65.705
4.34 --undefined-- 70.326
4.35 --undefined-- 74.200
4.36 155.724 75.234
4.37 145.077 74.421
4.38 136.145 73.953
4.39 130.801 74.040
4.40 128.906 73.996
4.41 129.132 73.946
4.42 129.009 74.076
4.43 128.054 74.210
4.44 126.397 74.244
4.45 125.257 74.323
4.46 124.460 74.463
4.47 123.715 74.607
4.48 123.357 74.844
4.49 123.764 75.135
4.50 124.638 75.209
4.51 125.503 75.056
4.52 126.224 75.041
4.53 126.124 75.292
4.54 126.004 75.608
4.55 125.845 75.780
4.56 125.064 75.552
4.57 124.007 74.499
4.58 123.504 72.459
4.59 125.979 70.190
4.60 127.097 68.315
4.61 124.941 66.438
4.62 122.135 64.222
4.63 119.132 62.051
4.64 118.841 60.611
4.65 118.563 60.263
4.66 119.708 60.783
4.67 120.101 61.784
4.68 116.387 63.212
4.69 113.683 65.109
4.70 113.358 67.216
4.71 112.648 69.229
4.72 112.726 70.952
4.73 112.565 72.505
4.74 113.030 73.998
4.75 114.499 75.194
4.76 115.668 75.841
4.77 116.948 76.094
4.78 118.021 76.255
4.79 120.243 76.311
4.80 120.749 75.929
4.81 119.506 74.424
4.82 117.526 72.004
4.83 125.505 70.928
4.84 124.425 71.482
4.85 124.759 72.605
4.86 124.607 73.650
4.87 122.295 74.201
4.88 123.095 74.531
4.89 117.906 74.622
4.90 114.030 74.270
4.91 109.072 73.869
4.92 108.560 73.376
4.93 107.424 72.645
4.94 106.949 71.872
4.95 106.256 71.248
4.96 105.591 71.071
4.97 104.945 71.339
4.98 104.500 71.659
4.99 102.859 71.426
5.00 101.301 70.625
5.01 105.243 70.164
5.02 106.651 70.285
5.03 108.225 70.524
5.04 109.741 70.592
5.05 110.722 --undefined--
5.06 110.756 --undefined--
5.07 --undefined-- --undefined--
5.08 --undefined-- --undefined--
