Time Pitch Intensity
0.01 --undefined-- --undefined--
0.02 257.694 --undefined--
0.03 --undefined-- --undefined--
0.04 --undefined-- --undefined--
0.05 --undefined-- 36.436
0.06 --undefined-- 30.022
0.07 --undefined-- 26.250
0.08 --undefined-- 24.271
0.09 --undefined-- 24.224
0.10 --undefined-- 27.169
0.11 --undefined-- 32.727
0.12 --undefined-- 37.505
0.13 --undefined-- 41.073
0.14 --undefined-- 48.382
0.15 --undefined-- 59.817
0.16 --undefined-- 67.534
0.17 --undefined-- 71.438
0.18 --undefined-- 72.575
0.19 175.880 72.612
0.20 170.372 72.382
0.21 167.152 71.697
0.22 164.630 70.812
0.23 163.837 70.311
0.24 163.794 69.955
0.25 163.972 68.550
0.26 164.383 65.844
0.27 165.909 63.534
0.28 164.178 62.454
0.29 161.845 61.989
0.30 160.815 61.402
0.31 160.611 60.130
0.32 155.606 57.936
0.33 148.530 55.379
0.34 148.755 53.494
0.35 149.496 52.384
0.36 --undefined-- 51.121
0.37 --undefined-- 49.119
0.38 --undefined-- 46.750
0.39 --undefined-- 46.462
0.40 --undefined-- 52.848
0.41 155.771 59.497
0.42 162.804 64.488
0.43 165.222 67.888
0.44 162.628 69.487
0.45 159.867 69.797
0.46 159.859 70.275
0.47 159.937 71.069
0.48 159.705 71.282
0.49 159.471 70.895
0.50 157.660 70.650
0.51 157.048 70.680
0.52 157.655 70.187
0.53 156.901 68.907
0.54 157.634 67.006
0.55 159.707 65.092
0.56 159.733 63.612
0.57 158.701 62.424
0.58 152.859 61.486
0.59 153.221 60.668
0.60 157.839 59.613
0.61 162.613 58.038
0.62 157.425 56.029
0.63 149.488 53.425
0.64 --undefined-- 51.102
0.65 --undefined-- 53.526
0.66 166.417 59.202
0.67 168.862 63.688
0.68 165.252 66.307
0.69 162.575 67.538
0.70 159.508 68.194
0.71 158.357 68.835
0.72 158.294 69.226
0.73 159.130 69.488
0.74 158.569 69.749
0.75 159.168 69.443
0.76 162.834 68.307
0.77 161.697 67.098
0.78 159.918 66.345
0.79 159.561 65.638
0.80 159.204 64.666
0.81 159.417 63.814
0.82 159.006 63.836
0.83 157.296 63.965
0.84 156.239 62.848
0.85 156.602 60.736
0.86 158.569 59.699
0.87 160.074 60.081
0.88 160.395 60.566
0.89 160.915 60.983
0.90 164.377 61.787
0.91 167.979 63.011
0.92 171.801 64.491
0.93 173.478 65.757
0.94 175.003 65.962
0.95 175.901 64.497
0.96 174.607 61.035
0.97 175.727 55.823
0.98 --undefined-- 50.259
0.99 --undefined-- 47.596
1.00 --undefined-- 49.562
1.01 --undefined-- 51.549
1.02 --undefined-- 52.327
1.03 --undefined-- 52.654
1.04 --undefined-- 53.022
1.05 --undefined-- 53.928
1.06 --undefined-- 60.023
1.07 --undefined-- 66.106
1.08 --undefined-- 69.278
1.09 151.216 70.030
1.10 150.788 69.353
1.11 147.437 68.593
1.12 --undefined-- 68.882
1.13 --undefined-- 69.246
1.14 --undefined-- 69.297
1.15 --undefined-- 68.718
1.16 --undefined-- 67.966
1.17 162.640 67.352
1.18 168.306 66.709
1.19 173.018 66.179
1.20 175.193 65.565
1.21 190.398 65.348
1.22 194.309 65.186
1.23 203.886 64.577
1.24 205.201 63.665
1.25 206.583 62.498
1.26 190.552 60.924
1.27 177.796 59.230
1.28 177.530 56.464
1.29 --undefined-- 50.801
1.30 --undefined-- 41.098
1.31 --undefined-- 30.909
1.32 --undefined-- 40.816
1.33 --undefined-- 51.409
1.34 --undefined-- 56.706
1.35 --undefined-- 58.607
1.36 --undefined-- 61.749
1.37 250.890 65.561
1.38 246.235 67.647
1.39 240.978 68.489
1.40 --undefined-- 68.758
1.41 --undefined-- 68.472
1.42 --undefined-- 67.495
1.43 --undefined-- 66.325
1.44 --undefined-- 65.654
1.45 --undefined-- 65.749
1.46 --undefined-- 66.218
1.47 --undefined-- 67.325
1.48 --undefined-- 68.760
1.49 --undefined-- 69.607
1.50 --undefined-- 69.375
1.51 145.460 67.986
1.52 144.713 64.986
1.53 143.412 60.711
1.54 156.583 58.291
1.55 160.801 58.468
1.56 162.173 59.170
1.57 165.506 58.996
1.58 168.329 57.437
1.59 177.212 54.669
1.60 --undefined-- 51.108
1.61 --undefined-- 46.046
1.62 --undefined-- 42.119
1.63 --undefined-- 52.137
1.64 --undefined-- 61.223
1.65 169.167 66.544
1.66 167.663 69.119
1.67 166.911 70.251
1.68 167.632 70.885
1.69 167.269 70.949
1.70 166.717 70.265
1.71 167.051 69.147
1.72 167.831 68.427
1.73 169.207 68.065
1.74 168.877 66.800
1.75 168.494 64.240
1.76 163.880 60.276
1.77 --undefined-- 53.909
1.78 --undefined-- 44.242
1.79 --undefined-- 37.031
1.80 --undefined-- 41.034
1.81 --undefined-- 44.245
1.82 --undefined-- 50.010
1.83 --undefined-- 57.862
1.84 162.322 62.981
1.85 161.993 65.053
1.86 158.253 64.829
1.87 154.520 64.045
1.88 157.748 63.465
1.89 162.115 62.601
1.90 161.901 62.192
1.91 162.510 62.812
1.92 165.132 63.241
1.93 167.229 63.265
1.94 167.136 63.388
1.95 170.691 63.498
1.96 174.719 63.236
1.97 175.257 61.576
1.98 176.874 57.295
1.99 --undefined-- 51.757
2.00 289.587 58.014
2.01 287.115 64.461
2.02 287.283 66.702
2.03 287.762 65.774
2.04 --undefined-- 65.312
2.05 --undefined-- 67.408
2.06 217.440 69.216
2.07 --undefined-- 70.052
2.08 --undefined-- 70.488
2.09 --undefined-- 70.975
2.10 --undefined-- 71.282
2.11 --undefined-- 71.318
2.12 --undefined-- 71.145
2.13 --undefined-- 70.520
2.14 --undefined-- 69.311
2.15 --undefined-- 67.409
2.16 --undefined-- 65.490
2.17 --undefined-- 62.779
2.18 --undefined-- 56.726
2.19 --undefined-- 48.847
2.20 --undefined-- 44.815
2.21 --undefined-- 40.145
2.22 --undefined-- 33.958
2.23 --undefined-- 35.225
2.24 --undefined-- 42.442
2.25 --undefined-- 45.557
2.26 --undefined-- 44.728
2.27 --undefined-- 43.930
2.28 --undefined-- 49.125
2.29 --undefined-- 53.144
2.30 --undefined-- 55.172
2.31 --undefined-- 55.904
2.32 --undefined-- 56.774
2.33 --undefined-- 57.382
2.34 --undefined-- 56.243
2.35 --undefined-- 54.516
2.36 --undefined-- 54.497
2.37 --undefined-- 54.137
2.38 --undefined-- 53.168
2.39 --undefined-- 53.003
2.40 --undefined-- 52.702
2.41 --undefined-- 52.019
2.42 --undefined-- 51.323
2.43 --undefined-- 51.138
2.44 --undefined-- 52.311
2.45 --undefined-- 53.295
2.46 --undefined-- 52.894
2.47 --undefined-- 52.016
2.48 --undefined-- 51.838
2.49 --undefined-- 51.631
2.50 --undefined-- 51.031
2.51 --undefined-- 49.722
2.52 --undefined-- 48.670
2.53 --undefined-- 50.198
2.54 --undefined-- 52.336
2.55 --undefined-- 52.517
2.56 --undefined-- 50.769
2.57 --undefined-- 48.481
2.58 --undefined-- 44.493
2.59 --undefined-- 37.828
2.60 --undefined-- 31.983
2.61 --undefined-- 29.003
2.62 --undefined-- 27.817
2.63 --undefined-- 27.113
2.64 --undefined-- 26.799
2.65 --undefined-- 26.909
2.66 --undefined-- 26.954
2.67 --undefined-- 27.428
2.68 --undefined-- 37.982
2.69 --undefined-- 49.287
2.70 --undefined-- 56.361
2.71 --undefined-- 61.246
2.72 196.948 65.835
2.73 200.853 69.894
2.74 212.049 72.828
2.75 227.350 74.457
2.76 242.461 74.585
2.77 267.351 73.334
2.78 282.949 71.442
2.79 297.656 69.953
2.80 155.366 69.304
2.81 160.842 69.001
2.82 166.431 68.717
2.83 173.653 68.694
2.84 180.262 69.146
2.85 181.520 70.495
2.86 180.480 72.478
2.87 178.219 74.011
2.88 168.470 74.626
2.89 161.574 74.481
2.90 160.380 73.911
2.91 155.399 73.244
2.92 288.631 72.366
2.93 274.358 71.182
2.94 261.994 69.807
2.95 249.384 68.280
2.96 240.549 66.197
2.97 235.037 63.527
2.98 232.310 60.261
2.99 230.475 55.941
3.00 --undefined-- 50.837
3.01 --undefined-- 45.120
3.02 --undefined-- 39.318
3.03 --undefined-- 35.005
3.04 --undefined-- 33.017
3.05 --undefined-- 32.711
3.06 --undefined-- 46.869
3.07 --undefined-- 58.697
3.08 --undefined-- 65.239
3.09 --undefined-- 68.586
3.10 --undefined-- 70.662
3.11 286.203 72.421
3.12 285.270 73.957
3.13 284.771 74.746
3.14 284.224 74.496
3.15 284.851 73.644
3.16 285.038 72.623
3.17 285.249 71.605
3.18 285.224 70.924
3.19 285.366 70.943
3.20 285.112 71.375
3.21 284.079 71.510
3.22 279.723 71.076
3.23 277.395 70.752
3.24 282.066 70.926
3.25 285.824 70.978
3.26 286.052 70.489
3.27 285.875 68.946
3.28 286.025 65.820
3.29 286.782 61.668
3.30 295.444 57.920
3.31 153.317 54.564
3.32 --undefined-- 51.657
3.33 --undefined-- 52.139
3.34 --undefined-- 54.747
3.35 --undefined-- 55.908
3.36 --undefined-- 57.661
3.37 233.559 60.669
3.38 229.130 62.814
3.39 215.916 64.045
3.40 210.434 65.311
3.41 211.366 65.919
3.42 --undefined-- 64.982
3.43 --undefined-- 62.431
3.44 --undefined-- 58.724
3.45 102.946 55.723
3.46 101.016 54.601
3.47 107.273 55.424
3.48 114.753 57.669
3.49 131.104 59.978
3.50 138.078 61.248
3.51 168.801 61.522
3.52 179.605 61.731
3.53 186.350 62.266
3.54 192.148 62.752
3.55 198.573 63.770
3.56 202.591 65.535
3.57 204.361 66.687
3.58 203.910 66.628
3.59 202.858 65.335
3.60 198.823 62.994
3.61 189.788 60.700
3.62 183.215 59.257
3.63 179.461 59.244
3.64 180.287 61.831
3.65 177.738 65.431
3.66 173.236 68.356
3.67 168.496 70.604
3.68 164.722 72.560
3.69 163.150 73.428
3.70 161.986 72.574
3.71 161.575 69.933
3.72 160.378 65.380
3.73 156.185 58.761
3.74 --undefined-- 51.298
3.75 --undefined-- 49.085
3.76 --undefined-- 50.648
3.77 --undefined-- 51.814
3.78 --undefined-- 51.907
3.79 --undefined-- 50.774
3.80 --undefined-- 49.455
3.81 --undefined-- 49.416
3.82 --undefined-- 51.875
3.83 --undefined-- 53.487
3.84 --undefined-- 53.206
3.85 --undefined-- 57.986
3.86 --undefined-- 65.263
3.87 233.961 69.755
3.88 234.688 71.568
3.89 233.919 71.274
3.90 230.833 69.432
3.91 227.739 66.564
3.92 224.451 63.515
3.93 221.748 62.213
3.94 221.432 62.913
3.95 222.113 63.692
3.96 221.946 64.032
3.97 221.704 64.288
3.98 222.068 64.452
3.99 222.865 64.286
4.00 224.233 63.970
4.01 222.398 63.935
4.02 223.261 63.895
4.03 229.489 62.832
4.04 233.615 59.780
4.05 --undefined-- 54.455
4.06 --undefined-- 52.107
4.07 --undefined-- 52.933
4.08 --undefined-- 52.244
4.09 --undefined-- 51.322
4.10 --undefined-- 51.220
4.11 --undefined-- 51.035
4.12 --undefined-- 51.805
4.13 --undefined-- 58.689
4.14 --undefined-- 65.271
4.15 179.438 69.156
4.16 171.402 71.162
4.17 163.767 72.021
4.18 162.748 72.248
4.19 162.613 72.083
4.20 161.950 71.581
4.21 162.599 70.813
4.22 162.278 70.150
4.23 159.995 69.423
4.24 157.800 68.627
4.25 156.385 68.258
4.26 155.156 67.768
4.27 155.065 66.486
4.28 154.469 64.455
4.29 151.290 62.228
4.30 145.059 60.071
4.31 140.708 57.101
4.32 138.138 53.067
4.33 --undefined-- 48.373
4.34 --undefined-- 43.753
4.35 --undefined-- 38.664
4.36 --undefined-- 32.605
4.37 --undefined-- 28.759
4.38 --undefined-- 27.656
4.39 --undefined-- 26.893
4.40 --undefined-- 26.825
4.41 --undefined-- 27.614
4.42 --undefined-- 30.909
4.43 --undefined-- 38.575
4.44 --undefined-- 46.968
4.45 --undefined-- 54.108
4.46 173.076 59.963
4.47 171.884 65.142
4.48 171.276 68.848
4.49 170.793 70.360
4.50 167.606 70.427
4.51 165.822 70.684
4.52 163.819 70.962
4.53 162.991 70.361
4.54 162.580 68.801
4.55 161.891 66.849
4.56 159.307 64.978
4.57 159.250 64.047
4.58 159.364 64.134
4.59 159.408 64.196
4.60 158.210 63.986
4.61 157.249 63.944
4.62 158.482 64.074
4.63 160.164 64.086
4.64 162.987 63.673
4.65 165.765 62.411
4.66 166.002 59.838
4.67 170.268 56.681
4.68 --undefined-- 55.063
4.69 --undefined-- 55.699
4.70 --undefined-- 56.956
4.71 --undefined-- 57.506
4.72 --undefined-- 57.327
4.73 --undefined-- 56.259
4.74 --undefined-- 56.910
4.75 --undefined-- 62.626
4.76 --undefined-- 67.602
4.77 144.127 70.437
4.78 141.158 71.365
4.79 140.685 70.729
4.80 135.961 69.383
4.81 146.996 68.540
4.82 155.510 68.655
4.83 170.455 68.793
4.84 174.722 68.611
4.85 185.042 67.883
4.86 191.829 66.941
4.87 194.880 67.046
4.88 198.456 68.123
4.89 200.355 69.418
4.90 199.976 70.198
4.91 198.346 70.294
4.92 193.461 70.145
4.93 189.010 69.543
4.94 181.877 67.924
4.95 174.114 65.577
4.96 165.439 62.257
4.97 --undefined-- 56.636
4.98 --undefined-- 48.019
4.99 --undefined-- 38.012
5.00 --undefined-- 31.374
5.01 --undefined-- 28.188
5.02 --undefined-- 28.705
5.03 --undefined-- 33.982
5.04 --undefined-- 39.401
5.05 --undefined-- 43.541
5.06 --undefined-- 46.992
5.07 --undefined-- 48.726
5.08 --undefined-- 49.034
5.09 --undefined-- 52.784
5.10 --undefined-- 59.236
5.11 154.544 63.604
5.12 153.812 65.432
5.13 151.974 65.395
5.14 152.841 64.607
5.15 154.067 64.172
5.16 155.386 64.637
5.17 156.651 65.609
5.18 162.213 66.372
5.19 162.415 66.953
5.20 169.484 67.341
5.21 175.782 66.273
5.22 171.809 62.686
5.23 158.054 56.776
5.24 --undefined-- 51.445
5.25 --undefined-- 49.968
5.26 --undefined-- 51.682
5.27 162.882 53.150
5.28 161.331 52.965
5.29 163.878 53.039
5.30 --undefined-- 57.266
5.31 245.709 62.388
5.32 238.592 66.011
5.33 235.347 68.518
5.34 234.752 70.120
5.35 234.643 71.018
5.36 236.742 71.492
5.37 241.514 71.602
5.38 243.770 71.849
5.39 243.835 72.591
5.40 243.206 72.977
5.41 242.693 72.778
5.42 244.877 72.552
5.43 250.992 72.580
5.44 249.815 72.520
5.45 244.809 72.105
5.46 239.693 71.238
5.47 235.918 69.801
5.48 231.773 67.267
5.49 234.858 62.808
5.50 --undefined-- 55.627
5.51 --undefined-- 45.343
5.52 --undefined-- 35.870
5.53 --undefined-- 29.720
5.54 --undefined-- 25.753
5.55 --undefined-- 24.717
5.56 --undefined-- 26.928
5.57 --undefined-- 35.246
5.58 --undefined-- 42.510
5.59 --undefined-- 47.403
5.60 --undefined-- --undefined--
5.61 --undefined-- --undefined--
5.62 --undefined-- --undefined--
5.63 --undefined-- --undefined--
