Time Pitch Intensity
0.01 --undefined-- --undefined--
0.02 --undefined-- --undefined--
0.03 --undefined-- --undefined--
0.04 --undefined-- --undefined--
0.05 --undefined-- 47.802
0.06 --undefined-- 47.042
0.07 --undefined-- 46.361
0.08 --undefined-- 46.078
0.09 --undefined-- 46.622
0.10 --undefined-- 46.874
0.11 --undefined-- 46.499
0.12 --undefined-- 45.784
0.13 --undefined-- 45.139
0.14 --undefined-- 45.357
0.15 --undefined-- 45.440
0.16 --undefined-- 44.464
0.17 --undefined-- 42.916
0.18 --undefined-- 41.412
0.19 --undefined-- 41.461
0.20 --undefined-- 42.285
0.21 --undefined-- 41.296
0.22 --undefined-- 39.409
0.23 --undefined-- 38.570
0.24 --undefined-- 38.088
0.25 --undefined-- 38.017
0.26 --undefined-- 38.217
0.27 --undefined-- 38.663
0.28 --undefined-- 45.788
0.29 --undefined-- 54.737
0.30 --undefined-- 61.251
0.31 --undefined-- 65.559
0.32 --undefined-- 68.763
0.33 120.414 71.301
0.34 121.334 72.316
0.35 121.692 71.594
0.36 --undefined-- 68.774
0.37 --undefined-- 63.683
0.38 141.276 60.364
0.39 143.537 61.523
0.40 146.417 62.985
0.41 148.887 64.925
0.42 150.879 68.051
0.43 149.332 70.718
0.44 148.154 72.032
0.45 145.643 72.275
0.46 140.350 71.936
0.47 133.203 71.733
0.48 130.919 71.976
0.49 125.623 72.254
0.50 120.424 72.250
0.51 117.773 71.971
0.52 116.284 71.532
0.53 113.896 70.855
0.54 112.341 69.365
0.55 111.134 66.300
0.56 109.662 61.532
0.57 108.941 58.357
0.58 108.678 58.673
0.59 107.989 59.411
0.60 107.941 60.012
0.61 107.443 60.411
0.62 107.488 61.419
0.63 107.790 64.983
0.64 107.975 69.310
0.65 106.755 72.074
0.66 104.804 73.280
0.67 103.777 73.448
0.68 104.498 72.942
0.69 107.359 72.262
0.70 109.414 71.691
0.71 109.877 70.712
0.72 113.695 69.762
0.73 116.695 69.587
0.74 119.223 69.281
0.75 121.397 68.397
0.76 123.349 67.454
0.77 124.167 66.231
0.78 123.041 63.696
0.79 121.589 59.223
0.80 119.835 52.798
0.81 --undefined-- 45.671
0.82 --undefined-- 40.441
0.83 --undefined-- 37.791
0.84 --undefined-- 36.497
0.85 --undefined-- 35.328
0.86 --undefined-- 36.834
0.87 --undefined-- 46.195
0.88 --undefined-- 58.381
0.89 --undefined-- 66.374
0.90 116.521 70.536
0.91 114.693 71.851
0.92 110.635 71.397
0.93 108.772 70.260
0.94 108.070 69.246
0.95 107.188 68.435
0.96 106.138 67.407
0.97 106.329 66.487
0.98 106.847 66.196
0.99 107.014 65.984
1.00 106.975 65.490
1.01 107.167 64.736
1.02 106.904 63.705
1.03 105.885 62.647
1.04 104.928 61.817
1.05 103.715 61.080
1.06 102.482 60.152
1.07 101.403 58.566
1.08 101.294 55.901
1.09 103.674 53.424
1.10 --undefined-- 53.358
1.11 --undefined-- 54.715
1.12 --undefined-- 55.894
1.13 --undefined-- 56.514
1.14 --undefined-- 56.697
1.15 --undefined-- 58.357
1.16 --undefined-- 65.285
1.17 --undefined-- 70.617
1.18 --undefined-- 72.723
1.19 --undefined-- 72.278
1.20 --undefined-- 70.422
1.21 --undefined-- 68.343
1.22 --undefined-- 66.037
1.23 --undefined-- 62.710
1.24 --undefined-- 58.499
1.25 97.145 55.904
1.26 97.221 55.760
1.27 97.898 56.261
1.28 99.161 56.791
1.29 101.438 57.321
1.30 102.877 59.022
1.31 104.354 62.746
1.32 105.006 66.160
1.33 105.578 68.250
1.34 108.362 69.457
1.35 111.806 69.917
1.36 113.036 69.497
1.37 117.336 68.238
1.38 --undefined-- 65.426
1.39 --undefined-- 59.718
1.40 --undefined-- 50.711
1.41 --undefined-- 44.362
1.42 --undefined-- 42.281
1.43 --undefined-- 41.124
1.44 --undefined-- 48.883
1.45 --undefined-- 57.040
1.46 --undefined-- 64.228
1.47 --undefined-- 69.095
1.48 110.724 70.917
1.49 105.115 70.561
1.50 100.521 69.496
1.51 93.804 68.359
1.52 92.291 67.001
1.53 98.730 65.691
1.54 98.636 64.665
1.55 98.800 63.957
1.56 99.696 63.466
1.57 102.061 63.112
1.58 102.710 62.558
1.59 102.374 61.149
1.60 102.490 59.045
1.61 101.647 56.568
1.62 99.880 53.446
1.63 99.826 50.086
1.64 --undefined-- 46.471
1.65 --undefined-- 42.371
1.66 --undefined-- 38.696
1.67 --undefined-- 45.179
1.68 --undefined-- 56.118
1.69 --undefined-- 61.789
1.70 --undefined-- 62.967
1.71 --undefined-- 60.498
1.72 --undefined-- 56.726
1.73 --undefined-- 59.280
1.74 --undefined-- 65.317
1.75 139.463 69.206
1.76 139.990 70.707
1.77 135.013 70.451
1.78 134.589 69.354
1.79 134.860 68.502
1.80 134.847 68.513
1.81 134.173 69.119
1.82 134.652 69.875
1.83 136.511 70.336
1.84 136.259 69.772
1.85 134.033 67.726
1.86 131.149 64.958
1.87 130.744 64.512
1.88 131.846 66.643
1.89 133.180 69.113
1.90 134.832 70.783
1.91 131.984 71.554
1.92 130.403 71.788
1.93 127.870 71.699
1.94 123.948 71.342
1.95 121.438 70.307
1.96 118.558 67.870
1.97 --undefined-- 63.405
1.98 --undefined-- 58.108
1.99 --undefined-- 56.843
2.00 --undefined-- 57.456
2.01 --undefined-- 57.176
2.02 --undefined-- 55.727
2.03 --undefined-- 54.753
2.04 --undefined-- 54.984
2.05 --undefined-- 54.851
2.06 --undefined-- 53.571
2.07 --undefined-- 56.667
2.08 --undefined-- 64.647
2.09 --undefined-- 69.367
2.10 --undefined-- 71.068
2.11 --undefined-- 70.939
2.12 --undefined-- 69.504
2.13 --undefined-- 66.529
2.14 --undefined-- 61.897
2.15 93.161 56.547
2.16 93.839 53.864
2.17 94.724 53.769
2.18 96.306 53.758
2.19 97.334 53.600
2.20 98.748 53.543
2.21 99.527 53.793
2.22 99.502 54.129
2.23 99.502 54.340
2.24 100.607 54.461
2.25 100.802 54.285
2.26 97.813 53.439
2.27 96.720 51.955
2.28 --undefined-- 49.790
2.29 --undefined-- 46.687
2.30 --undefined-- 43.512
2.31 --undefined-- 43.164
2.32 --undefined-- 47.951
2.33 --undefined-- 53.783
2.34 --undefined-- 57.798
2.35 --undefined-- 59.542
2.36 --undefined-- 59.054
2.37 --undefined-- 57.123
2.38 --undefined-- 55.336
2.39 --undefined-- 57.090
2.40 --undefined-- 60.966
2.41 108.592 62.879
2.42 105.211 63.559
2.43 104.804 64.661
2.44 101.569 65.658
2.45 99.293 65.445
2.46 99.472 63.945
2.47 99.447 61.226
2.48 92.710 57.024
2.49 99.389 54.621
2.50 101.821 56.369
2.51 98.309 57.964
2.52 96.034 58.634
2.53 91.613 58.779
2.54 88.946 58.911
2.55 88.324 60.990
2.56 87.428 64.720
2.57 87.216 67.601
2.58 86.952 69.087
2.59 85.795 69.488
2.60 83.944 69.099
2.61 83.918 68.567
2.62 82.043 68.087
2.63 79.798 67.198
2.64 78.571 66.444
2.65 77.725 66.095
2.66 77.925 65.824
2.67 77.875 65.678
2.68 77.888 65.712
2.69 79.153 65.854
2.70 81.419 66.447
2.71 83.907 67.543
2.72 87.675 68.359
2.73 93.330 68.626
2.74 97.671 68.888
2.75 103.064 69.180
2.76 105.298 68.947
2.77 108.141 68.035
2.78 110.633 66.978
2.79 112.305 66.711
2.80 116.501 67.468
2.81 119.282 68.454
2.82 121.263 69.120
2.83 123.604 69.610
2.84 124.753 70.001
2.85 125.718 70.062
2.86 126.119 69.940
2.87 126.015 69.822
2.88 124.998 69.621
2.89 124.339 69.353
2.90 123.443 69.086
2.91 121.874 68.719
2.92 120.256 68.269
2.93 118.186 67.982
2.94 113.092 67.985
2.95 112.344 68.034
2.96 108.423 67.864
2.97 103.447 67.762
2.98 99.904 68.105
2.99 95.539 68.529
3.00 91.028 68.615
3.01 87.981 68.364
3.02 87.339 67.924
3.03 86.748 67.549
3.04 85.603 67.294
3.05 84.929 66.964
3.06 84.013 66.711
3.07 83.497 66.563
3.08 80.943 66.171
3.09 79.516 65.298
3.10 81.175 64.235
3.11 81.015 63.556
3.12 83.193 63.260
3.13 86.033 63.039
3.14 81.475 62.826
3.15 87.759 62.953
3.16 85.626 62.899
3.17 86.035 61.838
3.18 86.336 59.653
3.19 85.806 57.323
3.20 86.402 55.473
3.21 86.485 53.809
3.22 87.350 52.675
3.23 89.924 52.800
3.24 90.019 53.938
3.25 91.885 55.058
3.26 91.492 55.361
3.27 91.226 54.756
3.28 94.346 53.927
3.29 89.086 53.129
3.30 101.388 52.805
3.31 --undefined-- 54.837
3.32 --undefined-- 58.955
3.33 --undefined-- 63.665
3.34 --undefined-- 67.325
3.35 --undefined-- 68.732
3.36 --undefined-- 68.445
3.37 92.333 67.763
3.38 92.563 67.504
3.39 93.231 67.671
3.40 95.753 68.198
3.41 97.617 68.760
3.42 96.624 68.587
3.43 95.855 67.128
3.44 98.431 64.844
3.45 101.672 62.928
3.46 103.076 61.299
3.47 102.606 58.571
3.48 --undefined-- 53.617
3.49 --undefined-- 46.809
3.50 --undefined-- 41.057
3.51 --undefined-- 38.633
3.52 --undefined-- 38.272
3.53 --undefined-- 37.321
3.54 --undefined-- 37.045
3.55 --undefined-- 37.366
3.56 --undefined-- 37.078
3.57 --undefined-- 36.957
3.58 --undefined-- 38.421
3.59 --undefined-- 45.624
3.60 --undefined-- 53.037
3.61 --undefined-- 56.413
3.62 --undefined-- 57.639
3.63 --undefined-- 60.572
3.64 85.291 63.312
3.65 82.214 64.097
3.66 82.340 63.268
3.67 80.279 61.705
3.68 79.823 59.750
3.69 80.904 58.053
3.70 81.410 57.930
3.71 81.413 58.706
3.72 83.823 59.371
3.73 86.134 59.326
3.74 86.163 57.990
3.75 88.590 55.145
3.76 91.792 52.919
3.77 106.142 54.872
3.78 107.291 57.388
3.79 107.679 58.967
3.80 107.612 59.936
3.81 107.880 60.497
3.82 108.945 60.685
3.83 112.867 60.655
3.84 118.651 60.628
3.85 120.426 60.801
3.86 122.198 61.260
3.87 123.506 61.699
3.88 124.342 61.831
3.89 124.956 61.662
3.90 125.380 61.252
3.91 124.667 60.556
3.92 123.814 59.275
3.93 121.475 56.988
3.94 119.264 53.396
3.95 --undefined-- 48.472
3.96 --undefined-- 44.627
3.97 --undefined-- 48.774
3.98 --undefined-- 55.571
3.99 --undefined-- 60.088
4.00 --undefined-- 61.844
4.01 --undefined-- 62.336
4.02 --undefined-- 66.135
4.03 --undefined-- 69.856
4.04 --undefined-- 71.058
4.05 --undefined-- 70.592
4.06 --undefined-- 69.363
4.07 --undefined-- 67.605
4.08 --undefined-- 65.083
4.09 --undefined-- 62.129
4.10 --undefined-- 59.894
4.11 --undefined-- 58.515
4.12 76.371 58.101
4.13 82.625 58.747
4.14 90.660 60.588
4.15 91.184 62.501
4.16 91.791 62.985
4.17 91.937 61.262
4.18 92.513 57.638
4.19 93.059 55.092
4.20 89.506 54.227
4.21 90.957 53.027
4.22 90.719 51.782
4.23 91.189 51.290
4.24 91.663 51.849
4.25 91.908 52.338
4.26 92.016 51.907
4.27 90.322 50.432
4.28 --undefined-- 47.904
4.29 --undefined-- 45.545
4.30 --undefined-- 49.476
4.31 --undefined-- 54.602
4.32 --undefined-- 57.510
4.33 --undefined-- 60.839
4.34 --undefined-- 65.108
4.35 90.133 68.074
4.36 90.008 69.203
4.37 90.102 68.607
4.38 87.953 66.050
4.39 89.040 61.257
4.40 --undefined-- 54.693
4.41 --undefined-- 46.801
4.42 --undefined-- 40.553
4.43 --undefined-- 37.974
4.44 --undefined-- 40.972
4.45 --undefined-- 49.569
4.46 --undefined-- 54.606
4.47 --undefined-- 56.436
4.48 --undefined-- 57.741
4.49 --undefined-- 60.486
4.50 --undefined-- 62.226
4.51 --undefined-- 61.513
4.52 --undefined-- 59.527
4.53 --undefined-- 59.593
4.54 --undefined-- 61.821
4.55 --undefined-- 63.351
4.56 --undefined-- 63.726
4.57 --undefined-- 62.780
4.58 --undefined-- 60.188
4.59 --undefined-- 55.774
4.60 --undefined-- 50.742
4.61 --undefined-- 49.425
4.62 --undefined-- 49.674
4.63 --undefined-- 49.963
4.64 --undefined-- 50.267
4.65 --undefined-- 50.611
4.66 75.106 50.999
4.67 75.440 51.231
4.68 75.602 51.146
4.69 76.048 50.865
4.70 76.941 50.654
4.71 77.228 50.470
4.72 78.050 50.082
4.73 --undefined-- 49.058
4.74 --undefined-- 46.830
4.75 --undefined-- 43.653
4.76 --undefined-- 40.595
4.77 --undefined-- 38.632
4.78 --undefined-- 38.176
4.79 --undefined-- 38.965
4.80 --undefined-- 40.640
4.81 --undefined-- 47.659
4.82 --undefined-- 53.709
4.83 --undefined-- 56.623
4.84 --undefined-- 58.979
4.85 --undefined-- 62.090
4.86 81.620 63.716
4.87 84.190 63.759
4.88 84.236 62.941
4.89 84.142 61.565
4.90 81.567 59.638
4.91 81.908 57.829
4.92 79.661 56.814
4.93 79.493 56.618
4.94 80.741 57.219
4.95 80.673 58.294
4.96 82.871 59.026
4.97 81.841 58.286
4.98 82.229 56.132
4.99 83.947 54.502
5.00 84.131 54.156
5.01 83.855 54.204
5.02 83.996 54.481
5.03 85.055 55.276
5.04 87.740 57.299
5.05 87.397 59.370
5.06 84.867 60.198
5.07 84.850 59.494
5.08 82.735 57.773
5.09 --undefined-- 56.002
5.10 --undefined-- 54.727
5.11 --undefined-- 53.672
5.12 --undefined-- 52.007
5.13 --undefined-- 50.451
5.14 --undefined-- 49.245
5.15 --undefined-- 47.964
5.16 --undefined-- 47.652
5.17 --undefined-- 48.059
5.18 --undefined-- 48.023
5.19 --undefined-- 46.687
5.20 --undefined-- 44.124
5.21 --undefined-- 41.915
5.22 --undefined-- 40.289
5.23 --undefined-- 39.262
5.24 --undefined-- 39.342
5.25 --undefined-- 39.545
5.26 --undefined-- 39.168
5.27 --undefined-- 38.508
5.28 --undefined-- 37.706
5.29 --undefined-- 37.226
5.30 --undefined-- 37.593
5.31 --undefined-- 38.468
5.32 --undefined-- 39.345
5.33 --undefined-- 39.391
5.34 --undefined-- 39.236
5.35 --undefined-- 39.386
5.36 --undefined-- 38.884
5.37 --undefined-- 39.516
5.38 --undefined-- 46.594
5.39 --undefined-- 52.411
5.40 --undefined-- 54.569
5.41 --undefined-- 56.316
5.42 --undefined-- 58.853
5.43 --undefined-- 60.661
5.44 --undefined-- 60.363
5.45 --undefined-- 57.530
5.46 --undefined-- 55.747
5.47 --undefined-- 57.192
5.48 109.712 58.824
5.49 119.911 59.739
5.50 119.143 60.270
5.51 124.165 60.763
5.52 125.049 61.526
5.53 125.422 62.340
5.54 124.824 62.962
5.55 123.883 --undefined--
5.56 122.073 --undefined--
5.57 --undefined-- --undefined--
5.58 --undefined-- --undefined--
