Time Pitch Intensity
0.01 --undefined-- --undefined--
0.02 194.375 --undefined--
0.03 195.632 --undefined--
0.04 197.749 --undefined--
0.05 199.475 71.058
0.06 199.420 69.889
0.07 197.844 68.383
0.08 197.786 66.774
0.09 196.123 64.892
0.10 191.157 62.054
0.11 191.992 57.645
0.12 --undefined-- 51.212
0.13 --undefined-- 44.625
0.14 --undefined-- 42.023
0.15 --undefined-- 40.670
0.16 --undefined-- 38.501
0.17 --undefined-- 35.007
0.18 --undefined-- 33.657
0.19 --undefined-- 36.352
0.20 --undefined-- 38.380
0.21 --undefined-- 39.078
0.22 --undefined-- 38.531
0.23 --undefined-- 36.243
0.24 --undefined-- 34.587
0.25 --undefined-- 36.769
0.26 --undefined-- 38.523
0.27 --undefined-- 38.333
0.28 --undefined-- 36.571
0.29 --undefined-- 34.031
0.30 --undefined-- 33.149
0.31 --undefined-- 36.078
0.32 --undefined-- 39.258
0.33 --undefined-- 41.284
0.34 --undefined-- 41.174
0.35 --undefined-- 43.693
0.36 --undefined-- 52.856
0.37 --undefined-- 59.052
0.38 --undefined-- 62.264
0.39 135.779 63.581
0.40 138.281 64.457
0.41 148.644 66.331
0.42 155.197 68.486
0.43 157.867 69.677
0.44 163.260 70.119
0.45 167.835 70.290
0.46 171.332 70.413
0.47 176.671 70.546
0.48 179.721 70.619
0.49 179.367 70.702
0.50 178.627 70.755
0.51 176.344 70.434
0.52 164.626 69.815
0.53 161.264 69.414
0.54 155.104 69.067
0.55 145.204 68.318
0.56 --undefined-- 66.890
0.57 --undefined-- 64.625
0.58 --undefined-- 61.939
0.59 --undefined-- 59.730
0.60 --undefined-- 56.259
0.61 --undefined-- 52.985
0.62 --undefined-- 57.342
0.63 --undefined-- 60.405
0.64 --undefined-- 62.331
0.65 --undefined-- 64.020
0.66 118.616 65.408
0.67 122.229 66.760
0.68 122.667 68.043
0.69 120.967 68.907
0.70 121.435 69.070
0.71 122.582 68.540
0.72 123.704 67.778
0.73 123.727 67.231
0.74 123.645 66.918
0.75 124.357 66.738
0.76 125.557 66.660
0.77 125.681 66.731
0.78 124.851 67.008
0.79 127.066 67.278
0.80 127.826 67.264
0.81 126.947 67.054
0.82 125.618 66.878
0.83 124.002 66.923
0.84 121.412 67.134
0.85 118.619 67.289
0.86 116.208 67.381
0.87 114.604 67.491
0.88 110.958 67.649
0.89 107.704 67.866
0.90 104.665 67.712
0.91 103.138 67.152
0.92 101.971 66.736
0.93 100.363 66.343
0.94 99.141 65.847
0.95 99.151 65.718
0.96 99.609 66.033
0.97 98.671 66.223
0.98 97.978 66.108
0.99 98.121 65.756
1.00 99.148 65.357
1.01 100.094 65.186
1.02 102.182 65.190
1.03 103.267 65.229
1.04 106.046 65.266
1.05 106.975 65.308
1.06 107.935 65.659
1.07 114.961 66.458
1.08 120.217 67.272
1.09 125.709 67.714
1.10 129.908 67.600
1.11 133.247 66.768
1.12 138.225 65.179
1.13 143.374 62.694
1.14 143.862 58.741
1.15 --undefined-- 53.067
1.16 --undefined-- 48.188
1.17 --undefined-- 48.660
1.18 --undefined-- 50.007
1.19 --undefined-- 48.623
1.20 --undefined-- 45.936
1.21 --undefined-- 45.460
1.22 --undefined-- 45.225
1.23 --undefined-- 49.450
1.24 178.888 58.343
1.25 177.541 64.071
1.26 157.536 66.812
1.27 155.450 67.621
1.28 151.797 67.541
1.29 148.879 67.116
1.30 147.861 66.628
1.31 147.775 66.277
1.32 148.192 66.046
1.33 148.924 65.886
1.34 150.738 65.930
1.35 154.000 66.087
1.36 160.939 66.118
1.37 166.920 66.027
1.38 168.201 66.033
1.39 171.126 66.441
1.40 173.135 66.886
1.41 172.369 66.834
1.42 171.434 66.125
1.43 169.221 64.438
1.44 162.313 61.165
1.45 --undefined-- 55.711
1.46 --undefined-- 49.309
1.47 --undefined-- 45.960
1.48 --undefined-- 44.915
1.49 --undefined-- 45.234
1.50 --undefined-- 46.445
1.51 --undefined-- 48.554
1.52 --undefined-- 50.483
1.53 --undefined-- 51.700
1.54 --undefined-- 53.632
1.55 --undefined-- 59.318
1.56 --undefined-- 64.176
1.57 126.896 66.624
1.58 117.531 67.467
1.59 107.264 67.438
1.60 92.826 66.797
1.61 89.243 65.962
1.62 84.342 65.154
1.63 80.962 64.195
1.64 80.168 63.340
1.65 79.870 63.144
1.66 84.701 63.913
1.67 87.472 64.995
1.68 93.826 65.941
1.69 97.935 66.651
1.70 101.487 67.146
1.71 104.740 67.559
1.72 107.909 67.896
1.73 108.190 68.020
1.74 107.294 67.695
1.75 103.519 66.737
1.76 --undefined-- 65.253
1.77 74.880 63.043
1.78 --undefined-- 59.720
1.79 --undefined-- 54.671
1.80 --undefined-- 48.855
1.81 --undefined-- 47.190
1.82 --undefined-- 44.917
1.83 --undefined-- 39.704
1.84 --undefined-- 35.617
1.85 --undefined-- 36.657
1.86 --undefined-- 38.560
1.87 --undefined-- 39.095
1.88 --undefined-- 38.232
1.89 --undefined-- 37.022
1.90 --undefined-- 38.046
1.91 --undefined-- 39.803
1.92 --undefined-- 39.630
1.93 --undefined-- 38.812
1.94 --undefined-- 38.597
1.95 --undefined-- 37.598
1.96 --undefined-- 35.397
1.97 --undefined-- 34.449
1.98 --undefined-- 36.331
1.99 --undefined-- 37.959
2.00 --undefined-- 38.051
2.01 --undefined-- 36.103
2.02 --undefined-- 32.265
2.03 --undefined-- 31.378
2.04 --undefined-- 35.003
2.05 --undefined-- 37.339
2.06 --undefined-- 37.997
2.07 --undefined-- 37.240
2.08 --undefined-- 36.034
2.09 --undefined-- 37.078
2.10 --undefined-- 39.533
2.11 --undefined-- 41.300
2.12 --undefined-- 42.125
2.13 --undefined-- 42.146
2.14 --undefined-- 46.044
2.15 --undefined-- 57.155
2.16 --undefined-- 64.855
2.17 236.659 69.328
2.18 226.670 71.599
2.19 217.393 72.561
2.20 209.649 72.896
2.21 205.102 73.047
2.22 204.146 73.050
2.23 204.617 72.709
2.24 206.343 72.219
2.25 207.349 72.009
2.26 206.883 72.045
2.27 206.145 71.972
2.28 205.045 71.458
2.29 204.474 69.981
2.30 202.495 66.943
2.31 196.353 62.614
2.32 203.308 58.758
2.33 205.364 55.403
2.34 205.156 51.041
2.35 --undefined-- 47.555
2.36 --undefined-- 47.550
2.37 --undefined-- 47.012
2.38 --undefined-- 51.165
2.39 193.716 58.449
2.40 191.880 63.395
2.41 177.609 66.300
2.42 170.348 68.114
2.43 137.037 69.295
2.44 125.078 69.794
2.45 115.777 69.825
2.46 109.111 69.470
2.47 105.915 68.654
2.48 98.550 67.758
2.49 95.490 66.710
2.50 92.880 65.399
2.51 89.434 64.280
2.52 87.580 63.383
2.53 83.771 62.251
2.54 --undefined-- 60.880
2.55 --undefined-- 59.911
2.56 --undefined-- 59.019
2.57 --undefined-- 57.659
2.58 82.822 56.735
2.59 82.596 56.163
2.60 77.994 54.445
2.61 --undefined-- 52.029
2.62 --undefined-- 49.024
2.63 --undefined-- 44.266
2.64 --undefined-- 39.619
2.65 --undefined-- 38.785
2.66 --undefined-- 39.737
2.67 --undefined-- 39.307
2.68 --undefined-- 42.605
2.69 --undefined-- 53.852
2.70 158.656 61.748
2.71 150.525 65.900
2.72 142.376 67.465
2.73 137.136 67.843
2.74 132.058 68.124
2.75 129.499 68.569
2.76 128.090 68.700
2.77 126.588 68.226
2.78 125.729 67.486
2.79 124.378 67.409
2.80 130.468 68.300
2.81 132.794 69.003
2.82 132.459 69.098
2.83 130.657 68.520
2.84 127.364 66.888
2.85 125.311 63.894
2.86 128.565 59.349
2.87 132.396 53.274
2.88 131.958 48.476
2.89 --undefined-- 48.055
2.90 --undefined-- 48.043
2.91 --undefined-- 48.093
2.92 --undefined-- 51.958
2.93 134.430 57.472
2.94 134.698 61.422
2.95 133.170 63.443
2.96 126.575 63.984
2.97 113.309 63.671
2.98 104.977 63.032
2.99 93.042 62.399
3.00 82.307 61.765
3.01 78.807 61.122
3.02 78.399 60.787
3.03 77.437 60.633
3.04 78.383 60.477
3.05 81.857 60.256
3.06 82.149 59.797
3.07 80.131 58.853
3.08 78.901 56.977
3.09 --undefined-- 53.705
3.10 --undefined-- 48.926
3.11 --undefined-- 43.246
3.12 --undefined-- 39.206
3.13 --undefined-- 39.182
3.14 --undefined-- 38.892
3.15 --undefined-- 38.687
3.16 --undefined-- 41.529
3.17 --undefined-- 45.110
3.18 --undefined-- 48.639
3.19 --undefined-- 51.555
3.20 --undefined-- 52.673
3.21 --undefined-- 52.127
3.22 --undefined-- 54.662
3.23 --undefined-- 60.620
3.24 --undefined-- 64.028
3.25 97.759 64.807
3.26 88.946 64.346
3.27 75.066 63.514
3.28 75.029 62.086
3.29 --undefined-- 60.238
3.30 --undefined-- 57.810
3.31 --undefined-- 53.409
3.32 --undefined-- 48.481
3.33 --undefined-- 46.201
3.34 --undefined-- 43.422
3.35 --undefined-- 39.576
3.36 --undefined-- 37.574
3.37 --undefined-- 38.273
3.38 --undefined-- 38.532
3.39 --undefined-- 38.196
3.40 --undefined-- 38.996
3.41 --undefined-- 40.801
3.42 --undefined-- 42.205
3.43 --undefined-- 43.481
3.44 --undefined-- 44.267
3.45 --undefined-- 43.844
3.46 --undefined-- 42.652
3.47 --undefined-- 41.663
3.48 --undefined-- 41.802
3.49 --undefined-- 42.447
3.50 --undefined-- 42.346
3.51 --undefined-- 41.370
3.52 --undefined-- 39.546
3.53 --undefined-- 37.601
3.54 --undefined-- 36.775
3.55 --undefined-- 37.377
3.56 --undefined-- 38.042
3.57 --undefined-- 37.597
3.58 --undefined-- 36.104
3.59 --undefined-- 34.620
3.60 --undefined-- 36.373
3.61 --undefined-- 41.073
3.62 --undefined-- 45.589
3.63 --undefined-- 49.503
3.64 --undefined-- 52.573
3.65 --undefined-- 54.521
3.66 --undefined-- 59.735
3.67 249.182 66.977
3.68 241.865 71.565
3.69 238.993 73.496
3.70 235.370 73.395
3.71 230.310 71.542
3.72 --undefined-- 68.155
3.73 --undefined-- 63.924
3.74 --undefined-- 58.044
3.75 --undefined-- 49.500
3.76 --undefined-- 44.151
3.77 --undefined-- 42.965
3.78 --undefined-- 41.214
3.79 --undefined-- 39.116
3.80 --undefined-- 38.529
3.81 --undefined-- 43.628
3.82 --undefined-- 53.995
3.83 --undefined-- 61.307
3.84 135.238 65.252
3.85 136.610 66.709
3.86 135.840 66.808
3.87 132.078 66.582
3.88 129.743 66.345
3.89 125.408 65.985
3.90 117.489 65.567
3.91 113.084 65.199
3.92 109.567 64.994
3.93 109.069 65.101
3.94 109.514 65.428
3.95 110.081 65.538
3.96 110.763 64.695
3.97 110.687 62.563
3.98 111.413 59.553
3.99 114.876 55.936
4.00 110.551 51.320
4.01 --undefined-- 46.098
4.02 --undefined-- 41.704
4.03 --undefined-- 39.198
4.04 --undefined-- 40.151
4.05 --undefined-- 44.690
4.06 --undefined-- 52.550
4.07 --undefined-- 59.872
4.08 194.381 65.103
4.09 183.085 68.687
4.10 174.808 70.668
4.11 177.364 71.220
4.12 180.865 71.016
4.13 181.473 70.743
4.14 182.919 70.564
4.15 185.721 70.374
4.16 185.703 70.185
4.17 184.992 70.006
4.18 184.010 69.683
4.19 183.197 69.179
4.20 182.530 68.438
4.21 180.833 67.186
4.22 178.134 65.280
4.23 173.535 62.734
4.24 166.975 59.375
4.25 168.355 55.064
4.26 --undefined-- 51.094
4.27 --undefined-- 49.487
4.28 --undefined-- 48.741
4.29 --undefined-- 47.914
4.30 --undefined-- 54.111
4.31 --undefined-- 62.412
4.32 --undefined-- 67.010
4.33 --undefined-- 68.764
4.34 148.717 68.990
4.35 141.143 68.681
4.36 128.338 68.330
4.37 122.336 68.354
4.38 118.320 68.233
4.39 115.246 67.460
4.40 112.226 66.623
4.41 111.816 66.367
4.42 110.509 66.560
4.43 106.639 66.745
4.44 101.199 66.398
4.45 98.017 65.543
4.46 98.184 64.229
4.47 101.305 61.839
4.48 113.162 58.247
4.49 125.177 54.312
4.50 --undefined-- 49.633
4.51 --undefined-- 44.254
4.52 --undefined-- 41.981
4.53 --undefined-- 41.986
4.54 --undefined-- 41.396
4.55 --undefined-- 41.137
4.56 --undefined-- 42.135
4.57 --undefined-- 43.562
4.58 --undefined-- 45.445
4.59 --undefined-- 53.705
4.60 --undefined-- 62.007
4.61 166.088 66.497
4.62 155.624 68.074
4.63 146.930 68.238
4.64 141.933 68.436
4.65 139.186 68.554
4.66 134.353 68.188
4.67 130.379 67.914
4.68 127.059 68.090
4.69 123.910 68.341
4.70 123.097 68.531
4.71 122.825 68.604
4.72 123.113 68.461
4.73 123.231 68.171
4.74 123.079 67.960
4.75 123.135 67.920
4.76 123.644 68.095
4.77 123.481 68.348
4.78 122.450 68.096
4.79 121.566 66.566
4.80 120.851 63.285
4.81 124.034 58.069
4.82 --undefined-- 51.969
4.83 --undefined-- 49.116
4.84 --undefined-- 48.442
4.85 --undefined-- 46.043
4.86 --undefined-- 42.515
4.87 --undefined-- 41.337
4.88 --undefined-- 42.170
4.89 --undefined-- 43.249
4.90 --undefined-- 43.580
4.91 --undefined-- 42.680
4.92 --undefined-- 44.445
4.93 --undefined-- 53.817
4.94 --undefined-- 60.551
4.95 --undefined-- 64.152
4.96 99.983 65.658
4.97 94.111 65.948
4.98 90.102 65.603
4.99 86.520 65.071
5.00 83.654 64.358
5.01 81.634 63.499
5.02 79.494 62.780
5.03 81.622 62.425
5.04 82.741 62.459
5.05 83.116 62.672
5.06 83.738 63.065
5.07 85.880 63.665
5.08 88.679 64.355
5.09 90.711 64.610
5.10 93.834 64.450
5.11 97.504 64.601
5.12 101.344 65.362
5.13 105.146 66.215
5.14 106.955 66.807
5.15 106.691 67.250
5.16 105.692 67.698
5.17 103.473 67.939
5.18 97.640 67.919
5.19 89.695 67.874
5.20 78.916 67.795
5.21 --undefined-- 67.199
5.22 --undefined-- 65.718
5.23 --undefined-- 63.755
5.24 --undefined-- 62.534
5.25 --undefined-- 61.128
5.26 --undefined-- 59.266
5.27 --undefined-- 58.364
5.28 --undefined-- 55.353
5.29 --undefined-- 49.160
5.30 --undefined-- 44.417
5.31 --undefined-- 43.547
5.32 --undefined-- 41.607
5.33 --undefined-- 38.220
5.34 --undefined-- 34.965
5.35 --undefined-- 36.220
5.36 --undefined-- 38.509
5.37 --undefined-- 39.145
5.38 --undefined-- 37.819
5.39 --undefined-- 34.872
5.40 --undefined-- 33.793
5.41 --undefined-- 36.608
5.42 --undefined-- 38.790
5.43 --undefined-- 39.247
5.44 --undefined-- 37.991
5.45 --undefined-- 35.358
5.46 --undefined-- 33.709
5.47 --undefined-- 35.733
5.48 --undefined-- 37.894
5.49 --undefined-- 43.329
5.50 --undefined-- 51.311
5.51 241.037 56.942
5.52 209.499 60.812
5.53 199.355 64.309
5.54 205.773 67.264
5.55 206.824 69.393
5.56 204.904 71.558
5.57 206.581 73.113
5.58 213.922 73.780
5.59 198.285 74.629
5.60 192.659 75.215
5.61 199.883 75.065
5.62 211.276 75.194
5.63 216.677 75.326
5.64 220.489 74.405
5.65 223.516 73.699
5.66 223.203 73.810
5.67 219.103 73.608
5.68 96.633 73.288
5.69 97.563 72.897
5.70 97.158 72.518
5.71 96.711 72.192
5.72 95.825 71.810
5.73 94.892 71.672
5.74 93.258 72.014
5.75 88.850 72.419
5.76 224.810 72.007
5.77 211.464 70.742
5.78 189.334 71.298
5.79 187.696 72.374
5.80 182.003 72.316
5.81 175.160 71.647
5.82 169.381 71.215
5.83 163.352 71.335
5.84 156.064 71.534
5.85 152.044 71.517
5.86 151.446 71.452
5.87 144.582 71.147
5.88 139.842 70.165
5.89 138.999 68.707
5.90 139.269 67.861
5.91 141.446 67.675
5.92 142.573 67.595
5.93 146.110 67.651
5.94 146.599 67.857
5.95 146.406 68.017
5.96 145.575 68.105
5.97 144.312 68.082
5.98 143.390 67.940
5.99 142.112 67.712
6.00 142.093 67.195
6.01 140.819 66.445
6.02 137.055 65.651
6.03 133.466 65.296
6.04 130.574 --undefined--
6.05 129.791 --undefined--
6.06 --undefined-- --undefined--
6.07 --undefined-- --undefined--
