Time Pitch Intensity
0.01 --undefined-- --undefined--
0.02 237.004 --undefined--
0.03 231.605 --undefined--
0.04 228.253 --undefined--
0.05 217.359 64.062
0.06 206.037 61.194
0.07 186.205 57.409
0.08 --undefined-- 52.799
0.09 --undefined-- 51.148
0.10 --undefined-- 51.247
0.11 --undefined-- 51.088
0.12 --undefined-- 54.379
0.13 --undefined-- 59.405
0.14 245.332 63.426
0.15 242.784 65.735
0.16 243.667 66.707
0.17 245.781 66.698
0.18 248.027 66.068
0.19 248.454 65.432
0.20 248.367 65.064
0.21 252.779 65.309
0.22 265.351 66.241
0.23 268.617 66.842
0.24 273.600 66.845
0.25 278.136 66.684
0.26 281.038 66.121
0.27 286.865 64.619
0.28 294.744 63.860
0.29 160.312 65.547
0.30 163.983 67.486
0.31 165.010 68.749
0.32 166.227 69.711
0.33 167.801 70.343
0.34 169.529 70.328
0.35 170.957 69.672
0.36 171.183 68.559
0.37 170.635 67.458
0.38 169.710 66.932
0.39 166.295 67.079
0.40 161.436 67.530
0.41 153.932 67.581
0.42 280.406 67.225
0.43 257.746 67.606
0.44 --undefined-- 68.628
0.45 --undefined-- 68.952
0.46 --undefined-- 68.558
0.47 --undefined-- 67.269
0.48 172.593 65.014
0.49 168.605 63.023
0.50 161.913 62.374
0.51 156.140 62.389
0.52 154.744 62.276
0.53 155.390 62.040
0.54 156.425 62.004
0.55 157.278 61.873
0.56 157.492 61.504
0.57 158.704 61.237
0.58 160.231 61.217
0.59 161.717 61.212
0.60 162.708 60.836
0.61 162.722 59.453
0.62 158.847 56.509
0.63 --undefined-- 54.449
0.64 --undefined-- 58.074
0.65 207.744 62.017
0.66 202.370 65.311
0.67 192.103 68.299
0.68 191.324 70.511
0.69 191.750 71.936
0.70 192.145 72.714
0.71 192.332 72.974
0.72 192.035 72.641
0.73 192.654 71.616
0.74 194.911 70.321
0.75 196.897 69.221
0.76 200.080 68.293
0.77 202.646 67.367
0.78 205.881 66.418
0.79 207.360 65.534
0.80 207.854 64.515
0.81 208.937 63.283
0.82 217.448 61.862
0.83 221.400 60.771
0.84 218.994 60.520
0.85 224.713 61.323
0.86 233.593 62.648
0.87 234.918 63.693
0.88 218.421 64.122
0.89 209.728 64.279
0.90 205.867 64.884
0.91 201.538 65.633
0.92 198.825 66.003
0.93 197.945 66.140
0.94 199.363 66.286
0.95 200.842 66.504
0.96 202.005 66.810
0.97 201.995 67.063
0.98 201.643 67.179
0.99 201.288 67.232
1.00 201.165 67.147
1.01 201.870 66.773
1.02 203.721 66.050
1.03 206.016 65.001
1.04 209.540 63.731
1.05 211.687 61.887
1.06 207.386 58.771
1.07 193.378 54.480
1.08 --undefined-- 51.719
1.09 --undefined-- 50.089
1.10 --undefined-- 46.526
1.11 --undefined-- 44.010
1.12 --undefined-- 44.972
1.13 --undefined-- 46.897
1.14 --undefined-- 50.259
1.15 --undefined-- 54.439
1.16 --undefined-- 58.448
1.17 296.181 63.299
1.18 288.512 67.256
1.19 286.712 69.280
1.20 286.778 69.858
1.21 283.578 69.664
1.22 281.486 69.378
1.23 282.437 69.403
1.24 283.515 69.669
1.25 286.052 70.143
1.26 285.238 70.501
1.27 283.641 70.333
1.28 285.038 70.162
1.29 284.521 70.111
1.30 283.828 69.782
1.31 282.698 69.062
1.32 281.454 68.540
1.33 280.969 68.209
1.34 280.751 67.692
1.35 281.002 67.331
1.36 281.174 67.228
1.37 280.106 67.099
1.38 279.483 66.955
1.39 279.088 67.012
1.40 278.480 67.297
1.41 277.311 67.557
1.42 276.152 67.378
1.43 274.112 66.332
1.44 266.958 64.239
1.45 256.914 62.392
1.46 266.637 63.313
1.47 274.145 65.248
1.48 275.879 66.980
1.49 276.112 69.316
1.50 276.094 71.680
1.51 273.350 72.488
1.52 268.455 71.868
1.53 268.057 71.246
1.54 267.494 71.295
1.55 267.070 71.645
1.56 266.699 71.751
1.57 266.305 71.319
1.58 266.607 70.347
1.59 267.116 69.000
1.60 267.079 67.523
1.61 266.369 66.060
1.62 264.766 64.877
1.63 260.942 64.022
1.64 253.464 63.162
1.65 250.667 62.048
1.66 246.806 60.615
1.67 239.015 58.155
1.68 --undefined-- 54.322
1.69 --undefined-- 50.325
1.70 --undefined-- 47.865
1.71 --undefined-- 47.703
1.72 --undefined-- 49.660
1.73 --undefined-- 53.096
1.74 --undefined-- 54.453
1.75 --undefined-- 53.740
1.76 215.688 54.791
1.77 211.667 56.756
1.78 214.345 58.046
1.79 214.653 59.308
1.80 203.310 60.497
1.81 188.905 61.060
1.82 173.639 60.595
1.83 163.356 59.804
1.84 163.998 60.297
1.85 167.209 61.195
1.86 166.492 61.763
1.87 163.861 62.287
1.88 162.602 62.783
1.89 165.489 62.716
1.90 161.036 61.763
1.91 152.873 60.953
1.92 150.688 61.111
1.93 149.838 61.536
1.94 149.027 61.554
1.95 144.603 60.979
1.96 144.916 60.350
1.97 147.422 60.376
1.98 147.944 60.826
1.99 147.218 61.131
2.00 149.546 61.428
2.01 153.789 62.043
2.02 155.407 62.994
2.03 156.897 63.729
2.04 156.597 63.635
2.05 155.559 62.306
2.06 150.925 59.363
2.07 145.340 54.897
2.08 --undefined-- 51.478
2.09 --undefined-- 50.947
2.10 --undefined-- 49.305
2.11 --undefined-- 47.168
2.12 --undefined-- 46.550
2.13 --undefined-- 45.115
2.14 --undefined-- 46.594
2.15 --undefined-- 51.128
2.16 --undefined-- 52.978
2.17 --undefined-- 52.059
2.18 --undefined-- 53.981
2.19 --undefined-- 59.870
2.20 191.326 64.010
2.21 188.994 66.129
2.22 185.307 66.826
2.23 182.897 66.845
2.24 182.093 66.654
2.25 181.159 66.270
2.26 180.656 65.657
2.27 180.425 65.274
2.28 186.970 65.651
2.29 189.356 66.088
2.30 190.094 66.063
2.31 190.696 65.671
2.32 191.846 64.980
2.33 192.770 63.798
2.34 191.420 61.470
2.35 187.423 57.589
2.36 180.468 53.864
2.37 --undefined-- 51.400
2.38 --undefined-- 47.818
2.39 --undefined-- 46.416
2.40 --undefined-- 49.658
2.41 --undefined-- 52.145
2.42 --undefined-- 53.127
2.43 --undefined-- 56.079
2.44 180.365 59.881
2.45 175.639 62.239
2.46 171.726 63.666
2.47 171.569 64.647
2.48 173.612 65.025
2.49 176.202 64.771
2.50 178.209 64.263
2.51 179.165 63.670
2.52 180.637 62.731
2.53 182.286 61.153
2.54 182.534 59.322
2.55 178.080 57.672
2.56 --undefined-- 55.376
2.57 --undefined-- 54.956
2.58 --undefined-- 56.929
2.59 --undefined-- 57.863
2.60 --undefined-- 57.047
2.61 --undefined-- 54.038
2.62 --undefined-- 50.485
2.63 --undefined-- 49.399
2.64 --undefined-- 50.389
2.65 281.816 55.513
2.66 255.126 59.886
2.67 244.882 62.526
2.68 249.417 64.110
2.69 252.629 64.867
2.70 253.737 65.057
2.71 253.108 65.120
2.72 251.507 65.231
2.73 250.255 65.277
2.74 248.330 65.188
2.75 247.040 65.238
2.76 248.545 65.389
2.77 246.714 65.163
2.78 243.772 64.661
2.79 241.290 64.180
2.80 238.299 63.697
2.81 235.873 63.200
2.82 232.865 63.023
2.83 229.438 63.486
2.84 223.907 64.229
2.85 216.995 64.761
2.86 210.265 65.417
2.87 205.640 66.684
2.88 202.329 68.188
2.89 198.621 69.316
2.90 195.232 70.157
2.91 192.303 71.121
2.92 189.580 72.015
2.93 187.405 72.515
2.94 187.134 72.600
2.95 185.230 72.284
2.96 181.873 71.634
2.97 177.692 70.488
2.98 --undefined-- 68.608
2.99 --undefined-- 65.789
3.00 --undefined-- 61.680
3.01 --undefined-- 56.802
3.02 --undefined-- 52.909
3.03 --undefined-- 49.575
3.04 --undefined-- 48.209
3.05 --undefined-- 50.534
3.06 --undefined-- 51.180
3.07 --undefined-- 49.051
3.08 --undefined-- 47.789
3.09 --undefined-- 49.221
3.10 --undefined-- 50.261
3.11 --undefined-- 49.909
3.12 --undefined-- 49.012
3.13 --undefined-- 49.363
3.14 --undefined-- 50.365
3.15 --undefined-- 51.083
3.16 --undefined-- 50.003
3.17 --undefined-- 47.608
3.18 --undefined-- 46.523
3.19 --undefined-- 46.892
3.20 --undefined-- 47.547
3.21 --undefined-- 47.652
3.22 --undefined-- 48.193
3.23 --undefined-- 49.656
3.24 --undefined-- 49.998
3.25 --undefined-- 48.959
3.26 --undefined-- 48.684
3.27 --undefined-- 49.884
3.28 --undefined-- 50.084
3.29 --undefined-- 48.996
3.30 --undefined-- 47.959
3.31 --undefined-- 48.636
3.32 --undefined-- 50.575
3.33 --undefined-- 51.562
3.34 --undefined-- 50.707
3.35 --undefined-- 49.519
3.36 --undefined-- 48.599
3.37 --undefined-- 46.787
3.38 --undefined-- 47.577
3.39 --undefined-- 52.728
3.40 --undefined-- 57.523
3.41 --undefined-- 60.253
3.42 227.524 61.663
3.43 226.353 62.821
3.44 227.378 63.445
3.45 224.192 62.579
3.46 213.578 59.834
3.47 --undefined-- 55.778
3.48 --undefined-- 51.100
3.49 --undefined-- 47.631
3.50 --undefined-- 48.600
3.51 --undefined-- 51.496
3.52 --undefined-- 57.296
3.53 244.298 63.560
3.54 245.934 68.388
3.55 250.574 71.328
3.56 254.601 72.515
3.57 256.533 72.415
3.58 257.436 71.494
3.59 257.704 70.133
3.60 256.671 68.805
3.61 253.649 67.795
3.62 247.549 67.199
3.63 239.060 67.332
3.64 228.262 68.449
3.65 219.118 70.086
3.66 209.855 71.300
3.67 202.037 71.561
3.68 193.593 70.516
3.69 190.097 67.478
3.70 189.433 62.033
3.71 198.416 56.031
3.72 198.711 51.889
3.73 --undefined-- 48.402
3.74 --undefined-- 46.922
3.75 --undefined-- 47.744
3.76 --undefined-- 48.995
3.77 --undefined-- 50.344
3.78 --undefined-- 54.666
3.79 --undefined-- 58.343
3.80 --undefined-- 60.024
3.81 --undefined-- 61.205
3.82 262.406 64.697
3.83 254.066 68.391
3.84 254.699 70.421
3.85 253.543 70.583
3.86 251.014 69.299
3.87 248.988 67.667
3.88 253.534 66.745
3.89 257.104 66.348
3.90 257.885 65.701
3.91 257.929 64.707
3.92 255.800 63.845
3.93 258.872 63.302
3.94 258.515 62.605
3.95 255.257 62.358
3.96 259.023 62.905
3.97 258.205 63.342
3.98 247.676 63.694
3.99 230.128 64.659
4.00 211.888 66.732
4.01 196.967 68.727
4.02 178.119 69.682
4.03 174.414 69.221
4.04 176.034 67.523
4.05 177.884 65.060
4.06 177.214 61.683
4.07 176.769 57.445
4.08 177.304 53.503
4.09 --undefined-- 50.296
4.10 --undefined-- 50.209
4.11 --undefined-- 50.517
4.12 --undefined-- 48.149
4.13 --undefined-- 45.070
4.14 --undefined-- 48.724
4.15 --undefined-- 54.296
4.16 --undefined-- 56.815
4.17 --undefined-- 56.363
4.18 --undefined-- 53.335
4.19 --undefined-- 49.064
4.20 --undefined-- 46.390
4.21 --undefined-- 46.671
4.22 --undefined-- 50.322
4.23 --undefined-- 57.940
4.24 252.524 63.972
4.25 249.196 67.865
4.26 244.436 70.480
4.27 239.013 72.097
4.28 236.421 72.866
4.29 235.690 73.117
4.30 235.984 73.139
4.31 237.025 72.890
4.32 239.527 71.982
4.33 243.009 70.442
4.34 246.076 68.987
4.35 249.065 67.887
4.36 250.017 67.098
4.37 249.778 66.403
4.38 248.897 65.887
4.39 247.683 65.591
4.40 245.479 65.349
4.41 241.505 65.124
4.42 237.781 65.100
4.43 233.453 65.405
4.44 228.470 65.799
4.45 223.028 65.977
4.46 216.329 66.150
4.47 206.816 66.815
4.48 198.572 68.039
4.49 194.326 69.163
4.50 189.390 69.699
4.51 185.576 69.612
4.52 181.731 69.256
4.53 176.506 69.047
4.54 169.817 68.949
4.55 163.859 68.252
4.56 155.722 66.132
4.57 149.800 62.407
4.58 --undefined-- 57.624
4.59 --undefined-- 54.642
4.60 --undefined-- 54.116
4.61 --undefined-- 52.573
4.62 --undefined-- 49.886
4.63 --undefined-- 50.121
4.64 --undefined-- 51.727
4.65 --undefined-- 51.897
4.66 --undefined-- 50.868
4.67 --undefined-- 50.126
4.68 --undefined-- 50.239
4.69 --undefined-- 49.783
4.70 --undefined-- 49.442
4.71 --undefined-- 49.700
4.72 --undefined-- 49.839
4.73 --undefined-- 49.193
4.74 --undefined-- 48.275
4.75 --undefined-- 47.727
4.76 --undefined-- 47.205
4.77 --undefined-- 47.663
4.78 --undefined-- 48.671
4.79 --undefined-- 49.112
4.80 --undefined-- 48.450
4.81 --undefined-- 47.264
4.82 --undefined-- 48.115
4.83 --undefined-- 51.721
4.84 --undefined-- 53.711
4.85 --undefined-- 52.603
4.86 --undefined-- 49.945
4.87 --undefined-- 53.455
4.88 --undefined-- 58.502
4.89 --undefined-- 61.809
4.90 165.543 65.739
4.91 165.946 69.232
4.92 168.003 71.113
4.93 171.009 71.895
4.94 174.199 72.194
4.95 175.873 72.395
4.96 176.378 72.480
4.97 176.477 72.363
4.98 175.528 72.530
4.99 175.052 73.215
5.00 175.575 --undefined--
5.01 175.995 --undefined--
5.02 --undefined-- --undefined--
5.03 --undefined-- --undefined--
