Time Pitch Intensity
0.01 --undefined-- --undefined--
0.02 283.208 --undefined--
0.03 281.545 --undefined--
0.04 278.596 --undefined--
0.05 274.325 68.683
0.06 266.957 67.957
0.07 255.295 66.304
0.08 243.142 62.749
0.09 --undefined-- 57.795
0.10 --undefined-- 60.808
0.11 --undefined-- 66.060
0.12 --undefined-- 69.791
0.13 202.871 72.393
0.14 201.233 73.272
0.15 191.400 72.550
0.16 177.728 70.699
0.17 168.008 68.003
0.18 161.976 64.347
0.19 --undefined-- 59.772
0.20 --undefined-- 54.674
0.21 --undefined-- 50.020
0.22 --undefined-- 47.226
0.23 --undefined-- 45.723
0.24 --undefined-- 43.550
0.25 --undefined-- 42.782
0.26 --undefined-- 46.507
0.27 --undefined-- 51.514
0.28 --undefined-- 58.047
0.29 178.305 63.167
0.30 168.165 65.933
0.31 158.454 67.318
0.32 150.845 68.322
0.33 140.709 69.121
0.34 126.583 69.820
0.35 120.832 70.191
0.36 120.662 70.106
0.37 123.329 69.680
0.38 124.565 68.307
0.39 --undefined-- 65.091
0.40 --undefined-- 59.802
0.41 --undefined-- 52.893
0.42 --undefined-- 48.091
0.43 --undefined-- 53.845
0.44 --undefined-- 60.725
0.45 --undefined-- 64.428
0.46 --undefined-- 65.083
0.47 --undefined-- 65.827
0.48 234.096 69.406
0.49 228.802 71.750
0.50 226.640 72.205
0.51 221.677 71.567
0.52 218.117 70.300
0.53 214.495 68.257
0.54 209.706 65.169
0.55 201.249 60.853
0.56 200.238 55.218
0.57 --undefined-- 49.368
0.58 --undefined-- 46.885
0.59 --undefined-- 46.910
0.60 --undefined-- 47.117
0.61 --undefined-- 47.093
0.62 --undefined-- 47.045
0.63 --undefined-- 46.986
0.64 --undefined-- 46.239
0.65 --undefined-- 46.786
0.66 --undefined-- 49.773
0.67 --undefined-- 53.786
0.68 --undefined-- 60.672
0.69 202.594 66.939
0.70 194.920 70.414
0.71 182.893 71.841
0.72 173.190 72.537
0.73 167.797 73.219
0.74 163.606 73.607
0.75 159.934 73.568
0.76 158.318 73.425
0.77 158.426 73.308
0.78 159.397 73.106
0.79 158.402 72.689
0.80 156.444 72.028
0.81 155.261 71.267
0.82 155.119 70.506
0.83 156.103 69.496
0.84 156.293 67.709
0.85 153.813 64.656
0.86 153.367 60.281
0.87 156.787 54.944
0.88 156.707 49.850
0.89 --undefined-- 51.458
0.90 --undefined-- 59.349
0.91 --undefined-- 64.111
0.92 --undefined-- 65.096
0.93 --undefined-- 64.518
0.94 193.245 66.715
0.95 188.708 68.979
0.96 180.426 69.930
0.97 169.951 70.610
0.98 158.590 71.716
0.99 151.462 72.696
1.00 145.041 72.977
1.01 143.892 72.583
1.02 143.508 71.698
1.03 142.354 70.370
1.04 137.985 68.623
1.05 --undefined-- 66.645
1.06 --undefined-- 64.480
1.07 --undefined-- 61.854
1.08 --undefined-- 58.056
1.09 --undefined-- 53.209
1.10 --undefined-- 49.130
1.11 --undefined-- 44.518
1.12 --undefined-- 39.912
1.13 --undefined-- 38.648
1.14 --undefined-- 38.319
1.15 --undefined-- 38.061
1.16 --undefined-- 38.802
1.17 --undefined-- 39.504
1.18 --undefined-- 40.240
1.19 --undefined-- 41.295
1.20 --undefined-- 42.927
1.21 --undefined-- 44.115
1.22 --undefined-- 44.518
1.23 --undefined-- 45.064
1.24 --undefined-- 45.980
1.25 --undefined-- 46.902
1.26 --undefined-- 47.111
1.27 --undefined-- 46.714
1.28 --undefined-- 46.888
1.29 --undefined-- 47.602
1.30 --undefined-- 48.084
1.31 --undefined-- 48.532
1.32 --undefined-- 48.635
1.33 --undefined-- 48.004
1.34 --undefined-- 47.374
1.35 --undefined-- 47.204
1.36 --undefined-- 47.049
1.37 --undefined-- 47.014
1.38 --undefined-- 46.816
1.39 --undefined-- 46.463
1.40 --undefined-- 45.731
1.41 --undefined-- 44.117
1.42 --undefined-- 43.133
1.43 --undefined-- 42.921
1.44 --undefined-- 42.312
1.45 --undefined-- 41.672
1.46 --undefined-- 41.825
1.47 --undefined-- 41.827
1.48 --undefined-- 46.883
1.49 --undefined-- 56.806
1.50 --undefined-- 65.146
1.51 199.871 70.421
1.52 203.104 72.991
1.53 207.243 73.647
1.54 212.005 73.502
1.55 217.397 73.128
1.56 223.144 72.255
1.57 228.514 70.706
1.58 234.009 69.392
1.59 244.460 69.676
1.60 247.993 70.620
1.61 249.857 71.160
1.62 250.770 71.349
1.63 250.417 71.370
1.64 248.848 71.255
1.65 246.083 70.890
1.66 241.530 70.064
1.67 233.939 68.452
1.68 228.173 65.443
1.69 234.451 60.420
1.70 246.500 53.991
1.71 246.341 49.890
1.72 --undefined-- 47.557
1.73 --undefined-- 46.053
1.74 --undefined-- 47.139
1.75 --undefined-- 50.619
1.76 --undefined-- 57.453
1.77 245.210 63.771
1.78 224.954 67.730
1.79 220.646 69.936
1.80 218.913 71.043
1.81 216.618 71.558
1.82 214.352 71.824
1.83 211.748 71.878
1.84 209.290 71.744
1.85 206.938 71.580
1.86 205.753 71.547
1.87 205.668 71.573
1.88 205.714 71.520
1.89 205.977 71.413
1.90 206.378 71.305
1.91 207.700 71.253
1.92 210.358 71.333
1.93 215.110 71.599
1.94 221.787 72.011
1.95 226.722 72.423
1.96 235.139 72.672
1.97 239.928 72.954
1.98 244.802 73.428
1.99 249.621 73.729
2.00 252.809 73.697
2.01 255.812 73.387
2.02 257.904 72.945
2.03 260.062 72.728
2.04 261.467 72.738
2.05 261.637 72.584
2.06 258.877 71.957
2.07 251.769 70.878
2.08 240.063 69.731
2.09 227.265 68.732
2.10 216.469 67.795
2.11 206.183 67.462
2.12 201.782 67.501
2.13 192.132 66.775
2.14 181.896 65.180
2.15 169.999 63.335
2.16 161.236 62.239
2.17 154.478 61.844
2.18 145.711 61.780
2.19 141.783 62.389
2.20 137.812 62.997
2.21 138.785 63.571
2.22 142.295 64.493
2.23 144.946 65.656
2.24 146.232 66.936
2.25 147.054 68.168
2.26 147.846 69.139
2.27 149.056 69.941
2.28 151.354 70.506
2.29 152.487 70.266
2.30 147.570 68.527
2.31 --undefined-- 64.931
2.32 --undefined-- 60.379
2.33 --undefined-- 56.255
2.34 --undefined-- 51.418
2.35 --undefined-- 47.036
2.36 --undefined-- 45.417
2.37 --undefined-- 48.888
2.38 --undefined-- 58.376
2.39 --undefined-- 64.453
2.40 --undefined-- 67.811
2.41 228.816 70.904
2.42 217.152 73.056
2.43 215.484 73.388
2.44 214.218 72.760
2.45 214.709 72.339
2.46 216.039 72.251
2.47 217.384 72.256
2.48 217.293 72.279
2.49 216.301 72.235
2.50 215.068 72.149
2.51 214.238 71.986
2.52 214.702 71.751
2.53 216.049 71.531
2.54 218.874 71.524
2.55 222.077 71.712
2.56 225.535 71.698
2.57 228.796 71.194
2.58 230.568 69.748
2.59 228.002 66.960
2.60 222.246 63.013
2.61 222.015 58.008
2.62 222.667 52.863
2.63 --undefined-- 52.566
2.64 --undefined-- 55.516
2.65 212.907 61.219
2.66 213.712 65.848
2.67 205.844 67.984
2.68 188.093 68.584
2.69 173.993 68.541
2.70 164.982 68.035
2.71 157.915 67.210
2.72 155.211 66.618
2.73 156.898 66.699
2.74 158.376 67.187
2.75 159.971 67.672
2.76 161.146 67.786
2.77 160.208 67.202
2.78 155.546 65.713
2.79 155.748 63.431
2.80 162.393 60.464
2.81 --undefined-- 55.885
2.82 --undefined-- 49.899
2.83 --undefined-- 49.560
2.84 --undefined-- 59.478
2.85 --undefined-- 67.482
2.86 229.505 71.611
2.87 231.127 72.754
2.88 235.909 72.414
2.89 240.447 72.181
2.90 245.030 72.460
2.91 246.993 72.757
2.92 248.287 72.484
2.93 250.012 71.422
2.94 251.332 69.932
2.95 252.120 68.537
2.96 255.102 67.716
2.97 258.835 67.600
2.98 260.165 67.782
2.99 260.642 67.871
3.00 261.396 67.712
3.01 261.259 67.347
3.02 260.946 66.821
3.03 261.126 66.123
3.04 261.475 65.255
3.05 265.204 64.038
3.06 264.342 61.784
3.07 262.588 57.652
3.08 --undefined-- 51.633
3.09 --undefined-- 46.812
3.10 --undefined-- 44.563
3.11 --undefined-- 42.301
3.12 --undefined-- 40.446
3.13 --undefined-- 40.094
3.14 --undefined-- 40.479
3.15 --undefined-- 43.341
3.16 --undefined-- 53.482
3.17 --undefined-- 61.645
3.18 156.472 66.715
3.19 153.506 69.684
3.20 148.975 71.184
3.21 145.766 71.652
3.22 144.921 71.615
3.23 145.641 71.570
3.24 148.123 71.601
3.25 148.384 70.924
3.26 145.429 68.483
3.27 --undefined-- 63.659
3.28 --undefined-- 57.089
3.29 --undefined-- 51.476
3.30 --undefined-- 53.359
3.31 --undefined-- 59.830
3.32 192.563 66.596
3.33 187.190 71.106
3.34 187.002 73.045
3.35 184.591 73.134
3.36 180.769 72.407
3.37 178.505 71.927
3.38 178.003 71.926
3.39 177.777 72.020
3.40 177.477 72.136
3.41 177.805 72.312
3.42 177.311 72.262
3.43 176.488 71.637
3.44 175.603 70.424
3.45 174.805 69.327
3.46 177.637 68.906
3.47 176.853 68.938
3.48 175.609 69.148
3.49 174.032 69.378
3.50 171.239 69.568
3.51 170.096 70.162
3.52 169.792 71.331
3.53 163.835 71.934
3.54 159.733 71.387
3.55 157.396 70.041
3.56 155.536 68.424
3.57 155.440 67.397
3.58 161.784 67.421
3.59 165.566 67.860
3.60 169.975 68.200
3.61 174.565 68.214
3.62 179.548 68.330
3.63 184.200 68.993
3.64 187.367 69.781
3.65 191.185 70.064
3.66 195.014 69.682
3.67 196.560 68.663
3.68 194.992 66.717
3.69 194.905 63.398
3.70 200.415 58.615
3.71 --undefined-- 58.311
3.72 --undefined-- 65.932
3.73 --undefined-- 70.810
3.74 204.941 72.480
3.75 193.805 71.806
3.76 180.617 69.775
3.77 170.087 67.518
3.78 167.771 66.730
3.79 168.198 67.813
3.80 168.803 69.725
3.81 170.568 71.576
3.82 171.410 72.659
3.83 169.845 72.875
3.84 168.762 72.593
3.85 168.836 72.063
3.86 168.933 71.420
3.87 169.088 70.775
3.88 167.842 69.954
3.89 162.837 68.660
3.90 159.340 67.407
3.91 164.853 68.456
3.92 167.942 71.065
3.93 172.407 72.626
3.94 165.009 72.617
3.95 156.227 71.524
3.96 148.835 69.681
3.97 137.930 67.460
3.98 144.848 65.583
3.99 146.144 64.379
4.00 125.576 63.628
4.01 132.504 63.423
4.02 134.638 63.842
4.03 135.748 64.424
4.04 138.496 64.888
4.05 140.982 65.219
4.06 140.202 65.456
4.07 142.152 65.451
4.08 142.146 64.708
4.09 139.735 62.621
4.10 --undefined-- 58.848
4.11 --undefined-- 53.781
4.12 --undefined-- 50.458
4.13 --undefined-- 51.676
4.14 --undefined-- 54.078
4.15 --undefined-- 56.124
4.16 --undefined-- 57.317
4.17 --undefined-- 59.799
4.18 183.509 64.471
4.19 181.012 67.670
4.20 170.794 68.936
4.21 160.331 69.157
4.22 152.385 68.847
4.23 145.490 68.059
4.24 142.274 67.000
4.25 141.014 66.154
4.26 144.063 66.106
4.27 144.850 66.488
4.28 146.143 66.846
4.29 146.372 67.157
4.30 146.968 67.400
4.31 149.114 67.611
4.32 152.182 67.955
4.33 153.995 68.401
4.34 156.367 68.740
4.35 157.007 68.829
4.36 156.177 68.473
4.37 154.674 67.489
4.38 153.647 65.901
4.39 155.046 63.605
4.40 156.157 60.257
4.41 157.077 55.744
4.42 --undefined-- 51.834
4.43 --undefined-- 50.539
4.44 --undefined-- 50.333
4.45 --undefined-- 57.100
4.46 --undefined-- 66.093
4.47 211.719 71.227
4.48 209.656 73.250
4.49 206.198 73.503
4.50 202.922 73.396
4.51 200.628 73.457
4.52 198.412 73.447
4.53 196.345 72.998
4.54 194.737 71.934
4.55 193.113 70.387
4.56 191.114 68.338
4.57 189.403 65.995
4.58 189.235 64.082
4.59 191.565 63.442
4.60 192.888 63.698
4.61 194.606 64.173
4.62 198.399 64.820
4.63 204.817 65.905
4.64 211.589 67.109
4.65 210.949 67.887
4.66 208.367 68.454
4.67 196.365 69.201
4.68 183.821 70.034
4.69 174.664 70.690
4.70 168.117 71.155
4.71 162.171 71.248
4.72 158.211 70.813
4.73 158.479 70.361
4.74 159.219 70.275
4.75 159.560 69.918
4.76 155.826 69.022
4.77 158.002 68.171
4.78 159.743 67.878
4.79 160.435 68.080
4.80 161.494 68.381
4.81 161.694 68.655
4.82 161.753 68.782
4.83 160.943 68.841
4.84 161.190 69.506
4.85 160.035 70.869
4.86 159.472 71.768
4.87 159.237 71.810
4.88 159.050 71.467
4.89 160.362 71.226
4.90 161.956 71.066
4.91 162.464 70.331
4.92 160.722 68.489
4.93 156.573 65.469
4.94 157.063 61.724
4.95 158.093 57.240
4.96 158.160 52.637
4.97 --undefined-- 49.983
4.98 --undefined-- 49.405
4.99 --undefined-- 50.209
5.00 --undefined-- 52.253
5.01 --undefined-- 60.445
5.02 257.101 68.162
5.03 248.869 72.267
5.04 244.008 73.545
5.05 241.136 73.311
5.06 239.321 72.878
5.07 238.440 72.669
5.08 237.177 72.367
5.09 235.239 72.024
5.10 234.146 71.875
5.11 234.363 71.707
5.12 233.988 71.308
5.13 233.594 70.697
5.14 233.788 --undefined--
5.15 233.103 --undefined--
5.16 --undefined-- --undefined--
5.17 --undefined-- --undefined--
