Time Pitch Intensity
0.01 --undefined-- --undefined--
0.02 --undefined-- --undefined--
0.03 --undefined-- --undefined--
0.04 185.728 --undefined--
0.05 170.573 80.543
0.06 168.958 82.018
0.07 168.671 82.409
0.08 169.325 82.262
0.09 169.892 82.184
0.10 170.621 82.175
0.11 172.520 81.724
0.12 177.715 80.523
0.13 178.295 78.716
0.14 168.647 76.500
0.15 171.327 73.489
0.16 162.213 69.955
0.17 --undefined-- 67.895
0.18 262.280 68.071
0.19 257.725 70.390
0.20 243.187 73.317
0.21 249.222 74.409
0.22 151.756 74.299
0.23 147.973 74.682
0.24 143.848 75.287
0.25 139.646 75.502
0.26 135.539 75.387
0.27 131.359 75.183
0.28 126.524 75.055
0.29 123.051 74.928
0.30 121.440 74.697
0.31 118.846 74.456
0.32 116.362 74.414
0.33 114.344 74.673
0.34 111.940 75.169
0.35 109.221 75.661
0.36 107.572 75.833
0.37 105.799 75.608
0.38 105.137 75.144
0.39 105.340 74.700
0.40 104.449 74.173
0.41 103.992 73.332
0.42 104.066 72.409
0.43 108.312 72.127
0.44 111.159 73.061
0.45 114.820 75.102
0.46 118.453 77.240
0.47 121.266 78.918
0.48 124.470 80.105
0.49 127.103 80.983
0.50 130.050 81.693
0.51 133.526 82.116
0.52 138.750 82.113
0.53 144.390 82.091
0.54 150.769 82.474
0.55 155.375 82.861
0.56 159.090 82.601
0.57 161.046 81.098
0.58 159.627 77.947
0.59 156.727 73.430
0.60 156.515 68.324
0.61 155.584 62.302
0.62 --undefined-- 55.309
0.63 --undefined-- 50.642
0.64 --undefined-- 51.989
0.65 --undefined-- 60.443
0.66 --undefined-- 70.531
0.67 214.775 76.968
0.68 186.690 80.272
0.69 178.169 81.670
0.70 162.045 82.016
0.71 153.911 82.117
0.72 152.896 82.345
0.73 152.914 82.505
0.74 153.389 82.529
0.75 154.069 82.402
0.76 154.583 82.140
0.77 155.571 81.771
0.78 156.458 81.174
0.79 157.234 80.377
0.80 158.731 79.693
0.81 158.784 79.166
0.82 158.892 78.730
0.83 158.863 78.410
0.84 157.429 78.125
0.85 154.513 77.813
0.86 150.504 77.792
0.87 150.359 78.667
0.88 151.219 79.938
0.89 150.398 80.798
0.90 148.658 81.190
0.91 147.872 81.364
0.92 147.548 81.441
0.93 146.717 81.445
0.94 145.925 81.390
0.95 145.307 81.194
0.96 143.683 80.922
0.97 143.272 80.845
0.98 143.365 80.950
0.99 144.101 81.008
1.00 144.996 81.029
1.01 145.542 81.131
1.02 145.604 81.332
1.03 145.724 81.617
1.04 146.442 81.922
1.05 146.868 82.148
1.06 147.586 82.309
1.07 148.424 82.412
1.08 148.879 82.399
1.09 149.384 82.173
1.10 149.820 81.473
1.11 149.103 80.165
1.12 148.147 78.576
1.13 147.740 76.977
1.14 139.400 75.332
1.15 129.338 72.844
1.16 113.079 68.515
1.17 104.979 62.384
1.18 --undefined-- 55.540
1.19 --undefined-- 51.338
1.20 --undefined-- 52.057
1.21 --undefined-- 53.992
1.22 --undefined-- 59.776
1.23 --undefined-- 66.851
1.24 128.371 71.562
1.25 128.297 74.436
1.26 120.661 76.375
1.27 118.448 77.542
1.28 120.408 78.285
1.29 121.611 78.964
1.30 124.900 79.536
1.31 132.346 79.932
1.32 139.047 80.389
1.33 146.923 81.039
1.34 156.662 82.072
1.35 163.021 83.031
1.36 169.559 82.889
1.37 177.399 81.066
1.38 189.238 77.888
1.39 190.842 74.908
1.40 274.715 73.161
1.41 280.488 70.583
1.42 --undefined-- 65.036
1.43 --undefined-- 56.997
1.44 --undefined-- 52.929
1.45 --undefined-- 50.931
1.46 --undefined-- 55.369
1.47 235.738 64.156
1.48 240.487 69.881
1.49 --undefined-- 72.758
1.50 146.376 74.151
1.51 143.869 75.106
1.52 141.721 75.749
1.53 139.207 76.042
1.54 138.150 76.198
1.55 137.083 76.402
1.56 136.077 76.590
1.57 136.284 76.675
1.58 137.193 76.748
1.59 139.142 76.928
1.60 141.422 77.122
1.61 143.178 77.272
1.62 143.410 77.386
1.63 141.611 77.373
1.64 138.127 77.220
1.65 135.653 77.181
1.66 135.833 77.979
1.67 135.195 79.556
1.68 130.882 80.722
1.69 130.899 81.034
1.70 130.840 80.580
1.71 130.310 79.129
1.72 120.433 76.159
1.73 --undefined-- 71.531
1.74 --undefined-- 65.681
1.75 --undefined-- 58.010
1.76 --undefined-- 48.901
1.77 --undefined-- 46.270
1.78 --undefined-- 50.939
1.79 --undefined-- 57.585
1.80 --undefined-- 61.766
1.81 --undefined-- 65.146
1.82 --undefined-- 71.673
1.83 234.156 77.131
1.84 230.623 80.151
1.85 220.923 81.494
1.86 205.722 81.374
1.87 198.524 79.712
1.88 196.407 77.242
1.89 198.232 76.138
1.90 201.563 76.229
1.91 200.703 76.074
1.92 198.565 75.729
1.93 196.571 75.618
1.94 194.575 75.555
1.95 190.362 74.760
1.96 181.396 72.656
1.97 163.617 68.979
1.98 144.251 63.937
1.99 --undefined-- 61.445
2.00 --undefined-- 63.685
2.01 --undefined-- 68.073
2.02 --undefined-- 73.219
2.03 --undefined-- 75.902
2.04 114.198 76.100
2.05 101.174 74.913
2.06 97.554 73.378
2.07 96.771 72.086
2.08 96.561 71.363
2.09 100.097 71.075
2.10 99.174 70.798
2.11 104.559 70.559
2.12 102.722 69.893
2.13 106.148 68.502
2.14 102.971 66.080
2.15 99.769 62.494
2.16 99.878 59.446
2.17 --undefined-- 59.462
2.18 --undefined-- 65.718
2.19 152.107 71.489
2.20 132.585 74.813
2.21 121.022 76.584
2.22 118.649 77.483
2.23 117.990 77.903
2.24 118.632 78.189
2.25 120.303 78.295
2.26 121.981 78.122
2.27 125.823 77.830
2.28 129.053 77.270
2.29 129.560 75.502
2.30 124.736 71.483
2.31 122.448 64.670
2.32 --undefined-- 55.436
2.33 --undefined-- 47.751
2.34 --undefined-- 50.507
2.35 --undefined-- 57.929
2.36 --undefined-- 62.315
2.37 --undefined-- 63.112
2.38 --undefined-- 62.380
2.39 --undefined-- 69.453
2.40 184.359 76.262
2.41 181.815 79.912
2.42 177.852 81.166
2.43 177.077 81.022
2.44 177.740 80.834
2.45 177.497 81.931
2.46 175.705 83.520
2.47 174.237 83.989
2.48 174.266 82.747
2.49 176.391 79.785
2.50 171.430 75.410
2.51 157.048 70.628
2.52 157.905 67.085
2.53 158.626 64.517
2.54 --undefined-- 63.253
2.55 --undefined-- 67.277
2.56 218.203 72.084
2.57 201.436 74.458
2.58 194.161 74.801
2.59 190.053 73.966
2.60 182.048 72.018
2.61 160.770 68.968
2.62 146.143 66.182
2.63 139.605 64.270
2.64 133.504 63.211
2.65 146.836 66.036
2.66 183.109 71.570
2.67 171.237 75.607
2.68 153.766 77.739
2.69 148.777 78.307
2.70 128.470 78.029
2.71 126.925 77.838
2.72 124.103 77.504
2.73 122.222 76.959
2.74 121.022 76.660
2.75 119.289 76.603
2.76 118.592 76.567
2.77 117.301 76.303
2.78 115.823 75.739
2.79 114.335 74.834
2.80 112.882 72.953
2.81 107.357 69.158
2.82 105.914 63.086
2.83 --undefined-- 55.478
2.84 --undefined-- 52.397
2.85 --undefined-- 59.188
2.86 --undefined-- 64.783
2.87 --undefined-- 66.898
2.88 --undefined-- 65.718
2.89 --undefined-- 63.396
2.90 124.892 66.344
2.91 125.508 70.316
2.92 118.553 72.535
2.93 106.970 73.628
2.94 103.969 74.055
2.95 100.122 74.011
2.96 98.901 73.613
2.97 99.463 72.961
2.98 99.598 72.395
2.99 100.820 71.627
3.00 99.618 69.785
3.01 99.177 66.915
3.02 106.277 63.754
3.03 111.389 60.241
3.04 --undefined-- 57.043
3.05 --undefined-- 59.086
3.06 142.381 65.988
3.07 153.891 72.027
3.08 141.311 75.588
3.09 127.795 77.039
3.10 120.146 77.021
3.11 116.503 76.461
3.12 117.314 76.309
3.13 118.358 76.623
3.14 118.306 76.999
3.15 118.301 77.238
3.16 118.310 77.351
3.17 117.846 77.408
3.18 117.508 77.416
3.19 117.831 77.382
3.20 118.733 77.291
3.21 119.640 77.150
3.22 120.784 76.972
3.23 120.971 76.572
3.24 120.323 75.632
3.25 119.565 74.105
3.26 119.500 72.871
3.27 117.944 72.556
3.28 117.910 72.377
3.29 118.495 72.188
3.30 119.612 72.551
3.31 120.581 73.640
3.32 120.753 75.060
3.33 118.864 76.445
3.34 116.668 77.517
3.35 113.832 78.157
3.36 111.967 78.476
3.37 110.911 78.639
3.38 110.405 78.750
3.39 110.273 78.796
3.40 110.404 78.719
3.41 110.759 78.450
3.42 111.103 77.809
3.43 111.237 76.606
3.44 109.899 74.733
3.45 108.625 72.133
3.46 109.226 68.989
3.47 --undefined-- 66.197
3.48 --undefined-- 64.227
3.49 --undefined-- 63.346
3.50 --undefined-- 63.393
3.51 --undefined-- 63.328
3.52 --undefined-- 63.424
3.53 --undefined-- 63.129
3.54 --undefined-- 64.067
3.55 --undefined-- 69.446
3.56 159.216 73.622
3.57 142.711 75.832
3.58 129.548 77.027
3.59 119.741 77.378
3.60 117.489 77.023
3.61 116.239 76.437
3.62 114.734 75.979
3.63 114.489 75.735
3.64 113.656 75.659
3.65 113.795 75.679
3.66 113.757 75.785
3.67 114.053 75.964
3.68 114.977 76.089
3.69 115.586 76.127
3.70 116.099 76.084
3.71 115.827 75.958
3.72 115.934 75.834
3.73 116.287 75.753
3.74 117.643 75.780
3.75 118.039 75.942
3.76 116.866 76.064
3.77 115.035 75.878
3.78 112.618 75.464
3.79 111.922 75.294
3.80 112.201 75.536
3.81 112.199 75.900
3.82 112.417 76.158
3.83 112.216 76.300
3.84 111.300 76.369
3.85 110.803 76.363
3.86 110.311 76.270
3.87 109.796 76.093
3.88 108.610 75.821
3.89 108.205 75.713
3.90 109.500 75.922
3.91 111.748 76.166
3.92 112.830 76.356
3.93 113.473 76.478
3.94 113.629 76.479
3.95 113.697 76.313
3.96 113.839 75.787
3.97 113.666 74.669
3.98 112.251 72.917
3.99 109.989 70.805
4.00 107.781 68.721
4.01 112.563 67.181
4.02 119.014 68.676
4.03 130.915 73.039
4.04 126.957 75.932
4.05 121.112 77.000
4.06 116.193 76.889
4.07 114.836 75.677
4.08 109.406 72.921
4.09 103.126 68.572
4.10 107.821 63.433
4.11 --undefined-- 59.870
4.12 209.703 62.892
4.13 201.489 66.962
4.14 --undefined-- 69.085
4.15 121.178 70.021
4.16 121.981 70.018
4.17 126.112 69.061
4.18 120.980 68.358
4.19 118.040 68.577
4.20 109.471 69.005
4.21 105.621 69.363
4.22 102.383 69.601
4.23 98.989 69.658
4.24 96.082 69.528
4.25 94.232 69.328
4.26 89.422 69.349
4.27 87.694 69.412
4.28 85.582 69.204
4.29 85.132 69.015
4.30 84.605 68.966
4.31 83.669 68.511
4.32 87.776 67.472
4.33 89.120 66.550
4.34 90.725 66.428
4.35 93.977 66.737
4.36 95.466 66.852
4.37 98.828 65.996
4.38 103.826 63.555
4.39 100.631 59.403
4.40 --undefined-- 55.033
4.41 --undefined-- 53.261
4.42 --undefined-- 57.113
4.43 --undefined-- 65.498
4.44 164.190 72.094
4.45 149.479 75.976
4.46 142.151 78.032
4.47 137.126 79.126
4.48 134.399 79.675
4.49 132.903 79.873
4.50 131.257 79.822
4.51 129.182 79.408
4.52 124.862 78.451
4.53 119.720 76.820
4.54 113.741 74.522
4.55 110.451 72.797
4.56 135.467 73.867
4.57 131.600 75.835
4.58 119.665 76.956
4.59 111.512 77.067
4.60 109.885 76.260
4.61 106.871 74.380
4.62 102.453 71.006
4.63 105.600 66.518
4.64 110.000 62.869
4.65 101.062 64.045
4.66 97.999 66.843
4.67 --undefined-- 69.808
4.68 130.948 73.743
4.69 112.344 76.248
4.70 110.258 77.199
4.71 106.972 77.706
4.72 105.237 78.093
4.73 103.992 78.058
4.74 102.487 77.520
4.75 102.794 76.627
4.76 103.781 75.581
4.77 104.701 74.457
4.78 105.795 73.309
4.79 106.091 71.732
4.80 107.314 68.953
4.81 --undefined-- 64.680
4.82 --undefined-- 61.444
4.83 --undefined-- 60.971
4.84 --undefined-- 60.828
4.85 --undefined-- 63.934
4.86 --undefined-- 69.965
4.87 --undefined-- 73.432
4.88 106.326 74.676
4.89 105.043 75.198
4.90 102.079 75.756
4.91 100.560 76.066
4.92 101.377 75.852
4.93 103.975 75.467
4.94 105.881 75.206
4.95 108.680 --undefined--
4.96 109.328 --undefined--
4.97 --undefined-- --undefined--
4.98 --undefined-- --undefined--
