Time Pitch Intensity
0.01 --undefined-- --undefined--
0.02 153.354 --undefined--
0.03 152.118 --undefined--
0.04 151.164 --undefined--
0.05 147.694 74.874
0.06 139.212 72.838
0.07 128.588 70.291
0.08 128.247 68.997
0.09 134.239 69.741
0.10 137.632 71.381
0.11 140.318 73.275
0.12 143.109 74.648
0.13 145.891 74.959
0.14 148.560 74.423
0.15 150.310 73.791
0.16 151.900 73.501
0.17 153.813 73.445
0.18 155.842 73.100
0.19 154.387 71.550
0.20 149.685 68.608
0.21 150.138 66.829
0.22 159.990 69.775
0.23 164.937 73.511
0.24 166.571 75.803
0.25 165.620 76.925
0.26 164.277 77.060
0.27 164.086 76.316
0.28 163.952 75.005
0.29 160.898 73.573
0.30 156.776 72.582
0.31 154.338 72.441
0.32 153.680 73.120
0.33 153.465 74.409
0.34 152.194 75.798
0.35 150.673 76.561
0.36 149.996 76.228
0.37 147.621 74.637
0.38 139.299 71.873
0.39 128.967 68.084
0.40 121.307 63.219
0.41 117.235 57.250
0.42 --undefined-- 51.144
0.43 --undefined-- 49.200
0.44 --undefined-- 56.819
0.45 205.523 64.929
0.46 190.301 69.596
0.47 167.583 71.639
0.48 156.142 72.166
0.49 154.747 71.964
0.50 152.460 71.322
0.51 150.465 70.193
0.52 145.572 68.398
0.53 139.304 65.955
0.54 135.883 63.624
0.55 140.937 63.741
0.56 152.981 66.994
0.57 159.294 70.249
0.58 159.550 72.144
0.59 158.398 72.678
0.60 156.334 72.104
0.61 152.114 70.446
0.62 141.438 67.672
0.63 137.599 64.020
0.64 138.565 60.541
0.65 138.175 58.955
0.66 139.327 58.479
0.67 139.694 58.692
0.68 132.373 59.891
0.69 134.532 62.079
0.70 136.374 65.242
0.71 139.709 69.084
0.72 144.770 72.119
0.73 145.478 73.403
0.74 137.769 73.049
0.75 132.218 72.076
0.76 128.919 71.272
0.77 127.112 70.713
0.78 124.646 70.247
0.79 122.083 69.535
0.80 120.011 68.511
0.81 120.907 67.873
0.82 123.117 68.408
0.83 124.024 69.421
0.84 122.192 70.018
0.85 120.153 70.469
0.86 118.235 71.074
0.87 116.970 71.447
0.88 116.182 71.414
0.89 116.448 71.080
0.90 117.180 70.510
0.91 118.580 69.657
0.92 118.612 68.230
0.93 116.404 65.422
0.94 113.510 60.964
0.95 121.170 55.991
0.96 --undefined-- 51.682
0.97 --undefined-- 49.590
0.98 --undefined-- 55.160
0.99 171.062 62.458
1.00 152.347 67.215
1.01 142.414 69.557
1.02 126.389 70.092
1.03 124.516 69.861
1.04 123.946 69.561
1.05 122.618 69.333
1.06 121.242 69.283
1.07 120.170 69.299
1.08 119.139 69.220
1.09 118.347 68.969
1.10 117.854 68.441
1.11 116.934 67.652
1.12 116.418 67.039
1.13 117.493 67.156
1.14 117.891 68.010
1.15 118.662 68.910
1.16 117.593 69.133
1.17 115.776 68.917
1.18 115.392 68.898
1.19 114.721 68.821
1.20 114.254 68.447
1.21 113.551 67.929
1.22 112.311 67.207
1.23 111.437 65.941
1.24 109.973 63.741
1.25 108.747 61.215
1.26 111.497 59.848
1.27 113.344 59.680
1.28 114.213 60.539
1.29 111.593 61.598
1.30 111.777 61.947
1.31 112.507 62.221
1.32 111.854 63.331
1.33 111.597 64.520
1.34 111.944 65.201
1.35 110.966 65.415
1.36 111.233 65.712
1.37 112.016 66.283
1.38 112.721 66.645
1.39 114.677 66.629
1.40 117.148 66.549
1.41 120.245 66.678
1.42 123.559 66.956
1.43 124.878 67.236
1.44 126.534 67.503
1.45 127.882 67.651
1.46 128.301 67.386
1.47 128.326 66.275
1.48 122.997 63.945
1.49 118.769 60.763
1.50 116.888 58.144
1.51 116.829 56.636
1.52 121.106 56.911
1.53 152.600 60.982
1.54 154.858 65.655
1.55 145.762 68.269
1.56 130.944 68.829
1.57 123.629 68.305
1.58 121.043 67.649
1.59 119.957 67.355
1.60 119.844 67.341
1.61 119.542 67.253
1.62 119.511 66.810
1.63 120.056 65.939
1.64 120.191 64.745
1.65 119.920 63.430
1.66 120.063 62.391
1.67 120.304 61.907
1.68 120.571 62.084
1.69 120.814 62.831
1.70 121.004 63.689
1.71 120.543 64.130
1.72 119.703 64.234
1.73 119.015 64.414
1.74 118.533 64.604
1.75 118.966 64.690
1.76 119.805 64.670
1.77 119.940 64.387
1.78 121.208 63.854
1.79 122.581 63.133
1.80 123.155 62.213
1.81 122.707 60.885
1.82 120.348 58.927
1.83 118.826 56.294
1.84 115.622 53.209
1.85 --undefined-- 49.887
1.86 --undefined-- 46.987
1.87 --undefined-- 48.258
1.88 --undefined-- 53.559
1.89 --undefined-- 59.815
1.90 150.287 64.173
1.91 145.122 66.358
1.92 140.206 67.375
1.93 138.028 68.062
1.94 135.961 68.389
1.95 133.704 68.489
1.96 131.484 68.538
1.97 123.697 68.358
1.98 122.383 68.152
1.99 113.726 67.915
2.00 110.202 67.126
2.01 104.498 66.144
2.02 102.040 65.564
2.03 100.553 65.057
2.04 99.689 64.482
2.05 98.749 63.937
2.06 98.110 63.175
2.07 97.849 62.186
2.08 98.656 61.280
2.09 100.578 60.519
2.10 101.627 59.760
2.11 103.143 58.929
2.12 103.887 57.637
2.13 100.731 55.139
2.14 --undefined-- 51.369
2.15 --undefined-- 47.639
2.16 --undefined-- 44.428
2.17 --undefined-- 45.815
2.18 --undefined-- 53.084
2.19 --undefined-- 58.444
2.20 --undefined-- 61.634
2.21 115.461 63.615
2.22 114.535 64.654
2.23 111.630 64.866
2.24 110.127 64.758
2.25 109.415 64.822
2.26 108.497 65.058
2.27 108.219 65.241
2.28 108.067 65.319
2.29 107.847 65.242
2.30 107.907 64.969
2.31 107.368 64.435
2.32 106.822 63.570
2.33 106.276 62.451
2.34 106.275 61.381
2.35 106.967 60.551
2.36 108.045 59.981
2.37 109.222 59.852
2.38 110.062 59.947
2.39 110.843 60.022
2.40 112.166 60.056
2.41 112.534 60.015
2.42 112.776 60.075
2.43 111.916 60.086
2.44 111.494 59.884
2.45 111.408 59.731
2.46 111.947 59.817
2.47 112.580 59.953
2.48 113.600 60.227
2.49 114.346 60.869
2.50 114.299 61.528
2.51 114.005 61.799
2.52 113.734 61.704
2.53 114.344 61.635
2.54 115.336 61.727
2.55 116.301 61.806
2.56 114.872 61.815
2.57 116.685 61.484
2.58 118.679 60.854
2.59 118.872 60.306
2.60 118.275 59.784
2.61 116.276 59.043
2.62 114.600 58.302
2.63 112.322 58.164
2.64 112.205 58.691
2.65 112.991 59.380
2.66 113.905 59.703
2.67 110.261 58.919
2.68 107.133 56.844
2.69 111.161 54.418
2.70 113.576 52.682
2.71 --undefined-- 51.213
2.72 --undefined-- 49.426
2.73 --undefined-- 48.469
2.74 --undefined-- 51.426
2.75 171.525 58.009
2.76 167.964 63.165
2.77 142.390 66.078
2.78 137.573 67.527
2.79 136.031 68.288
2.80 136.137 68.675
2.81 136.553 68.904
2.82 136.510 69.113
2.83 135.941 69.030
2.84 134.760 68.011
2.85 131.718 65.778
2.86 129.024 63.579
2.87 128.533 63.575
2.88 130.013 65.203
2.89 131.159 66.943
2.90 129.949 68.060
2.91 127.652 68.573
2.92 124.256 68.593
2.93 119.956 68.292
2.94 117.475 68.009
2.95 115.134 67.671
2.96 110.720 67.169
2.97 109.406 66.690
2.98 106.928 66.412
2.99 106.289 66.312
3.00 104.354 66.161
3.01 103.177 65.877
3.02 103.222 65.629
3.03 103.972 65.594
3.04 105.003 65.861
3.05 105.565 66.353
3.06 107.625 66.796
3.07 108.424 67.093
3.08 110.495 67.277
3.09 112.308 66.939
3.10 112.756 65.615
3.11 111.112 63.436
3.12 114.100 60.684
3.13 117.762 57.858
3.14 118.505 55.743
3.15 --undefined-- 55.055
3.16 --undefined-- 54.826
3.17 --undefined-- 53.850
3.18 --undefined-- 53.272
3.19 --undefined-- 53.529
3.20 --undefined-- 52.678
3.21 --undefined-- 49.879
3.22 --undefined-- 45.299
3.23 --undefined-- 40.858
3.24 --undefined-- 42.857
3.25 --undefined-- 54.961
3.26 --undefined-- 64.669
3.27 --undefined-- 70.559
3.28 161.459 73.458
3.29 143.338 74.346
3.30 140.706 74.142
3.31 139.045 73.267
3.32 136.239 71.781
3.33 138.176 70.569
3.34 138.853 70.411
3.35 137.491 70.394
3.36 135.588 69.989
3.37 134.357 69.297
3.38 133.211 68.423
3.39 129.403 67.219
3.40 123.395 65.626
3.41 118.097 63.976
3.42 113.472 63.060
3.43 110.174 64.717
3.44 115.390 67.814
3.45 113.012 69.537
3.46 107.689 69.617
3.47 103.717 68.812
3.48 102.903 68.132
3.49 105.293 68.475
3.50 108.419 70.028
3.51 111.773 71.934
3.52 114.370 73.192
3.53 115.383 73.456
3.54 115.683 73.132
3.55 115.921 72.970
3.56 114.969 73.109
3.57 113.832 73.084
3.58 114.098 72.490
3.59 116.887 71.325
3.60 118.904 69.579
3.61 117.530 66.956
3.62 116.635 63.823
3.63 114.717 61.376
3.64 111.754 60.058
3.65 108.529 59.529
3.66 106.485 59.726
3.67 105.890 60.913
3.68 105.396 62.850
3.69 104.579 64.793
3.70 104.718 66.300
3.71 105.123 67.136
3.72 103.603 67.215
3.73 100.213 66.570
3.74 97.026 65.219
3.75 94.166 63.315
3.76 91.963 61.583
3.77 92.686 61.023
3.78 98.808 61.569
3.79 99.723 62.422
3.80 100.308 63.053
3.81 101.913 63.346
3.82 102.099 63.201
3.83 102.569 62.423
3.84 100.861 60.662
3.85 102.121 57.401
3.86 --undefined-- 52.871
3.87 --undefined-- 52.737
3.88 --undefined-- 59.356
3.89 --undefined-- 65.626
3.90 --undefined-- 69.292
3.91 113.923 70.747
3.92 114.860 71.127
3.93 112.855 71.067
3.94 112.011 70.652
3.95 109.656 70.183
3.96 109.658 69.746
3.97 109.659 69.103
3.98 109.365 67.696
3.99 105.860 65.357
4.00 108.985 63.807
4.01 112.264 64.107
4.02 117.674 66.305
4.03 121.748 69.018
4.04 122.143 70.501
4.05 121.670 70.754
4.06 120.974 70.187
4.07 118.785 68.859
4.08 113.530 66.736
4.09 111.544 63.904
4.10 112.365 59.931
4.11 --undefined-- 53.962
4.12 --undefined-- 46.829
4.13 --undefined-- 43.448
4.14 --undefined-- 43.027
4.15 --undefined-- 51.000
4.16 --undefined-- 61.577
4.17 --undefined-- 67.967
4.18 --undefined-- 71.175
4.19 130.337 72.217
4.20 130.001 72.263
4.21 129.672 71.771
4.22 129.979 70.750
4.23 129.767 69.134
4.24 129.709 67.379
4.25 131.083 66.616
4.26 130.522 66.560
4.27 128.695 66.446
4.28 125.739 66.185
4.29 123.089 65.907
4.30 120.749 65.865
4.31 118.766 66.523
4.32 113.889 67.647
4.33 112.558 68.467
4.34 107.463 68.713
4.35 102.909 68.465
4.36 102.618 68.059
4.37 101.460 67.697
4.38 100.867 66.918
4.39 99.907 65.067
4.40 98.964 62.177
4.41 99.408 59.077
4.42 101.869 56.866
4.43 106.036 55.409
4.44 --undefined-- 55.200
4.45 --undefined-- 60.203
4.46 --undefined-- 65.116
4.47 124.010 67.573
4.48 115.541 68.312
4.49 109.158 68.187
4.50 107.600 67.638
4.51 103.900 66.926
4.52 103.324 66.165
4.53 102.788 65.619
4.54 99.660 65.462
4.55 99.864 65.888
4.56 103.729 66.844
4.57 103.347 67.343
4.58 103.212 67.135
4.59 103.803 66.981
4.60 102.607 67.024
4.61 102.987 67.017
4.62 104.085 67.216
4.63 105.762 67.677
4.64 109.609 67.998
4.65 112.241 67.542
4.66 111.657 65.547
4.67 113.721 62.201
4.68 117.183 59.580
4.69 116.300 59.975
4.70 121.395 62.781
4.71 121.771 65.262
4.72 115.101 66.526
4.73 112.536 66.984
4.74 110.352 66.748
4.75 109.890 65.259
4.76 106.052 61.941
4.77 103.828 57.431
4.78 108.688 54.622
4.79 114.363 54.088
4.80 121.448 54.674
4.81 123.801 56.164
4.82 127.242 58.692
4.83 125.847 61.647
4.84 125.037 64.276
4.85 122.117 66.138
4.86 114.389 66.881
4.87 108.110 66.818
4.88 106.106 66.373
4.89 104.514 65.776
4.90 102.331 65.116
4.91 100.717 64.256
4.92 101.063 63.382
4.93 102.661 62.898
4.94 103.988 --undefined--
4.95 104.650 --undefined--
4.96 --undefined-- --undefined--
4.97 --undefined-- --undefined--
