Time Pitch Intensity
0.01 --undefined-- --undefined--
0.02 --undefined-- --undefined--
0.03 --undefined-- --undefined--
0.04 --undefined-- --undefined--
0.05 --undefined-- 39.748
0.06 --undefined-- 39.950
0.07 --undefined-- 39.247
0.08 --undefined-- 38.802
0.09 --undefined-- 38.114
0.10 --undefined-- 38.722
0.11 --undefined-- 39.792
0.12 --undefined-- 38.691
0.13 --undefined-- 37.758
0.14 --undefined-- 38.471
0.15 --undefined-- 40.433
0.16 --undefined-- 47.762
0.17 --undefined-- 53.573
0.18 --undefined-- 55.874
0.19 --undefined-- 55.848
0.20 --undefined-- 54.485
0.21 --undefined-- 52.591
0.22 --undefined-- 58.691
0.23 --undefined-- 67.611
0.24 229.092 72.702
0.25 226.636 74.464
0.26 227.773 74.047
0.27 230.333 72.882
0.28 230.098 72.046
0.29 226.495 71.907
0.30 225.107 72.419
0.31 222.051 72.922
0.32 217.089 73.213
0.33 211.021 73.617
0.34 202.618 74.484
0.35 190.655 76.058
0.36 175.824 77.940
0.37 165.324 79.017
0.38 156.080 78.747
0.39 143.226 77.862
0.40 132.831 77.149
0.41 126.877 76.137
0.42 120.485 74.196
0.43 112.690 71.507
0.44 112.534 69.191
0.45 111.932 67.888
0.46 112.387 67.902
0.47 117.351 69.645
0.48 119.943 71.531
0.49 117.555 72.412
0.50 114.960 72.612
0.51 111.394 72.643
0.52 118.693 73.385
0.53 131.326 74.810
0.54 137.953 75.946
0.55 144.203 76.476
0.56 148.982 76.626
0.57 148.918 76.951
0.58 148.115 77.708
0.59 148.273 78.389
0.60 148.922 78.408
0.61 148.556 77.843
0.62 147.990 77.309
0.63 148.290 77.280
0.64 148.790 77.536
0.65 150.742 77.398
0.66 150.683 76.794
0.67 149.849 76.283
0.68 148.815 76.121
0.69 148.546 76.064
0.70 148.472 75.882
0.71 148.203 75.558
0.72 148.243 75.061
0.73 147.916 74.294
0.74 147.308 73.265
0.75 146.911 71.825
0.76 143.078 69.797
0.77 155.669 67.540
0.78 158.553 65.115
0.79 --undefined-- 61.635
0.80 --undefined-- 56.556
0.81 --undefined-- 52.164
0.82 --undefined-- 53.107
0.83 --undefined-- 52.805
0.84 --undefined-- 51.398
0.85 --undefined-- 51.184
0.86 --undefined-- 48.558
0.87 --undefined-- 41.976
0.88 --undefined-- 35.122
0.89 --undefined-- 35.101
0.90 --undefined-- 37.270
0.91 --undefined-- 46.202
0.92 --undefined-- 54.350
0.93 --undefined-- 59.261
0.94 --undefined-- 62.448
0.95 111.189 64.879
0.96 114.852 66.991
0.97 125.729 68.593
0.98 124.697 69.095
0.99 125.147 68.709
1.00 126.098 68.331
1.01 124.210 68.117
1.02 124.056 68.039
1.03 123.669 68.380
1.04 124.374 69.490
1.05 128.431 71.793
1.06 128.305 74.123
1.07 125.584 75.163
1.08 123.482 75.207
1.09 122.205 74.963
1.10 121.369 74.662
1.11 121.333 74.098
1.12 120.558 72.885
1.13 118.497 71.301
1.14 120.236 70.320
1.15 117.899 69.659
1.16 115.760 68.900
1.17 114.092 68.152
1.18 113.218 67.642
1.19 113.900 67.799
1.20 117.219 69.298
1.21 119.667 71.607
1.22 118.592 73.123
1.23 116.423 73.387
1.24 111.857 72.640
1.25 110.679 71.535
1.26 112.007 70.624
1.27 114.007 70.125
1.28 118.569 70.161
1.29 119.209 70.445
1.30 120.115 70.772
1.31 121.283 71.020
1.32 120.887 71.030
1.33 119.291 70.743
1.34 117.306 70.217
1.35 116.331 69.614
1.36 115.549 68.974
1.37 114.791 68.150
1.38 114.551 67.359
1.39 113.931 68.140
1.40 115.980 70.527
1.41 116.434 72.717
1.42 116.637 74.243
1.43 119.399 75.269
1.44 118.969 75.746
1.45 116.614 75.554
1.46 114.702 74.983
1.47 114.333 74.564
1.48 114.927 74.110
1.49 112.292 72.871
1.50 114.438 71.219
1.51 117.270 70.537
1.52 117.538 70.312
1.53 117.329 69.816
1.54 116.248 68.709
1.55 113.317 66.624
1.56 109.566 63.351
1.57 103.758 58.906
1.58 --undefined-- 53.210
1.59 --undefined-- 46.326
1.60 --undefined-- 43.715
1.61 --undefined-- 46.264
1.62 --undefined-- 48.750
1.63 --undefined-- 49.144
1.64 --undefined-- 48.417
1.65 --undefined-- 52.884
1.66 --undefined-- 63.067
1.67 212.913 69.810
1.68 193.585 73.151
1.69 192.745 74.160
1.70 193.716 73.992
1.71 196.268 73.617
1.72 199.218 73.487
1.73 200.767 73.573
1.74 200.643 73.611
1.75 199.287 73.404
1.76 196.697 72.937
1.77 191.060 72.092
1.78 180.676 70.741
1.79 170.682 69.000
1.80 160.823 67.332
1.81 154.108 66.796
1.82 143.759 68.320
1.83 137.749 71.290
1.84 135.028 74.162
1.85 131.411 75.783
1.86 121.422 76.056
1.87 116.449 75.492
1.88 110.839 74.022
1.89 103.177 71.656
1.90 99.748 69.149
1.91 96.945 66.786
1.92 99.138 65.407
1.93 104.945 65.507
1.94 107.566 66.097
1.95 110.688 66.900
1.96 113.270 67.756
1.97 116.796 68.731
1.98 120.458 69.846
1.99 121.687 70.990
2.00 122.571 72.046
2.01 123.633 72.977
2.02 124.409 73.769
2.03 124.770 74.303
2.04 125.158 74.639
2.05 124.955 75.059
2.06 124.747 75.535
2.07 124.668 75.479
2.08 124.927 74.271
2.09 122.959 71.548
2.10 116.389 66.907
2.11 83.652 60.154
2.12 --undefined-- 53.588
2.13 --undefined-- 49.999
2.14 --undefined-- 46.374
2.15 --undefined-- 43.034
2.16 --undefined-- 41.137
2.17 --undefined-- 39.509
2.18 --undefined-- 37.676
2.19 --undefined-- 36.219
2.20 --undefined-- 35.438
2.21 --undefined-- 35.311
2.22 --undefined-- 36.234
2.23 --undefined-- 35.917
2.24 --undefined-- 33.794
2.25 --undefined-- 33.171
2.26 --undefined-- 35.866
2.27 --undefined-- 37.719
2.28 --undefined-- 37.396
2.29 --undefined-- 36.673
2.30 --undefined-- 35.771
2.31 --undefined-- 35.008
2.32 --undefined-- 34.694
2.33 --undefined-- 32.964
2.34 --undefined-- 30.236
2.35 --undefined-- 31.153
2.36 --undefined-- 33.705
2.37 --undefined-- 34.372
2.38 --undefined-- 34.299
2.39 --undefined-- 33.716
2.40 --undefined-- 33.857
2.41 --undefined-- 36.661
2.42 --undefined-- 38.579
2.43 --undefined-- 37.898
2.44 --undefined-- 35.435
2.45 --undefined-- 33.489
2.46 --undefined-- 33.344
2.47 --undefined-- 32.981
2.48 --undefined-- 31.824
2.49 --undefined-- 32.384
2.50 --undefined-- 33.041
2.51 --undefined-- 33.905
2.52 --undefined-- 35.416
2.53 --undefined-- 36.025
2.54 --undefined-- 36.531
2.55 --undefined-- 36.860
2.56 --undefined-- 36.251
2.57 --undefined-- 36.075
2.58 --undefined-- 36.421
2.59 --undefined-- 36.335
2.60 --undefined-- 36.393
2.61 --undefined-- 36.897
2.62 --undefined-- 37.279
2.63 --undefined-- 37.249
2.64 --undefined-- 37.747
2.65 --undefined-- 38.739
2.66 --undefined-- 39.218
2.67 --undefined-- 39.043
2.68 --undefined-- 38.836
2.69 --undefined-- 38.547
2.70 --undefined-- 37.737
2.71 --undefined-- 36.994
2.72 --undefined-- 37.387
2.73 --undefined-- 38.741
2.74 --undefined-- 40.186
2.75 --undefined-- 40.738
2.76 --undefined-- 40.872
2.77 --undefined-- 40.487
2.78 --undefined-- 38.703
2.79 --undefined-- 37.180
2.80 --undefined-- 36.940
2.81 --undefined-- 36.204
2.82 --undefined-- 36.458
2.83 --undefined-- 37.616
2.84 --undefined-- 37.652
2.85 --undefined-- 36.028
2.86 --undefined-- 35.056
2.87 --undefined-- 36.287
2.88 --undefined-- 36.382
2.89 --undefined-- 36.446
2.90 --undefined-- 38.913
2.91 --undefined-- 45.222
2.92 --undefined-- 55.208
2.93 --undefined-- 64.218
2.94 --undefined-- 70.490
2.95 148.696 74.381
2.96 145.868 76.749
2.97 145.055 78.383
2.98 145.412 79.555
2.99 146.058 79.995
3.00 146.557 79.790
3.01 148.201 79.600
3.02 145.490 79.299
3.03 146.458 78.430
3.04 142.883 76.848
3.05 139.880 74.222
3.06 126.589 70.157
3.07 117.610 64.257
3.08 --undefined-- 56.838
3.09 --undefined-- 50.664
3.10 --undefined-- 48.279
3.11 --undefined-- 49.833
3.12 --undefined-- 57.150
3.13 --undefined-- 67.093
3.14 --undefined-- 73.540
3.15 169.630 77.091
3.16 164.631 78.834
3.17 160.470 79.236
3.18 158.106 78.878
3.19 157.325 78.823
3.20 155.990 79.151
3.21 155.394 79.505
3.22 155.740 79.602
3.23 157.548 79.077
3.24 157.962 78.096
3.25 157.828 77.391
3.26 158.329 77.108
3.27 158.497 76.874
3.28 157.943 76.583
3.29 157.419 76.201
3.30 156.362 75.602
3.31 154.541 74.691
3.32 153.755 73.425
3.33 151.517 71.506
3.34 --undefined-- 68.764
3.35 176.960 65.800
3.36 172.527 61.945
3.37 --undefined-- 55.423
3.38 --undefined-- 46.720
3.39 --undefined-- 41.051
3.40 --undefined-- 39.169
3.41 --undefined-- 39.071
3.42 --undefined-- 37.888
3.43 --undefined-- 34.733
3.44 --undefined-- 34.077
3.45 --undefined-- 36.936
3.46 --undefined-- 38.654
3.47 --undefined-- 38.890
3.48 --undefined-- 38.112
3.49 --undefined-- 36.248
3.50 --undefined-- 36.552
3.51 --undefined-- 38.237
3.52 --undefined-- 39.299
3.53 --undefined-- 39.390
3.54 --undefined-- 37.841
3.55 --undefined-- 36.337
3.56 --undefined-- 36.578
3.57 --undefined-- 36.623
3.58 --undefined-- 35.967
3.59 --undefined-- 35.806
3.60 --undefined-- 41.557
3.61 --undefined-- 51.873
3.62 205.889 58.679
3.63 186.137 62.828
3.64 183.981 65.652
3.65 194.123 67.884
3.66 199.323 69.734
3.67 205.862 71.352
3.68 212.642 72.889
3.69 218.027 74.303
3.70 222.493 75.278
3.71 226.719 75.671
3.72 229.274 75.730
3.73 230.534 75.671
3.74 230.651 75.602
3.75 229.040 75.579
3.76 226.252 75.399
3.77 223.197 74.380
3.78 215.811 71.888
3.79 189.354 70.750
3.80 182.603 75.023
3.81 177.618 78.726
3.82 170.003 79.844
3.83 149.119 78.920
3.84 137.793 77.839
3.85 128.615 77.249
3.86 120.321 76.061
3.87 112.140 74.520
3.88 111.648 73.831
3.89 112.596 73.825
3.90 113.792 73.613
3.91 113.595 72.608
3.92 111.069 70.401
3.93 107.230 66.964
3.94 100.154 62.691
3.95 94.703 57.969
3.96 --undefined-- 53.005
3.97 --undefined-- 48.105
3.98 --undefined-- 45.092
3.99 --undefined-- 44.752
4.00 --undefined-- 45.643
4.01 --undefined-- 55.066
4.02 --undefined-- 65.704
4.03 187.025 72.647
4.04 175.598 76.668
4.05 172.085 78.769
4.06 168.823 79.454
4.07 166.688 79.521
4.08 166.755 79.702
4.09 167.641 79.844
4.10 169.066 79.773
4.11 171.083 79.711
4.12 173.372 79.765
4.13 176.066 79.623
4.14 178.810 78.710
4.15 180.669 76.511
4.16 180.077 72.485
4.17 156.149 66.304
4.18 150.474 58.660
4.19 --undefined-- 52.272
4.20 --undefined-- 46.499
4.21 --undefined-- 49.070
4.22 --undefined-- 56.322
4.23 --undefined-- 61.953
4.24 171.653 67.354
4.25 154.597 71.400
4.26 143.387 73.565
4.27 131.657 74.728
4.28 128.735 75.616
4.29 126.640 76.063
4.30 125.035 76.072
4.31 124.113 75.913
4.32 123.304 75.694
4.33 122.515 75.346
4.34 121.208 74.730
4.35 120.003 73.983
4.36 119.497 73.498
4.37 119.440 73.357
4.38 120.186 73.468
4.39 121.061 73.605
4.40 121.547 73.480
4.41 121.631 72.977
4.42 120.927 72.169
4.43 119.406 71.194
4.44 118.775 70.115
4.45 118.318 68.754
4.46 118.406 67.078
4.47 --undefined-- 65.202
4.48 --undefined-- 63.088
4.49 --undefined-- 59.564
4.50 --undefined-- 52.952
4.51 --undefined-- 43.937
4.52 --undefined-- 38.994
4.53 --undefined-- 36.726
4.54 --undefined-- 35.862
4.55 --undefined-- 34.898
4.56 --undefined-- 33.658
4.57 --undefined-- 33.914
4.58 --undefined-- 34.982
4.59 --undefined-- 35.779
4.60 --undefined-- 36.797
4.61 --undefined-- 36.756
4.62 --undefined-- 36.060
4.63 --undefined-- 37.276
4.64 --undefined-- 38.300
4.65 --undefined-- 37.380
4.66 --undefined-- 39.254
4.67 --undefined-- 50.577
4.68 --undefined-- 59.593
4.69 119.078 65.118
4.70 115.533 68.503
4.71 116.089 70.698
4.72 117.925 72.197
4.73 119.209 73.294
4.74 120.789 74.242
4.75 122.331 75.098
4.76 123.906 75.778
4.77 124.924 76.228
4.78 126.485 76.522
4.79 128.709 76.776
4.80 130.731 77.101
4.81 132.809 77.572
4.82 134.166 78.081
4.83 135.950 78.453
4.84 137.828 78.695
4.85 139.654 78.960
4.86 142.336 79.263
4.87 146.504 79.416
4.88 149.745 79.204
4.89 152.518 78.456
4.90 154.029 76.922
4.91 153.200 74.041
4.92 149.536 69.174
4.93 --undefined-- 61.701
4.94 --undefined-- 53.589
4.95 --undefined-- 47.524
4.96 --undefined-- 42.973
4.97 --undefined-- 41.065
4.98 --undefined-- 42.570
4.99 --undefined-- 46.151
5.00 --undefined-- 48.838
5.01 --undefined-- 50.216
5.02 --undefined-- 51.376
5.03 --undefined-- 57.344
5.04 196.166 66.046
5.05 171.070 71.951
5.06 153.904 75.334
5.07 147.539 76.977
5.08 141.036 77.561
5.09 137.583 77.187
5.10 137.062 76.312
5.11 138.193 75.846
5.12 137.154 75.753
5.13 131.800 75.533
5.14 130.204 74.953
5.15 131.507 74.174
5.16 135.155 73.044
5.17 135.819 71.659
5.18 137.556 70.386
5.19 133.346 69.587
5.20 129.683 69.520
5.21 129.556 70.458
5.22 130.981 72.523
5.23 133.416 74.880
5.24 134.055 76.648
5.25 131.086 77.447
5.26 128.477 77.633
5.27 129.175 77.533
5.28 126.317 76.575
5.29 123.228 75.034
5.30 118.918 74.058
5.31 114.017 72.825
5.32 110.055 70.230
5.33 --undefined-- 66.487
5.34 --undefined-- 61.585
5.35 --undefined-- 55.497
5.36 --undefined-- 53.358
5.37 --undefined-- 55.211
5.38 116.616 58.690
5.39 126.036 61.656
5.40 127.268 64.036
5.41 128.502 65.897
5.42 126.862 67.392
5.43 121.572 68.865
5.44 120.634 70.230
5.45 119.454 71.343
5.46 119.506 72.139
5.47 119.378 72.655
5.48 119.713 73.093
5.49 119.863 73.617
5.50 121.503 74.118
5.51 122.901 74.271
5.52 122.835 73.595
5.53 119.905 71.435
5.54 --undefined-- 67.105
5.55 --undefined-- 60.321
5.56 --undefined-- 52.333
5.57 --undefined-- 46.356
5.58 --undefined-- 42.134
5.59 --undefined-- 39.992
5.60 --undefined-- 38.570
5.61 --undefined-- 36.898
5.62 --undefined-- 35.319
5.63 --undefined-- 34.535
5.64 --undefined-- 33.711
5.65 --undefined-- 33.556
5.66 --undefined-- 34.666
5.67 --undefined-- 35.623
5.68 --undefined-- 35.047
5.69 --undefined-- 34.892
5.70 --undefined-- 37.920
5.71 --undefined-- 40.345
5.72 --undefined-- 41.917
5.73 --undefined-- 43.443
5.74 --undefined-- 43.305
5.75 --undefined-- 40.574
5.76 --undefined-- 37.071
5.77 --undefined-- 36.855
5.78 --undefined-- 37.219
5.79 --undefined-- 36.698
5.80 --undefined-- 36.064
5.81 --undefined-- 36.066
5.82 --undefined-- 37.380
5.83 --undefined-- 37.873
5.84 --undefined-- 36.637
5.85 --undefined-- 35.917
5.86 --undefined-- 36.707
5.87 --undefined-- 37.997
5.88 --undefined-- 39.424
5.89 --undefined-- 40.741
5.90 --undefined-- 41.434
5.91 --undefined-- 41.456
5.92 --undefined-- 41.915
5.93 --undefined-- 42.382
5.94 --undefined-- 41.883
5.95 --undefined-- 41.382
5.96 --undefined-- 41.341
5.97 --undefined-- 41.207
5.98 --undefined-- 40.549
5.99 --undefined-- 39.373
6.00 --undefined-- 38.394
6.01 --undefined-- 37.621
6.02 --undefined-- 36.660
6.03 --undefined-- 36.290
6.04 --undefined-- 37.701
6.05 --undefined-- 38.914
6.06 --undefined-- 41.500
6.07 --undefined-- 53.872
6.08 --undefined-- 63.261
6.09 128.966 69.038
6.10 128.530 72.633
6.11 130.936 74.967
6.12 134.904 76.817
6.13 139.783 78.379
6.14 144.056 79.651
6.15 149.920 80.586
6.16 156.640 81.263
6.17 161.430 81.282
6.18 162.525 79.738
6.19 154.317 75.899
6.20 139.623 69.790
6.21 --undefined-- 65.580
6.22 --undefined-- 66.717
6.23 --undefined-- 68.141
6.24 --undefined-- 72.897
6.25 163.705 77.398
6.26 156.770 79.544
6.27 157.401 80.092
6.28 156.217 79.854
6.29 148.661 79.453
6.30 142.448 79.506
6.31 138.340 79.347
6.32 134.435 77.741
6.33 --undefined-- 74.044
6.34 --undefined-- 68.257
6.35 --undefined-- 61.049
6.36 --undefined-- 55.170
6.37 --undefined-- 50.846
6.38 --undefined-- 46.836
6.39 --undefined-- 42.324
6.40 --undefined-- 38.461
6.41 --undefined-- 37.567
6.42 --undefined-- 38.048
6.43 --undefined-- 37.735
6.44 --undefined-- 36.167
6.45 --undefined-- 35.340
6.46 --undefined-- 37.079
6.47 --undefined-- 38.599
6.48 --undefined-- 38.675
6.49 --undefined-- 37.623
6.50 --undefined-- 42.696
6.51 --undefined-- 54.780
6.52 --undefined-- 64.246
6.53 --undefined-- 70.293
6.54 132.330 73.694
6.55 128.857 75.391
6.56 127.475 76.240
6.57 127.517 76.630
6.58 127.874 76.573
6.59 128.642 76.246
6.60 127.308 76.076
6.61 127.492 76.128
6.62 128.844 76.250
6.63 128.976 76.267
6.64 129.450 75.841
6.65 129.212 74.798
6.66 128.068 73.119
6.67 125.635 70.975
6.68 120.291 68.503
6.69 113.853 65.846
6.70 121.826 62.892
6.71 --undefined-- 58.948
6.72 --undefined-- 52.435
6.73 --undefined-- 44.550
6.74 --undefined-- 41.005
6.75 --undefined-- 41.133
6.76 --undefined-- 41.329
6.77 --undefined-- 44.144
6.78 --undefined-- 52.819
6.79 --undefined-- 59.038
6.80 133.555 62.778
6.81 120.808 65.156
6.82 121.406 66.804
6.83 121.419 67.855
6.84 119.003 68.508
6.85 117.726 69.099
6.86 117.357 69.633
6.87 117.598 70.022
6.88 118.847 70.310
6.89 120.695 70.588
6.90 123.078 70.931
6.91 126.109 71.369
6.92 129.335 71.844
6.93 132.267 --undefined--
6.94 135.585 --undefined--
6.95 --undefined-- --undefined--
6.96 --undefined-- --undefined--
