Time Pitch Intensity
0.01 --undefined-- --undefined--
0.02 --undefined-- --undefined--
0.03 --undefined-- --undefined--
0.04 --undefined-- --undefined--
0.05 --undefined-- 61.650
0.06 --undefined-- 58.783
0.07 --undefined-- 57.520
0.08 --undefined-- 59.076
0.09 119.170 62.818
0.10 123.127 66.755
0.11 126.727 69.298
0.12 122.720 70.495
0.13 117.644 70.969
0.14 117.575 71.030
0.15 117.954 70.855
0.16 113.721 70.980
0.17 113.123 71.305
0.18 113.935 71.733
0.19 113.877 71.853
0.20 116.119 71.509
0.21 117.737 71.163
0.22 117.641 70.867
0.23 117.731 70.469
0.24 117.672 69.905
0.25 117.994 69.162
0.26 118.006 67.729
0.27 116.066 64.551
0.28 108.992 59.017
0.29 --undefined-- 52.423
0.30 --undefined-- 47.510
0.31 --undefined-- 45.187
0.32 --undefined-- 45.799
0.33 --undefined-- 46.697
0.34 --undefined-- 46.404
0.35 --undefined-- 45.695
0.36 --undefined-- 46.733
0.37 --undefined-- 50.137
0.38 --undefined-- 53.842
0.39 --undefined-- 60.778
0.40 192.024 67.857
0.41 177.761 72.278
0.42 168.845 74.865
0.43 162.656 76.712
0.44 158.893 77.922
0.45 157.870 78.451
0.46 158.191 78.207
0.47 159.679 76.935
0.48 160.083 75.168
0.49 158.923 74.213
0.50 157.517 74.272
0.51 155.917 74.567
0.52 154.884 74.614
0.53 155.256 74.184
0.54 157.802 73.199
0.55 160.381 71.908
0.56 160.098 70.529
0.57 156.463 68.426
0.58 146.993 64.777
0.59 139.530 59.445
0.60 --undefined-- 53.511
0.61 --undefined-- 48.609
0.62 --undefined-- 47.147
0.63 --undefined-- 56.427
0.64 --undefined-- 65.356
0.65 --undefined-- 71.051
0.66 --undefined-- 73.834
0.67 --undefined-- 74.343
0.68 --undefined-- 73.337
0.69 114.734 71.619
0.70 111.733 69.973
0.71 111.706 69.226
0.72 112.808 69.302
0.73 113.955 69.559
0.74 115.180 69.846
0.75 118.427 70.332
0.76 119.679 70.844
0.77 119.048 70.991
0.78 117.777 70.795
0.79 117.281 70.470
0.80 117.109 70.190
0.81 115.899 69.759
0.82 116.192 68.833
0.83 114.654 67.431
0.84 112.139 65.913
0.85 108.189 64.632
0.86 104.841 63.910
0.87 106.994 64.451
0.88 110.642 65.795
0.89 109.120 66.706
0.90 104.918 66.769
0.91 101.295 66.028
0.92 98.312 64.788
0.93 95.220 63.787
0.94 95.071 63.124
0.95 93.593 62.862
0.96 92.709 63.107
0.97 94.779 63.380
0.98 96.267 63.477
0.99 98.665 63.639
1.00 102.321 63.781
1.01 103.714 63.727
1.02 103.965 63.260
1.03 102.066 61.751
1.04 97.882 58.706
1.05 90.631 54.138
1.06 --undefined-- 48.560
1.07 --undefined-- 47.119
1.08 --undefined-- 53.715
1.09 --undefined-- 59.932
1.10 149.447 65.194
1.11 140.304 68.438
1.12 134.742 69.852
1.13 134.031 70.384
1.14 129.689 70.730
1.15 130.043 71.072
1.16 129.492 71.121
1.17 128.758 71.045
1.18 129.207 71.207
1.19 128.691 71.501
1.20 127.543 71.535
1.21 126.345 70.885
1.22 128.249 69.449
1.23 122.497 67.931
1.24 120.100 66.537
1.25 117.078 63.944
1.26 116.970 59.216
1.27 --undefined-- 52.838
1.28 --undefined-- 48.513
1.29 --undefined-- 48.411
1.30 --undefined-- 50.217
1.31 --undefined-- 52.272
1.32 --undefined-- 53.476
1.33 --undefined-- 53.248
1.34 --undefined-- 51.107
1.35 --undefined-- 47.773
1.36 --undefined-- 45.710
1.37 --undefined-- 52.159
1.38 --undefined-- 59.863
1.39 --undefined-- 64.608
1.40 --undefined-- 67.779
1.41 --undefined-- 70.070
1.42 --undefined-- 71.493
1.43 117.878 72.530
1.44 120.831 73.263
1.45 123.618 73.468
1.46 127.294 73.205
1.47 135.211 72.975
1.48 143.176 72.719
1.49 149.369 71.992
1.50 156.412 70.827
1.51 158.079 69.532
1.52 164.776 68.335
1.53 161.799 68.385
1.54 159.347 69.951
1.55 155.922 71.567
1.56 145.259 72.781
1.57 143.957 73.312
1.58 128.585 72.446
1.59 113.769 70.651
1.60 110.784 69.145
1.61 105.417 67.784
1.62 100.903 66.398
1.63 97.807 65.593
1.64 99.137 65.508
1.65 96.589 65.442
1.66 97.228 65.168
1.67 94.566 64.876
1.68 104.841 64.914
1.69 100.388 65.338
1.70 106.255 66.045
1.71 104.839 66.780
1.72 107.107 67.260
1.73 109.170 68.004
1.74 111.940 69.012
1.75 108.171 69.365
1.76 106.292 69.044
1.77 103.911 69.001
1.78 102.665 69.332
1.79 103.313 69.299
1.80 106.702 68.281
1.81 105.860 65.760
1.82 100.594 61.208
1.83 --undefined-- 54.674
1.84 --undefined-- 51.428
1.85 --undefined-- 53.815
1.86 --undefined-- 54.138
1.87 --undefined-- 52.166
1.88 --undefined-- 48.877
1.89 --undefined-- 45.769
1.90 --undefined-- 50.637
1.91 --undefined-- 60.781
1.92 152.107 67.417
1.93 150.366 70.880
1.94 135.419 72.190
1.95 126.713 72.486
1.96 124.099 72.636
1.97 122.879 72.678
1.98 122.233 72.327
1.99 120.534 71.259
2.00 117.595 68.735
2.01 --undefined-- 63.753
2.02 --undefined-- 55.976
2.03 --undefined-- 47.457
2.04 --undefined-- 44.047
2.05 --undefined-- 43.251
2.06 --undefined-- 42.691
2.07 --undefined-- 41.456
2.08 --undefined-- 39.903
2.09 --undefined-- 39.068
2.10 --undefined-- 38.973
2.11 --undefined-- 39.986
2.12 --undefined-- 41.081
2.13 --undefined-- 43.846
2.14 --undefined-- 47.463
2.15 --undefined-- 49.611
2.16 --undefined-- 51.436
2.17 --undefined-- 57.933
2.18 --undefined-- 64.475
2.19 149.058 68.555
2.20 147.776 71.059
2.21 146.369 72.612
2.22 144.388 73.446
2.23 142.211 73.800
2.24 141.303 73.812
2.25 140.309 73.413
2.26 139.199 72.118
2.27 138.373 69.069
2.28 134.127 64.378
2.29 124.176 62.892
2.30 127.308 66.376
2.31 125.873 69.174
2.32 124.058 70.358
2.33 120.152 70.543
2.34 115.512 70.168
2.35 113.431 69.845
2.36 116.484 70.115
2.37 120.775 70.712
2.38 125.338 71.148
2.39 127.687 70.946
2.40 125.816 69.595
2.41 120.556 66.660
2.42 119.696 61.717
2.43 120.385 55.164
2.44 --undefined-- 49.948
2.45 --undefined-- 48.459
2.46 --undefined-- 53.945
2.47 --undefined-- 61.895
2.48 --undefined-- 66.527
2.49 125.256 68.233
2.50 112.234 68.436
2.51 115.741 68.507
2.52 119.822 68.885
2.53 114.697 69.770
2.54 121.163 70.485
2.55 124.681 70.656
2.56 130.025 70.658
2.57 132.063 70.566
2.58 132.390 69.209
2.59 --undefined-- 65.388
2.60 --undefined-- 58.654
2.61 --undefined-- 50.576
2.62 --undefined-- 46.238
2.63 --undefined-- 51.664
2.64 --undefined-- 61.099
2.65 150.094 67.256
2.66 133.222 70.331
2.67 128.338 71.456
2.68 120.786 71.900
2.69 117.791 72.212
2.70 115.270 72.233
2.71 113.362 71.660
2.72 110.504 70.526
2.73 109.187 69.332
2.74 108.456 68.510
2.75 108.669 68.072
2.76 110.034 67.931
2.77 111.038 67.674
2.78 110.203 66.503
2.79 108.172 63.918
2.80 --undefined-- 60.395
2.81 --undefined-- 57.709
2.82 --undefined-- 54.728
2.83 --undefined-- 48.815
2.84 --undefined-- 40.996
2.85 --undefined-- 38.544
2.86 --undefined-- 38.012
2.87 --undefined-- 38.374
2.88 --undefined-- 39.304
2.89 --undefined-- 38.862
2.90 --undefined-- 39.005
2.91 --undefined-- 40.091
2.92 --undefined-- 39.849
2.93 --undefined-- 39.568
2.94 --undefined-- 39.707
2.95 --undefined-- 39.335
2.96 --undefined-- 39.973
2.97 --undefined-- 39.491
2.98 --undefined-- 37.149
2.99 --undefined-- 34.556
3.00 --undefined-- 33.127
3.01 --undefined-- 34.741
3.02 --undefined-- 36.461
3.03 --undefined-- 36.330
3.04 --undefined-- 34.595
3.05 --undefined-- 35.010
3.06 --undefined-- 37.957
3.07 --undefined-- 38.661
3.08 --undefined-- 37.428
3.09 --undefined-- 36.648
3.10 --undefined-- 37.560
3.11 --undefined-- 40.032
3.12 --undefined-- 41.615
3.13 --undefined-- 41.144
3.14 --undefined-- 39.552
3.15 --undefined-- 38.749
3.16 --undefined-- 38.741
3.17 --undefined-- 39.334
3.18 --undefined-- 39.269
3.19 --undefined-- 39.805
3.20 --undefined-- 41.199
3.21 --undefined-- 41.073
3.22 --undefined-- 39.086
3.23 --undefined-- 39.833
3.24 --undefined-- 43.224
3.25 --undefined-- 43.564
3.26 --undefined-- 40.799
3.27 --undefined-- 42.433
3.28 --undefined-- 50.906
3.29 --undefined-- 58.892
3.30 180.064 65.753
3.31 164.661 70.821
3.32 157.349 73.877
3.33 157.569 74.881
3.34 159.565 73.807
3.35 172.314 71.358
3.36 187.596 69.772
3.37 196.294 69.688
3.38 203.397 70.058
3.39 209.185 70.736
3.40 209.924 71.131
3.41 202.336 70.036
3.42 185.439 66.873
3.43 169.587 62.072
3.44 --undefined-- 62.051
3.45 --undefined-- 65.577
3.46 --undefined-- 66.021
3.47 --undefined-- 63.661
3.48 --undefined-- 64.020
3.49 168.994 70.126
3.50 161.574 74.606
3.51 152.404 76.548
3.52 140.969 76.620
3.53 134.911 75.806
3.54 133.494 75.107
3.55 134.703 74.625
3.56 137.669 74.295
3.57 138.480 74.882
3.58 139.036 76.321
3.59 138.036 77.193
3.60 130.224 77.265
3.61 129.464 77.414
3.62 126.943 77.320
3.63 125.571 76.768
3.64 126.080 76.355
3.65 126.386 75.806
3.66 126.807 74.163
3.67 128.609 70.693
3.68 119.800 65.089
3.69 114.571 58.000
3.70 --undefined-- 51.031
3.71 --undefined-- 45.457
3.72 --undefined-- 43.068
3.73 --undefined-- 43.946
3.74 --undefined-- 49.356
3.75 --undefined-- 56.242
3.76 --undefined-- 62.643
3.77 --undefined-- 67.353
3.78 112.906 69.556
3.79 108.993 69.446
3.80 96.693 68.116
3.81 96.386 67.508
3.82 100.869 67.921
3.83 104.745 68.632
3.84 116.022 69.403
3.85 123.210 70.216
3.86 132.226 71.084
3.87 139.345 72.036
3.88 145.131 72.691
3.89 153.777 72.360
3.90 166.242 71.008
3.91 166.366 68.993
3.92 156.002 65.868
3.93 145.189 61.001
3.94 --undefined-- 54.409
3.95 --undefined-- 47.458
3.96 --undefined-- 53.349
3.97 --undefined-- 63.197
3.98 --undefined-- 69.247
3.99 --undefined-- 71.746
4.00 --undefined-- 71.288
4.01 109.110 68.823
4.02 95.307 65.818
4.03 91.805 63.589
4.04 92.122 62.606
4.05 98.503 62.819
4.06 100.392 63.625
4.07 101.954 64.550
4.08 104.188 65.430
4.09 107.434 66.069
4.10 104.560 66.303
4.11 102.701 66.214
4.12 101.541 65.909
4.13 100.484 65.336
4.14 100.370 64.579
4.15 99.936 63.995
4.16 99.146 63.504
4.17 96.900 63.152
4.18 96.873 63.308
4.19 98.845 63.795
4.20 100.394 64.291
4.21 100.468 64.346
4.22 92.494 63.479
4.23 90.656 62.215
4.24 86.545 60.934
4.25 84.884 59.703
4.26 85.448 59.050
4.27 87.443 59.036
4.28 88.353 59.478
4.29 89.171 60.004
4.30 90.280 60.392
4.31 93.881 61.086
4.32 96.870 62.181
4.33 101.628 63.252
4.34 107.570 64.455
4.35 113.270 65.841
4.36 117.535 66.832
4.37 126.074 67.618
4.38 130.607 68.560
4.39 136.770 69.602
4.40 143.058 70.468
4.41 146.673 70.863
4.42 149.890 70.614
4.43 150.500 69.805
4.44 150.557 68.730
4.45 149.240 67.472
4.46 145.265 65.988
4.47 144.705 64.307
4.48 144.609 62.376
4.49 143.357 59.539
4.50 --undefined-- 54.802
4.51 --undefined-- 47.876
4.52 --undefined-- 40.610
4.53 --undefined-- 36.377
4.54 --undefined-- 34.590
4.55 --undefined-- 35.670
4.56 --undefined-- 37.483
4.57 --undefined-- 38.375
4.58 --undefined-- 39.195
4.59 --undefined-- 40.154
4.60 --undefined-- 38.659
4.61 --undefined-- 34.983
4.62 --undefined-- 33.798
4.63 --undefined-- 35.083
4.64 --undefined-- 36.088
4.65 --undefined-- 36.042
4.66 --undefined-- 36.641
4.67 --undefined-- 38.866
4.68 --undefined-- 40.983
4.69 --undefined-- 41.788
4.70 --undefined-- 40.925
4.71 --undefined-- 38.828
4.72 --undefined-- 35.496
4.73 --undefined-- 33.727
4.74 --undefined-- 36.487
4.75 --undefined-- 38.746
4.76 --undefined-- 39.756
4.77 --undefined-- 39.174
4.78 --undefined-- 37.157
4.79 --undefined-- 37.567
4.80 --undefined-- 38.618
4.81 --undefined-- 37.313
4.82 --undefined-- 35.334
4.83 --undefined-- 35.211
4.84 --undefined-- 35.114
4.85 --undefined-- 35.303
4.86 --undefined-- 36.482
4.87 --undefined-- 37.610
4.88 --undefined-- 38.141
4.89 --undefined-- 38.361
4.90 --undefined-- 39.605
4.91 --undefined-- 40.199
4.92 --undefined-- 38.673
4.93 --undefined-- 37.458
4.94 --undefined-- 38.251
4.95 --undefined-- 38.581
4.96 --undefined-- 37.770
4.97 --undefined-- 36.480
4.98 --undefined-- 35.291
4.99 --undefined-- 35.180
5.00 --undefined-- 36.380
5.01 --undefined-- 37.824
5.02 --undefined-- 37.385
5.03 --undefined-- 34.736
5.04 --undefined-- 35.054
5.05 --undefined-- 37.959
5.06 --undefined-- 47.593
5.07 --undefined-- 58.422
5.08 --undefined-- 65.599
5.09 136.284 70.028
5.10 128.822 72.633
5.11 127.752 74.010
5.12 128.718 74.897
5.13 129.932 75.388
5.14 129.645 75.196
5.15 123.862 74.659
5.16 128.134 74.612
5.17 130.235 74.741
5.18 130.931 74.734
5.19 131.763 74.830
5.20 133.070 75.097
5.21 136.474 75.448
5.22 132.123 75.781
5.23 131.291 76.107
5.24 129.544 76.321
5.25 128.804 76.378
5.26 128.481 76.421
5.27 127.746 76.424
5.28 127.364 76.347
5.29 127.607 76.335
5.30 127.850 76.346
5.31 127.613 76.220
5.32 127.396 75.971
5.33 127.052 75.595
5.34 127.164 75.071
5.35 127.244 74.415
5.36 124.104 73.509
5.37 127.477 72.190
5.38 128.476 70.998
5.39 128.904 70.035
5.40 128.838 68.658
5.41 122.221 66.787
5.42 --undefined-- 64.678
5.43 --undefined-- 61.722
5.44 91.955 57.716
5.45 92.890 53.890
5.46 --undefined-- 52.322
5.47 --undefined-- 50.056
5.48 --undefined-- 45.413
5.49 --undefined-- 40.862
5.50 --undefined-- 38.651
5.51 --undefined-- 36.938
5.52 --undefined-- 36.922
5.53 --undefined-- 37.967
5.54 --undefined-- 39.018
5.55 --undefined-- 39.378
5.56 --undefined-- 39.048
5.57 --undefined-- 39.228
5.58 --undefined-- 45.559
5.59 --undefined-- 55.008
5.60 --undefined-- 61.404
5.61 133.923 65.429
5.62 123.411 68.164
5.63 126.241 70.248
5.64 130.442 72.155
5.65 132.512 73.706
5.66 133.986 74.873
5.67 135.076 75.753
5.68 136.037 76.346
5.69 137.774 76.665
5.70 138.590 76.872
5.71 138.449 76.839
5.72 136.649 76.394
5.73 139.848 75.973
5.74 142.632 75.980
5.75 141.425 76.103
5.76 140.420 76.019
5.77 139.021 75.424
5.78 136.541 73.770
5.79 131.597 70.503
5.80 --undefined-- 65.688
5.81 --undefined-- 60.531
5.82 --undefined-- 55.356
5.83 --undefined-- 50.966
5.84 --undefined-- 50.858
5.85 --undefined-- 53.183
5.86 --undefined-- 56.309
5.87 --undefined-- 58.467
5.88 --undefined-- 60.938
5.89 165.997 66.249
5.90 154.193 70.627
5.91 154.398 73.453
5.92 155.443 75.213
5.93 157.301 76.246
5.94 158.611 76.458
5.95 159.821 75.501
5.96 157.385 73.575
5.97 145.305 72.380
5.98 223.657 71.640
5.99 231.394 69.024
6.00 244.228 64.072
6.01 255.124 57.654
6.02 --undefined-- 50.860
6.03 --undefined-- 49.071
6.04 --undefined-- 58.251
6.05 --undefined-- 65.466
6.06 --undefined-- 69.798
6.07 --undefined-- 72.770
6.08 171.995 74.696
6.09 173.471 75.493
6.10 174.901 75.648
6.11 174.563 75.772
6.12 173.161 76.006
6.13 172.109 76.105
6.14 171.638 75.878
6.15 170.795 --undefined--
6.16 171.574 --undefined--
6.17 --undefined-- --undefined--
6.18 --undefined-- --undefined--
