Time Pitch Intensity
0.01 --undefined-- --undefined--
0.02 --undefined-- --undefined--
0.03 --undefined-- --undefined--
0.04 --undefined-- --undefined--
0.05 --undefined-- 59.708
0.06 198.890 59.966
0.07 184.966 62.592
0.08 175.457 65.215
0.09 172.513 67.127
0.10 171.315 68.242
0.11 170.993 68.439
0.12 171.446 67.723
0.13 173.153 66.435
0.14 178.141 65.410
0.15 183.319 64.962
0.16 192.372 64.748
0.17 199.569 64.621
0.18 205.427 64.926
0.19 212.201 65.998
0.20 219.753 67.284
0.21 224.357 67.832
0.22 229.655 67.364
0.23 233.305 66.580
0.24 235.662 66.338
0.25 238.582 66.584
0.26 243.634 66.925
0.27 250.401 67.206
0.28 258.733 67.456
0.29 267.213 67.625
0.30 274.631 67.724
0.31 277.945 68.013
0.32 278.925 68.640
0.33 279.441 69.379
0.34 279.585 70.074
0.35 278.274 70.697
0.36 276.763 71.100
0.37 276.415 71.163
0.38 276.117 71.017
0.39 276.683 70.735
0.40 278.119 70.346
0.41 279.947 69.864
0.42 282.007 69.450
0.43 283.209 69.219
0.44 284.005 69.101
0.45 285.644 69.067
0.46 283.642 68.935
0.47 280.951 68.802
0.48 280.514 68.764
0.49 282.468 69.075
0.50 280.369 70.064
0.51 272.925 71.260
0.52 269.641 72.114
0.53 262.812 72.637
0.54 254.600 73.369
0.55 244.812 73.993
0.56 234.372 73.795
0.57 --undefined-- 73.185
0.58 --undefined-- 72.949
0.59 --undefined-- 72.110
0.60 --undefined-- 69.836
0.61 --undefined-- 66.357
0.62 --undefined-- 62.100
0.63 --undefined-- 58.543
0.64 --undefined-- 57.876
0.65 --undefined-- 58.267
0.66 --undefined-- 58.682
0.67 --undefined-- 59.076
0.68 --undefined-- 59.704
0.69 --undefined-- 59.792
0.70 --undefined-- 58.421
0.71 --undefined-- 55.176
0.72 --undefined-- 50.600
0.73 --undefined-- 49.198
0.74 --undefined-- 52.818
0.75 --undefined-- 56.176
0.76 --undefined-- 57.432
0.77 --undefined-- 56.868
0.78 --undefined-- 55.561
0.79 --undefined-- 55.250
0.80 --undefined-- 55.528
0.81 --undefined-- 54.843
0.82 --undefined-- 51.978
0.83 --undefined-- 48.474
0.84 --undefined-- 52.008
0.85 --undefined-- 55.250
0.86 --undefined-- 55.714
0.87 --undefined-- 54.115
0.88 --undefined-- 51.153
0.89 --undefined-- 53.095
0.90 --undefined-- 59.781
0.91 223.946 64.232
0.92 221.556 66.771
0.93 224.903 68.428
0.94 232.937 69.959
0.95 242.485 71.159
0.96 253.796 71.806
0.97 261.829 72.064
0.98 267.647 71.958
0.99 274.140 71.702
1.00 281.086 72.084
1.01 287.117 73.119
1.02 289.814 74.002
1.03 290.410 74.072
1.04 287.488 72.788
1.05 281.433 69.525
1.06 268.630 63.713
1.07 265.264 56.795
1.08 --undefined-- 53.948
1.09 --undefined-- 52.065
1.10 --undefined-- 52.076
1.11 --undefined-- 54.716
1.12 --undefined-- 56.958
1.13 --undefined-- 57.525
1.14 --undefined-- 57.022
1.15 --undefined-- 56.567
1.16 --undefined-- 57.071
1.17 --undefined-- 60.614
1.18 292.111 65.267
1.19 288.515 68.116
1.20 286.884 69.263
1.21 284.809 69.456
1.22 280.777 69.317
1.23 272.827 69.116
1.24 271.036 68.962
1.25 269.463 69.019
1.26 266.402 68.993
1.27 264.532 68.610
1.28 263.380 68.092
1.29 263.109 67.758
1.30 262.980 67.557
1.31 261.768 67.411
1.32 259.812 67.358
1.33 257.303 67.473
1.34 254.248 67.712
1.35 250.294 67.886
1.36 244.729 67.726
1.37 236.321 67.240
1.38 229.112 67.339
1.39 219.916 68.202
1.40 212.169 68.741
1.41 207.619 68.885
1.42 205.202 68.990
1.43 203.931 68.737
1.44 203.502 67.925
1.45 202.792 66.732
1.46 202.951 65.587
1.47 204.878 64.994
1.48 208.025 65.143
1.49 209.291 65.786
1.50 210.797 66.407
1.51 212.318 66.859
1.52 213.573 67.174
1.53 215.012 67.294
1.54 215.988 66.783
1.55 216.028 65.113
1.56 215.651 61.690
1.57 215.658 56.395
1.58 --undefined-- 54.148
1.59 --undefined-- 57.245
1.60 --undefined-- 60.706
1.61 --undefined-- 63.017
1.62 --undefined-- 63.815
1.63 --undefined-- 63.096
1.64 --undefined-- 61.808
1.65 --undefined-- 61.200
1.66 258.589 61.139
1.67 269.392 61.681
1.68 284.800 63.433
1.69 154.068 65.900
1.70 161.036 68.923
1.71 --undefined-- 71.798
1.72 --undefined-- 73.270
1.73 --undefined-- 73.593
1.74 --undefined-- 73.646
1.75 --undefined-- 73.939
1.76 164.426 74.134
1.77 163.342 73.783
1.78 162.776 72.297
1.79 162.259 70.532
1.80 162.192 70.345
1.81 161.523 70.488
1.82 158.534 69.781
1.83 150.542 67.825
1.84 142.480 64.372
1.85 161.813 59.513
1.86 --undefined-- 54.198
1.87 --undefined-- 50.681
1.88 --undefined-- 52.125
1.89 --undefined-- 58.287
1.90 --undefined-- 63.322
1.91 233.104 65.888
1.92 220.446 66.720
1.93 196.678 67.242
1.94 185.849 67.678
1.95 178.154 67.542
1.96 175.043 67.164
1.97 173.427 66.344
1.98 171.112 64.278
1.99 --undefined-- 60.786
2.00 --undefined-- 57.546
2.01 --undefined-- 56.367
2.02 --undefined-- 55.910
2.03 --undefined-- 55.268
2.04 --undefined-- 54.627
2.05 --undefined-- 53.087
2.06 --undefined-- 49.747
2.07 --undefined-- 45.410
2.08 --undefined-- 42.878
2.09 --undefined-- 43.095
2.10 --undefined-- 43.766
2.11 --undefined-- 46.113
2.12 --undefined-- 48.797
2.13 --undefined-- 49.845
2.14 --undefined-- 48.143
2.15 --undefined-- 44.501
2.16 --undefined-- 43.171
2.17 --undefined-- 44.300
2.18 --undefined-- 47.425
2.19 --undefined-- 51.463
2.20 210.919 54.886
2.21 190.560 57.479
2.22 179.146 59.288
2.23 173.623 60.262
2.24 168.189 60.834
2.25 164.843 62.169
2.26 162.942 64.101
2.27 162.657 65.362
2.28 162.077 65.276
2.29 159.146 64.392
2.30 157.703 64.336
2.31 157.515 65.089
2.32 156.997 65.641
2.33 157.197 65.739
2.34 157.417 65.421
2.35 158.942 64.826
2.36 160.215 64.120
2.37 162.634 63.361
2.38 164.270 62.707
2.39 164.700 61.898
2.40 167.723 60.963
2.41 175.380 60.988
2.42 186.969 62.004
2.43 195.154 62.614
2.44 204.926 62.556
2.45 215.496 63.002
2.46 226.674 64.769
2.47 230.670 66.363
2.48 233.638 67.054
2.49 237.154 67.084
2.50 239.432 66.453
2.51 237.943 64.591
2.52 233.403 60.694
2.53 214.530 54.479
2.54 --undefined-- 55.893
2.55 --undefined-- 63.445
2.56 273.723 67.695
2.57 267.369 69.098
2.58 259.717 69.045
2.59 255.606 69.029
2.60 253.398 69.182
2.61 254.171 68.849
2.62 256.162 68.056
2.63 258.741 67.441
2.64 260.322 67.227
2.65 260.600 67.108
2.66 261.111 66.877
2.67 260.894 66.612
2.68 261.727 66.331
2.69 263.829 66.038
2.70 266.960 65.787
2.71 271.023 65.166
2.72 272.553 63.399
2.73 266.337 60.105
2.74 262.576 56.398
2.75 269.982 53.422
2.76 --undefined-- 51.066
2.77 --undefined-- 50.641
2.78 --undefined-- 50.899
2.79 --undefined-- 49.296
2.80 --undefined-- 46.043
2.81 --undefined-- 46.720
2.82 --undefined-- 49.043
2.83 --undefined-- 52.002
2.84 --undefined-- 57.958
2.85 291.545 63.583
2.86 282.554 66.814
2.87 277.195 68.154
2.88 274.426 68.602
2.89 272.512 68.780
2.90 270.188 68.846
2.91 268.265 68.811
2.92 267.088 68.638
2.93 267.532 68.436
2.94 267.353 68.634
2.95 267.734 69.052
2.96 271.248 68.907
2.97 271.973 68.198
2.98 269.447 67.512
2.99 266.853 66.929
3.00 263.812 66.315
3.01 262.389 65.720
3.02 261.472 65.194
3.03 261.429 64.685
3.04 262.124 63.574
3.05 257.167 61.221
3.06 256.506 57.704
3.07 --undefined-- 52.994
3.08 --undefined-- 47.563
3.09 --undefined-- 45.723
3.10 --undefined-- 47.701
3.11 --undefined-- 47.553
3.12 --undefined-- 51.290
3.13 --undefined-- 61.060
3.14 --undefined-- 67.689
3.15 194.200 71.730
3.16 187.980 74.003
3.17 183.049 74.851
3.18 180.094 74.803
3.19 179.304 74.507
3.20 179.817 74.013
3.21 180.356 73.277
3.22 180.855 72.605
3.23 180.808 72.040
3.24 182.311 71.412
3.25 184.572 70.797
3.26 184.565 70.398
3.27 184.211 70.326
3.28 184.148 70.617
3.29 184.382 70.871
3.30 183.839 70.513
3.31 183.570 69.259
3.32 186.132 67.039
3.33 --undefined-- 63.982
3.34 --undefined-- 61.257
3.35 --undefined-- 60.098
3.36 --undefined-- 58.355
3.37 --undefined-- 54.897
3.38 --undefined-- 50.647
3.39 --undefined-- 49.883
3.40 --undefined-- 52.893
3.41 --undefined-- 54.624
3.42 --undefined-- 55.302
3.43 --undefined-- 55.105
3.44 --undefined-- 54.320
3.45 --undefined-- 52.880
3.46 --undefined-- 50.444
3.47 --undefined-- 46.997
3.48 --undefined-- 42.550
3.49 --undefined-- 40.769
3.50 --undefined-- 42.612
3.51 --undefined-- 48.728
3.52 --undefined-- 56.198
3.53 --undefined-- 62.353
3.54 143.086 67.088
3.55 151.376 70.308
3.56 158.664 71.870
3.57 166.037 71.645
3.58 168.813 70.111
3.59 166.859 68.715
3.60 164.475 68.101
3.61 162.259 68.035
3.62 162.696 68.128
3.63 165.586 68.029
3.64 168.754 67.938
3.65 168.928 68.243
3.66 155.605 69.121
3.67 283.710 69.741
3.68 250.849 69.778
3.69 228.855 69.944
3.70 227.366 69.860
3.71 238.099 68.721
3.72 237.567 67.086
3.73 235.796 65.390
3.74 233.170 62.668
3.75 223.600 58.515
3.76 --undefined-- 56.866
3.77 --undefined-- 57.877
3.78 269.812 57.612
3.79 271.732 58.418
3.80 273.026 61.421
3.81 247.867 65.053
3.82 227.444 67.200
3.83 211.823 67.653
3.84 204.521 67.558
3.85 199.628 67.471
3.86 195.337 67.303
3.87 193.996 67.229
3.88 194.765 66.903
3.89 196.696 65.955
3.90 196.428 64.461
3.91 191.144 63.112
3.92 195.318 63.104
3.93 200.287 63.473
3.94 202.515 63.240
3.95 204.266 62.696
3.96 204.882 61.978
3.97 202.196 60.912
3.98 196.252 59.599
3.99 197.160 59.451
4.00 224.490 61.724
4.01 223.224 63.722
4.02 221.808 64.040
4.03 203.491 63.250
4.04 186.781 62.770
4.05 178.477 63.166
4.06 169.142 64.164
4.07 164.637 65.639
4.08 162.276 66.979
4.09 161.909 67.656
4.10 163.129 67.733
4.11 164.778 67.610
4.12 165.781 67.605
4.13 168.161 67.489
4.14 170.259 66.862
4.15 164.466 65.484
4.16 162.999 63.639
4.17 164.134 62.200
4.18 166.103 61.939
4.19 181.524 63.800
4.20 183.528 66.289
4.21 184.596 68.000
4.22 187.048 69.045
4.23 188.718 69.752
4.24 188.592 70.204
4.25 189.284 70.703
4.26 190.074 71.060
4.27 192.390 70.799
4.28 195.245 70.106
4.29 199.115 69.649
4.30 200.777 69.445
4.31 202.374 68.949
4.32 203.526 68.234
4.33 204.128 67.707
4.34 204.574 67.617
4.35 205.367 68.022
4.36 206.161 68.855
4.37 206.697 69.560
4.38 207.331 69.517
4.39 207.154 68.221
4.40 206.945 65.502
4.41 205.935 61.800
4.42 183.248 57.949
4.43 --undefined-- 55.315
4.44 --undefined-- 57.324
4.45 --undefined-- 59.930
4.46 --undefined-- 60.470
4.47 --undefined-- 59.794
4.48 --undefined-- 59.451
4.49 --undefined-- 60.876
4.50 248.544 64.064
4.51 231.862 66.250
4.52 225.812 66.644
4.53 222.107 65.882
4.54 220.448 64.752
4.55 222.154 63.576
4.56 222.950 62.229
4.57 221.976 60.369
4.58 221.728 57.759
4.59 --undefined-- 55.735
4.60 --undefined-- 57.111
4.61 --undefined-- 58.734
4.62 --undefined-- 58.876
4.63 --undefined-- 57.479
4.64 --undefined-- 57.022
4.65 154.100 63.000
4.66 155.310 68.063
4.67 157.320 70.604
4.68 161.359 71.443
4.69 163.574 71.475
4.70 164.269 71.354
4.71 164.225 71.248
4.72 163.798 71.093
4.73 163.402 70.798
4.74 164.620 70.582
4.75 165.237 70.677
4.76 163.715 71.144
4.77 162.715 71.786
4.78 161.418 72.240
4.79 159.899 72.184
4.80 157.137 71.088
4.81 152.374 68.266
4.82 146.310 63.924
4.83 154.929 60.394
4.84 163.474 59.352
4.85 --undefined-- 59.941
4.86 --undefined-- 60.380
4.87 --undefined-- 62.014
4.88 157.960 65.666
4.89 155.418 68.219
4.90 156.373 69.498
4.91 156.599 70.293
4.92 155.894 70.770
4.93 155.267 70.833
4.94 155.458 70.559
4.95 155.773 70.208
4.96 156.022 69.975
4.97 156.481 69.847
4.98 156.825 69.736
4.99 157.119 69.652
5.00 157.424 69.680
5.01 157.402 69.848
5.02 157.146 70.110
5.03 156.099 70.429
5.04 153.660 70.840
5.05 299.064 71.269
5.06 291.248 71.376
5.07 281.180 70.780
5.08 269.988 69.489
5.09 255.722 67.611
5.10 237.966 --undefined--
5.11 223.437 --undefined--
5.12 --undefined-- --undefined--
5.13 --undefined-- --undefined--
