Time Pitch Intensity
0.01 --undefined-- --undefined--
0.02 231.990 --undefined--
0.03 220.293 --undefined--
0.04 216.754 --undefined--
0.05 212.409 73.058
0.06 206.352 74.178
0.07 202.806 75.448
0.08 200.757 76.215
0.09 202.829 76.182
0.10 208.607 75.727
0.11 217.189 75.438
0.12 227.782 75.320
0.13 239.260 75.214
0.14 250.177 75.144
0.15 258.316 74.808
0.16 262.772 73.729
0.17 263.926 72.642
0.18 268.192 72.544
0.19 270.076 72.470
0.20 269.724 71.941
0.21 266.080 71.258
0.22 260.735 70.970
0.23 254.870 71.562
0.24 244.146 73.045
0.25 236.331 74.357
0.26 226.122 74.561
0.27 213.160 73.944
0.28 205.126 73.202
0.29 201.355 72.132
0.30 198.144 69.998
0.31 --undefined-- 66.668
0.32 --undefined-- 62.313
0.33 --undefined-- 56.775
0.34 --undefined-- 51.395
0.35 --undefined-- 50.334
0.36 190.334 52.321
0.37 199.998 55.058
0.38 208.838 58.107
0.39 214.156 61.192
0.40 213.840 63.841
0.41 208.534 65.913
0.42 203.507 67.606
0.43 201.178 69.004
0.44 201.850 70.192
0.45 201.375 71.378
0.46 200.371 72.572
0.47 201.344 73.455
0.48 203.459 73.912
0.49 205.980 73.706
0.50 203.463 72.149
0.51 183.636 68.823
0.52 189.980 63.877
0.53 204.239 57.394
0.54 203.766 52.234
0.55 194.326 51.428
0.56 --undefined-- 49.682
0.57 --undefined-- 45.853
0.58 --undefined-- 42.712
0.59 --undefined-- 47.877
0.60 --undefined-- 55.984
0.61 --undefined-- 61.902
0.62 178.457 66.459
0.63 179.191 69.881
0.64 176.955 71.933
0.65 173.908 72.968
0.66 172.499 73.592
0.67 172.215 74.096
0.68 172.944 74.345
0.69 174.017 74.144
0.70 176.135 73.782
0.71 178.592 73.652
0.72 182.153 73.683
0.73 186.121 73.579
0.74 187.902 73.140
0.75 195.270 72.856
0.76 205.228 73.097
0.77 211.506 73.454
0.78 219.453 73.452
0.79 229.075 72.988
0.80 235.009 72.416
0.81 237.516 71.741
0.82 237.912 70.833
0.83 232.565 69.768
0.84 227.087 68.099
0.85 221.621 65.733
0.86 215.823 64.152
0.87 214.250 64.142
0.88 214.971 64.547
0.89 217.495 65.062
0.90 218.601 65.895
0.91 216.715 66.969
0.92 209.930 68.234
0.93 203.308 69.947
0.94 197.280 72.150
0.95 189.253 74.074
0.96 182.654 75.167
0.97 176.458 75.335
0.98 172.183 75.023
0.99 171.149 74.950
1.00 173.551 75.223
1.01 175.170 75.398
1.02 174.803 75.232
1.03 173.256 74.734
1.04 171.677 73.987
1.05 169.907 73.083
1.06 168.809 72.261
1.07 169.419 71.751
1.08 171.974 71.690
1.09 174.245 72.055
1.10 176.795 72.424
1.11 180.750 72.657
1.12 184.340 72.603
1.13 186.836 71.698
1.14 185.054 69.398
1.15 180.849 65.311
1.16 173.739 59.344
1.17 174.956 53.687
1.18 173.583 51.689
1.19 173.741 50.380
1.20 --undefined-- 49.354
1.21 --undefined-- 51.257
1.22 --undefined-- 55.181
1.23 --undefined-- 61.153
1.24 277.826 68.436
1.25 278.958 73.090
1.26 274.641 75.154
1.27 274.307 75.818
1.28 274.609 75.988
1.29 275.100 75.919
1.30 277.433 75.763
1.31 278.092 75.686
1.32 276.467 75.819
1.33 274.223 76.102
1.34 273.369 75.963
1.35 275.464 74.924
1.36 274.291 73.114
1.37 266.609 70.785
1.38 245.538 67.527
1.39 239.086 62.779
1.40 --undefined-- 56.362
1.41 --undefined-- 49.228
1.42 --undefined-- 46.605
1.43 --undefined-- 47.780
1.44 --undefined-- 50.681
1.45 --undefined-- 53.128
1.46 --undefined-- 56.393
1.47 --undefined-- 59.373
1.48 --undefined-- 60.912
1.49 274.592 66.022
1.50 275.338 71.659
1.51 276.742 74.843
1.52 270.343 76.094
1.53 264.204 76.369
1.54 258.909 76.316
1.55 254.358 76.196
1.56 251.062 76.169
1.57 247.900 76.174
1.58 247.187 76.135
1.59 249.417 75.712
1.60 253.708 74.591
1.61 257.379 73.029
1.62 260.932 71.696
1.63 263.207 70.940
1.64 263.843 70.299
1.65 263.063 69.382
1.66 261.514 68.139
1.67 261.500 66.214
1.68 258.835 62.704
1.69 --undefined-- 56.639
1.70 --undefined-- 47.856
1.71 --undefined-- 39.890
1.72 --undefined-- 36.453
1.73 --undefined-- 38.023
1.74 --undefined-- 40.939
1.75 --undefined-- 42.719
1.76 --undefined-- 43.606
1.77 --undefined-- 44.305
1.78 --undefined-- 44.406
1.79 --undefined-- 44.421
1.80 --undefined-- 44.880
1.81 --undefined-- 45.263
1.82 --undefined-- 45.263
1.83 --undefined-- 44.585
1.84 --undefined-- 43.626
1.85 --undefined-- 42.454
1.86 --undefined-- 40.868
1.87 --undefined-- 39.174
1.88 --undefined-- 37.181
1.89 --undefined-- 34.227
1.90 --undefined-- 30.465
1.91 --undefined-- 29.488
1.92 --undefined-- 28.704
1.93 --undefined-- 25.798
1.94 --undefined-- 31.240
1.95 --undefined-- 42.262
1.96 --undefined-- 49.194
1.97 --undefined-- 53.413
1.98 --undefined-- 56.787
1.99 --undefined-- 61.547
2.00 287.356 69.523
2.01 275.663 75.014
2.02 275.693 77.385
2.03 278.823 77.644
2.04 282.598 77.075
2.05 287.222 76.534
2.06 291.501 76.137
2.07 294.126 75.589
2.08 293.719 74.358
2.09 288.252 71.977
2.10 247.472 69.099
2.11 241.774 67.886
2.12 249.305 69.041
2.13 259.866 71.369
2.14 257.680 73.244
2.15 241.511 74.653
2.16 227.562 75.722
2.17 215.941 76.014
2.18 203.957 75.413
2.19 193.531 74.306
2.20 185.332 72.707
2.21 176.181 69.735
2.22 153.647 64.937
2.23 142.167 59.485
2.24 150.530 54.630
2.25 --undefined-- 50.695
2.26 --undefined-- 46.972
2.27 --undefined-- 43.773
2.28 --undefined-- 41.557
2.29 --undefined-- 42.615
2.30 --undefined-- 51.990
2.31 --undefined-- 58.653
2.32 --undefined-- 63.025
2.33 169.858 66.761
2.34 168.252 69.514
2.35 166.008 70.900
2.36 163.138 71.210
2.37 157.637 70.649
2.38 146.346 69.488
2.39 137.960 68.144
2.40 134.916 66.456
2.41 131.559 64.556
2.42 131.021 63.144
2.43 133.707 62.207
2.44 --undefined-- 61.114
2.45 --undefined-- 59.416
2.46 --undefined-- 57.023
2.47 149.958 55.631
2.48 151.675 56.704
2.49 144.675 57.727
2.50 148.016 57.868
2.51 152.908 57.459
2.52 --undefined-- 56.743
2.53 --undefined-- 55.863
2.54 76.802 54.838
2.55 80.441 52.666
2.56 --undefined-- 48.387
2.57 --undefined-- 43.141
2.58 --undefined-- 42.457
2.59 --undefined-- 45.829
2.60 --undefined-- 49.119
2.61 --undefined-- 50.503
2.62 --undefined-- 53.086
2.63 --undefined-- 57.652
2.64 --undefined-- 60.326
2.65 --undefined-- 60.493
2.66 --undefined-- 59.403
2.67 --undefined-- 60.438
2.68 --undefined-- 64.702
2.69 189.962 69.020
2.70 190.070 71.597
2.71 185.226 72.765
2.72 180.898 73.477
2.73 178.715 74.067
2.74 175.964 74.271
2.75 172.662 73.830
2.76 170.560 72.727
2.77 169.342 71.535
2.78 169.653 71.215
2.79 171.308 71.676
2.80 173.620 71.868
2.81 176.275 71.516
2.82 178.230 71.089
2.83 179.273 70.661
2.84 179.050 69.785
2.85 174.296 67.998
2.86 163.564 64.832
2.87 162.202 59.913
2.88 --undefined-- 53.470
2.89 --undefined-- 47.850
2.90 --undefined-- 45.638
2.91 --undefined-- 43.747
2.92 --undefined-- 41.819
2.93 --undefined-- 40.032
2.94 --undefined-- 37.844
2.95 --undefined-- 37.727
2.96 --undefined-- 38.409
2.97 --undefined-- 38.741
2.98 --undefined-- 39.085
2.99 --undefined-- 39.186
3.00 --undefined-- 39.177
3.01 --undefined-- 39.681
3.02 --undefined-- 40.202
3.03 --undefined-- 40.455
3.04 --undefined-- 40.628
3.05 --undefined-- 39.985
3.06 --undefined-- 38.907
3.07 --undefined-- 39.222
3.08 --undefined-- 40.840
3.09 --undefined-- 40.965
3.10 --undefined-- 38.034
3.11 --undefined-- 33.894
3.12 --undefined-- 33.618
3.13 --undefined-- 39.740
3.14 --undefined-- 48.936
3.15 --undefined-- 55.376
3.16 --undefined-- 60.112
3.17 --undefined-- 63.547
3.18 --undefined-- 67.422
3.19 230.176 72.562
3.20 234.995 76.028
3.21 233.393 77.533
3.22 233.708 78.036
3.23 236.423 77.894
3.24 240.719 76.854
3.25 243.770 74.860
3.26 237.775 72.103
3.27 220.206 68.736
3.28 200.749 65.355
3.29 200.208 62.505
3.30 202.433 59.271
3.31 246.845 62.356
3.32 253.399 69.246
3.33 253.231 73.662
3.34 250.783 75.843
3.35 246.783 76.353
3.36 243.617 75.980
3.37 242.328 75.590
3.38 241.931 75.484
3.39 242.244 75.514
3.40 242.696 75.547
3.41 243.182 75.504
3.42 244.533 75.196
3.43 243.602 74.078
3.44 236.965 71.420
3.45 233.029 66.747
3.46 228.891 60.523
3.47 239.800 56.052
3.48 --undefined-- 54.468
3.49 --undefined-- 53.206
3.50 --undefined-- 51.698
3.51 --undefined-- 51.307
3.52 --undefined-- 53.043
3.53 --undefined-- 54.847
3.54 --undefined-- 56.211
3.55 --undefined-- 59.639
3.56 223.215 65.641
3.57 221.595 70.116
3.58 202.187 72.795
3.59 190.355 74.503
3.60 182.379 75.312
3.61 177.886 75.140
3.62 179.385 74.563
3.63 183.903 74.251
3.64 188.247 74.198
3.65 192.080 74.032
3.66 197.576 73.645
3.67 205.068 73.419
3.68 214.261 73.420
3.69 224.761 73.019
3.70 235.438 72.109
3.71 238.906 70.755
3.72 230.791 68.179
3.73 218.453 63.602
3.74 --undefined-- 58.513
3.75 --undefined-- 58.575
3.76 --undefined-- 60.473
3.77 --undefined-- 61.643
3.78 --undefined-- 63.623
3.79 263.559 69.542
3.80 276.342 74.400
3.81 283.929 76.898
3.82 287.137 77.704
3.83 283.936 77.689
3.84 279.281 77.362
3.85 278.827 76.671
3.86 280.789 75.636
3.87 282.131 74.568
3.88 281.798 73.565
3.89 279.826 72.449
3.90 272.724 71.578
3.91 266.442 71.417
3.92 260.995 71.337
3.93 254.854 71.099
3.94 246.642 70.996
3.95 236.868 71.186
3.96 230.634 71.816
3.97 212.139 72.633
3.98 199.397 73.109
3.99 193.912 73.299
4.00 187.413 73.144
4.01 182.919 72.803
4.02 180.109 72.425
4.03 177.643 72.244
4.04 177.702 72.538
4.05 178.802 72.986
4.06 180.194 73.090
4.07 183.365 72.537
4.08 186.657 70.931
4.09 184.472 67.995
4.10 179.862 64.418
4.11 185.741 60.993
4.12 188.210 56.585
4.13 --undefined-- 50.987
4.14 --undefined-- 50.466
4.15 --undefined-- 58.337
4.16 --undefined-- 64.935
4.17 205.013 69.476
4.18 193.428 72.791
4.19 185.905 75.016
4.20 180.229 75.887
4.21 175.956 75.613
4.22 171.233 74.977
4.23 166.373 74.554
4.24 163.484 74.078
4.25 159.697 73.195
4.26 160.865 72.101
4.27 164.070 71.111
4.28 166.573 70.166
4.29 172.713 68.992
4.30 182.077 67.588
4.31 182.518 66.229
4.32 167.438 64.600
4.33 166.297 62.324
4.34 204.549 60.006
4.35 200.913 58.876
4.36 197.048 58.250
4.37 188.342 55.970
4.38 --undefined-- 50.971
4.39 --undefined-- 43.211
4.40 --undefined-- 42.959
4.41 --undefined-- 49.270
4.42 --undefined-- 53.060
4.43 --undefined-- 57.084
4.44 --undefined-- 61.781
4.45 --undefined-- 64.386
4.46 --undefined-- 65.052
4.47 171.196 67.024
4.48 174.195 69.931
4.49 176.685 71.662
4.50 175.198 72.182
4.51 171.090 71.876
4.52 166.671 71.159
4.53 162.617 70.175
4.54 159.787 68.517
4.55 156.427 65.455
4.56 158.225 60.550
4.57 163.420 54.296
4.58 --undefined-- 48.308
4.59 --undefined-- 45.838
4.60 --undefined-- 49.748
4.61 --undefined-- 53.908
4.62 --undefined-- 59.109
4.63 180.526 65.296
4.64 178.635 69.275
4.65 174.345 70.686
4.66 165.984 70.459
4.67 158.315 69.664
4.68 150.303 68.652
4.69 145.538 67.533
4.70 147.851 66.381
4.71 150.806 65.369
4.72 154.356 65.006
4.73 154.525 65.614
4.74 156.387 66.614
4.75 159.314 67.533
4.76 163.644 68.155
4.77 168.114 68.001
4.78 172.229 66.320
4.79 173.306 62.215
4.80 --undefined-- 55.013
4.81 --undefined-- 47.376
4.82 --undefined-- 46.035
4.83 --undefined-- 44.713
4.84 --undefined-- 41.039
4.85 --undefined-- 38.907
4.86 --undefined-- 52.834
4.87 --undefined-- 63.722
4.88 --undefined-- 69.916
4.89 --undefined-- 72.278
4.90 --undefined-- 71.497
4.91 --undefined-- 68.382
4.92 --undefined-- 64.579
4.93 --undefined-- 62.127
4.94 --undefined-- 61.035
4.95 --undefined-- 60.798
4.96 --undefined-- 60.978
4.97 --undefined-- 61.644
4.98 --undefined-- 63.242
4.99 163.135 64.539
5.00 166.119 65.113
5.01 164.707 65.977
5.02 160.511 67.205
5.03 156.760 68.194
5.04 154.485 68.807
5.05 152.471 68.978
5.06 150.486 68.524
5.07 150.039 67.210
5.08 147.883 64.842
5.09 149.896 62.227
5.10 154.522 61.097
5.11 156.494 61.273
5.12 163.007 62.858
5.13 168.043 64.976
5.14 164.646 66.800
5.15 164.797 68.493
5.16 162.117 69.835
5.17 159.523 70.366
5.18 156.202 69.911
5.19 153.759 69.262
5.20 151.752 69.067
5.21 150.437 68.799
5.22 151.396 68.116
5.23 154.313 67.095
5.24 156.545 65.587
5.25 156.220 63.348
5.26 155.146 60.846
5.27 88.694 59.327
5.28 88.650 59.338
5.29 89.548 60.234
5.30 174.829 60.585
5.31 174.772 59.467
5.32 175.368 56.455
5.33 --undefined-- 51.260
5.34 --undefined-- 45.241
5.35 --undefined-- 48.463
5.36 --undefined-- 54.542
5.37 --undefined-- 58.235
5.38 --undefined-- 62.972
5.39 176.458 67.632
5.40 176.142 70.083
5.41 173.660 70.682
5.42 163.358 70.816
5.43 160.891 71.395
5.44 159.185 71.738
5.45 156.951 71.500
5.46 155.858 70.973
5.47 155.686 70.443
5.48 157.323 69.962
5.49 158.172 69.324
5.50 157.730 --undefined--
5.51 156.458 --undefined--
5.52 --undefined-- --undefined--
5.53 --undefined-- --undefined--
