Time Pitch Intensity
0.01 --undefined-- --undefined--
0.02 192.553 --undefined--
0.03 193.278 --undefined--
0.04 193.482 --undefined--
0.05 192.522 70.698
0.06 190.008 71.196
0.07 186.855 71.768
0.08 183.901 72.153
0.09 179.926 72.123
0.10 174.109 71.682
0.11 165.027 71.557
0.12 160.060 72.109
0.13 153.792 71.941
0.14 290.997 70.807
0.15 274.083 69.710
0.16 268.892 69.376
0.17 266.834 70.296
0.18 268.145 71.494
0.19 269.046 71.904
0.20 268.598 71.315
0.21 271.737 70.488
0.22 282.983 70.147
0.23 289.742 70.276
0.24 151.204 70.978
0.25 155.108 71.769
0.26 157.000 72.026
0.27 160.834 72.261
0.28 163.551 72.649
0.29 166.214 72.431
0.30 169.418 71.462
0.31 170.676 69.838
0.32 172.954 67.464
0.33 171.196 64.703
0.34 165.676 61.857
0.35 168.301 59.370
0.36 170.138 57.385
0.37 170.790 57.757
0.38 --undefined-- 58.750
0.39 --undefined-- 57.156
0.40 --undefined-- 53.832
0.41 --undefined-- 57.464
0.42 247.699 63.234
0.43 218.786 66.546
0.44 207.256 68.095
0.45 185.889 68.689
0.46 183.130 68.565
0.47 180.632 67.900
0.48 181.616 67.564
0.49 181.541 67.494
0.50 179.828 67.031
0.51 178.058 66.421
0.52 176.489 66.057
0.53 175.483 65.899
0.54 174.705 66.593
0.55 171.016 67.776
0.56 169.076 68.143
0.57 166.929 67.877
0.58 165.652 67.512
0.59 165.823 66.695
0.60 167.631 65.890
0.61 169.577 66.170
0.62 171.207 66.782
0.63 172.980 66.848
0.64 173.766 66.874
0.65 176.690 67.751
0.66 183.054 69.387
0.67 187.012 71.036
0.68 192.051 71.417
0.69 197.161 69.619
0.70 204.751 65.407
0.71 195.535 60.128
0.72 193.174 56.480
0.73 190.163 52.804
0.74 --undefined-- 50.604
0.75 --undefined-- 52.247
0.76 --undefined-- 53.497
0.77 243.546 56.972
0.78 245.057 60.987
0.79 246.013 62.885
0.80 240.238 63.422
0.81 205.611 63.731
0.82 178.689 64.008
0.83 169.872 63.792
0.84 165.034 63.227
0.85 164.317 62.752
0.86 164.356 62.170
0.87 164.451 61.441
0.88 165.531 60.944
0.89 164.466 61.154
0.90 164.064 61.586
0.91 164.510 61.392
0.92 165.169 60.982
0.93 165.678 61.016
0.94 167.212 61.787
0.95 167.790 63.181
0.96 167.977 64.691
0.97 168.546 66.498
0.98 168.664 68.495
0.99 168.344 70.023
1.00 168.655 70.979
1.01 169.858 71.731
1.02 170.738 72.487
1.03 170.997 72.954
1.04 171.981 72.863
1.05 174.767 72.025
1.06 180.448 70.900
1.07 189.008 70.455
1.08 192.787 70.348
1.09 193.605 70.360
1.10 192.611 70.111
1.11 193.267 68.615
1.12 193.410 66.002
1.13 191.238 64.491
1.14 189.123 65.252
1.15 191.024 67.209
1.16 192.521 69.418
1.17 192.899 71.483
1.18 191.087 73.424
1.19 189.800 74.801
1.20 188.434 75.260
1.21 187.042 74.904
1.22 186.314 74.025
1.23 187.378 72.810
1.24 188.754 71.335
1.25 189.391 69.864
1.26 189.783 68.591
1.27 190.454 67.644
1.28 190.925 67.018
1.29 191.508 66.760
1.30 192.362 66.738
1.31 192.469 66.501
1.32 190.420 65.449
1.33 191.201 64.478
1.34 212.185 65.894
1.35 222.434 67.496
1.36 224.629 68.247
1.37 230.413 69.149
1.38 233.822 70.118
1.39 236.477 70.059
1.40 237.927 68.791
1.41 239.731 67.808
1.42 246.125 67.870
1.43 249.252 68.119
1.44 251.738 68.487
1.45 253.157 68.811
1.46 253.338 69.006
1.47 252.981 69.181
1.48 252.639 69.403
1.49 251.178 70.448
1.50 249.535 72.401
1.51 246.549 73.855
1.52 242.140 74.628
1.53 238.767 75.011
1.54 235.366 75.105
1.55 232.642 74.910
1.56 230.327 74.313
1.57 229.856 73.504
1.58 230.402 72.579
1.59 231.284 71.105
1.60 231.687 68.550
1.61 231.020 65.078
1.62 231.442 61.237
1.63 231.135 56.908
1.64 231.566 53.412
1.65 231.109 53.343
1.66 268.176 56.584
1.67 264.535 58.124
1.68 266.138 56.384
1.69 267.268 52.777
1.70 --undefined-- 51.978
1.71 --undefined-- 54.891
1.72 --undefined-- 57.631
1.73 --undefined-- 58.165
1.74 --undefined-- 56.197
1.75 --undefined-- 52.064
1.76 --undefined-- 49.510
1.77 --undefined-- 50.408
1.78 --undefined-- 51.559
1.79 --undefined-- 51.683
1.80 --undefined-- 50.695
1.81 --undefined-- 50.409
1.82 --undefined-- 50.808
1.83 --undefined-- 51.057
1.84 --undefined-- 51.860
1.85 --undefined-- 51.813
1.86 --undefined-- 51.508
1.87 --undefined-- 52.106
1.88 --undefined-- 51.740
1.89 --undefined-- 50.743
1.90 --undefined-- 51.869
1.91 --undefined-- 53.770
1.92 --undefined-- 53.816
1.93 --undefined-- 52.764
1.94 --undefined-- 53.675
1.95 --undefined-- 54.060
1.96 --undefined-- 57.195
1.97 --undefined-- 64.611
1.98 172.417 69.579
1.99 168.594 72.087
2.00 169.750 73.493
2.01 172.561 74.480
2.02 173.766 74.921
2.03 174.688 75.107
2.04 176.255 75.625
2.05 177.965 76.537
2.06 179.104 77.149
2.07 179.052 76.813
2.08 176.818 75.381
2.09 171.811 73.369
2.10 169.416 71.894
2.11 168.707 71.062
2.12 168.355 70.386
2.13 166.799 70.000
2.14 169.218 69.916
2.15 174.306 69.793
2.16 180.544 69.759
2.17 183.352 70.328
2.18 180.456 71.051
2.19 175.461 71.491
2.20 173.465 72.021
2.21 170.829 72.986
2.22 166.450 74.173
2.23 --undefined-- 74.918
2.24 --undefined-- 74.802
2.25 --undefined-- 73.784
2.26 --undefined-- 72.188
2.27 --undefined-- 70.594
2.28 --undefined-- 69.242
2.29 --undefined-- 67.084
2.30 --undefined-- 63.308
2.31 --undefined-- 59.341
2.32 --undefined-- 58.579
2.33 --undefined-- 60.178
2.34 --undefined-- 62.151
2.35 197.037 64.174
2.36 199.141 65.642
2.37 194.527 66.214
2.38 192.285 66.506
2.39 189.660 66.849
2.40 186.222 67.155
2.41 185.655 67.492
2.42 185.559 67.732
2.43 185.667 67.791
2.44 186.007 67.799
2.45 185.639 67.836
2.46 185.309 67.811
2.47 185.859 67.815
2.48 190.546 68.364
2.49 192.252 69.214
2.50 194.695 69.679
2.51 198.600 69.602
2.52 203.413 69.105
2.53 209.616 68.756
2.54 215.950 69.390
2.55 222.298 70.709
2.56 231.443 71.845
2.57 237.663 72.326
2.58 241.054 71.887
2.59 247.106 70.475
2.60 255.611 68.987
2.61 256.780 68.791
2.62 256.594 68.649
2.63 253.870 67.598
2.64 248.039 65.964
2.65 241.933 63.944
2.66 235.694 61.624
2.67 236.317 60.476
2.68 249.976 62.700
2.69 264.977 65.806
2.70 269.384 67.718
2.71 271.877 68.451
2.72 271.457 68.578
2.73 270.499 68.410
2.74 270.949 67.903
2.75 272.337 66.709
2.76 270.173 64.250
2.77 246.496 61.028
2.78 247.800 59.065
2.79 267.880 57.662
2.80 272.395 60.180
2.81 177.499 66.186
2.82 176.971 70.138
2.83 170.389 71.588
2.84 170.672 71.616
2.85 170.751 71.457
2.86 170.563 71.148
2.87 168.656 70.280
2.88 165.658 68.657
2.89 162.279 65.831
2.90 168.254 61.666
2.91 170.846 57.883
2.92 170.748 55.263
2.93 171.091 52.675
2.94 --undefined-- 51.103
2.95 --undefined-- 52.065
2.96 --undefined-- 58.852
2.97 --undefined-- 66.208
2.98 --undefined-- 70.925
2.99 --undefined-- 73.251
3.00 184.419 73.500
3.01 184.258 71.979
3.02 182.341 69.424
3.03 179.598 66.226
3.04 --undefined-- 62.966
3.05 --undefined-- 60.416
3.06 --undefined-- 57.308
3.07 --undefined-- 54.722
3.08 --undefined-- 54.687
3.09 --undefined-- 57.937
3.10 --undefined-- 60.922
3.11 --undefined-- 61.808
3.12 --undefined-- 61.389
3.13 99.109 61.665
3.14 99.857 63.032
3.15 199.886 64.363
3.16 198.389 65.248
3.17 196.185 65.836
3.18 194.317 66.282
3.19 193.182 66.946
3.20 192.593 68.679
3.21 192.372 70.925
3.22 189.083 72.541
3.23 187.741 73.423
3.24 187.785 73.835
3.25 188.782 73.952
3.26 189.679 73.811
3.27 189.468 73.516
3.28 188.651 73.154
3.29 187.648 72.867
3.30 187.241 72.696
3.31 188.587 72.430
3.32 190.142 71.984
3.33 190.708 71.369
3.34 190.461 70.551
3.35 95.944 69.784
3.36 95.200 68.920
3.37 --undefined-- 67.318
3.38 --undefined-- 65.238
3.39 --undefined-- 63.796
3.40 --undefined-- 62.894
3.41 --undefined-- 62.683
3.42 --undefined-- 62.575
3.43 --undefined-- 61.020
3.44 --undefined-- 58.404
3.45 --undefined-- 55.652
3.46 --undefined-- 52.229
3.47 --undefined-- 49.795
3.48 --undefined-- 49.951
3.49 --undefined-- 51.405
3.50 --undefined-- 55.748
3.51 207.542 60.900
3.52 194.042 65.076
3.53 191.322 68.056
3.54 189.531 70.203
3.55 187.729 71.881
3.56 186.963 72.742
3.57 188.766 72.323
3.58 193.816 70.970
3.59 197.926 69.566
3.60 206.826 68.586
3.61 215.414 68.785
3.62 218.022 70.040
3.63 219.381 70.586
3.64 222.854 69.574
3.65 234.812 67.612
3.66 232.632 66.310
3.67 231.397 66.167
3.68 230.765 66.318
3.69 229.641 66.501
3.70 227.562 67.044
3.71 223.944 67.845
3.72 220.263 68.603
3.73 213.843 69.074
3.74 211.063 69.052
3.75 209.518 68.291
3.76 205.404 66.549
3.77 196.765 63.797
3.78 188.648 60.277
3.79 193.366 56.472
3.80 --undefined-- 53.931
3.81 --undefined-- 51.985
3.82 --undefined-- 48.592
3.83 --undefined-- 46.601
3.84 --undefined-- 47.595
3.85 --undefined-- 48.629
3.86 --undefined-- 50.655
3.87 --undefined-- 55.359
3.88 241.338 59.421
3.89 225.862 61.595
3.90 225.552 62.648
3.91 229.022 63.387
3.92 236.191 64.538
3.93 242.296 66.682
3.94 246.911 69.478
3.95 251.343 72.240
3.96 253.370 74.068
3.97 251.218 74.402
3.98 246.991 73.834
3.99 245.964 73.580
4.00 246.480 73.778
4.01 247.190 74.215
4.02 248.106 74.872
4.03 248.319 75.494
4.04 248.525 75.761
4.05 249.684 75.272
4.06 252.044 73.949
4.07 253.299 72.229
4.08 255.645 70.268
4.09 257.812 68.448
4.10 259.191 67.465
4.11 258.743 67.218
4.12 258.807 67.017
4.13 259.813 66.699
4.14 259.136 66.531
4.15 257.705 66.616
4.16 255.826 66.649
4.17 252.699 66.018
4.18 245.664 64.637
4.19 237.008 63.086
4.20 250.678 60.688
4.21 --undefined-- 56.143
4.22 --undefined-- 51.244
4.23 --undefined-- 55.598
4.24 240.576 60.886
4.25 215.828 64.179
4.26 201.974 66.868
4.27 196.243 69.694
4.28 193.988 71.969
4.29 191.301 73.388
4.30 188.207 73.975
4.31 185.451 73.963
4.32 185.747 73.994
4.33 189.641 74.266
4.34 190.721 74.061
4.35 190.659 73.124
4.36 190.690 71.825
4.37 190.791 70.341
4.38 190.167 68.777
4.39 189.479 67.002
4.40 188.712 64.223
4.41 188.433 59.370
4.42 188.641 53.282
4.43 188.658 52.084
4.44 --undefined-- 57.851
4.45 --undefined-- 63.181
4.46 192.857 66.304
4.47 183.369 67.913
4.48 174.581 68.500
4.49 169.606 68.169
4.50 168.650 67.270
4.51 168.455 66.348
4.52 169.368 65.997
4.53 170.331 66.204
4.54 172.953 65.986
4.55 173.686 65.283
4.56 174.389 64.389
4.57 175.797 63.111
4.58 175.673 61.678
4.59 173.828 60.263
4.60 170.753 58.737
4.61 171.087 58.910
4.62 173.284 60.460
4.63 176.914 61.716
4.64 182.088 63.069
4.65 185.104 64.816
4.66 186.644 66.542
4.67 186.156 68.201
4.68 184.771 69.911
4.69 183.839 71.144
4.70 183.547 71.582
4.71 182.738 70.988
4.72 181.624 68.929
4.73 183.213 65.210
4.74 182.665 60.982
4.75 183.324 57.362
4.76 189.113 54.403
4.77 --undefined-- 54.875
4.78 --undefined-- 59.436
4.79 239.887 65.269
4.80 236.840 69.327
4.81 236.760 71.740
4.82 238.252 72.892
4.83 241.371 73.338
4.84 246.011 73.452
4.85 251.865 73.300
4.86 256.504 72.969
4.87 258.405 72.619
4.88 261.136 72.394
4.89 263.725 71.972
4.90 266.492 71.134
4.91 268.242 69.794
4.92 269.199 68.196
4.93 268.716 67.112
4.94 268.887 66.577
4.95 268.434 66.611
4.96 269.180 67.332
4.97 269.504 67.854
4.98 269.352 --undefined--
4.99 268.952 --undefined--
5.00 --undefined-- --undefined--
5.01 --undefined-- --undefined--
