Time Pitch Intensity
0.01 --undefined-- --undefined--
0.02 --undefined-- --undefined--
0.03 --undefined-- --undefined--
0.04 --undefined-- --undefined--
0.05 --undefined-- 62.792
0.06 --undefined-- 67.535
0.07 --undefined-- 69.855
0.08 --undefined-- 69.377
0.09 --undefined-- 69.776
0.10 --undefined-- 74.152
0.11 130.077 77.006
0.12 112.407 77.678
0.13 110.508 77.485
0.14 107.924 77.367
0.15 104.360 77.294
0.16 103.835 77.130
0.17 104.359 76.999
0.18 107.351 77.081
0.19 110.675 77.379
0.20 113.423 77.815
0.21 115.755 78.127
0.22 117.455 78.193
0.23 119.372 78.136
0.24 121.855 78.059
0.25 124.483 77.981
0.26 125.873 77.923
0.27 127.053 77.926
0.28 128.404 77.941
0.29 127.061 77.846
0.30 126.321 77.857
0.31 123.184 78.342
0.32 119.152 78.912
0.33 117.496 79.151
0.34 114.896 79.289
0.35 112.121 79.459
0.36 110.037 79.515
0.37 108.210 79.394
0.38 108.407 79.254
0.39 109.512 79.094
0.40 111.836 78.724
0.41 113.906 77.908
0.42 116.329 76.800
0.43 118.770 76.189
0.44 120.013 76.183
0.45 121.602 76.247
0.46 121.616 76.148
0.47 122.371 75.681
0.48 121.601 74.437
0.49 118.526 72.076
0.50 115.557 70.287
0.51 131.508 72.919
0.52 131.681 76.381
0.53 123.716 78.214
0.54 126.069 78.676
0.55 126.783 78.609
0.56 128.523 78.483
0.57 130.971 78.454
0.58 132.159 78.434
0.59 134.885 78.269
0.60 138.150 78.077
0.61 142.261 77.929
0.62 145.667 77.568
0.63 148.106 76.194
0.64 146.324 72.708
0.65 170.691 67.150
0.66 161.264 61.899
0.67 157.294 57.721
0.68 --undefined-- 53.761
0.69 --undefined-- 49.802
0.70 --undefined-- 55.976
0.71 --undefined-- 66.873
0.72 --undefined-- 74.191
0.73 143.368 78.000
0.74 135.572 79.104
0.75 127.899 78.651
0.76 120.937 78.010
0.77 116.185 77.592
0.78 112.249 76.922
0.79 106.585 76.038
0.80 106.393 75.285
0.81 104.155 74.425
0.82 99.879 73.056
0.83 94.417 70.988
0.84 --undefined-- 67.764
0.85 --undefined-- 63.135
0.86 --undefined-- 62.146
0.87 --undefined-- 68.533
0.88 110.750 73.295
0.89 106.634 75.740
0.90 102.148 76.650
0.91 103.218 76.994
0.92 104.612 77.284
0.93 107.011 77.537
0.94 109.193 77.675
0.95 112.656 77.601
0.96 113.815 77.281
0.97 117.490 77.118
0.98 124.381 77.194
0.99 128.324 77.066
1.00 133.637 76.850
1.01 138.967 76.956
1.02 142.537 77.320
1.03 145.090 77.196
1.04 147.302 75.776
1.05 151.862 72.451
1.06 157.767 67.116
1.07 --undefined-- 64.095
1.08 --undefined-- 66.405
1.09 --undefined-- 68.293
1.10 --undefined-- 69.712
1.11 --undefined-- 69.692
1.12 --undefined-- 71.166
1.13 137.255 75.079
1.14 122.911 77.372
1.15 114.186 78.128
1.16 109.177 78.307
1.17 107.926 78.250
1.18 108.954 77.793
1.19 107.315 77.272
1.20 115.971 77.277
1.21 119.415 77.513
1.22 122.232 77.677
1.23 126.045 77.859
1.24 133.912 78.166
1.25 134.430 78.337
1.26 135.931 78.355
1.27 136.220 78.435
1.28 136.500 78.535
1.29 137.081 78.468
1.30 135.526 77.981
1.31 132.055 76.815
1.32 125.807 74.489
1.33 118.919 70.746
1.34 --undefined-- 66.710
1.35 --undefined-- 66.494
1.36 --undefined-- 69.673
1.37 100.952 72.802
1.38 109.603 75.077
1.39 117.487 76.485
1.40 118.735 76.960
1.41 115.699 76.228
1.42 113.364 74.038
1.43 108.018 70.425
1.44 106.033 65.756
1.45 114.028 60.617
1.46 --undefined-- 56.106
1.47 --undefined-- 54.053
1.48 --undefined-- 53.608
1.49 --undefined-- 53.752
1.50 --undefined-- 53.605
1.51 --undefined-- 53.513
1.52 --undefined-- 60.647
1.53 --undefined-- 67.797
1.54 --undefined-- 71.481
1.55 101.787 72.972
1.56 104.410 73.678
1.57 105.146 74.339
1.58 104.025 74.980
1.59 102.310 75.331
1.60 101.938 75.421
1.61 102.381 75.407
1.62 106.361 75.641
1.63 112.270 76.443
1.64 118.023 77.588
1.65 123.256 78.557
1.66 127.903 79.132
1.67 133.392 79.432
1.68 140.616 79.716
1.69 148.568 80.063
1.70 158.669 80.301
1.71 169.215 80.394
1.72 175.963 80.107
1.73 179.013 78.696
1.74 178.537 75.575
1.75 176.920 70.398
1.76 177.186 63.518
1.77 174.318 58.490
1.78 173.431 56.304
1.79 --undefined-- 53.870
1.80 --undefined-- 52.881
1.81 --undefined-- 53.176
1.82 --undefined-- 53.061
1.83 --undefined-- 52.913
1.84 --undefined-- 52.987
1.85 --undefined-- 52.386
1.86 --undefined-- 51.353
1.87 --undefined-- 57.135
1.88 --undefined-- 65.452
1.89 130.333 71.250
1.90 128.405 74.977
1.91 126.683 77.090
1.92 122.845 78.032
1.93 119.599 78.421
1.94 117.815 78.781
1.95 118.880 79.210
1.96 122.696 79.469
1.97 123.921 79.577
1.98 125.916 79.595
1.99 122.727 79.528
2.00 121.272 79.568
2.01 119.937 79.539
2.02 119.043 78.972
2.03 117.279 77.799
2.04 111.264 76.210
2.05 106.644 74.298
2.06 103.049 71.756
2.07 108.837 67.671
2.08 121.584 61.551
2.09 --undefined-- 57.468
2.10 --undefined-- 58.416
2.11 --undefined-- 59.693
2.12 --undefined-- 60.417
2.13 --undefined-- 60.773
2.14 --undefined-- 60.932
2.15 --undefined-- 60.698
2.16 --undefined-- 59.962
2.17 --undefined-- 58.951
2.18 --undefined-- 58.238
2.19 --undefined-- 57.997
2.20 --undefined-- 57.868
2.21 --undefined-- 57.985
2.22 --undefined-- 58.368
2.23 --undefined-- 58.527
2.24 --undefined-- 58.459
2.25 --undefined-- 59.128
2.26 183.630 60.327
2.27 184.773 61.097
2.28 168.812 60.834
2.29 162.470 58.800
2.30 161.653 54.764
2.31 --undefined-- 49.032
2.32 --undefined-- 46.565
2.33 --undefined-- 51.395
2.34 --undefined-- 61.156
2.35 --undefined-- 69.937
2.36 203.667 75.389
2.37 204.823 78.256
2.38 204.999 79.315
2.39 205.008 79.272
2.40 203.449 78.165
2.41 197.449 75.303
2.42 172.306 70.665
2.43 172.055 67.171
2.44 176.672 70.096
2.45 183.208 74.797
2.46 180.411 77.785
2.47 175.102 78.785
2.48 170.459 78.569
2.49 163.820 77.834
2.50 157.341 75.971
2.51 143.051 72.447
2.52 150.908 68.592
2.53 154.607 64.993
2.54 --undefined-- 59.675
2.55 --undefined-- 53.691
2.56 --undefined-- 58.399
2.57 --undefined-- 66.991
2.58 --undefined-- 73.953
2.59 171.272 78.219
2.60 157.562 79.875
2.61 151.746 79.906
2.62 148.079 79.533
2.63 145.763 79.045
2.64 142.542 77.706
2.65 138.346 74.809
2.66 134.021 70.213
2.67 140.802 65.517
2.68 148.214 62.902
2.69 149.903 60.205
2.70 --undefined-- 55.880
2.71 --undefined-- 51.350
2.72 --undefined-- 53.802
2.73 --undefined-- 63.770
2.74 --undefined-- 70.163
2.75 --undefined-- 74.432
2.76 196.653 77.858
2.77 181.217 79.707
2.78 177.701 80.102
2.79 176.373 80.064
2.80 175.936 80.135
2.81 176.118 80.289
2.82 175.614 80.466
2.83 174.731 80.564
2.84 174.710 80.479
2.85 175.712 80.335
2.86 177.116 80.185
2.87 178.024 79.729
2.88 177.106 79.013
2.89 176.053 78.633
2.90 175.947 78.673
2.91 175.630 78.379
2.92 172.126 76.415
2.93 165.500 71.848
2.94 176.960 64.970
2.95 174.830 58.859
2.96 180.445 62.684
2.97 --undefined-- 71.532
2.98 --undefined-- 77.011
2.99 196.132 78.988
3.00 184.208 78.579
3.01 180.541 77.579
3.02 178.285 76.203
3.03 171.541 73.005
3.04 161.518 67.085
3.05 174.867 59.152
3.06 175.744 54.019
3.07 --undefined-- 51.727
3.08 --undefined-- 49.673
3.09 --undefined-- 47.588
3.10 --undefined-- 44.916
3.11 --undefined-- 42.530
3.12 --undefined-- 41.498
3.13 --undefined-- 42.192
3.14 --undefined-- 44.862
3.15 --undefined-- 45.718
3.16 --undefined-- 43.665
3.17 --undefined-- 40.537
3.18 --undefined-- 39.007
3.19 --undefined-- 39.327
3.20 --undefined-- 44.687
3.21 --undefined-- 57.221
3.22 --undefined-- 66.000
3.23 --undefined-- 70.994
3.24 120.445 73.411
3.25 114.040 74.362
3.26 111.437 74.737
3.27 109.525 75.071
3.28 109.767 75.556
3.29 110.421 76.178
3.30 112.132 76.907
3.31 113.762 77.686
3.32 115.681 78.369
3.33 117.646 78.824
3.34 118.611 78.885
3.35 117.666 78.329
3.36 115.427 77.044
3.37 114.372 75.229
3.38 117.250 73.716
3.39 121.684 74.283
3.40 125.182 76.689
3.41 126.588 78.617
3.42 126.808 79.400
3.43 125.896 79.510
3.44 124.966 79.349
3.45 123.801 78.983
3.46 121.947 78.619
3.47 121.504 78.630
3.48 121.419 78.818
3.49 120.353 78.672
3.50 118.557 77.992
3.51 116.600 76.971
3.52 115.278 75.884
3.53 115.125 75.164
3.54 116.546 75.370
3.55 119.354 76.007
3.56 118.764 76.028
3.57 118.343 74.847
3.58 --undefined-- 72.162
3.59 --undefined-- 67.705
3.60 --undefined-- 61.111
3.61 --undefined-- 54.100
3.62 --undefined-- 50.621
3.63 --undefined-- 48.707
3.64 --undefined-- 48.203
3.65 --undefined-- 48.044
3.66 --undefined-- 48.339
3.67 --undefined-- 50.163
3.68 --undefined-- 54.306
3.69 --undefined-- 57.446
3.70 --undefined-- 62.411
3.71 --undefined-- 69.377
3.72 146.367 73.818
3.73 133.403 75.913
3.74 127.778 76.864
3.75 125.459 77.632
3.76 125.939 78.197
3.77 124.823 77.996
3.78 121.496 76.563
3.79 119.762 73.218
3.80 100.250 67.437
3.81 121.285 60.431
3.82 122.684 55.635
3.83 --undefined-- 58.605
3.84 --undefined-- 65.224
3.85 --undefined-- 70.642
3.86 --undefined-- 75.353
3.87 119.108 77.995
3.88 119.544 78.539
3.89 117.376 77.938
3.90 113.233 76.975
3.91 109.448 76.250
3.92 109.492 76.202
3.93 109.400 76.226
3.94 106.693 75.986
3.95 103.490 75.918
3.96 101.887 76.033
3.97 101.208 75.977
3.98 100.539 75.550
3.99 99.284 74.846
4.00 98.763 74.261
4.01 91.351 73.984
4.02 91.868 73.731
4.03 91.030 73.383
4.04 91.414 72.705
4.05 89.921 71.212
4.06 89.138 70.166
4.07 97.079 71.142
4.08 96.049 72.491
4.09 98.745 73.524
4.10 102.130 74.228
4.11 103.146 74.736
4.12 102.488 75.124
4.13 102.086 75.106
4.14 100.847 74.100
4.15 96.098 71.691
4.16 92.756 67.561
4.17 99.971 61.465
4.18 --undefined-- 53.784
4.19 --undefined-- 50.862
4.20 --undefined-- 50.722
4.21 --undefined-- 49.870
4.22 --undefined-- 49.502
4.23 --undefined-- 49.880
4.24 --undefined-- 50.003
4.25 --undefined-- 51.158
4.26 --undefined-- 58.591
4.27 --undefined-- 64.885
4.28 101.935 68.494
4.29 104.414 70.821
4.30 105.865 72.712
4.31 107.261 74.244
4.32 109.363 75.330
4.33 111.558 76.111
4.34 112.465 76.811
4.35 115.564 77.680
4.36 120.606 78.653
4.37 124.541 79.274
4.38 126.414 78.937
4.39 127.455 78.075
4.40 137.376 78.534
4.41 142.981 79.617
4.42 145.890 79.980
4.43 147.102 79.896
4.44 147.278 79.767
4.45 145.359 79.476
4.46 141.885 78.891
4.47 137.827 77.820
4.48 131.777 75.923
4.49 128.261 72.780
4.50 119.740 67.738
4.51 --undefined-- 60.395
4.52 --undefined-- 53.920
4.53 --undefined-- 53.254
4.54 --undefined-- 54.440
4.55 --undefined-- 55.769
4.56 --undefined-- 56.174
4.57 --undefined-- 56.194
4.58 --undefined-- 56.880
4.59 --undefined-- 57.481
4.60 --undefined-- 57.102
4.61 --undefined-- 56.704
4.62 --undefined-- 57.498
4.63 --undefined-- 58.335
4.64 --undefined-- 58.681
4.65 196.006 59.221
4.66 195.914 60.473
4.67 177.217 61.420
4.68 176.756 61.021
4.69 176.534 59.389
4.70 169.296 56.916
4.71 162.880 54.084
4.72 --undefined-- 50.752
4.73 --undefined-- 47.299
4.74 --undefined-- 46.997
4.75 --undefined-- 47.304
4.76 --undefined-- 46.500
4.77 --undefined-- 46.668
4.78 --undefined-- 50.367
4.79 --undefined-- 59.736
4.80 --undefined-- 69.433
4.81 --undefined-- 75.301
4.82 150.699 77.672
4.83 137.067 78.012
4.84 134.340 77.876
4.85 131.811 77.726
4.86 130.424 77.400
4.87 130.672 76.930
4.88 131.682 76.587
4.89 134.868 76.805
4.90 139.441 77.471
4.91 143.197 78.075
4.92 148.725 78.364
4.93 154.273 78.415
4.94 159.326 78.476
4.95 163.771 78.657
4.96 168.592 78.744
4.97 173.376 78.466
4.98 180.472 78.185
4.99 186.587 78.577
5.00 191.951 79.203
5.01 199.234 79.356
5.02 203.215 78.657
5.03 203.226 76.282
5.04 --undefined-- 71.364
5.05 --undefined-- 63.977
5.06 --undefined-- 56.279
5.07 --undefined-- 52.124
5.08 --undefined-- 50.690
5.09 --undefined-- 49.567
5.10 --undefined-- 56.021
5.11 --undefined-- 66.813
5.12 --undefined-- 72.913
5.13 --undefined-- 74.962
5.14 136.690 74.055
5.15 134.026 72.289
5.16 131.754 --undefined--
5.17 130.526 --undefined--
5.18 --undefined-- --undefined--
5.19 --undefined-- --undefined--
