Time Pitch Intensity
0.01 --undefined-- --undefined--
0.02 --undefined-- --undefined--
0.03 --undefined-- --undefined--
0.04 --undefined-- --undefined--
0.05 --undefined-- 62.409
0.06 170.889 70.496
0.07 161.817 75.242
0.08 152.538 77.395
0.09 149.966 77.892
0.10 147.543 77.793
0.11 146.860 77.677
0.12 146.930 77.558
0.13 146.978 77.183
0.14 145.704 76.054
0.15 143.838 73.968
0.16 145.868 71.246
0.17 151.625 68.025
0.18 152.431 65.507
0.19 140.628 64.765
0.20 140.984 64.415
0.21 141.996 67.593
0.22 130.601 71.052
0.23 119.846 72.330
0.24 115.128 71.921
0.25 104.849 70.557
0.26 102.170 68.980
0.27 92.720 68.169
0.28 95.123 68.148
0.29 95.921 68.486
0.30 97.598 68.885
0.31 99.407 69.110
0.32 100.908 69.049
0.33 102.453 68.481
0.34 95.935 66.861
0.35 96.086 64.323
0.36 97.043 62.664
0.37 97.120 64.072
0.38 107.259 68.343
0.39 117.629 71.651
0.40 111.242 73.387
0.41 112.200 74.359
0.42 115.117 75.261
0.43 120.406 76.187
0.44 123.851 76.732
0.45 127.383 76.676
0.46 137.297 76.513
0.47 141.114 75.941
0.48 140.706 73.996
0.49 146.440 71.291
0.50 146.360 69.290
0.51 144.085 66.598
0.52 155.763 63.161
0.53 159.403 64.646
0.54 162.516 70.835
0.55 160.194 75.290
0.56 152.082 77.210
0.57 146.505 77.447
0.58 142.186 77.072
0.59 137.130 76.400
0.60 133.833 74.905
0.61 127.436 72.250
0.62 127.396 69.676
0.63 124.477 68.995
0.64 132.463 71.860
0.65 131.495 75.166
0.66 126.238 76.723
0.67 123.062 77.240
0.68 121.331 77.469
0.69 120.276 77.535
0.70 119.861 77.341
0.71 118.947 76.832
0.72 118.866 76.192
0.73 118.605 75.509
0.74 117.199 74.756
0.75 115.775 73.952
0.76 114.733 72.913
0.77 110.610 71.136
0.78 107.277 68.129
0.79 104.284 63.557
0.80 93.293 57.595
0.81 116.635 52.882
0.82 --undefined-- 51.298
0.83 --undefined-- 51.240
0.84 --undefined-- 52.233
0.85 --undefined-- 53.073
0.86 --undefined-- 53.499
0.87 --undefined-- 54.073
0.88 --undefined-- 54.845
0.89 --undefined-- 55.275
0.90 --undefined-- 55.582
0.91 --undefined-- 55.733
0.92 --undefined-- 55.262
0.93 --undefined-- 54.697
0.94 --undefined-- 54.342
0.95 --undefined-- 53.971
0.96 --undefined-- 53.538
0.97 --undefined-- 52.810
0.98 --undefined-- 51.886
0.99 --undefined-- 51.201
1.00 --undefined-- 50.515
1.01 --undefined-- 49.485
1.02 --undefined-- 48.704
1.03 --undefined-- 48.405
1.04 --undefined-- 48.401
1.05 --undefined-- 48.228
1.06 --undefined-- 46.576
1.07 --undefined-- 43.487
1.08 --undefined-- 40.172
1.09 --undefined-- 37.631
1.10 --undefined-- 37.435
1.11 --undefined-- 38.730
1.12 --undefined-- 40.493
1.13 --undefined-- 45.709
1.14 --undefined-- 54.969
1.15 165.499 61.325
1.16 149.019 64.965
1.17 145.891 67.678
1.18 142.973 71.580
1.19 147.146 75.575
1.20 147.012 77.658
1.21 143.966 77.494
1.22 132.952 76.253
1.23 130.924 76.090
1.24 133.465 76.406
1.25 134.468 76.076
1.26 139.429 75.593
1.27 142.741 75.753
1.28 148.288 76.474
1.29 157.795 77.327
1.30 163.720 77.321
1.31 168.999 76.221
1.32 172.860 74.679
1.33 176.975 73.624
1.34 183.863 73.272
1.35 188.574 73.036
1.36 189.294 73.120
1.37 186.481 73.831
1.38 183.514 74.482
1.39 179.799 74.650
1.40 175.761 74.518
1.41 170.307 74.612
1.42 167.084 75.124
1.43 164.292 75.723
1.44 161.541 76.165
1.45 159.411 76.367
1.46 157.535 76.545
1.47 158.666 77.151
1.48 162.416 78.092
1.49 155.194 78.687
1.50 151.526 78.484
1.51 147.684 77.825
1.52 144.808 76.803
1.53 140.124 75.357
1.54 142.325 74.305
1.55 141.841 73.993
1.56 141.453 73.887
1.57 140.024 73.472
1.58 139.610 73.091
1.59 140.702 73.050
1.60 141.252 73.060
1.61 141.945 73.059
1.62 142.410 73.100
1.63 142.710 73.213
1.64 142.613 73.296
1.65 142.135 73.245
1.66 142.036 73.095
1.67 141.875 72.826
1.68 141.251 72.448
1.69 141.745 72.350
1.70 141.705 72.710
1.71 138.662 73.033
1.72 138.016 73.359
1.73 139.034 73.921
1.74 141.256 74.473
1.75 143.876 74.716
1.76 146.896 74.852
1.77 150.832 75.281
1.78 156.852 75.754
1.79 163.867 75.933
1.80 172.168 75.832
1.81 182.688 75.668
1.82 192.978 75.725
1.83 200.361 75.882
1.84 206.348 75.685
1.85 208.603 74.215
1.86 206.264 70.845
1.87 201.335 67.164
1.88 199.888 64.706
1.89 199.681 61.338
1.90 201.734 56.963
1.91 204.086 53.209
1.92 --undefined-- 54.567
1.93 --undefined-- 65.706
1.94 237.239 73.440
1.95 230.328 77.270
1.96 225.502 78.310
1.97 222.181 77.839
1.98 216.834 76.935
1.99 209.077 76.000
2.00 --undefined-- 74.470
2.01 --undefined-- 71.703
2.02 --undefined-- 68.139
2.03 --undefined-- 65.352
2.04 --undefined-- 63.269
2.05 --undefined-- 60.832
2.06 --undefined-- 59.390
2.07 --undefined-- 58.649
2.08 --undefined-- 57.106
2.09 --undefined-- 56.710
2.10 --undefined-- 56.986
2.11 --undefined-- 60.569
2.12 --undefined-- 65.986
2.13 129.328 70.165
2.14 133.424 72.903
2.15 132.917 74.172
2.16 129.041 74.446
2.17 127.624 74.799
2.18 130.964 75.492
2.19 128.321 75.889
2.20 124.855 75.923
2.21 122.258 75.643
2.22 120.432 74.895
2.23 120.122 73.276
2.24 120.316 71.271
2.25 125.130 70.705
2.26 125.370 71.194
2.27 125.948 71.726
2.28 125.735 72.006
2.29 125.214 72.056
2.30 124.183 71.897
2.31 123.186 71.555
2.32 121.827 71.069
2.33 120.013 70.461
2.34 117.625 69.757
2.35 115.562 69.409
2.36 115.375 70.229
2.37 111.618 71.095
2.38 102.335 70.951
2.39 99.638 70.213
2.40 94.491 69.539
2.41 92.060 68.775
2.42 97.250 67.888
2.43 90.914 67.074
2.44 97.498 66.020
2.45 88.698 65.530
2.46 89.567 65.602
2.47 92.875 65.898
2.48 93.334 66.402
2.49 93.321 66.660
2.50 93.484 66.743
2.51 93.016 66.846
2.52 92.164 66.397
2.53 --undefined-- 64.892
2.54 --undefined-- 62.431
2.55 --undefined-- 58.979
2.56 --undefined-- 55.191
2.57 --undefined-- 53.457
2.58 --undefined-- 53.549
2.59 --undefined-- 53.604
2.60 --undefined-- 53.188
2.61 --undefined-- 53.348
2.62 --undefined-- 54.551
2.63 --undefined-- 56.292
2.64 --undefined-- 57.848
2.65 --undefined-- 59.063
2.66 --undefined-- 60.126
2.67 --undefined-- 61.398
2.68 --undefined-- 63.097
2.69 --undefined-- 66.974
2.70 122.022 70.663
2.71 115.731 72.331
2.72 110.874 72.721
2.73 111.141 72.865
2.74 110.120 73.140
2.75 110.834 73.760
2.76 114.577 74.751
2.77 116.025 75.777
2.78 117.951 76.650
2.79 121.592 77.390
2.80 126.180 77.889
2.81 132.379 77.936
2.82 141.887 77.676
2.83 157.728 77.694
2.84 166.549 78.085
2.85 173.285 78.242
2.86 178.880 77.976
2.87 180.427 77.637
2.88 179.207 77.073
2.89 178.011 75.803
2.90 175.344 73.996
2.91 169.162 72.410
2.92 163.626 71.466
2.93 158.911 70.693
2.94 150.691 69.549
2.95 139.133 68.294
2.96 133.419 67.712
2.97 123.531 67.660
2.98 115.994 68.126
2.99 111.139 68.593
3.00 106.838 68.819
3.01 103.362 68.864
3.02 99.729 68.794
3.03 98.415 68.659
3.04 96.936 68.565
3.05 94.365 68.752
3.06 93.911 68.962
3.07 93.612 68.455
3.08 90.237 66.693
3.09 87.854 63.810
3.10 88.061 60.648
3.11 85.477 58.093
3.12 89.399 56.459
3.13 100.431 55.827
3.14 107.521 58.150
3.15 122.673 64.621
3.16 126.243 70.595
3.17 122.408 74.353
3.18 120.466 76.226
3.19 119.188 76.918
3.20 118.872 76.912
3.21 118.858 76.592
3.22 119.005 76.229
3.23 118.028 75.296
3.24 118.024 72.726
3.25 103.332 68.064
3.26 120.088 63.328
3.27 122.148 60.852
3.28 123.255 58.578
3.29 121.096 55.769
3.30 --undefined-- 53.230
3.31 --undefined-- 51.064
3.32 --undefined-- 48.929
3.33 --undefined-- 47.647
3.34 --undefined-- 47.668
3.35 --undefined-- 47.973
3.36 --undefined-- 48.770
3.37 --undefined-- 50.058
3.38 --undefined-- 52.155
3.39 --undefined-- 56.504
3.40 --undefined-- 64.153
3.41 180.723 70.159
3.42 170.040 73.487
3.43 167.607 75.074
3.44 165.506 75.799
3.45 163.346 76.152
3.46 161.654 76.240
3.47 159.854 76.038
3.48 157.407 75.656
3.49 155.196 75.361
3.50 153.850 75.529
3.51 153.348 76.126
3.52 153.259 76.728
3.53 152.766 77.050
3.54 152.372 77.073
3.55 152.452 76.881
3.56 152.022 76.405
3.57 150.658 75.350
3.58 148.174 73.423
3.59 144.221 70.514
3.60 144.530 67.083
3.61 --undefined-- 65.508
3.62 --undefined-- 66.760
3.63 --undefined-- 68.703
3.64 --undefined-- 69.190
3.65 --undefined-- 67.559
3.66 --undefined-- 67.103
3.67 167.448 72.327
3.68 165.086 76.007
3.69 155.115 77.004
3.70 149.675 76.558
3.71 142.035 75.853
3.72 --undefined-- 75.049
3.73 --undefined-- 73.103
3.74 --undefined-- 69.144
3.75 --undefined-- 64.875
3.76 --undefined-- 65.242
3.77 --undefined-- 70.272
3.78 --undefined-- 74.683
3.79 119.219 76.652
3.80 120.497 76.717
3.81 118.753 76.034
3.82 113.528 75.658
3.83 110.078 75.103
3.84 102.768 73.549
3.85 96.300 71.732
3.86 99.895 70.253
3.87 --undefined-- 68.657
3.88 --undefined-- 66.936
3.89 --undefined-- 64.708
3.90 --undefined-- 61.367
3.91 --undefined-- 57.587
3.92 --undefined-- 54.194
3.93 --undefined-- 53.012
3.94 --undefined-- 52.733
3.95 --undefined-- 50.605
3.96 --undefined-- 48.667
3.97 --undefined-- 48.848
3.98 --undefined-- 49.615
3.99 --undefined-- 50.013
4.00 --undefined-- 49.858
4.01 --undefined-- 50.330
4.02 --undefined-- 51.821
4.03 --undefined-- 52.994
4.04 --undefined-- 53.247
4.05 --undefined-- 52.533
4.06 --undefined-- 50.889
4.07 --undefined-- 48.866
4.08 --undefined-- 47.092
4.09 --undefined-- 44.428
4.10 --undefined-- 42.064
4.11 --undefined-- 41.576
4.12 --undefined-- 40.893
4.13 --undefined-- 46.829
4.14 --undefined-- 59.661
4.15 --undefined-- 67.726
4.16 144.739 72.243
4.17 144.826 74.646
4.18 147.960 76.257
4.19 151.309 77.469
4.20 153.854 78.157
4.21 155.475 78.292
4.22 157.261 78.042
4.23 159.007 77.200
4.24 157.858 75.373
4.25 152.270 72.850
4.26 151.233 71.776
4.27 159.658 74.574
4.28 163.162 77.827
4.29 160.571 79.109
4.30 153.032 78.453
4.31 134.501 77.066
4.32 128.968 76.042
4.33 121.607 74.860
4.34 116.984 73.820
4.35 114.032 73.810
4.36 112.365 73.981
4.37 110.886 73.599
4.38 109.314 73.285
4.39 109.782 73.027
4.40 119.567 72.241
4.41 119.337 71.546
4.42 117.602 71.450
4.43 117.464 71.565
4.44 117.837 71.847
4.45 116.270 72.108
4.46 116.116 72.133
4.47 115.994 72.428
4.48 119.751 73.468
4.49 124.032 74.594
4.50 128.122 75.517
4.51 131.539 76.354
4.52 136.215 76.722
4.53 137.793 76.103
4.54 138.657 75.069
4.55 140.544 74.940
4.56 143.363 75.730
4.57 145.651 76.651
4.58 146.198 77.074
4.59 146.179 76.928
4.60 146.572 77.006
4.61 143.661 77.354
4.62 142.227 77.094
4.63 139.038 75.737
4.64 136.089 73.163
4.65 132.417 71.444
4.66 137.155 73.507
4.67 138.466 75.797
4.68 135.159 76.435
4.69 130.013 75.595
4.70 119.540 74.124
4.71 116.635 72.855
4.72 115.128 72.208
4.73 115.206 72.072
4.74 116.224 72.217
4.75 118.273 72.753
4.76 120.243 73.835
4.77 121.706 74.628
4.78 124.866 74.787
4.79 128.808 75.103
4.80 132.173 75.848
4.81 134.418 76.171
4.82 133.952 75.194
4.83 131.544 72.490
4.84 137.123 68.220
4.85 --undefined-- 62.966
4.86 --undefined-- 59.187
4.87 --undefined-- 57.896
4.88 --undefined-- 56.481
4.89 --undefined-- 55.262
4.90 --undefined-- 55.698
4.91 --undefined-- 56.574
4.92 --undefined-- 57.128
4.93 --undefined-- 57.339
4.94 --undefined-- 57.531
4.95 --undefined-- 63.766
4.96 --undefined-- 71.337
4.97 182.365 75.387
4.98 176.724 76.576
4.99 166.437 76.043
5.00 159.908 74.621
5.01 153.526 72.642
5.02 150.803 70.946
5.03 149.343 70.689
5.04 150.235 71.382
5.05 152.172 71.946
5.06 155.033 --undefined--
5.07 156.223 --undefined--
5.08 --undefined-- --undefined--
5.09 --undefined-- --undefined--
