Time Pitch Intensity
0.01 --undefined-- --undefined--
0.02 218.141 --undefined--
0.03 218.141 --undefined--
0.04 217.676 --undefined--
0.05 217.086 71.996
0.06 215.556 71.794
0.07 210.979 71.663
0.08 201.291 71.552
0.09 186.013 71.484
0.10 174.568 71.115
0.11 158.419 70.019
0.12 137.575 68.525
0.13 119.585 66.743
0.14 122.367 64.661
0.15 120.917 63.728
0.16 125.789 64.710
0.17 133.717 66.551
0.18 137.614 67.529
0.19 142.011 66.833
0.20 150.156 64.092
0.21 --undefined-- 58.928
0.22 --undefined-- 53.261
0.23 --undefined-- 53.777
0.24 --undefined-- 55.984
0.25 221.065 62.897
0.26 217.210 69.920
0.27 218.720 74.062
0.28 219.301 75.717
0.29 220.457 75.735
0.30 220.938 74.927
0.31 220.791 73.950
0.32 221.007 73.306
0.33 221.007 73.052
0.34 221.058 72.893
0.35 220.328 72.617
0.36 218.812 72.098
0.37 216.009 71.283
0.38 214.114 70.572
0.39 215.895 70.812
0.40 216.370 71.935
0.41 212.467 72.782
0.42 200.501 72.664
0.43 177.378 71.987
0.44 162.972 71.234
0.45 147.971 70.291
0.46 140.204 69.093
0.47 125.999 67.543
0.48 113.304 65.282
0.49 --undefined-- 62.906
0.50 --undefined-- 62.866
0.51 --undefined-- 64.759
0.52 76.161 66.262
0.53 --undefined-- 67.269
0.54 148.197 68.226
0.55 145.813 69.323
0.56 147.783 70.436
0.57 152.301 71.431
0.58 156.988 72.176
0.59 160.305 72.445
0.60 162.182 71.952
0.61 161.984 70.163
0.62 156.626 66.615
0.63 162.429 61.722
0.64 170.753 56.841
0.65 --undefined-- 52.877
0.66 --undefined-- 58.024
0.67 --undefined-- 63.317
0.68 --undefined-- 66.571
0.69 --undefined-- 69.959
0.70 171.653 72.627
0.71 169.457 73.759
0.72 163.170 73.840
0.73 158.468 73.400
0.74 154.140 72.515
0.75 152.050 71.244
0.76 151.345 69.806
0.77 150.608 67.716
0.78 --undefined-- 63.981
0.79 --undefined-- 58.265
0.80 --undefined-- 50.754
0.81 --undefined-- 42.390
0.82 --undefined-- 39.760
0.83 --undefined-- 47.175
0.84 --undefined-- 58.497
0.85 --undefined-- 66.466
0.86 199.001 70.916
0.87 194.127 72.652
0.88 192.117 72.783
0.89 191.266 72.278
0.90 189.508 71.445
0.91 186.537 70.019
0.92 --undefined-- 67.722
0.93 --undefined-- 64.772
0.94 --undefined-- 60.966
0.95 --undefined-- 56.849
0.96 --undefined-- 52.173
0.97 --undefined-- 44.123
0.98 --undefined-- 34.596
0.99 --undefined-- 46.301
1.00 --undefined-- 58.418
1.01 --undefined-- 65.354
1.02 --undefined-- 69.559
1.03 169.786 72.557
1.04 176.649 74.443
1.05 179.270 75.131
1.06 181.199 74.958
1.07 181.978 74.499
1.08 181.959 74.059
1.09 182.639 73.617
1.10 180.937 72.989
1.11 179.170 72.267
1.12 178.248 71.648
1.13 177.119 71.165
1.14 175.979 70.700
1.15 174.251 70.073
1.16 172.482 69.446
1.17 172.421 69.103
1.18 173.286 68.967
1.19 175.024 68.837
1.20 176.612 68.516
1.21 179.111 67.299
1.22 180.444 64.000
1.23 --undefined-- 57.605
1.24 --undefined-- 47.464
1.25 --undefined-- 38.716
1.26 --undefined-- 37.801
1.27 --undefined-- 36.173
1.28 --undefined-- 38.958
1.29 --undefined-- 51.647
1.30 --undefined-- 62.582
1.31 195.226 69.747
1.32 182.329 73.675
1.33 176.793 75.120
1.34 172.439 74.714
1.35 168.177 72.549
1.36 159.535 68.421
1.37 155.000 62.405
1.38 169.213 55.521
1.39 --undefined-- 48.151
1.40 --undefined-- 40.141
1.41 --undefined-- 39.021
1.42 --undefined-- 42.203
1.43 --undefined-- 42.911
1.44 --undefined-- 40.786
1.45 --undefined-- 44.022
1.46 --undefined-- 56.387
1.47 --undefined-- 64.664
1.48 --undefined-- 69.911
1.49 167.628 73.022
1.50 155.248 74.507
1.51 152.219 74.917
1.52 148.423 74.628
1.53 147.996 73.710
1.54 153.722 72.393
1.55 163.571 71.280
1.56 175.796 70.891
1.57 180.246 71.009
1.58 190.777 71.335
1.59 204.763 71.625
1.60 213.251 71.633
1.61 221.527 71.313
1.62 228.473 70.547
1.63 235.299 69.272
1.64 242.871 67.367
1.65 249.152 64.246
1.66 249.434 59.103
1.67 --undefined-- 51.517
1.68 --undefined-- 43.565
1.69 --undefined-- 40.403
1.70 --undefined-- 39.495
1.71 --undefined-- 39.574
1.72 --undefined-- 41.286
1.73 --undefined-- 42.973
1.74 --undefined-- 43.715
1.75 --undefined-- 44.464
1.76 --undefined-- 45.011
1.77 --undefined-- 44.524
1.78 --undefined-- 44.008
1.79 --undefined-- 43.898
1.80 --undefined-- 43.857
1.81 --undefined-- 43.924
1.82 --undefined-- 43.825
1.83 --undefined-- 43.109
1.84 --undefined-- 40.909
1.85 --undefined-- 38.141
1.86 --undefined-- 37.543
1.87 --undefined-- 37.735
1.88 --undefined-- 36.703
1.89 --undefined-- 35.231
1.90 --undefined-- 35.280
1.91 --undefined-- 36.145
1.92 --undefined-- 36.569
1.93 --undefined-- 35.864
1.94 --undefined-- 35.045
1.95 --undefined-- 36.604
1.96 --undefined-- 40.216
1.97 --undefined-- 43.641
1.98 --undefined-- 45.837
1.99 --undefined-- 49.463
2.00 --undefined-- 59.881
2.01 --undefined-- 69.532
2.02 --undefined-- 75.126
2.03 163.487 78.036
2.04 173.929 79.465
2.05 178.731 79.582
2.06 187.084 78.528
2.07 201.684 77.509
2.08 210.361 76.968
2.09 217.025 75.982
2.10 230.967 74.369
2.11 247.338 72.010
2.12 248.367 69.421
2.13 250.680 68.123
2.14 254.892 68.148
2.15 259.953 68.920
2.16 266.856 70.260
2.17 270.173 71.444
2.18 260.358 72.436
2.19 --undefined-- 73.729
2.20 --undefined-- 74.558
2.21 --undefined-- 74.265
2.22 --undefined-- 73.190
2.23 --undefined-- 71.881
2.24 --undefined-- 70.457
2.25 123.864 69.147
2.26 123.965 68.043
2.27 123.978 66.955
2.28 119.713 65.986
2.29 --undefined-- 65.987
2.30 76.628 66.142
2.31 79.997 66.032
2.32 81.166 66.703
2.33 78.095 67.888
2.34 79.273 68.152
2.35 79.460 67.372
2.36 78.614 65.784
2.37 79.324 62.794
2.38 --undefined-- 57.972
2.39 --undefined-- 51.680
2.40 --undefined-- 53.671
2.41 --undefined-- 64.330
2.42 226.249 71.833
2.43 216.019 75.954
2.44 213.596 77.364
2.45 211.800 76.916
2.46 209.736 75.837
2.47 208.383 75.129
2.48 207.048 74.713
2.49 206.303 74.321
2.50 206.138 73.858
2.51 206.046 73.173
2.52 206.281 72.424
2.53 206.717 71.863
2.54 208.259 71.545
2.55 210.445 71.407
2.56 213.074 71.270
2.57 214.895 71.026
2.58 216.664 70.719
2.59 217.515 70.405
2.60 217.392 70.201
2.61 216.287 70.057
2.62 213.740 69.554
2.63 209.593 68.377
2.64 197.963 66.713
2.65 189.719 65.207
2.66 176.760 64.193
2.67 173.645 64.338
2.68 173.531 65.944
2.69 175.213 68.042
2.70 186.139 70.063
2.71 177.168 71.356
2.72 164.883 71.714
2.73 157.337 71.469
2.74 150.496 71.120
2.75 149.352 70.972
2.76 149.773 70.958
2.77 151.437 70.912
2.78 152.799 70.636
2.79 156.279 70.072
2.80 160.466 69.406
2.81 167.850 69.006
2.82 172.810 68.705
2.83 178.349 67.836
2.84 177.856 65.887
2.85 172.079 62.610
2.86 169.142 58.096
2.87 --undefined-- 52.419
2.88 --undefined-- 45.272
2.89 --undefined-- 37.870
2.90 --undefined-- 35.797
2.91 --undefined-- 37.142
2.92 --undefined-- 39.904
2.93 --undefined-- 42.810
2.94 --undefined-- 45.111
2.95 --undefined-- 46.176
2.96 --undefined-- 46.530
2.97 --undefined-- 47.351
2.98 --undefined-- 48.058
2.99 --undefined-- 47.634
3.00 --undefined-- 47.130
3.01 --undefined-- 47.591
3.02 --undefined-- 47.390
3.03 --undefined-- 46.049
3.04 --undefined-- 45.431
3.05 --undefined-- 46.153
3.06 --undefined-- 46.362
3.07 --undefined-- 45.724
3.08 --undefined-- 45.248
3.09 --undefined-- 45.111
3.10 --undefined-- 44.862
3.11 --undefined-- 44.708
3.12 --undefined-- 44.059
3.13 --undefined-- 41.870
3.14 --undefined-- 39.439
3.15 --undefined-- 41.928
3.16 --undefined-- 47.554
3.17 --undefined-- 51.560
3.18 --undefined-- 52.950
3.19 103.566 52.795
3.20 102.710 58.486
3.21 --undefined-- 67.670
3.22 186.497 73.951
3.23 189.140 77.460
3.24 189.474 78.897
3.25 188.634 78.961
3.26 187.929 78.228
3.27 189.053 77.173
3.28 186.049 75.455
3.29 176.293 72.076
3.30 172.622 67.028
3.31 171.214 61.589
3.32 171.903 55.931
3.33 --undefined-- 52.584
3.34 --undefined-- 60.577
3.35 213.295 68.682
3.36 211.289 73.999
3.37 213.921 76.853
3.38 214.690 77.509
3.39 213.349 76.347
3.40 214.508 74.377
3.41 218.191 72.986
3.42 222.539 72.409
3.43 223.766 71.785
3.44 222.491 70.556
3.45 235.578 69.303
3.46 241.926 69.628
3.47 254.065 71.915
3.48 252.469 73.660
3.49 250.390 74.079
3.50 250.286 74.132
3.51 251.112 74.230
3.52 252.016 74.056
3.53 253.844 73.401
3.54 254.640 72.291
3.55 254.471 70.883
3.56 251.695 68.814
3.57 240.213 65.019
3.58 222.091 58.527
3.59 --undefined-- 49.645
3.60 --undefined-- 46.315
3.61 --undefined-- 50.144
3.62 --undefined-- 56.439
3.63 --undefined-- 65.004
3.64 236.507 71.177
3.65 224.295 74.367
3.66 213.880 75.257
3.67 205.136 74.671
3.68 197.385 73.550
3.69 192.849 72.506
3.70 187.342 71.294
3.71 184.396 70.404
3.72 189.287 71.385
3.73 189.392 72.853
3.74 188.152 73.525
3.75 186.144 73.651
3.76 184.415 73.700
3.77 183.005 73.823
3.78 180.778 73.974
3.79 177.473 73.957
3.80 174.263 73.505
3.81 171.063 72.580
3.82 167.713 71.410
3.83 165.240 70.427
3.84 166.014 70.239
3.85 171.082 71.233
3.86 178.771 72.767
3.87 184.558 73.844
3.88 189.795 74.187
3.89 194.121 74.072
3.90 196.695 73.852
3.91 196.933 73.280
3.92 195.070 71.419
3.93 189.212 67.459
3.94 176.318 61.738
3.95 176.433 55.919
3.96 --undefined-- 49.572
3.97 --undefined-- 50.965
3.98 --undefined-- 58.906
3.99 --undefined-- 64.410
4.00 --undefined-- 69.177
4.01 203.440 72.656
4.02 200.681 74.266
4.03 194.560 74.322
4.04 187.173 73.521
4.05 182.807 72.646
4.06 181.647 71.789
4.07 179.491 69.894
4.08 173.362 66.041
4.09 175.214 60.972
4.10 200.178 58.276
4.11 201.208 62.672
4.12 --undefined-- 69.288
4.13 218.623 73.014
4.14 221.702 74.374
4.15 223.948 74.388
4.16 226.398 74.059
4.17 230.170 73.754
4.18 234.463 73.453
4.19 236.257 72.600
4.20 233.855 70.140
4.21 216.693 65.454
4.22 213.572 59.223
4.23 --undefined-- 52.681
4.24 --undefined-- 45.547
4.25 --undefined-- 43.737
4.26 --undefined-- 53.586
4.27 --undefined-- 64.348
4.28 221.860 71.521
4.29 212.937 74.907
4.30 205.306 75.006
4.31 191.212 72.295
4.32 172.537 67.751
4.33 160.835 62.918
4.34 176.877 58.651
4.35 --undefined-- 53.799
4.36 --undefined-- 46.953
4.37 --undefined-- 38.895
4.38 --undefined-- 34.153
4.39 --undefined-- 37.358
4.40 --undefined-- 50.769
4.41 --undefined-- 62.436
4.42 --undefined-- 70.253
4.43 170.544 74.778
4.44 166.375 76.524
4.45 162.935 76.509
4.46 164.079 75.553
4.47 167.275 74.172
4.48 173.413 72.729
4.49 177.530 71.616
4.50 182.924 71.445
4.51 196.357 71.877
4.52 203.124 72.415
4.53 208.165 72.892
4.54 212.282 73.109
4.55 217.099 73.067
4.56 223.127 72.720
4.57 227.914 72.027
4.58 228.068 71.291
4.59 226.652 70.896
4.60 227.312 70.901
4.61 223.520 71.484
4.62 218.182 72.579
4.63 216.516 73.332
4.64 214.163 73.187
4.65 211.605 72.361
4.66 213.096 71.543
4.67 217.557 71.208
4.68 220.469 71.138
4.69 222.066 70.423
4.70 225.604 68.994
4.71 222.935 68.252
4.72 221.717 68.550
4.73 220.244 69.158
4.74 218.824 69.827
4.75 216.790 70.473
4.76 213.921 71.020
4.77 210.235 71.374
4.78 205.292 71.630
4.79 201.270 72.033
4.80 197.461 72.541
4.81 194.892 72.951
4.82 191.731 73.136
4.83 190.169 73.238
4.84 190.179 73.417
4.85 190.399 73.578
4.86 188.381 73.268
4.87 181.936 71.812
4.88 164.195 69.042
4.89 146.607 66.009
4.90 137.297 64.491
4.91 124.488 64.011
4.92 126.901 64.488
4.93 131.584 66.062
4.94 151.379 68.226
4.95 157.712 70.107
4.96 167.844 71.247
4.97 172.492 71.851
4.98 172.115 72.127
4.99 171.321 72.136
5.00 170.039 71.884
5.01 168.201 71.339
5.02 165.512 70.270
5.03 160.862 68.090
5.04 146.125 64.520
5.05 158.103 60.223
5.06 --undefined-- 54.958
5.07 --undefined-- 47.367
5.08 --undefined-- 40.004
5.09 --undefined-- 44.988
5.10 --undefined-- 57.228
5.11 --undefined-- 66.929
5.12 209.578 72.838
5.13 216.975 75.717
5.14 221.369 76.604
5.15 223.437 76.369
5.16 224.786 75.612
5.17 227.683 74.599
5.18 230.490 73.483
5.19 233.015 72.541
5.20 234.385 71.941
5.21 235.717 71.580
5.22 235.847 71.168
5.23 231.546 70.326
5.24 224.560 68.677
5.25 216.481 65.978
5.26 213.164 62.221
5.27 214.996 58.593
5.28 --undefined-- 61.257
5.29 --undefined-- 67.704
5.30 --undefined-- 71.792
5.31 189.917 73.438
5.32 176.235 73.722
5.33 162.083 73.394
5.34 152.344 72.786
5.35 152.718 72.095
5.36 158.818 71.297
5.37 166.171 70.484
5.38 179.422 69.580
5.39 187.135 68.771
5.40 194.848 69.753
5.41 202.692 71.908
5.42 196.217 --undefined--
5.43 190.418 --undefined--
5.44 --undefined-- --undefined--
5.45 --undefined-- --undefined--
