Time Pitch Intensity
0.01 --undefined-- --undefined--
0.02 193.721 --undefined--
0.03 186.891 --undefined--
0.04 186.663 --undefined--
0.05 179.963 66.712
0.06 173.640 66.901
0.07 168.835 67.214
0.08 164.267 66.817
0.09 162.431 65.985
0.10 160.705 64.529
0.11 160.897 62.748
0.12 162.172 61.640
0.13 163.051 61.410
0.14 162.747 61.885
0.15 164.194 62.405
0.16 166.774 62.406
0.17 168.827 61.997
0.18 172.187 61.994
0.19 177.627 62.637
0.20 180.521 63.534
0.21 183.692 64.362
0.22 186.859 64.780
0.23 188.247 64.162
0.24 185.315 62.119
0.25 177.652 60.108
0.26 183.431 61.423
0.27 194.743 64.321
0.28 206.720 66.898
0.29 209.268 69.269
0.30 212.324 71.085
0.31 213.714 71.774
0.32 214.559 71.339
0.33 215.486 70.302
0.34 214.973 68.860
0.35 211.877 66.699
0.36 210.675 64.305
0.37 203.766 62.707
0.38 203.809 62.821
0.39 214.584 65.371
0.40 216.501 68.049
0.41 215.724 69.283
0.42 213.683 69.474
0.43 211.958 69.324
0.44 211.566 69.020
0.45 211.398 68.534
0.46 211.916 67.988
0.47 212.491 67.502
0.48 212.764 67.196
0.49 212.309 67.154
0.50 210.945 67.262
0.51 210.236 67.205
0.52 211.094 66.904
0.53 212.218 66.478
0.54 214.885 65.676
0.55 219.125 64.522
0.56 222.641 63.316
0.57 220.060 61.764
0.58 210.067 59.591
0.59 206.748 57.383
0.60 --undefined-- 56.724
0.61 --undefined-- 56.498
0.62 --undefined-- 54.894
0.63 --undefined-- 51.803
0.64 --undefined-- 48.980
0.65 --undefined-- 49.411
0.66 --undefined-- 50.652
0.67 --undefined-- 53.200
0.68 --undefined-- 56.761
0.69 174.711 60.140
0.70 167.431 63.510
0.71 161.881 66.667
0.72 161.112 68.820
0.73 161.897 69.810
0.74 163.611 70.069
0.75 163.751 69.969
0.76 163.193 69.779
0.77 166.686 69.776
0.78 170.578 69.447
0.79 174.063 68.299
0.80 182.657 67.160
0.81 188.353 66.763
0.82 195.763 66.407
0.83 201.887 65.864
0.84 208.046 65.247
0.85 214.520 64.710
0.86 217.104 64.912
0.87 227.965 65.953
0.88 234.358 66.903
0.89 239.237 67.269
0.90 244.776 67.305
0.91 250.761 67.349
0.92 257.586 67.454
0.93 265.333 67.528
0.94 274.017 67.589
0.95 280.622 67.823
0.96 283.958 68.240
0.97 285.917 68.669
0.98 287.339 69.085
0.99 287.785 69.600
1.00 287.775 70.175
1.01 287.746 70.581
1.02 289.408 70.695
1.03 292.035 70.905
1.04 290.279 71.381
1.05 289.357 71.656
1.06 290.435 71.708
1.07 293.775 71.859
1.08 294.530 72.135
1.09 292.938 72.418
1.10 287.759 72.833
1.11 273.223 73.681
1.12 257.085 74.795
1.13 244.997 75.722
1.14 229.358 76.592
1.15 --undefined-- 77.158
1.16 --undefined-- 77.305
1.17 175.240 77.408
1.18 173.429 77.224
1.19 171.294 75.692
1.20 167.614 72.833
1.21 --undefined-- 69.487
1.22 --undefined-- 64.986
1.23 --undefined-- 59.570
1.24 --undefined-- 56.034
1.25 --undefined-- 53.655
1.26 --undefined-- 53.394
1.27 --undefined-- 55.156
1.28 --undefined-- 55.916
1.29 --undefined-- 55.789
1.30 --undefined-- 56.455
1.31 --undefined-- 57.450
1.32 --undefined-- 57.134
1.33 --undefined-- 55.027
1.34 --undefined-- 51.773
1.35 --undefined-- 49.545
1.36 --undefined-- 48.985
1.37 --undefined-- 49.682
1.38 --undefined-- 51.137
1.39 --undefined-- 52.667
1.40 --undefined-- 52.989
1.41 --undefined-- 51.931
1.42 --undefined-- 50.581
1.43 --undefined-- 49.806
1.44 --undefined-- 48.735
1.45 --undefined-- 48.238
1.46 --undefined-- 50.182
1.47 --undefined-- 50.853
1.48 --undefined-- 50.690
1.49 --undefined-- 52.786
1.50 --undefined-- 55.514
1.51 --undefined-- 57.168
1.52 --undefined-- 60.051
1.53 206.758 63.718
1.54 204.147 66.482
1.55 203.759 68.397
1.56 204.941 69.550
1.57 206.369 70.039
1.58 208.322 70.139
1.59 210.525 70.098
1.60 212.644 69.854
1.61 213.180 69.222
1.62 212.891 68.200
1.63 212.717 66.758
1.64 211.782 65.175
1.65 219.895 64.158
1.66 220.186 63.663
1.67 221.658 63.489
1.68 229.196 64.100
1.69 235.753 65.449
1.70 230.054 66.790
1.71 219.789 67.680
1.72 211.945 68.913
1.73 204.307 71.253
1.74 200.297 73.204
1.75 196.095 73.652
1.76 197.511 72.669
1.77 201.045 71.090
1.78 205.855 70.002
1.79 216.354 69.618
1.80 221.774 70.007
1.81 227.661 71.002
1.82 232.005 72.082
1.83 235.237 72.550
1.84 241.709 71.750
1.85 259.863 69.930
1.86 263.749 68.413
1.87 266.163 67.290
1.88 264.911 65.770
1.89 259.766 63.430
1.90 246.185 60.290
1.91 --undefined-- 56.664
1.92 --undefined-- 52.988
1.93 --undefined-- 50.733
1.94 --undefined-- 52.970
1.95 --undefined-- 56.425
1.96 --undefined-- 57.754
1.97 --undefined-- 57.161
1.98 --undefined-- 57.076
1.99 --undefined-- 60.326
2.00 176.065 63.085
2.01 163.529 64.178
2.02 152.951 64.817
2.03 151.238 65.247
2.04 149.126 65.772
2.05 149.327 66.336
2.06 148.894 66.228
2.07 148.369 65.864
2.08 149.591 65.826
2.09 152.143 65.945
2.10 157.023 65.713
2.11 158.886 64.313
2.12 162.138 61.668
2.13 164.258 59.431
2.14 167.769 59.234
2.15 181.059 60.798
2.16 188.683 62.914
2.17 201.311 64.458
2.18 208.340 64.986
2.19 214.316 65.091
2.20 220.170 65.540
2.21 224.432 65.985
2.22 226.161 65.475
2.23 224.269 63.311
2.24 230.189 62.393
2.25 268.549 66.432
2.26 267.823 69.329
2.27 265.370 70.262
2.28 263.020 70.175
2.29 262.051 69.884
2.30 261.350 69.696
2.31 261.175 69.744
2.32 262.138 69.661
2.33 267.317 69.272
2.34 271.954 69.062
2.35 274.414 69.075
2.36 275.622 69.115
2.37 276.785 69.240
2.38 278.762 69.416
2.39 281.743 69.335
2.40 285.557 68.666
2.41 285.479 66.889
2.42 281.531 63.469
2.43 --undefined-- 58.612
2.44 --undefined-- 54.690
2.45 --undefined-- 55.807
2.46 --undefined-- 57.794
2.47 --undefined-- 57.441
2.48 --undefined-- 54.433
2.49 --undefined-- 49.479
2.50 --undefined-- 45.852
2.51 --undefined-- 49.862
2.52 --undefined-- 54.546
2.53 --undefined-- 57.163
2.54 --undefined-- 57.213
2.55 --undefined-- 54.693
2.56 --undefined-- 53.696
2.57 --undefined-- 59.908
2.58 285.363 64.662
2.59 282.785 67.129
2.60 281.640 68.612
2.61 281.803 70.006
2.62 280.201 71.160
2.63 277.814 71.734
2.64 276.315 71.577
2.65 276.615 70.934
2.66 277.533 70.436
2.67 279.854 70.165
2.68 286.443 69.721
2.69 289.666 69.348
2.70 289.236 69.222
2.71 287.919 69.056
2.72 284.847 68.784
2.73 281.451 68.335
2.74 278.630 67.328
2.75 278.828 65.037
2.76 --undefined-- 61.116
2.77 --undefined-- 56.647
2.78 --undefined-- 54.753
2.79 --undefined-- 55.278
2.80 --undefined-- 55.158
2.81 --undefined-- 59.274
2.82 --undefined-- 65.271
2.83 193.056 68.867
2.84 186.831 70.350
2.85 176.899 70.620
2.86 175.329 70.319
2.87 175.612 69.519
2.88 176.073 68.610
2.89 175.462 68.162
2.90 175.170 67.951
2.91 174.705 67.631
2.92 174.385 67.182
2.93 175.076 66.559
2.94 176.043 65.635
2.95 176.383 64.483
2.96 177.847 62.834
2.97 --undefined-- 59.623
2.98 --undefined-- 54.347
2.99 --undefined-- 54.359
3.00 --undefined-- 59.263
3.01 --undefined-- 62.124
3.02 --undefined-- 63.335
3.03 --undefined-- 62.385
3.04 --undefined-- 59.987
3.05 203.693 60.026
3.06 203.683 60.791
3.07 204.261 60.622
3.08 195.565 60.577
3.09 187.126 61.590
3.10 172.922 62.789
3.11 168.212 63.329
3.12 162.753 63.339
3.13 158.540 62.914
3.14 156.006 61.968
3.15 154.998 60.729
3.16 154.360 60.227
3.17 154.228 60.515
3.18 160.222 60.533
3.19 166.792 60.666
3.20 166.814 60.542
3.21 166.673 59.868
3.22 167.024 59.564
3.23 167.491 59.919
3.24 171.232 60.354
3.25 173.587 59.988
3.26 173.574 58.217
3.27 165.138 55.638
3.28 --undefined-- 53.919
3.29 --undefined-- 53.874
3.30 181.745 55.965
3.31 182.654 57.783
3.32 190.122 59.644
3.33 182.336 62.562
3.34 173.425 65.075
3.35 169.342 66.593
3.36 168.154 67.305
3.37 168.621 67.486
3.38 172.517 67.604
3.39 177.224 68.256
3.40 180.900 69.173
3.41 185.744 69.173
3.42 198.840 68.121
3.43 206.282 66.971
3.44 213.710 66.300
3.45 225.152 66.357
3.46 229.988 66.634
3.47 235.945 66.842
3.48 243.299 67.695
3.49 247.950 69.532
3.50 243.639 70.816
3.51 234.820 70.925
3.52 224.705 70.691
3.53 --undefined-- 70.852
3.54 --undefined-- 71.248
3.55 --undefined-- 71.041
3.56 --undefined-- 69.747
3.57 75.817 67.776
3.58 76.131 65.893
3.59 75.136 64.317
3.60 74.642 63.498
3.61 75.258 63.225
3.62 76.862 62.826
3.63 154.785 62.093
3.64 156.353 60.463
3.65 151.234 57.515
3.66 --undefined-- 54.654
3.67 --undefined-- 54.604
3.68 --undefined-- 54.466
3.69 --undefined-- 52.224
3.70 --undefined-- 49.251
3.71 --undefined-- 47.650
3.72 --undefined-- 50.049
3.73 --undefined-- 53.731
3.74 --undefined-- 55.965
3.75 --undefined-- 56.624
3.76 --undefined-- 57.004
3.77 --undefined-- 59.299
3.78 263.800 63.004
3.79 262.103 65.759
3.80 264.518 67.195
3.81 267.492 67.700
3.82 266.272 67.083
3.83 262.662 64.903
3.84 237.872 61.034
3.85 244.037 56.217
3.86 --undefined-- 52.454
3.87 --undefined-- 51.943
3.88 --undefined-- 58.875
3.89 292.624 65.626
3.90 273.992 69.426
3.91 268.172 71.041
3.92 263.495 71.883
3.93 262.495 72.433
3.94 261.406 72.230
3.95 261.146 71.454
3.96 261.320 70.548
3.97 261.380 69.675
3.98 262.190 68.826
3.99 262.715 67.939
4.00 263.552 66.932
4.01 264.139 65.654
4.02 261.685 64.667
4.03 263.280 65.337
4.04 261.987 66.177
4.05 257.041 65.995
4.06 250.570 64.629
4.07 242.456 61.863
4.08 243.169 57.438
4.09 --undefined-- 51.899
4.10 --undefined-- 52.939
4.11 --undefined-- 59.666
4.12 --undefined-- 64.442
4.13 176.540 66.667
4.14 168.066 66.990
4.15 163.255 66.477
4.16 163.639 66.030
4.17 173.688 65.536
4.18 174.287 65.063
4.19 174.262 64.870
4.20 174.332 64.823
4.21 175.160 64.489
4.22 176.170 63.665
4.23 176.384 62.384
4.24 175.960 60.366
4.25 175.543 57.145
4.26 --undefined-- 52.310
4.27 --undefined-- 46.537
4.28 --undefined-- 45.818
4.29 --undefined-- 50.524
4.30 --undefined-- 53.527
4.31 --undefined-- 53.605
4.32 --undefined-- 52.084
4.33 --undefined-- 53.577
4.34 236.813 58.625
4.35 234.681 62.415
4.36 236.408 64.605
4.37 243.508 66.082
4.38 248.454 67.114
4.39 251.710 67.960
4.40 250.940 68.817
4.41 250.614 69.673
4.42 250.424 70.284
4.43 251.569 70.406
4.44 255.670 69.845
4.45 259.861 68.244
4.46 258.750 65.018
4.47 259.778 61.918
4.48 297.305 64.191
4.49 --undefined-- 65.561
4.50 --undefined-- 63.486
4.51 --undefined-- 58.912
4.52 --undefined-- 59.911
4.53 --undefined-- 65.749
4.54 261.615 69.861
4.55 257.816 71.892
4.56 255.142 72.232
4.57 253.109 71.127
4.58 251.252 69.044
4.59 250.758 66.654
4.60 249.083 65.374
4.61 253.248 65.938
4.62 252.526 66.520
4.63 252.031 66.674
4.64 252.893 66.775
4.65 253.966 66.818
4.66 254.505 66.740
4.67 254.773 66.624
4.68 254.327 66.476
4.69 253.899 66.419
4.70 252.585 66.442
4.71 248.551 66.271
4.72 241.704 65.967
4.73 231.407 66.011
4.74 222.151 66.903
4.75 207.588 68.764
4.76 202.910 70.868
4.77 196.756 72.776
4.78 194.057 74.086
4.79 192.420 74.407
4.80 191.136 73.845
4.81 190.289 72.775
4.82 187.056 71.384
4.83 183.407 69.244
4.84 177.274 66.051
4.85 169.523 62.037
4.86 156.048 59.221
4.87 --undefined-- 59.462
4.88 --undefined-- 60.173
4.89 --undefined-- 59.273
4.90 --undefined-- 56.786
4.91 --undefined-- 54.527
4.92 --undefined-- 56.403
4.93 --undefined-- 60.308
4.94 --undefined-- --undefined--
4.95 --undefined-- --undefined--
4.96 --undefined-- --undefined--
4.97 --undefined-- --undefined--
