Time Pitch Intensity
0.01 --undefined-- --undefined--
0.02 --undefined-- --undefined--
0.03 --undefined-- --undefined--
0.04 --undefined-- --undefined--
0.05 --undefined-- 51.534
0.06 --undefined-- 48.201
0.07 --undefined-- 46.630
0.08 --undefined-- 47.008
0.09 --undefined-- 46.499
0.10 --undefined-- 46.576
0.11 --undefined-- 49.416
0.12 --undefined-- 52.909
0.13 --undefined-- 56.594
0.14 262.217 60.523
0.15 263.032 63.511
0.16 267.635 65.282
0.17 268.673 66.031
0.18 269.970 66.235
0.19 273.716 66.717
0.20 280.247 67.636
0.21 282.406 68.020
0.22 278.460 67.092
0.23 272.286 64.639
0.24 269.329 61.199
0.25 --undefined-- 59.250
0.26 --undefined-- 59.608
0.27 --undefined-- 59.544
0.28 --undefined-- 59.215
0.29 --undefined-- 59.576
0.30 --undefined-- 59.652
0.31 --undefined-- 59.811
0.32 221.149 61.693
0.33 189.257 64.539
0.34 178.357 66.851
0.35 169.058 67.646
0.36 164.130 66.769
0.37 165.876 65.142
0.38 165.040 64.166
0.39 162.129 63.310
0.40 158.917 61.890
0.41 157.693 60.417
0.42 155.746 58.980
0.43 152.829 57.323
0.44 151.227 56.789
0.45 154.543 59.132
0.46 162.883 62.165
0.47 171.550 64.703
0.48 173.993 66.545
0.49 172.356 67.241
0.50 170.647 66.609
0.51 171.928 65.046
0.52 173.028 62.835
0.53 171.834 59.669
0.54 178.852 55.751
0.55 --undefined-- 53.154
0.56 --undefined-- 53.026
0.57 --undefined-- 53.208
0.58 --undefined-- 51.501
0.59 --undefined-- 49.471
0.60 --undefined-- 49.301
0.61 --undefined-- 47.883
0.62 --undefined-- 50.142
0.63 --undefined-- 55.184
0.64 --undefined-- 57.214
0.65 --undefined-- 56.078
0.66 --undefined-- 54.611
0.67 --undefined-- 54.447
0.68 --undefined-- 51.866
0.69 --undefined-- 48.020
0.70 --undefined-- 51.009
0.71 --undefined-- 55.780
0.72 --undefined-- 59.318
0.73 139.940 61.201
0.74 137.878 61.490
0.75 128.474 60.927
0.76 114.779 60.556
0.77 105.177 60.233
0.78 105.021 59.054
0.79 --undefined-- 56.655
0.80 --undefined-- 54.560
0.81 --undefined-- 55.172
0.82 --undefined-- 55.588
0.83 --undefined-- 54.138
0.84 --undefined-- 51.535
0.85 --undefined-- 49.628
0.86 --undefined-- 47.309
0.87 --undefined-- 44.644
0.88 --undefined-- 48.441
0.89 --undefined-- 54.237
0.90 --undefined-- 58.236
0.91 --undefined-- 62.091
0.92 207.287 66.167
0.93 199.743 69.397
0.94 195.274 71.227
0.95 193.228 72.164
0.96 192.149 72.696
0.97 190.761 72.782
0.98 189.775 72.596
0.99 189.246 72.305
1.00 189.001 71.980
1.01 189.361 71.524
1.02 189.820 70.717
1.03 189.578 69.585
1.04 187.846 68.493
1.05 184.517 67.366
1.06 178.426 65.468
1.07 152.624 62.520
1.08 --undefined-- 59.857
1.09 --undefined-- 58.689
1.10 --undefined-- 58.100
1.11 --undefined-- 57.091
1.12 --undefined-- 55.981
1.13 --undefined-- 54.698
1.14 --undefined-- 53.739
1.15 --undefined-- 54.084
1.16 --undefined-- 53.302
1.17 --undefined-- 50.724
1.18 --undefined-- 48.481
1.19 --undefined-- 47.300
1.20 --undefined-- 48.899
1.21 --undefined-- 51.575
1.22 --undefined-- 51.929
1.23 --undefined-- 50.782
1.24 --undefined-- 50.177
1.25 --undefined-- 48.536
1.26 --undefined-- 49.929
1.27 --undefined-- 55.921
1.28 --undefined-- 59.808
1.29 233.706 62.416
1.30 242.016 64.861
1.31 250.244 66.626
1.32 254.902 67.534
1.33 257.022 67.783
1.34 258.003 67.632
1.35 259.363 68.104
1.36 258.892 69.366
1.37 250.209 69.783
1.38 234.383 68.861
1.39 --undefined-- 67.016
1.40 --undefined-- 64.520
1.41 --undefined-- 61.551
1.42 --undefined-- 58.344
1.43 --undefined-- 54.636
1.44 --undefined-- 52.947
1.45 --undefined-- 54.803
1.46 --undefined-- 56.461
1.47 --undefined-- 56.812
1.48 --undefined-- 55.672
1.49 --undefined-- 52.475
1.50 --undefined-- 48.664
1.51 --undefined-- 49.162
1.52 --undefined-- 50.700
1.53 --undefined-- 50.975
1.54 --undefined-- 49.828
1.55 --undefined-- 48.827
1.56 --undefined-- 52.781
1.57 --undefined-- 58.483
1.58 196.969 62.010
1.59 192.639 64.112
1.60 185.980 65.378
1.61 181.560 65.815
1.62 179.653 65.667
1.63 178.296 64.897
1.64 175.244 63.288
1.65 175.185 61.127
1.66 175.952 58.639
1.67 173.958 57.292
1.68 169.717 57.814
1.69 193.624 59.282
1.70 188.925 62.236
1.71 183.625 65.395
1.72 180.305 67.775
1.73 178.129 69.284
1.74 180.183 70.030
1.75 183.672 69.788
1.76 188.486 68.283
1.77 202.243 66.267
1.78 209.096 65.380
1.79 217.073 65.959
1.80 219.391 66.773
1.81 219.228 66.953
1.82 215.017 66.397
1.83 206.401 65.222
1.84 --undefined-- 63.579
1.85 --undefined-- 61.495
1.86 --undefined-- 59.629
1.87 --undefined-- 59.316
1.88 148.540 60.576
1.89 145.225 61.706
1.90 146.158 62.402
1.91 157.597 63.014
1.92 162.280 63.278
1.93 170.595 63.043
1.94 178.098 62.935
1.95 179.342 63.129
1.96 168.221 63.015
1.97 181.662 63.307
1.98 179.841 63.147
1.99 178.808 60.720
2.00 --undefined-- 55.647
2.01 --undefined-- 50.821
2.02 --undefined-- 52.693
2.03 --undefined-- 58.322
2.04 187.804 62.893
2.05 186.866 65.248
2.06 171.686 65.890
2.07 163.705 65.655
2.08 161.609 65.051
2.09 160.303 64.171
2.10 162.449 62.870
2.11 164.040 60.230
2.12 --undefined-- 55.755
2.13 --undefined-- 52.731
2.14 --undefined-- 53.397
2.15 --undefined-- 52.797
2.16 --undefined-- 52.407
2.17 --undefined-- 56.437
2.18 --undefined-- 61.505
2.19 183.446 64.743
2.20 179.062 66.043
2.21 175.410 66.570
2.22 174.083 67.256
2.23 174.916 68.046
2.24 178.003 68.576
2.25 180.008 68.444
2.26 181.194 67.605
2.27 181.064 66.429
2.28 180.096 65.432
2.29 179.884 64.836
2.30 180.890 64.358
2.31 182.657 63.560
2.32 183.981 61.630
2.33 185.121 58.010
2.34 185.615 54.108
2.35 --undefined-- 52.327
2.36 --undefined-- 51.646
2.37 --undefined-- 52.801
2.38 --undefined-- 53.731
2.39 --undefined-- 51.854
2.40 --undefined-- 49.024
2.41 --undefined-- 51.682
2.42 --undefined-- 54.352
2.43 --undefined-- 54.123
2.44 --undefined-- 51.596
2.45 --undefined-- 49.112
2.46 --undefined-- 53.482
2.47 259.465 60.686
2.48 245.479 65.375
2.49 243.062 68.166
2.50 241.094 69.895
2.51 237.216 70.761
2.52 233.825 70.717
2.53 232.350 69.803
2.54 231.139 68.261
2.55 232.123 66.754
2.56 233.454 65.941
2.57 233.086 65.646
2.58 232.142 65.266
2.59 229.692 64.429
2.60 225.467 62.940
2.61 224.286 61.866
2.62 222.497 62.149
2.63 218.897 62.369
2.64 214.448 62.076
2.65 210.951 61.778
2.66 205.628 61.414
2.67 199.612 60.532
2.68 191.751 60.180
2.69 183.884 60.967
2.70 176.664 61.765
2.71 166.590 62.717
2.72 171.063 64.246
2.73 170.656 65.097
2.74 165.851 64.991
2.75 162.840 64.582
2.76 161.907 64.020
2.77 162.450 63.232
2.78 163.020 62.668
2.79 162.962 62.687
2.80 162.223 63.203
2.81 162.194 63.760
2.82 169.313 63.749
2.83 174.936 63.058
2.84 181.544 61.802
2.85 187.098 59.571
2.86 196.745 56.452
2.87 237.754 54.668
2.88 292.762 54.534
2.89 292.957 55.492
2.90 291.287 55.800
2.91 285.302 54.922
2.92 263.237 54.934
2.93 263.254 58.886
2.94 217.623 62.782
2.95 200.713 65.325
2.96 190.329 67.238
2.97 183.394 68.449
2.98 178.978 68.868
2.99 176.617 68.828
3.00 176.058 68.841
3.01 175.814 69.067
3.02 175.319 69.026
3.03 175.207 68.333
3.04 175.208 67.140
3.05 174.640 65.879
3.06 173.516 64.272
3.07 170.170 61.491
3.08 157.707 57.726
3.09 --undefined-- 54.646
3.10 --undefined-- 52.631
3.11 --undefined-- 53.364
3.12 --undefined-- 57.382
3.13 --undefined-- 61.951
3.14 187.881 66.227
3.15 183.456 69.641
3.16 181.752 71.774
3.17 181.340 72.900
3.18 181.540 73.718
3.19 181.564 74.396
3.20 180.598 74.898
3.21 179.789 75.440
3.22 179.200 75.965
3.23 178.205 76.273
3.24 176.349 76.313
3.25 173.508 75.949
3.26 168.686 74.794
3.27 164.307 72.381
3.28 165.569 68.594
3.29 166.854 63.956
3.30 --undefined-- 59.105
3.31 --undefined-- 54.844
3.32 --undefined-- 51.676
3.33 --undefined-- 50.708
3.34 --undefined-- 50.602
3.35 --undefined-- 49.077
3.36 --undefined-- 47.281
3.37 --undefined-- 49.273
3.38 --undefined-- 50.915
3.39 --undefined-- 50.822
3.40 --undefined-- 51.198
3.41 --undefined-- 50.703
3.42 --undefined-- 47.479
3.43 --undefined-- 45.532
3.44 --undefined-- 48.730
3.45 --undefined-- 50.902
3.46 --undefined-- 52.189
3.47 --undefined-- 53.761
3.48 --undefined-- 54.736
3.49 --undefined-- 53.795
3.50 --undefined-- 53.675
3.51 --undefined-- 54.980
3.52 --undefined-- 54.032
3.53 --undefined-- 50.982
3.54 --undefined-- 49.541
3.55 --undefined-- 50.421
3.56 --undefined-- 51.809
3.57 --undefined-- 54.049
3.58 --undefined-- 54.609
3.59 --undefined-- 53.161
3.60 --undefined-- 51.790
3.61 --undefined-- 52.142
3.62 --undefined-- 52.560
3.63 --undefined-- 52.059
3.64 --undefined-- 51.587
3.65 --undefined-- 52.605
3.66 --undefined-- 54.158
3.67 --undefined-- 53.779
3.68 --undefined-- 51.386
3.69 --undefined-- 48.773
3.70 --undefined-- 47.368
3.71 --undefined-- 46.541
3.72 --undefined-- 46.598
3.73 --undefined-- 50.201
3.74 --undefined-- 56.059
3.75 165.919 63.153
3.76 164.124 67.686
3.77 162.920 69.415
3.78 162.860 68.900
3.79 159.655 66.472
3.80 --undefined-- 62.505
3.81 --undefined-- 59.258
3.82 --undefined-- 61.857
3.83 177.794 67.537
3.84 178.080 71.045
3.85 181.846 72.394
3.86 183.046 72.670
3.87 179.075 72.306
3.88 168.590 71.263
3.89 158.418 69.547
3.90 293.502 66.549
3.91 247.877 62.474
3.92 229.349 62.208
3.93 254.186 67.802
3.94 254.745 72.657
3.95 252.381 75.106
3.96 245.191 75.306
3.97 234.608 73.995
3.98 230.107 72.302
3.99 227.688 70.308
4.00 230.569 67.037
4.01 230.399 62.380
4.02 229.599 59.489
4.03 232.694 61.035
4.04 229.893 61.443
4.05 256.074 60.669
4.06 --undefined-- 60.881
4.07 --undefined-- 59.834
4.08 --undefined-- 57.004
4.09 --undefined-- 56.697
4.10 218.433 58.810
4.11 217.952 60.616
4.12 233.964 62.757
4.13 219.408 66.236
4.14 --undefined-- 69.898
4.15 --undefined-- 71.285
4.16 --undefined-- 70.631
4.17 --undefined-- 69.879
4.18 165.498 69.698
4.19 166.410 69.233
4.20 165.478 68.726
4.21 165.614 68.465
4.22 167.539 67.392
4.23 172.220 66.109
4.24 174.843 66.054
4.25 176.087 66.094
4.26 175.623 65.249
4.27 177.879 64.887
4.28 186.882 66.155
4.29 188.680 67.257
4.30 189.705 67.314
4.31 189.500 65.960
4.32 187.189 62.930
4.33 185.083 59.300
4.34 --undefined-- 57.839
4.35 --undefined-- 57.786
4.36 --undefined-- 62.146
4.37 198.266 66.792
4.38 198.243 69.614
4.39 196.368 71.027
4.40 195.632 71.363
4.41 195.791 70.920
4.42 195.982 69.977
4.43 196.482 68.908
4.44 197.512 68.247
4.45 198.527 68.160
4.46 199.268 68.444
4.47 199.705 68.863
4.48 200.384 69.308
4.49 202.742 69.675
4.50 206.032 69.785
4.51 209.842 69.306
4.52 214.428 68.284
4.53 218.985 68.141
4.54 221.114 69.436
4.55 221.686 70.741
4.56 220.220 71.886
4.57 218.213 72.859
4.58 216.212 73.353
4.59 213.525 73.436
4.60 209.535 73.466
4.61 201.346 73.648
4.62 --undefined-- 73.870
4.63 --undefined-- 73.342
4.64 --undefined-- 71.171
4.65 --undefined-- 67.163
4.66 --undefined-- 61.526
4.67 --undefined-- 55.771
4.68 --undefined-- 53.080
4.69 --undefined-- 51.834
4.70 --undefined-- 49.551
4.71 --undefined-- 48.357
4.72 --undefined-- 48.722
4.73 --undefined-- 49.898
4.74 --undefined-- 52.466
4.75 --undefined-- 54.942
4.76 --undefined-- 55.293
4.77 --undefined-- 53.004
4.78 --undefined-- 49.680
4.79 --undefined-- 48.360
4.80 --undefined-- 48.610
4.81 --undefined-- 49.921
4.82 --undefined-- 53.443
4.83 --undefined-- 55.414
4.84 --undefined-- 54.291
4.85 --undefined-- 52.057
4.86 --undefined-- 51.776
4.87 --undefined-- 51.365
4.88 --undefined-- 51.382
4.89 --undefined-- 53.539
4.90 --undefined-- 55.388
4.91 --undefined-- 54.604
4.92 --undefined-- 51.623
4.93 --undefined-- 49.574
4.94 --undefined-- 53.121
4.95 --undefined-- 56.643
4.96 --undefined-- 58.525
4.97 --undefined-- 62.021
4.98 172.315 66.770
4.99 174.210 69.554
5.00 175.668 --undefined--
5.01 178.229 --undefined--
5.02 --undefined-- --undefined--
5.03 --undefined-- --undefined--
