Time Pitch Intensity
0.01 --undefined-- --undefined--
0.02 104.026 --undefined--
0.03 99.702 --undefined--
0.04 96.932 --undefined--
0.05 111.161 68.047
0.06 128.793 71.892
0.07 123.857 74.543
0.08 113.642 75.913
0.09 109.109 76.297
0.10 108.079 76.230
0.11 108.061 76.225
0.12 106.951 76.082
0.13 105.715 75.116
0.14 101.114 72.647
0.15 97.357 68.903
0.16 107.589 65.158
0.17 110.476 61.887
0.18 109.239 58.883
0.19 --undefined-- 56.722
0.20 --undefined-- 60.675
0.21 --undefined-- 67.574
0.22 112.600 71.894
0.23 111.613 73.880
0.24 108.999 74.352
0.25 108.744 73.915
0.26 108.248 73.140
0.27 110.083 73.231
0.28 110.575 74.022
0.29 108.232 74.551
0.30 106.151 74.775
0.31 104.168 74.775
0.32 103.877 74.755
0.33 104.366 74.992
0.34 105.978 75.648
0.35 108.426 76.513
0.36 106.738 77.050
0.37 106.253 77.089
0.38 105.110 76.804
0.39 104.032 76.420
0.40 102.746 75.935
0.41 101.354 75.449
0.42 103.088 75.244
0.43 102.901 75.247
0.44 103.522 75.234
0.45 106.402 74.898
0.46 103.987 73.619
0.47 99.049 70.895
0.48 100.010 66.460
0.49 --undefined-- 59.798
0.50 --undefined-- 52.062
0.51 --undefined-- 50.187
0.52 --undefined-- 48.773
0.53 --undefined-- 47.389
0.54 --undefined-- 48.125
0.55 --undefined-- 49.005
0.56 --undefined-- 49.304
0.57 --undefined-- 49.134
0.58 --undefined-- 49.122
0.59 --undefined-- 49.241
0.60 --undefined-- 48.449
0.61 --undefined-- 47.047
0.62 --undefined-- 45.844
0.63 --undefined-- 44.427
0.64 --undefined-- 42.846
0.65 --undefined-- 42.173
0.66 --undefined-- 42.139
0.67 --undefined-- 41.970
0.68 --undefined-- 42.735
0.69 --undefined-- 44.619
0.70 --undefined-- 45.720
0.71 --undefined-- 46.658
0.72 --undefined-- 49.402
0.73 --undefined-- 50.405
0.74 --undefined-- 47.848
0.75 --undefined-- 43.271
0.76 --undefined-- 43.707
0.77 --undefined-- 50.619
0.78 --undefined-- 57.333
0.79 --undefined-- 64.416
0.80 --undefined-- 70.170
0.81 117.542 73.419
0.82 108.307 74.700
0.83 105.943 75.191
0.84 109.156 75.851
0.85 111.299 76.295
0.86 112.400 76.429
0.87 112.114 76.456
0.88 112.203 76.096
0.89 112.259 75.159
0.90 113.567 73.859
0.91 115.983 72.709
0.92 125.299 73.013
0.93 131.567 75.065
0.94 124.332 76.526
0.95 120.676 76.567
0.96 116.386 75.239
0.97 112.136 72.645
0.98 113.102 69.399
0.99 111.225 66.132
1.00 110.714 62.333
1.01 --undefined-- 58.685
1.02 --undefined-- 60.139
1.03 --undefined-- 64.724
1.04 --undefined-- 69.815
1.05 --undefined-- 73.178
1.06 119.060 74.644
1.07 115.737 75.044
1.08 114.158 75.072
1.09 114.315 75.098
1.10 114.195 75.185
1.11 114.268 75.251
1.12 114.453 75.263
1.13 112.994 75.158
1.14 112.150 74.983
1.15 112.301 74.852
1.16 112.657 74.681
1.17 113.596 74.011
1.18 111.007 72.023
1.19 105.333 68.070
1.20 111.735 62.472
1.21 107.771 58.673
1.22 110.636 59.203
1.23 --undefined-- 61.004
1.24 --undefined-- 61.696
1.25 --undefined-- 60.265
1.26 --undefined-- 60.455
1.27 116.982 65.582
1.28 125.263 69.319
1.29 104.497 70.797
1.30 106.394 71.304
1.31 109.899 71.881
1.32 101.295 72.488
1.33 97.998 72.694
1.34 97.007 72.248
1.35 97.094 71.475
1.36 98.523 71.197
1.37 101.630 71.025
1.38 101.595 69.957
1.39 100.190 67.617
1.40 105.476 64.621
1.41 120.641 63.836
1.42 129.725 66.965
1.43 123.317 70.511
1.44 114.122 72.846
1.45 113.397 74.105
1.46 113.718 74.560
1.47 114.942 74.582
1.48 116.958 74.581
1.49 122.097 74.461
1.50 128.915 74.312
1.51 134.553 74.393
1.52 138.941 74.373
1.53 141.599 74.140
1.54 143.134 73.982
1.55 143.246 73.926
1.56 141.798 73.825
1.57 139.728 73.671
1.58 138.097 73.508
1.59 134.244 73.270
1.60 130.458 73.290
1.61 128.576 73.972
1.62 127.104 75.059
1.63 122.206 76.306
1.64 119.286 77.327
1.65 117.045 77.716
1.66 116.674 77.395
1.67 117.784 76.562
1.68 118.214 75.371
1.69 114.398 73.604
1.70 112.259 71.031
1.71 113.685 67.776
1.72 111.834 64.289
1.73 --undefined-- 64.930
1.74 155.103 71.014
1.75 145.058 75.907
1.76 131.891 78.374
1.77 120.814 79.216
1.78 117.096 79.361
1.79 113.150 79.044
1.80 113.072 78.616
1.81 112.883 78.348
1.82 110.142 77.702
1.83 106.648 75.906
1.84 106.400 72.489
1.85 102.561 67.283
1.86 --undefined-- 60.624
1.87 --undefined-- 54.350
1.88 --undefined-- 51.768
1.89 --undefined-- 51.765
1.90 --undefined-- 52.443
1.91 --undefined-- 52.201
1.92 --undefined-- 51.967
1.93 --undefined-- 51.967
1.94 --undefined-- 51.627
1.95 --undefined-- 51.420
1.96 --undefined-- 51.967
1.97 --undefined-- 51.815
1.98 --undefined-- 50.744
1.99 --undefined-- 49.626
2.00 --undefined-- 48.399
2.01 --undefined-- 47.839
2.02 --undefined-- 48.043
2.03 --undefined-- 47.162
2.04 --undefined-- 45.497
2.05 --undefined-- 45.408
2.06 --undefined-- 49.593
2.07 --undefined-- 54.070
2.08 --undefined-- 58.164
2.09 --undefined-- 65.810
2.10 196.738 73.382
2.11 163.552 78.108
2.12 157.421 80.427
2.13 149.595 80.903
2.14 142.115 80.154
2.15 136.887 78.496
2.16 128.810 75.411
2.17 110.264 70.636
2.18 108.659 65.982
2.19 --undefined-- 65.488
2.20 --undefined-- 68.459
2.21 165.396 73.646
2.22 154.342 77.395
2.23 134.591 78.640
2.24 122.486 78.168
2.25 116.876 77.118
2.26 115.017 76.337
2.27 116.215 76.076
2.28 117.634 75.900
2.29 117.927 75.416
2.30 118.644 74.494
2.31 121.057 73.306
2.32 129.011 72.087
2.33 136.001 70.467
2.34 138.263 68.068
2.35 152.345 66.545
2.36 190.983 69.506
2.37 212.776 73.773
2.38 217.032 76.667
2.39 216.248 77.921
2.40 213.536 77.933
2.41 215.340 77.493
2.42 218.397 77.274
2.43 222.910 77.719
2.44 226.533 78.642
2.45 227.442 79.280
2.46 226.611 79.499
2.47 225.180 79.540
2.48 221.612 79.208
2.49 215.322 78.067
2.50 206.095 75.802
2.51 193.588 72.523
2.52 199.462 70.650
2.53 218.527 73.483
2.54 206.890 77.308
2.55 193.458 79.852
2.56 183.581 81.184
2.57 176.451 81.882
2.58 172.700 82.008
2.59 170.950 81.477
2.60 170.078 80.407
2.61 169.614 78.662
2.62 167.033 75.689
2.63 162.220 71.265
2.64 167.506 66.337
2.65 --undefined-- 63.342
2.66 --undefined-- 63.609
2.67 --undefined-- 66.602
2.68 224.995 73.738
2.69 226.426 78.958
2.70 216.231 81.377
2.71 206.794 81.539
2.72 197.195 79.952
2.73 183.886 77.685
2.74 177.601 76.901
2.75 170.000 77.753
2.76 160.192 79.029
2.77 146.182 79.786
2.78 137.052 79.647
2.79 123.112 79.120
2.80 116.161 78.658
2.81 112.301 78.103
2.82 108.608 77.368
2.83 106.720 76.258
2.84 101.845 74.335
2.85 97.057 71.934
2.86 97.692 70.019
2.87 99.155 68.346
2.88 103.110 66.743
2.89 112.617 65.833
2.90 125.068 66.768
2.91 131.825 69.559
2.92 136.777 73.199
2.93 142.733 77.030
2.94 140.962 79.902
2.95 139.921 81.340
2.96 146.437 81.924
2.97 152.300 82.508
2.98 158.168 83.226
2.99 162.372 83.551
3.00 166.846 83.055
3.01 171.623 81.779
3.02 173.632 80.157
3.03 171.731 78.533
3.04 167.797 76.555
3.05 159.800 73.822
3.06 155.988 70.554
3.07 156.742 66.603
3.08 --undefined-- 60.855
3.09 --undefined-- 54.244
3.10 --undefined-- 52.361
3.11 --undefined-- 52.769
3.12 --undefined-- 53.065
3.13 --undefined-- 53.577
3.14 --undefined-- 58.391
3.15 --undefined-- 68.682
3.16 --undefined-- 75.973
3.17 154.548 80.130
3.18 139.589 82.303
3.19 131.995 83.421
3.20 130.717 83.914
3.21 129.609 84.012
3.22 128.790 83.918
3.23 127.367 83.726
3.24 124.837 83.382
3.25 122.651 82.602
3.26 116.325 80.957
3.27 107.319 78.223
3.28 101.025 74.232
3.29 96.617 68.699
3.30 --undefined-- 61.527
3.31 --undefined-- 54.223
3.32 --undefined-- 51.618
3.33 --undefined-- 52.219
3.34 --undefined-- 52.484
3.35 --undefined-- 50.837
3.36 --undefined-- 49.608
3.37 --undefined-- 49.534
3.38 --undefined-- 48.870
3.39 --undefined-- 48.272
3.40 --undefined-- 47.991
3.41 --undefined-- 47.103
3.42 --undefined-- 45.789
3.43 --undefined-- 45.307
3.44 --undefined-- 45.659
3.45 --undefined-- 46.286
3.46 --undefined-- 46.401
3.47 --undefined-- 45.326
3.48 --undefined-- 43.456
3.49 --undefined-- 43.003
3.50 --undefined-- 42.995
3.51 --undefined-- 42.247
3.52 --undefined-- 41.557
3.53 --undefined-- 41.552
3.54 --undefined-- 43.160
3.55 --undefined-- 44.908
3.56 --undefined-- 49.136
3.57 --undefined-- 55.904
3.58 --undefined-- 59.310
3.59 --undefined-- 58.643
3.60 --undefined-- 54.687
3.61 --undefined-- 50.600
3.62 --undefined-- 49.387
3.63 --undefined-- 54.802
3.64 --undefined-- 62.732
3.65 182.364 67.294
3.66 161.083 68.890
3.67 151.627 69.308
3.68 --undefined-- 70.626
3.69 115.262 73.168
3.70 112.075 75.181
3.71 105.512 75.958
3.72 103.219 76.098
3.73 102.349 76.007
3.74 102.400 75.715
3.75 102.420 75.084
3.76 99.370 74.008
3.77 99.411 72.869
3.78 101.123 71.781
3.79 102.893 70.506
3.80 106.231 69.010
3.81 112.217 67.885
3.82 126.939 68.247
3.83 132.732 69.867
3.84 134.912 72.676
3.85 136.453 75.568
3.86 132.920 77.443
3.87 130.998 78.419
3.88 131.534 78.776
3.89 131.460 78.679
3.90 132.501 78.360
3.91 133.174 78.051
3.92 133.860 77.715
3.93 134.478 76.980
3.94 133.165 75.272
3.95 131.602 72.343
3.96 129.286 68.632
3.97 137.052 64.218
3.98 --undefined-- 58.445
3.99 --undefined-- 55.970
4.00 --undefined-- 61.402
4.01 --undefined-- 68.396
4.02 149.211 73.057
4.03 141.455 75.365
4.04 122.383 76.040
4.05 117.912 75.962
4.06 117.278 75.843
4.07 117.483 75.769
4.08 117.526 75.412
4.09 117.008 74.372
4.10 115.179 72.346
4.11 114.023 69.531
4.12 113.214 66.246
4.13 119.334 62.645
4.14 --undefined-- 57.982
4.15 --undefined-- 52.602
4.16 --undefined-- 58.227
4.17 --undefined-- 65.705
4.18 147.689 70.657
4.19 151.070 74.160
4.20 138.439 76.598
4.21 133.297 77.953
4.22 134.269 78.698
4.23 136.149 79.254
4.24 138.355 79.714
4.25 140.699 80.059
4.26 143.365 80.320
4.27 147.091 80.645
4.28 150.839 81.182
4.29 154.054 81.900
4.30 156.903 82.568
4.31 159.095 82.921
4.32 160.424 82.664
4.33 160.745 81.264
4.34 157.933 78.181
4.35 151.032 73.505
4.36 148.779 68.625
4.37 158.611 63.611
4.38 157.321 59.023
4.39 --undefined-- 60.584
4.40 --undefined-- 64.028
4.41 --undefined-- 67.862
4.42 --undefined-- 72.525
4.43 158.042 75.590
4.44 128.759 76.670
4.45 128.359 76.552
4.46 127.602 76.045
4.47 128.441 75.734
4.48 130.241 75.585
4.49 130.604 75.353
4.50 136.325 75.094
4.51 143.616 74.740
4.52 147.837 74.489
4.53 149.467 74.608
4.54 150.612 74.649
4.55 147.719 73.991
4.56 143.375 72.259
4.57 136.150 69.465
4.58 129.649 65.728
4.59 144.050 61.399
4.60 --undefined-- 57.317
4.61 --undefined-- 56.903
4.62 --undefined-- 63.513
4.63 210.598 70.055
4.64 179.177 73.857
4.65 173.437 75.813
4.66 172.205 77.255
4.67 161.408 78.442
4.68 154.554 79.137
4.69 156.108 79.411
4.70 158.229 79.491
4.71 161.481 79.388
4.72 165.226 79.071
4.73 168.508 78.565
4.74 172.642 77.938
4.75 174.605 77.262
4.76 175.086 76.593
4.77 178.229 76.135
4.78 179.571 75.818
4.79 178.763 75.469
4.80 177.820 75.115
4.81 174.679 74.754
4.82 170.199 74.586
4.83 166.679 74.997
4.84 158.087 75.973
4.85 152.808 76.834
4.86 147.102 76.995
4.87 142.093 76.793
4.88 138.843 76.857
4.89 136.991 77.125
4.90 137.010 77.313
4.91 137.551 77.531
4.92 139.133 77.770
4.93 140.852 78.023
4.94 143.004 78.273
4.95 145.848 78.501
4.96 151.875 79.105
4.97 157.049 79.886
4.98 161.423 80.145
4.99 164.234 79.509
5.00 167.546 77.590
5.01 166.294 73.932
5.02 155.252 68.754
5.03 166.874 63.355
5.04 --undefined-- 58.720
5.05 --undefined-- 57.393
5.06 --undefined-- 58.682
5.07 --undefined-- 62.136
5.08 238.875 70.234
5.09 228.715 76.493
5.10 216.108 79.742
5.11 205.438 80.660
5.12 201.260 80.421
5.13 200.719 80.008
5.14 200.919 79.698
5.15 200.460 79.048
5.16 197.797 77.838
5.17 193.643 77.011
5.18 193.469 77.281
5.19 192.177 77.880
5.20 189.764 78.213
5.21 185.930 78.205
5.22 180.277 78.224
5.23 173.378 --undefined--
5.24 166.119 --undefined--
5.25 --undefined-- --undefined--
5.26 --undefined-- --undefined--
