Time Pitch Intensity
0.01 --undefined-- --undefined--
0.02 --undefined-- --undefined--
0.03 --undefined-- --undefined--
0.04 --undefined-- --undefined--
0.05 --undefined-- 54.620
0.06 --undefined-- 50.961
0.07 --undefined-- 46.590
0.08 --undefined-- 42.427
0.09 --undefined-- 40.249
0.10 --undefined-- 37.987
0.11 --undefined-- 36.769
0.12 --undefined-- 37.970
0.13 --undefined-- 38.883
0.14 --undefined-- 38.698
0.15 --undefined-- 37.914
0.16 --undefined-- 37.050
0.17 --undefined-- 35.622
0.18 --undefined-- 35.042
0.19 --undefined-- 36.774
0.20 --undefined-- 38.205
0.21 --undefined-- 38.540
0.22 --undefined-- 38.278
0.23 --undefined-- 38.744
0.24 --undefined-- 39.864
0.25 --undefined-- 39.754
0.26 --undefined-- 38.843
0.27 --undefined-- 40.270
0.28 --undefined-- 41.640
0.29 --undefined-- 41.500
0.30 --undefined-- 42.666
0.31 --undefined-- 46.283
0.32 --undefined-- 49.953
0.33 --undefined-- 53.059
0.34 --undefined-- 56.081
0.35 --undefined-- 62.415
0.36 175.230 68.638
0.37 158.453 72.713
0.38 155.467 75.277
0.39 147.086 76.575
0.40 143.432 77.063
0.41 139.606 76.846
0.42 134.351 76.127
0.43 132.226 75.795
0.44 131.055 75.744
0.45 131.201 75.700
0.46 132.907 75.605
0.47 133.370 75.127
0.48 133.031 74.206
0.49 132.380 73.873
0.50 134.872 74.516
0.51 135.358 74.847
0.52 135.225 74.373
0.53 133.110 73.032
0.54 131.111 70.455
0.55 127.945 65.975
0.56 --undefined-- 58.867
0.57 --undefined-- 49.730
0.58 --undefined-- 47.093
0.59 --undefined-- 55.035
0.60 --undefined-- 61.386
0.61 --undefined-- 66.591
0.62 188.286 71.266
0.63 181.550 74.135
0.64 173.567 75.457
0.65 171.867 76.284
0.66 170.999 76.961
0.67 170.821 77.418
0.68 171.801 77.682
0.69 173.165 78.199
0.70 174.381 78.803
0.71 174.711 78.926
0.72 175.147 78.801
0.73 175.734 78.502
0.74 176.281 77.574
0.75 176.084 76.006
0.76 175.353 74.686
0.77 174.831 74.232
0.78 173.580 74.211
0.79 171.814 74.149
0.80 170.672 73.822
0.81 169.575 73.315
0.82 168.508 72.669
0.83 168.889 71.610
0.84 168.797 69.938
0.85 169.445 67.854
0.86 172.696 66.090
0.87 189.500 65.036
0.88 200.981 63.176
0.89 --undefined-- 59.385
0.90 --undefined-- 54.423
0.91 --undefined-- 48.867
0.92 --undefined-- 42.540
0.93 --undefined-- 38.226
0.94 --undefined-- 36.403
0.95 --undefined-- 36.590
0.96 --undefined-- 36.616
0.97 --undefined-- 35.758
0.98 --undefined-- 34.932
0.99 --undefined-- 33.800
1.00 --undefined-- 33.942
1.01 --undefined-- 35.360
1.02 --undefined-- 36.552
1.03 --undefined-- 38.034
1.04 --undefined-- 38.984
1.05 --undefined-- 40.304
1.06 --undefined-- 41.360
1.07 --undefined-- 40.254
1.08 --undefined-- 36.947
1.09 --undefined-- 34.839
1.10 --undefined-- 35.309
1.11 --undefined-- 34.940
1.12 --undefined-- 33.574
1.13 --undefined-- 33.213
1.14 --undefined-- 33.186
1.15 --undefined-- 32.870
1.16 --undefined-- 35.303
1.17 --undefined-- 45.669
1.18 --undefined-- 55.962
1.19 --undefined-- 61.476
1.20 --undefined-- 64.582
1.21 --undefined-- 69.527
1.22 191.542 73.636
1.23 178.191 75.660
1.24 171.135 76.687
1.25 168.300 77.183
1.26 166.224 76.893
1.27 163.967 75.388
1.28 161.445 72.935
1.29 162.341 71.485
1.30 162.698 71.490
1.31 163.463 71.802
1.32 163.710 72.053
1.33 163.777 72.130
1.34 163.533 72.120
1.35 163.613 72.217
1.36 162.900 72.381
1.37 161.571 72.398
1.38 159.243 72.069
1.39 155.852 71.221
1.40 150.037 69.470
1.41 144.115 66.245
1.42 138.509 61.344
1.43 --undefined-- 56.149
1.44 --undefined-- 54.248
1.45 --undefined-- 53.520
1.46 --undefined-- 52.402
1.47 --undefined-- 51.920
1.48 --undefined-- 52.298
1.49 --undefined-- 55.956
1.50 --undefined-- 64.120
1.51 --undefined-- 70.017
1.52 134.241 72.904
1.53 126.772 73.723
1.54 121.687 73.772
1.55 118.019 73.842
1.56 115.278 73.546
1.57 111.689 72.264
1.58 107.544 69.939
1.59 104.754 66.867
1.60 106.046 63.276
1.61 --undefined-- 59.057
1.62 --undefined-- 54.663
1.63 --undefined-- 50.193
1.64 --undefined-- 44.368
1.65 --undefined-- 40.997
1.66 --undefined-- 42.394
1.67 --undefined-- 43.309
1.68 --undefined-- 41.955
1.69 --undefined-- 38.988
1.70 --undefined-- 36.260
1.71 --undefined-- 35.293
1.72 --undefined-- 36.976
1.73 --undefined-- 38.440
1.74 --undefined-- 38.837
1.75 --undefined-- 38.937
1.76 --undefined-- 38.338
1.77 --undefined-- 36.716
1.78 --undefined-- 34.486
1.79 --undefined-- 34.304
1.80 --undefined-- 36.882
1.81 --undefined-- 39.493
1.82 --undefined-- 39.865
1.83 --undefined-- 38.691
1.84 --undefined-- 38.517
1.85 --undefined-- 39.211
1.86 --undefined-- 38.952
1.87 --undefined-- 37.106
1.88 --undefined-- 37.095
1.89 --undefined-- 47.846
1.90 --undefined-- 59.370
1.91 --undefined-- 67.705
1.92 163.249 73.293
1.93 160.315 76.538
1.94 158.122 77.935
1.95 155.473 78.411
1.96 155.271 78.642
1.97 155.452 78.447
1.98 154.241 77.445
1.99 151.766 75.631
2.00 151.740 73.686
2.01 153.934 73.169
2.02 153.544 75.073
2.03 153.113 77.097
2.04 152.632 77.760
2.05 151.350 76.982
2.06 151.748 75.626
2.07 150.876 74.991
2.08 150.913 74.695
2.09 151.515 73.597
2.10 148.184 70.911
2.11 135.923 66.203
2.12 131.139 59.505
2.13 --undefined-- 51.404
2.14 --undefined-- 45.249
2.15 --undefined-- 45.731
2.16 --undefined-- 49.055
2.17 --undefined-- 52.575
2.18 --undefined-- 54.616
2.19 --undefined-- 55.497
2.20 --undefined-- 55.856
2.21 --undefined-- 57.454
2.22 --undefined-- 60.116
2.23 --undefined-- 60.773
2.24 --undefined-- 59.822
2.25 --undefined-- 64.599
2.26 173.173 69.771
2.27 161.075 71.573
2.28 143.350 70.811
2.29 142.412 70.278
2.30 148.823 71.130
2.31 149.311 71.518
2.32 147.803 71.294
2.33 146.511 70.927
2.34 144.747 70.551
2.35 142.573 70.154
2.36 139.984 69.946
2.37 139.323 70.255
2.38 136.385 70.637
2.39 128.886 70.699
2.40 122.036 71.314
2.41 117.746 72.137
2.42 112.734 72.146
2.43 108.997 71.345
2.44 101.410 70.211
2.45 99.345 69.078
2.46 97.313 67.802
2.47 94.202 66.453
2.48 92.673 65.409
2.49 91.303 64.819
2.50 90.435 64.587
2.51 91.971 64.362
2.52 89.147 63.914
2.53 89.666 63.606
2.54 88.565 63.407
2.55 89.929 62.972
2.56 89.709 62.362
2.57 91.710 61.569
2.58 96.016 60.302
2.59 --undefined-- 57.535
2.60 --undefined-- 53.765
2.61 --undefined-- 50.787
2.62 --undefined-- 49.473
2.63 --undefined-- 49.553
2.64 --undefined-- 47.120
2.65 --undefined-- 42.341
2.66 --undefined-- 38.794
2.67 --undefined-- 38.308
2.68 --undefined-- 39.182
2.69 --undefined-- 39.802
2.70 --undefined-- 39.598
2.71 --undefined-- 38.688
2.72 --undefined-- 38.351
2.73 --undefined-- 38.420
2.74 --undefined-- 38.455
2.75 --undefined-- 38.746
2.76 --undefined-- 38.569
2.77 --undefined-- 39.327
2.78 --undefined-- 40.009
2.79 --undefined-- 39.926
2.80 --undefined-- 40.080
2.81 --undefined-- 39.726
2.82 --undefined-- 38.092
2.83 --undefined-- 36.364
2.84 --undefined-- 35.949
2.85 --undefined-- 36.358
2.86 --undefined-- 38.526
2.87 --undefined-- 40.517
2.88 --undefined-- 41.196
2.89 --undefined-- 46.459
2.90 --undefined-- 55.492
2.91 181.644 61.058
2.92 154.813 64.061
2.93 154.812 66.088
2.94 156.062 67.855
2.95 156.822 69.376
2.96 159.061 70.775
2.97 162.304 72.084
2.98 166.407 73.295
2.99 167.965 74.297
3.00 168.566 74.545
3.01 164.657 73.797
3.02 160.862 73.511
3.03 166.070 74.247
3.04 166.767 74.724
3.05 166.119 74.768
3.06 165.105 74.582
3.07 163.693 74.177
3.08 160.745 73.258
3.09 156.170 71.226
3.10 150.067 67.312
3.11 --undefined-- 60.869
3.12 --undefined-- 58.987
3.13 --undefined-- 63.987
3.14 --undefined-- 65.312
3.15 --undefined-- 63.063
3.16 --undefined-- 58.965
3.17 --undefined-- 55.605
3.18 --undefined-- 54.412
3.19 --undefined-- 58.711
3.20 --undefined-- 63.928
3.21 125.624 67.163
3.22 125.247 68.792
3.23 105.378 69.639
3.24 103.538 70.364
3.25 103.721 70.778
3.26 103.428 70.974
3.27 103.528 71.064
3.28 104.774 71.194
3.29 109.509 71.735
3.30 114.396 72.688
3.31 117.352 73.324
3.32 122.495 73.421
3.33 132.239 73.895
3.34 139.138 74.652
3.35 144.966 74.706
3.36 152.264 74.069
3.37 158.907 73.163
3.38 162.983 71.928
3.39 159.229 70.009
3.40 149.007 67.199
3.41 --undefined-- 63.326
3.42 --undefined-- 58.330
3.43 --undefined-- 54.278
3.44 --undefined-- 51.872
3.45 --undefined-- 48.047
3.46 --undefined-- 43.863
3.47 --undefined-- 42.932
3.48 --undefined-- 42.304
3.49 --undefined-- 41.066
3.50 --undefined-- 40.823
3.51 --undefined-- 41.502
3.52 --undefined-- 42.310
3.53 --undefined-- 42.522
3.54 --undefined-- 42.713
3.55 --undefined-- 43.143
3.56 --undefined-- 43.365
3.57 --undefined-- 43.676
3.58 --undefined-- 44.144
3.59 --undefined-- 44.439
3.60 --undefined-- 44.394
3.61 --undefined-- 43.513
3.62 --undefined-- 42.422
3.63 --undefined-- 42.657
3.64 --undefined-- 43.013
3.65 --undefined-- 42.902
3.66 --undefined-- 41.660
3.67 --undefined-- 39.062
3.68 --undefined-- 39.595
3.69 --undefined-- 45.172
3.70 --undefined-- 50.028
3.71 --undefined-- 51.058
3.72 --undefined-- 47.995
3.73 --undefined-- 44.992
3.74 --undefined-- 52.526
3.75 --undefined-- 57.855
3.76 --undefined-- 60.699
3.77 139.726 65.206
3.78 135.775 69.455
3.79 131.680 71.334
3.80 126.069 71.427
3.81 124.592 71.347
3.82 127.793 71.598
3.83 127.146 71.637
3.84 129.015 71.887
3.85 131.401 72.930
3.86 129.673 74.112
3.87 127.400 74.560
3.88 125.294 74.323
3.89 122.576 73.956
3.90 120.784 73.736
3.91 116.899 73.219
3.92 116.144 71.821
3.93 112.301 68.919
3.94 105.163 63.887
3.95 --undefined-- 56.757
3.96 --undefined-- 50.138
3.97 --undefined-- 48.411
3.98 --undefined-- 51.614
3.99 --undefined-- 54.224
4.00 --undefined-- 53.600
4.01 --undefined-- 51.510
4.02 --undefined-- 50.939
4.03 --undefined-- 52.007
4.04 --undefined-- 59.007
4.05 --undefined-- 65.872
4.06 132.993 69.682
4.07 118.675 71.098
4.08 117.420 71.453
4.09 117.464 71.507
4.10 117.689 71.292
4.11 116.759 71.097
4.12 116.467 71.124
4.13 117.080 71.222
4.14 117.639 71.262
4.15 118.126 71.233
4.16 119.241 70.791
4.17 118.538 69.062
4.18 108.339 65.130
4.19 98.358 59.334
4.20 --undefined-- 56.558
4.21 --undefined-- 60.151
4.22 --undefined-- 61.934
4.23 --undefined-- 62.755
4.24 134.136 66.542
4.25 137.280 69.608
4.26 143.286 70.581
4.27 145.473 70.511
4.28 154.356 71.140
4.29 167.708 72.366
4.30 172.971 73.343
4.31 177.723 74.160
4.32 179.719 74.938
4.33 179.594 75.664
4.34 179.296 76.195
4.35 179.415 76.484
4.36 179.409 76.463
4.37 179.431 76.219
4.38 180.891 75.828
4.39 182.080 75.094
4.40 182.506 73.730
4.41 182.168 71.609
4.42 181.142 68.657
4.43 187.384 64.823
4.44 --undefined-- 61.215
4.45 --undefined-- 58.029
4.46 278.665 56.077
4.47 270.123 55.919
4.48 261.773 55.570
4.49 144.658 56.792
4.50 139.887 59.517
4.51 126.517 62.416
4.52 117.268 65.448
4.53 116.916 68.165
4.54 116.284 69.911
4.55 114.690 70.245
4.56 111.333 69.181
4.57 103.238 67.663
4.58 99.354 66.484
4.59 96.617 65.311
4.60 93.182 63.769
4.61 95.829 62.979
4.62 98.994 64.217
4.63 99.456 65.499
4.64 100.752 65.984
4.65 101.992 66.008
4.66 104.643 66.087
4.67 106.612 66.417
4.68 108.753 66.656
4.69 108.253 66.220
4.70 105.898 64.418
4.71 101.433 60.684
4.72 --undefined-- 54.692
4.73 --undefined-- 48.974
4.74 --undefined-- 56.141
4.75 --undefined-- 62.161
4.76 --undefined-- 67.041
4.77 160.038 71.778
4.78 157.259 74.756
4.79 154.698 75.835
4.80 153.601 75.761
4.81 153.657 75.252
4.82 154.523 74.848
4.83 157.170 74.769
4.84 156.844 74.832
4.85 155.278 74.951
4.86 154.188 75.062
4.87 152.134 74.998
4.88 149.947 74.441
4.89 147.788 72.750
4.90 142.091 69.127
4.91 142.048 62.814
4.92 --undefined-- 54.213
4.93 --undefined-- 49.713
4.94 --undefined-- 56.211
4.95 --undefined-- 64.864
4.96 153.839 70.274
4.97 140.010 72.951
4.98 130.598 73.804
4.99 120.759 73.629
5.00 117.519 73.067
5.01 112.747 72.150
5.02 111.621 71.384
5.03 110.956 71.495
5.04 110.764 71.846
5.05 111.421 71.729
5.06 114.590 71.397
5.07 119.952 70.973
5.08 116.636 69.210
5.09 104.827 65.157
5.10 91.912 58.734
5.11 --undefined-- 52.070
5.12 --undefined-- 47.306
5.13 --undefined-- 53.526
5.14 --undefined-- 62.743
5.15 --undefined-- 68.129
5.16 118.897 70.334
5.17 105.498 70.261
5.18 104.382 69.194
5.19 101.880 68.392
5.20 103.460 67.871
5.21 104.197 67.638
5.22 103.916 67.680
5.23 104.184 67.511
5.24 103.934 67.935
5.25 113.043 69.692
5.26 121.324 71.250
5.27 127.182 72.001
5.28 132.817 72.317
5.29 139.458 72.569
5.30 145.199 72.609
5.31 151.616 71.948
5.32 154.810 70.453
5.33 154.894 68.327
5.34 153.541 65.694
5.35 102.484 61.897
5.36 105.582 57.309
5.37 --undefined-- 53.625
5.38 --undefined-- 49.399
5.39 --undefined-- 43.223
5.40 --undefined-- 39.494
5.41 --undefined-- 39.569
5.42 --undefined-- 38.649
5.43 --undefined-- 37.455
5.44 --undefined-- 37.902
5.45 --undefined-- 39.167
5.46 --undefined-- 40.764
5.47 --undefined-- 42.364
5.48 --undefined-- 42.883
5.49 --undefined-- 42.000
5.50 --undefined-- 40.246
5.51 --undefined-- 38.644
5.52 --undefined-- 38.950
5.53 --undefined-- 38.980
5.54 --undefined-- 38.191
5.55 --undefined-- 37.087
5.56 --undefined-- 36.243
5.57 --undefined-- 37.509
5.58 --undefined-- 39.217
5.59 --undefined-- 39.288
5.60 --undefined-- 38.053
5.61 --undefined-- 36.995
5.62 --undefined-- 36.461
5.63 --undefined-- 36.810
5.64 --undefined-- 38.112
5.65 --undefined-- 38.946
5.66 --undefined-- 39.508
5.67 --undefined-- 39.287
5.68 --undefined-- 38.692
5.69 --undefined-- 39.122
5.70 --undefined-- 39.311
5.71 --undefined-- 38.077
5.72 --undefined-- 37.065
5.73 --undefined-- 37.728
5.74 --undefined-- 38.320
5.75 --undefined-- 38.446
5.76 --undefined-- 37.886
5.77 --undefined-- 37.483
5.78 --undefined-- 39.091
5.79 --undefined-- 39.842
5.80 --undefined-- 38.167
5.81 --undefined-- 36.612
5.82 --undefined-- 38.147
5.83 --undefined-- 38.891
5.84 --undefined-- 38.323
5.85 --undefined-- 37.666
5.86 --undefined-- 36.774
5.87 --undefined-- 36.941
5.88 --undefined-- 37.360
5.89 --undefined-- 39.219
5.90 --undefined-- 41.779
5.91 --undefined-- 42.162
5.92 --undefined-- 40.375
5.93 --undefined-- 38.062
5.94 --undefined-- 36.991
5.95 --undefined-- 37.177
5.96 --undefined-- 42.548
5.97 --undefined-- 51.132
5.98 --undefined-- 57.472
5.99 --undefined-- 63.818
6.00 204.602 70.546
6.01 196.447 74.624
6.02 189.049 76.128
6.03 185.115 76.310
6.04 182.282 75.601
6.05 177.335 73.125
6.06 152.026 68.488
6.07 147.133 64.520
6.08 168.691 68.297
6.09 170.352 72.939
6.10 165.047 75.195
6.11 158.857 75.763
6.12 156.556 76.154
6.13 154.219 77.024
6.14 152.176 78.132
6.15 150.423 78.717
6.16 148.163 77.995
6.17 141.438 76.146
6.18 129.571 74.079
6.19 119.749 72.192
6.20 116.546 70.786
6.21 120.911 70.292
6.22 121.488 69.963
6.23 126.297 69.864
6.24 128.493 71.034
6.25 127.792 72.532
6.26 126.168 73.431
6.27 121.780 73.978
6.28 123.089 74.322
6.29 123.355 74.862
6.30 123.881 75.492
6.31 126.492 75.686
6.32 132.523 75.699
6.33 139.159 75.951
6.34 146.760 76.553
6.35 151.321 76.712
6.36 160.137 75.827
6.37 173.631 74.856
6.38 177.460 74.611
6.39 181.171 74.449
6.40 182.498 73.681
6.41 182.083 72.158
6.42 181.176 70.179
6.43 182.170 67.803
6.44 --undefined-- 64.991
6.45 --undefined-- 61.984
6.46 --undefined-- 58.598
6.47 --undefined-- 54.539
6.48 --undefined-- 50.177
6.49 --undefined-- 45.175
6.50 --undefined-- 41.075
6.51 --undefined-- 39.027
6.52 --undefined-- 39.094
6.53 --undefined-- 38.909
6.54 --undefined-- 38.989
6.55 --undefined-- 40.249
6.56 --undefined-- 49.534
6.57 --undefined-- 60.630
6.58 --undefined-- 68.069
6.59 --undefined-- 71.992
6.60 --undefined-- 73.195
6.61 120.360 72.732
6.62 118.065 71.950
6.63 117.225 71.397
6.64 117.825 71.332
6.65 118.176 71.655
6.66 117.970 72.075
6.67 117.688 72.457
6.68 117.446 72.576
6.69 116.761 72.241
6.70 115.850 71.691
6.71 115.556 71.462
6.72 115.625 71.537
6.73 117.863 71.516
6.74 118.240 71.190
6.75 117.378 70.762
6.76 114.255 70.320
6.77 111.281 69.485
6.78 110.021 67.691
6.79 100.377 64.416
6.80 96.178 59.633
6.81 93.799 55.286
6.82 94.302 --undefined--
6.83 114.839 --undefined--
6.84 --undefined-- --undefined--
6.85 --undefined-- --undefined--
