Time Pitch Intensity
0.01 --undefined-- --undefined--
0.02 258.551 --undefined--
0.03 257.210 --undefined--
0.04 253.285 --undefined--
0.05 248.941 66.208
0.06 246.357 62.684
0.07 239.105 58.604
0.08 238.112 55.322
0.09 238.840 53.829
0.10 274.492 55.737
0.11 284.192 59.736
0.12 --undefined-- 64.075
0.13 179.347 67.769
0.14 178.908 70.150
0.15 178.433 70.566
0.16 177.251 68.872
0.17 175.705 65.849
0.18 178.012 62.896
0.19 181.010 60.792
0.20 --undefined-- 60.651
0.21 --undefined-- 62.107
0.22 --undefined-- 63.738
0.23 --undefined-- 64.953
0.24 --undefined-- 65.067
0.25 --undefined-- 65.319
0.26 --undefined-- 65.877
0.27 --undefined-- 65.649
0.28 --undefined-- 65.633
0.29 --undefined-- 66.055
0.30 --undefined-- 66.083
0.31 --undefined-- 65.350
0.32 --undefined-- 66.600
0.33 --undefined-- 67.991
0.34 --undefined-- 68.022
0.35 122.975 67.646
0.36 123.356 67.438
0.37 --undefined-- 67.118
0.38 --undefined-- 66.316
0.39 168.648 65.301
0.40 172.742 64.612
0.41 180.118 64.820
0.42 185.596 64.930
0.43 189.470 64.623
0.44 189.665 65.096
0.45 190.087 66.670
0.46 191.452 68.430
0.47 191.202 69.748
0.48 185.020 70.689
0.49 174.427 71.160
0.50 169.566 70.739
0.51 163.721 69.502
0.52 159.568 68.000
0.53 158.946 66.438
0.54 160.128 65.293
0.55 165.488 65.093
0.56 168.989 65.097
0.57 173.942 65.038
0.58 178.344 65.797
0.59 182.970 67.544
0.60 187.486 69.384
0.61 187.457 70.240
0.62 187.760 69.901
0.63 188.901 69.058
0.64 187.016 68.470
0.65 186.142 67.959
0.66 188.425 67.109
0.67 190.352 66.198
0.68 191.351 65.333
0.69 193.706 64.519
0.70 195.332 63.705
0.71 197.747 62.753
0.72 199.069 62.104
0.73 199.027 61.787
0.74 196.560 60.928
0.75 193.676 58.738
0.76 194.289 54.975
0.77 --undefined-- 50.431
0.78 --undefined-- 48.496
0.79 --undefined-- 49.711
0.80 --undefined-- 50.920
0.81 --undefined-- 51.188
0.82 --undefined-- 50.937
0.83 --undefined-- 51.430
0.84 --undefined-- 57.657
0.85 178.136 63.736
0.86 171.498 67.606
0.87 164.636 69.605
0.88 --undefined-- 69.804
0.89 --undefined-- 68.755
0.90 129.205 67.799
0.91 130.389 67.767
0.92 135.757 68.331
0.93 137.897 69.001
0.94 141.916 69.288
0.95 143.336 69.534
0.96 165.717 70.386
0.97 165.841 71.356
0.98 167.901 71.441
0.99 174.082 71.008
1.00 180.278 70.799
1.01 185.635 70.706
1.02 188.419 70.036
1.03 188.622 68.670
1.04 184.277 67.617
1.05 179.064 67.255
1.06 167.241 66.659
1.07 152.178 65.490
1.08 --undefined-- 63.838
1.09 --undefined-- 61.911
1.10 --undefined-- 58.306
1.11 --undefined-- 51.534
1.12 --undefined-- 46.788
1.13 --undefined-- 45.651
1.14 --undefined-- 41.624
1.15 --undefined-- 34.417
1.16 --undefined-- 27.220
1.17 --undefined-- 23.855
1.18 --undefined-- 24.704
1.19 --undefined-- 26.026
1.20 --undefined-- 25.947
1.21 --undefined-- 25.579
1.22 --undefined-- 25.865
1.23 --undefined-- 25.597
1.24 --undefined-- 24.081
1.25 --undefined-- 22.461
1.26 --undefined-- 21.948
1.27 --undefined-- 22.854
1.28 --undefined-- 24.178
1.29 --undefined-- 24.895
1.30 --undefined-- 25.332
1.31 --undefined-- 25.921
1.32 --undefined-- 26.211
1.33 --undefined-- 26.188
1.34 --undefined-- 28.561
1.35 --undefined-- 36.318
1.36 --undefined-- 42.621
1.37 --undefined-- 46.515
1.38 --undefined-- 49.141
1.39 --undefined-- 50.799
1.40 --undefined-- 51.960
1.41 --undefined-- 54.522
1.42 --undefined-- 57.220
1.43 --undefined-- 58.222
1.44 --undefined-- 57.975
1.45 --undefined-- 57.584
1.46 --undefined-- 56.373
1.47 --undefined-- 54.097
1.48 --undefined-- 51.602
1.49 --undefined-- 50.617
1.50 --undefined-- 51.643
1.51 --undefined-- 52.212
1.52 --undefined-- 51.551
1.53 --undefined-- 50.085
1.54 --undefined-- 48.901
1.55 --undefined-- 48.494
1.56 --undefined-- 47.871
1.57 --undefined-- 46.527
1.58 --undefined-- 44.364
1.59 --undefined-- 42.018
1.60 --undefined-- 38.832
1.61 --undefined-- 34.522
1.62 --undefined-- 30.411
1.63 --undefined-- 27.305
1.64 --undefined-- 26.226
1.65 --undefined-- 28.846
1.66 --undefined-- 39.848
1.67 --undefined-- 48.140
1.68 --undefined-- 51.713
1.69 --undefined-- 52.735
1.70 --undefined-- 59.864
1.71 --undefined-- 66.501
1.72 --undefined-- 69.838
1.73 --undefined-- 70.365
1.74 283.314 68.734
1.75 283.532 68.126
1.76 288.367 69.717
1.77 296.683 70.616
1.78 158.927 70.671
1.79 166.535 69.975
1.80 165.737 69.076
1.81 164.829 69.277
1.82 165.577 70.015
1.83 166.564 70.922
1.84 163.018 72.546
1.85 159.743 73.715
1.86 156.994 73.097
1.87 299.263 70.756
1.88 285.824 67.531
1.89 250.049 64.345
1.90 237.402 62.124
1.91 234.561 61.116
1.92 231.421 60.790
1.93 227.828 60.909
1.94 224.316 61.335
1.95 221.512 61.877
1.96 220.004 62.219
1.97 216.977 62.489
1.98 216.281 63.739
1.99 218.115 66.406
2.00 214.859 69.376
2.01 211.774 71.283
2.02 210.867 71.839
2.03 210.752 71.856
2.04 210.834 71.816
2.05 211.128 71.511
2.06 212.854 71.138
2.07 216.598 71.293
2.08 220.526 71.801
2.09 222.911 71.499
2.10 224.264 69.551
2.11 227.032 66.363
2.12 229.897 64.337
2.13 236.103 64.269
2.14 243.528 65.441
2.15 245.110 67.283
2.16 249.487 68.558
2.17 256.170 69.066
2.18 261.592 69.256
2.19 266.277 69.404
2.20 267.607 69.709
2.21 267.141 69.909
2.22 265.924 69.203
2.23 264.784 67.440
2.24 264.643 64.940
2.25 263.937 61.893
2.26 274.924 58.417
2.27 --undefined-- 53.648
2.28 --undefined-- 47.577
2.29 --undefined-- 44.034
2.30 --undefined-- 50.479
2.31 --undefined-- 59.490
2.32 239.687 65.158
2.33 214.985 68.681
2.34 206.261 71.515
2.35 201.070 73.194
2.36 192.736 73.125
2.37 185.342 71.924
2.38 182.132 70.585
2.39 180.695 69.555
2.40 180.771 69.261
2.41 178.190 69.795
2.42 176.482 70.424
2.43 176.374 70.820
2.44 176.671 70.984
2.45 176.681 70.686
2.46 176.218 69.905
2.47 176.330 69.008
2.48 174.783 67.944
2.49 172.989 66.659
2.50 173.748 65.567
2.51 176.171 64.469
2.52 178.233 62.796
2.53 179.069 60.266
2.54 176.623 57.101
2.55 176.441 54.070
2.56 176.273 51.608
2.57 --undefined-- 50.053
2.58 --undefined-- 49.822
2.59 167.834 51.840
2.60 167.130 55.406
2.61 167.146 58.075
2.62 167.052 59.641
2.63 167.000 61.095
2.64 169.023 63.061
2.65 171.733 65.170
2.66 174.371 66.873
2.67 174.932 68.055
2.68 175.180 68.799
2.69 175.223 69.185
2.70 176.082 69.262
2.71 176.965 69.214
2.72 176.885 69.408
2.73 178.111 69.825
2.74 178.475 69.917
2.75 177.996 69.586
2.76 177.516 69.547
2.77 177.881 69.855
2.78 179.333 69.869
2.79 182.472 69.797
2.80 184.821 69.852
2.81 186.307 69.782
2.82 189.094 69.661
2.83 190.806 69.529
2.84 192.190 69.176
2.85 194.872 68.713
2.86 197.199 68.755
2.87 200.382 69.229
2.88 204.117 69.466
2.89 205.205 69.470
2.90 204.589 69.635
2.91 204.869 69.886
2.92 205.194 69.986
2.93 205.703 69.969
2.94 206.008 69.792
2.95 205.396 69.514
2.96 204.577 69.418
2.97 204.674 69.475
2.98 204.800 69.309
2.99 204.850 68.615
3.00 202.994 67.427
3.01 195.840 66.228
3.02 192.530 65.215
3.03 180.599 64.267
3.04 177.584 62.745
3.05 176.726 59.924
3.06 --undefined-- 57.215
3.07 --undefined-- 55.948
3.08 --undefined-- 52.733
3.09 --undefined-- 45.243
3.10 --undefined-- 33.372
3.11 --undefined-- 27.185
3.12 --undefined-- 26.672
3.13 --undefined-- 26.540
3.14 --undefined-- 26.290
3.15 --undefined-- 26.136
3.16 --undefined-- 26.101
3.17 --undefined-- 26.774
3.18 --undefined-- 36.353
3.19 --undefined-- 49.302
3.20 --undefined-- 58.171
3.21 --undefined-- 64.116
3.22 --undefined-- 68.085
3.23 159.656 70.126
3.24 161.545 70.524
3.25 165.944 70.185
3.26 167.829 69.667
3.27 169.411 69.229
3.28 167.847 69.033
3.29 166.665 68.900
3.30 165.521 68.671
3.31 163.403 68.560
3.32 162.683 68.798
3.33 162.806 69.229
3.34 162.924 69.457
3.35 162.979 69.169
3.36 162.212 68.402
3.37 160.096 67.839
3.38 160.013 68.039
3.39 161.567 68.410
3.40 162.236 68.671
3.41 162.432 68.905
3.42 161.558 69.060
3.43 160.113 69.458
3.44 159.853 69.930
3.45 159.850 70.043
3.46 159.293 69.968
3.47 159.508 69.762
3.48 160.963 69.630
3.49 160.355 69.886
3.50 159.621 69.899
3.51 159.661 69.449
3.52 159.215 69.193
3.53 159.148 69.111
3.54 160.406 68.586
3.55 160.523 67.820
3.56 159.583 67.343
3.57 159.782 67.036
3.58 159.034 66.766
3.59 156.772 66.269
3.60 156.231 64.937
3.61 156.922 63.119
3.62 157.690 61.676
3.63 158.926 60.644
3.64 156.897 59.648
3.65 152.845 57.949
3.66 148.766 54.774
3.67 --undefined-- 49.699
3.68 --undefined-- 45.399
3.69 --undefined-- 45.529
3.70 --undefined-- 45.881
3.71 --undefined-- 45.857
3.72 --undefined-- 45.998
3.73 --undefined-- 45.749
3.74 --undefined-- 45.711
3.75 --undefined-- 46.959
3.76 --undefined-- 49.041
3.77 180.655 50.634
3.78 178.302 51.064
3.79 --undefined-- 50.708
3.80 --undefined-- 50.039
3.81 --undefined-- 53.608
3.82 --undefined-- 62.575
3.83 188.506 68.590
3.84 186.358 71.590
3.85 183.175 72.180
3.86 182.001 70.986
3.87 182.084 69.767
3.88 184.842 69.767
3.89 186.347 69.431
3.90 185.467 67.879
3.91 181.245 66.046
3.92 163.142 65.088
3.93 164.923 65.013
3.94 174.568 64.969
3.95 186.715 64.192
3.96 194.741 62.664
3.97 206.878 61.035
3.98 212.836 60.185
3.99 228.011 60.950
4.00 230.299 61.873
4.01 230.402 61.921
4.02 236.724 61.878
4.03 238.693 61.958
4.04 238.792 61.867
4.05 237.996 62.045
4.06 237.141 63.019
4.07 236.097 64.404
4.08 234.028 65.495
4.09 233.747 66.244
4.10 227.450 66.989
4.11 216.991 68.183
4.12 211.522 70.292
4.13 208.535 71.896
4.14 201.639 71.760
4.15 187.196 70.322
4.16 180.556 69.209
4.17 176.895 68.590
4.18 173.560 67.721
4.19 169.718 66.849
4.20 166.035 66.033
4.21 162.782 65.372
4.22 162.805 65.129
4.23 163.024 65.158
4.24 161.880 65.055
4.25 159.210 64.502
4.26 154.600 63.472
4.27 151.614 62.080
4.28 153.177 60.281
4.29 153.411 57.518
4.30 --undefined-- 54.338
4.31 --undefined-- 53.897
4.32 100.526 54.801
4.33 97.543 54.348
4.34 94.100 52.652
4.35 --undefined-- 49.754
4.36 --undefined-- 44.777
4.37 --undefined-- 39.419
4.38 --undefined-- 44.592
4.39 --undefined-- 54.113
4.40 166.039 61.881
4.41 165.258 66.793
4.42 163.603 69.412
4.43 161.843 70.652
4.44 155.429 70.840
4.45 150.685 70.098
4.46 147.752 68.468
4.47 --undefined-- 66.124
4.48 --undefined-- 63.460
4.49 --undefined-- 60.310
4.50 --undefined-- 57.399
4.51 152.580 57.704
4.52 159.743 59.168
4.53 160.583 59.943
4.54 159.166 60.383
4.55 159.587 60.531
4.56 158.677 60.298
4.57 155.169 59.953
4.58 155.016 60.144
4.59 156.545 60.837
4.60 157.967 60.856
4.61 157.106 59.263
4.62 153.935 56.616
4.63 157.995 55.313
4.64 175.504 56.257
4.65 175.001 59.406
4.66 173.957 62.293
4.67 174.264 63.761
4.68 161.280 65.448
4.69 159.989 67.037
4.70 --undefined-- 66.662
4.71 --undefined-- 65.049
4.72 191.211 65.131
4.73 190.056 66.793
4.74 --undefined-- 67.998
4.75 166.286 68.397
4.76 161.127 68.561
4.77 156.552 68.990
4.78 156.486 69.364
4.79 158.655 69.429
4.80 162.121 69.328
4.81 166.766 68.769
4.82 171.422 67.533
4.83 180.501 66.691
4.84 189.508 66.544
4.85 202.380 66.103
4.86 207.910 65.780
4.87 214.326 65.998
4.88 227.941 67.422
4.89 240.567 69.406
4.90 246.443 70.262
4.91 248.731 69.368
4.92 249.312 66.446
4.93 249.257 61.561
4.94 262.692 56.410
4.95 --undefined-- 50.684
4.96 --undefined-- 41.916
4.97 --undefined-- 33.548
4.98 --undefined-- 43.822
4.99 --undefined-- 51.939
5.00 --undefined-- 55.330
5.01 --undefined-- 54.861
5.02 --undefined-- 52.191
5.03 --undefined-- 51.387
5.04 --undefined-- 52.438
5.05 --undefined-- 53.895
5.06 --undefined-- 55.420
5.07 212.300 59.557
5.08 205.692 64.644
5.09 200.629 67.696
5.10 164.044 69.204
5.11 161.082 69.720
5.12 155.588 69.298
5.13 152.866 68.419
5.14 153.065 67.461
5.15 154.284 66.424
5.16 156.814 65.769
5.17 159.543 65.820
5.18 161.880 65.708
5.19 164.914 64.642
5.20 170.577 62.905
5.21 181.119 61.871
5.22 193.733 62.092
5.23 206.558 62.031
5.24 218.541 61.350
5.25 224.041 60.226
5.26 229.493 57.645
5.27 --undefined-- 52.575
5.28 --undefined-- 46.294
5.29 --undefined-- 49.116
5.30 --undefined-- 54.118
5.31 --undefined-- 58.449
5.32 --undefined-- 61.725
5.33 --undefined-- 63.989
5.34 218.310 66.360
5.35 220.417 68.142
5.36 218.389 68.452
5.37 214.762 67.865
5.38 --undefined-- 67.581
5.39 --undefined-- 68.494
5.40 --undefined-- 69.142
5.41 --undefined-- 68.652
5.42 --undefined-- 67.481
5.43 --undefined-- --undefined--
5.44 --undefined-- --undefined--
5.45 --undefined-- --undefined--
5.46 --undefined-- --undefined--
