Time Pitch Intensity
0.01 --undefined-- --undefined--
0.02 266.786 --undefined--
0.03 260.652 --undefined--
0.04 255.803 --undefined--
0.05 261.608 62.716
0.06 264.449 63.171
0.07 --undefined-- 61.654
0.08 --undefined-- 60.234
0.09 --undefined-- 60.496
0.10 --undefined-- 59.324
0.11 --undefined-- 56.495
0.12 --undefined-- 54.746
0.13 --undefined-- 57.215
0.14 --undefined-- 60.874
0.15 --undefined-- 61.815
0.16 --undefined-- 60.222
0.17 --undefined-- 59.575
0.18 --undefined-- 61.319
0.19 166.155 64.490
0.20 162.520 66.996
0.21 161.894 68.163
0.22 162.406 68.643
0.23 162.434 68.888
0.24 161.698 68.715
0.25 159.792 68.018
0.26 156.832 67.787
0.27 159.504 68.297
0.28 162.740 69.221
0.29 165.051 70.375
0.30 165.626 71.120
0.31 164.604 71.195
0.32 161.978 70.668
0.33 159.529 68.733
0.34 161.217 64.295
0.35 163.003 57.403
0.36 --undefined-- 53.533
0.37 --undefined-- 57.753
0.38 275.375 61.731
0.39 276.121 62.765
0.40 282.317 61.816
0.41 281.027 62.109
0.42 247.760 62.673
0.43 224.624 61.327
0.44 206.918 59.155
0.45 206.484 58.617
0.46 206.173 59.925
0.47 193.987 61.532
0.48 179.817 62.547
0.49 162.179 62.900
0.50 154.593 62.939
0.51 153.274 63.249
0.52 152.950 63.772
0.53 153.179 63.868
0.54 152.294 63.587
0.55 151.303 63.707
0.56 150.072 64.470
0.57 149.069 64.988
0.58 143.811 64.164
0.59 148.862 63.321
0.60 161.940 64.303
0.61 165.381 64.721
0.62 169.029 64.358
0.63 176.682 65.169
0.64 188.530 68.172
0.65 196.194 71.583
0.66 202.357 73.758
0.67 206.460 75.232
0.68 210.277 76.381
0.69 216.984 76.641
0.70 224.305 75.996
0.71 226.179 75.238
0.72 226.546 74.779
0.73 225.950 74.400
0.74 223.372 73.517
0.75 216.910 72.225
0.76 210.512 71.567
0.77 201.031 71.270
0.78 192.916 70.703
0.79 183.946 70.046
0.80 169.702 69.537
0.81 166.810 68.890
0.82 166.157 67.219
0.83 184.056 65.292
0.84 174.734 65.016
0.85 166.457 64.567
0.86 156.220 62.490
0.87 --undefined-- 60.683
0.88 --undefined-- 62.615
0.89 --undefined-- 64.250
0.90 --undefined-- 63.279
0.91 --undefined-- 60.167
0.92 --undefined-- 59.273
0.93 --undefined-- 61.143
0.94 199.179 63.666
0.95 192.104 65.769
0.96 187.749 66.975
0.97 185.302 67.672
0.98 183.351 67.966
0.99 181.929 67.849
1.00 180.923 67.936
1.01 180.246 68.470
1.02 178.483 68.834
1.03 178.280 68.877
1.04 178.212 68.883
1.05 176.517 68.884
1.06 175.151 68.769
1.07 173.658 68.568
1.08 171.478 68.214
1.09 173.577 67.303
1.10 176.751 66.024
1.11 183.807 64.892
1.12 184.340 62.492
1.13 184.701 57.511
1.14 --undefined-- 51.799
1.15 --undefined-- 52.467
1.16 --undefined-- 55.312
1.17 --undefined-- 58.153
1.18 --undefined-- 60.539
1.19 --undefined-- 61.731
1.20 --undefined-- 61.644
1.21 --undefined-- 61.281
1.22 --undefined-- 60.586
1.23 --undefined-- 59.908
1.24 --undefined-- 59.336
1.25 --undefined-- 57.033
1.26 --undefined-- 55.551
1.27 239.850 60.022
1.28 220.504 64.268
1.29 205.631 67.117
1.30 187.184 68.895
1.31 179.754 69.220
1.32 174.692 67.691
1.33 163.333 64.532
1.34 161.628 61.242
1.35 165.099 59.937
1.36 167.477 59.368
1.37 164.225 58.251
1.38 163.366 57.133
1.39 160.770 56.657
1.40 160.445 57.159
1.41 160.143 57.718
1.42 164.681 57.855
1.43 167.630 58.147
1.44 170.369 58.159
1.45 188.971 57.037
1.46 --undefined-- 54.821
1.47 --undefined-- 55.888
1.48 --undefined-- 59.496
1.49 --undefined-- 61.340
1.50 --undefined-- 61.616
1.51 --undefined-- 63.474
1.52 --undefined-- 66.865
1.53 182.907 69.329
1.54 184.609 70.694
1.55 183.914 71.318
1.56 180.248 71.501
1.57 175.774 71.156
1.58 173.174 69.908
1.59 171.778 67.367
1.60 --undefined-- 64.464
1.61 --undefined-- 62.991
1.62 --undefined-- 61.319
1.63 --undefined-- 59.389
1.64 --undefined-- 58.590
1.65 --undefined-- 58.245
1.66 --undefined-- 58.255
1.67 --undefined-- 59.299
1.68 --undefined-- 59.694
1.69 --undefined-- 60.354
1.70 158.938 62.342
1.71 169.332 64.395
1.72 177.820 66.468
1.73 179.111 69.008
1.74 182.378 71.061
1.75 182.194 71.786
1.76 182.980 71.481
1.77 186.187 70.592
1.78 188.157 69.163
1.79 185.462 67.536
1.80 182.539 65.519
1.81 --undefined-- 63.075
1.82 --undefined-- 61.297
1.83 --undefined-- 60.453
1.84 --undefined-- 58.904
1.85 --undefined-- 57.659
1.86 --undefined-- 58.593
1.87 170.776 61.145
1.88 183.669 64.904
1.89 186.753 68.062
1.90 188.214 70.002
1.91 187.303 70.380
1.92 186.297 69.369
1.93 182.523 68.626
1.94 177.811 69.505
1.95 174.789 70.559
1.96 172.070 71.110
1.97 170.327 71.306
1.98 168.616 71.156
1.99 167.872 70.778
2.00 167.020 70.189
2.01 166.891 69.524
2.02 167.127 69.112
2.03 167.000 68.814
2.04 165.288 68.119
2.05 163.979 66.877
2.06 163.643 65.554
2.07 163.999 64.370
2.08 164.947 62.751
2.09 164.764 60.178
2.10 150.342 56.678
2.11 156.235 54.282
2.12 161.925 55.510
2.13 --undefined-- 57.524
2.14 --undefined-- 60.162
2.15 197.331 64.412
2.16 195.016 68.109
2.17 190.326 70.706
2.18 188.617 72.635
2.19 188.227 73.840
2.20 187.286 74.358
2.21 187.086 74.691
2.22 187.609 75.005
2.23 188.169 75.151
2.24 188.500 75.154
2.25 189.310 75.055
2.26 190.354 74.869
2.27 190.146 75.032
2.28 187.938 75.931
2.29 183.377 76.738
2.30 177.422 76.304
2.31 175.512 74.767
2.32 --undefined-- 73.149
2.33 --undefined-- 71.060
2.34 --undefined-- 67.625
2.35 --undefined-- 63.015
2.36 --undefined-- 57.838
2.37 --undefined-- 53.112
2.38 --undefined-- 50.689
2.39 --undefined-- 49.524
2.40 --undefined-- 49.531
2.41 --undefined-- 52.065
2.42 --undefined-- 52.922
2.43 --undefined-- 51.980
2.44 --undefined-- 51.158
2.45 --undefined-- 50.636
2.46 --undefined-- 50.438
2.47 --undefined-- 48.829
2.48 --undefined-- 49.598
2.49 --undefined-- 53.769
2.50 --undefined-- 54.945
2.51 --undefined-- 52.536
2.52 --undefined-- 49.285
2.53 --undefined-- 48.970
2.54 --undefined-- 49.965
2.55 --undefined-- 51.266
2.56 --undefined-- 51.480
2.57 --undefined-- 51.047
2.58 --undefined-- 50.334
2.59 --undefined-- 50.054
2.60 --undefined-- 51.045
2.61 --undefined-- 51.283
2.62 --undefined-- 49.796
2.63 --undefined-- 50.331
2.64 --undefined-- 52.528
2.65 --undefined-- 54.283
2.66 --undefined-- 54.934
2.67 --undefined-- 55.017
2.68 --undefined-- 57.334
2.69 --undefined-- 59.850
2.70 --undefined-- 60.542
2.71 260.942 59.275
2.72 257.683 58.352
2.73 --undefined-- 60.182
2.74 --undefined-- 60.359
2.75 --undefined-- 57.660
2.76 --undefined-- 54.053
2.77 --undefined-- 54.363
2.78 --undefined-- 57.508
2.79 --undefined-- 59.013
2.80 --undefined-- 58.451
2.81 --undefined-- 58.746
2.82 --undefined-- 58.834
2.83 --undefined-- 56.648
2.84 --undefined-- 54.843
2.85 --undefined-- 56.340
2.86 --undefined-- 57.942
2.87 --undefined-- 57.526
2.88 --undefined-- 55.264
2.89 --undefined-- 55.833
2.90 --undefined-- 58.711
2.91 --undefined-- 60.824
2.92 --undefined-- 61.578
2.93 --undefined-- 60.305
2.94 --undefined-- 57.835
2.95 --undefined-- 59.465
2.96 --undefined-- 63.969
2.97 271.370 66.886
2.98 266.442 68.623
2.99 263.087 70.569
3.00 245.442 72.552
3.01 244.354 73.552
3.02 254.819 73.610
3.03 265.476 73.202
3.04 289.577 72.828
3.05 156.672 72.895
3.06 168.521 73.510
3.07 174.975 74.272
3.08 177.632 74.287
3.09 180.133 72.977
3.10 184.483 70.252
3.11 183.440 66.899
3.12 175.314 64.484
3.13 176.032 64.957
3.14 177.856 66.062
3.15 207.333 69.400
3.16 204.526 73.179
3.17 200.224 75.067
3.18 197.739 75.668
3.19 195.578 76.038
3.20 193.703 76.629
3.21 193.655 77.065
3.22 194.608 76.845
3.23 196.341 75.871
3.24 198.851 74.215
3.25 201.314 72.341
3.26 201.326 71.279
3.27 200.279 70.822
3.28 197.728 70.827
3.29 196.461 71.613
3.30 197.784 72.043
3.31 199.166 71.524
3.32 201.950 70.484
3.33 200.497 70.317
3.34 198.567 70.918
3.35 197.222 71.363
3.36 196.635 71.619
3.37 196.778 71.793
3.38 196.603 72.052
3.39 196.575 72.357
3.40 197.299 72.113
3.41 198.544 71.036
3.42 199.009 69.958
3.43 198.577 69.986
3.44 196.210 71.335
3.45 190.971 73.274
3.46 183.263 74.203
3.47 171.049 73.310
3.48 153.649 71.336
3.49 287.413 69.544
3.50 269.395 68.257
3.51 255.881 67.767
3.52 248.063 67.573
3.53 236.061 67.348
3.54 229.900 67.746
3.55 221.432 69.042
3.56 220.098 70.153
3.57 220.368 70.456
3.58 220.242 70.032
3.59 218.976 69.218
3.60 217.280 68.922
3.61 217.302 69.370
3.62 213.086 69.614
3.63 207.920 69.439
3.64 202.940 69.022
3.65 198.019 69.155
3.66 189.457 70.447
3.67 186.145 71.557
3.68 182.146 71.456
3.69 176.033 70.236
3.70 173.237 68.710
3.71 174.770 67.685
3.72 177.971 67.757
3.73 180.222 68.748
3.74 182.058 69.440
3.75 184.125 69.357
3.76 186.441 68.781
3.77 187.826 67.872
3.78 188.069 66.114
3.79 186.438 63.098
3.80 190.793 59.828
3.81 191.198 59.161
3.82 197.984 58.858
3.83 196.017 56.118
3.84 --undefined-- 53.451
3.85 --undefined-- 53.930
3.86 --undefined-- 55.288
3.87 267.492 56.954
3.88 265.356 60.811
3.89 250.738 64.050
3.90 --undefined-- 64.555
3.91 --undefined-- 64.911
3.92 176.145 68.158
3.93 178.825 70.716
3.94 179.501 71.649
3.95 178.614 71.749
3.96 178.415 72.178
3.97 179.873 73.012
3.98 181.831 73.486
3.99 183.519 73.563
4.00 184.961 73.664
4.01 186.680 73.906
4.02 188.316 74.216
4.03 188.063 74.557
4.04 189.901 74.762
4.05 193.116 74.358
4.06 192.089 73.230
4.07 187.279 71.086
4.08 188.963 67.002
4.09 191.226 61.597
4.10 189.846 59.136
4.11 --undefined-- 58.293
4.12 --undefined-- 57.970
4.13 --undefined-- 62.275
4.14 --undefined-- 66.818
4.15 --undefined-- 68.976
4.16 --undefined-- 69.408
4.17 --undefined-- 68.515
4.18 --undefined-- 65.991
4.19 --undefined-- 62.102
4.20 --undefined-- 58.778
4.21 --undefined-- 57.107
4.22 --undefined-- 55.674
4.23 --undefined-- 55.383
4.24 --undefined-- 57.106
4.25 --undefined-- 58.434
4.26 --undefined-- 59.658
4.27 --undefined-- 61.485
4.28 186.430 62.433
4.29 190.045 63.134
4.30 191.195 64.272
4.31 190.824 65.635
4.32 193.145 66.932
4.33 197.124 67.403
4.34 197.095 67.213
4.35 196.076 67.808
4.36 195.036 68.293
4.37 192.612 67.002
4.38 186.131 64.518
4.39 186.552 64.107
4.40 --undefined-- 65.129
4.41 --undefined-- 64.817
4.42 --undefined-- 62.875
4.43 --undefined-- 61.821
4.44 266.766 64.111
4.45 290.867 65.486
4.46 255.479 65.204
4.47 222.035 64.851
4.48 208.060 65.273
4.49 202.581 65.705
4.50 199.599 65.688
4.51 196.979 65.542
4.52 193.258 65.339
4.53 191.866 64.748
4.54 193.323 63.773
4.55 197.025 63.254
4.56 203.532 63.753
4.57 206.189 64.636
4.58 206.112 65.525
4.59 204.910 66.369
4.60 203.837 66.643
4.61 200.845 66.275
4.62 191.988 66.425
4.63 187.751 67.056
4.64 183.713 66.850
4.65 176.790 65.624
4.66 174.852 65.027
4.67 175.498 65.889
4.68 170.320 66.706
4.69 163.594 67.219
4.70 158.800 67.167
4.71 159.256 66.384
4.72 168.755 65.748
4.73 168.704 65.926
4.74 170.630 66.482
4.75 170.939 66.601
4.76 173.023 66.103
4.77 175.437 66.083
4.78 185.466 67.268
4.79 191.653 68.116
4.80 198.224 67.484
4.81 202.342 65.582
4.82 205.301 63.572
4.83 209.025 62.816
4.84 207.076 63.480
4.85 205.950 64.271
4.86 201.617 64.782
4.87 194.607 66.131
4.88 188.618 68.028
4.89 183.673 68.781
4.90 171.528 68.081
4.91 165.833 67.162
4.92 158.813 66.746
4.93 150.532 66.431
4.94 148.255 --undefined--
4.95 149.658 --undefined--
4.96 --undefined-- --undefined--
4.97 --undefined-- --undefined--
