Time Pitch Intensity
0.01 --undefined-- --undefined--
0.02 236.012 --undefined--
0.03 234.135 --undefined--
0.04 228.430 --undefined--
0.05 --undefined-- 68.508
0.06 179.470 69.718
0.07 177.592 70.368
0.08 175.907 70.204
0.09 173.637 69.272
0.10 172.449 67.317
0.11 170.642 64.503
0.12 172.339 62.288
0.13 182.065 61.200
0.14 182.443 60.631
0.15 184.657 60.022
0.16 188.483 59.713
0.17 190.887 60.108
0.18 191.668 60.478
0.19 196.653 60.343
0.20 199.375 59.652
0.21 199.021 57.928
0.22 195.023 54.514
0.23 --undefined-- 49.056
0.24 --undefined-- 47.855
0.25 --undefined-- 55.675
0.26 --undefined-- 59.891
0.27 --undefined-- 60.991
0.28 243.280 64.048
0.29 242.945 68.324
0.30 244.989 70.618
0.31 246.962 71.179
0.32 241.759 71.134
0.33 241.659 71.181
0.34 241.813 71.236
0.35 241.757 71.551
0.36 242.937 71.861
0.37 243.660 71.254
0.38 242.340 69.722
0.39 241.717 68.418
0.40 241.798 67.842
0.41 242.882 66.939
0.42 247.448 64.957
0.43 250.622 61.991
0.44 248.328 58.478
0.45 --undefined-- 55.354
0.46 --undefined-- 53.546
0.47 --undefined-- 52.459
0.48 --undefined-- 52.387
0.49 --undefined-- 51.996
0.50 --undefined-- 51.149
0.51 --undefined-- 51.599
0.52 --undefined-- 52.454
0.53 --undefined-- 53.188
0.54 --undefined-- 53.003
0.55 --undefined-- 51.528
0.56 --undefined-- 50.130
0.57 --undefined-- 50.992
0.58 --undefined-- 52.271
0.59 --undefined-- 51.959
0.60 --undefined-- 50.197
0.61 --undefined-- 48.649
0.62 --undefined-- 48.193
0.63 --undefined-- 49.204
0.64 --undefined-- 51.311
0.65 --undefined-- 52.836
0.66 --undefined-- 55.484
0.67 150.937 59.811
0.68 157.673 63.451
0.69 159.244 65.936
0.70 159.533 67.349
0.71 159.828 67.961
0.72 160.131 68.072
0.73 160.803 67.853
0.74 161.403 67.347
0.75 161.309 66.893
0.76 161.627 66.795
0.77 163.159 67.247
0.78 165.466 68.055
0.79 167.448 68.182
0.80 166.001 67.251
0.81 165.073 66.387
0.82 166.475 66.105
0.83 171.647 65.677
0.84 174.951 65.137
0.85 176.536 64.438
0.86 179.585 63.778
0.87 184.938 63.506
0.88 187.211 62.675
0.89 185.467 60.713
0.90 182.400 58.113
0.91 179.635 54.969
0.92 180.588 50.834
0.93 --undefined-- 46.337
0.94 --undefined-- 42.078
0.95 --undefined-- 36.691
0.96 --undefined-- 30.071
0.97 --undefined-- 26.730
0.98 --undefined-- 26.176
0.99 --undefined-- 26.355
1.00 --undefined-- 26.758
1.01 --undefined-- 26.389
1.02 --undefined-- 26.267
1.03 --undefined-- 26.756
1.04 --undefined-- 26.765
1.05 --undefined-- 27.090
1.06 --undefined-- 27.408
1.07 --undefined-- 27.085
1.08 --undefined-- 26.556
1.09 --undefined-- 26.461
1.10 --undefined-- 26.759
1.11 --undefined-- 26.941
1.12 --undefined-- 26.934
1.13 --undefined-- 26.808
1.14 --undefined-- 26.967
1.15 --undefined-- 36.779
1.16 --undefined-- 48.316
1.17 --undefined-- 55.149
1.18 --undefined-- 58.418
1.19 201.507 59.589
1.20 204.823 60.371
1.21 212.801 62.081
1.22 217.165 64.979
1.23 222.125 67.823
1.24 223.179 69.712
1.25 224.152 70.565
1.26 223.779 71.092
1.27 226.217 71.660
1.28 229.573 72.009
1.29 230.340 72.045
1.30 228.903 71.834
1.31 228.538 71.355
1.32 227.515 70.502
1.33 223.472 69.546
1.34 223.331 69.033
1.35 226.886 68.885
1.36 228.385 68.495
1.37 230.501 67.380
1.38 231.994 64.963
1.39 230.250 60.865
1.40 232.389 55.736
1.41 --undefined-- 49.675
1.42 --undefined-- 41.196
1.43 --undefined-- 33.614
1.44 --undefined-- 31.241
1.45 --undefined-- 29.708
1.46 --undefined-- 32.080
1.47 --undefined-- 43.637
1.48 --undefined-- 50.835
1.49 --undefined-- 53.779
1.50 --undefined-- 54.393
1.51 --undefined-- 55.985
1.52 --undefined-- 62.096
1.53 176.172 66.951
1.54 174.027 68.837
1.55 168.726 68.708
1.56 164.935 68.101
1.57 162.966 67.874
1.58 162.919 67.752
1.59 163.216 67.469
1.60 162.424 67.476
1.61 160.333 67.983
1.62 159.223 68.432
1.63 159.865 68.523
1.64 161.062 68.442
1.65 160.389 68.452
1.66 160.840 68.392
1.67 162.586 68.296
1.68 161.693 68.219
1.69 160.216 68.041
1.70 160.085 68.002
1.71 160.168 68.265
1.72 159.906 68.744
1.73 159.616 69.170
1.74 160.476 69.150
1.75 160.196 68.849
1.76 159.734 68.622
1.77 159.822 68.435
1.78 156.851 68.322
1.79 152.026 68.079
1.80 154.782 67.124
1.81 --undefined-- 65.715
1.82 298.437 65.006
1.83 297.641 63.148
1.84 297.707 58.033
1.85 --undefined-- 49.526
1.86 --undefined-- 49.952
1.87 --undefined-- 53.130
1.88 --undefined-- 52.187
1.89 --undefined-- 47.221
1.90 --undefined-- 41.851
1.91 --undefined-- 49.254
1.92 159.637 58.164
1.93 158.679 64.050
1.94 158.966 67.499
1.95 159.940 69.194
1.96 160.949 69.744
1.97 162.689 69.458
1.98 163.625 68.800
1.99 163.017 68.289
2.00 160.104 67.838
2.01 154.391 67.591
2.02 152.249 67.737
2.03 151.036 67.962
2.04 150.397 67.978
2.05 150.462 67.586
2.06 151.983 66.465
2.07 154.037 64.913
2.08 155.192 63.455
2.09 160.105 61.684
2.10 162.010 58.673
2.11 163.053 53.829
2.12 --undefined-- 50.031
2.13 --undefined-- 50.812
2.14 --undefined-- 51.605
2.15 --undefined-- 50.439
2.16 --undefined-- 49.238
2.17 --undefined-- 51.979
2.18 --undefined-- 55.914
2.19 --undefined-- 59.108
2.20 --undefined-- 61.343
2.21 --undefined-- 65.104
2.22 196.248 68.497
2.23 193.930 69.560
2.24 183.964 69.308
2.25 171.180 69.541
2.26 168.485 69.769
2.27 166.886 69.344
2.28 167.379 68.740
2.29 169.689 68.484
2.30 169.768 68.568
2.31 166.854 68.500
2.32 163.615 67.789
2.33 160.506 66.117
2.34 160.440 63.306
2.35 160.454 59.923
2.36 161.138 58.467
2.37 162.750 58.754
2.38 162.607 59.362
2.39 162.597 60.339
2.40 162.538 61.539
2.41 163.825 62.626
2.42 166.378 64.530
2.43 166.995 66.969
2.44 167.020 68.551
2.45 167.766 69.219
2.46 166.955 68.994
2.47 164.770 67.906
2.48 165.223 66.557
2.49 168.365 65.370
2.50 166.621 64.966
2.51 165.138 66.007
2.52 164.645 66.869
2.53 163.515 66.526
2.54 163.396 65.464
2.55 163.381 64.426
2.56 163.710 63.636
2.57 163.300 63.072
2.58 162.073 62.098
2.59 159.869 60.107
2.60 159.250 56.959
2.61 159.795 52.158
2.62 --undefined-- 45.053
2.63 --undefined-- 36.338
2.64 --undefined-- 30.208
2.65 --undefined-- 29.451
2.66 --undefined-- 33.038
2.67 --undefined-- 38.523
2.68 --undefined-- 44.126
2.69 --undefined-- 47.673
2.70 --undefined-- 49.312
2.71 --undefined-- 50.390
2.72 --undefined-- 51.954
2.73 --undefined-- 53.347
2.74 --undefined-- 54.067
2.75 --undefined-- 53.482
2.76 --undefined-- 51.829
2.77 --undefined-- 51.267
2.78 --undefined-- 52.651
2.79 --undefined-- 54.262
2.80 --undefined-- 54.432
2.81 --undefined-- 53.666
2.82 --undefined-- 52.656
2.83 --undefined-- 51.837
2.84 --undefined-- 51.620
2.85 --undefined-- 51.266
2.86 --undefined-- 50.508
2.87 --undefined-- 48.930
2.88 --undefined-- 46.139
2.89 --undefined-- 44.713
2.90 --undefined-- 45.249
2.91 --undefined-- 45.323
2.92 --undefined-- 45.277
2.93 --undefined-- 44.198
2.94 --undefined-- 40.885
2.95 --undefined-- 35.554
2.96 --undefined-- 30.225
2.97 --undefined-- 28.106
2.98 --undefined-- 27.822
2.99 --undefined-- 27.524
3.00 --undefined-- 27.746
3.01 --undefined-- 35.457
3.02 --undefined-- 45.290
3.03 --undefined-- 52.104
3.04 --undefined-- 57.173
3.05 --undefined-- 61.167
3.06 175.380 64.674
3.07 174.760 67.451
3.08 174.622 69.181
3.09 174.495 69.922
3.10 173.966 69.714
3.11 174.193 68.952
3.12 174.799 68.528
3.13 173.840 68.815
3.14 171.825 69.142
3.15 170.232 69.415
3.16 169.742 69.509
3.17 169.809 69.288
3.18 168.804 68.602
3.19 167.111 67.201
3.20 166.525 65.640
3.21 166.229 64.715
3.22 166.777 64.430
3.23 169.205 64.260
3.24 169.392 63.404
3.25 166.887 61.398
3.26 164.202 58.158
3.27 158.623 53.259
3.28 --undefined-- 46.423
3.29 --undefined-- 41.286
3.30 --undefined-- 45.521
3.31 --undefined-- 50.181
3.32 --undefined-- 52.826
3.33 --undefined-- 54.504
3.34 --undefined-- 59.543
3.35 211.154 66.931
3.36 208.512 71.886
3.37 203.277 74.274
3.38 198.504 74.542
3.39 193.841 73.103
3.40 189.292 70.630
3.41 185.864 68.273
3.42 182.410 67.085
3.43 172.190 67.607
3.44 164.399 69.570
3.45 158.947 71.349
3.46 156.936 71.705
3.47 155.435 70.554
3.48 157.791 69.311
3.49 167.010 68.987
3.50 170.093 68.517
3.51 170.764 67.751
3.52 171.813 66.601
3.53 179.973 64.711
3.54 185.465 62.464
3.55 188.050 59.771
3.56 192.822 56.881
3.57 203.328 55.984
3.58 209.228 58.277
3.59 214.669 62.017
3.60 216.973 66.166
3.61 215.905 69.137
3.62 213.624 70.251
3.63 210.727 69.863
3.64 208.631 68.018
3.65 205.652 64.135
3.66 203.062 57.979
3.67 --undefined-- 50.771
3.68 --undefined-- 46.956
3.69 --undefined-- 45.917
3.70 --undefined-- 47.732
3.71 --undefined-- 52.097
3.72 --undefined-- 56.668
3.73 --undefined-- 61.654
3.74 245.512 65.663
3.75 240.826 68.353
3.76 234.632 69.958
3.77 235.714 70.962
3.78 237.069 71.938
3.79 236.267 72.793
3.80 235.389 73.181
3.81 235.546 72.969
3.82 234.023 72.263
3.83 233.670 70.994
3.84 235.682 69.260
3.85 230.635 67.665
3.86 227.561 66.111
3.87 230.218 63.746
3.88 230.683 60.433
3.89 214.903 56.720
3.90 213.979 54.151
3.91 194.945 57.009
3.92 196.656 62.745
3.93 197.529 67.223
3.94 194.653 69.926
3.95 184.332 71.036
3.96 180.086 70.671
3.97 156.074 69.351
3.98 154.536 67.769
3.99 156.033 65.683
4.00 157.853 63.327
4.01 164.712 62.356
4.02 166.995 63.257
4.03 170.829 64.655
4.04 174.434 65.454
4.05 179.798 65.001
4.06 186.221 62.953
4.07 195.189 59.542
4.08 191.821 55.621
4.09 --undefined-- 51.750
4.10 --undefined-- 49.208
4.11 --undefined-- 49.381
4.12 --undefined-- 52.338
4.13 --undefined-- 54.464
4.14 --undefined-- 55.262
4.15 --undefined-- 59.513
4.16 217.570 65.217
4.17 216.416 68.701
4.18 213.080 69.871
4.19 205.794 69.714
4.20 204.398 69.529
4.21 203.892 69.282
4.22 203.553 68.739
4.23 201.148 68.025
4.24 200.966 67.885
4.25 204.388 69.058
4.26 206.822 70.797
4.27 206.653 71.914
4.28 203.906 72.496
4.29 200.571 73.132
4.30 198.054 73.355
4.31 195.505 72.784
4.32 193.279 71.705
4.33 190.824 70.629
4.34 190.755 69.957
4.35 190.921 69.434
4.36 190.716 68.321
4.37 192.814 66.363
4.38 194.388 65.013
4.39 193.891 64.919
4.40 189.381 65.547
4.41 182.864 66.990
4.42 177.671 68.652
4.43 173.960 69.708
4.44 --undefined-- 69.708
4.45 --undefined-- 69.445
4.46 155.321 69.617
4.47 154.696 69.510
4.48 156.556 69.009
4.49 165.064 68.782
4.50 166.396 68.924
4.51 166.372 69.086
4.52 164.713 69.238
4.53 160.715 69.258
4.54 158.030 68.958
4.55 156.567 68.164
4.56 157.322 66.556
4.57 161.095 64.259
4.58 162.594 61.879
4.59 161.014 59.803
4.60 159.674 57.640
4.61 158.847 54.437
4.62 --undefined-- 49.560
4.63 --undefined-- 43.592
4.64 --undefined-- 36.844
4.65 --undefined-- 30.868
4.66 --undefined-- 27.428
4.67 --undefined-- 24.632
4.68 --undefined-- 22.674
4.69 --undefined-- 22.465
4.70 --undefined-- 22.991
4.71 --undefined-- 23.419
4.72 --undefined-- 23.143
4.73 --undefined-- 22.630
4.74 --undefined-- 22.742
4.75 --undefined-- 23.619
4.76 --undefined-- 24.651
4.77 --undefined-- 25.084
4.78 --undefined-- 24.968
4.79 --undefined-- 24.742
4.80 --undefined-- 24.588
4.81 --undefined-- 24.624
4.82 --undefined-- 25.797
4.83 --undefined-- 37.040
4.84 --undefined-- 46.725
4.85 --undefined-- 51.328
4.86 --undefined-- 51.335
4.87 --undefined-- 47.914
4.88 --undefined-- 46.015
4.89 --undefined-- 46.898
4.90 --undefined-- 47.306
4.91 --undefined-- 46.856
4.92 --undefined-- 45.730
4.93 --undefined-- 46.017
4.94 --undefined-- 47.191
4.95 --undefined-- 46.941
4.96 --undefined-- 45.195
4.97 --undefined-- 43.563
4.98 --undefined-- 42.250
4.99 --undefined-- 39.313
5.00 --undefined-- 33.529
5.01 --undefined-- 27.124
5.02 --undefined-- 25.884
5.03 --undefined-- 26.218
5.04 --undefined-- 26.766
5.05 --undefined-- 27.029
5.06 --undefined-- 26.806
5.07 --undefined-- 26.915
5.08 --undefined-- 27.020
5.09 --undefined-- 26.988
5.10 --undefined-- 27.082
5.11 --undefined-- 26.787
5.12 --undefined-- 26.570
5.13 --undefined-- 36.672
5.14 --undefined-- 50.206
5.15 --undefined-- 57.825
5.16 --undefined-- 61.074
5.17 --undefined-- 61.731
5.18 187.934 62.790
5.19 193.561 65.160
5.20 196.473 67.505
5.21 199.818 69.395
5.22 200.117 71.033
5.23 200.340 71.917
5.24 203.131 71.505
5.25 203.613 70.120
5.26 202.021 68.166
5.27 200.351 65.458
5.28 199.010 62.348
5.29 195.667 59.843
5.30 195.488 57.794
5.31 198.310 55.428
5.32 212.251 56.825
5.33 230.311 62.133
5.34 258.546 66.657
5.35 259.232 70.275
5.36 261.358 72.564
5.37 264.841 73.284
5.38 269.354 73.405
5.39 274.306 74.129
5.40 275.770 74.885
5.41 276.467 74.960
5.42 279.070 74.673
5.43 283.211 74.097
5.44 286.943 73.007
5.45 293.273 71.681
5.46 295.120 70.250
5.47 295.098 68.568
5.48 298.272 67.666
5.49 153.223 68.477
5.50 156.722 69.841
5.51 159.433 71.003
5.52 160.020 71.851
5.53 159.979 72.207
5.54 159.992 72.095
5.55 159.887 71.744
5.56 160.056 71.558
5.57 159.515 71.631
5.58 159.234 71.391
5.59 158.756 70.669
5.60 156.412 69.375
5.61 154.502 67.215
5.62 154.757 64.496
5.63 159.589 62.047
5.64 160.410 59.244
5.65 157.449 56.449
5.66 155.783 60.119
5.67 298.857 66.604
5.68 285.601 70.758
5.69 278.717 72.016
5.70 269.617 71.118
5.71 232.539 70.218
5.72 218.284 70.801
5.73 205.488 71.573
5.74 199.019 71.368
5.75 189.375 69.772
5.76 183.779 68.381
5.77 183.249 68.687
5.78 187.887 69.323
5.79 186.306 70.065
5.80 180.771 70.671
5.81 178.905 70.818
5.82 178.481 --undefined--
5.83 178.420 --undefined--
5.84 --undefined-- --undefined--
5.85 --undefined-- --undefined--
