Time Pitch Intensity
0.01 --undefined-- --undefined--
0.02 --undefined-- --undefined--
0.03 --undefined-- --undefined--
0.04 --undefined-- --undefined--
0.05 --undefined-- 49.831
0.06 --undefined-- 47.562
0.07 --undefined-- 44.002
0.08 --undefined-- 40.029
0.09 --undefined-- 38.273
0.10 --undefined-- 38.078
0.11 --undefined-- 37.567
0.12 --undefined-- 37.787
0.13 --undefined-- 38.481
0.14 --undefined-- 38.491
0.15 --undefined-- 39.134
0.16 --undefined-- 40.410
0.17 --undefined-- 41.426
0.18 --undefined-- 42.231
0.19 --undefined-- 42.771
0.20 --undefined-- 42.539
0.21 --undefined-- 43.034
0.22 --undefined-- 44.345
0.23 --undefined-- 44.773
0.24 --undefined-- 44.316
0.25 --undefined-- 44.226
0.26 --undefined-- 44.312
0.27 --undefined-- 43.889
0.28 --undefined-- 43.476
0.29 --undefined-- 44.510
0.30 --undefined-- 50.684
0.31 --undefined-- 56.261
0.32 --undefined-- 57.793
0.33 --undefined-- 55.665
0.34 --undefined-- 52.659
0.35 --undefined-- 50.759
0.36 --undefined-- 48.431
0.37 --undefined-- 46.482
0.38 --undefined-- 44.936
0.39 --undefined-- 43.664
0.40 --undefined-- 42.264
0.41 --undefined-- 40.570
0.42 --undefined-- 38.632
0.43 --undefined-- 36.297
0.44 --undefined-- 34.740
0.45 --undefined-- 33.392
0.46 --undefined-- 31.945
0.47 --undefined-- 33.340
0.48 --undefined-- 35.324
0.49 --undefined-- 35.792
0.50 --undefined-- 36.266
0.51 --undefined-- 36.915
0.52 --undefined-- 37.167
0.53 --undefined-- 37.384
0.54 --undefined-- 39.014
0.55 --undefined-- 42.771
0.56 --undefined-- 46.563
0.57 --undefined-- 49.169
0.58 --undefined-- 50.737
0.59 --undefined-- 51.729
0.60 89.985 52.582
0.61 90.261 54.657
0.62 92.939 57.741
0.63 92.969 60.402
0.64 90.175 61.894
0.65 87.993 62.156
0.66 --undefined-- 60.765
0.67 --undefined-- 57.121
0.68 --undefined-- 51.920
0.69 --undefined-- 48.333
0.70 --undefined-- 47.448
0.71 --undefined-- 50.617
0.72 --undefined-- 59.013
0.73 99.909 65.538
0.74 96.468 69.621
0.75 96.564 71.740
0.76 97.114 72.642
0.77 97.670 73.037
0.78 99.865 73.189
0.79 102.232 73.223
0.80 105.099 73.331
0.81 107.130 73.657
0.82 108.258 73.549
0.83 113.124 73.143
0.84 117.536 73.541
0.85 120.627 74.349
0.86 123.894 74.862
0.87 126.141 74.689
0.88 127.082 73.963
0.89 127.815 72.910
0.90 130.319 71.552
0.91 134.115 70.697
0.92 135.205 70.940
0.93 136.287 71.347
0.94 135.766 71.398
0.95 135.845 71.157
0.96 134.925 70.740
0.97 134.628 69.928
0.98 134.993 68.647
0.99 134.761 67.155
1.00 136.290 65.516
1.01 137.281 63.962
1.02 135.752 62.878
1.03 134.374 62.184
1.04 132.381 61.909
1.05 129.998 61.623
1.06 127.739 60.647
1.07 124.761 58.653
1.08 120.244 55.618
1.09 --undefined-- 53.561
1.10 --undefined-- 53.362
1.11 --undefined-- 53.522
1.12 --undefined-- 55.654
1.13 --undefined-- 56.083
1.14 --undefined-- 56.113
1.15 --undefined-- 59.938
1.16 --undefined-- 61.596
1.17 --undefined-- 60.142
1.18 --undefined-- 58.236
1.19 --undefined-- 59.485
1.20 --undefined-- 62.062
1.21 --undefined-- 62.834
1.22 --undefined-- 62.646
1.23 --undefined-- 63.135
1.24 100.835 63.169
1.25 100.435 63.313
1.26 101.916 64.310
1.27 101.434 64.573
1.28 100.113 63.076
1.29 --undefined-- 59.303
1.30 --undefined-- 52.526
1.31 --undefined-- 42.299
1.32 --undefined-- 44.152
1.33 --undefined-- 54.433
1.34 --undefined-- 62.036
1.35 --undefined-- 67.719
1.36 --undefined-- 71.099
1.37 117.296 72.342
1.38 117.979 72.399
1.39 119.069 71.736
1.40 118.926 70.208
1.41 118.298 67.903
1.42 119.935 64.708
1.43 118.976 60.710
1.44 121.723 57.144
1.45 120.869 55.732
1.46 --undefined-- 55.438
1.47 --undefined-- 54.440
1.48 --undefined-- 51.639
1.49 --undefined-- 49.498
1.50 --undefined-- 58.199
1.51 --undefined-- 64.960
1.52 --undefined-- 67.984
1.53 --undefined-- 67.335
1.54 --undefined-- 63.889
1.55 --undefined-- 63.922
1.56 118.101 65.832
1.57 114.332 65.691
1.58 111.879 63.937
1.59 109.487 60.976
1.60 --undefined-- 57.915
1.61 --undefined-- 56.428
1.62 111.256 55.547
1.63 110.395 54.971
1.64 109.624 55.161
1.65 108.599 55.811
1.66 104.439 57.110
1.67 101.570 60.080
1.68 94.801 63.014
1.69 91.116 64.951
1.70 88.398 66.791
1.71 83.611 68.652
1.72 83.577 69.522
1.73 80.951 69.166
1.74 82.717 68.040
1.75 85.311 66.646
1.76 --undefined-- 65.014
1.77 --undefined-- 62.347
1.78 --undefined-- 57.495
1.79 --undefined-- 49.447
1.80 --undefined-- 43.590
1.81 --undefined-- 50.668
1.82 --undefined-- 55.394
1.83 --undefined-- 58.810
1.84 115.550 62.691
1.85 115.742 65.329
1.86 105.668 66.122
1.87 105.962 65.647
1.88 105.694 64.612
1.89 104.652 63.888
1.90 104.030 63.408
1.91 104.015 62.074
1.92 104.574 60.028
1.93 104.508 58.129
1.94 104.016 55.575
1.95 --undefined-- 51.465
1.96 --undefined-- 47.639
1.97 --undefined-- 46.607
1.98 82.603 47.068
1.99 82.409 47.889
2.00 76.416 48.735
2.01 74.458 49.449
2.02 --undefined-- 49.595
2.03 --undefined-- 49.690
2.04 --undefined-- 49.711
2.05 --undefined-- 49.800
2.06 --undefined-- 49.701
2.07 --undefined-- 48.450
2.08 --undefined-- 47.094
2.09 --undefined-- 49.565
2.10 --undefined-- 56.807
2.11 --undefined-- 61.218
2.12 --undefined-- 62.135
2.13 --undefined-- 62.108
2.14 --undefined-- 63.876
2.15 --undefined-- 64.706
2.16 --undefined-- 63.608
2.17 --undefined-- 62.140
2.18 --undefined-- 61.563
2.19 --undefined-- 61.242
2.20 --undefined-- 61.080
2.21 --undefined-- 61.006
2.22 --undefined-- 60.333
2.23 75.175 59.774
2.24 75.769 59.946
2.25 75.440 59.858
2.26 75.866 58.631
2.27 76.909 57.548
2.28 78.645 57.159
2.29 80.605 56.403
2.30 80.923 55.846
2.31 84.427 54.964
2.32 83.994 54.176
2.33 85.404 54.518
2.34 85.549 54.748
2.35 86.048 54.039
2.36 87.555 52.811
2.37 88.705 52.471
2.38 88.757 52.510
2.39 88.948 51.908
2.40 90.871 50.725
2.41 92.166 49.107
2.42 94.995 47.735
2.43 98.336 47.971
2.44 101.194 49.454
2.45 104.298 51.142
2.46 103.631 52.410
2.47 104.003 54.375
2.48 105.349 58.264
2.49 105.066 61.806
2.50 103.740 64.125
2.51 102.547 65.465
2.52 101.722 66.265
2.53 101.407 67.135
2.54 100.763 68.008
2.55 100.669 68.486
2.56 100.654 68.615
2.57 100.333 68.821
2.58 99.569 69.191
2.59 99.290 69.604
2.60 98.018 69.977
2.61 96.905 70.226
2.62 96.209 69.879
2.63 95.703 68.480
2.64 95.771 65.746
2.65 94.402 61.105
2.66 97.506 54.457
2.67 99.109 49.924
2.68 97.702 49.078
2.69 96.280 48.881
2.70 95.360 49.134
2.71 --undefined-- 48.288
2.72 --undefined-- 45.184
2.73 --undefined-- 46.352
2.74 --undefined-- 54.751
2.75 --undefined-- 61.504
2.76 --undefined-- 65.281
2.77 80.018 66.369
2.78 80.020 65.692
2.79 80.234 63.963
2.80 77.598 61.586
2.81 --undefined-- 59.358
2.82 --undefined-- 58.494
2.83 --undefined-- 60.243
2.84 --undefined-- 60.940
2.85 --undefined-- 58.700
2.86 --undefined-- 55.750
2.87 --undefined-- 55.126
2.88 81.648 55.040
2.89 82.177 56.905
2.90 --undefined-- 60.648
2.91 --undefined-- 63.718
2.92 --undefined-- 64.677
2.93 --undefined-- 63.908
2.94 --undefined-- 63.640
2.95 --undefined-- 64.953
2.96 --undefined-- 65.940
2.97 --undefined-- 65.299
2.98 --undefined-- 63.810
2.99 --undefined-- 63.550
3.00 --undefined-- 63.724
3.01 --undefined-- 63.490
3.02 --undefined-- 64.504
3.03 --undefined-- 66.139
3.04 --undefined-- 66.716
3.05 --undefined-- 66.706
3.06 --undefined-- 66.269
3.07 --undefined-- 63.848
3.08 --undefined-- 60.135
3.09 --undefined-- 57.345
3.10 --undefined-- 55.242
3.11 79.236 53.941
3.12 80.848 55.119
3.13 81.493 58.906
3.14 81.309 62.200
3.15 82.986 63.345
3.16 85.544 62.812
3.17 89.572 62.750
3.18 --undefined-- 64.667
3.19 --undefined-- 66.302
3.20 --undefined-- 66.584
3.21 --undefined-- 65.683
3.22 --undefined-- 63.812
3.23 --undefined-- 62.825
3.24 --undefined-- 61.759
3.25 --undefined-- 58.731
3.26 --undefined-- 54.963
3.27 --undefined-- 50.968
3.28 --undefined-- 46.034
3.29 --undefined-- 40.423
3.30 --undefined-- 36.385
3.31 --undefined-- 35.686
3.32 --undefined-- 36.031
3.33 --undefined-- 36.130
3.34 --undefined-- 36.462
3.35 --undefined-- 37.428
3.36 --undefined-- 38.730
3.37 --undefined-- 39.936
3.38 --undefined-- 40.943
3.39 --undefined-- 42.388
3.40 --undefined-- 44.141
3.41 --undefined-- 45.890
3.42 --undefined-- 47.287
3.43 --undefined-- 47.603
3.44 --undefined-- 46.972
3.45 --undefined-- 46.461
3.46 --undefined-- 46.278
3.47 --undefined-- 46.087
3.48 --undefined-- 46.419
3.49 --undefined-- 47.053
3.50 --undefined-- 47.032
3.51 --undefined-- 46.184
3.52 --undefined-- 45.121
3.53 --undefined-- 44.846
3.54 --undefined-- 45.065
3.55 --undefined-- 45.071
3.56 --undefined-- 44.113
3.57 --undefined-- 42.517
3.58 --undefined-- 41.027
3.59 --undefined-- 40.043
3.60 --undefined-- 40.244
3.61 --undefined-- 44.137
3.62 --undefined-- 47.715
3.63 --undefined-- 47.651
3.64 --undefined-- 43.748
3.65 --undefined-- 38.166
3.66 --undefined-- 35.909
3.67 --undefined-- 33.671
3.68 --undefined-- 31.368
3.69 --undefined-- 32.231
3.70 --undefined-- 33.266
3.71 --undefined-- 35.145
3.72 --undefined-- 44.752
3.73 --undefined-- 51.287
3.74 --undefined-- 55.085
3.75 --undefined-- 62.476
3.76 --undefined-- 68.382
3.77 --undefined-- 70.287
3.78 --undefined-- 68.422
3.79 --undefined-- 63.285
3.80 99.760 58.388
3.81 102.174 57.387
3.82 105.507 56.953
3.83 108.913 56.718
3.84 109.450 56.784
3.85 109.474 56.824
3.86 109.075 57.470
3.87 --undefined-- 59.595
3.88 --undefined-- 60.502
3.89 --undefined-- 59.833
3.90 --undefined-- 63.351
3.91 94.247 68.003
3.92 93.981 70.583
3.93 93.877 71.324
3.94 90.788 71.020
3.95 89.165 70.035
3.96 88.614 68.620
3.97 --undefined-- 66.385
3.98 --undefined-- 61.953
3.99 --undefined-- 54.949
4.00 --undefined-- 48.802
4.01 --undefined-- 53.322
4.02 --undefined-- 57.876
4.03 --undefined-- 59.837
4.04 --undefined-- 60.392
4.05 --undefined-- 62.932
4.06 --undefined-- 65.819
4.07 --undefined-- 66.757
4.08 83.708 66.024
4.09 82.570 64.592
4.10 79.180 62.526
4.11 80.191 59.461
4.12 79.837 56.554
4.13 79.478 54.486
4.14 78.214 52.338
4.15 78.085 49.828
4.16 --undefined-- 47.951
4.17 --undefined-- 48.537
4.18 79.314 51.484
4.19 79.138 54.736
4.20 77.823 57.197
4.21 78.719 58.509
4.22 78.605 58.725
4.23 78.535 58.552
4.24 80.591 59.283
4.25 76.593 59.902
4.26 78.102 60.293
4.27 78.090 60.784
4.28 76.065 60.077
4.29 75.973 58.518
4.30 --undefined-- 56.372
4.31 --undefined-- 51.812
4.32 --undefined-- 43.721
4.33 --undefined-- 37.420
4.34 --undefined-- 44.796
4.35 --undefined-- 53.770
4.36 --undefined-- 58.551
4.37 --undefined-- 60.168
4.38 --undefined-- 59.759
4.39 --undefined-- 58.887
4.40 --undefined-- 61.751
4.41 --undefined-- 65.783
4.42 106.248 67.430
4.43 105.188 66.986
4.44 105.916 65.003
4.45 103.871 61.160
4.46 105.392 55.449
4.47 105.540 51.643
4.48 103.904 50.676
4.49 103.117 49.729
4.50 103.544 49.307
4.51 --undefined-- 52.096
4.52 --undefined-- 56.436
4.53 --undefined-- 59.441
4.54 --undefined-- 60.677
4.55 87.067 60.646
4.56 83.144 60.787
4.57 81.941 62.174
4.58 77.945 63.758
4.59 75.333 65.056
4.60 --undefined-- 65.887
4.61 --undefined-- 66.103
4.62 --undefined-- 65.564
4.63 --undefined-- 63.710
4.64 --undefined-- 60.806
4.65 --undefined-- 59.032
4.66 --undefined-- 59.255
4.67 --undefined-- 60.296
4.68 --undefined-- 60.577
4.69 --undefined-- 59.751
4.70 --undefined-- 58.917
4.71 --undefined-- 57.494
4.72 --undefined-- 55.369
4.73 --undefined-- 54.847
4.74 --undefined-- 54.020
4.75 --undefined-- 50.864
4.76 --undefined-- 46.745
4.77 --undefined-- 45.114
4.78 --undefined-- 45.423
4.79 --undefined-- 47.001
4.80 86.779 49.086
4.81 87.058 51.139
4.82 87.468 53.199
4.83 86.764 55.289
4.84 86.430 56.890
4.85 82.331 57.643
4.86 83.210 58.460
4.87 81.302 59.622
4.88 81.115 60.750
4.89 82.106 61.478
4.90 83.053 60.978
4.91 80.638 59.482
4.92 82.275 59.009
4.93 79.350 59.717
4.94 78.717 60.567
4.95 78.353 61.070
4.96 75.694 61.108
4.97 77.462 60.886
4.98 78.672 60.868
4.99 79.130 60.704
5.00 77.622 59.976
5.01 78.707 58.890
5.02 --undefined-- 56.654
5.03 --undefined-- 51.962
5.04 --undefined-- 43.597
5.05 --undefined-- 35.346
5.06 --undefined-- 34.825
5.07 --undefined-- 34.241
5.08 --undefined-- 33.643
5.09 --undefined-- 33.676
5.10 --undefined-- 33.313
5.11 --undefined-- 39.770
5.12 --undefined-- 50.853
5.13 --undefined-- 60.527
5.14 --undefined-- 67.809
5.15 --undefined-- 71.837
5.16 103.601 73.284
5.17 105.906 73.173
5.18 104.278 72.661
5.19 103.982 72.550
5.20 103.629 72.661
5.21 103.476 72.571
5.22 102.460 72.235
5.23 101.306 71.690
5.24 101.007 70.785
5.25 100.867 69.126
5.26 101.630 66.552
5.27 103.619 63.676
5.28 103.116 61.226
5.29 102.485 59.248
5.30 101.979 57.577
5.31 102.307 56.059
5.32 102.829 54.976
5.33 103.490 54.140
5.34 103.238 53.638
5.35 102.542 53.418
5.36 102.254 52.932
5.37 101.837 51.996
5.38 101.403 50.475
5.39 --undefined-- 47.900
5.40 --undefined-- 45.564
5.41 --undefined-- 52.115
5.42 --undefined-- 58.671
5.43 --undefined-- 61.832
5.44 --undefined-- 61.528
5.45 --undefined-- 59.479
5.46 --undefined-- 62.171
5.47 --undefined-- 65.676
5.48 91.500 67.224
5.49 89.448 67.472
5.50 85.833 67.043
5.51 82.963 66.379
5.52 82.877 65.493
5.53 79.256 63.668
5.54 80.831 60.636
5.55 80.563 --undefined--
5.56 --undefined-- --undefined--
5.57 --undefined-- --undefined--
5.58 --undefined-- --undefined--
