Time Pitch Intensity
0.01 --undefined-- --undefined--
0.02 122.002 --undefined--
0.03 119.678 --undefined--
0.04 118.281 --undefined--
0.05 117.488 64.642
0.06 117.126 64.125
0.07 118.772 64.075
0.08 120.944 64.480
0.09 122.080 64.904
0.10 135.602 65.481
0.11 142.745 66.390
0.12 146.692 66.989
0.13 150.675 66.786
0.14 153.321 65.971
0.15 154.541 65.072
0.16 156.431 64.048
0.17 158.839 62.179
0.18 159.115 58.823
0.19 --undefined-- 54.067
0.20 --undefined-- 49.282
0.21 --undefined-- 46.119
0.22 --undefined-- 43.312
0.23 --undefined-- 39.528
0.24 --undefined-- 39.066
0.25 --undefined-- 42.361
0.26 --undefined-- 43.393
0.27 --undefined-- 40.842
0.28 --undefined-- 37.294
0.29 --undefined-- 38.153
0.30 --undefined-- 39.704
0.31 --undefined-- 39.350
0.32 --undefined-- 36.995
0.33 --undefined-- 35.165
0.34 --undefined-- 36.312
0.35 --undefined-- 38.236
0.36 --undefined-- 39.195
0.37 --undefined-- 38.469
0.38 --undefined-- 36.143
0.39 --undefined-- 34.604
0.40 --undefined-- 36.246
0.41 --undefined-- 38.289
0.42 --undefined-- 39.384
0.43 --undefined-- 38.945
0.44 --undefined-- 36.875
0.45 --undefined-- 34.044
0.46 --undefined-- 32.690
0.47 --undefined-- 34.629
0.48 --undefined-- 35.931
0.49 --undefined-- 35.473
0.50 --undefined-- 34.162
0.51 --undefined-- 32.489
0.52 --undefined-- 32.227
0.53 --undefined-- 34.763
0.54 --undefined-- 39.298
0.55 --undefined-- 46.970
0.56 --undefined-- 56.647
0.57 150.262 63.833
0.58 144.886 68.160
0.59 141.082 70.425
0.60 139.414 71.401
0.61 136.754 71.665
0.62 134.692 71.639
0.63 132.164 71.580
0.64 130.164 71.541
0.65 127.443 71.382
0.66 122.785 70.856
0.67 117.814 69.858
0.68 114.513 68.682
0.69 111.939 67.808
0.70 110.152 67.205
0.71 108.000 66.323
0.72 104.975 65.082
0.73 106.586 63.721
0.74 108.584 61.671
0.75 110.419 57.889
0.76 --undefined-- 51.586
0.77 --undefined-- 42.964
0.78 --undefined-- 37.744
0.79 --undefined-- 38.653
0.80 --undefined-- 41.281
0.81 --undefined-- 42.337
0.82 --undefined-- 42.012
0.83 --undefined-- 41.711
0.84 --undefined-- 42.048
0.85 --undefined-- 42.895
0.86 --undefined-- 43.696
0.87 --undefined-- 43.392
0.88 --undefined-- 41.807
0.89 --undefined-- 39.805
0.90 --undefined-- 38.884
0.91 --undefined-- 40.016
0.92 --undefined-- 40.872
0.93 --undefined-- 40.035
0.94 --undefined-- 37.685
0.95 --undefined-- 35.011
0.96 --undefined-- 33.991
0.97 --undefined-- 36.094
0.98 --undefined-- 37.514
0.99 --undefined-- 37.785
1.00 --undefined-- 40.149
1.01 --undefined-- 52.464
1.02 --undefined-- 62.240
1.03 218.861 67.964
1.04 208.235 70.766
1.05 206.984 72.151
1.06 211.352 73.102
1.07 214.343 73.865
1.08 220.838 74.505
1.09 225.927 74.918
1.10 231.145 74.958
1.11 238.168 74.631
1.12 246.462 74.208
1.13 253.216 73.881
1.14 260.555 73.389
1.15 261.416 72.568
1.16 258.795 71.371
1.17 258.614 69.833
1.18 259.985 68.499
1.19 258.432 68.408
1.20 255.756 69.460
1.21 244.533 70.574
1.22 232.153 71.556
1.23 215.659 72.207
1.24 197.114 72.214
1.25 174.864 71.846
1.26 158.859 71.691
1.27 148.518 71.818
1.28 136.572 71.398
1.29 129.214 70.178
1.30 127.811 68.808
1.31 129.063 67.526
1.32 134.766 66.128
1.33 147.681 64.291
1.34 170.029 61.535
1.35 170.335 57.442
1.36 --undefined-- 52.213
1.37 --undefined-- 51.214
1.38 --undefined-- 60.297
1.39 --undefined-- 67.003
1.40 --undefined-- 70.127
1.41 --undefined-- 70.701
1.42 --undefined-- 69.963
1.43 --undefined-- 68.805
1.44 --undefined-- 67.464
1.45 --undefined-- 66.236
1.46 --undefined-- 65.788
1.47 --undefined-- 66.271
1.48 --undefined-- 67.361
1.49 --undefined-- 68.676
1.50 162.844 70.015
1.51 178.149 71.260
1.52 188.476 72.518
1.53 192.642 73.504
1.54 196.211 74.044
1.55 198.776 74.336
1.56 199.353 74.498
1.57 199.664 74.604
1.58 200.749 74.626
1.59 201.099 73.924
1.60 199.368 71.558
1.61 197.572 67.391
1.62 198.553 62.522
1.63 199.016 57.319
1.64 --undefined-- 50.698
1.65 --undefined-- 44.043
1.66 --undefined-- 40.694
1.67 --undefined-- 38.257
1.68 --undefined-- 39.430
1.69 --undefined-- 46.633
1.70 --undefined-- 54.426
1.71 282.206 61.409
1.72 242.343 66.618
1.73 225.307 70.509
1.74 215.222 73.196
1.75 209.710 74.486
1.76 205.724 74.697
1.77 204.265 74.593
1.78 201.462 74.551
1.79 199.627 74.424
1.80 197.684 73.883
1.81 194.001 73.170
1.82 203.956 73.030
1.83 202.078 73.484
1.84 196.317 74.053
1.85 197.052 73.962
1.86 186.435 72.833
1.87 165.905 71.726
1.88 154.731 71.563
1.89 145.737 71.281
1.90 127.655 70.500
1.91 119.574 70.041
1.92 111.589 69.962
1.93 105.481 69.610
1.94 101.499 68.804
1.95 99.362 67.769
1.96 98.226 66.500
1.97 95.247 64.562
1.98 94.229 61.805
1.99 94.133 58.741
2.00 103.801 55.513
2.01 126.060 51.544
2.02 --undefined-- 46.983
2.03 --undefined-- 42.237
2.04 --undefined-- 39.593
2.05 --undefined-- 39.749
2.06 --undefined-- 43.391
2.07 --undefined-- 52.722
2.08 155.112 60.280
2.09 140.433 64.395
2.10 130.241 65.896
2.11 126.997 66.032
2.12 123.139 65.974
2.13 119.918 66.177
2.14 118.867 66.603
2.15 117.008 66.967
2.16 116.861 67.128
2.17 118.768 67.248
2.18 121.813 67.441
2.19 124.851 67.620
2.20 129.471 67.784
2.21 133.614 68.159
2.22 138.125 69.013
2.23 142.937 70.136
2.24 146.497 70.984
2.25 150.119 71.438
2.26 153.298 71.749
2.27 156.488 72.023
2.28 162.953 72.105
2.29 165.427 71.909
2.30 165.437 71.549
2.31 160.625 71.397
2.32 155.949 71.323
2.33 152.605 70.677
2.34 141.371 69.457
2.35 134.305 68.115
2.36 128.342 66.973
2.37 127.837 66.600
2.38 131.635 66.741
2.39 132.161 66.281
2.40 135.288 64.469
2.41 133.448 60.858
2.42 126.719 55.356
2.43 --undefined-- 50.558
2.44 --undefined-- 57.496
2.45 --undefined-- 64.372
2.46 168.444 68.106
2.47 154.482 70.023
2.48 141.677 70.960
2.49 138.696 71.167
2.50 138.921 71.117
2.51 140.087 71.088
2.52 142.962 71.153
2.53 147.562 71.290
2.54 152.174 71.004
2.55 153.918 69.631
2.56 155.704 67.061
2.57 165.408 63.965
2.58 163.784 60.842
2.59 162.588 57.162
2.60 --undefined-- 52.813
2.61 --undefined-- 57.623
2.62 228.143 65.279
2.63 200.629 69.760
2.64 189.269 71.545
2.65 183.438 71.672
2.66 179.207 71.446
2.67 177.228 71.428
2.68 176.428 71.378
2.69 176.001 71.368
2.70 176.550 71.198
2.71 176.279 70.808
2.72 176.057 70.795
2.73 176.153 70.828
2.74 176.092 70.613
2.75 176.989 70.182
2.76 177.256 69.665
2.77 176.450 69.138
2.78 173.443 68.571
2.79 163.484 68.234
2.80 154.323 68.187
2.81 144.708 67.753
2.82 131.667 66.679
2.83 120.217 65.583
2.84 114.762 64.673
2.85 115.226 63.878
2.86 116.990 63.642
2.87 117.560 63.911
2.88 118.815 64.424
2.89 120.849 65.082
2.90 122.050 65.759
2.91 124.252 66.314
2.92 123.977 66.338
2.93 118.941 65.473
2.94 118.278 63.758
2.95 113.746 60.946
2.96 108.757 56.390
2.97 --undefined-- 49.965
2.98 --undefined-- 42.794
2.99 --undefined-- 39.534
3.00 --undefined-- 39.734
3.01 --undefined-- 40.476
3.02 --undefined-- 43.748
3.03 --undefined-- 52.269
3.04 --undefined-- 59.097
3.05 127.213 63.024
3.06 121.294 65.106
3.07 116.841 66.252
3.08 114.147 66.886
3.09 114.401 67.391
3.10 116.094 67.993
3.11 118.647 68.597
3.12 121.371 68.970
3.13 126.666 69.199
3.14 130.964 69.569
3.15 137.897 70.140
3.16 142.383 70.763
3.17 146.127 71.227
3.18 151.633 71.363
3.19 153.561 71.271
3.20 154.514 71.210
3.21 154.763 71.099
3.22 154.383 70.753
3.23 152.763 70.236
3.24 150.859 69.679
3.25 149.503 69.055
3.26 146.862 68.160
3.27 142.291 66.583
3.28 139.177 63.948
3.29 150.980 60.396
3.30 149.220 56.037
3.31 149.577 50.364
3.32 --undefined-- 43.677
3.33 --undefined-- 40.657
3.34 --undefined-- 43.090
3.35 --undefined-- 48.423
3.36 --undefined-- 57.288
3.37 --undefined-- 63.467
3.38 --undefined-- 66.813
3.39 117.957 68.294
3.40 107.601 68.734
3.41 104.308 68.616
3.42 101.006 68.259
3.43 99.583 67.776
3.44 99.088 67.221
3.45 100.454 66.744
3.46 101.224 66.348
3.47 108.258 66.430
3.48 107.913 67.042
3.49 115.909 67.450
3.50 121.973 67.198
3.51 126.340 66.407
3.52 123.457 65.926
3.53 130.037 66.489
3.54 134.020 67.436
3.55 131.007 67.780
3.56 125.344 67.254
3.57 124.098 66.384
3.58 116.575 65.892
3.59 104.425 65.772
3.60 100.645 65.642
3.61 97.143 65.418
3.62 93.864 65.410
3.63 91.317 65.666
3.64 92.002 65.800
3.65 92.192 65.569
3.66 93.098 65.277
3.67 97.012 65.456
3.68 100.311 65.721
3.69 100.808 65.461
3.70 101.281 64.459
3.71 99.881 62.649
3.72 96.708 60.276
3.73 97.542 57.770
3.74 106.014 54.796
3.75 --undefined-- 50.515
3.76 --undefined-- 44.880
3.77 --undefined-- 39.110
3.78 --undefined-- 36.488
3.79 --undefined-- 38.455
3.80 --undefined-- 40.119
3.81 --undefined-- 40.064
3.82 --undefined-- 40.405
3.83 --undefined-- 43.690
3.84 --undefined-- 47.284
3.85 --undefined-- 49.350
3.86 --undefined-- 50.362
3.87 --undefined-- 56.966
3.88 188.156 63.439
3.89 167.599 66.909
3.90 156.923 68.335
3.91 154.402 68.956
3.92 153.232 69.362
3.93 152.576 69.766
3.94 151.815 70.214
3.95 150.287 70.416
3.96 146.052 70.231
3.97 141.669 69.769
3.98 138.597 69.222
3.99 135.842 68.671
4.00 132.831 68.185
4.01 130.303 67.901
4.02 128.025 67.694
4.03 123.639 67.528
4.04 121.345 67.480
4.05 120.207 67.452
4.06 118.362 67.254
4.07 111.683 66.803
4.08 111.292 65.857
4.09 91.963 64.035
4.10 --undefined-- 61.185
4.11 --undefined-- 57.868
4.12 --undefined-- 53.194
4.13 --undefined-- 45.852
4.14 --undefined-- 45.081
4.15 --undefined-- 52.640
4.16 92.682 57.725
4.17 92.795 60.313
4.18 87.621 61.469
4.19 100.395 62.474
4.20 102.822 63.572
4.21 103.691 64.348
4.22 103.860 64.895
4.23 106.336 65.272
4.24 106.140 65.297
4.25 109.092 65.239
4.26 109.862 65.406
4.27 110.356 65.608
4.28 108.964 65.702
4.29 109.739 66.047
4.30 110.549 66.552
4.31 110.640 66.866
4.32 110.358 66.956
4.33 109.795 66.950
4.34 108.880 66.915
4.35 107.714 66.855
4.36 107.466 66.986
4.37 104.346 67.486
4.38 103.102 68.007
4.39 100.537 68.034
4.40 97.258 67.216
4.41 94.519 65.693
4.42 91.425 64.087
4.43 91.121 63.393
4.44 92.117 63.260
4.45 92.560 63.094
4.46 91.494 63.005
4.47 90.929 62.820
4.48 90.872 62.420
4.49 89.899 62.065
4.50 90.405 61.936
4.51 92.146 61.970
4.52 95.004 62.289
4.53 97.734 62.850
4.54 102.200 63.337
4.55 106.939 62.959
4.56 112.286 60.761
4.57 108.799 56.395
4.58 --undefined-- 50.149
4.59 --undefined-- 43.999
4.60 --undefined-- 40.457
4.61 --undefined-- 41.215
4.62 --undefined-- 44.848
4.63 --undefined-- 51.326
4.64 --undefined-- 56.853
4.65 --undefined-- 60.218
4.66 --undefined-- 63.841
4.67 185.071 68.431
4.68 181.103 71.359
4.69 163.391 72.006
4.70 160.103 71.028
4.71 147.744 69.145
4.72 150.089 67.191
4.73 154.981 66.274
4.74 156.913 66.489
4.75 157.980 67.196
4.76 156.646 68.080
4.77 154.699 68.772
4.78 154.988 69.183
4.79 155.137 69.564
4.80 159.697 70.260
4.81 168.699 71.158
4.82 171.832 71.545
4.83 170.784 70.943
4.84 168.142 69.127
4.85 165.211 66.073
4.86 164.672 62.753
4.87 164.870 60.340
4.88 164.876 58.426
4.89 167.463 55.456
4.90 172.964 50.742
4.91 --undefined-- 45.020
4.92 --undefined-- 42.415
4.93 --undefined-- 43.205
4.94 --undefined-- 44.243
4.95 --undefined-- 52.198
4.96 199.880 60.398
4.97 183.631 65.372
4.98 165.111 68.027
4.99 161.994 69.358
5.00 159.616 70.002
5.01 157.720 70.190
5.02 156.150 70.124
5.03 153.724 69.836
5.04 151.009 69.146
5.05 147.607 67.922
5.06 145.280 65.979
5.07 145.540 63.288
5.08 148.125 59.556
5.09 147.666 54.173
5.10 --undefined-- 47.141
5.11 --undefined-- 43.983
5.12 --undefined-- 45.298
5.13 --undefined-- 48.696
5.14 --undefined-- 52.093
5.15 --undefined-- 54.207
5.16 --undefined-- 55.404
5.17 --undefined-- 55.377
5.18 --undefined-- 56.468
5.19 --undefined-- 62.345
5.20 --undefined-- 66.863
5.21 --undefined-- 68.874
5.22 109.625 69.106
5.23 102.730 68.202
5.24 95.707 66.492
5.25 95.383 64.852
5.26 85.594 64.045
5.27 84.874 63.461
5.28 86.283 63.223
5.29 86.910 63.259
5.30 87.452 63.328
5.31 89.988 63.841
5.32 94.453 64.604
5.33 98.744 65.207
5.34 102.530 65.768
5.35 107.335 66.409
5.36 112.972 66.884
5.37 119.762 67.366
5.38 120.843 67.975
5.39 124.026 68.475
5.40 126.388 68.830
5.41 127.283 69.158
5.42 128.263 69.362
5.43 130.607 69.395
5.44 134.185 69.201
5.45 134.483 68.295
5.46 134.829 66.133
5.47 145.123 62.200
5.48 133.635 55.950
5.49 --undefined-- 47.968
5.50 --undefined-- 44.862
5.51 --undefined-- 45.527
5.52 --undefined-- 45.304
5.53 --undefined-- 45.124
5.54 --undefined-- 46.256
5.55 --undefined-- 47.741
5.56 --undefined-- 48.705
5.57 --undefined-- 49.022
5.58 --undefined-- 49.491
5.59 --undefined-- 49.630
5.60 --undefined-- 48.476
5.61 --undefined-- 47.179
5.62 --undefined-- 46.531
5.63 --undefined-- 45.797
5.64 --undefined-- 44.479
5.65 --undefined-- 42.621
5.66 --undefined-- 40.047
5.67 --undefined-- 37.467
5.68 --undefined-- 37.431
5.69 --undefined-- 38.349
5.70 --undefined-- 38.180
5.71 --undefined-- 45.725
5.72 --undefined-- 55.493
5.73 --undefined-- 60.980
5.74 --undefined-- 63.859
5.75 --undefined-- 67.005
5.76 --undefined-- 70.660
5.77 --undefined-- 72.981
5.78 138.781 73.660
5.79 136.762 73.350
5.80 135.914 72.309
5.81 135.421 --undefined--
5.82 127.864 --undefined--
5.83 --undefined-- --undefined--
5.84 --undefined-- --undefined--
