Time Pitch Intensity
0.01 --undefined-- --undefined--
0.02 78.423 --undefined--
0.03 78.606 --undefined--
0.04 78.392 --undefined--
0.05 78.297 59.958
0.06 --undefined-- 57.534
0.07 --undefined-- 53.572
0.08 --undefined-- 49.401
0.09 --undefined-- 49.710
0.10 --undefined-- 56.105
0.11 --undefined-- 61.360
0.12 --undefined-- 63.118
0.13 --undefined-- 60.905
0.14 --undefined-- 55.283
0.15 --undefined-- 60.210
0.16 --undefined-- 67.139
0.17 --undefined-- 69.976
0.18 --undefined-- 68.842
0.19 --undefined-- 64.606
0.20 --undefined-- 62.814
0.21 92.937 63.921
0.22 88.160 63.479
0.23 87.829 62.279
0.24 83.210 61.070
0.25 78.680 59.822
0.26 76.301 58.320
0.27 --undefined-- 56.255
0.28 --undefined-- 53.317
0.29 --undefined-- 52.169
0.30 --undefined-- 54.425
0.31 --undefined-- 56.654
0.32 --undefined-- 58.100
0.33 --undefined-- 58.763
0.34 --undefined-- 58.380
0.35 --undefined-- 57.040
0.36 --undefined-- 55.181
0.37 --undefined-- 52.892
0.38 --undefined-- 50.802
0.39 --undefined-- 49.256
0.40 --undefined-- 49.105
0.41 --undefined-- 53.920
0.42 --undefined-- 57.778
0.43 89.750 59.242
0.44 86.792 59.359
0.45 84.492 58.896
0.46 83.510 58.705
0.47 81.899 58.555
0.48 80.947 57.137
0.49 81.881 54.561
0.50 81.272 52.391
0.51 81.192 50.832
0.52 --undefined-- 49.737
0.53 82.578 49.962
0.54 82.676 50.115
0.55 --undefined-- 49.435
0.56 --undefined-- 48.715
0.57 --undefined-- 48.206
0.58 --undefined-- 47.446
0.59 --undefined-- 49.632
0.60 --undefined-- 55.427
0.61 --undefined-- 59.183
0.62 82.037 61.060
0.63 81.713 62.495
0.64 79.909 63.589
0.65 79.315 64.104
0.66 78.565 64.071
0.67 76.268 63.650
0.68 77.091 63.143
0.69 76.834 62.338
0.70 76.819 61.028
0.71 77.758 59.913
0.72 78.796 59.332
0.73 80.480 58.815
0.74 81.152 58.402
0.75 81.155 57.776
0.76 82.706 56.030
0.77 --undefined-- 53.075
0.78 --undefined-- 49.605
0.79 --undefined-- 45.438
0.80 --undefined-- 40.240
0.81 --undefined-- 39.585
0.82 --undefined-- 43.814
0.83 --undefined-- 51.479
0.84 --undefined-- 56.337
0.85 --undefined-- 57.118
0.86 --undefined-- 55.722
0.87 --undefined-- 57.757
0.88 --undefined-- 61.616
0.89 --undefined-- 63.212
0.90 88.351 62.500
0.91 87.955 61.833
0.92 85.121 63.361
0.93 84.918 65.236
0.94 83.963 65.340
0.95 84.099 64.045
0.96 83.688 62.648
0.97 83.652 61.974
0.98 84.194 62.109
0.99 81.847 62.285
1.00 80.892 62.548
1.01 80.594 62.916
1.02 --undefined-- 62.199
1.03 --undefined-- 59.069
1.04 --undefined-- 53.246
1.05 --undefined-- 45.646
1.06 --undefined-- 40.325
1.07 --undefined-- 38.202
1.08 --undefined-- 36.405
1.09 --undefined-- 35.181
1.10 --undefined-- 34.626
1.11 --undefined-- 35.153
1.12 --undefined-- 42.626
1.13 --undefined-- 50.147
1.14 --undefined-- 53.680
1.15 --undefined-- 54.293
1.16 --undefined-- 54.285
1.17 250.800 55.418
1.18 251.687 56.024
1.19 251.868 54.884
1.20 --undefined-- 53.470
1.21 --undefined-- 55.980
1.22 --undefined-- 59.341
1.23 88.371 61.062
1.24 88.499 61.712
1.25 88.172 61.870
1.26 87.746 61.508
1.27 87.323 60.770
1.28 87.047 59.899
1.29 88.692 59.058
1.30 89.989 58.528
1.31 93.447 58.645
1.32 96.880 59.239
1.33 99.627 59.961
1.34 102.380 60.831
1.35 105.154 61.522
1.36 102.435 61.083
1.37 101.606 59.613
1.38 --undefined-- 58.576
1.39 --undefined-- 59.467
1.40 98.646 62.833
1.41 110.542 66.033
1.42 109.994 68.126
1.43 106.780 69.078
1.44 106.145 69.365
1.45 106.960 69.822
1.46 106.277 70.124
1.47 104.246 69.373
1.48 102.687 67.186
1.49 --undefined-- 63.276
1.50 --undefined-- 58.206
1.51 --undefined-- 56.941
1.52 --undefined-- 58.039
1.53 --undefined-- 58.642
1.54 --undefined-- 60.764
1.55 --undefined-- 64.735
1.56 --undefined-- 67.185
1.57 --undefined-- 67.565
1.58 116.651 67.113
1.59 117.767 66.048
1.60 116.415 63.392
1.61 114.851 59.589
1.62 113.574 56.899
1.63 108.794 54.570
1.64 --undefined-- 51.330
1.65 --undefined-- 51.487
1.66 --undefined-- 54.472
1.67 --undefined-- 55.261
1.68 --undefined-- 56.592
1.69 --undefined-- 62.756
1.70 --undefined-- 67.568
1.71 107.392 70.456
1.72 105.211 72.518
1.73 104.058 73.775
1.74 101.200 74.183
1.75 99.222 74.187
1.76 96.653 74.033
1.77 93.960 73.738
1.78 92.839 73.374
1.79 91.643 71.925
1.80 91.386 68.652
1.81 91.625 64.836
1.82 91.555 63.127
1.83 90.375 62.413
1.84 89.925 62.402
1.85 87.630 64.226
1.86 87.740 66.730
1.87 85.441 68.352
1.88 84.309 69.037
1.89 81.679 69.180
1.90 80.606 68.848
1.91 --undefined-- 67.514
1.92 --undefined-- 64.658
1.93 --undefined-- 60.224
1.94 --undefined-- 54.085
1.95 --undefined-- 46.519
1.96 --undefined-- 40.426
1.97 --undefined-- 38.309
1.98 --undefined-- 43.870
1.99 --undefined-- 53.653
2.00 --undefined-- 58.861
2.01 --undefined-- 59.578
2.02 --undefined-- 58.327
2.03 --undefined-- 59.983
2.04 97.365 60.515
2.05 95.087 58.486
2.06 93.770 55.697
2.07 93.632 54.497
2.08 93.548 54.227
2.09 93.937 53.596
2.10 94.731 52.811
2.11 95.686 52.986
2.12 96.512 54.830
2.13 97.265 58.110
2.14 96.501 61.287
2.15 96.960 64.023
2.16 96.729 66.067
2.17 96.106 67.102
2.18 95.368 67.279
2.19 94.672 67.056
2.20 94.072 66.924
2.21 93.674 67.057
2.22 92.994 66.930
2.23 93.147 66.288
2.24 93.604 65.342
2.25 94.201 64.214
2.26 95.615 63.013
2.27 98.371 62.064
2.28 99.524 61.092
2.29 100.326 59.835
2.30 99.984 58.500
2.31 99.959 57.364
2.32 98.618 57.051
2.33 --undefined-- 56.700
2.34 93.863 55.604
2.35 89.946 55.035
2.36 --undefined-- 58.447
2.37 --undefined-- 62.461
2.38 --undefined-- 64.855
2.39 81.399 65.809
2.40 78.971 66.128
2.41 77.408 66.568
2.42 75.466 67.261
2.43 75.573 67.657
2.44 --undefined-- 66.974
2.45 --undefined-- 64.799
2.46 --undefined-- 60.504
2.47 --undefined-- 53.597
2.48 --undefined-- 45.003
2.49 --undefined-- 48.115
2.50 --undefined-- 55.577
2.51 --undefined-- 59.562
2.52 --undefined-- 62.259
2.53 --undefined-- 63.890
2.54 --undefined-- 63.802
2.55 89.475 62.722
2.56 87.905 61.510
2.57 86.567 60.423
2.58 86.252 59.410
2.59 84.705 58.406
2.60 83.284 57.613
2.61 81.825 56.760
2.62 --undefined-- 54.958
2.63 --undefined-- 51.570
2.64 --undefined-- 46.773
2.65 --undefined-- 41.003
2.66 --undefined-- 35.542
2.67 --undefined-- 33.906
2.68 --undefined-- 36.756
2.69 --undefined-- 47.272
2.70 --undefined-- 55.616
2.71 --undefined-- 60.944
2.72 --undefined-- 64.810
2.73 --undefined-- 67.137
2.74 --undefined-- 66.880
2.75 --undefined-- 65.038
2.76 --undefined-- 66.102
2.77 --undefined-- 67.772
2.78 --undefined-- 67.163
2.79 --undefined-- 64.285
2.80 --undefined-- 59.075
2.81 --undefined-- 50.612
2.82 --undefined-- 40.042
2.83 --undefined-- 36.626
2.84 --undefined-- 35.983
2.85 --undefined-- 36.102
2.86 --undefined-- 35.631
2.87 --undefined-- 36.600
2.88 --undefined-- 46.518
2.89 --undefined-- 54.882
2.90 --undefined-- 59.635
2.91 --undefined-- 61.679
2.92 --undefined-- 63.798
2.93 --undefined-- 67.635
2.94 95.602 69.681
2.95 88.906 69.627
2.96 82.921 68.609
2.97 --undefined-- 66.873
2.98 --undefined-- 62.864
2.99 --undefined-- 54.911
3.00 --undefined-- 43.193
3.01 --undefined-- 37.212
3.02 --undefined-- 36.270
3.03 --undefined-- 36.190
3.04 --undefined-- 36.048
3.05 --undefined-- 35.766
3.06 --undefined-- 40.181
3.07 --undefined-- 48.694
3.08 --undefined-- 53.155
3.09 --undefined-- 53.026
3.10 --undefined-- 48.307
3.11 --undefined-- 39.592
3.12 --undefined-- 36.449
3.13 --undefined-- 43.517
3.14 --undefined-- 51.257
3.15 --undefined-- 57.051
3.16 --undefined-- 61.050
3.17 --undefined-- 62.988
3.18 --undefined-- 64.347
3.19 --undefined-- 67.363
3.20 --undefined-- 69.324
3.21 --undefined-- 68.786
3.22 --undefined-- 66.638
3.23 --undefined-- 65.103
3.24 --undefined-- 65.277
3.25 101.767 65.356
3.26 102.700 65.184
3.27 101.679 65.664
3.28 101.185 66.031
3.29 96.423 65.606
3.30 94.757 64.674
3.31 94.802 63.359
3.32 97.108 62.157
3.33 97.110 61.298
3.34 96.949 59.143
3.35 98.495 54.907
3.36 99.458 51.579
3.37 99.461 51.096
3.38 98.847 51.351
3.39 97.713 51.878
3.40 93.591 53.244
3.41 --undefined-- 54.655
3.42 --undefined-- 54.067
3.43 --undefined-- 53.363
3.44 --undefined-- 53.597
3.45 --undefined-- 54.370
3.46 --undefined-- 55.598
3.47 --undefined-- 56.797
3.48 --undefined-- 59.715
3.49 84.115 62.090
3.50 83.706 62.841
3.51 83.333 62.225
3.52 81.720 60.430
3.53 81.246 58.128
3.54 --undefined-- 55.884
3.55 --undefined-- 52.667
3.56 --undefined-- 50.096
3.57 79.950 52.919
3.58 81.493 57.398
3.59 81.538 60.812
3.60 81.401 62.580
3.61 80.646 62.930
3.62 80.728 62.950
3.63 81.694 63.103
3.64 82.164 63.258
3.65 82.689 63.382
3.66 83.128 62.612
3.67 82.777 60.233
3.68 81.295 56.222
3.69 --undefined-- 52.681
3.70 --undefined-- 53.551
3.71 --undefined-- 56.576
3.72 --undefined-- 59.134
3.73 --undefined-- 60.674
3.74 --undefined-- 60.590
3.75 --undefined-- 60.768
3.76 --undefined-- 63.020
3.77 --undefined-- 63.408
3.78 --undefined-- 62.896
3.79 --undefined-- 66.537
3.80 --undefined-- 69.268
3.81 --undefined-- 69.425
3.82 --undefined-- 67.650
3.83 100.017 64.594
3.84 98.106 60.963
3.85 97.383 58.031
3.86 94.937 56.425
3.87 94.990 55.486
3.88 95.154 55.279
3.89 93.107 55.710
3.90 93.489 55.807
3.91 93.572 55.105
3.92 93.526 53.630
3.93 92.785 51.932
3.94 --undefined-- 49.660
3.95 --undefined-- 47.184
3.96 --undefined-- 50.693
3.97 --undefined-- 54.232
3.98 --undefined-- 55.288
3.99 --undefined-- 56.757
4.00 --undefined-- 58.701
4.01 --undefined-- 59.943
4.02 --undefined-- 60.352
4.03 --undefined-- 60.413
4.04 --undefined-- 60.021
4.05 --undefined-- 58.464
4.06 --undefined-- 55.758
4.07 --undefined-- 53.053
4.08 --undefined-- 54.047
4.09 --undefined-- 55.585
4.10 79.889 55.226
4.11 81.761 55.606
4.12 --undefined-- 58.892
4.13 --undefined-- 61.751
4.14 80.849 62.875
4.15 82.444 63.221
4.16 79.952 63.537
4.17 80.327 63.746
4.18 79.127 63.769
4.19 79.008 63.946
4.20 79.121 63.845
4.21 79.097 62.823
4.22 --undefined-- 61.176
4.23 --undefined-- 59.593
4.24 --undefined-- 58.478
4.25 --undefined-- 57.455
4.26 --undefined-- 55.795
4.27 --undefined-- 53.013
4.28 --undefined-- 49.269
4.29 --undefined-- 44.750
4.30 --undefined-- 39.563
4.31 --undefined-- 35.864
4.32 --undefined-- 35.438
4.33 --undefined-- 35.541
4.34 --undefined-- 35.702
4.35 --undefined-- 36.690
4.36 --undefined-- 38.322
4.37 --undefined-- 41.113
4.38 --undefined-- 43.821
4.39 --undefined-- 45.186
4.40 --undefined-- 45.679
4.41 --undefined-- 46.495
4.42 --undefined-- 47.280
4.43 --undefined-- 47.797
4.44 --undefined-- 49.052
4.45 --undefined-- 55.305
4.46 --undefined-- 60.661
4.47 --undefined-- 62.043
4.48 --undefined-- 60.160
4.49 --undefined-- 57.771
4.50 --undefined-- 55.761
4.51 --undefined-- 52.790
4.52 --undefined-- 50.655
4.53 --undefined-- 49.476
4.54 --undefined-- 48.377
4.55 --undefined-- 47.124
4.56 --undefined-- 45.601
4.57 --undefined-- 44.055
4.58 --undefined-- 42.684
4.59 --undefined-- 40.564
4.60 --undefined-- 37.392
4.61 --undefined-- 35.555
4.62 --undefined-- 35.195
4.63 --undefined-- 36.864
4.64 --undefined-- 51.615
4.65 --undefined-- 62.450
4.66 --undefined-- 67.683
4.67 --undefined-- 68.380
4.68 --undefined-- 66.409
4.69 --undefined-- 67.731
4.70 --undefined-- 69.794
4.71 --undefined-- 70.492
4.72 --undefined-- 70.515
4.73 --undefined-- 69.919
4.74 93.755 69.347
4.75 92.761 69.609
4.76 92.526 70.540
4.77 93.236 71.661
4.78 93.917 72.770
4.79 96.456 73.230
4.80 101.766 72.985
4.81 105.401 72.782
4.82 107.987 71.827
4.83 --undefined-- 69.082
4.84 --undefined-- 65.693
4.85 --undefined-- 63.346
4.86 --undefined-- 61.326
4.87 --undefined-- 59.769
4.88 --undefined-- 58.764
4.89 --undefined-- 58.220
4.90 --undefined-- 58.283
4.91 --undefined-- 58.305
4.92 --undefined-- 57.771
4.93 --undefined-- 56.705
4.94 --undefined-- 57.349
4.95 --undefined-- 61.879
4.96 --undefined-- 66.220
4.97 --undefined-- 68.479
4.98 91.628 68.711
4.99 94.146 67.670
5.00 90.601 66.064
5.01 --undefined-- 63.203
5.02 --undefined-- 57.839
5.03 --undefined-- 53.218
5.04 --undefined-- 51.401
5.05 --undefined-- 46.741
5.06 --undefined-- 40.564
5.07 --undefined-- 41.372
5.08 --undefined-- 47.395
5.09 --undefined-- 51.131
5.10 --undefined-- 52.424
5.11 --undefined-- 55.122
5.12 --undefined-- 58.822
5.13 --undefined-- 60.949
5.14 --undefined-- 62.476
5.15 --undefined-- 64.022
5.16 --undefined-- 64.561
5.17 --undefined-- 64.346
5.18 --undefined-- 63.664
5.19 --undefined-- 62.541
5.20 --undefined-- 61.826
5.21 --undefined-- 62.193
5.22 92.200 62.796
5.23 90.259 63.388
5.24 88.418 64.211
5.25 87.824 64.598
5.26 86.484 64.572
5.27 85.959 64.262
5.28 85.585 63.506
5.29 84.330 63.106
5.30 84.376 62.782
5.31 84.667 61.772
5.32 84.865 61.647
5.33 --undefined-- 62.389
5.34 79.625 61.286
5.35 80.798 58.199
5.36 80.492 56.715
5.37 80.610 57.153
5.38 80.864 57.201
5.39 82.584 56.620
5.40 82.389 56.065
5.41 83.218 55.925
5.42 86.831 56.102
5.43 88.118 57.078
5.44 90.398 58.944
5.45 90.945 61.186
5.46 90.442 63.322
5.47 89.324 --undefined--
5.48 89.002 --undefined--
5.49 --undefined-- --undefined--
5.50 --undefined-- --undefined--
