Time Pitch Intensity
0.01 --undefined-- --undefined--
0.02 95.480 --undefined--
0.03 96.883 --undefined--
0.04 97.765 --undefined--
0.05 97.961 69.099
0.06 97.669 68.155
0.07 93.033 65.767
0.08 95.105 62.181
0.09 100.280 58.578
0.10 102.678 55.708
0.11 --undefined-- 57.198
0.12 --undefined-- 60.422
0.13 --undefined-- 63.541
0.14 --undefined-- 68.887
0.15 --undefined-- 73.033
0.16 129.226 74.927
0.17 123.885 75.565
0.18 121.503 75.927
0.19 120.010 75.929
0.20 119.236 75.427
0.21 119.082 74.974
0.22 119.960 75.093
0.23 120.963 75.495
0.24 121.559 75.755
0.25 121.945 75.701
0.26 121.395 74.807
0.27 116.767 72.225
0.28 114.763 68.027
0.29 123.915 64.244
0.30 122.199 60.743
0.31 122.025 57.307
0.32 123.720 62.543
0.33 --undefined-- 69.170
0.34 --undefined-- 72.846
0.35 110.972 73.917
0.36 111.243 73.201
0.37 101.474 71.887
0.38 100.298 70.918
0.39 102.593 70.604
0.40 103.637 70.338
0.41 103.963 70.160
0.42 105.546 70.183
0.43 107.002 70.424
0.44 107.695 71.226
0.45 110.367 72.277
0.46 115.120 72.910
0.47 122.002 73.271
0.48 130.770 74.210
0.49 138.843 75.498
0.50 145.967 76.350
0.51 150.732 76.655
0.52 153.756 76.836
0.53 156.388 76.834
0.54 155.557 75.346
0.55 153.635 71.398
0.56 155.669 65.234
0.57 153.910 59.259
0.58 152.201 57.141
0.59 155.055 56.344
0.60 156.618 55.284
0.61 155.730 55.104
0.62 154.728 55.467
0.63 --undefined-- 56.540
0.64 --undefined-- 61.341
0.65 --undefined-- 68.312
0.66 --undefined-- 72.709
0.67 128.089 74.608
0.68 124.092 75.276
0.69 122.691 75.692
0.70 120.840 75.493
0.71 119.145 73.877
0.72 113.472 70.260
0.73 111.659 64.684
0.74 118.822 58.890
0.75 --undefined-- 54.106
0.76 --undefined-- 50.553
0.77 --undefined-- 48.164
0.78 --undefined-- 45.484
0.79 --undefined-- 42.941
0.80 --undefined-- 42.855
0.81 --undefined-- 51.994
0.82 --undefined-- 62.406
0.83 --undefined-- 68.441
0.84 --undefined-- 70.718
0.85 --undefined-- 69.984
0.86 --undefined-- 67.499
0.87 --undefined-- 65.297
0.88 --undefined-- 63.758
0.89 --undefined-- 62.372
0.90 --undefined-- 61.927
0.91 --undefined-- 62.315
0.92 91.149 62.033
0.93 96.908 62.000
0.94 88.037 62.560
0.95 88.625 63.401
0.96 91.196 64.632
0.97 100.247 65.988
0.98 101.270 67.578
0.99 112.166 69.407
1.00 114.712 70.916
1.01 118.948 71.869
1.02 124.963 72.590
1.03 128.840 73.312
1.04 132.946 73.943
1.05 136.503 74.368
1.06 140.386 74.688
1.07 144.201 75.040
1.08 146.463 75.165
1.09 145.367 74.650
1.10 146.521 73.387
1.11 148.112 71.484
1.12 147.327 68.978
1.13 148.729 65.594
1.14 151.095 61.395
1.15 149.481 58.022
1.16 150.297 56.107
1.17 --undefined-- 59.403
1.18 --undefined-- 68.462
1.19 --undefined-- 74.512
1.20 171.419 77.048
1.21 166.392 77.559
1.22 164.908 77.773
1.23 164.795 77.913
1.24 165.125 77.503
1.25 163.895 76.128
1.26 158.018 73.296
1.27 130.794 68.804
1.28 129.427 64.020
1.29 165.295 61.210
1.30 163.518 59.520
1.31 164.537 58.614
1.32 166.985 58.914
1.33 166.624 59.140
1.34 130.336 59.938
1.35 117.413 61.007
1.36 99.656 61.481
1.37 100.007 62.445
1.38 103.980 64.631
1.39 104.134 66.815
1.40 103.656 68.437
1.41 104.306 69.782
1.42 105.121 70.606
1.43 105.288 70.606
1.44 108.476 70.246
1.45 112.772 69.971
1.46 119.021 69.923
1.47 126.319 70.588
1.48 131.081 72.021
1.49 134.698 73.279
1.50 138.940 73.955
1.51 141.749 73.998
1.52 142.673 73.164
1.53 141.028 71.196
1.54 139.434 68.146
1.55 133.268 64.124
1.56 131.880 60.744
1.57 138.078 65.067
1.58 --undefined-- 71.220
1.59 140.256 74.933
1.60 133.136 76.294
1.61 123.983 76.441
1.62 118.744 76.451
1.63 115.337 76.088
1.64 111.765 75.259
1.65 111.093 74.521
1.66 110.860 73.848
1.67 111.565 73.194
1.68 111.632 72.649
1.69 110.138 72.438
1.70 108.106 72.554
1.71 105.731 72.232
1.72 102.826 70.666
1.73 96.929 67.507
1.74 98.338 63.500
1.75 103.902 60.456
1.76 --undefined-- 58.653
1.77 --undefined-- 56.938
1.78 --undefined-- 55.312
1.79 --undefined-- 56.845
1.80 --undefined-- 59.215
1.81 --undefined-- 60.481
1.82 --undefined-- 62.119
1.83 --undefined-- 63.827
1.84 --undefined-- 65.291
1.85 --undefined-- 67.507
1.86 101.941 69.844
1.87 104.601 71.811
1.88 108.334 73.579
1.89 112.217 75.052
1.90 117.303 76.017
1.91 124.023 76.457
1.92 129.323 76.581
1.93 132.437 76.527
1.94 133.832 76.372
1.95 133.768 76.319
1.96 132.260 76.730
1.97 129.386 77.519
1.98 125.336 78.031
1.99 121.012 77.747
2.00 117.243 76.478
2.01 111.333 74.102
2.02 106.227 70.681
2.03 101.846 66.515
2.04 99.169 62.292
2.05 111.030 58.867
2.06 115.592 58.647
2.07 --undefined-- 65.415
2.08 --undefined-- 71.414
2.09 116.989 74.739
2.10 116.197 75.800
2.11 111.835 75.479
2.12 110.254 75.020
2.13 109.690 74.721
2.14 107.872 74.177
2.15 105.888 73.564
2.16 104.815 73.086
2.17 101.961 72.577
2.18 101.101 72.083
2.19 100.317 71.771
2.20 100.057 71.707
2.21 100.594 71.930
2.22 100.861 72.490
2.23 98.633 72.842
2.24 95.941 71.678
2.25 98.415 68.183
2.26 99.185 62.608
2.27 97.963 57.278
2.28 102.594 54.920
2.29 --undefined-- 55.530
2.30 --undefined-- 60.599
2.31 --undefined-- 66.332
2.32 --undefined-- 69.227
2.33 101.798 69.328
2.34 100.512 67.786
2.35 99.750 66.271
2.36 92.620 65.398
2.37 96.703 65.412
2.38 91.164 65.353
2.39 99.900 65.198
2.40 97.964 65.701
2.41 102.905 66.404
2.42 109.225 67.631
2.43 115.431 69.386
2.44 119.883 70.821
2.45 120.973 70.936
2.46 118.923 69.264
2.47 124.437 66.319
2.48 128.879 62.951
2.49 --undefined-- 60.669
2.50 --undefined-- 62.216
2.51 --undefined-- 63.550
2.52 --undefined-- 65.010
2.53 --undefined-- 68.737
2.54 115.000 71.001
2.55 114.566 71.035
2.56 114.246 70.203
2.57 96.778 69.782
2.58 96.042 69.225
2.59 87.884 68.320
2.60 87.707 67.402
2.61 94.736 66.376
2.62 91.124 65.153
2.63 95.603 64.336
2.64 --undefined-- 64.144
2.65 --undefined-- 64.607
2.66 --undefined-- 65.235
2.67 93.219 65.981
2.68 92.825 67.024
2.69 92.635 67.958
2.70 92.886 69.013
2.71 91.842 70.176
2.72 96.556 71.808
2.73 97.459 73.268
2.74 99.173 73.904
2.75 101.971 73.938
2.76 106.438 73.797
2.77 107.118 73.789
2.78 108.491 74.174
2.79 109.574 74.405
2.80 109.629 74.113
2.81 111.509 73.598
2.82 110.393 72.575
2.83 107.544 70.694
2.84 96.298 67.957
2.85 --undefined-- 64.161
2.86 --undefined-- 59.281
2.87 --undefined-- 55.078
2.88 --undefined-- 51.710
2.89 --undefined-- 48.408
2.90 --undefined-- 46.415
2.91 --undefined-- 44.651
2.92 --undefined-- 42.888
2.93 --undefined-- 42.301
2.94 --undefined-- 42.768
2.95 --undefined-- 43.212
2.96 --undefined-- 43.120
2.97 --undefined-- 42.428
2.98 --undefined-- 42.403
2.99 --undefined-- 43.907
3.00 --undefined-- 44.747
3.01 --undefined-- 43.660
3.02 --undefined-- 49.374
3.03 --undefined-- 60.398
3.04 --undefined-- 68.713
3.05 201.314 73.989
3.06 175.471 76.324
3.07 148.348 76.614
3.08 145.406 76.538
3.09 144.890 76.683
3.10 144.588 76.673
3.11 143.775 76.606
3.12 142.614 76.572
3.13 141.262 76.463
3.14 139.832 76.276
3.15 139.120 76.128
3.16 138.066 76.046
3.17 137.045 75.985
3.18 136.011 75.914
3.19 134.646 75.776
3.20 132.739 75.560
3.21 130.829 75.380
3.22 129.150 75.274
3.23 127.728 75.202
3.24 126.612 75.184
3.25 125.649 75.164
3.26 124.289 75.065
3.27 122.981 75.002
3.28 121.585 75.037
3.29 119.066 75.026
3.30 116.384 74.912
3.31 114.415 74.838
3.32 113.407 74.928
3.33 112.082 75.105
3.34 110.796 75.259
3.35 111.828 75.444
3.36 111.615 75.788
3.37 109.532 76.145
3.38 107.352 76.260
3.39 97.354 76.045
3.40 107.767 75.711
3.41 103.615 75.406
3.42 105.218 75.334
3.43 107.837 75.596
3.44 110.724 75.807
3.45 114.631 75.814
3.46 119.449 75.866
3.47 125.495 75.876
3.48 130.141 75.102
3.49 139.854 73.766
3.50 154.099 73.909
3.51 168.826 75.205
3.52 183.833 76.105
3.53 198.198 76.604
3.54 207.120 76.903
3.55 214.214 77.002
3.56 214.290 76.657
3.57 211.863 75.461
3.58 205.367 73.566
3.59 200.587 71.309
3.60 201.734 69.674
3.61 244.163 72.648
3.62 231.788 76.357
3.63 222.019 78.071
3.64 211.505 78.406
3.65 203.789 78.145
3.66 198.494 77.559
3.67 193.898 76.978
3.68 188.845 76.729
3.69 185.071 76.705
3.70 183.088 76.735
3.71 185.431 76.698
3.72 192.083 76.689
3.73 195.311 76.743
3.74 197.570 76.771
3.75 200.873 76.869
3.76 205.263 77.042
3.77 209.083 77.027
3.78 211.671 76.660
3.79 212.258 75.636
3.80 207.881 73.564
3.81 192.381 70.906
3.82 189.349 68.280
3.83 196.928 64.817
3.84 208.533 59.769
3.85 205.271 55.220
3.86 194.958 56.227
3.87 --undefined-- 63.715
3.88 --undefined-- 70.174
3.89 --undefined-- 73.883
3.90 217.948 76.106
3.91 214.229 77.080
3.92 206.967 76.912
3.93 205.071 76.534
3.94 205.086 76.038
3.95 203.585 75.022
3.96 200.842 74.564
3.97 203.717 75.820
3.98 208.855 77.430
3.99 211.956 78.386
4.00 213.704 78.592
4.01 215.468 78.468
4.02 216.207 78.401
4.03 215.741 78.422
4.04 215.040 78.436
4.05 214.156 78.413
4.06 212.662 78.327
4.07 211.492 78.148
4.08 210.590 77.915
4.09 209.735 77.702
4.10 208.075 77.581
4.11 206.134 77.432
4.12 201.530 76.777
4.13 193.338 74.958
4.14 188.856 71.192
4.15 197.324 65.521
4.16 196.758 60.916
4.17 198.329 59.928
4.18 199.472 59.074
4.19 --undefined-- 60.328
4.20 --undefined-- 63.828
4.21 --undefined-- 65.804
4.22 --undefined-- 65.699
4.23 --undefined-- 64.749
4.24 --undefined-- 65.025
4.25 --undefined-- 65.927
4.26 --undefined-- 67.993
4.27 --undefined-- 72.862
4.28 --undefined-- 76.511
4.29 152.784 77.956
4.30 147.579 78.151
4.31 141.454 77.990
4.32 135.782 77.799
4.33 134.129 77.656
4.34 132.865 77.500
4.35 132.083 77.034
4.36 129.863 76.127
4.37 130.489 74.487
4.38 136.822 71.967
4.39 142.244 69.456
4.40 --undefined-- 67.991
4.41 --undefined-- 67.493
4.42 --undefined-- 67.250
4.43 --undefined-- 67.461
4.44 --undefined-- 68.211
4.45 --undefined-- 69.221
4.46 --undefined-- 71.734
4.47 --undefined-- 74.155
4.48 97.651 75.087
4.49 90.245 74.817
4.50 91.187 73.896
4.51 93.940 72.930
4.52 98.496 72.681
4.53 101.888 72.942
4.54 104.034 73.312
4.55 105.756 73.780
4.56 106.022 74.294
4.57 107.114 74.703
4.58 107.988 75.047
4.59 108.422 75.380
4.60 108.016 75.525
4.61 107.992 75.432
4.62 108.628 75.337
4.63 110.558 75.220
4.64 110.113 74.616
4.65 104.110 73.049
4.66 97.741 70.488
4.67 90.242 66.929
4.68 --undefined-- 62.269
4.69 --undefined-- 63.007
4.70 --undefined-- 70.372
4.71 --undefined-- 75.139
4.72 --undefined-- 76.797
4.73 129.885 76.219
4.74 128.461 75.006
4.75 127.599 74.292
4.76 128.410 74.177
4.77 130.446 74.253
4.78 130.959 74.312
4.79 129.794 74.279
4.80 129.196 74.248
4.81 129.894 74.350
4.82 129.536 74.562
4.83 128.013 74.864
4.84 126.980 75.275
4.85 128.188 75.563
4.86 128.221 75.384
4.87 128.023 74.596
4.88 123.784 72.651
4.89 119.185 68.820
4.90 122.127 63.546
4.91 124.570 58.567
4.92 125.492 55.646
4.93 126.597 53.924
4.94 126.706 52.368
4.95 126.466 50.575
4.96 --undefined-- 49.761
4.97 --undefined-- 57.904
4.98 --undefined-- 65.678
4.99 --undefined-- 69.984
5.00 --undefined-- 72.871
5.01 149.396 74.921
5.02 148.457 75.142
5.03 134.193 74.306
5.04 132.106 74.160
5.05 136.984 75.018
5.06 140.242 75.977
5.07 139.923 76.202
5.08 138.017 75.844
5.09 136.670 75.504
5.10 136.780 75.380
5.11 137.535 75.254
5.12 137.678 --undefined--
5.13 136.145 --undefined--
5.14 --undefined-- --undefined--
5.15 --undefined-- --undefined--
