Time Pitch Intensity
0.01 --undefined-- --undefined--
0.02 --undefined-- --undefined--
0.03 --undefined-- --undefined--
0.04 --undefined-- --undefined--
0.05 186.588 61.471
0.06 175.239 65.382
0.07 172.586 67.652
0.08 170.694 68.133
0.09 169.916 66.931
0.10 168.093 64.142
0.11 164.891 59.912
0.12 162.996 54.463
0.13 --undefined-- 48.890
0.14 --undefined-- 47.204
0.15 --undefined-- 48.836
0.16 --undefined-- 49.169
0.17 --undefined-- 47.847
0.18 --undefined-- 47.013
0.19 --undefined-- 47.318
0.20 --undefined-- 47.776
0.21 --undefined-- 47.600
0.22 --undefined-- 50.200
0.23 --undefined-- 57.285
0.24 192.724 62.250
0.25 174.393 65.269
0.26 171.291 67.177
0.27 167.838 67.785
0.28 168.704 67.224
0.29 169.892 66.328
0.30 169.745 65.680
0.31 169.963 65.382
0.32 170.531 65.499
0.33 170.342 65.639
0.34 173.176 65.143
0.35 177.957 64.532
0.36 174.541 64.748
0.37 170.729 65.222
0.38 169.157 65.164
0.39 166.381 64.683
0.40 162.292 64.264
0.41 159.327 63.602
0.42 156.005 62.424
0.43 153.937 60.744
0.44 150.801 57.992
0.45 146.979 53.833
0.46 --undefined-- 48.760
0.47 --undefined-- 43.827
0.48 --undefined-- 46.025
0.49 --undefined-- 52.833
0.50 --undefined-- 56.630
0.51 --undefined-- 57.279
0.52 --undefined-- 56.531
0.53 215.922 57.436
0.54 193.976 61.172
0.55 179.989 65.108
0.56 171.718 68.016
0.57 163.268 69.824
0.58 157.515 70.445
0.59 155.310 70.191
0.60 158.228 69.894
0.61 162.244 69.125
0.62 172.539 67.836
0.63 179.330 67.617
0.64 187.791 68.305
0.65 193.960 68.646
0.66 194.402 68.171
0.67 194.982 66.831
0.68 195.666 64.881
0.69 194.654 62.696
0.70 190.016 60.177
0.71 --undefined-- 57.124
0.72 --undefined-- 52.478
0.73 --undefined-- 44.470
0.74 --undefined-- 32.732
0.75 --undefined-- 26.350
0.76 --undefined-- 26.932
0.77 --undefined-- 35.036
0.78 --undefined-- 44.930
0.79 --undefined-- 52.406
0.80 --undefined-- 57.911
0.81 --undefined-- 61.005
0.82 --undefined-- 61.386
0.83 --undefined-- 59.694
0.84 --undefined-- 57.510
0.85 --undefined-- 56.951
0.86 --undefined-- 57.506
0.87 --undefined-- 57.856
0.88 --undefined-- 58.114
0.89 --undefined-- 59.177
0.90 --undefined-- 60.286
0.91 --undefined-- 60.617
0.92 --undefined-- 60.136
0.93 --undefined-- 58.815
0.94 181.433 57.418
0.95 180.565 56.120
0.96 178.953 54.754
0.97 --undefined-- 53.767
0.98 --undefined-- 53.392
0.99 --undefined-- 53.203
1.00 --undefined-- 51.745
1.01 --undefined-- 48.815
1.02 --undefined-- 45.087
1.03 --undefined-- 40.534
1.04 --undefined-- 35.080
1.05 --undefined-- 30.902
1.06 --undefined-- 28.981
1.07 --undefined-- 27.712
1.08 --undefined-- 27.086
1.09 --undefined-- 26.985
1.10 --undefined-- 26.590
1.11 --undefined-- 26.138
1.12 --undefined-- 27.073
1.13 --undefined-- 40.941
1.14 --undefined-- 55.619
1.15 188.828 64.801
1.16 183.475 69.817
1.17 182.812 71.756
1.18 186.561 71.907
1.19 189.800 71.660
1.20 192.070 71.593
1.21 195.629 71.522
1.22 199.903 71.061
1.23 202.287 69.653
1.24 202.257 66.647
1.25 203.510 61.786
1.26 --undefined-- 55.262
1.27 --undefined-- 49.799
1.28 --undefined-- 49.740
1.29 --undefined-- 52.031
1.30 --undefined-- 52.957
1.31 --undefined-- 52.515
1.32 --undefined-- 55.021
1.33 --undefined-- 57.844
1.34 --undefined-- 59.522
1.35 --undefined-- 65.329
1.36 --undefined-- 70.655
1.37 152.410 72.706
1.38 299.710 71.693
1.39 295.907 68.088
1.40 292.347 62.519
1.41 --undefined-- 55.802
1.42 --undefined-- 48.638
1.43 --undefined-- 41.443
1.44 --undefined-- 41.548
1.45 --undefined-- 50.041
1.46 --undefined-- 54.487
1.47 --undefined-- 54.393
1.48 --undefined-- 49.809
1.49 --undefined-- 40.759
1.50 --undefined-- 30.597
1.51 --undefined-- 27.415
1.52 --undefined-- 29.166
1.53 --undefined-- 36.656
1.54 --undefined-- 41.929
1.55 --undefined-- 44.264
1.56 --undefined-- 49.910
1.57 --undefined-- 56.685
1.58 --undefined-- 62.953
1.59 --undefined-- 69.115
1.60 216.014 73.031
1.61 214.582 74.164
1.62 211.862 72.836
1.63 --undefined-- 69.965
1.64 155.922 67.764
1.65 139.593 67.724
1.66 141.202 67.864
1.67 142.371 66.797
1.68 143.683 63.707
1.69 145.740 57.931
1.70 --undefined-- 49.161
1.71 --undefined-- 39.016
1.72 --undefined-- 33.962
1.73 --undefined-- 31.302
1.74 --undefined-- 28.527
1.75 --undefined-- 26.310
1.76 --undefined-- 27.720
1.77 --undefined-- 41.144
1.78 --undefined-- 50.408
1.79 --undefined-- 54.993
1.80 --undefined-- 58.084
1.81 --undefined-- 63.742
1.82 184.428 68.518
1.83 182.982 70.795
1.84 182.647 71.029
1.85 180.831 69.901
1.86 176.653 67.610
1.87 171.624 65.202
1.88 169.873 64.400
1.89 168.941 63.982
1.90 167.683 63.463
1.91 167.005 63.416
1.92 166.841 63.892
1.93 168.287 65.796
1.94 167.956 68.582
1.95 166.763 70.102
1.96 165.050 69.978
1.97 163.371 68.558
1.98 159.747 66.129
1.99 157.437 62.939
2.00 157.329 59.491
2.01 159.865 58.748
2.02 163.434 59.646
2.03 163.367 59.913
2.04 162.632 60.052
2.05 164.007 60.468
2.06 165.334 61.052
2.07 165.633 61.195
2.08 163.856 60.272
2.09 162.626 57.796
2.10 --undefined-- 53.518
2.11 --undefined-- 51.373
2.12 --undefined-- 54.596
2.13 --undefined-- 56.112
2.14 --undefined-- 57.974
2.15 --undefined-- 61.283
2.16 --undefined-- 63.769
2.17 --undefined-- 65.317
2.18 --undefined-- 66.761
2.19 --undefined-- 67.568
2.20 --undefined-- 67.586
2.21 --undefined-- 67.560
2.22 --undefined-- 66.989
2.23 --undefined-- 65.975
2.24 115.512 65.204
2.25 110.380 64.995
2.26 108.408 65.594
2.27 --undefined-- 66.748
2.28 --undefined-- 67.266
2.29 171.393 66.887
2.30 164.067 66.878
2.31 169.593 68.309
2.32 172.148 70.150
2.33 173.195 71.307
2.34 175.259 71.807
2.35 177.762 72.053
2.36 179.663 72.163
2.37 181.706 71.726
2.38 184.492 70.319
2.39 --undefined-- 68.446
2.40 206.175 67.266
2.41 203.599 66.509
2.42 206.151 65.825
2.43 207.782 66.100
2.44 201.690 67.502
2.45 198.222 68.855
2.46 193.426 69.517
2.47 191.165 69.848
2.48 187.285 70.227
2.49 184.587 70.347
2.50 180.145 70.007
2.51 176.419 69.798
2.52 --undefined-- 69.899
2.53 159.657 70.004
2.54 157.853 69.474
2.55 157.112 68.413
2.56 157.126 67.438
2.57 156.403 66.539
2.58 154.837 64.942
2.59 155.139 61.876
2.60 158.456 57.265
2.61 161.611 52.279
2.62 --undefined-- 47.660
2.63 --undefined-- 43.708
2.64 --undefined-- 40.233
2.65 --undefined-- 36.359
2.66 --undefined-- 31.500
2.67 --undefined-- 27.060
2.68 --undefined-- 29.547
2.69 --undefined-- 36.263
2.70 --undefined-- 41.631
2.71 --undefined-- 44.939
2.72 --undefined-- 47.825
2.73 --undefined-- 51.008
2.74 --undefined-- 52.967
2.75 --undefined-- 53.869
2.76 --undefined-- 54.692
2.77 --undefined-- 54.441
2.78 --undefined-- 52.845
2.79 --undefined-- 50.555
2.80 --undefined-- 49.327
2.81 --undefined-- 49.387
2.82 --undefined-- 50.235
2.83 --undefined-- 51.069
2.84 --undefined-- 50.452
2.85 --undefined-- 49.007
2.86 --undefined-- 49.460
2.87 --undefined-- 50.132
2.88 --undefined-- 49.010
2.89 --undefined-- 46.239
2.90 --undefined-- 44.155
2.91 --undefined-- 43.521
2.92 --undefined-- 42.021
2.93 --undefined-- 38.894
2.94 --undefined-- 34.505
2.95 --undefined-- 30.447
2.96 --undefined-- 27.870
2.97 --undefined-- 26.501
2.98 --undefined-- 26.564
2.99 --undefined-- 37.516
3.00 --undefined-- 48.001
3.01 --undefined-- 53.060
3.02 --undefined-- 54.352
3.03 --undefined-- 58.769
3.04 --undefined-- 65.209
3.05 --undefined-- 68.972
3.06 --undefined-- 69.878
3.07 --undefined-- 68.130
3.08 --undefined-- 65.308
3.09 239.454 66.177
3.10 250.843 68.464
3.11 257.379 69.440
3.12 260.343 69.548
3.13 262.956 69.518
3.14 261.762 69.589
3.15 264.369 69.987
3.16 261.599 70.587
3.17 250.516 70.906
3.18 244.831 71.034
3.19 237.719 71.309
3.20 225.432 71.335
3.21 210.191 70.677
3.22 200.167 70.020
3.23 194.460 69.662
3.24 189.137 69.207
3.25 186.316 68.903
3.26 183.432 69.108
3.27 181.068 69.230
3.28 178.945 68.693
3.29 176.918 67.963
3.30 174.750 67.777
3.31 173.622 68.016
3.32 171.719 67.920
3.33 170.327 67.146
3.34 167.096 65.903
3.35 163.988 64.582
3.36 164.708 63.208
3.37 166.599 61.715
3.38 167.332 59.395
3.39 --undefined-- 56.428
3.40 --undefined-- 54.275
3.41 --undefined-- 52.381
3.42 --undefined-- 50.522
3.43 --undefined-- 47.607
3.44 --undefined-- 45.031
3.45 --undefined-- 45.792
3.46 --undefined-- 46.615
3.47 --undefined-- 46.888
3.48 --undefined-- 44.225
3.49 --undefined-- 38.189
3.50 --undefined-- 41.719
3.51 --undefined-- 49.080
3.52 --undefined-- 54.933
3.53 --undefined-- 60.289
3.54 --undefined-- 64.619
3.55 --undefined-- 67.638
3.56 --undefined-- 69.126
3.57 175.657 69.205
3.58 177.131 68.909
3.59 176.135 68.934
3.60 172.539 69.160
3.61 169.075 69.800
3.62 167.216 70.146
3.63 167.873 69.409
3.64 156.202 68.008
3.65 --undefined-- 66.398
3.66 --undefined-- 65.595
3.67 --undefined-- 65.657
3.68 --undefined-- 65.276
3.69 --undefined-- 65.292
3.70 --undefined-- 65.598
3.71 --undefined-- 65.613
3.72 --undefined-- 65.294
3.73 --undefined-- 64.364
3.74 --undefined-- 63.355
3.75 --undefined-- 61.195
3.76 --undefined-- 57.295
3.77 --undefined-- 53.632
3.78 --undefined-- 49.568
3.79 --undefined-- 43.554
3.80 --undefined-- 37.369
3.81 --undefined-- 33.336
3.82 --undefined-- 37.513
3.83 --undefined-- 49.341
3.84 --undefined-- 56.032
3.85 --undefined-- 59.930
3.86 --undefined-- 64.901
3.87 229.263 69.418
3.88 228.295 72.124
3.89 227.624 73.402
3.90 227.880 73.431
3.91 227.197 72.493
3.92 224.314 71.298
3.93 224.616 70.584
3.94 230.503 70.437
3.95 234.130 70.532
3.96 235.482 70.468
3.97 235.646 69.508
3.98 236.651 67.009
3.99 240.345 62.976
4.00 240.879 58.338
4.01 241.220 55.297
4.02 255.535 53.104
4.03 --undefined-- 48.935
4.04 --undefined-- 43.442
4.05 --undefined-- 52.369
4.06 --undefined-- 62.026
4.07 262.334 67.294
4.08 252.057 69.378
4.09 240.949 69.930
4.10 226.607 71.128
4.11 221.754 72.669
4.12 219.905 72.949
4.13 220.161 71.795
4.14 220.580 69.775
4.15 221.531 67.572
4.16 224.933 65.122
4.17 227.109 62.155
4.18 224.879 58.353
4.19 226.742 54.977
4.20 232.608 52.461
4.21 --undefined-- 48.145
4.22 --undefined-- 41.135
4.23 --undefined-- 34.417
4.24 --undefined-- 45.440
4.25 --undefined-- 58.687
4.26 252.449 66.797
4.27 254.910 70.842
4.28 251.158 71.973
4.29 241.948 71.832
4.30 236.880 71.471
4.31 237.610 70.916
4.32 240.267 70.652
4.33 240.733 70.291
4.34 240.517 69.241
4.35 240.071 67.722
4.36 238.334 65.633
4.37 238.535 62.915
4.38 240.551 61.386
4.39 242.126 61.320
4.40 241.057 60.929
4.41 240.311 59.958
4.42 240.505 58.274
4.43 242.016 55.276
4.44 --undefined-- 51.763
4.45 --undefined-- 54.341
4.46 --undefined-- 57.617
4.47 --undefined-- 59.007
4.48 --undefined-- 62.126
4.49 213.716 65.077
4.50 185.274 66.607
4.51 170.960 67.086
4.52 164.281 66.767
4.53 160.125 65.786
4.54 157.388 64.209
4.55 156.659 62.140
4.56 157.825 59.326
4.57 158.951 55.874
4.58 --undefined-- 52.523
4.59 --undefined-- 50.003
4.60 --undefined-- 47.777
4.61 --undefined-- 46.375
4.62 --undefined-- 45.145
4.63 --undefined-- 43.637
4.64 --undefined-- 44.063
4.65 --undefined-- 45.843
4.66 --undefined-- 47.793
4.67 --undefined-- 55.097
4.68 --undefined-- 63.378
4.69 --undefined-- 68.083
4.70 --undefined-- 69.867
4.71 151.313 69.844
4.72 152.889 69.434
4.73 153.377 68.991
4.74 152.881 67.821
4.75 154.865 65.393
4.76 158.386 62.088
4.77 162.085 61.413
4.78 164.540 62.649
4.79 166.110 63.074
4.80 165.358 62.922
4.81 167.544 62.888
4.82 168.467 62.771
4.83 167.289 61.490
4.84 165.864 58.305
4.85 --undefined-- 52.963
4.86 --undefined-- 46.652
4.87 --undefined-- 40.483
4.88 --undefined-- 34.503
4.89 --undefined-- 33.243
4.90 --undefined-- 35.954
4.91 --undefined-- 42.686
4.92 --undefined-- 51.567
4.93 --undefined-- 58.954
4.94 169.249 63.947
4.95 169.527 67.111
4.96 169.747 68.771
4.97 169.550 69.512
4.98 170.807 69.908
4.99 172.640 69.586
5.00 173.910 68.042
5.01 175.568 65.349
5.02 172.120 61.472
5.03 --undefined-- 56.754
5.04 --undefined-- 54.598
5.05 --undefined-- 55.161
5.06 --undefined-- 56.511
5.07 --undefined-- 56.484
5.08 --undefined-- 54.252
5.09 --undefined-- 51.601
5.10 --undefined-- 50.869
5.11 --undefined-- 52.345
5.12 91.122 55.555
5.13 90.277 58.923
5.14 90.964 62.483
5.15 115.506 65.952
5.16 149.948 67.914
5.17 150.494 67.585
5.18 --undefined-- 65.509
5.19 --undefined-- 63.975
5.20 --undefined-- 64.873
5.21 186.298 68.016
5.22 190.214 70.961
5.23 191.488 72.270
5.24 196.939 72.225
5.25 203.723 71.920
5.26 204.455 71.614
5.27 204.862 70.931
5.28 206.231 69.359
5.29 207.612 66.532
5.30 202.365 62.809
5.31 196.804 58.771
5.32 180.232 55.530
5.33 178.818 55.627
5.34 177.857 60.647
5.35 178.045 66.452
5.36 178.357 70.209
5.37 177.001 71.712
5.38 172.439 71.921
5.39 169.023 72.041
5.40 161.681 71.669
5.41 156.534 69.882
5.42 150.859 66.336
5.43 147.528 61.352
5.44 147.083 57.957
5.45 145.812 58.395
5.46 147.414 61.043
5.47 148.720 64.020
5.48 148.462 66.636
5.49 147.916 68.539
5.50 149.496 69.548
5.51 150.474 69.844
5.52 150.245 69.591
5.53 152.007 68.743
5.54 154.095 67.343
5.55 153.625 65.277
5.56 151.252 62.360
5.57 159.108 60.774
5.58 162.989 60.928
5.59 167.660 60.668
5.60 173.076 --undefined--
5.61 178.037 --undefined--
5.62 --undefined-- --undefined--
5.63 --undefined-- --undefined--
