Time Pitch Intensity
0.01 --undefined-- --undefined--
0.02 178.661 --undefined--
0.03 178.160 --undefined--
0.04 183.671 --undefined--
0.05 188.172 52.930
0.06 --undefined-- 47.098
0.07 --undefined-- 41.182
0.08 --undefined-- 38.240
0.09 --undefined-- 38.313
0.10 --undefined-- 44.286
0.11 --undefined-- 57.709
0.12 --undefined-- 67.329
0.13 --undefined-- 73.114
0.14 155.903 75.945
0.15 145.604 76.867
0.16 141.121 76.557
0.17 138.327 75.665
0.18 136.887 75.046
0.19 135.890 74.741
0.20 134.659 74.451
0.21 132.883 73.818
0.22 130.468 72.150
0.23 135.115 69.636
0.24 135.479 69.804
0.25 123.290 71.820
0.26 128.852 72.829
0.27 129.147 73.042
0.28 130.335 72.845
0.29 135.463 72.442
0.30 135.522 72.270
0.31 135.524 72.107
0.32 135.156 71.329
0.33 132.459 69.664
0.34 126.509 66.872
0.35 124.878 62.316
0.36 --undefined-- 55.450
0.37 --undefined-- 48.281
0.38 --undefined-- 45.894
0.39 --undefined-- 46.659
0.40 --undefined-- 48.946
0.41 --undefined-- 54.929
0.42 --undefined-- 63.504
0.43 175.242 69.219
0.44 163.171 72.227
0.45 161.183 73.435
0.46 159.813 73.699
0.47 158.708 73.013
0.48 157.240 70.547
0.49 145.896 65.851
0.50 153.032 60.231
0.51 158.723 54.936
0.52 --undefined-- 48.500
0.53 --undefined-- 42.931
0.54 --undefined-- 46.229
0.55 --undefined-- 55.852
0.56 --undefined-- 63.312
0.57 133.842 67.730
0.58 125.194 69.661
0.59 120.680 70.086
0.60 118.192 70.284
0.61 116.460 70.875
0.62 115.282 71.513
0.63 115.173 71.990
0.64 115.874 72.353
0.65 117.551 72.394
0.66 120.458 71.876
0.67 125.307 71.202
0.68 131.116 71.194
0.69 133.075 71.193
0.70 133.250 70.340
0.71 146.815 69.730
0.72 154.645 70.018
0.73 162.535 70.241
0.74 166.828 69.919
0.75 166.205 68.911
0.76 162.503 67.128
0.77 162.587 64.546
0.78 --undefined-- 61.061
0.79 --undefined-- 56.144
0.80 --undefined-- 49.300
0.81 --undefined-- 42.687
0.82 --undefined-- 39.570
0.83 --undefined-- 39.047
0.84 --undefined-- 39.962
0.85 --undefined-- 40.402
0.86 --undefined-- 38.790
0.87 --undefined-- 36.736
0.88 --undefined-- 36.210
0.89 --undefined-- 37.279
0.90 --undefined-- 38.583
0.91 --undefined-- 46.821
0.92 --undefined-- 57.073
0.93 164.999 63.268
0.94 149.292 66.877
0.95 142.458 69.479
0.96 141.604 71.667
0.97 140.642 73.321
0.98 140.444 74.514
0.99 141.114 74.976
1.00 140.294 73.852
1.01 137.883 70.464
1.02 --undefined-- 64.874
1.03 --undefined-- 59.863
1.04 --undefined-- 58.879
1.05 --undefined-- 59.126
1.06 --undefined-- 58.224
1.07 --undefined-- 56.154
1.08 --undefined-- 52.768
1.09 --undefined-- 49.927
1.10 --undefined-- 48.067
1.11 --undefined-- 46.175
1.12 --undefined-- 44.637
1.13 --undefined-- 43.800
1.14 --undefined-- 43.497
1.15 --undefined-- 42.805
1.16 --undefined-- 42.599
1.17 --undefined-- 43.507
1.18 --undefined-- 46.964
1.19 --undefined-- 56.176
1.20 170.459 63.307
1.21 147.875 67.491
1.22 141.568 69.724
1.23 140.602 70.887
1.24 138.719 71.438
1.25 136.720 71.543
1.26 135.487 71.587
1.27 135.528 71.891
1.28 136.115 72.431
1.29 136.993 72.902
1.30 138.553 72.941
1.31 138.751 72.346
1.32 136.707 71.050
1.33 133.514 69.205
1.34 131.037 67.165
1.35 129.737 65.587
1.36 129.988 65.662
1.37 133.281 68.300
1.38 138.271 71.572
1.39 139.157 73.544
1.40 134.503 73.711
1.41 128.667 72.655
1.42 126.864 71.327
1.43 122.931 69.526
1.44 113.266 66.484
1.45 --undefined-- 61.845
1.46 --undefined-- 55.867
1.47 --undefined-- 49.573
1.48 --undefined-- 44.273
1.49 --undefined-- 41.099
1.50 --undefined-- 39.341
1.51 --undefined-- 39.033
1.52 --undefined-- 39.592
1.53 --undefined-- 40.924
1.54 --undefined-- 43.180
1.55 --undefined-- 45.405
1.56 --undefined-- 47.737
1.57 --undefined-- 49.390
1.58 --undefined-- 51.430
1.59 --undefined-- 57.687
1.60 148.110 64.151
1.61 140.960 68.121
1.62 134.405 70.100
1.63 131.681 70.783
1.64 129.704 70.741
1.65 128.028 70.594
1.66 127.097 70.588
1.67 127.471 70.600
1.68 128.146 70.528
1.69 128.748 70.342
1.70 128.781 70.020
1.71 128.157 69.343
1.72 123.188 67.824
1.73 121.595 64.882
1.74 113.351 60.130
1.75 --undefined-- 53.908
1.76 --undefined-- 48.837
1.77 --undefined-- 46.140
1.78 --undefined-- 44.067
1.79 --undefined-- 43.030
1.80 --undefined-- 43.532
1.81 --undefined-- 47.138
1.82 --undefined-- 53.361
1.83 --undefined-- 61.751
1.84 163.426 68.049
1.85 151.826 71.447
1.86 141.458 72.808
1.87 138.442 73.379
1.88 136.923 73.670
1.89 135.661 73.637
1.90 135.530 73.367
1.91 135.671 72.990
1.92 135.419 72.601
1.93 135.563 72.173
1.94 135.418 71.485
1.95 134.317 70.456
1.96 132.755 69.601
1.97 136.974 69.356
1.98 139.870 69.358
1.99 141.271 69.162
2.00 141.998 68.641
2.01 141.601 67.686
2.02 139.591 66.048
2.03 134.549 63.271
2.04 --undefined-- 58.965
2.05 --undefined-- 53.288
2.06 --undefined-- 46.938
2.07 --undefined-- 41.759
2.08 --undefined-- 37.723
2.09 --undefined-- 35.334
2.10 --undefined-- 36.618
2.11 --undefined-- 37.025
2.12 --undefined-- 36.185
2.13 --undefined-- 36.064
2.14 --undefined-- 37.789
2.15 --undefined-- 41.664
2.16 --undefined-- 53.848
2.17 --undefined-- 63.589
2.18 189.291 69.406
2.19 177.724 72.717
2.20 176.206 74.878
2.21 173.648 76.078
2.22 172.939 76.069
2.23 172.628 74.928
2.24 172.459 73.265
2.25 173.196 72.574
2.26 169.760 72.573
2.27 164.137 72.486
2.28 158.293 72.544
2.29 155.601 73.335
2.30 147.419 75.227
2.31 142.820 76.954
2.32 139.862 77.122
2.33 132.183 75.857
2.34 128.404 74.625
2.35 126.690 73.855
2.36 125.914 73.003
2.37 124.844 72.238
2.38 123.788 71.595
2.39 122.925 70.967
2.40 122.192 70.377
2.41 120.781 69.910
2.42 122.586 69.752
2.43 123.886 69.750
2.44 125.301 69.656
2.45 125.978 69.454
2.46 126.178 69.203
2.47 126.546 68.870
2.48 124.585 68.259
2.49 121.898 67.663
2.50 124.466 68.419
2.51 124.991 69.589
2.52 124.755 69.914
2.53 122.099 69.724
2.54 120.345 69.525
2.55 119.033 69.253
2.56 117.257 68.312
2.57 115.114 65.777
2.58 --undefined-- 60.717
2.59 --undefined-- 52.923
2.60 --undefined-- 46.961
2.61 --undefined-- 45.483
2.62 --undefined-- 45.359
2.63 --undefined-- 47.444
2.64 --undefined-- 51.783
2.65 --undefined-- 55.847
2.66 --undefined-- 58.864
2.67 --undefined-- 60.411
2.68 --undefined-- 60.587
2.69 --undefined-- 60.674
2.70 167.510 64.941
2.71 166.567 70.392
2.72 170.371 73.515
2.73 170.220 74.582
2.74 160.176 74.532
2.75 156.066 74.593
2.76 154.368 74.899
2.77 154.225 74.770
2.78 154.869 74.544
2.79 156.292 74.827
2.80 157.186 75.266
2.81 156.648 74.882
2.82 151.226 72.885
2.83 146.182 68.816
2.84 --undefined-- 62.491
2.85 --undefined-- 54.612
2.86 --undefined-- 48.689
2.87 --undefined-- 46.527
2.88 --undefined-- 46.875
2.89 --undefined-- 53.470
2.90 --undefined-- 63.182
2.91 155.295 69.441
2.92 145.762 72.615
2.93 138.523 73.465
2.94 129.934 73.045
2.95 126.505 72.632
2.96 124.088 72.555
2.97 123.555 72.681
2.98 124.019 72.883
2.99 123.662 73.049
3.00 122.717 73.158
3.01 122.916 73.161
3.02 123.558 72.888
3.03 124.155 72.153
3.04 124.480 71.114
3.05 124.890 70.129
3.06 124.842 69.115
3.07 124.769 68.061
3.08 127.757 67.167
3.09 126.940 66.166
3.10 125.194 64.916
3.11 122.317 63.360
3.12 131.722 61.163
3.13 --undefined-- 57.948
3.14 --undefined-- 53.652
3.15 --undefined-- 48.378
3.16 --undefined-- 44.627
3.17 --undefined-- 42.609
3.18 --undefined-- 40.472
3.19 --undefined-- 38.473
3.20 --undefined-- 37.073
3.21 --undefined-- 39.655
3.22 --undefined-- 41.319
3.23 --undefined-- 39.751
3.24 --undefined-- 38.028
3.25 --undefined-- 39.526
3.26 --undefined-- 40.577
3.27 --undefined-- 39.872
3.28 --undefined-- 38.390
3.29 --undefined-- 41.416
3.30 --undefined-- 46.147
3.31 --undefined-- 48.695
3.32 --undefined-- 51.668
3.33 --undefined-- 53.494
3.34 --undefined-- 51.984
3.35 --undefined-- 48.041
3.36 --undefined-- 45.870
3.37 --undefined-- 47.889
3.38 --undefined-- 56.122
3.39 --undefined-- 65.535
3.40 194.957 71.868
3.41 182.156 75.435
3.42 173.903 77.039
3.43 171.069 77.307
3.44 166.411 76.478
3.45 160.680 74.698
3.46 153.782 71.864
3.47 138.320 67.269
3.48 --undefined-- 60.269
3.49 --undefined-- 52.128
3.50 --undefined-- 49.146
3.51 --undefined-- 49.583
3.52 --undefined-- 56.081
3.53 217.229 65.778
3.54 210.309 71.966
3.55 200.977 74.802
3.56 193.965 74.964
3.57 190.476 73.341
3.58 187.563 71.479
3.59 186.817 70.602
3.60 187.673 70.204
3.61 189.434 69.730
3.62 192.390 69.298
3.63 195.461 69.512
3.64 198.438 70.792
3.65 208.273 72.587
3.66 211.210 73.949
3.67 207.877 74.441
3.68 203.336 74.540
3.69 199.905 74.909
3.70 193.258 75.001
3.71 184.780 73.997
3.72 --undefined-- 72.134
3.73 --undefined-- 70.117
3.74 77.420 68.556
3.75 75.011 67.324
3.76 --undefined-- 65.616
3.77 139.076 64.769
3.78 136.005 66.427
3.79 130.803 69.181
3.80 130.619 71.804
3.81 130.231 73.423
3.82 127.319 73.897
3.83 124.853 73.865
3.84 123.178 73.804
3.85 122.770 73.559
3.86 123.905 73.166
3.87 124.222 72.830
3.88 125.565 72.555
3.89 126.335 72.606
3.90 129.024 73.104
3.91 128.659 73.600
3.92 137.273 73.915
3.93 138.447 74.089
3.94 150.070 73.892
3.95 155.521 73.892
3.96 159.638 74.217
3.97 166.031 74.140
3.98 172.303 73.094
3.99 177.580 71.308
4.00 172.106 69.271
4.01 81.896 66.185
4.02 85.261 61.227
4.03 --undefined-- 55.557
4.04 --undefined-- 50.407
4.05 --undefined-- 45.094
4.06 --undefined-- 43.313
4.07 --undefined-- 44.334
4.08 --undefined-- 46.868
4.09 --undefined-- 47.873
4.10 --undefined-- 46.283
4.11 --undefined-- 43.048
4.12 --undefined-- 39.810
4.13 --undefined-- 38.498
4.14 --undefined-- 39.749
4.15 --undefined-- 42.155
4.16 --undefined-- 45.214
4.17 --undefined-- 49.241
4.18 --undefined-- 58.330
4.19 --undefined-- 67.434
4.20 225.371 72.858
4.21 211.517 74.941
4.22 201.083 74.786
4.23 198.421 74.238
4.24 195.385 74.451
4.25 193.947 75.305
4.26 191.809 75.844
4.27 190.601 75.078
4.28 197.425 72.803
4.29 200.097 70.188
4.30 198.555 68.766
4.31 204.694 68.312
4.32 212.162 68.514
4.33 202.649 68.517
4.34 199.175 67.356
4.35 176.248 64.870
4.36 171.154 61.671
4.37 176.951 56.995
4.38 --undefined-- 50.153
4.39 --undefined-- 47.956
4.40 --undefined-- 51.851
4.41 --undefined-- 60.236
4.42 229.925 68.162
4.43 215.262 73.228
4.44 198.335 75.863
4.45 189.984 76.944
4.46 185.870 77.150
4.47 183.748 76.915
4.48 182.532 76.349
4.49 182.677 75.741
4.50 187.351 75.163
4.51 194.449 75.230
4.52 192.518 75.966
4.53 189.636 76.247
4.54 187.165 75.561
4.55 186.293 74.043
4.56 183.561 72.266
4.57 179.806 70.975
4.58 176.257 70.130
4.59 172.116 69.485
4.60 167.193 69.425
4.61 161.484 70.893
4.62 162.419 72.944
4.63 155.286 74.547
4.64 152.664 75.731
4.65 139.719 76.030
4.66 132.913 75.774
4.67 128.673 75.352
4.68 125.432 74.275
4.69 120.917 72.570
4.70 119.009 71.197
4.71 117.862 70.671
4.72 119.865 70.250
4.73 120.485 69.539
4.74 119.014 68.611
4.75 117.398 67.054
4.76 112.557 63.992
4.77 95.090 59.107
4.78 --undefined-- 53.728
4.79 --undefined-- 51.885
4.80 --undefined-- 54.919
4.81 --undefined-- 57.352
4.82 --undefined-- 63.445
4.83 --undefined-- 69.667
4.84 149.888 73.180
4.85 142.483 74.624
4.86 135.957 75.057
4.87 135.737 75.560
4.88 134.586 75.770
4.89 133.500 75.364
4.90 131.661 74.786
4.91 130.768 74.395
4.92 130.593 74.122
4.93 130.653 73.894
4.94 130.525 73.455
4.95 130.308 72.036
4.96 132.028 69.649
4.97 130.575 67.690
4.98 124.678 66.276
4.99 121.364 65.191
5.00 121.021 65.632
5.01 124.011 67.830
5.02 120.438 69.570
5.03 118.116 70.233
5.04 117.451 70.261
5.05 115.899 69.802
5.06 114.587 68.357
5.07 111.901 65.208
5.08 --undefined-- 59.841
5.09 --undefined-- 53.007
5.10 --undefined-- 47.153
5.11 --undefined-- 44.050
5.12 --undefined-- 43.631
5.13 --undefined-- 45.758
5.14 --undefined-- 49.348
5.15 --undefined-- 52.981
5.16 --undefined-- 56.144
5.17 --undefined-- 58.893
5.18 --undefined-- 60.393
5.19 --undefined-- 59.517
5.20 --undefined-- 57.201
5.21 --undefined-- 59.415
5.22 169.093 65.776
5.23 170.079 70.222
5.24 165.325 72.157
5.25 161.740 72.415
5.26 158.905 72.255
5.27 156.421 72.529
5.28 154.828 72.967
5.29 153.623 73.219
5.30 152.149 73.359
5.31 150.988 73.129
5.32 149.450 71.542
5.33 142.796 67.719
5.34 138.319 61.901
5.35 144.654 55.456
5.36 --undefined-- 48.873
5.37 --undefined-- 42.774
5.38 --undefined-- 40.800
5.39 --undefined-- 44.576
5.40 --undefined-- 55.464
5.41 --undefined-- 62.852
5.42 --undefined-- 66.524
5.43 120.930 --undefined--
5.44 111.868 --undefined--
5.45 --undefined-- --undefined--
5.46 --undefined-- --undefined--
