Time Pitch Intensity
0.01 --undefined-- --undefined--
0.02 198.048 --undefined--
0.03 193.202 --undefined--
0.04 188.628 --undefined--
0.05 184.167 71.602
0.06 181.651 73.842
0.07 175.107 74.899
0.08 170.162 74.838
0.09 167.545 74.102
0.10 166.315 72.497
0.11 163.511 69.239
0.12 163.292 64.290
0.13 162.596 61.099
0.14 161.962 64.036
0.15 163.056 69.373
0.16 160.657 72.981
0.17 157.879 74.658
0.18 155.514 75.140
0.19 153.292 75.071
0.20 151.703 74.681
0.21 151.327 73.882
0.22 150.858 72.306
0.23 149.371 69.300
0.24 146.985 64.086
0.25 --undefined-- 56.712
0.26 --undefined-- 49.352
0.27 --undefined-- 49.266
0.28 --undefined-- 55.587
0.29 --undefined-- 59.057
0.30 --undefined-- 59.824
0.31 --undefined-- 59.952
0.32 --undefined-- 61.472
0.33 --undefined-- 62.848
0.34 --undefined-- 63.899
0.35 --undefined-- 65.166
0.36 --undefined-- 68.938
0.37 --undefined-- 73.307
0.38 133.092 75.511
0.39 132.897 75.223
0.40 134.314 73.130
0.41 133.566 70.535
0.42 131.904 68.818
0.43 132.020 67.796
0.44 134.045 66.777
0.45 --undefined-- 65.364
0.46 --undefined-- 63.468
0.47 --undefined-- 62.159
0.48 --undefined-- 61.921
0.49 --undefined-- 61.359
0.50 --undefined-- 60.968
0.51 232.429 62.906
0.52 250.066 66.860
0.53 248.782 70.537
0.54 265.933 72.889
0.55 --undefined-- 73.979
0.56 120.933 74.029
0.57 117.491 73.040
0.58 115.546 71.389
0.59 118.557 69.644
0.60 121.034 68.099
0.61 120.576 66.832
0.62 120.790 65.091
0.63 131.566 62.784
0.64 136.024 60.451
0.65 150.979 57.984
0.66 153.549 55.818
0.67 --undefined-- 54.119
0.68 --undefined-- 52.988
0.69 --undefined-- 53.813
0.70 --undefined-- 56.415
0.71 --undefined-- 60.027
0.72 161.395 65.170
0.73 160.013 69.889
0.74 153.158 72.662
0.75 152.516 73.651
0.76 153.602 74.064
0.77 153.176 74.805
0.78 153.963 75.276
0.79 156.345 75.039
0.80 159.125 74.572
0.81 163.939 74.564
0.82 171.966 75.376
0.83 181.819 76.273
0.84 186.109 75.812
0.85 --undefined-- 73.693
0.86 220.348 70.484
0.87 217.733 65.967
0.88 --undefined-- 60.787
0.89 --undefined-- 58.075
0.90 --undefined-- 57.882
0.91 --undefined-- 58.243
0.92 --undefined-- 58.408
0.93 --undefined-- 58.072
0.94 --undefined-- 57.974
0.95 --undefined-- 58.490
0.96 --undefined-- 59.324
0.97 --undefined-- 65.444
0.98 --undefined-- 72.053
0.99 --undefined-- 75.142
1.00 223.579 75.405
1.01 220.826 74.608
1.02 220.395 74.211
1.03 221.252 74.062
1.04 222.237 74.054
1.05 223.611 74.361
1.06 224.048 74.799
1.07 224.177 74.967
1.08 224.704 74.619
1.09 225.223 73.701
1.10 224.965 72.514
1.11 225.988 71.846
1.12 227.022 71.938
1.13 227.212 72.222
1.14 226.483 72.489
1.15 224.293 72.783
1.16 221.730 73.126
1.17 218.600 73.490
1.18 215.972 73.725
1.19 211.922 73.443
1.20 204.482 73.217
1.21 197.509 74.337
1.22 191.669 75.963
1.23 185.523 77.197
1.24 180.327 77.663
1.25 171.944 77.652
1.26 166.134 78.260
1.27 162.821 78.849
1.28 157.308 78.411
1.29 151.124 77.354
1.30 146.725 76.666
1.31 143.808 76.435
1.32 140.382 76.202
1.33 137.507 75.990
1.34 135.667 76.091
1.35 133.618 76.387
1.36 132.577 76.432
1.37 131.306 76.173
1.38 129.680 75.761
1.39 127.872 75.126
1.40 126.810 74.116
1.41 125.537 72.444
1.42 122.242 69.498
1.43 --undefined-- 64.470
1.44 --undefined-- 56.562
1.45 --undefined-- 46.447
1.46 --undefined-- 45.383
1.47 --undefined-- 50.765
1.48 --undefined-- 53.762
1.49 --undefined-- 54.252
1.50 --undefined-- 53.851
1.51 --undefined-- 53.543
1.52 --undefined-- 53.618
1.53 --undefined-- 53.977
1.54 --undefined-- 53.768
1.55 --undefined-- 53.488
1.56 --undefined-- 53.136
1.57 --undefined-- 52.934
1.58 --undefined-- 53.282
1.59 --undefined-- 53.457
1.60 --undefined-- 53.146
1.61 --undefined-- 52.929
1.62 --undefined-- 52.933
1.63 --undefined-- 52.453
1.64 --undefined-- 51.791
1.65 --undefined-- 51.845
1.66 --undefined-- 52.355
1.67 --undefined-- 52.628
1.68 --undefined-- 52.039
1.69 --undefined-- 50.965
1.70 --undefined-- 50.514
1.71 --undefined-- 50.687
1.72 --undefined-- 50.366
1.73 --undefined-- 49.881
1.74 --undefined-- 49.157
1.75 --undefined-- 48.019
1.76 --undefined-- 47.426
1.77 --undefined-- 46.991
1.78 --undefined-- 46.753
1.79 --undefined-- 46.161
1.80 --undefined-- 45.620
1.81 --undefined-- 45.841
1.82 --undefined-- 45.558
1.83 --undefined-- 44.498
1.84 --undefined-- 43.616
1.85 --undefined-- 43.023
1.86 --undefined-- 42.458
1.87 --undefined-- 41.753
1.88 --undefined-- 40.764
1.89 --undefined-- 39.149
1.90 --undefined-- 37.338
1.91 --undefined-- 36.516
1.92 --undefined-- 38.902
1.93 --undefined-- 44.405
1.94 --undefined-- 47.416
1.95 --undefined-- 46.738
1.96 --undefined-- 48.946
1.97 --undefined-- 60.058
1.98 --undefined-- 67.669
1.99 --undefined-- 72.225
2.00 140.695 74.464
2.01 140.257 75.170
2.02 141.293 75.158
2.03 156.677 75.120
2.04 161.580 74.858
2.05 159.882 74.295
2.06 158.411 74.783
2.07 155.619 75.919
2.08 154.420 76.307
2.09 154.392 75.675
2.10 156.618 74.266
2.11 150.669 72.271
2.12 154.732 69.715
2.13 151.484 65.987
2.14 145.192 60.242
2.15 --undefined-- 53.471
2.16 --undefined-- 49.493
2.17 --undefined-- 48.266
2.18 --undefined-- 48.205
2.19 --undefined-- 48.866
2.20 --undefined-- 50.187
2.21 --undefined-- 52.239
2.22 --undefined-- 54.772
2.23 --undefined-- 57.377
2.24 --undefined-- 60.048
2.25 --undefined-- 62.011
2.26 --undefined-- 64.105
2.27 --undefined-- 69.208
2.28 277.936 74.207
2.29 276.630 76.544
2.30 280.813 76.653
2.31 284.806 75.636
2.32 283.479 74.235
2.33 270.853 73.547
2.34 258.544 74.922
2.35 252.886 76.619
2.36 249.192 76.827
2.37 244.430 75.832
2.38 236.899 74.992
2.39 231.295 74.115
2.40 222.932 72.153
2.41 211.706 69.081
2.42 201.024 65.422
2.43 188.904 63.423
2.44 189.235 64.700
2.45 192.610 67.199
2.46 206.860 70.191
2.47 209.334 73.526
2.48 --undefined-- 76.442
2.49 170.944 77.870
2.50 164.630 77.053
2.51 155.562 73.933
2.52 142.669 69.369
2.53 137.682 65.452
2.54 135.429 63.904
2.55 137.746 63.417
2.56 138.290 62.947
2.57 137.747 62.841
2.58 136.595 62.945
2.59 136.863 62.828
2.60 137.151 62.357
2.61 137.369 61.602
2.62 141.198 61.845
2.63 147.384 65.679
2.64 154.755 71.121
2.65 158.540 75.035
2.66 162.925 77.115
2.67 165.761 78.093
2.68 168.013 78.585
2.69 170.712 78.554
2.70 173.246 77.828
2.71 174.500 76.511
2.72 175.058 74.861
2.73 174.202 73.125
2.74 173.626 71.424
2.75 173.221 69.416
2.76 171.487 66.994
2.77 168.919 65.168
2.78 166.497 65.342
2.79 164.498 67.651
2.80 163.182 70.674
2.81 163.437 73.142
2.82 164.783 74.770
2.83 165.777 76.007
2.84 166.454 77.197
2.85 167.201 78.129
2.86 167.422 78.331
2.87 166.322 77.492
2.88 163.552 75.962
2.89 161.674 74.851
2.90 161.413 74.567
2.91 160.232 74.627
2.92 159.453 74.904
2.93 157.744 75.277
2.94 155.506 75.441
2.95 153.032 75.107
2.96 150.679 74.383
2.97 --undefined-- 73.545
2.98 --undefined-- 72.173
2.99 92.295 69.918
3.00 92.512 67.794
3.01 --undefined-- 64.794
3.02 --undefined-- 58.824
3.03 --undefined-- 55.886
3.04 --undefined-- 60.100
3.05 --undefined-- 62.477
3.06 --undefined-- 66.740
3.07 --undefined-- 70.522
3.08 --undefined-- 72.601
3.09 92.569 74.082
3.10 --undefined-- 74.943
3.11 --undefined-- 75.483
3.12 --undefined-- 75.872
3.13 181.456 75.862
3.14 184.511 75.996
3.15 185.955 76.339
3.16 186.730 76.054
3.17 186.419 75.421
3.18 186.036 75.623
3.19 187.832 75.887
3.20 186.937 75.824
3.21 186.849 75.791
3.22 185.263 75.767
3.23 183.758 75.562
3.24 182.800 75.184
3.25 182.901 74.986
3.26 182.825 74.963
3.27 182.649 74.845
3.28 181.605 74.510
3.29 180.802 74.114
3.30 180.323 73.847
3.31 180.550 73.479
3.32 181.758 73.136
3.33 183.040 73.209
3.34 184.087 73.495
3.35 183.953 73.572
3.36 184.270 73.438
3.37 184.059 73.204
3.38 183.406 72.729
3.39 182.988 71.818
3.40 182.293 70.468
3.41 181.344 68.886
3.42 181.161 67.149
3.43 179.900 65.220
3.44 178.792 62.905
3.45 181.293 60.757
3.46 186.100 59.457
3.47 189.556 58.635
3.48 --undefined-- 58.328
3.49 --undefined-- 57.379
3.50 --undefined-- 55.498
3.51 --undefined-- 54.219
3.52 --undefined-- 53.720
3.53 --undefined-- 52.741
3.54 --undefined-- 51.394
3.55 --undefined-- 50.736
3.56 --undefined-- 50.258
3.57 --undefined-- 49.117
3.58 --undefined-- 47.502
3.59 --undefined-- 45.676
3.60 --undefined-- 43.170
3.61 --undefined-- 40.115
3.62 --undefined-- 38.378
3.63 --undefined-- 38.202
3.64 --undefined-- 37.770
3.65 --undefined-- 37.068
3.66 --undefined-- 37.007
3.67 --undefined-- 37.341
3.68 --undefined-- 37.047
3.69 --undefined-- 35.555
3.70 --undefined-- 33.996
3.71 --undefined-- 33.994
3.72 --undefined-- 37.022
3.73 --undefined-- 48.226
3.74 --undefined-- 56.918
3.75 --undefined-- 62.277
3.76 164.678 65.884
3.77 167.367 69.096
3.78 167.557 71.993
3.79 168.458 74.338
3.80 169.911 76.123
3.81 169.638 77.214
3.82 171.456 77.543
3.83 170.509 77.145
3.84 167.001 76.307
3.85 162.819 75.826
3.86 159.526 75.656
3.87 162.059 75.324
3.88 162.202 74.626
3.89 161.160 73.108
3.90 160.734 70.251
3.91 159.839 65.545
3.92 169.342 58.748
3.93 --undefined-- 51.514
3.94 --undefined-- 47.554
3.95 --undefined-- 55.355
3.96 --undefined-- 64.091
3.97 --undefined-- 68.455
3.98 --undefined-- 70.870
3.99 --undefined-- 75.004
4.00 246.532 78.398
4.01 244.185 79.375
4.02 242.450 78.733
4.03 240.997 77.746
4.04 239.140 76.628
4.05 237.261 74.296
4.06 238.837 70.128
4.07 236.914 66.170
4.08 230.823 64.708
4.09 224.187 63.510
4.10 218.786 61.491
4.11 211.534 59.012
4.12 208.687 56.320
4.13 202.490 53.465
4.14 198.255 51.695
4.15 --undefined-- 52.830
4.16 --undefined-- 58.967
4.17 --undefined-- 65.593
4.18 191.665 70.762
4.19 190.503 74.213
4.20 184.529 75.976
4.21 182.766 75.974
4.22 173.312 74.402
4.23 166.802 72.122
4.24 165.817 70.689
4.25 165.329 70.703
4.26 163.420 71.164
4.27 163.570 71.607
4.28 162.001 72.190
4.29 160.012 73.073
4.30 158.361 74.404
4.31 159.088 76.178
4.32 161.279 77.559
4.33 156.919 78.314
4.34 151.465 78.460
4.35 149.824 77.950
4.36 148.687 77.299
4.37 --undefined-- 76.937
4.38 --undefined-- 76.705
4.39 --undefined-- 76.017
4.40 --undefined-- 74.676
4.41 --undefined-- 72.774
4.42 --undefined-- 70.200
4.43 --undefined-- 66.711
4.44 --undefined-- 63.296
4.45 --undefined-- 61.520
4.46 --undefined-- 59.938
4.47 --undefined-- 56.501
4.48 --undefined-- 55.273
4.49 --undefined-- 56.157
4.50 --undefined-- 57.678
4.51 --undefined-- 62.916
4.52 145.109 68.839
4.53 153.661 72.617
4.54 154.868 73.716
4.55 146.667 72.768
4.56 146.524 71.563
4.57 137.170 71.989
4.58 129.648 73.106
4.59 128.664 73.189
4.60 128.099 73.337
4.61 127.825 74.651
4.62 --undefined-- 75.093
4.63 --undefined-- 74.427
4.64 --undefined-- 74.036
4.65 128.672 73.847
4.66 128.994 73.274
4.67 130.374 72.415
4.68 132.237 71.088
4.69 135.217 69.321
4.70 138.378 67.727
4.71 139.209 67.384
4.72 140.888 68.343
4.73 147.603 69.932
4.74 152.751 71.832
4.75 157.467 73.550
4.76 160.079 74.586
4.77 161.462 75.153
4.78 161.173 75.924
4.79 161.382 76.883
4.80 162.477 77.246
4.81 163.699 76.925
4.82 165.889 76.432
4.83 167.826 75.955
4.84 169.543 75.459
4.85 170.303 74.964
4.86 170.284 74.495
4.87 170.776 73.995
4.88 172.210 73.426
4.89 173.503 72.874
4.90 175.203 72.465
4.91 175.533 71.999
4.92 175.845 71.330
4.93 179.337 70.500
4.94 180.600 69.812
4.95 180.488 69.388
4.96 179.627 69.065
4.97 177.676 68.678
4.98 175.071 68.266
4.99 172.354 68.315
5.00 170.056 70.494
5.01 170.588 74.118
5.02 166.832 76.305
5.03 162.028 76.923
5.04 157.571 76.918
5.05 154.311 76.810
5.06 152.010 76.561
5.07 149.631 75.878
5.08 147.425 74.542
5.09 144.522 72.396
5.10 142.442 69.154
5.11 141.853 64.809
5.12 --undefined-- 58.674
5.13 --undefined-- 50.150
5.14 --undefined-- 41.255
5.15 --undefined-- 36.906
5.16 --undefined-- 36.913
5.17 --undefined-- 38.447
5.18 --undefined-- 38.177
5.19 --undefined-- 35.738
5.20 --undefined-- 35.312
5.21 --undefined-- 41.024
5.22 --undefined-- 52.728
5.23 --undefined-- 60.649
5.24 --undefined-- 64.331
5.25 --undefined-- 64.558
5.26 --undefined-- 67.387
5.27 --undefined-- 73.441
5.28 219.066 76.868
5.29 218.930 78.096
5.30 217.909 --undefined--
5.31 217.534 --undefined--
5.32 --undefined-- --undefined--
5.33 --undefined-- --undefined--
