Time Pitch Intensity
0.01 --undefined-- --undefined--
0.02 255.643 --undefined--
0.03 255.165 --undefined--
0.04 255.404 --undefined--
0.05 255.662 75.580
0.06 255.700 75.640
0.07 255.316 75.759
0.08 254.025 75.780
0.09 251.897 75.651
0.10 250.462 75.456
0.11 249.632 75.137
0.12 249.863 74.692
0.13 249.511 74.379
0.14 248.885 74.462
0.15 249.479 74.676
0.16 252.029 74.422
0.17 254.335 73.593
0.18 253.370 72.617
0.19 247.227 71.106
0.20 231.080 68.043
0.21 232.969 63.102
0.22 --undefined-- 56.318
0.23 --undefined-- 49.072
0.24 --undefined-- 45.746
0.25 --undefined-- 44.351
0.26 --undefined-- 45.747
0.27 --undefined-- 55.495
0.28 --undefined-- 65.383
0.29 223.394 71.341
0.30 216.967 73.989
0.31 207.581 74.318
0.32 199.414 73.914
0.33 194.254 73.823
0.34 190.112 73.958
0.35 185.631 74.184
0.36 181.802 74.446
0.37 180.624 74.633
0.38 182.994 74.431
0.39 184.533 73.310
0.40 180.416 70.889
0.41 170.540 66.805
0.42 165.236 60.515
0.43 --undefined-- 51.639
0.44 --undefined-- 44.788
0.45 --undefined-- 43.493
0.46 --undefined-- 43.696
0.47 --undefined-- 44.936
0.48 --undefined-- 46.243
0.49 --undefined-- 46.570
0.50 --undefined-- 47.206
0.51 --undefined-- 55.594
0.52 195.376 63.097
0.53 183.330 67.366
0.54 181.972 69.514
0.55 181.425 70.599
0.56 179.403 71.170
0.57 177.137 71.561
0.58 175.826 71.988
0.59 175.107 72.445
0.60 175.297 72.902
0.61 175.613 73.307
0.62 175.246 73.629
0.63 175.010 73.900
0.64 174.707 74.119
0.65 174.235 74.304
0.66 174.234 74.436
0.67 174.492 74.504
0.68 174.490 74.567
0.69 175.220 74.663
0.70 176.300 74.700
0.71 176.754 74.557
0.72 175.628 74.203
0.73 175.697 73.673
0.74 176.022 72.828
0.75 171.934 71.244
0.76 160.078 68.568
0.77 --undefined-- 64.994
0.78 --undefined-- 60.735
0.79 --undefined-- 55.135
0.80 --undefined-- 48.939
0.81 --undefined-- 45.410
0.82 --undefined-- 43.707
0.83 --undefined-- 46.543
0.84 --undefined-- 52.152
0.85 183.332 57.551
0.86 193.686 62.652
0.87 221.495 66.902
0.88 234.039 69.933
0.89 240.528 72.046
0.90 245.743 73.535
0.91 250.276 74.544
0.92 255.153 75.023
0.93 261.256 75.080
0.94 265.699 74.989
0.95 267.122 74.812
0.96 266.620 74.399
0.97 265.648 73.509
0.98 263.925 71.957
0.99 259.384 69.739
1.00 253.930 66.857
1.01 246.400 62.943
1.02 239.999 57.313
1.03 --undefined-- 50.620
1.04 --undefined-- 47.668
1.05 --undefined-- 47.075
1.06 --undefined-- 45.636
1.07 --undefined-- 45.038
1.08 --undefined-- 46.645
1.09 --undefined-- 49.564
1.10 --undefined-- 51.628
1.11 --undefined-- 57.880
1.12 293.578 65.708
1.13 276.753 70.103
1.14 264.481 71.849
1.15 263.486 72.223
1.16 263.492 72.121
1.17 263.603 71.781
1.18 260.588 70.890
1.19 250.419 69.597
1.20 255.696 69.565
1.21 253.646 70.692
1.22 247.488 71.674
1.23 236.985 72.158
1.24 226.394 72.096
1.25 209.880 71.589
1.26 193.550 70.747
1.27 180.430 69.946
1.28 170.754 69.443
1.29 159.021 69.185
1.30 151.422 69.248
1.31 147.644 69.473
1.32 144.894 69.569
1.33 139.609 69.447
1.34 137.826 69.122
1.35 134.809 68.951
1.36 133.038 69.112
1.37 132.560 69.204
1.38 132.301 69.041
1.39 131.999 68.774
1.40 132.496 68.195
1.41 132.981 66.715
1.42 132.738 63.613
1.43 131.363 58.240
1.44 --undefined-- 50.530
1.45 --undefined-- 45.921
1.46 --undefined-- 47.148
1.47 --undefined-- 46.494
1.48 --undefined-- 48.514
1.49 --undefined-- 59.850
1.50 --undefined-- 67.906
1.51 195.605 72.135
1.52 192.940 73.933
1.53 192.703 74.834
1.54 193.661 75.727
1.55 194.101 76.497
1.56 193.769 76.928
1.57 192.817 76.994
1.58 191.775 76.769
1.59 190.610 76.291
1.60 189.882 75.566
1.61 190.007 74.420
1.62 188.644 72.166
1.63 179.732 68.097
1.64 175.861 62.320
1.65 --undefined-- 55.429
1.66 --undefined-- 47.828
1.67 --undefined-- 43.773
1.68 --undefined-- 42.661
1.69 --undefined-- 41.071
1.70 --undefined-- 41.493
1.71 --undefined-- 44.831
1.72 --undefined-- 50.276
1.73 --undefined-- 56.932
1.74 --undefined-- 64.526
1.75 187.597 69.447
1.76 181.327 71.421
1.77 172.141 71.617
1.78 167.066 70.948
1.79 161.488 69.220
1.80 153.308 65.771
1.81 148.773 60.055
1.82 --undefined-- 51.681
1.83 --undefined-- 43.892
1.84 --undefined-- 44.826
1.85 --undefined-- 48.942
1.86 --undefined-- 50.517
1.87 --undefined-- 48.558
1.88 --undefined-- 44.386
1.89 --undefined-- 41.766
1.90 --undefined-- 40.812
1.91 --undefined-- 39.916
1.92 --undefined-- 44.081
1.93 --undefined-- 55.898
1.94 --undefined-- 64.994
1.95 238.804 70.297
1.96 237.355 72.814
1.97 237.363 73.708
1.98 238.292 74.033
1.99 238.907 74.470
2.00 238.865 75.530
2.01 239.057 76.862
2.02 239.986 77.628
2.03 239.263 77.946
2.04 238.936 78.243
2.05 239.989 78.489
2.06 240.897 78.516
2.07 241.306 78.329
2.08 241.601 77.888
2.09 239.948 76.849
2.10 237.426 74.508
2.11 238.539 70.090
2.12 244.319 63.246
2.13 240.975 55.715
2.14 237.753 51.940
2.15 --undefined-- 50.741
2.16 --undefined-- 52.654
2.17 --undefined-- 61.114
2.18 215.695 67.439
2.19 209.688 70.388
2.20 184.191 71.214
2.21 172.679 71.288
2.22 163.248 71.060
2.23 158.016 70.646
2.24 152.110 70.602
2.25 150.742 71.230
2.26 153.726 71.798
2.27 154.280 71.986
2.28 155.155 71.988
2.29 155.389 71.827
2.30 155.250 71.200
2.31 152.952 69.582
2.32 147.595 66.448
2.33 142.762 61.221
2.34 --undefined-- 53.387
2.35 --undefined-- 45.511
2.36 --undefined-- 43.627
2.37 --undefined-- 43.436
2.38 --undefined-- 43.604
2.39 --undefined-- 45.125
2.40 --undefined-- 52.908
2.41 165.356 60.169
2.42 159.458 64.389
2.43 156.301 66.394
2.44 157.229 67.459
2.45 161.188 68.478
2.46 167.756 69.468
2.47 174.477 70.185
2.48 181.233 70.286
2.49 184.980 69.043
2.50 183.306 65.723
2.51 181.919 59.870
2.52 --undefined-- 51.490
2.53 --undefined-- 45.736
2.54 --undefined-- 49.499
2.55 --undefined-- 53.980
2.56 --undefined-- 61.929
2.57 --undefined-- 68.152
2.58 207.337 71.076
2.59 199.402 71.893
2.60 190.930 72.035
2.61 184.741 72.114
2.62 179.679 72.243
2.63 176.118 72.408
2.64 174.014 72.542
2.65 173.070 72.697
2.66 173.058 72.934
2.67 173.100 73.144
2.68 173.651 73.232
2.69 173.897 73.213
2.70 174.061 73.161
2.71 173.577 73.059
2.72 172.426 72.797
2.73 172.232 72.319
2.74 170.847 71.657
2.75 168.440 70.616
2.76 164.530 68.851
2.77 158.751 65.912
2.78 156.369 61.234
2.79 156.856 54.998
2.80 --undefined-- 49.882
2.81 --undefined-- 48.186
2.82 --undefined-- 47.569
2.83 --undefined-- 47.368
2.84 --undefined-- 47.654
2.85 --undefined-- 47.682
2.86 --undefined-- 50.790
2.87 --undefined-- 60.799
2.88 262.525 67.975
2.89 255.157 72.220
2.90 249.354 74.836
2.91 251.767 76.662
2.92 253.306 77.759
2.93 252.970 78.230
2.94 252.841 78.414
2.95 252.215 78.534
2.96 251.273 78.617
2.97 250.343 78.686
2.98 248.927 78.751
2.99 247.266 78.687
3.00 245.326 78.287
3.01 242.407 77.258
3.02 238.320 75.129
3.03 236.244 71.254
3.04 240.885 65.043
3.05 242.730 56.938
3.06 245.731 52.033
3.07 --undefined-- 51.186
3.08 --undefined-- 53.309
3.09 --undefined-- 62.047
3.10 --undefined-- 68.320
3.11 218.491 71.478
3.12 207.445 72.599
3.13 188.123 72.965
3.14 172.958 73.147
3.15 161.588 72.812
3.16 156.033 71.881
3.17 150.142 70.675
3.18 146.492 69.078
3.19 146.627 66.705
3.20 146.101 63.777
3.21 --undefined-- 60.292
3.22 --undefined-- 54.805
3.23 --undefined-- 46.454
3.24 --undefined-- 43.109
3.25 --undefined-- 49.594
3.26 --undefined-- 53.691
3.27 --undefined-- 56.475
3.28 182.100 61.442
3.29 186.949 65.838
3.30 198.563 68.393
3.31 198.767 69.651
3.32 178.982 70.139
3.33 167.032 70.034
3.34 143.399 69.656
3.35 132.609 69.683
3.36 125.918 69.816
3.37 121.184 69.441
3.38 119.199 68.585
3.39 119.302 67.773
3.40 122.728 67.510
3.41 125.075 67.589
3.42 127.489 67.759
3.43 129.357 67.663
3.44 130.274 66.501
3.45 130.780 63.766
3.46 129.373 59.240
3.47 --undefined-- 52.878
3.48 --undefined-- 51.176
3.49 --undefined-- 60.962
3.50 --undefined-- 67.512
3.51 162.873 70.803
3.52 158.746 71.934
3.53 160.286 72.179
3.54 161.905 72.368
3.55 164.033 72.611
3.56 165.986 72.839
3.57 166.324 72.984
3.58 165.716 72.869
3.59 165.022 72.432
3.60 163.066 71.840
3.61 161.458 71.253
3.62 160.055 71.035
3.63 158.976 71.192
3.64 158.450 71.341
3.65 158.256 71.471
3.66 158.397 71.636
3.67 158.381 71.698
3.68 158.233 71.553
3.69 158.106 71.143
3.70 157.910 70.370
3.71 156.591 69.073
3.72 159.875 66.984
3.73 179.464 63.931
3.74 --undefined-- 59.628
3.75 --undefined-- 53.690
3.76 --undefined-- 46.684
3.77 --undefined-- 40.887
3.78 --undefined-- 39.749
3.79 --undefined-- 41.664
3.80 --undefined-- 42.764
3.81 --undefined-- 43.659
3.82 --undefined-- 43.535
3.83 --undefined-- 42.023
3.84 --undefined-- 40.502
3.85 --undefined-- 39.748
3.86 --undefined-- 39.886
3.87 --undefined-- 39.922
3.88 --undefined-- 40.292
3.89 --undefined-- 40.480
3.90 --undefined-- 39.666
3.91 --undefined-- 38.855
3.92 --undefined-- 38.959
3.93 --undefined-- 39.711
3.94 --undefined-- 40.667
3.95 --undefined-- 41.068
3.96 --undefined-- 40.478
3.97 --undefined-- 38.632
3.98 --undefined-- 37.237
3.99 --undefined-- 37.898
4.00 --undefined-- 39.413
4.01 --undefined-- 39.603
4.02 --undefined-- 39.344
4.03 --undefined-- 40.006
4.04 --undefined-- 40.196
4.05 --undefined-- 39.932
4.06 --undefined-- 39.779
4.07 --undefined-- 40.436
4.08 --undefined-- 41.645
4.09 --undefined-- 41.639
4.10 --undefined-- 41.595
4.11 --undefined-- 42.326
4.12 --undefined-- 42.193
4.13 --undefined-- 41.803
4.14 --undefined-- 42.011
4.15 --undefined-- 41.539
4.16 --undefined-- 40.111
4.17 --undefined-- 39.182
4.18 --undefined-- 39.930
4.19 --undefined-- 40.873
4.20 --undefined-- 41.935
4.21 --undefined-- 42.266
4.22 --undefined-- 41.358
4.23 --undefined-- 40.799
4.24 --undefined-- 40.889
4.25 --undefined-- 40.753
4.26 --undefined-- 40.243
4.27 --undefined-- 40.116
4.28 --undefined-- 40.739
4.29 --undefined-- 40.694
4.30 --undefined-- 40.003
4.31 --undefined-- 40.030
4.32 --undefined-- 39.886
4.33 --undefined-- 40.184
4.34 --undefined-- 40.872
4.35 --undefined-- 42.003
4.36 --undefined-- 42.537
4.37 --undefined-- 41.092
4.38 --undefined-- 39.075
4.39 --undefined-- 39.075
4.40 --undefined-- 41.815
4.41 --undefined-- 42.964
4.42 --undefined-- 42.722
4.43 --undefined-- 50.479
4.44 --undefined-- 60.637
4.45 198.423 66.922
4.46 193.524 70.299
4.47 193.875 72.388
4.48 196.505 74.352
4.49 192.397 75.849
4.50 190.222 76.696
4.51 189.615 77.229
4.52 188.051 77.516
4.53 186.366 77.506
4.54 185.187 77.226
4.55 183.218 76.721
4.56 180.457 76.461
4.57 183.568 76.660
4.58 185.349 76.700
4.59 188.366 76.412
4.60 191.585 75.717
4.61 193.647 74.272
4.62 194.148 71.544
4.63 195.144 67.012
4.64 --undefined-- 59.794
4.65 --undefined-- 50.853
4.66 --undefined-- 57.824
4.67 --undefined-- 67.254
4.68 281.187 72.877
4.69 273.881 75.701
4.70 275.168 77.083
4.71 279.461 77.657
4.72 282.454 77.492
4.73 284.341 76.801
4.74 285.792 75.947
4.75 286.605 75.142
4.76 287.522 74.557
4.77 289.383 74.482
4.78 291.762 74.953
4.79 294.344 75.601
4.80 296.097 76.050
4.81 294.165 76.383
4.82 287.567 76.754
4.83 281.428 76.506
4.84 273.323 74.620
4.85 266.098 70.149
4.86 --undefined-- 62.509
4.87 --undefined-- 51.862
4.88 --undefined-- 47.625
4.89 --undefined-- 57.024
4.90 268.079 66.475
4.91 244.269 72.198
4.92 227.151 74.813
4.93 212.221 75.192
4.94 200.846 74.470
4.95 194.842 73.820
4.96 192.107 73.581
4.97 190.300 73.773
4.98 189.758 74.168
4.99 190.006 74.394
5.00 189.138 74.341
5.01 189.256 74.139
5.02 189.266 73.712
5.03 187.870 72.724
5.04 185.073 70.558
5.05 178.505 66.546
5.06 179.394 59.885
5.07 --undefined-- 50.792
5.08 --undefined-- 45.023
5.09 --undefined-- 44.784
5.10 --undefined-- 44.315
5.11 --undefined-- 44.205
5.12 --undefined-- 44.582
5.13 --undefined-- 47.735
5.14 --undefined-- 56.758
5.15 186.353 63.125
5.16 166.935 66.458
5.17 162.295 68.069
5.18 159.379 69.089
5.19 157.670 69.915
5.20 157.367 70.635
5.21 157.384 71.215
5.22 157.688 71.668
5.23 158.137 72.004
5.24 158.604 72.229
5.25 159.721 72.398
5.26 161.401 72.472
5.27 163.849 72.352
5.28 167.724 72.227
5.29 172.711 72.425
5.30 178.050 72.872
5.31 185.298 73.393
5.32 193.072 73.917
5.33 200.099 74.293
5.34 207.662 74.479
5.35 213.177 74.530
5.36 214.459 74.155
5.37 209.817 72.799
5.38 198.871 70.122
5.39 --undefined-- 66.028
5.40 --undefined-- 61.061
5.41 --undefined-- 56.863
5.42 --undefined-- 56.414
5.43 --undefined-- 58.662
5.44 --undefined-- 61.624
5.45 172.311 63.996
5.46 176.475 65.719
5.47 179.240 67.122
5.48 178.103 68.170
5.49 174.715 68.753
5.50 173.007 68.868
5.51 173.357 68.739
5.52 177.196 68.735
5.53 185.994 69.195
5.54 191.525 69.658
5.55 195.436 68.777
5.56 191.981 65.280
5.57 --undefined-- 58.575
5.58 --undefined-- 48.742
5.59 --undefined-- 41.647
5.60 --undefined-- 47.418
5.61 --undefined-- 53.768
5.62 --undefined-- 57.910
5.63 --undefined-- 60.519
5.64 208.277 61.519
5.65 215.827 61.991
5.66 222.382 64.904
5.67 233.564 68.910
5.68 233.021 71.847
5.69 227.233 73.105
5.70 222.656 73.301
5.71 221.832 73.267
5.72 221.753 73.388
5.73 221.144 73.794
5.74 221.183 73.894
5.75 226.885 73.106
5.76 224.184 71.420
5.77 211.241 68.695
5.78 207.527 --undefined--
5.79 218.470 --undefined--
5.80 --undefined-- --undefined--
5.81 --undefined-- --undefined--
