Time Pitch Intensity
0.01 --undefined-- --undefined--
0.02 189.123 --undefined--
0.03 185.144 --undefined--
0.04 182.247 --undefined--
0.05 177.497 64.188
0.06 172.774 66.264
0.07 169.641 67.790
0.08 168.056 68.512
0.09 167.173 68.261
0.10 167.372 66.879
0.11 --undefined-- 65.059
0.12 186.606 64.871
0.13 182.386 66.087
0.14 178.598 67.369
0.15 175.788 68.703
0.16 175.135 69.524
0.17 176.350 69.022
0.18 174.180 67.110
0.19 166.169 64.904
0.20 159.402 64.160
0.21 --undefined-- 64.590
0.22 --undefined-- 65.929
0.23 --undefined-- 67.211
0.24 118.539 67.157
0.25 118.394 66.192
0.26 --undefined-- 65.607
0.27 --undefined-- 65.808
0.28 --undefined-- 65.536
0.29 151.880 64.626
0.30 155.730 63.905
0.31 156.721 63.577
0.32 157.575 64.008
0.33 160.786 65.253
0.34 165.572 66.290
0.35 169.884 66.243
0.36 174.924 65.904
0.37 167.968 67.230
0.38 163.447 69.364
0.39 159.763 70.953
0.40 159.471 71.525
0.41 166.789 71.323
0.42 170.672 70.633
0.43 172.475 69.533
0.44 172.907 67.935
0.45 174.953 66.514
0.46 172.729 65.706
0.47 166.628 63.904
0.48 155.253 60.116
0.49 138.364 54.615
0.50 --undefined-- 48.351
0.51 --undefined-- 41.602
0.52 --undefined-- 37.001
0.53 --undefined-- 34.259
0.54 --undefined-- 30.546
0.55 --undefined-- 26.101
0.56 --undefined-- 24.292
0.57 --undefined-- 24.110
0.58 --undefined-- 24.398
0.59 --undefined-- 24.425
0.60 --undefined-- 24.224
0.61 --undefined-- 24.448
0.62 --undefined-- 24.953
0.63 --undefined-- 25.290
0.64 --undefined-- 25.249
0.65 --undefined-- 25.033
0.66 --undefined-- 25.120
0.67 --undefined-- 25.397
0.68 --undefined-- 25.547
0.69 --undefined-- 25.505
0.70 --undefined-- 25.562
0.71 --undefined-- 25.865
0.72 --undefined-- 25.989
0.73 --undefined-- 25.835
0.74 --undefined-- 25.711
0.75 --undefined-- 25.706
0.76 --undefined-- 25.715
0.77 --undefined-- 25.856
0.78 --undefined-- 26.057
0.79 --undefined-- 26.207
0.80 --undefined-- 26.499
0.81 --undefined-- 27.219
0.82 --undefined-- 34.443
0.83 --undefined-- 43.430
0.84 --undefined-- 51.897
0.85 --undefined-- 59.617
0.86 --undefined-- 65.147
0.87 204.509 68.519
0.88 204.874 70.281
0.89 204.349 70.851
0.90 204.308 70.250
0.91 204.411 68.639
0.92 204.076 66.058
0.93 204.537 62.743
0.94 207.398 59.469
0.95 221.496 58.052
0.96 233.212 58.778
0.97 233.334 60.152
0.98 224.509 62.408
0.99 217.849 65.341
1.00 212.510 68.124
1.01 204.295 69.902
1.02 196.530 70.527
1.03 190.589 70.128
1.04 185.715 68.911
1.05 175.018 67.391
1.06 174.008 66.283
1.07 174.153 66.221
1.08 175.724 66.797
1.09 178.073 67.068
1.10 178.758 67.020
1.11 177.622 66.916
1.12 177.290 66.979
1.13 176.852 67.041
1.14 174.434 66.612
1.15 172.628 65.737
1.16 170.244 64.574
1.17 165.805 63.147
1.18 161.131 61.342
1.19 152.591 59.700
1.20 151.400 58.856
1.21 145.982 57.858
1.22 142.690 57.224
1.23 147.644 57.665
1.24 157.639 58.999
1.25 156.080 60.586
1.26 157.022 61.661
1.27 157.107 62.167
1.28 156.850 62.386
1.29 156.903 62.506
1.30 155.364 62.238
1.31 153.382 60.720
1.32 155.596 57.665
1.33 170.702 54.533
1.34 --undefined-- 54.249
1.35 --undefined-- 55.562
1.36 --undefined-- 55.120
1.37 --undefined-- 53.290
1.38 --undefined-- 51.446
1.39 --undefined-- 49.336
1.40 --undefined-- 46.561
1.41 --undefined-- 46.274
1.42 --undefined-- 47.276
1.43 --undefined-- 46.365
1.44 --undefined-- 45.402
1.45 270.603 47.011
1.46 265.538 48.652
1.47 259.414 49.085
1.48 --undefined-- 49.152
1.49 --undefined-- 54.233
1.50 --undefined-- 63.225
1.51 --undefined-- 69.047
1.52 249.097 71.642
1.53 244.241 71.509
1.54 --undefined-- 69.539
1.55 --undefined-- 67.386
1.56 --undefined-- 65.090
1.57 --undefined-- 62.167
1.58 --undefined-- 60.462
1.59 170.681 61.770
1.60 169.049 63.880
1.61 165.865 65.303
1.62 162.000 66.254
1.63 160.727 66.790
1.64 160.283 66.733
1.65 159.785 66.417
1.66 159.016 66.283
1.67 159.096 66.030
1.68 159.643 65.446
1.69 159.456 64.941
1.70 160.446 64.860
1.71 162.730 64.861
1.72 163.227 64.536
1.73 161.966 63.440
1.74 162.227 60.888
1.75 174.756 56.517
1.76 --undefined-- 52.168
1.77 --undefined-- 50.565
1.78 --undefined-- 48.641
1.79 --undefined-- 47.401
1.80 --undefined-- 49.677
1.81 --undefined-- 51.060
1.82 --undefined-- 50.141
1.83 --undefined-- 48.840
1.84 --undefined-- 50.341
1.85 --undefined-- 52.745
1.86 --undefined-- 56.699
1.87 --undefined-- 61.441
1.88 --undefined-- 63.829
1.89 --undefined-- 64.499
1.90 --undefined-- 64.650
1.91 --undefined-- 64.316
1.92 --undefined-- 64.246
1.93 --undefined-- 62.718
1.94 --undefined-- 60.043
1.95 --undefined-- 61.789
1.96 --undefined-- 63.177
1.97 --undefined-- 62.909
1.98 --undefined-- 62.054
1.99 --undefined-- 61.043
2.00 --undefined-- 59.751
2.01 --undefined-- 58.030
2.02 --undefined-- 57.391
2.03 284.693 57.300
2.04 280.227 55.788
2.05 --undefined-- 54.565
2.06 --undefined-- 55.832
2.07 --undefined-- 59.001
2.08 --undefined-- 63.658
2.09 --undefined-- 66.816
2.10 --undefined-- 68.103
2.11 --undefined-- 68.429
2.12 --undefined-- 68.686
2.13 --undefined-- 67.578
2.14 --undefined-- 65.294
2.15 --undefined-- 61.733
2.16 --undefined-- 54.840
2.17 --undefined-- 46.148
2.18 --undefined-- 44.324
2.19 --undefined-- 43.421
2.20 --undefined-- 40.930
2.21 --undefined-- 36.485
2.22 --undefined-- 30.626
2.23 --undefined-- 29.736
2.24 --undefined-- 33.901
2.25 --undefined-- 35.924
2.26 --undefined-- 35.751
2.27 --undefined-- 37.441
2.28 --undefined-- 40.621
2.29 --undefined-- 42.295
2.30 --undefined-- 43.371
2.31 --undefined-- 44.642
2.32 --undefined-- 44.654
2.33 --undefined-- 42.478
2.34 --undefined-- 37.980
2.35 --undefined-- 31.238
2.36 --undefined-- 26.200
2.37 --undefined-- 26.054
2.38 --undefined-- 31.255
2.39 --undefined-- 40.216
2.40 --undefined-- 46.034
2.41 --undefined-- 48.972
2.42 --undefined-- 50.373
2.43 --undefined-- 51.637
2.44 --undefined-- 51.935
2.45 --undefined-- 51.093
2.46 --undefined-- 50.660
2.47 --undefined-- 50.176
2.48 --undefined-- 49.764
2.49 --undefined-- 50.136
2.50 --undefined-- 49.932
2.51 --undefined-- 48.829
2.52 --undefined-- 49.588
2.53 --undefined-- 51.182
2.54 --undefined-- 51.704
2.55 --undefined-- 51.005
2.56 --undefined-- 49.839
2.57 --undefined-- 50.015
2.58 --undefined-- 51.069
2.59 --undefined-- 51.660
2.60 --undefined-- 51.852
2.61 --undefined-- 51.793
2.62 --undefined-- 50.718
2.63 189.787 49.702
2.64 188.309 49.848
2.65 188.576 50.234
2.66 --undefined-- 50.170
2.67 --undefined-- 49.718
2.68 --undefined-- 48.920
2.69 --undefined-- 47.535
2.70 --undefined-- 45.256
2.71 --undefined-- 41.688
2.72 --undefined-- 36.997
2.73 --undefined-- 33.011
2.74 --undefined-- 30.115
2.75 --undefined-- 28.122
2.76 --undefined-- 26.872
2.77 --undefined-- 26.225
2.78 --undefined-- 26.472
2.79 --undefined-- 26.384
2.80 --undefined-- 27.600
2.81 --undefined-- 43.302
2.82 --undefined-- 55.075
2.83 --undefined-- 61.869
2.84 --undefined-- 65.602
2.85 --undefined-- 68.512
2.86 290.460 71.348
2.87 293.778 72.771
2.88 297.174 72.052
2.89 153.971 69.919
2.90 163.671 68.924
2.91 180.268 68.661
2.92 197.018 67.059
2.93 205.408 64.078
2.94 203.791 60.258
2.95 199.018 55.711
2.96 --undefined-- 51.468
2.97 --undefined-- 50.034
2.98 --undefined-- 49.860
2.99 --undefined-- 49.184
3.00 --undefined-- 50.290
3.01 --undefined-- 51.560
3.02 --undefined-- 56.076
3.03 --undefined-- 64.828
3.04 --undefined-- 70.250
3.05 --undefined-- 72.447
3.06 --undefined-- 72.260
3.07 --undefined-- 70.222
3.08 --undefined-- 66.256
3.09 --undefined-- 60.722
3.10 178.505 57.750
3.11 186.001 57.537
3.12 196.219 57.228
3.13 202.006 57.331
3.14 205.805 57.569
3.15 210.351 57.193
3.16 216.284 56.401
3.17 217.464 56.296
3.18 211.501 56.946
3.19 211.379 57.587
3.20 211.691 58.555
3.21 214.780 60.537
3.22 221.850 63.076
3.23 223.796 66.097
3.24 221.938 68.953
3.25 221.087 70.360
3.26 219.259 69.692
3.27 216.686 67.015
3.28 217.940 63.229
3.29 --undefined-- 60.805
3.30 --undefined-- 60.599
3.31 --undefined-- 60.157
3.32 --undefined-- 58.482
3.33 --undefined-- 56.114
3.34 --undefined-- 54.589
3.35 --undefined-- 53.908
3.36 --undefined-- 54.544
3.37 --undefined-- 58.001
3.38 255.351 63.957
3.39 251.996 68.276
3.40 242.848 70.427
3.41 221.412 71.267
3.42 216.128 71.495
3.43 216.106 70.985
3.44 216.106 69.790
3.45 214.215 68.133
3.46 211.665 65.649
3.47 213.633 62.567
3.48 230.213 60.966
3.49 235.265 61.273
3.50 240.519 62.190
3.51 246.966 63.219
3.52 251.047 64.135
3.53 256.178 64.908
3.54 270.462 65.740
3.55 285.684 66.865
3.56 295.806 68.316
3.57 152.575 69.683
3.58 155.340 70.506
3.59 158.477 70.652
3.60 160.996 70.257
3.61 164.781 69.530
3.62 169.846 68.421
3.63 171.748 66.663
3.64 160.574 64.187
3.65 159.804 61.203
3.66 158.158 57.572
3.67 --undefined-- 52.761
3.68 --undefined-- 48.265
3.69 --undefined-- 45.090
3.70 --undefined-- 41.418
3.71 --undefined-- 36.596
3.72 --undefined-- 31.688
3.73 --undefined-- 28.376
3.74 --undefined-- 27.110
3.75 --undefined-- 26.757
3.76 --undefined-- 26.496
3.77 --undefined-- 26.175
3.78 --undefined-- 26.376
3.79 --undefined-- 26.273
3.80 --undefined-- 25.184
3.81 --undefined-- 24.425
3.82 --undefined-- 23.886
3.83 --undefined-- 23.690
3.84 --undefined-- 23.731
3.85 --undefined-- 23.623
3.86 --undefined-- 24.868
3.87 --undefined-- 27.027
3.88 --undefined-- 27.996
3.89 --undefined-- 27.910
3.90 --undefined-- 28.042
3.91 --undefined-- 28.478
3.92 --undefined-- 28.354
3.93 --undefined-- 28.707
3.94 --undefined-- 42.930
3.95 --undefined-- 54.302
3.96 --undefined-- 61.381
3.97 --undefined-- 66.192
3.98 --undefined-- 69.438
3.99 --undefined-- 70.958
4.00 --undefined-- 71.023
4.01 --undefined-- 70.797
4.02 275.575 71.967
4.03 275.342 73.572
4.04 274.879 74.230
4.05 274.464 74.141
4.06 272.222 73.558
4.07 268.020 72.841
4.08 267.757 72.296
4.09 267.973 71.893
4.10 266.759 71.683
4.11 266.369 71.621
4.12 268.293 71.540
4.13 272.732 71.207
4.14 275.357 70.169
4.15 275.394 68.218
4.16 274.374 65.723
4.17 273.150 63.394
4.18 275.177 61.702
4.19 279.654 60.727
4.20 286.502 59.401
4.21 296.790 56.164
4.22 --undefined-- 50.023
4.23 --undefined-- 42.001
4.24 --undefined-- 43.760
4.25 --undefined-- 53.795
4.26 150.399 62.762
4.27 149.495 68.160
4.28 146.931 70.521
4.29 143.551 71.082
4.30 141.435 71.411
4.31 139.974 72.031
4.32 136.629 72.488
4.33 134.605 72.275
4.34 136.973 70.919
4.35 275.199 69.340
4.36 274.446 68.735
4.37 274.298 68.379
4.38 273.616 68.223
4.39 273.016 68.244
4.40 271.931 68.128
4.41 267.419 67.771
4.42 263.210 67.061
4.43 256.017 65.604
4.44 254.448 63.270
4.45 263.925 60.140
4.46 --undefined-- 56.116
4.47 --undefined-- 51.195
4.48 --undefined-- 49.489
4.49 --undefined-- 48.783
4.50 --undefined-- 46.411
4.51 --undefined-- 46.908
4.52 --undefined-- 50.180
4.53 --undefined-- 55.025
4.54 --undefined-- 58.957
4.55 --undefined-- 59.968
4.56 --undefined-- 58.556
4.57 --undefined-- 56.939
4.58 --undefined-- 56.474
4.59 --undefined-- 56.453
4.60 --undefined-- 56.578
4.61 --undefined-- 56.810
4.62 --undefined-- 56.230
4.63 --undefined-- 57.914
4.64 --undefined-- 64.340
4.65 213.364 69.043
4.66 200.339 71.185
4.67 178.836 71.560
4.68 177.260 71.099
4.69 174.766 70.247
4.70 171.885 69.362
4.71 168.659 68.709
4.72 169.816 68.088
4.73 173.519 67.377
4.74 175.071 66.787
4.75 176.683 65.897
4.76 179.223 64.273
4.77 194.024 62.163
4.78 201.089 61.106
4.79 204.458 61.486
4.80 206.550 62.049
4.81 212.708 62.208
4.82 221.504 61.811
4.83 221.461 61.001
4.84 216.759 59.729
4.85 214.962 58.028
4.86 215.772 56.699
4.87 225.133 55.441
4.88 234.658 52.794
4.89 --undefined-- 48.178
4.90 --undefined-- 45.599
4.91 --undefined-- 45.520
4.92 --undefined-- 44.874
4.93 --undefined-- 44.399
4.94 --undefined-- 44.285
4.95 --undefined-- 46.694
4.96 --undefined-- 50.015
4.97 --undefined-- 54.542
4.98 158.700 60.870
4.99 152.545 65.378
5.00 292.164 67.648
5.01 285.895 68.558
5.02 286.318 69.182
5.03 287.788 69.767
5.04 285.042 69.987
5.05 280.619 69.857
5.06 278.179 69.398
5.07 276.907 68.923
5.08 275.165 68.639
5.09 269.592 68.108
5.10 257.957 67.324
5.11 242.918 66.335
5.12 223.476 64.843
5.13 211.767 63.197
5.14 197.298 62.071
5.15 177.588 62.283
5.16 164.969 63.540
5.17 163.557 64.483
5.18 153.393 64.476
5.19 147.894 63.772
5.20 149.001 62.520
5.21 157.454 60.871
5.22 161.952 60.333
5.23 163.245 61.430
5.24 160.785 62.054
5.25 158.846 61.183
5.26 156.498 59.679
5.27 152.146 59.007
5.28 148.292 59.591
5.29 145.411 61.711
5.30 143.893 64.702
5.31 145.742 68.100
5.32 150.541 71.136
5.33 152.004 72.852
5.34 151.530 72.763
5.35 149.790 71.398
5.36 151.653 70.623
5.37 155.660 70.765
5.38 158.594 70.546
5.39 160.962 69.211
5.40 175.020 66.802
5.41 179.460 63.736
5.42 198.710 60.803
5.43 214.526 60.704
5.44 216.352 62.260
5.45 219.298 63.178
5.46 223.459 63.300
5.47 218.561 62.986
5.48 215.121 62.453
5.49 208.677 61.761
5.50 200.469 61.275
5.51 190.012 61.268
5.52 182.241 61.905
5.53 175.068 63.105
5.54 169.706 63.883
5.55 160.915 63.806
5.56 156.729 63.484
5.57 156.617 63.193
5.58 155.462 62.692
5.59 154.198 62.340
5.60 156.561 62.162
5.61 157.744 61.867
5.62 151.707 61.425
5.63 146.241 60.548
5.64 139.516 59.058
5.65 133.315 57.171
5.66 131.282 55.301
5.67 135.538 54.000
5.68 --undefined-- 53.183
5.69 --undefined-- 54.491
5.70 142.733 59.978
5.71 153.650 65.204
5.72 157.392 68.558
5.73 161.587 70.064
5.74 163.495 70.157
5.75 163.354 69.772
5.76 164.087 69.752
5.77 166.791 70.080
5.78 171.449 70.094
5.79 186.722 69.292
5.80 191.968 67.579
5.81 195.873 65.532
5.82 199.592 --undefined--
5.83 203.916 --undefined--
5.84 --undefined-- --undefined--
5.85 --undefined-- --undefined--
