Time Pitch Intensity
0.01 --undefined-- --undefined--
0.02 --undefined-- --undefined--
0.03 --undefined-- --undefined--
0.04 --undefined-- --undefined--
0.05 --undefined-- 69.735
0.06 --undefined-- 67.724
0.07 --undefined-- 66.595
0.08 --undefined-- 67.133
0.09 103.143 68.358
0.10 100.756 69.573
0.11 100.959 70.262
0.12 96.629 69.983
0.13 96.322 68.218
0.14 96.006 65.196
0.15 94.870 61.366
0.16 90.464 57.000
0.17 91.720 53.699
0.18 93.160 52.537
0.19 92.647 53.037
0.20 92.291 54.492
0.21 91.382 55.568
0.22 90.619 56.237
0.23 90.090 56.583
0.24 89.596 56.127
0.25 85.374 55.290
0.26 92.208 55.550
0.27 92.269 56.316
0.28 92.256 56.640
0.29 92.084 56.572
0.30 92.146 57.587
0.31 --undefined-- 59.537
0.32 --undefined-- 62.011
0.33 --undefined-- 65.823
0.34 --undefined-- 68.145
0.35 --undefined-- 68.241
0.36 --undefined-- 68.062
0.37 96.669 69.111
0.38 96.689 70.066
0.39 97.359 70.002
0.40 96.164 69.442
0.41 95.464 68.979
0.42 94.334 68.835
0.43 94.216 69.059
0.44 92.059 68.777
0.45 91.096 67.410
0.46 90.457 64.577
0.47 89.818 60.066
0.48 92.632 55.396
0.49 92.383 53.293
0.50 92.211 52.417
0.51 91.963 52.209
0.52 92.325 52.159
0.53 91.702 51.922
0.54 92.587 52.264
0.55 95.131 56.163
0.56 94.213 62.279
0.57 101.295 67.077
0.58 102.297 69.994
0.59 104.506 71.737
0.60 107.688 72.864
0.61 108.942 73.217
0.62 108.933 72.979
0.63 108.072 72.690
0.64 107.822 72.484
0.65 107.741 72.054
0.66 107.185 71.308
0.67 105.350 70.460
0.68 102.567 68.892
0.69 --undefined-- 65.872
0.70 --undefined-- 62.669
0.71 --undefined-- 59.910
0.72 --undefined-- 55.974
0.73 --undefined-- 50.937
0.74 --undefined-- 46.595
0.75 --undefined-- 44.900
0.76 --undefined-- 44.483
0.77 --undefined-- 44.938
0.78 --undefined-- 46.640
0.79 --undefined-- 47.278
0.80 --undefined-- 48.073
0.81 --undefined-- 50.680
0.82 115.845 53.215
0.83 115.810 55.514
0.84 120.962 57.445
0.85 123.448 58.769
0.86 128.036 59.723
0.87 130.089 60.639
0.88 131.041 61.664
0.89 131.918 62.825
0.90 133.611 64.811
0.91 136.214 67.309
0.92 136.108 69.027
0.93 136.562 69.405
0.94 136.067 68.605
0.95 134.526 66.963
0.96 133.526 64.291
0.97 126.707 60.294
0.98 --undefined-- 57.235
0.99 --undefined-- 60.085
1.00 --undefined-- 64.661
1.01 --undefined-- 68.391
1.02 --undefined-- 70.359
1.03 107.092 71.082
1.04 104.681 71.479
1.05 104.653 71.494
1.06 106.329 70.695
1.07 107.499 68.966
1.08 109.033 66.565
1.09 109.600 64.453
1.10 111.109 63.528
1.11 113.039 62.844
1.12 112.423 60.669
1.13 108.116 56.594
1.14 --undefined-- 54.675
1.15 --undefined-- 60.058
1.16 --undefined-- 65.390
1.17 --undefined-- 69.165
1.18 --undefined-- 71.695
1.19 --undefined-- 72.846
1.20 --undefined-- 72.608
1.21 --undefined-- 71.689
1.22 99.681 70.554
1.23 100.202 69.679
1.24 100.517 69.427
1.25 103.860 69.428
1.26 105.493 69.428
1.27 106.617 68.080
1.28 107.812 64.330
1.29 107.541 58.131
1.30 114.963 53.079
1.31 116.649 53.404
1.32 118.318 54.403
1.33 120.265 54.726
1.34 120.901 55.229
1.35 123.601 60.041
1.36 131.869 67.197
1.37 129.076 71.774
1.38 127.625 73.589
1.39 125.895 73.375
1.40 123.575 72.525
1.41 121.681 71.987
1.42 119.682 71.291
1.43 119.342 70.559
1.44 119.420 70.004
1.45 118.715 69.350
1.46 118.400 68.125
1.47 117.827 65.383
1.48 117.769 60.894
1.49 119.707 57.176
1.50 119.697 56.312
1.51 118.987 56.648
1.52 118.780 57.793
1.53 119.418 61.438
1.54 120.276 66.337
1.55 119.068 69.760
1.56 117.706 71.351
1.57 116.742 71.528
1.58 115.300 70.976
1.59 114.932 70.464
1.60 115.707 70.394
1.61 116.703 70.472
1.62 117.694 70.434
1.63 118.839 70.497
1.64 119.624 70.637
1.65 119.507 70.850
1.66 119.800 70.819
1.67 120.237 70.246
1.68 120.184 69.596
1.69 119.455 68.739
1.70 117.977 66.744
1.71 113.454 63.806
1.72 108.629 62.036
1.73 103.884 62.137
1.74 100.541 62.681
1.75 98.290 62.709
1.76 95.189 61.782
1.77 94.911 60.212
1.78 177.825 58.550
1.79 178.683 56.307
1.80 194.307 53.846
1.81 --undefined-- 51.481
1.82 --undefined-- 48.231
1.83 --undefined-- 44.647
1.84 --undefined-- 42.129
1.85 --undefined-- 42.286
1.86 --undefined-- 49.139
1.87 --undefined-- 57.786
1.88 --undefined-- 65.495
1.89 115.406 70.325
1.90 115.478 72.279
1.91 113.883 71.986
1.92 114.354 71.142
1.93 115.821 71.453
1.94 117.152 71.963
1.95 119.298 71.980
1.96 122.202 71.850
1.97 124.589 71.990
1.98 127.304 72.197
1.99 129.471 72.143
2.00 131.637 72.124
2.01 134.067 72.128
2.02 136.239 71.698
2.03 138.130 70.662
2.04 138.701 68.856
2.05 138.977 66.075
2.06 137.941 62.378
2.07 131.785 57.653
2.08 --undefined-- 51.837
2.09 --undefined-- 47.467
2.10 --undefined-- 46.531
2.11 --undefined-- 46.373
2.12 --undefined-- 45.190
2.13 --undefined-- 42.748
2.14 --undefined-- 41.257
2.15 --undefined-- 48.206
2.16 --undefined-- 56.771
2.17 --undefined-- 61.797
2.18 --undefined-- 63.274
2.19 --undefined-- 62.461
2.20 --undefined-- 62.890
2.21 --undefined-- 64.952
2.22 --undefined-- 65.999
2.23 --undefined-- 66.048
2.24 --undefined-- 66.977
2.25 --undefined-- 69.364
2.26 --undefined-- 71.472
2.27 99.515 72.019
2.28 98.982 71.195
2.29 96.622 69.709
2.30 96.603 68.728
2.31 95.899 68.498
2.32 94.508 68.172
2.33 96.724 67.518
2.34 97.336 67.376
2.35 96.695 67.724
2.36 99.571 67.358
2.37 --undefined-- 66.855
2.38 106.616 67.374
2.39 110.223 68.044
2.40 110.268 68.506
2.41 114.168 69.207
2.42 114.005 69.611
2.43 117.690 69.441
2.44 118.861 68.993
2.45 120.823 68.470
2.46 121.409 68.466
2.47 122.092 69.009
2.48 122.888 69.577
2.49 123.087 69.526
2.50 122.052 68.851
2.51 121.002 67.973
2.52 120.780 66.553
2.53 120.478 63.965
2.54 110.944 59.969
2.55 106.520 54.994
2.56 --undefined-- 50.098
2.57 --undefined-- 45.763
2.58 --undefined-- 42.676
2.59 --undefined-- 42.103
2.60 --undefined-- 46.775
2.61 --undefined-- 57.341
2.62 --undefined-- 66.429
2.63 --undefined-- 72.305
2.64 --undefined-- 74.865
2.65 --undefined-- 74.395
2.66 --undefined-- 71.493
2.67 --undefined-- 68.597
2.68 --undefined-- 67.823
2.69 298.876 66.687
2.70 292.722 63.913
2.71 293.300 58.482
2.72 --undefined-- 50.893
2.73 --undefined-- 44.335
2.74 --undefined-- 41.489
2.75 --undefined-- 42.027
2.76 --undefined-- 43.538
2.77 --undefined-- 43.890
2.78 --undefined-- 44.489
2.79 --undefined-- 47.427
2.80 101.313 50.202
2.81 100.576 51.678
2.82 98.838 51.951
2.83 96.064 51.286
2.84 94.403 49.856
2.85 --undefined-- 48.184
2.86 --undefined-- 46.603
2.87 --undefined-- 45.164
2.88 --undefined-- 44.705
2.89 --undefined-- 43.553
2.90 --undefined-- 40.893
2.91 --undefined-- 38.836
2.92 --undefined-- 39.792
2.93 --undefined-- 41.211
2.94 --undefined-- 42.696
2.95 --undefined-- 46.820
2.96 --undefined-- 56.708
2.97 --undefined-- 64.583
2.98 91.474 68.945
2.99 90.919 70.630
3.00 91.075 70.569
3.01 92.606 69.902
3.02 92.464 69.501
3.03 93.319 69.282
3.04 92.877 68.747
3.05 92.408 67.461
3.06 91.861 65.147
3.07 91.391 62.090
3.08 93.561 59.635
3.09 93.451 59.677
3.10 94.286 61.591
3.11 93.811 64.094
3.12 92.157 66.632
3.13 91.895 68.827
3.14 92.221 70.372
3.15 92.623 71.209
3.16 93.100 71.543
3.17 94.512 71.565
3.18 95.101 71.235
3.19 95.095 70.812
3.20 96.036 70.730
3.21 96.352 70.591
3.22 95.604 69.522
3.23 --undefined-- 66.866
3.24 --undefined-- 62.165
3.25 --undefined-- 56.596
3.26 --undefined-- 55.783
3.27 --undefined-- 58.423
3.28 --undefined-- 60.977
3.29 --undefined-- 61.195
3.30 --undefined-- 58.487
3.31 --undefined-- 55.307
3.32 --undefined-- 55.980
3.33 --undefined-- 59.189
3.34 --undefined-- 61.903
3.35 100.793 63.461
3.36 98.211 65.504
3.37 95.613 67.502
3.38 96.117 68.590
3.39 96.203 69.204
3.40 95.126 69.759
3.41 94.587 70.168
3.42 93.729 70.305
3.43 94.297 69.761
3.44 98.829 68.550
3.45 104.167 68.167
3.46 109.612 69.202
3.47 116.443 70.329
3.48 122.143 70.713
3.49 124.827 69.859
3.50 125.506 67.936
3.51 127.525 65.227
3.52 138.252 61.852
3.53 143.818 60.213
3.54 146.038 61.093
3.55 147.803 61.432
3.56 136.898 61.203
3.57 131.581 62.617
3.58 126.449 65.878
3.59 123.083 69.697
3.60 121.524 72.444
3.61 121.255 73.389
3.62 92.512 72.635
3.63 107.218 70.554
3.64 107.364 67.637
3.65 106.419 64.882
3.66 105.010 62.495
3.67 --undefined-- 60.700
3.68 --undefined-- 61.280
3.69 --undefined-- 63.020
3.70 --undefined-- 63.458
3.71 --undefined-- 62.422
3.72 --undefined-- 59.741
3.73 --undefined-- 56.276
3.74 109.614 55.552
3.75 114.262 56.839
3.76 118.815 58.252
3.77 122.093 59.367
3.78 124.019 60.392
3.79 125.875 61.356
3.80 127.920 62.157
3.81 129.279 62.870
3.82 129.992 63.428
3.83 130.014 63.879
3.84 129.288 64.481
3.85 128.820 65.058
3.86 128.332 65.216
3.87 126.891 65.442
3.88 129.207 66.929
3.89 128.631 69.004
3.90 128.471 70.512
3.91 128.507 71.277
3.92 121.369 71.472
3.93 121.790 71.491
3.94 113.677 71.317
3.95 111.030 71.601
3.96 106.875 72.216
3.97 102.584 72.227
3.98 99.655 71.635
3.99 96.475 70.336
4.00 95.999 68.529
4.01 92.803 67.156
4.02 92.692 66.046
4.03 91.386 64.370
4.04 90.748 62.161
4.05 --undefined-- 59.051
4.06 --undefined-- 54.360
4.07 --undefined-- 49.339
4.08 --undefined-- 45.480
4.09 --undefined-- 42.023
4.10 --undefined-- 42.288
4.11 --undefined-- 46.520
4.12 --undefined-- 49.994
4.13 --undefined-- 52.139
4.14 --undefined-- 54.612
4.15 --undefined-- 56.373
4.16 --undefined-- 56.098
4.17 --undefined-- 55.008
4.18 --undefined-- 54.593
4.19 --undefined-- 55.558
4.20 --undefined-- 56.183
4.21 --undefined-- 55.492
4.22 --undefined-- 55.651
4.23 --undefined-- 56.512
4.24 --undefined-- 56.181
4.25 --undefined-- 55.314
4.26 --undefined-- 55.426
4.27 --undefined-- 55.229
4.28 --undefined-- 54.518
4.29 74.592 55.110
4.30 75.369 56.184
4.31 75.396 56.342
4.32 --undefined-- 54.837
4.33 --undefined-- 52.003
4.34 --undefined-- 49.628
4.35 --undefined-- 47.029
4.36 --undefined-- 43.549
4.37 --undefined-- 45.444
4.38 --undefined-- 54.510
4.39 --undefined-- 60.690
4.40 --undefined-- 64.017
4.41 --undefined-- 65.861
4.42 --undefined-- 67.348
4.43 --undefined-- 70.270
4.44 --undefined-- 73.060
4.45 145.893 74.038
4.46 146.044 73.770
4.47 147.484 73.101
4.48 149.120 72.144
4.49 149.740 71.247
4.50 149.288 70.552
4.51 148.014 70.215
4.52 146.575 70.407
4.53 144.989 70.687
4.54 144.319 70.877
4.55 142.748 71.082
4.56 139.216 71.301
4.57 135.226 71.314
4.58 129.670 70.817
4.59 125.596 70.073
4.60 124.134 69.424
4.61 121.435 68.928
4.62 118.206 68.308
4.63 116.617 67.080
4.64 115.809 65.187
4.65 115.164 62.441
4.66 --undefined-- 58.368
4.67 192.112 54.327
4.68 193.459 52.106
4.69 188.553 51.067
4.70 186.776 51.248
4.71 187.046 51.770
4.72 --undefined-- 54.025
4.73 --undefined-- 59.228
4.74 108.770 63.760
4.75 112.727 66.913
4.76 111.754 68.839
4.77 108.149 69.439
4.78 105.254 68.774
4.79 99.965 67.997
4.80 100.395 68.059
4.81 101.572 68.210
4.82 102.702 68.160
4.83 102.945 68.147
4.84 102.814 68.295
4.85 102.354 68.353
4.86 102.335 67.633
4.87 100.934 66.529
4.88 101.949 66.559
4.89 101.439 67.832
4.90 102.970 70.072
4.91 102.222 71.796
4.92 100.970 71.981
4.93 99.776 71.098
4.94 96.941 70.357
4.95 95.364 70.141
4.96 94.420 69.937
4.97 94.119 69.510
4.98 95.254 69.213
4.99 94.414 68.630
5.00 95.029 67.926
5.01 95.082 67.906
5.02 97.162 68.027
5.03 --undefined-- 68.153
5.04 --undefined-- 67.628
5.05 --undefined-- 65.652
5.06 --undefined-- 62.408
5.07 --undefined-- 58.284
5.08 103.001 55.077
5.09 105.423 56.518
5.10 105.551 60.617
5.11 108.199 64.643
5.12 107.945 67.436
5.13 107.786 68.671
5.14 103.093 68.892
5.15 107.629 --undefined--
5.16 106.434 --undefined--
5.17 --undefined-- --undefined--
5.18 --undefined-- --undefined--
