Time Pitch Intensity
0.01 --undefined-- --undefined--
0.02 173.906 --undefined--
0.03 172.310 --undefined--
0.04 172.902 --undefined--
0.05 175.839 74.057
0.06 178.956 73.965
0.07 181.515 73.706
0.08 183.897 73.209
0.09 183.198 72.524
0.10 187.909 72.183
0.11 191.709 72.160
0.12 193.038 72.108
0.13 194.610 72.163
0.14 195.853 72.468
0.15 196.970 72.838
0.16 197.681 73.064
0.17 196.557 73.127
0.18 194.163 73.187
0.19 192.090 73.582
0.20 186.378 74.129
0.21 181.607 74.129
0.22 177.538 73.367
0.23 172.790 71.937
0.24 166.311 69.646
0.25 159.389 65.816
0.26 135.686 59.789
0.27 --undefined-- 53.120
0.28 168.660 51.433
0.29 168.328 51.640
0.30 --undefined-- 52.789
0.31 --undefined-- 53.965
0.32 --undefined-- 53.236
0.33 --undefined-- 51.253
0.34 --undefined-- 50.193
0.35 --undefined-- 50.185
0.36 --undefined-- 50.507
0.37 --undefined-- 50.663
0.38 --undefined-- 51.874
0.39 --undefined-- 58.563
0.40 277.371 65.924
0.41 265.122 70.219
0.42 260.363 71.960
0.43 258.449 72.505
0.44 256.502 73.276
0.45 253.710 74.660
0.46 249.427 75.803
0.47 244.097 75.717
0.48 237.363 74.149
0.49 224.505 72.491
0.50 223.386 72.286
0.51 222.894 72.724
0.52 220.493 73.141
0.53 216.348 73.511
0.54 211.671 73.995
0.55 203.065 74.495
0.56 192.549 74.720
0.57 182.093 74.447
0.58 168.511 73.611
0.59 161.341 72.153
0.60 155.609 70.283
0.61 153.263 69.053
0.62 155.029 69.032
0.63 156.681 69.117
0.64 158.248 68.922
0.65 160.209 68.748
0.66 162.353 68.698
0.67 162.549 68.538
0.68 163.066 67.603
0.69 162.683 64.987
0.70 150.294 60.090
0.71 158.436 54.196
0.72 159.777 52.039
0.73 --undefined-- 52.592
0.74 --undefined-- 52.929
0.75 --undefined-- 53.420
0.76 --undefined-- 55.697
0.77 --undefined-- 57.323
0.78 --undefined-- 58.722
0.79 217.752 63.648
0.80 194.525 67.955
0.81 184.025 70.498
0.82 181.531 71.888
0.83 180.386 72.577
0.84 180.362 72.950
0.85 181.387 73.345
0.86 183.073 73.690
0.87 183.179 73.650
0.88 182.008 73.151
0.89 181.801 72.624
0.90 184.023 72.562
0.91 184.225 72.581
0.92 185.072 72.388
0.93 186.601 72.178
0.94 186.757 72.115
0.95 187.212 72.495
0.96 191.878 73.542
0.97 190.537 74.490
0.98 185.541 74.821
0.99 182.658 75.037
1.00 179.953 75.370
1.01 177.384 75.524
1.02 175.764 75.336
1.03 174.338 75.082
1.04 173.318 75.231
1.05 173.480 75.681
1.06 174.993 75.935
1.07 178.014 75.754
1.08 181.248 75.391
1.09 184.620 75.179
1.10 188.663 75.000
1.11 193.986 74.521
1.12 200.759 73.613
1.13 207.291 72.396
1.14 208.223 70.754
1.15 199.774 68.106
1.16 --undefined-- 64.058
1.17 --undefined-- 58.979
1.18 --undefined-- 55.206
1.19 --undefined-- 54.134
1.20 --undefined-- 54.998
1.21 174.876 57.377
1.22 171.465 58.488
1.23 173.391 57.460
1.24 --undefined-- 55.715
1.25 --undefined-- 56.282
1.26 --undefined-- 57.808
1.27 --undefined-- 58.745
1.28 --undefined-- 59.809
1.29 --undefined-- 61.421
1.30 --undefined-- 62.327
1.31 --undefined-- 62.675
1.32 --undefined-- 63.731
1.33 146.343 65.245
1.34 138.237 66.072
1.35 137.328 66.035
1.36 140.069 65.485
1.37 140.409 64.823
1.38 145.996 64.396
1.39 148.763 64.548
1.40 154.019 65.360
1.41 157.654 66.429
1.42 158.468 67.390
1.43 159.361 67.768
1.44 162.415 67.187
1.45 164.889 65.331
1.46 165.697 61.711
1.47 --undefined-- 55.865
1.48 --undefined-- 49.235
1.49 --undefined-- 46.779
1.50 --undefined-- 45.509
1.51 --undefined-- 43.054
1.52 --undefined-- 44.692
1.53 --undefined-- 51.544
1.54 --undefined-- 56.187
1.55 --undefined-- 60.383
1.56 --undefined-- 65.852
1.57 230.983 70.176
1.58 221.603 71.929
1.59 217.198 71.682
1.60 213.363 70.845
1.61 213.025 70.448
1.62 214.433 70.405
1.63 217.230 70.502
1.64 220.108 70.836
1.65 222.253 71.310
1.66 223.327 71.766
1.67 224.232 72.223
1.68 223.061 72.568
1.69 221.371 72.575
1.70 221.245 72.373
1.71 221.717 72.251
1.72 221.498 72.138
1.73 220.093 71.515
1.74 214.828 69.705
1.75 206.702 66.041
1.76 193.012 60.466
1.77 --undefined-- 55.014
1.78 --undefined-- 53.433
1.79 --undefined-- 53.249
1.80 --undefined-- 54.216
1.81 --undefined-- 60.985
1.82 248.355 67.935
1.83 216.777 71.623
1.84 202.306 72.910
1.85 191.256 73.301
1.86 183.103 73.565
1.87 179.220 73.680
1.88 176.602 73.443
1.89 174.297 72.967
1.90 172.680 72.512
1.91 171.779 72.100
1.92 171.103 71.668
1.93 170.461 71.191
1.94 168.391 70.770
1.95 171.086 70.515
1.96 171.554 70.159
1.97 170.316 69.253
1.98 167.946 67.106
1.99 169.190 62.952
2.00 174.139 56.727
2.01 168.994 53.265
2.02 --undefined-- 60.383
2.03 211.962 68.046
2.04 195.063 72.374
2.05 181.806 74.160
2.06 177.977 74.547
2.07 174.920 74.387
2.08 173.427 74.164
2.09 172.522 74.090
2.10 171.910 74.117
2.11 171.629 74.178
2.12 171.769 74.117
2.13 173.257 73.630
2.14 176.694 72.578
2.15 177.271 71.183
2.16 172.533 69.661
2.17 166.904 67.785
2.18 163.036 65.066
2.19 160.149 61.109
2.20 --undefined-- 59.777
2.21 --undefined-- 66.149
2.22 191.050 71.403
2.23 185.848 74.205
2.24 179.726 75.274
2.25 177.057 75.379
2.26 174.060 74.517
2.27 171.045 72.361
2.28 167.089 68.824
2.29 --undefined-- 63.889
2.30 --undefined-- 57.942
2.31 --undefined-- 52.934
2.32 --undefined-- 49.578
2.33 --undefined-- 46.023
2.34 --undefined-- 42.088
2.35 --undefined-- 41.073
2.36 --undefined-- 47.527
2.37 --undefined-- 58.138
2.38 198.139 65.437
2.39 187.551 69.459
2.40 187.189 71.300
2.41 187.343 72.055
2.42 185.828 72.562
2.43 185.900 73.466
2.44 182.720 74.555
2.45 179.083 75.162
2.46 176.545 75.451
2.47 174.311 75.591
2.48 172.465 75.413
2.49 170.915 75.002
2.50 170.540 74.517
2.51 169.886 74.008
2.52 169.358 73.476
2.53 167.939 72.826
2.54 167.461 72.022
2.55 167.792 71.240
2.56 169.136 70.517
2.57 169.916 70.003
2.58 172.440 69.876
2.59 175.032 69.871
2.60 178.415 69.703
2.61 179.876 69.281
2.62 180.394 68.386
2.63 184.976 66.559
2.64 181.521 63.158
2.65 171.875 57.581
2.66 --undefined-- 50.392
2.67 --undefined-- 46.142
2.68 --undefined-- 44.313
2.69 --undefined-- 41.937
2.70 --undefined-- 40.262
2.71 --undefined-- 40.046
2.72 --undefined-- 39.582
2.73 --undefined-- 38.327
2.74 --undefined-- 36.925
2.75 --undefined-- 36.451
2.76 --undefined-- 36.686
2.77 --undefined-- 36.542
2.78 --undefined-- 36.521
2.79 --undefined-- 37.320
2.80 --undefined-- 38.095
2.81 --undefined-- 38.393
2.82 --undefined-- 38.113
2.83 --undefined-- 37.481
2.84 --undefined-- 37.575
2.85 --undefined-- 38.422
2.86 --undefined-- 39.192
2.87 --undefined-- 39.454
2.88 --undefined-- 39.408
2.89 --undefined-- 39.061
2.90 --undefined-- 38.828
2.91 --undefined-- 38.164
2.92 --undefined-- 36.267
2.93 --undefined-- 34.074
2.94 --undefined-- 32.134
2.95 --undefined-- 30.269
2.96 --undefined-- 29.992
2.97 --undefined-- 33.060
2.98 --undefined-- 40.447
2.99 --undefined-- 53.003
3.00 265.267 61.880
3.01 234.074 67.755
3.02 224.336 71.598
3.03 222.622 73.809
3.04 220.029 74.653
3.05 216.093 74.330
3.06 213.690 72.898
3.07 210.111 70.686
3.08 196.369 67.972
3.09 187.081 63.896
3.10 --undefined-- 57.141
3.11 --undefined-- 47.638
3.12 --undefined-- 46.474
3.13 --undefined-- 55.836
3.14 --undefined-- 65.332
3.15 160.851 71.398
3.16 160.518 74.506
3.17 161.357 75.656
3.18 161.243 75.900
3.19 160.674 75.761
3.20 159.732 75.369
3.21 158.676 74.873
3.22 158.519 74.361
3.23 157.948 73.911
3.24 157.092 73.613
3.25 155.199 73.479
3.26 150.947 73.705
3.27 294.898 74.633
3.28 283.842 75.894
3.29 274.685 76.603
3.30 258.001 76.615
3.31 243.375 76.688
3.32 233.347 76.799
3.33 220.353 76.611
3.34 212.210 76.366
3.35 208.339 76.130
3.36 206.421 75.983
3.37 207.405 75.817
3.38 210.270 75.394
3.39 214.068 74.822
3.40 217.590 74.408
3.41 220.438 74.025
3.42 221.340 73.286
3.43 221.902 72.635
3.44 225.738 72.610
3.45 227.343 72.595
3.46 228.828 72.457
3.47 228.514 72.305
3.48 227.214 72.097
3.49 223.952 71.931
3.50 219.565 72.132
3.51 218.796 72.999
3.52 217.181 73.935
3.53 206.011 74.089
3.54 200.359 73.576
3.55 194.244 72.450
3.56 185.251 70.262
3.57 176.657 66.628
3.58 165.449 61.204
3.59 194.736 54.770
3.60 199.209 52.643
3.61 197.066 53.081
3.62 --undefined-- 53.598
3.63 --undefined-- 53.716
3.64 --undefined-- 52.523
3.65 --undefined-- 50.545
3.66 --undefined-- 48.890
3.67 --undefined-- 48.022
3.68 --undefined-- 48.699
3.69 --undefined-- 50.868
3.70 --undefined-- 56.777
3.71 --undefined-- 65.515
3.72 150.071 71.195
3.73 149.786 73.686
3.74 150.092 74.093
3.75 150.625 73.904
3.76 150.567 73.899
3.77 298.931 73.715
3.78 293.875 72.858
3.79 282.707 71.528
3.80 276.822 71.198
3.81 278.769 71.950
3.82 275.486 72.747
3.83 265.953 73.707
3.84 252.261 74.931
3.85 238.919 75.600
3.86 222.921 75.243
3.87 202.962 74.546
3.88 186.372 73.960
3.89 169.253 72.890
3.90 161.948 70.928
3.91 149.788 68.787
3.92 144.187 67.746
3.93 141.028 67.113
3.94 139.843 65.976
3.95 144.175 64.683
3.96 145.702 63.761
3.97 143.501 63.107
3.98 144.652 62.152
3.99 150.249 60.544
4.00 147.785 58.883
4.01 144.571 57.183
4.02 158.058 54.745
4.03 --undefined-- 50.824
4.04 --undefined-- 45.070
4.05 --undefined-- 39.517
4.06 --undefined-- 44.493
4.07 --undefined-- 53.755
4.08 --undefined-- 59.111
4.09 --undefined-- 62.431
4.10 262.423 68.023
4.11 248.340 73.068
4.12 247.163 75.935
4.13 245.642 77.103
4.14 246.811 77.073
4.15 251.286 76.102
4.16 257.088 74.653
4.17 260.426 73.386
4.18 261.603 72.698
4.19 262.085 72.501
4.20 262.936 72.438
4.21 262.933 72.297
4.22 261.038 71.806
4.23 257.383 70.423
4.24 240.068 67.446
4.25 238.394 62.362
4.26 --undefined-- 54.977
4.27 --undefined-- 48.091
4.28 --undefined-- 47.651
4.29 --undefined-- 48.083
4.30 --undefined-- 51.674
4.31 --undefined-- 58.194
4.32 --undefined-- 61.725
4.33 --undefined-- 62.039
4.34 --undefined-- 62.360
4.35 229.137 65.583
4.36 222.792 68.491
4.37 235.573 70.667
4.38 231.356 72.331
4.39 225.798 73.324
4.40 221.102 73.589
4.41 215.015 73.504
4.42 209.246 73.406
4.43 204.831 73.107
4.44 201.910 72.408
4.45 200.271 71.441
4.46 199.194 70.626
4.47 200.316 70.389
4.48 202.647 70.566
4.49 202.409 70.495
4.50 198.489 69.570
4.51 191.190 67.255
4.52 188.479 62.922
4.53 198.291 56.589
4.54 189.313 52.450
4.55 190.223 51.971
4.56 190.699 51.150
4.57 --undefined-- 52.213
4.58 --undefined-- 60.848
4.59 --undefined-- 67.702
4.60 --undefined-- 71.379
4.61 --undefined-- 72.760
4.62 --undefined-- 72.855
4.63 136.482 72.084
4.64 134.167 70.835
4.65 134.712 69.392
4.66 136.343 67.811
4.67 138.205 66.044
4.68 141.539 64.092
4.69 149.768 63.655
4.70 156.314 64.554
4.71 158.204 64.631
4.72 155.501 62.705
4.73 159.199 58.592
4.74 --undefined-- 52.721
4.75 --undefined-- 46.385
4.76 --undefined-- 45.178
4.77 --undefined-- 54.502
4.78 --undefined-- 63.545
4.79 198.044 69.087
4.80 191.330 71.820
4.81 186.373 72.898
4.82 180.955 73.210
4.83 175.937 73.180
4.84 172.173 72.946
4.85 170.524 72.624
4.86 169.082 72.187
4.87 166.204 71.473
4.88 162.696 70.637
4.89 160.855 69.866
4.90 160.392 69.164
4.91 160.873 68.442
4.92 160.253 67.595
4.93 159.252 66.195
4.94 160.287 63.494
4.95 163.417 58.911
4.96 --undefined-- 54.224
4.97 --undefined-- 53.297
4.98 --undefined-- 53.271
4.99 --undefined-- 53.723
5.00 --undefined-- 55.124
5.01 --undefined-- 56.000
5.02 --undefined-- 56.830
5.03 --undefined-- 61.100
5.04 176.799 65.714
5.05 165.981 68.084
5.06 153.510 68.597
5.07 146.220 67.808
5.08 144.099 66.036
5.09 139.440 63.795
5.10 139.497 62.010
5.11 141.340 61.544
5.12 142.901 61.754
5.13 144.369 61.942
5.14 146.883 62.294
5.15 151.322 63.090
5.16 158.922 64.327
5.17 166.104 65.596
5.18 172.458 66.500
5.19 179.431 67.051
5.20 188.256 67.784
5.21 194.816 68.591
5.22 202.536 68.998
5.23 209.819 69.058
5.24 212.705 68.320
5.25 208.467 65.957
5.26 208.979 61.967
5.27 --undefined-- 57.820
5.28 --undefined-- 56.038
5.29 --undefined-- 56.244
5.30 --undefined-- 57.235
5.31 --undefined-- 57.810
5.32 --undefined-- 58.088
5.33 --undefined-- 58.216
5.34 --undefined-- --undefined--
5.35 --undefined-- --undefined--
5.36 --undefined-- --undefined--
5.37 --undefined-- --undefined--
