Time Pitch Intensity
0.01 --undefined-- --undefined--
0.02 144.942 --undefined--
0.03 148.999 --undefined--
0.04 151.901 --undefined--
0.05 153.950 78.646
0.06 155.852 78.949
0.07 156.724 78.987
0.08 153.371 78.146
0.09 139.936 76.579
0.10 130.894 74.965
0.11 122.451 73.532
0.12 116.298 72.401
0.13 109.517 71.223
0.14 108.357 69.580
0.15 96.685 67.519
0.16 101.640 66.785
0.17 108.293 67.926
0.18 112.855 69.137
0.19 117.344 69.964
0.20 125.720 70.876
0.21 136.313 72.491
0.22 151.000 74.357
0.23 154.559 75.691
0.24 159.006 76.400
0.25 163.575 76.790
0.26 169.740 76.951
0.27 174.691 76.826
0.28 183.273 76.662
0.29 184.392 76.380
0.30 184.311 75.345
0.31 184.160 73.212
0.32 182.248 71.646
0.33 184.982 73.630
0.34 188.426 75.841
0.35 187.972 76.304
0.36 185.347 75.767
0.37 180.509 75.223
0.38 176.186 74.800
0.39 173.625 74.839
0.40 172.655 75.265
0.41 171.286 75.392
0.42 176.378 75.495
0.43 177.548 75.896
0.44 176.299 76.202
0.45 174.005 76.303
0.46 170.257 76.219
0.47 166.040 75.600
0.48 160.095 73.728
0.49 155.959 69.799
0.50 151.973 63.480
0.51 170.466 59.694
0.52 168.939 61.388
0.53 165.791 62.493
0.54 172.298 63.509
0.55 173.459 68.458
0.56 172.171 73.603
0.57 163.855 76.147
0.58 156.352 76.828
0.59 156.789 76.579
0.60 160.687 75.457
0.61 164.032 73.479
0.62 157.336 71.460
0.63 151.876 70.433
0.64 145.264 70.655
0.65 138.515 70.709
0.66 126.396 69.827
0.67 117.412 69.180
0.68 109.318 69.299
0.69 106.022 69.645
0.70 102.906 70.278
0.71 99.990 70.790
0.72 100.148 71.059
0.73 97.389 71.217
0.74 97.025 71.386
0.75 96.794 71.564
0.76 97.776 71.623
0.77 98.215 71.154
0.78 97.229 69.349
0.79 92.568 65.850
0.80 98.926 61.598
0.81 101.575 57.520
0.82 --undefined-- 52.981
0.83 --undefined-- 51.296
0.84 --undefined-- 60.102
0.85 --undefined-- 67.831
0.86 115.573 72.205
0.87 112.567 73.761
0.88 106.152 73.736
0.89 107.332 73.835
0.90 107.676 74.344
0.91 108.902 74.823
0.92 109.456 75.178
0.93 109.756 75.298
0.94 109.604 75.147
0.95 107.924 74.653
0.96 107.033 73.384
0.97 103.995 70.869
0.98 102.834 67.059
0.99 105.536 62.491
1.00 108.209 57.892
1.01 106.394 54.182
1.02 104.474 54.603
1.03 --undefined-- 58.063
1.04 --undefined-- 59.734
1.05 --undefined-- 60.194
1.06 --undefined-- 61.252
1.07 --undefined-- 61.447
1.08 --undefined-- 61.012
1.09 --undefined-- 63.023
1.10 --undefined-- 68.472
1.11 160.826 73.271
1.12 153.727 75.430
1.13 150.284 75.872
1.14 147.120 76.225
1.15 146.345 76.967
1.16 145.977 77.467
1.17 145.266 77.474
1.18 145.852 77.417
1.19 145.847 77.701
1.20 145.817 78.248
1.21 145.798 78.657
1.22 145.962 78.786
1.23 146.666 78.831
1.24 147.240 78.896
1.25 147.046 78.906
1.26 146.067 78.610
1.27 145.086 77.166
1.28 144.197 73.503
1.29 141.787 67.745
1.30 139.163 63.682
1.31 144.165 61.436
1.32 147.469 58.686
1.33 --undefined-- 62.851
1.34 --undefined-- 70.630
1.35 --undefined-- 75.211
1.36 --undefined-- 76.755
1.37 --undefined-- 76.040
1.38 108.496 74.677
1.39 105.515 73.847
1.40 101.613 73.098
1.41 97.803 72.264
1.42 95.172 71.593
1.43 91.898 71.024
1.44 89.206 70.616
1.45 89.185 70.536
1.46 99.363 70.598
1.47 98.099 70.776
1.48 97.919 71.073
1.49 98.661 71.338
1.50 99.652 71.303
1.51 100.263 70.875
1.52 100.474 69.841
1.53 98.700 67.970
1.54 96.440 65.970
1.55 97.769 65.631
1.56 101.843 67.992
1.57 107.416 71.239
1.58 108.365 73.239
1.59 109.123 74.148
1.60 109.567 74.649
1.61 109.017 75.028
1.62 109.163 75.193
1.63 109.020 75.145
1.64 108.910 74.914
1.65 109.604 74.173
1.66 109.921 72.949
1.67 107.942 72.039
1.68 100.684 72.046
1.69 88.236 72.022
1.70 88.128 70.415
1.71 85.935 66.783
1.72 86.165 63.466
1.73 120.621 64.381
1.74 138.187 66.988
1.75 150.851 69.597
1.76 157.466 71.520
1.77 159.986 72.840
1.78 161.779 73.761
1.79 165.062 74.208
1.80 170.241 74.364
1.81 172.795 74.515
1.82 174.629 74.490
1.83 174.445 73.902
1.84 172.373 72.349
1.85 170.578 69.469
1.86 167.111 65.326
1.87 166.461 60.615
1.88 170.872 57.151
1.89 173.322 59.351
1.90 --undefined-- 67.769
1.91 225.892 74.120
1.92 209.856 77.131
1.93 200.818 77.410
1.94 195.742 76.135
1.95 194.061 74.761
1.96 191.066 73.739
1.97 189.551 73.222
1.98 199.316 73.698
1.99 199.735 74.429
2.00 201.310 75.071
2.01 200.766 75.553
2.02 199.276 75.879
2.03 197.725 76.218
2.04 197.385 76.604
2.05 197.876 76.997
2.06 198.458 77.331
2.07 197.773 77.537
2.08 195.704 77.678
2.09 192.783 77.757
2.10 189.195 77.398
2.11 184.062 75.880
2.12 180.443 72.449
2.13 177.288 66.584
2.14 187.493 60.239
2.15 --undefined-- 58.691
2.16 --undefined-- 59.702
2.17 --undefined-- 62.338
2.18 --undefined-- 65.013
2.19 --undefined-- 69.240
2.20 174.187 74.079
2.21 157.242 76.782
2.22 144.111 77.869
2.23 141.138 78.596
2.24 138.762 79.018
2.25 136.888 78.791
2.26 136.666 78.052
2.27 137.956 76.909
2.28 134.607 75.183
2.29 140.954 73.990
2.30 152.178 75.067
2.31 159.452 77.154
2.32 167.568 78.465
2.33 168.787 78.471
2.34 164.694 77.670
2.35 163.876 77.181
2.36 163.637 76.901
2.37 162.195 76.226
2.38 160.310 75.294
2.39 157.280 73.565
2.40 151.215 69.941
2.41 147.385 64.752
2.42 158.328 61.562
2.43 159.331 60.711
2.44 157.502 59.799
2.45 164.085 58.690
2.46 163.228 57.651
2.47 --undefined-- 56.873
2.48 --undefined-- 56.076
2.49 --undefined-- 55.532
2.50 --undefined-- 55.393
2.51 --undefined-- 55.250
2.52 --undefined-- 55.876
2.53 --undefined-- 56.371
2.54 --undefined-- 56.007
2.55 --undefined-- 55.188
2.56 --undefined-- 53.871
2.57 --undefined-- 52.167
2.58 --undefined-- 50.203
2.59 --undefined-- 48.117
2.60 --undefined-- 45.864
2.61 --undefined-- 43.675
2.62 --undefined-- 41.910
2.63 --undefined-- 40.617
2.64 --undefined-- 40.478
2.65 --undefined-- 40.015
2.66 --undefined-- 39.664
2.67 --undefined-- 41.679
2.68 --undefined-- 51.070
2.69 --undefined-- 63.479
2.70 --undefined-- 72.196
2.71 224.682 77.193
2.72 227.882 79.456
2.73 230.557 80.051
2.74 231.314 79.879
2.75 234.426 79.401
2.76 238.560 78.874
2.77 241.369 78.708
2.78 240.453 79.001
2.79 238.553 79.227
2.80 236.399 79.037
2.81 232.140 78.777
2.82 227.767 78.916
2.83 223.950 79.024
2.84 216.845 78.252
2.85 204.501 76.186
2.86 195.071 72.625
2.87 171.457 67.675
2.88 169.506 63.302
2.89 226.903 61.659
2.90 225.852 60.958
2.91 219.126 59.160
2.92 --undefined-- 56.601
2.93 --undefined-- 55.417
2.94 --undefined-- 55.553
2.95 --undefined-- 55.603
2.96 --undefined-- 55.990
2.97 --undefined-- 60.261
2.98 127.777 66.079
2.99 126.682 70.070
3.00 121.900 72.014
3.01 120.060 72.590
3.02 118.878 72.598
3.03 117.724 72.515
3.04 119.623 72.767
3.05 123.645 73.554
3.06 127.636 74.214
3.07 133.506 74.207
3.08 140.944 74.119
3.09 151.725 74.788
3.10 158.512 75.899
3.11 167.264 76.566
3.12 178.328 76.379
3.13 188.513 75.925
3.14 192.827 75.873
3.15 196.732 76.212
3.16 201.075 76.486
3.17 201.352 75.491
3.18 192.803 72.467
3.19 184.757 67.755
3.20 190.756 63.310
3.21 190.419 60.694
3.22 --undefined-- 59.186
3.23 --undefined-- 58.063
3.24 --undefined-- 57.363
3.25 --undefined-- 57.795
3.26 --undefined-- 62.200
3.27 193.686 69.585
3.28 179.474 74.258
3.29 163.696 76.134
3.30 162.012 76.528
3.31 156.513 76.836
3.32 153.488 77.296
3.33 152.363 77.638
3.34 151.396 77.752
3.35 149.891 77.457
3.36 147.244 76.966
3.37 148.710 76.648
3.38 148.109 76.356
3.39 147.204 76.076
3.40 146.569 75.987
3.41 146.383 76.094
3.42 145.781 76.171
3.43 144.415 76.180
3.44 142.271 76.101
3.45 139.002 75.555
3.46 134.533 74.497
3.47 131.297 73.749
3.48 134.288 73.953
3.49 127.770 74.764
3.50 123.794 75.229
3.51 119.906 75.189
3.52 118.666 75.235
3.53 117.400 74.866
3.54 116.112 74.181
3.55 115.476 74.037
3.56 114.913 74.204
3.57 114.419 74.153
3.58 114.167 74.094
3.59 114.316 74.386
3.60 114.276 74.845
3.61 114.320 75.177
3.62 114.412 75.110
3.63 114.422 74.714
3.64 114.683 74.340
3.65 115.704 74.176
3.66 116.642 74.183
3.67 116.774 74.228
3.68 116.320 74.268
3.69 116.248 74.387
3.70 117.944 74.582
3.71 119.248 74.543
3.72 118.733 74.061
3.73 118.905 73.580
3.74 119.577 73.548
3.75 119.566 73.804
3.76 119.640 73.996
3.77 120.079 74.051
3.78 119.775 73.957
3.79 119.378 73.765
3.80 118.209 73.663
3.81 117.036 73.655
3.82 115.667 73.678
3.83 114.587 73.792
3.84 114.695 73.998
3.85 114.473 74.049
3.86 112.955 73.775
3.87 112.960 73.365
3.88 104.087 72.895
3.89 103.630 72.013
3.90 101.897 70.865
3.91 103.635 70.617
3.92 110.116 71.383
3.93 114.078 72.429
3.94 115.116 73.109
3.95 115.870 73.087
3.96 116.438 72.902
3.97 116.725 72.968
3.98 116.283 72.811
3.99 113.767 72.377
4.00 113.181 72.275
4.01 116.109 72.667
4.02 117.212 73.076
4.03 118.512 72.962
4.04 113.341 72.175
4.05 118.927 71.638
4.06 119.151 71.645
4.07 119.084 71.665
4.08 119.243 72.042
4.09 119.881 72.850
4.10 118.793 73.711
4.11 120.671 74.583
4.12 118.102 75.404
4.13 115.128 75.384
4.14 110.931 73.712
4.15 106.281 70.370
4.16 103.701 66.218
4.17 107.075 62.264
4.18 108.653 58.423
4.19 109.612 54.789
4.20 --undefined-- 51.596
4.21 --undefined-- 51.102
4.22 --undefined-- 52.319
4.23 --undefined-- 51.967
4.24 --undefined-- 51.557
4.25 --undefined-- 52.838
4.26 --undefined-- 54.915
4.27 --undefined-- 56.980
4.28 --undefined-- 58.751
4.29 --undefined-- 60.043
4.30 --undefined-- 62.678
4.31 --undefined-- 68.479
4.32 126.018 72.566
4.33 112.979 74.038
4.34 107.848 73.982
4.35 105.805 73.675
4.36 104.486 73.259
4.37 102.825 72.303
4.38 97.564 70.966
4.39 99.739 70.036
4.40 99.113 69.881
4.41 99.941 70.062
4.42 101.940 70.209
4.43 103.044 70.222
4.44 103.119 70.254
4.45 102.292 70.277
4.46 99.941 70.170
4.47 98.304 70.012
4.48 95.684 69.950
4.49 92.868 70.168
4.50 91.419 70.265
4.51 90.784 69.855
4.52 91.671 69.467
4.53 91.900 69.411
4.54 93.134 69.516
4.55 95.384 69.896
4.56 98.712 70.561
4.57 100.864 71.196
4.58 101.586 71.448
4.59 101.144 70.957
4.60 98.724 69.135
4.61 92.462 65.812
4.62 98.543 62.198
4.63 103.132 59.546
4.64 102.878 56.854
4.65 102.128 56.283
4.66 109.525 61.761
4.67 120.734 67.732
4.68 121.249 72.356
4.69 123.309 75.491
4.70 127.154 77.356
4.71 131.378 78.245
4.72 136.973 78.437
4.73 143.124 77.833
4.74 149.427 76.155
4.75 152.674 73.434
4.76 148.219 69.918
4.77 145.375 65.440
4.78 146.815 60.461
4.79 154.065 58.200
4.80 --undefined-- 57.865
4.81 --undefined-- 57.477
4.82 --undefined-- 57.541
4.83 --undefined-- 60.886
4.84 182.029 68.249
4.85 181.047 73.928
4.86 177.369 76.584
4.87 176.591 76.974
4.88 176.595 76.470
4.89 175.086 76.418
4.90 172.378 76.499
4.91 174.893 76.113
4.92 176.368 75.736
4.93 175.430 75.399
4.94 170.625 74.763
4.95 170.973 74.372
4.96 166.059 74.355
4.97 157.473 74.451
4.98 147.022 74.494
4.99 134.214 74.312
5.00 125.675 73.705
5.01 118.678 72.574
5.02 101.646 --undefined--
5.03 98.522 --undefined--
5.04 --undefined-- --undefined--
5.05 --undefined-- --undefined--
