Time Pitch Intensity
0.01 --undefined-- --undefined--
0.02 --undefined-- --undefined--
0.03 --undefined-- --undefined--
0.04 --undefined-- --undefined--
0.05 --undefined-- 53.579
0.06 279.588 59.528
0.07 256.799 62.784
0.08 251.399 64.888
0.09 252.956 66.946
0.10 255.351 68.417
0.11 256.506 68.830
0.12 258.015 68.364
0.13 258.037 67.555
0.14 256.502 66.920
0.15 253.168 66.706
0.16 247.395 66.897
0.17 241.219 66.951
0.18 233.031 66.314
0.19 223.955 65.120
0.20 210.546 63.940
0.21 200.223 63.618
0.22 196.017 64.790
0.23 197.042 67.081
0.24 198.198 69.466
0.25 199.811 71.078
0.26 202.744 71.466
0.27 207.888 70.719
0.28 213.834 69.903
0.29 219.641 69.861
0.30 225.978 69.697
0.31 233.621 68.866
0.32 238.944 67.806
0.33 241.501 67.120
0.34 244.628 66.871
0.35 244.425 66.877
0.36 245.373 66.888
0.37 244.685 66.847
0.38 243.671 66.763
0.39 239.368 66.648
0.40 233.722 66.475
0.41 227.930 66.191
0.42 221.412 65.764
0.43 215.427 65.335
0.44 209.356 65.307
0.45 199.580 66.026
0.46 189.349 66.837
0.47 179.542 67.223
0.48 171.228 67.833
0.49 168.090 68.671
0.50 163.201 68.605
0.51 157.867 67.516
0.52 158.272 66.396
0.53 164.837 65.944
0.54 171.472 65.974
0.55 184.817 66.648
0.56 193.117 67.647
0.57 199.012 67.407
0.58 205.679 65.437
0.59 221.085 63.477
0.60 222.798 63.117
0.61 226.448 63.235
0.62 229.756 63.520
0.63 232.173 64.330
0.64 232.468 65.953
0.65 229.660 68.243
0.66 226.210 70.328
0.67 221.413 71.073
0.68 211.720 70.111
0.69 195.697 68.730
0.70 187.682 68.409
0.71 184.241 67.680
0.72 179.686 65.666
0.73 172.555 63.501
0.74 170.020 62.620
0.75 171.730 62.369
0.76 168.536 61.863
0.77 168.171 61.662
0.78 168.387 61.663
0.79 167.385 61.622
0.80 167.610 61.797
0.81 167.415 61.796
0.82 165.942 61.264
0.83 162.825 60.492
0.84 163.070 60.236
0.85 166.011 60.826
0.86 170.388 61.938
0.87 173.504 62.941
0.88 175.739 63.633
0.89 178.492 64.455
0.90 180.402 65.421
0.91 180.376 66.220
0.92 183.247 66.866
0.93 187.967 67.343
0.94 192.629 67.889
0.95 199.524 68.392
0.96 206.662 68.545
0.97 214.448 68.758
0.98 223.859 69.501
0.99 232.714 70.402
1.00 240.241 71.114
1.01 245.361 71.197
1.02 248.615 70.048
1.03 248.699 68.499
1.04 248.031 68.849
1.05 246.266 70.137
1.06 241.441 70.811
1.07 234.556 70.655
1.08 227.521 69.834
1.09 216.375 69.291
1.10 207.095 69.294
1.11 --undefined-- 68.937
1.12 --undefined-- 67.544
1.13 --undefined-- 64.715
1.14 --undefined-- 61.385
1.15 --undefined-- 58.758
1.16 --undefined-- 55.919
1.17 --undefined-- 53.076
1.18 --undefined-- 53.415
1.19 --undefined-- 54.484
1.20 --undefined-- 52.291
1.21 --undefined-- 47.236
1.22 --undefined-- 47.261
1.23 --undefined-- 52.081
1.24 --undefined-- 54.949
1.25 --undefined-- 54.808
1.26 --undefined-- 52.753
1.27 --undefined-- 51.320
1.28 294.138 51.462
1.29 292.846 51.881
1.30 291.713 51.116
1.31 289.580 49.445
1.32 288.385 51.429
1.33 --undefined-- 53.839
1.34 --undefined-- 53.627
1.35 --undefined-- 51.453
1.36 --undefined-- 49.812
1.37 --undefined-- 48.192
1.38 --undefined-- 46.796
1.39 --undefined-- 48.514
1.40 --undefined-- 51.784
1.41 --undefined-- 54.216
1.42 279.768 56.391
1.43 231.834 59.324
1.44 217.450 61.880
1.45 216.199 64.317
1.46 218.850 67.241
1.47 221.705 69.727
1.48 223.319 70.879
1.49 226.453 70.836
1.50 230.996 70.674
1.51 232.642 70.952
1.52 233.398 71.206
1.53 234.990 71.374
1.54 236.168 71.431
1.55 236.353 71.186
1.56 236.138 70.646
1.57 235.856 69.843
1.58 236.050 69.059
1.59 234.957 68.534
1.60 233.858 67.860
1.61 234.621 66.687
1.62 238.162 65.534
1.63 240.238 64.836
1.64 239.955 64.402
1.65 239.066 64.575
1.66 240.070 65.068
1.67 239.600 65.186
1.68 240.521 65.094
1.69 240.787 65.041
1.70 240.666 65.056
1.71 240.225 65.093
1.72 233.155 65.149
1.73 225.740 65.175
1.74 214.665 65.114
1.75 196.697 65.239
1.76 194.926 66.341
1.77 199.413 68.042
1.78 208.641 68.958
1.79 216.072 68.807
1.80 223.104 67.848
1.81 239.208 66.425
1.82 250.189 65.271
1.83 265.614 64.559
1.84 273.636 64.410
1.85 293.123 65.404
1.86 153.753 66.849
1.87 158.662 68.027
1.88 162.123 68.675
1.89 165.125 68.361
1.90 164.556 66.821
1.91 161.900 64.038
1.92 169.346 60.526
1.93 164.942 57.479
1.94 166.042 56.251
1.95 --undefined-- 56.833
1.96 --undefined-- 56.133
1.97 --undefined-- 53.872
1.98 289.154 51.862
1.99 288.661 51.926
2.00 288.215 54.611
2.01 --undefined-- 59.236
2.02 273.477 62.753
2.03 261.779 64.410
2.04 247.336 65.136
2.05 241.432 65.988
2.06 237.984 67.016
2.07 237.084 67.693
2.08 236.453 67.711
2.09 236.323 67.208
2.10 236.018 66.401
2.11 236.732 65.610
2.12 237.809 65.114
2.13 238.472 64.897
2.14 238.761 64.824
2.15 238.100 64.806
2.16 238.934 64.816
2.17 238.919 64.593
2.18 238.566 64.311
2.19 238.098 63.858
2.20 236.992 62.627
2.21 232.653 60.144
2.22 229.758 56.091
2.23 --undefined-- 52.505
2.24 --undefined-- 52.759
2.25 --undefined-- 53.228
2.26 --undefined-- 59.048
2.27 270.245 64.328
2.28 257.429 66.600
2.29 250.309 67.088
2.30 247.211 67.385
2.31 246.887 67.507
2.32 248.281 66.890
2.33 251.605 66.106
2.34 255.253 65.797
2.35 258.644 65.912
2.36 259.879 65.837
2.37 260.267 65.191
2.38 259.055 63.653
2.39 259.623 60.915
2.40 259.889 57.679
2.41 259.179 56.030
2.42 258.384 55.460
2.43 259.654 54.381
2.44 257.382 53.528
2.45 259.445 52.375
2.46 261.790 51.780
2.47 --undefined-- 52.817
2.48 --undefined-- 57.009
2.49 --undefined-- 62.012
2.50 179.000 65.090
2.51 176.419 66.114
2.52 174.924 66.337
2.53 183.169 67.274
2.54 186.278 68.605
2.55 190.351 69.129
2.56 205.539 68.228
2.57 223.313 66.959
2.58 226.609 66.808
2.59 241.208 66.634
2.60 250.432 65.898
2.61 262.213 65.602
2.62 273.737 66.288
2.63 283.299 67.466
2.64 291.691 68.739
2.65 299.637 69.496
2.66 153.772 69.598
2.67 154.580 69.190
2.68 153.123 67.746
2.69 298.766 64.525
2.70 292.911 59.827
2.71 --undefined-- 55.781
2.72 --undefined-- 53.991
2.73 --undefined-- 52.011
2.74 --undefined-- 49.022
2.75 --undefined-- 50.698
2.76 --undefined-- 54.600
2.77 --undefined-- 58.912
2.78 248.911 62.372
2.79 244.688 64.500
2.80 237.753 65.605
2.81 234.018 66.041
2.82 232.039 66.082
2.83 231.139 65.838
2.84 230.375 65.422
2.85 229.735 65.038
2.86 228.559 64.673
2.87 226.442 63.866
2.88 225.912 62.042
2.89 215.760 58.982
2.90 205.410 54.974
2.91 --undefined-- 50.714
2.92 --undefined-- 48.251
2.93 --undefined-- 47.721
2.94 --undefined-- 48.356
2.95 --undefined-- 50.590
2.96 --undefined-- 51.614
2.97 --undefined-- 50.756
2.98 --undefined-- 50.762
2.99 --undefined-- 52.288
3.00 --undefined-- 53.300
3.01 --undefined-- 53.842
3.02 --undefined-- 54.907
3.03 172.122 56.570
3.04 168.421 57.769
3.05 163.372 58.543
3.06 160.069 59.329
3.07 156.897 59.665
3.08 156.362 59.524
3.09 156.580 59.915
3.10 156.835 60.698
3.11 156.910 61.310
3.12 157.173 61.544
3.13 157.949 61.424
3.14 160.182 61.165
3.15 164.952 61.043
3.16 173.196 60.965
3.17 180.901 61.020
3.18 189.164 61.553
3.19 195.651 61.660
3.20 209.264 60.811
3.21 225.864 60.280
3.22 225.533 59.252
3.23 221.149 56.419
3.24 --undefined-- 53.655
3.25 --undefined-- 52.702
3.26 --undefined-- 54.943
3.27 --undefined-- 58.884
3.28 --undefined-- 60.703
3.29 293.001 59.615
3.30 296.205 57.681
3.31 266.562 58.936
3.32 245.208 60.616
3.33 217.257 61.729
3.34 195.708 62.758
3.35 183.922 64.164
3.36 179.878 65.550
3.37 178.799 66.252
3.38 178.960 66.308
3.39 179.791 66.153
3.40 181.225 66.144
3.41 181.580 66.081
3.42 181.477 65.846
3.43 181.233 65.587
3.44 180.961 65.098
3.45 181.069 64.074
3.46 180.884 62.863
3.47 182.394 62.496
3.48 183.567 62.759
3.49 183.232 63.013
3.50 183.597 63.218
3.51 184.320 63.096
3.52 184.743 62.494
3.53 183.943 61.176
3.54 182.673 58.477
3.55 181.598 54.370
3.56 183.196 51.589
3.57 207.522 52.045
3.58 197.214 53.924
3.59 211.031 59.503
3.60 207.768 64.134
3.61 201.355 66.472
3.62 194.611 67.461
3.63 192.090 67.706
3.64 191.198 67.452
3.65 191.388 67.137
3.66 191.430 66.870
3.67 191.757 66.520
3.68 192.255 66.126
3.69 192.356 65.468
3.70 193.083 64.279
3.71 195.018 62.734
3.72 195.914 60.715
3.73 194.523 57.764
3.74 193.696 55.263
3.75 193.025 55.450
3.76 193.006 56.066
3.77 192.626 54.667
3.78 192.479 50.437
3.79 --undefined-- 45.069
3.80 --undefined-- 46.508
3.81 --undefined-- 49.553
3.82 --undefined-- 49.880
3.83 --undefined-- 48.202
3.84 --undefined-- 46.456
3.85 --undefined-- 48.304
3.86 --undefined-- 54.668
3.87 187.120 59.735
3.88 176.528 61.905
3.89 167.164 62.258
3.90 168.491 62.609
3.91 170.672 63.125
3.92 169.911 63.222
3.93 169.465 62.840
3.94 169.058 61.851
3.95 163.499 60.431
3.96 173.449 60.679
3.97 183.124 62.515
3.98 192.906 63.608
3.99 197.074 63.696
4.00 204.363 63.345
4.01 213.085 63.439
4.02 221.093 64.159
4.03 226.487 64.854
4.04 234.196 65.060
4.05 241.036 64.744
4.06 245.912 64.429
4.07 245.356 64.862
4.08 242.207 65.840
4.09 237.173 66.516
4.10 232.107 66.486
4.11 222.337 66.331
4.12 216.650 66.948
4.13 206.033 67.865
4.14 200.104 68.381
4.15 189.514 68.482
4.16 185.049 68.117
4.17 184.001 67.123
4.18 184.965 65.472
4.19 184.968 63.470
4.20 185.496 61.299
4.21 185.530 58.054
4.22 184.596 54.292
4.23 185.305 52.304
4.24 --undefined-- 51.197
4.25 --undefined-- 49.911
4.26 --undefined-- 49.818
4.27 --undefined-- 50.975
4.28 278.904 52.100
4.29 279.849 54.647
4.30 273.569 58.768
4.31 258.530 62.487
4.32 256.005 64.545
4.33 257.982 65.282
4.34 260.615 65.332
4.35 262.319 65.250
4.36 262.057 65.149
4.37 262.524 64.737
4.38 264.755 63.879
4.39 266.929 63.002
4.40 265.720 62.538
4.41 263.743 62.290
4.42 262.726 62.146
4.43 262.476 61.852
4.44 261.237 61.548
4.45 259.651 61.571
4.46 257.655 61.684
4.47 254.920 61.881
4.48 250.549 62.283
4.49 249.455 62.056
4.50 242.754 59.786
4.51 233.590 54.807
4.52 --undefined-- 51.709
4.53 --undefined-- 58.130
4.54 237.588 63.136
4.55 219.257 65.689
4.56 208.279 66.762
4.57 202.754 66.876
4.58 197.145 66.655
4.59 193.032 66.251
4.60 190.349 65.582
4.61 189.955 65.584
4.62 191.513 66.228
4.63 192.815 66.904
4.64 192.316 67.480
4.65 192.067 67.701
4.66 192.139 67.466
4.67 192.934 66.663
4.68 193.482 64.910
4.69 192.001 61.863
4.70 190.718 57.381
4.71 191.982 52.775
4.72 --undefined-- 51.431
4.73 --undefined-- 50.843
4.74 --undefined-- 49.558
4.75 --undefined-- 49.126
4.76 --undefined-- 48.895
4.77 --undefined-- 48.156
4.78 --undefined-- 48.095
4.79 --undefined-- 49.504
4.80 --undefined-- 49.962
4.81 --undefined-- 50.231
4.82 --undefined-- 53.418
4.83 --undefined-- 57.417
4.84 203.195 60.438
4.85 198.274 62.311
4.86 192.210 63.325
4.87 188.218 63.712
4.88 186.626 63.665
4.89 186.178 63.438
4.90 185.917 62.986
4.91 186.423 62.666
4.92 187.550 62.899
4.93 188.409 63.261
4.94 188.745 63.281
4.95 188.650 62.782
4.96 187.580 61.768
4.97 185.170 59.782
4.98 185.002 56.138
4.99 186.906 51.184
5.00 187.661 47.465
5.01 --undefined-- 48.806
5.02 --undefined-- 51.724
5.03 --undefined-- 54.374
5.04 --undefined-- 58.962
5.05 199.544 --undefined--
5.06 192.522 --undefined--
5.07 --undefined-- --undefined--
5.08 --undefined-- --undefined--
