Time Pitch Intensity
0.01 --undefined-- --undefined--
0.02 164.902 --undefined--
0.03 162.929 --undefined--
0.04 161.573 --undefined--
0.05 161.143 76.760
0.06 162.194 76.625
0.07 162.546 76.554
0.08 162.034 76.609
0.09 161.673 76.684
0.10 161.322 76.619
0.11 160.426 76.163
0.12 158.699 75.082
0.13 152.949 73.214
0.14 --undefined-- 70.540
0.15 --undefined-- 66.851
0.16 --undefined-- 61.963
0.17 --undefined-- 55.632
0.18 --undefined-- 49.094
0.19 --undefined-- 47.045
0.20 --undefined-- 45.594
0.21 --undefined-- 43.109
0.22 --undefined-- 41.465
0.23 --undefined-- 40.680
0.24 --undefined-- 39.488
0.25 --undefined-- 39.094
0.26 --undefined-- 40.423
0.27 --undefined-- 42.283
0.28 --undefined-- 43.284
0.29 --undefined-- 43.661
0.30 --undefined-- 44.375
0.31 --undefined-- 45.598
0.32 --undefined-- 46.546
0.33 --undefined-- 47.344
0.34 --undefined-- 47.703
0.35 --undefined-- 47.701
0.36 --undefined-- 47.991
0.37 --undefined-- 48.881
0.38 --undefined-- 50.107
0.39 --undefined-- 51.270
0.40 --undefined-- 52.100
0.41 --undefined-- 52.298
0.42 --undefined-- 52.603
0.43 --undefined-- 53.493
0.44 --undefined-- 54.236
0.45 --undefined-- 53.983
0.46 --undefined-- 53.288
0.47 --undefined-- 53.108
0.48 --undefined-- 53.368
0.49 --undefined-- 53.808
0.50 --undefined-- 53.660
0.51 --undefined-- 52.845
0.52 --undefined-- 52.017
0.53 --undefined-- 51.422
0.54 --undefined-- 50.692
0.55 --undefined-- 49.535
0.56 --undefined-- 48.030
0.57 --undefined-- 46.096
0.58 --undefined-- 44.674
0.59 --undefined-- 45.120
0.60 --undefined-- 46.149
0.61 --undefined-- 46.056
0.62 --undefined-- 44.190
0.63 --undefined-- 42.034
0.64 --undefined-- 44.773
0.65 --undefined-- 56.270
0.66 --undefined-- 65.355
0.67 187.248 70.942
0.68 191.342 74.158
0.69 198.787 76.094
0.70 204.409 77.144
0.71 207.843 77.519
0.72 211.956 77.506
0.73 214.895 77.335
0.74 216.280 77.322
0.75 216.590 77.660
0.76 214.955 77.749
0.77 211.777 76.669
0.78 209.319 74.151
0.79 203.435 71.242
0.80 197.664 70.370
0.81 198.435 72.163
0.82 201.112 74.328
0.83 200.473 75.277
0.84 199.373 75.164
0.85 198.556 74.596
0.86 197.646 73.949
0.87 196.646 73.256
0.88 195.439 72.342
0.89 192.657 71.171
0.90 194.417 70.410
0.91 196.893 70.156
0.92 199.075 70.000
0.93 202.145 69.816
0.94 206.009 69.328
0.95 214.071 68.157
0.96 229.624 65.766
0.97 253.588 62.049
0.98 265.144 61.594
0.99 --undefined-- 68.661
1.00 162.022 74.037
1.01 163.376 76.568
1.02 164.180 77.014
1.03 165.627 76.058
1.04 166.294 74.247
1.05 166.373 71.839
1.06 168.288 69.248
1.07 173.322 67.152
1.08 177.824 65.427
1.09 182.290 64.414
1.10 181.078 65.051
1.11 177.800 65.612
1.12 170.636 64.761
1.13 164.751 62.681
1.14 164.120 59.618
1.15 --undefined-- 55.581
1.16 --undefined-- 52.650
1.17 --undefined-- 51.797
1.18 --undefined-- 53.135
1.19 --undefined-- 60.872
1.20 281.799 67.704
1.21 281.930 71.566
1.22 281.316 73.259
1.23 276.960 73.680
1.24 270.697 73.451
1.25 263.996 72.905
1.26 258.549 72.182
1.27 251.350 71.538
1.28 246.001 71.365
1.29 239.500 71.426
1.30 232.040 71.174
1.31 228.519 70.614
1.32 228.615 69.899
1.33 228.965 68.979
1.34 228.591 67.566
1.35 225.195 65.193
1.36 222.003 61.610
1.37 216.894 57.158
1.38 215.057 54.353
1.39 217.478 55.908
1.40 234.290 62.645
1.41 233.235 68.600
1.42 232.269 72.099
1.43 229.890 74.104
1.44 228.626 75.436
1.45 231.388 76.216
1.46 234.735 76.336
1.47 238.689 75.502
1.48 241.141 72.960
1.49 229.804 68.033
1.50 229.961 61.548
1.51 238.880 57.492
1.52 251.227 59.684
1.53 269.718 67.985
1.54 259.880 73.423
1.55 246.814 75.776
1.56 229.215 76.447
1.57 217.958 76.723
1.58 207.846 76.635
1.59 198.598 76.118
1.60 191.567 75.484
1.61 184.137 75.061
1.62 177.815 74.733
1.63 172.212 73.967
1.64 169.312 72.348
1.65 166.734 69.456
1.66 162.338 65.049
1.67 162.482 59.908
1.68 161.668 55.664
1.69 --undefined-- 53.394
1.70 --undefined-- 54.574
1.71 --undefined-- 58.179
1.72 --undefined-- 62.646
1.73 177.903 67.883
1.74 168.672 71.425
1.75 163.723 72.752
1.76 161.152 72.567
1.77 160.108 71.526
1.78 158.370 69.988
1.79 151.024 68.746
1.80 153.813 68.549
1.81 156.115 68.888
1.82 158.830 69.123
1.83 163.573 69.312
1.84 170.526 69.448
1.85 176.785 69.374
1.86 185.887 69.609
1.87 193.287 70.418
1.88 200.410 71.040
1.89 207.988 71.402
1.90 213.254 71.724
1.91 220.278 71.642
1.92 227.653 71.315
1.93 233.864 71.224
1.94 237.839 70.987
1.95 237.013 69.844
1.96 227.875 67.245
1.97 219.442 62.896
1.98 240.861 59.524
1.99 245.595 64.016
2.00 247.822 70.289
2.01 233.689 74.336
2.02 221.383 75.988
2.03 213.242 76.450
2.04 206.918 76.693
2.05 202.010 76.719
2.06 197.412 76.476
2.07 192.336 76.188
2.08 188.306 75.843
2.09 185.406 75.470
2.10 183.207 75.184
2.11 181.332 74.999
2.12 179.793 74.792
2.13 178.066 74.355
2.14 176.764 73.636
2.15 175.596 72.670
2.16 174.362 71.548
2.17 173.110 70.720
2.18 172.878 70.642
2.19 173.140 71.474
2.20 174.626 73.071
2.21 176.097 74.405
2.22 173.345 74.787
2.23 169.845 74.734
2.24 166.667 74.576
2.25 163.349 74.049
2.26 160.531 73.140
2.27 156.842 72.317
2.28 155.504 71.993
2.29 154.659 71.856
2.30 153.003 71.739
2.31 152.190 71.671
2.32 152.873 71.898
2.33 152.202 72.158
2.34 152.876 72.078
2.35 154.255 71.921
2.36 155.692 71.825
2.37 155.959 71.832
2.38 160.060 72.229
2.39 163.580 73.072
2.40 167.959 74.070
2.41 173.735 74.771
2.42 183.938 75.264
2.43 197.714 76.026
2.44 200.436 76.448
2.45 204.075 76.356
2.46 206.181 76.185
2.47 205.986 75.914
2.48 203.345 75.371
2.49 198.652 74.386
2.50 188.959 72.660
2.51 182.143 69.799
2.52 192.334 65.592
2.53 197.812 60.024
2.54 199.240 53.811
2.55 --undefined-- 50.786
2.56 --undefined-- 49.701
2.57 --undefined-- 49.164
2.58 --undefined-- 49.118
2.59 --undefined-- 48.835
2.60 --undefined-- 48.257
2.61 --undefined-- 48.025
2.62 --undefined-- 48.458
2.63 --undefined-- 48.914
2.64 --undefined-- 49.107
2.65 --undefined-- 48.946
2.66 --undefined-- 48.495
2.67 --undefined-- 48.579
2.68 --undefined-- 49.358
2.69 --undefined-- 49.735
2.70 --undefined-- 49.153
2.71 --undefined-- 48.295
2.72 --undefined-- 47.340
2.73 --undefined-- 45.919
2.74 --undefined-- 44.365
2.75 --undefined-- 43.601
2.76 --undefined-- 43.543
2.77 --undefined-- 43.309
2.78 --undefined-- 42.518
2.79 --undefined-- 40.535
2.80 --undefined-- 39.368
2.81 --undefined-- 40.823
2.82 --undefined-- 43.926
2.83 --undefined-- 48.976
2.84 --undefined-- 53.575
2.85 224.339 60.815
2.86 256.007 68.845
2.87 244.639 73.788
2.88 239.102 75.961
2.89 237.485 76.635
2.90 238.504 76.840
2.91 240.545 76.833
2.92 242.194 76.705
2.93 243.021 76.481
2.94 244.393 75.964
2.95 246.020 75.146
2.96 247.180 74.441
2.97 247.754 73.923
2.98 247.181 73.154
2.99 245.272 71.998
3.00 246.144 71.243
3.01 248.872 71.250
3.02 249.879 71.318
3.03 250.328 71.187
3.04 249.735 70.965
3.05 248.119 70.794
3.06 246.756 70.721
3.07 245.044 70.713
3.08 242.690 70.701
3.09 239.521 70.657
3.10 236.048 70.590
3.11 231.772 70.446
3.12 227.899 70.424
3.13 225.892 71.355
3.14 222.563 73.247
3.15 217.575 74.873
3.16 212.826 75.824
3.17 208.385 76.209
3.18 204.730 76.167
3.19 200.997 75.839
3.20 197.429 75.412
3.21 194.071 75.029
3.22 190.920 74.677
3.23 188.751 74.272
3.24 186.186 73.650
3.25 184.388 73.001
3.26 185.382 72.835
3.27 186.309 73.133
3.28 187.760 73.274
3.29 189.282 72.215
3.30 185.895 69.343
3.31 176.123 65.172
3.32 169.433 60.348
3.33 165.426 55.253
3.34 168.107 53.315
3.35 --undefined-- 54.293
3.36 --undefined-- 59.894
3.37 266.451 68.189
3.38 246.865 73.601
3.39 229.814 76.002
3.40 225.402 76.512
3.41 222.734 76.380
3.42 221.010 76.189
3.43 220.196 76.080
3.44 218.813 76.112
3.45 217.827 76.135
3.46 218.524 75.962
3.47 219.802 75.606
3.48 220.420 75.113
3.49 220.255 74.476
3.50 220.399 73.749
3.51 220.588 73.079
3.52 221.616 72.674
3.53 223.894 72.474
3.54 225.417 71.798
3.55 224.894 69.662
3.56 217.539 65.394
3.57 214.721 59.499
3.58 --undefined-- 53.973
3.59 --undefined-- 49.440
3.60 --undefined-- 47.656
3.61 --undefined-- 50.740
3.62 --undefined-- 55.674
3.63 --undefined-- 59.443
3.64 --undefined-- 61.049
3.65 --undefined-- 60.528
3.66 --undefined-- 59.057
3.67 --undefined-- 59.793
3.68 --undefined-- 62.653
3.69 229.022 65.034
3.70 242.480 66.412
3.71 244.871 67.290
3.72 249.232 68.197
3.73 254.077 69.208
3.74 254.011 70.249
3.75 253.834 71.354
3.76 251.922 72.539
3.77 247.935 73.578
3.78 243.943 74.422
3.79 239.780 75.062
3.80 234.114 75.504
3.81 229.598 75.872
3.82 227.650 76.216
3.83 226.799 76.514
3.84 228.062 76.660
3.85 229.459 76.323
3.86 229.980 75.023
3.87 229.871 72.470
3.88 234.735 70.164
3.89 236.181 69.878
3.90 235.428 70.142
3.91 234.614 70.364
3.92 233.996 70.668
3.93 233.086 71.073
3.94 231.176 71.366
3.95 228.365 71.362
3.96 225.761 71.071
3.97 221.629 70.716
3.98 214.759 70.732
3.99 206.025 71.081
4.00 197.927 71.212
4.01 187.655 70.917
4.02 178.234 70.420
4.03 172.424 70.232
4.04 170.608 70.927
4.05 171.007 72.147
4.06 171.339 73.223
4.07 171.837 74.165
4.08 172.639 75.075
4.09 172.624 75.888
4.10 173.329 76.507
4.11 174.182 76.869
4.12 174.886 77.116
4.13 175.721 77.328
4.14 176.333 77.477
4.15 176.583 77.551
4.16 176.380 77.563
4.17 176.464 77.534
4.18 177.132 77.472
4.19 177.413 77.306
4.20 177.257 76.953
4.21 174.918 76.312
4.22 170.614 75.002
4.23 155.639 72.636
4.24 168.531 69.430
4.25 175.760 65.475
4.26 187.454 60.260
4.27 178.839 55.626
4.28 178.382 52.149
4.29 --undefined-- 48.106
4.30 --undefined-- 46.701
4.31 --undefined-- 47.032
4.32 --undefined-- 45.693
4.33 --undefined-- 42.808
4.34 --undefined-- 39.682
4.35 --undefined-- 40.070
4.36 --undefined-- 48.226
4.37 --undefined-- 57.165
4.38 177.975 62.952
4.39 186.743 66.493
4.40 195.620 68.604
4.41 199.292 70.017
4.42 204.121 71.092
4.43 208.468 71.930
4.44 213.736 72.424
4.45 222.021 72.793
4.46 230.736 73.434
4.47 231.881 74.253
4.48 230.676 74.959
4.49 228.571 75.462
4.50 224.749 75.343
4.51 220.103 74.312
4.52 215.084 73.566
4.53 219.190 74.617
4.54 221.560 75.831
4.55 218.577 76.417
4.56 215.333 76.827
4.57 211.594 76.761
4.58 206.503 76.053
4.59 204.235 75.343
4.60 202.580 75.026
4.61 201.726 75.028
4.62 201.676 75.143
4.63 202.639 75.178
4.64 204.055 75.015
4.65 205.489 74.695
4.66 206.768 74.309
4.67 207.704 73.841
4.68 209.903 73.207
4.69 213.909 72.488
4.70 220.099 71.735
4.71 224.466 70.896
4.72 225.012 69.739
4.73 221.573 68.097
4.74 219.178 65.942
4.75 219.042 63.414
4.76 218.983 61.304
4.77 --undefined-- 59.902
4.78 --undefined-- 58.939
4.79 --undefined-- 58.563
4.80 --undefined-- 58.534
4.81 --undefined-- 58.597
4.82 --undefined-- 58.548
4.83 --undefined-- 58.829
4.84 --undefined-- 59.807
4.85 --undefined-- 61.206
4.86 --undefined-- 62.912
4.87 --undefined-- 65.500
4.88 240.477 68.309
4.89 239.189 70.688
4.90 239.038 72.693
4.91 237.822 74.262
4.92 234.504 74.951
4.93 226.624 74.221
4.94 221.663 71.570
4.95 215.501 66.752
4.96 217.216 60.660
4.97 223.862 54.895
4.98 --undefined-- 48.949
4.99 --undefined-- 44.498
5.00 --undefined-- 43.769
5.01 --undefined-- 43.610
5.02 --undefined-- 42.026
5.03 --undefined-- 39.935
5.04 --undefined-- 39.744
5.05 --undefined-- 41.362
5.06 --undefined-- 42.111
5.07 --undefined-- 41.302
5.08 --undefined-- 40.429
5.09 --undefined-- 46.331
5.10 --undefined-- 55.003
5.11 --undefined-- 59.577
5.12 --undefined-- 60.831
5.13 213.879 62.364
5.14 202.075 64.819
5.15 177.052 64.637
5.16 169.543 61.142
5.17 --undefined-- 54.665
5.18 --undefined-- 46.864
5.19 --undefined-- 44.968
5.20 --undefined-- 45.544
5.21 --undefined-- 48.589
5.22 --undefined-- 51.505
5.23 --undefined-- 53.627
5.24 --undefined-- 56.834
5.25 --undefined-- 60.999
5.26 --undefined-- 67.004
5.27 208.873 71.914
5.28 208.556 74.580
5.29 211.026 75.676
5.30 211.118 76.050
5.31 209.525 76.189
5.32 206.835 76.216
5.33 202.153 76.164
5.34 188.108 76.006
5.35 181.578 75.579
5.36 179.052 74.834
5.37 177.888 74.138
5.38 178.445 73.867
5.39 178.428 73.770
5.40 178.394 73.552
5.41 177.964 73.309
5.42 178.187 73.248
5.43 177.995 73.126
5.44 177.270 72.567
5.45 177.262 71.297
5.46 177.264 --undefined--
5.47 171.531 --undefined--
5.48 --undefined-- --undefined--
5.49 --undefined-- --undefined--
