Time Pitch Intensity
0.01 --undefined-- --undefined--
0.02 136.079 --undefined--
0.03 134.662 --undefined--
0.04 134.520 --undefined--
0.05 137.723 71.132
0.06 136.946 72.731
0.07 137.006 73.485
0.08 136.255 73.404
0.09 135.785 72.965
0.10 135.603 72.590
0.11 135.491 72.414
0.12 135.165 72.340
0.13 135.284 72.323
0.14 135.259 72.293
0.15 135.060 72.012
0.16 135.337 70.987
0.17 130.491 68.984
0.18 129.577 67.130
0.19 132.868 66.285
0.20 133.191 65.651
0.21 132.038 64.771
0.22 128.690 63.475
0.23 123.148 61.545
0.24 78.047 58.858
0.25 --undefined-- 55.655
0.26 --undefined-- 52.858
0.27 --undefined-- 49.751
0.28 --undefined-- 44.702
0.29 --undefined-- 40.566
0.30 --undefined-- 39.647
0.31 --undefined-- 37.748
0.32 --undefined-- 36.425
0.33 --undefined-- 36.363
0.34 --undefined-- 36.150
0.35 --undefined-- 36.381
0.36 --undefined-- 36.068
0.37 --undefined-- 34.054
0.38 --undefined-- 32.649
0.39 --undefined-- 34.165
0.40 --undefined-- 35.252
0.41 --undefined-- 36.266
0.42 --undefined-- 38.101
0.43 --undefined-- 38.428
0.44 --undefined-- 37.739
0.45 --undefined-- 37.628
0.46 --undefined-- 37.179
0.47 --undefined-- 38.010
0.48 --undefined-- 38.440
0.49 --undefined-- 37.738
0.50 --undefined-- 37.572
0.51 --undefined-- 38.445
0.52 --undefined-- 38.968
0.53 --undefined-- 38.130
0.54 --undefined-- 36.242
0.55 --undefined-- 35.961
0.56 --undefined-- 38.415
0.57 --undefined-- 39.738
0.58 --undefined-- 38.830
0.59 --undefined-- 37.301
0.60 --undefined-- 36.774
0.61 --undefined-- 35.251
0.62 --undefined-- 32.869
0.63 --undefined-- 33.182
0.64 --undefined-- 33.517
0.65 --undefined-- 33.100
0.66 --undefined-- 35.110
0.67 --undefined-- 36.847
0.68 --undefined-- 37.133
0.69 --undefined-- 38.553
0.70 --undefined-- 42.077
0.71 --undefined-- 44.986
0.72 --undefined-- 45.299
0.73 --undefined-- 42.599
0.74 --undefined-- 39.311
0.75 --undefined-- 38.953
0.76 --undefined-- 38.899
0.77 --undefined-- 38.359
0.78 --undefined-- 37.719
0.79 --undefined-- 37.521
0.80 --undefined-- 37.331
0.81 --undefined-- 38.262
0.82 --undefined-- 39.325
0.83 --undefined-- 40.165
0.84 --undefined-- 41.157
0.85 --undefined-- 41.478
0.86 --undefined-- 41.250
0.87 --undefined-- 41.124
0.88 --undefined-- 41.076
0.89 --undefined-- 40.919
0.90 --undefined-- 41.043
0.91 --undefined-- 40.879
0.92 --undefined-- 40.103
0.93 --undefined-- 39.535
0.94 --undefined-- 39.420
0.95 --undefined-- 39.167
0.96 --undefined-- 39.171
0.97 --undefined-- 40.264
0.98 --undefined-- 40.530
0.99 --undefined-- 38.161
1.00 --undefined-- 35.321
1.01 --undefined-- 36.904
1.02 --undefined-- 39.558
1.03 --undefined-- 40.774
1.04 --undefined-- 39.343
1.05 --undefined-- 36.168
1.06 --undefined-- 35.866
1.07 --undefined-- 36.615
1.08 --undefined-- 36.257
1.09 --undefined-- 36.023
1.10 --undefined-- 37.016
1.11 --undefined-- 44.226
1.12 --undefined-- 55.289
1.13 --undefined-- 62.811
1.14 --undefined-- 66.133
1.15 --undefined-- 66.803
1.16 173.861 69.725
1.17 180.477 73.717
1.18 176.807 76.292
1.19 169.212 77.593
1.20 166.675 77.630
1.21 172.479 76.869
1.22 167.220 76.076
1.23 173.248 75.020
1.24 181.019 74.147
1.25 184.837 74.427
1.26 188.217 75.620
1.27 189.209 77.482
1.28 189.172 79.441
1.29 189.299 80.679
1.30 189.032 80.864
1.31 188.345 80.291
1.32 187.498 79.380
1.33 185.943 77.709
1.34 181.552 74.105
1.35 164.380 67.915
1.36 143.693 60.187
1.37 --undefined-- 55.243
1.38 --undefined-- 58.837
1.39 --undefined-- 63.608
1.40 --undefined-- 66.612
1.41 --undefined-- 68.749
1.42 133.513 70.938
1.43 136.809 72.106
1.44 134.437 72.141
1.45 127.569 71.417
1.46 120.328 70.332
1.47 117.604 69.467
1.48 115.842 68.771
1.49 115.785 68.183
1.50 120.416 67.974
1.51 121.403 68.081
1.52 121.948 68.204
1.53 122.139 68.052
1.54 121.823 67.232
1.55 113.206 65.116
1.56 --undefined-- 61.048
1.57 --undefined-- 55.212
1.58 --undefined-- 51.806
1.59 --undefined-- 50.939
1.60 --undefined-- 49.962
1.61 --undefined-- 50.517
1.62 --undefined-- 57.202
1.63 --undefined-- 64.965
1.64 156.389 69.839
1.65 143.979 72.285
1.66 139.647 73.160
1.67 137.154 73.429
1.68 136.483 73.645
1.69 136.877 73.528
1.70 136.699 72.618
1.71 133.780 70.889
1.72 131.905 69.407
1.73 133.102 69.062
1.74 132.251 69.050
1.75 130.390 68.935
1.76 130.764 69.501
1.77 133.141 71.759
1.78 130.945 74.549
1.79 129.830 76.360
1.80 126.030 76.777
1.81 122.665 76.557
1.82 122.139 76.683
1.83 123.735 76.889
1.84 127.093 77.028
1.85 132.085 77.769
1.86 134.960 78.681
1.87 137.320 78.674
1.88 141.897 78.020
1.89 145.768 77.891
1.90 149.553 77.829
1.91 156.761 77.269
1.92 160.788 76.936
1.93 163.172 77.016
1.94 164.825 76.766
1.95 163.884 75.760
1.96 160.590 73.992
1.97 162.142 71.484
1.98 166.790 67.832
1.99 170.328 62.581
2.00 --undefined-- 55.519
2.01 --undefined-- 48.189
2.02 --undefined-- 44.778
2.03 --undefined-- 41.799
2.04 --undefined-- 39.670
2.05 --undefined-- 39.859
2.06 --undefined-- 40.370
2.07 --undefined-- 39.618
2.08 --undefined-- 38.808
2.09 --undefined-- 38.859
2.10 --undefined-- 38.770
2.11 --undefined-- 38.146
2.12 --undefined-- 36.680
2.13 --undefined-- 36.614
2.14 --undefined-- 42.043
2.15 --undefined-- 47.829
2.16 --undefined-- 50.403
2.17 --undefined-- 51.007
2.18 --undefined-- 52.151
2.19 --undefined-- 54.945
2.20 --undefined-- 57.255
2.21 --undefined-- 57.390
2.22 --undefined-- 55.868
2.23 --undefined-- 56.215
2.24 --undefined-- 61.792
2.25 151.844 67.010
2.26 147.117 70.680
2.27 147.113 73.122
2.28 146.190 74.347
2.29 144.400 74.601
2.30 142.324 74.627
2.31 143.289 74.381
2.32 125.355 73.310
2.33 124.741 71.771
2.34 118.539 70.369
2.35 110.604 69.470
2.36 112.525 69.144
2.37 120.889 69.554
2.38 131.587 70.220
2.39 131.398 70.807
2.40 129.871 71.593
2.41 128.519 72.487
2.42 128.160 73.033
2.43 128.247 73.166
2.44 128.553 73.299
2.45 129.613 73.668
2.46 129.304 74.052
2.47 137.586 74.516
2.48 144.238 74.967
2.49 154.856 74.868
2.50 162.217 74.694
2.51 167.360 74.596
2.52 169.770 73.145
2.53 161.993 68.994
2.54 162.200 61.808
2.55 --undefined-- 53.340
2.56 --undefined-- 47.111
2.57 --undefined-- 43.681
2.58 --undefined-- 40.823
2.59 --undefined-- 45.559
2.60 --undefined-- 56.008
2.61 --undefined-- 62.271
2.62 --undefined-- 65.051
2.63 --undefined-- 65.231
2.64 --undefined-- 64.088
2.65 --undefined-- 63.846
2.66 --undefined-- 65.631
2.67 192.469 69.523
2.68 193.188 72.520
2.69 187.951 73.838
2.70 182.246 74.314
2.71 181.500 74.487
2.72 181.774 74.043
2.73 181.600 72.488
2.74 179.174 68.923
2.75 172.230 62.422
2.76 --undefined-- 52.961
2.77 --undefined-- 45.796
2.78 --undefined-- 54.501
2.79 --undefined-- 63.980
2.80 202.354 70.013
2.81 173.355 73.180
2.82 153.163 74.600
2.83 146.412 75.025
2.84 140.222 74.286
2.85 131.510 72.240
2.86 127.243 69.966
2.87 127.711 69.142
2.88 124.376 68.646
2.89 121.712 67.717
2.90 119.558 66.780
2.91 115.652 65.737
2.92 113.573 63.843
2.93 --undefined-- 60.596
2.94 --undefined-- 57.983
2.95 --undefined-- 57.058
2.96 --undefined-- 57.139
2.97 --undefined-- 61.832
2.98 119.367 66.420
2.99 134.968 68.956
3.00 135.189 69.641
3.01 127.041 69.227
3.02 117.488 68.624
3.03 112.988 67.890
3.04 109.401 66.773
3.05 106.481 65.563
3.06 103.829 64.558
3.07 105.129 63.926
3.08 107.649 63.333
3.09 105.852 62.592
3.10 104.739 61.994
3.11 105.219 61.649
3.12 103.995 61.171
3.13 102.750 60.577
3.14 101.288 60.000
3.15 99.293 59.316
3.16 83.467 58.187
3.17 --undefined-- 56.295
3.18 --undefined-- 53.624
3.19 --undefined-- 49.224
3.20 --undefined-- 44.081
3.21 --undefined-- 42.348
3.22 --undefined-- 41.644
3.23 --undefined-- 40.663
3.24 --undefined-- 39.110
3.25 --undefined-- 38.599
3.26 --undefined-- 37.823
3.27 --undefined-- 36.625
3.28 --undefined-- 38.969
3.29 --undefined-- 40.996
3.30 --undefined-- 40.668
3.31 --undefined-- 39.226
3.32 --undefined-- 37.771
3.33 --undefined-- 37.371
3.34 --undefined-- 37.369
3.35 --undefined-- 36.845
3.36 --undefined-- 37.289
3.37 --undefined-- 38.985
3.38 --undefined-- 40.041
3.39 --undefined-- 40.554
3.40 --undefined-- 41.384
3.41 --undefined-- 40.691
3.42 --undefined-- 39.323
3.43 --undefined-- 39.539
3.44 --undefined-- 39.681
3.45 --undefined-- 38.793
3.46 --undefined-- 37.929
3.47 --undefined-- 39.008
3.48 --undefined-- 39.925
3.49 --undefined-- 39.537
3.50 --undefined-- 39.739
3.51 --undefined-- 39.784
3.52 --undefined-- 38.477
3.53 --undefined-- 37.374
3.54 --undefined-- 37.423
3.55 --undefined-- 37.530
3.56 --undefined-- 37.405
3.57 --undefined-- 38.474
3.58 --undefined-- 40.829
3.59 --undefined-- 41.902
3.60 --undefined-- 40.809
3.61 --undefined-- 39.200
3.62 --undefined-- 38.911
3.63 --undefined-- 40.332
3.64 --undefined-- 42.462
3.65 --undefined-- 43.237
3.66 --undefined-- 42.168
3.67 --undefined-- 40.396
3.68 --undefined-- 39.567
3.69 --undefined-- 39.624
3.70 --undefined-- 40.049
3.71 --undefined-- 39.688
3.72 --undefined-- 38.850
3.73 --undefined-- 39.147
3.74 --undefined-- 39.590
3.75 --undefined-- 39.305
3.76 --undefined-- 38.984
3.77 --undefined-- 39.100
3.78 --undefined-- 38.812
3.79 --undefined-- 38.133
3.80 --undefined-- 38.269
3.81 --undefined-- 38.582
3.82 --undefined-- 38.777
3.83 --undefined-- 37.847
3.84 --undefined-- 35.593
3.85 --undefined-- 35.043
3.86 --undefined-- 35.389
3.87 --undefined-- 35.594
3.88 --undefined-- 35.819
3.89 --undefined-- 35.937
3.90 --undefined-- 36.114
3.91 --undefined-- 37.530
3.92 --undefined-- 38.766
3.93 --undefined-- 39.849
3.94 --undefined-- 45.172
3.95 --undefined-- 53.906
3.96 --undefined-- 62.537
3.97 --undefined-- 69.220
3.98 157.348 73.695
3.99 155.387 75.824
4.00 152.481 75.378
4.01 153.269 72.953
4.02 169.481 70.590
4.03 177.119 69.627
4.04 185.917 69.486
4.05 191.314 69.628
4.06 191.040 69.230
4.07 184.368 67.255
4.08 171.624 63.186
4.09 --undefined-- 57.448
4.10 --undefined-- 55.009
4.11 --undefined-- 58.060
4.12 --undefined-- 64.256
4.13 192.913 69.674
4.14 174.054 72.702
4.15 159.469 73.632
4.16 149.658 73.382
4.17 143.484 72.759
4.18 139.031 72.123
4.19 136.300 71.481
4.20 133.328 70.823
4.21 129.416 70.336
4.22 126.292 70.081
4.23 125.185 69.971
4.24 125.202 70.108
4.25 125.069 70.650
4.26 125.197 71.302
4.27 123.229 71.588
4.28 119.152 71.578
4.29 118.023 71.889
4.30 118.804 72.281
4.31 115.853 72.109
4.32 114.679 71.630
4.33 113.750 71.400
4.34 113.772 71.736
4.35 113.581 72.698
4.36 113.319 73.808
4.37 115.472 74.859
4.38 116.849 75.759
4.39 119.102 76.268
4.40 121.525 76.183
4.41 125.879 75.580
4.42 129.451 74.690
4.43 133.186 73.558
4.44 134.995 72.338
4.45 135.614 70.926
4.46 136.751 69.047
4.47 128.330 66.203
4.48 129.001 61.787
4.49 --undefined-- 55.484
4.50 --undefined-- 48.308
4.51 --undefined-- 43.816
4.52 --undefined-- 41.807
4.53 --undefined-- 40.455
4.54 --undefined-- 39.610
4.55 --undefined-- 38.825
4.56 --undefined-- 37.729
4.57 --undefined-- 37.539
4.58 --undefined-- 37.462
4.59 --undefined-- 37.044
4.60 --undefined-- 39.278
4.61 --undefined-- 41.314
4.62 --undefined-- 40.855
4.63 --undefined-- 39.336
4.64 --undefined-- 38.915
4.65 --undefined-- 38.309
4.66 --undefined-- 38.138
4.67 --undefined-- 39.369
4.68 --undefined-- 42.591
4.69 --undefined-- 47.486
4.70 --undefined-- 51.048
4.71 --undefined-- 52.903
4.72 --undefined-- 53.691
4.73 --undefined-- 53.554
4.74 --undefined-- 53.560
4.75 --undefined-- 56.702
4.76 --undefined-- 62.655
4.77 144.835 66.777
4.78 137.477 68.362
4.79 123.702 68.497
4.80 119.768 68.708
4.81 119.420 69.487
4.82 118.103 70.115
4.83 117.534 70.261
4.84 118.925 69.987
4.85 118.403 68.772
4.86 115.236 65.989
4.87 115.350 61.972
4.88 102.126 57.882
4.89 --undefined-- 56.067
4.90 --undefined-- 61.811
4.91 172.313 68.428
4.92 161.545 72.923
4.93 158.774 75.650
4.94 154.801 76.994
4.95 156.607 77.694
4.96 160.438 77.872
4.97 165.970 77.359
4.98 172.131 76.536
4.99 177.374 75.480
5.00 178.198 73.179
5.01 175.096 68.496
5.02 --undefined-- 60.760
5.03 --undefined-- 54.779
5.04 --undefined-- 58.473
5.05 --undefined-- 60.885
5.06 --undefined-- 61.130
5.07 --undefined-- 60.232
5.08 --undefined-- 64.467
5.09 162.441 69.965
5.10 156.516 72.915
5.11 137.384 73.810
5.12 132.138 73.901
5.13 128.589 73.944
5.14 125.767 74.045
5.15 123.445 74.042
5.16 122.092 73.786
5.17 121.240 73.215
5.18 122.821 72.552
5.19 123.893 72.564
5.20 125.025 73.306
5.21 127.951 73.908
5.22 129.505 73.769
5.23 135.047 73.022
5.24 135.501 71.920
5.25 133.001 70.191
5.26 127.714 67.538
5.27 123.746 64.143
5.28 --undefined-- 60.628
5.29 --undefined-- 57.628
5.30 --undefined-- 54.751
5.31 --undefined-- 51.398
5.32 --undefined-- 49.671
5.33 --undefined-- 50.021
5.34 --undefined-- 50.926
5.35 --undefined-- 56.653
5.36 --undefined-- 64.141
5.37 144.435 68.561
5.38 127.254 70.478
5.39 118.760 71.230
5.40 116.660 71.460
5.41 113.919 71.072
5.42 112.992 70.403
5.43 114.563 70.051
5.44 115.771 69.987
5.45 118.568 69.400
5.46 117.350 67.618
5.47 115.643 65.489
5.48 120.082 64.839
5.49 127.512 65.138
5.50 131.851 65.064
5.51 133.092 63.903
5.52 130.702 61.370
5.53 129.373 57.845
5.54 --undefined-- 53.974
5.55 --undefined-- 49.791
5.56 --undefined-- 54.268
5.57 --undefined-- 64.242
5.58 --undefined-- 70.478
5.59 --undefined-- 73.507
5.60 156.657 74.287
5.61 154.060 74.032
5.62 153.154 74.017
5.63 152.409 74.195
5.64 152.659 74.169
5.65 154.189 73.836
5.66 155.962 73.280
5.67 158.314 72.888
5.68 159.268 72.971
5.69 158.892 73.093
5.70 157.580 72.384
5.71 155.650 70.792
5.72 156.947 69.533
5.73 158.441 68.927
5.74 158.595 67.936
5.75 155.490 65.572
5.76 148.326 61.049
5.77 --undefined-- 54.025
5.78 --undefined-- 46.314
5.79 --undefined-- 43.980
5.80 --undefined-- 44.328
5.81 --undefined-- 44.577
5.82 --undefined-- 44.123
5.83 --undefined-- 43.323
5.84 --undefined-- 45.353
5.85 --undefined-- 53.737
5.86 --undefined-- 59.747
5.87 105.439 62.763
5.88 103.344 63.711
5.89 99.587 63.547
5.90 96.795 63.005
5.91 96.540 62.581
5.92 99.311 62.389
5.93 102.852 61.580
5.94 103.147 59.245
5.95 --undefined-- 55.062
5.96 --undefined-- 49.716
5.97 --undefined-- 48.156
5.98 --undefined-- 52.645
5.99 --undefined-- 56.576
6.00 --undefined-- 62.219
6.01 140.410 67.255
6.02 131.033 70.076
6.03 127.737 71.471
6.04 125.080 72.376
6.05 125.080 72.942
6.06 126.295 73.025
6.07 129.552 72.753
6.08 131.463 72.410
6.09 133.273 71.863
6.10 133.188 70.790
6.11 131.344 69.775
6.12 132.220 69.247
6.13 133.380 68.783
6.14 132.006 67.806
6.15 129.377 65.870
6.16 126.704 62.544
6.17 --undefined-- 57.340
6.18 --undefined-- 49.856
6.19 --undefined-- 45.964
6.20 --undefined-- 48.678
6.21 --undefined-- 54.129
6.22 --undefined-- 61.898
6.23 172.917 67.582
6.24 162.360 71.144
6.25 157.401 73.159
6.26 156.256 74.101
6.27 155.328 74.355
6.28 154.685 74.075
6.29 153.590 73.147
6.30 150.583 71.515
6.31 146.936 69.730
6.32 145.168 68.458
6.33 142.065 67.471
6.34 138.086 66.610
6.35 137.086 66.755
6.36 140.987 68.555
6.37 139.078 70.539
6.38 134.410 72.167
6.39 132.479 73.662
6.40 130.132 74.863
6.41 127.161 75.479
6.42 126.139 75.592
6.43 126.688 75.636
6.44 127.224 75.840
6.45 127.102 76.171
6.46 126.896 76.310
6.47 126.687 75.988
6.48 126.828 75.339
6.49 126.697 74.573
6.50 126.529 73.826
6.51 126.662 72.984
6.52 127.566 71.833
6.53 127.154 70.628
6.54 126.610 69.645
6.55 121.861 68.424
6.56 122.195 66.754
6.57 123.194 64.989
6.58 --undefined-- 62.988
6.59 --undefined-- 60.309
6.60 --undefined-- 56.572
6.61 --undefined-- 51.999
6.62 --undefined-- 47.571
6.63 --undefined-- 43.907
6.64 --undefined-- 41.701
6.65 --undefined-- 40.851
6.66 --undefined-- 40.366
6.67 --undefined-- 39.424
6.68 --undefined-- 38.799
6.69 --undefined-- 39.800
6.70 --undefined-- 41.609
6.71 --undefined-- 41.241
6.72 --undefined-- 38.602
6.73 --undefined-- 38.090
6.74 --undefined-- 40.160
6.75 --undefined-- 41.214
6.76 --undefined-- 40.344
6.77 --undefined-- 39.313
6.78 --undefined-- 39.981
6.79 --undefined-- 40.773
6.80 --undefined-- 41.058
6.81 --undefined-- 42.235
6.82 --undefined-- 43.299
6.83 --undefined-- 42.159
6.84 --undefined-- 39.906
6.85 --undefined-- 38.995
6.86 --undefined-- 38.225
6.87 --undefined-- 37.785
6.88 --undefined-- 37.772
6.89 --undefined-- 37.377
6.90 --undefined-- 38.309
6.91 --undefined-- 38.824
6.92 --undefined-- 38.165
6.93 --undefined-- 37.771
6.94 --undefined-- 37.291
6.95 --undefined-- 37.039
6.96 --undefined-- 37.891
6.97 --undefined-- 39.050
6.98 --undefined-- 38.777
6.99 --undefined-- 39.015
7.00 --undefined-- 41.569
7.01 --undefined-- 43.135
7.02 --undefined-- 42.533
7.03 --undefined-- 41.322
7.04 --undefined-- 41.447
7.05 --undefined-- 41.547
7.06 --undefined-- 41.557
7.07 --undefined-- 41.190
7.08 --undefined-- 39.878
7.09 --undefined-- 38.937
7.10 --undefined-- 39.400
7.11 --undefined-- 40.152
7.12 --undefined-- 41.037
7.13 --undefined-- 41.032
7.14 --undefined-- 39.168
7.15 --undefined-- 38.778
7.16 --undefined-- 39.943
7.17 --undefined-- 39.150
7.18 --undefined-- 37.116
7.19 --undefined-- 39.443
7.20 --undefined-- 47.692
7.21 --undefined-- 53.806
7.22 --undefined-- 56.021
7.23 --undefined-- 55.086
7.24 --undefined-- 53.030
7.25 --undefined-- 51.219
7.26 --undefined-- 51.004
7.27 --undefined-- 54.256
7.28 --undefined-- 61.029
7.29 160.225 66.681
7.30 156.792 69.613
7.31 139.189 --undefined--
7.32 138.269 --undefined--
7.33 --undefined-- --undefined--
7.34 --undefined-- --undefined--
