Time Pitch Intensity
0.01 --undefined-- --undefined--
0.02 177.835 --undefined--
0.03 182.438 --undefined--
0.04 188.261 --undefined--
0.05 188.412 69.055
0.06 186.646 69.903
0.07 179.706 69.674
0.08 183.696 69.416
0.09 187.226 69.838
0.10 191.438 70.159
0.11 195.554 69.755
0.12 201.688 68.537
0.13 204.965 67.160
0.14 217.841 66.875
0.15 222.914 67.446
0.16 228.844 67.891
0.17 235.131 67.897
0.18 240.036 67.664
0.19 243.444 67.514
0.20 244.654 67.485
0.21 244.337 67.337
0.22 243.802 67.089
0.23 237.645 67.093
0.24 228.934 67.580
0.25 218.362 68.323
0.26 206.058 69.408
0.27 194.691 70.828
0.28 185.117 72.054
0.29 179.033 72.650
0.30 174.918 72.816
0.31 176.517 72.554
0.32 178.493 71.956
0.33 180.645 71.397
0.34 182.370 70.556
0.35 184.657 69.453
0.36 187.258 68.593
0.37 184.681 67.146
0.38 181.547 63.763
0.39 180.445 58.630
0.40 181.164 54.313
0.41 185.892 52.428
0.42 --undefined-- 57.245
0.43 237.012 63.310
0.44 221.782 66.404
0.45 206.632 66.965
0.46 204.754 66.647
0.47 204.078 66.591
0.48 203.969 66.529
0.49 204.470 66.325
0.50 206.424 66.077
0.51 206.940 65.086
0.52 206.981 62.319
0.53 --undefined-- 57.351
0.54 --undefined-- 51.484
0.55 --undefined-- 48.856
0.56 --undefined-- 50.465
0.57 --undefined-- 51.328
0.58 --undefined-- 49.849
0.59 --undefined-- 53.096
0.60 --undefined-- 62.409
0.61 --undefined-- 68.309
0.62 215.461 71.101
0.63 210.213 72.058
0.64 206.045 71.990
0.65 204.582 71.436
0.66 205.423 70.746
0.67 207.537 69.507
0.68 208.841 67.366
0.69 209.163 64.604
0.70 207.314 61.059
0.71 206.054 56.702
0.72 206.865 55.144
0.73 207.793 54.607
0.74 --undefined-- 52.420
0.75 --undefined-- 50.210
0.76 --undefined-- 49.178
0.77 --undefined-- 50.052
0.78 --undefined-- 52.793
0.79 --undefined-- 55.378
0.80 --undefined-- 58.235
0.81 267.745 62.147
0.82 256.532 64.951
0.83 252.814 66.247
0.84 252.387 66.828
0.85 253.215 67.263
0.86 254.415 67.692
0.87 255.719 68.039
0.88 257.736 68.223
0.89 259.972 68.419
0.90 260.910 68.830
0.91 261.211 69.292
0.92 261.816 69.431
0.93 262.692 69.040
0.94 264.157 68.200
0.95 266.962 67.250
0.96 268.919 66.683
0.97 271.481 66.719
0.98 273.301 67.001
0.99 273.515 66.703
1.00 271.295 65.014
1.01 263.528 61.340
1.02 237.334 56.263
1.03 268.892 53.999
1.04 --undefined-- 53.739
1.05 --undefined-- 51.987
1.06 --undefined-- 48.262
1.07 --undefined-- 44.635
1.08 --undefined-- 45.305
1.09 --undefined-- 46.753
1.10 --undefined-- 48.787
1.11 --undefined-- 51.911
1.12 --undefined-- 53.121
1.13 --undefined-- 52.302
1.14 --undefined-- 51.563
1.15 --undefined-- 52.217
1.16 --undefined-- 53.682
1.17 --undefined-- 55.520
1.18 --undefined-- 56.927
1.19 295.466 59.459
1.20 295.888 64.348
1.21 296.574 67.559
1.22 292.813 68.499
1.23 288.562 68.106
1.24 283.696 67.457
1.25 281.397 67.127
1.26 281.115 67.097
1.27 280.704 67.163
1.28 280.745 67.204
1.29 281.579 67.216
1.30 282.377 67.258
1.31 282.348 67.179
1.32 282.134 66.880
1.33 281.823 66.568
1.34 281.279 66.252
1.35 279.192 65.617
1.36 275.302 64.167
1.37 267.289 61.234
1.38 257.945 56.253
1.39 --undefined-- 50.589
1.40 --undefined-- 48.975
1.41 --undefined-- 49.236
1.42 --undefined-- 49.190
1.43 --undefined-- 49.696
1.44 --undefined-- 52.214
1.45 --undefined-- 54.019
1.46 --undefined-- 52.808
1.47 --undefined-- 48.798
1.48 --undefined-- 46.623
1.49 --undefined-- 50.295
1.50 --undefined-- 54.676
1.51 --undefined-- 60.214
1.52 197.392 65.390
1.53 194.255 68.928
1.54 192.558 71.150
1.55 191.831 72.480
1.56 193.421 73.102
1.57 195.794 72.883
1.58 203.001 71.560
1.59 207.860 69.244
1.60 211.824 67.391
1.61 216.574 67.235
1.62 222.228 67.415
1.63 223.269 67.261
1.64 238.363 66.815
1.65 236.666 65.917
1.66 234.221 63.937
1.67 229.405 60.156
1.68 223.859 54.791
1.69 --undefined-- 49.549
1.70 --undefined-- 46.845
1.71 --undefined-- 48.799
1.72 --undefined-- 53.006
1.73 --undefined-- 55.083
1.74 --undefined-- 54.273
1.75 --undefined-- 54.323
1.76 --undefined-- 60.309
1.77 267.991 65.136
1.78 261.425 67.653
1.79 260.203 68.798
1.80 258.548 69.195
1.81 258.013 68.754
1.82 257.569 67.495
1.83 251.124 66.055
1.84 240.515 64.591
1.85 225.786 62.730
1.86 213.837 61.038
1.87 209.155 60.841
1.88 217.738 64.056
1.89 219.924 68.187
1.90 224.518 70.238
1.91 207.800 70.125
1.92 196.405 70.097
1.93 188.681 71.561
1.94 184.202 72.889
1.95 179.380 73.418
1.96 176.187 73.362
1.97 175.638 72.852
1.98 176.262 72.046
1.99 177.461 71.179
2.00 178.348 70.248
2.01 179.235 69.533
2.02 181.471 69.302
2.03 183.385 69.277
2.04 182.068 68.965
2.05 182.456 68.733
2.06 184.125 69.104
2.07 183.251 69.510
2.08 182.606 69.635
2.09 182.431 69.636
2.10 182.428 69.650
2.11 182.018 69.672
2.12 181.313 69.591
2.13 180.300 69.339
2.14 179.685 69.033
2.15 178.657 68.739
2.16 177.443 68.348
2.17 175.215 67.868
2.18 173.394 67.466
2.19 172.369 67.486
2.20 172.346 68.767
2.21 171.262 70.214
2.22 169.086 70.601
2.23 166.840 70.687
2.24 166.331 71.053
2.25 166.007 71.221
2.26 165.337 71.132
2.27 165.509 71.116
2.28 166.434 71.148
2.29 168.136 71.048
2.30 171.216 70.729
2.31 175.507 70.062
2.32 180.083 69.065
2.33 186.665 68.041
2.34 195.812 67.088
2.35 202.614 66.143
2.36 210.613 65.545
2.37 217.737 65.725
2.38 221.788 66.197
2.39 225.842 66.461
2.40 231.145 66.603
2.41 235.535 66.732
2.42 240.069 66.894
2.43 244.600 67.083
2.44 247.340 67.038
2.45 248.760 66.439
2.46 247.053 64.846
2.47 240.088 61.693
2.48 234.384 56.816
2.49 --undefined-- 51.680
2.50 --undefined-- 50.293
2.51 --undefined-- 50.396
2.52 --undefined-- 52.262
2.53 --undefined-- 59.755
2.54 --undefined-- 65.568
2.55 150.568 68.319
2.56 147.067 69.196
2.57 147.208 69.524
2.58 148.771 69.638
2.59 150.645 69.760
2.60 152.109 70.211
2.61 153.244 70.873
2.62 154.497 71.616
2.63 155.634 72.240
2.64 156.442 72.543
2.65 157.174 72.509
2.66 157.618 72.122
2.67 158.073 71.420
2.68 158.246 70.478
2.69 157.611 69.286
2.70 154.426 68.513
2.71 151.826 68.133
2.72 292.510 66.834
2.73 279.699 64.809
2.74 281.684 62.550
2.75 277.949 58.727
2.76 --undefined-- 52.560
2.77 --undefined-- 49.004
2.78 --undefined-- 50.230
2.79 --undefined-- 49.744
2.80 --undefined-- 49.376
2.81 --undefined-- 50.675
2.82 --undefined-- 52.734
2.83 --undefined-- 54.767
2.84 --undefined-- 55.354
2.85 --undefined-- 54.472
2.86 --undefined-- 52.663
2.87 --undefined-- 51.035
2.88 --undefined-- 50.693
2.89 --undefined-- 52.926
2.90 --undefined-- 54.372
2.91 --undefined-- 52.814
2.92 --undefined-- 49.176
2.93 --undefined-- 48.595
2.94 --undefined-- 49.747
2.95 --undefined-- 49.324
2.96 --undefined-- 48.999
2.97 --undefined-- 49.977
2.98 --undefined-- 50.390
2.99 --undefined-- 50.305
3.00 --undefined-- 49.086
3.01 --undefined-- 46.073
3.02 --undefined-- 42.829
3.03 --undefined-- 41.228
3.04 --undefined-- 41.089
3.05 --undefined-- 44.294
3.06 --undefined-- 49.006
3.07 --undefined-- 51.251
3.08 --undefined-- 50.251
3.09 --undefined-- 48.622
3.10 --undefined-- 56.793
3.11 --undefined-- 65.420
3.12 --undefined-- 70.415
3.13 293.421 72.760
3.14 293.125 73.786
3.15 294.126 74.326
3.16 295.770 74.584
3.17 296.104 74.755
3.18 295.657 74.829
3.19 294.371 74.614
3.20 292.918 74.247
3.21 297.062 74.153
3.22 299.105 74.056
3.23 299.882 73.702
3.24 150.416 73.294
3.25 150.809 72.817
3.26 --undefined-- 72.288
3.27 296.792 72.135
3.28 296.238 72.375
3.29 295.909 72.472
3.30 296.054 72.357
3.31 296.914 72.160
3.32 296.528 71.911
3.33 296.333 71.350
3.34 293.822 69.802
3.35 285.792 66.545
3.36 273.001 61.168
3.37 --undefined-- 55.693
3.38 --undefined-- 58.481
3.39 --undefined-- 65.418
3.40 167.032 70.317
3.41 165.272 72.636
3.42 164.701 73.452
3.43 165.656 73.848
3.44 166.777 74.119
3.45 166.971 74.118
3.46 168.146 73.713
3.47 171.498 73.023
3.48 173.104 72.524
3.49 173.266 72.463
3.50 173.572 72.751
3.51 174.434 73.408
3.52 173.340 74.045
3.53 172.746 74.213
3.54 172.691 73.870
3.55 172.978 73.085
3.56 173.565 72.007
3.57 174.188 70.800
3.58 174.439 69.500
3.59 173.120 67.738
3.60 166.567 64.675
3.61 157.780 59.993
3.62 173.767 55.796
3.63 172.807 54.712
3.64 172.901 53.776
3.65 --undefined-- 53.348
3.66 --undefined-- 53.379
3.67 --undefined-- 51.191
3.68 --undefined-- 47.181
3.69 --undefined-- 47.059
3.70 --undefined-- 51.042
3.71 --undefined-- 55.440
3.72 --undefined-- 60.542
3.73 198.933 65.067
3.74 198.067 68.008
3.75 197.558 69.540
3.76 195.395 69.859
3.77 195.517 69.116
3.78 200.329 67.547
3.79 207.168 65.722
3.80 213.815 64.547
3.81 214.986 63.887
3.82 213.611 62.796
3.83 204.520 61.080
3.84 201.832 59.188
3.85 201.156 56.965
3.86 213.298 56.576
3.87 289.201 60.892
3.88 288.328 64.530
3.89 290.219 66.277
3.90 205.510 66.685
3.91 193.916 66.839
3.92 184.420 67.394
3.93 179.692 68.113
3.94 172.591 68.499
3.95 171.960 67.994
3.96 175.156 66.703
3.97 177.539 66.121
3.98 180.438 66.904
3.99 180.751 67.399
4.00 180.260 66.568
4.01 180.061 64.244
4.02 181.000 60.790
4.03 187.621 58.658
4.04 185.031 58.273
4.05 236.420 56.770
4.06 236.059 58.018
4.07 225.351 62.010
4.08 218.369 64.271
4.09 217.149 65.460
4.10 217.204 66.479
4.11 218.956 67.225
4.12 221.353 67.484
4.13 224.701 67.309
4.14 229.779 67.058
4.15 232.257 67.022
4.16 232.593 66.997
4.17 233.871 67.203
4.18 235.172 67.659
4.19 235.531 67.986
4.20 236.384 68.147
4.21 235.583 68.311
4.22 234.755 68.391
4.23 233.761 68.325
4.24 232.828 68.146
4.25 233.761 67.854
4.26 235.396 67.370
4.27 234.817 66.249
4.28 234.058 63.757
4.29 233.154 59.205
4.30 --undefined-- 54.007
4.31 --undefined-- 53.063
4.32 --undefined-- 52.459
4.33 --undefined-- 51.547
4.34 --undefined-- 51.946
4.35 --undefined-- 50.569
4.36 --undefined-- 47.954
4.37 --undefined-- 47.615
4.38 --undefined-- 48.542
4.39 --undefined-- 48.715
4.40 --undefined-- 47.969
4.41 --undefined-- 48.898
4.42 --undefined-- 55.619
4.43 --undefined-- 62.502
4.44 244.248 66.579
4.45 239.536 68.601
4.46 235.636 69.628
4.47 232.837 70.332
4.48 232.058 70.937
4.49 232.228 71.481
4.50 232.852 72.079
4.51 233.703 72.736
4.52 235.057 73.254
4.53 237.231 73.533
4.54 238.742 73.567
4.55 239.615 73.307
4.56 240.046 72.661
4.57 238.825 71.921
4.58 235.596 71.106
4.59 232.155 69.596
4.60 226.838 66.984
4.61 219.754 64.300
4.62 216.116 63.117
4.63 --undefined-- 62.767
4.64 --undefined-- 61.440
4.65 --undefined-- 58.855
4.66 --undefined-- 56.287
4.67 --undefined-- 53.650
4.68 240.073 52.801
4.69 230.733 54.291
4.70 233.479 54.371
4.71 --undefined-- 53.494
4.72 --undefined-- 53.293
4.73 --undefined-- 53.230
4.74 --undefined-- 53.851
4.75 --undefined-- 54.905
4.76 --undefined-- 56.082
4.77 --undefined-- 55.835
4.78 --undefined-- 54.358
4.79 --undefined-- 55.586
4.80 --undefined-- 57.320
4.81 --undefined-- 57.527
4.82 --undefined-- 57.559
4.83 --undefined-- 56.214
4.84 --undefined-- 52.651
4.85 --undefined-- 49.874
4.86 --undefined-- 49.349
4.87 --undefined-- 50.120
4.88 --undefined-- 51.373
4.89 --undefined-- 51.787
4.90 --undefined-- 51.222
4.91 --undefined-- 51.758
4.92 --undefined-- 52.081
4.93 --undefined-- 50.075
4.94 --undefined-- 47.791
4.95 --undefined-- 50.172
4.96 --undefined-- 53.676
4.97 --undefined-- 54.903
4.98 --undefined-- 52.801
4.99 --undefined-- 48.780
5.00 --undefined-- 48.896
5.01 --undefined-- 49.064
5.02 --undefined-- 47.802
5.03 --undefined-- 46.523
5.04 --undefined-- 48.507
5.05 --undefined-- 55.925
5.06 220.245 62.553
5.07 210.068 --undefined--
5.08 201.695 --undefined--
5.09 --undefined-- --undefined--
5.10 --undefined-- --undefined--
