Time Pitch Intensity
0.01 --undefined-- --undefined--
0.02 --undefined-- --undefined--
0.03 --undefined-- --undefined--
0.04 --undefined-- --undefined--
0.05 --undefined-- 70.740
0.06 109.718 73.177
0.07 104.318 74.270
0.08 100.486 74.646
0.09 99.714 74.813
0.10 102.077 74.907
0.11 103.730 74.828
0.12 106.265 74.722
0.13 108.059 74.343
0.14 108.698 73.312
0.15 108.740 71.701
0.16 112.137 69.492
0.17 113.232 66.389
0.18 108.717 63.971
0.19 --undefined-- 64.377
0.20 --undefined-- 64.343
0.21 --undefined-- 62.794
0.22 --undefined-- 60.498
0.23 --undefined-- 57.811
0.24 --undefined-- 60.049
0.25 154.581 67.171
0.26 149.689 71.877
0.27 140.405 73.876
0.28 133.108 74.085
0.29 129.304 73.494
0.30 126.177 73.100
0.31 128.720 73.678
0.32 130.201 74.416
0.33 128.256 74.644
0.34 126.630 74.553
0.35 126.364 74.349
0.36 126.070 74.065
0.37 126.215 73.704
0.38 126.984 73.294
0.39 127.472 72.969
0.40 127.818 72.795
0.41 128.166 72.734
0.42 128.153 72.736
0.43 127.492 72.729
0.44 126.613 72.630
0.45 125.729 72.233
0.46 122.649 71.139
0.47 119.478 68.922
0.48 118.619 65.445
0.49 120.363 60.636
0.50 --undefined-- 55.014
0.51 --undefined-- 57.980
0.52 --undefined-- 66.384
0.53 --undefined-- 71.332
0.54 118.903 73.251
0.55 106.323 73.554
0.56 97.725 73.636
0.57 103.026 73.500
0.58 97.217 72.997
0.59 101.648 72.479
0.60 98.273 71.904
0.61 97.287 71.467
0.62 98.722 71.239
0.63 98.029 70.980
0.64 97.529 70.743
0.65 96.934 70.680
0.66 96.363 70.613
0.67 96.663 70.346
0.68 97.206 69.973
0.69 97.737 69.424
0.70 96.719 68.297
0.71 92.957 67.222
0.72 107.332 68.633
0.73 104.208 71.245
0.74 102.897 73.058
0.75 101.831 74.169
0.76 101.464 75.086
0.77 102.074 75.738
0.78 101.683 75.765
0.79 100.706 75.372
0.80 99.885 75.239
0.81 98.935 75.432
0.82 98.731 75.630
0.83 98.956 75.584
0.84 98.673 75.143
0.85 97.223 74.418
0.86 94.986 73.632
0.87 92.885 72.954
0.88 90.149 72.215
0.89 87.616 71.976
0.90 85.118 72.668
0.91 80.195 73.027
0.92 81.348 72.529
0.93 --undefined-- 71.642
0.94 --undefined-- 70.925
0.95 --undefined-- 70.434
0.96 --undefined-- 69.531
0.97 --undefined-- 67.933
0.98 --undefined-- 65.989
0.99 --undefined-- 64.426
1.00 80.062 64.188
1.01 82.052 65.350
1.02 90.320 66.969
1.03 97.629 68.145
1.04 99.473 68.578
1.05 98.402 68.204
1.06 96.792 67.945
1.07 107.148 68.769
1.08 105.365 69.512
1.09 100.993 69.532
1.10 99.544 69.072
1.11 100.295 68.036
1.12 99.722 65.761
1.13 103.734 62.172
1.14 --undefined-- 61.351
1.15 --undefined-- 65.372
1.16 --undefined-- 70.785
1.17 125.548 74.228
1.18 117.110 75.584
1.19 115.386 76.020
1.20 114.856 76.226
1.21 114.687 76.168
1.22 113.822 75.958
1.23 113.535 75.707
1.24 114.549 75.423
1.25 115.486 75.230
1.26 116.570 74.868
1.27 118.438 73.779
1.28 117.174 71.723
1.29 115.011 68.448
1.30 116.285 63.854
1.31 118.101 60.088
1.32 118.258 57.922
1.33 116.958 56.469
1.34 114.629 55.859
1.35 111.233 55.762
1.36 119.312 56.235
1.37 --undefined-- 56.265
1.38 --undefined-- 55.642
1.39 --undefined-- 54.288
1.40 --undefined-- 52.496
1.41 --undefined-- 51.624
1.42 --undefined-- 51.636
1.43 --undefined-- 51.896
1.44 --undefined-- 52.206
1.45 --undefined-- 51.982
1.46 --undefined-- 51.691
1.47 --undefined-- 51.124
1.48 --undefined-- 50.482
1.49 --undefined-- 50.108
1.50 --undefined-- 50.011
1.51 --undefined-- 49.889
1.52 --undefined-- 48.964
1.53 --undefined-- 48.196
1.54 --undefined-- 48.127
1.55 --undefined-- 47.535
1.56 --undefined-- 48.109
1.57 --undefined-- 53.487
1.58 --undefined-- 56.603
1.59 --undefined-- 55.619
1.60 --undefined-- 50.569
1.61 --undefined-- 45.065
1.62 --undefined-- 45.444
1.63 --undefined-- 52.517
1.64 --undefined-- 63.262
1.65 206.902 69.936
1.66 186.636 73.371
1.67 184.615 74.840
1.68 183.501 75.461
1.69 181.182 75.808
1.70 177.067 76.059
1.71 170.805 76.341
1.72 164.634 76.775
1.73 159.756 76.952
1.74 156.217 76.248
1.75 152.914 74.409
1.76 153.045 71.108
1.77 154.761 65.830
1.78 153.716 60.487
1.79 156.644 61.001
1.80 184.296 67.708
1.81 164.957 73.023
1.82 162.367 75.699
1.83 160.367 76.386
1.84 158.085 76.055
1.85 155.201 75.596
1.86 153.089 75.458
1.87 152.330 75.341
1.88 151.791 75.006
1.89 151.960 74.818
1.90 153.582 75.017
1.91 157.069 75.419
1.92 161.961 75.737
1.93 167.973 75.762
1.94 174.121 75.361
1.95 178.110 74.215
1.96 180.067 71.991
1.97 175.562 69.665
1.98 182.379 69.687
1.99 186.251 70.906
2.00 186.631 71.528
2.01 184.747 71.648
2.02 180.862 71.828
2.03 175.229 72.587
2.04 169.278 73.669
2.05 163.494 74.430
2.06 157.182 74.563
2.07 150.351 74.368
2.08 145.549 74.532
2.09 142.054 74.948
2.10 140.360 75.299
2.11 139.487 75.491
2.12 138.688 75.594
2.13 139.227 75.572
2.14 139.883 75.187
2.15 140.561 73.950
2.16 139.271 70.995
2.17 129.199 66.223
2.18 135.610 62.083
2.19 139.477 64.722
2.20 150.733 70.726
2.21 148.636 73.888
2.22 136.298 74.591
2.23 125.176 74.660
2.24 122.313 74.999
2.25 120.343 74.975
2.26 119.538 74.411
2.27 118.156 73.698
2.28 116.510 73.491
2.29 115.813 73.740
2.30 115.948 73.843
2.31 116.298 73.572
2.32 116.677 73.021
2.33 119.943 72.365
2.34 124.865 71.755
2.35 127.417 71.206
2.36 130.369 70.870
2.37 135.871 71.782
2.38 139.803 73.552
2.39 141.225 74.579
2.40 143.679 74.836
2.41 146.473 75.022
2.42 148.929 75.290
2.43 150.867 75.040
2.44 152.444 73.460
2.45 148.347 70.218
2.46 151.649 66.411
2.47 156.292 63.980
2.48 160.209 64.041
2.49 170.835 67.125
2.50 172.184 70.213
2.51 176.951 71.986
2.52 176.664 73.194
2.53 174.235 74.369
2.54 173.121 75.403
2.55 172.705 76.129
2.56 171.540 76.453
2.57 170.623 76.516
2.58 169.665 76.466
2.59 169.133 76.370
2.60 168.504 76.268
2.61 167.449 75.894
2.62 165.943 74.715
2.63 163.823 72.234
2.64 156.974 68.180
2.65 156.911 62.709
2.66 163.848 57.539
2.67 162.063 55.156
2.68 162.569 53.474
2.69 --undefined-- 51.414
2.70 --undefined-- 50.384
2.71 --undefined-- 50.338
2.72 --undefined-- 50.509
2.73 --undefined-- 50.359
2.74 --undefined-- 49.862
2.75 --undefined-- 48.849
2.76 --undefined-- 48.196
2.77 --undefined-- 48.572
2.78 --undefined-- 50.142
2.79 --undefined-- 58.695
2.80 --undefined-- 66.869
2.81 --undefined-- 71.358
2.82 122.077 73.183
2.83 120.153 73.864
2.84 118.344 74.279
2.85 119.108 74.396
2.86 122.484 74.266
2.87 127.035 74.064
2.88 132.832 73.943
2.89 140.265 74.515
2.90 146.080 75.843
2.91 151.782 76.750
2.92 158.019 76.697
2.93 169.894 75.664
2.94 173.611 73.513
2.95 166.761 70.064
2.96 162.142 65.643
2.97 162.719 61.239
2.98 162.340 58.821
2.99 158.925 58.028
3.00 --undefined-- 56.912
3.01 --undefined-- 55.287
3.02 --undefined-- 53.304
3.03 --undefined-- 55.580
3.04 --undefined-- 62.299
3.05 130.729 66.985
3.06 123.883 69.452
3.07 117.972 70.780
3.08 115.248 71.702
3.09 113.871 72.458
3.10 114.467 73.205
3.11 116.001 73.713
3.12 116.383 73.585
3.13 114.948 72.438
3.14 103.316 71.231
3.15 124.019 72.427
3.16 122.292 74.095
3.17 120.247 74.823
3.18 120.239 75.024
3.19 113.891 74.903
3.20 111.452 74.612
3.21 106.023 74.445
3.22 100.318 74.223
3.23 99.929 73.532
3.24 99.558 72.084
3.25 88.023 70.410
3.26 94.934 69.494
3.27 92.846 68.960
3.28 87.684 68.505
3.29 87.629 68.761
3.30 90.619 69.341
3.31 93.213 69.719
3.32 93.973 69.897
3.33 95.561 70.093
3.34 98.572 70.795
3.35 97.681 71.736
3.36 97.373 72.313
3.37 96.798 72.545
3.38 96.787 72.766
3.39 97.704 73.097
3.40 97.225 73.166
3.41 95.846 72.657
3.42 93.756 71.775
3.43 94.232 70.929
3.44 94.314 69.850
3.45 92.896 67.830
3.46 90.524 64.410
3.47 --undefined-- 59.217
3.48 --undefined-- 52.300
3.49 --undefined-- 46.531
3.50 --undefined-- 44.237
3.51 --undefined-- 44.601
3.52 --undefined-- 47.457
3.53 --undefined-- 51.320
3.54 --undefined-- 53.468
3.55 --undefined-- 54.245
3.56 --undefined-- 55.983
3.57 --undefined-- 60.384
3.58 --undefined-- 64.492
3.59 --undefined-- 66.497
3.60 --undefined-- 67.973
3.61 --undefined-- 69.545
3.62 --undefined-- 70.202
3.63 82.087 70.509
3.64 81.521 71.630
3.65 --undefined-- 72.162
3.66 77.280 72.455
3.67 77.652 72.947
3.68 88.320 73.185
3.69 96.215 73.133
3.70 105.458 73.052
3.71 107.780 73.009
3.72 108.736 72.805
3.73 114.731 72.186
3.74 119.430 71.550
3.75 132.057 71.730
3.76 140.173 72.733
3.77 144.542 74.132
3.78 146.430 75.154
3.79 147.937 75.440
3.80 148.961 75.475
3.81 146.681 75.607
3.82 142.569 75.544
3.83 137.593 75.313
3.84 132.794 75.252
3.85 127.450 75.310
3.86 122.845 75.164
3.87 115.872 74.680
3.88 107.145 74.104
3.89 101.843 73.638
3.90 101.922 73.009
3.91 102.133 71.865
3.92 117.778 70.169
3.93 131.091 68.048
3.94 131.501 65.903
3.95 117.783 64.822
3.96 116.863 64.459
3.97 123.733 63.408
3.98 131.767 61.514
3.99 142.250 60.740
4.00 141.930 62.685
4.01 142.362 64.531
4.02 147.523 65.691
4.03 150.377 67.682
4.04 148.977 70.196
4.05 147.466 72.242
4.06 150.792 73.987
4.07 154.976 75.335
4.08 157.780 76.081
4.09 159.995 76.406
4.10 162.925 76.562
4.11 166.133 76.745
4.12 168.552 76.861
4.13 170.965 76.666
4.14 173.089 76.298
4.15 174.378 75.985
4.16 176.018 75.536
4.17 177.016 74.982
4.18 176.264 74.611
4.19 176.250 74.496
4.20 176.694 74.486
4.21 177.125 74.197
4.22 175.891 72.923
4.23 167.839 70.108
4.24 157.625 66.039
4.25 160.017 61.307
4.26 172.879 57.315
4.27 171.506 57.264
4.28 --undefined-- 58.782
4.29 --undefined-- 63.098
4.30 --undefined-- 70.050
4.31 225.523 74.519
4.32 211.700 75.963
4.33 205.262 75.848
4.34 202.893 75.598
4.35 201.855 75.385
4.36 201.088 75.092
4.37 201.269 74.734
4.38 201.994 74.612
4.39 201.633 75.000
4.40 201.677 75.603
4.41 201.086 75.966
4.42 199.227 75.516
4.43 197.902 73.574
4.44 193.978 69.981
4.45 191.566 65.378
4.46 200.001 60.337
4.47 201.357 55.790
4.48 200.116 54.119
4.49 199.605 55.489
4.50 --undefined-- 60.078
4.51 --undefined-- 62.382
4.52 --undefined-- 61.334
4.53 --undefined-- 59.394
4.54 --undefined-- 59.998
4.55 --undefined-- 60.812
4.56 --undefined-- 60.210
4.57 --undefined-- 58.582
4.58 --undefined-- 57.134
4.59 --undefined-- 56.532
4.60 --undefined-- 58.856
4.61 144.126 62.449
4.62 130.638 64.162
4.63 130.329 64.565
4.64 126.953 64.957
4.65 125.840 65.720
4.66 125.672 66.988
4.67 125.871 68.805
4.68 125.384 71.011
4.69 127.435 72.812
4.70 129.303 73.739
4.71 130.134 73.792
4.72 129.987 73.452
4.73 130.509 73.440
4.74 131.290 73.672
4.75 133.065 74.150
4.76 131.921 74.820
4.77 131.429 74.960
4.78 134.376 74.567
4.79 137.340 74.531
4.80 139.378 74.762
4.81 140.587 74.677
4.82 140.392 74.338
4.83 141.040 73.964
4.84 141.313 73.673
4.85 142.038 73.538
4.86 142.425 73.415
4.87 142.114 72.849
4.88 141.055 71.106
4.89 138.410 67.307
4.90 150.627 61.606
4.91 153.941 55.882
4.92 --undefined-- 51.283
4.93 --undefined-- 47.681
4.94 --undefined-- 46.485
4.95 --undefined-- 50.438
4.96 --undefined-- 57.731
4.97 --undefined-- 62.199
4.98 --undefined-- 65.645
4.99 170.885 70.354
5.00 166.697 73.999
5.01 166.184 75.923
5.02 164.861 --undefined--
5.03 162.303 --undefined--
5.04 --undefined-- --undefined--
5.05 --undefined-- --undefined--
