Time Pitch Intensity
0.01 --undefined-- --undefined--
0.02 103.539 --undefined--
0.03 103.356 --undefined--
0.04 103.140 --undefined--
0.05 103.410 68.317
0.06 103.552 67.552
0.07 104.091 66.354
0.08 103.641 64.912
0.09 103.109 63.048
0.10 103.478 60.356
0.11 --undefined-- 56.831
0.12 --undefined-- 53.524
0.13 --undefined-- 52.038
0.14 --undefined-- 51.392
0.15 --undefined-- 50.334
0.16 --undefined-- 48.864
0.17 --undefined-- 47.160
0.18 --undefined-- 46.154
0.19 --undefined-- 46.045
0.20 --undefined-- 46.005
0.21 --undefined-- 45.708
0.22 --undefined-- 45.732
0.23 --undefined-- 46.753
0.24 --undefined-- 47.569
0.25 --undefined-- 48.525
0.26 --undefined-- 50.663
0.27 --undefined-- 53.097
0.28 --undefined-- 54.387
0.29 --undefined-- 54.001
0.30 --undefined-- 57.089
0.31 --undefined-- 63.319
0.32 --undefined-- 67.162
0.33 --undefined-- 68.766
0.34 --undefined-- 69.108
0.35 --undefined-- 68.768
0.36 89.224 68.006
0.37 88.506 67.267
0.38 85.044 67.067
0.39 83.890 66.368
0.40 82.765 64.550
0.41 84.325 63.152
0.42 --undefined-- 63.078
0.43 81.374 62.268
0.44 83.728 61.324
0.45 85.233 61.461
0.46 83.237 62.233
0.47 84.209 63.545
0.48 82.905 64.625
0.49 82.971 64.868
0.50 83.288 64.844
0.51 83.372 64.648
0.52 82.427 63.943
0.53 83.220 63.226
0.54 83.435 62.941
0.55 83.246 62.732
0.56 81.313 62.524
0.57 81.459 62.574
0.58 81.087 62.761
0.59 81.990 63.093
0.60 81.871 63.225
0.61 80.893 62.764
0.62 80.490 62.307
0.63 80.514 62.298
0.64 80.240 62.645
0.65 79.989 62.678
0.66 79.548 61.743
0.67 83.198 60.386
0.68 83.916 59.360
0.69 84.306 57.908
0.70 --undefined-- 55.005
0.71 --undefined-- 50.040
0.72 --undefined-- 42.600
0.73 --undefined-- 35.920
0.74 --undefined-- 34.261
0.75 --undefined-- 37.398
0.76 --undefined-- 49.748
0.77 --undefined-- 59.555
0.78 --undefined-- 65.458
0.79 --undefined-- 67.424
0.80 --undefined-- 65.399
0.81 --undefined-- 59.887
0.82 --undefined-- 56.903
0.83 --undefined-- 60.429
0.84 --undefined-- 64.331
0.85 101.339 66.472
0.86 101.570 67.399
0.87 100.055 67.840
0.88 97.516 67.698
0.89 96.489 66.999
0.90 96.474 66.342
0.91 96.383 65.862
0.92 98.072 65.237
0.93 101.345 65.036
0.94 101.862 65.597
0.95 102.095 65.965
0.96 102.981 65.832
0.97 103.152 65.320
0.98 100.380 64.095
0.99 100.111 61.624
1.00 95.534 57.952
1.01 90.862 54.117
1.02 92.153 54.283
1.03 95.110 60.206
1.04 95.552 64.580
1.05 95.437 66.774
1.06 95.256 67.358
1.07 92.895 66.885
1.08 92.594 66.346
1.09 92.529 66.281
1.10 91.487 66.242
1.11 91.234 65.969
1.12 90.692 65.371
1.13 91.342 64.635
1.14 91.597 64.377
1.15 91.247 64.582
1.16 90.793 64.574
1.17 90.294 64.511
1.18 88.718 64.595
1.19 --undefined-- 63.609
1.20 --undefined-- 61.093
1.21 --undefined-- 59.702
1.22 --undefined-- 60.855
1.23 --undefined-- 61.553
1.24 --undefined-- 61.141
1.25 --undefined-- 60.785
1.26 --undefined-- 60.784
1.27 --undefined-- 61.302
1.28 95.967 63.462
1.29 96.136 66.280
1.30 93.084 68.020
1.31 90.057 68.657
1.32 89.534 68.469
1.33 88.699 67.550
1.34 87.970 66.691
1.35 87.340 66.474
1.36 86.924 66.285
1.37 85.971 65.537
1.38 86.260 64.745
1.39 85.022 64.242
1.40 84.508 63.502
1.41 84.041 62.732
1.42 85.330 61.799
1.43 84.983 61.080
1.44 83.479 61.196
1.45 81.799 61.035
1.46 81.836 59.987
1.47 84.199 59.126
1.48 83.961 59.073
1.49 83.202 59.433
1.50 83.766 59.620
1.51 82.768 59.446
1.52 80.767 58.842
1.53 80.622 57.588
1.54 82.930 56.253
1.55 81.484 55.731
1.56 84.981 55.664
1.57 79.833 55.026
1.58 79.789 54.038
1.59 --undefined-- 53.391
1.60 --undefined-- 50.896
1.61 --undefined-- 45.195
1.62 --undefined-- 38.798
1.63 --undefined-- 36.322
1.64 --undefined-- 35.698
1.65 --undefined-- 34.898
1.66 --undefined-- 34.371
1.67 --undefined-- 33.934
1.68 --undefined-- 34.015
1.69 --undefined-- 35.391
1.70 --undefined-- 36.465
1.71 --undefined-- 37.513
1.72 --undefined-- 38.474
1.73 --undefined-- 38.567
1.74 --undefined-- 37.770
1.75 --undefined-- 36.760
1.76 --undefined-- 35.595
1.77 --undefined-- 34.951
1.78 --undefined-- 37.384
1.79 --undefined-- 41.221
1.80 --undefined-- 43.245
1.81 --undefined-- 44.400
1.82 --undefined-- 48.466
1.83 --undefined-- 53.814
1.84 --undefined-- 57.944
1.85 --undefined-- 60.029
1.86 --undefined-- 60.036
1.87 --undefined-- 60.446
1.88 --undefined-- 63.789
1.89 --undefined-- 66.274
1.90 --undefined-- 65.564
1.91 --undefined-- 60.896
1.92 --undefined-- 51.569
1.93 --undefined-- 39.422
1.94 --undefined-- 36.541
1.95 --undefined-- 38.724
1.96 --undefined-- 46.210
1.97 --undefined-- 56.176
1.98 --undefined-- 64.123
1.99 --undefined-- 69.054
2.00 --undefined-- 71.235
2.01 --undefined-- 71.091
2.02 --undefined-- 70.331
2.03 --undefined-- 71.127
2.04 131.634 71.210
2.05 130.535 69.752
2.06 --undefined-- 67.642
2.07 --undefined-- 64.521
2.08 --undefined-- 61.155
2.09 --undefined-- 59.313
2.10 --undefined-- 57.693
2.11 --undefined-- 54.326
2.12 --undefined-- 49.162
2.13 --undefined-- 45.455
2.14 --undefined-- 50.280
2.15 --undefined-- 59.703
2.16 --undefined-- 65.550
2.17 111.526 68.034
2.18 111.276 68.270
2.19 111.166 67.517
2.20 111.500 66.712
2.21 113.077 66.159
2.22 115.058 66.066
2.23 115.618 66.320
2.24 116.171 66.495
2.25 115.455 66.444
2.26 115.034 66.526
2.27 115.977 67.291
2.28 116.668 67.947
2.29 --undefined-- 66.808
2.30 --undefined-- 62.573
2.31 --undefined-- 54.279
2.32 --undefined-- 43.179
2.33 --undefined-- 50.529
2.34 --undefined-- 59.765
2.35 --undefined-- 63.952
2.36 --undefined-- 64.338
2.37 --undefined-- 63.411
2.38 --undefined-- 63.710
2.39 --undefined-- 64.076
2.40 --undefined-- 63.270
2.41 --undefined-- 61.170
2.42 --undefined-- 58.440
2.43 --undefined-- 56.183
2.44 --undefined-- 54.014
2.45 82.959 51.563
2.46 79.690 50.525
2.47 77.654 50.177
2.48 77.723 49.722
2.49 78.648 49.416
2.50 80.050 48.918
2.51 81.944 48.286
2.52 82.308 47.914
2.53 82.647 47.487
2.54 85.660 47.058
2.55 89.178 47.574
2.56 87.510 48.894
2.57 87.299 50.339
2.58 84.381 52.656
2.59 83.416 56.916
2.60 84.098 61.317
2.61 87.743 64.722
2.62 88.113 67.259
2.63 85.613 69.063
2.64 86.856 69.798
2.65 85.222 69.660
2.66 84.694 69.556
2.67 84.573 69.731
2.68 85.315 69.618
2.69 89.104 69.310
2.70 90.136 69.215
2.71 93.415 69.348
2.72 97.406 69.671
2.73 98.662 69.898
2.74 101.175 69.654
2.75 103.366 69.020
2.76 103.872 68.034
2.77 103.154 66.422
2.78 98.252 63.827
2.79 100.175 59.705
2.80 --undefined-- 53.656
2.81 --undefined-- 45.689
2.82 --undefined-- 38.675
2.83 --undefined-- 36.221
2.84 --undefined-- 39.651
2.85 --undefined-- 45.123
2.86 --undefined-- 47.282
2.87 --undefined-- 45.833
2.88 --undefined-- 43.293
2.89 --undefined-- 43.477
2.90 --undefined-- 43.426
2.91 --undefined-- 42.926
2.92 --undefined-- 43.163
2.93 --undefined-- 43.889
2.94 --undefined-- 44.846
2.95 --undefined-- 45.584
2.96 --undefined-- 45.672
2.97 --undefined-- 45.735
2.98 --undefined-- 46.011
2.99 --undefined-- 46.195
3.00 --undefined-- 46.751
3.01 --undefined-- 48.729
3.02 --undefined-- 52.545
3.03 --undefined-- 55.043
3.04 --undefined-- 55.222
3.05 --undefined-- 54.659
3.06 --undefined-- 55.079
3.07 --undefined-- 54.768
3.08 --undefined-- 53.246
3.09 --undefined-- 52.251
3.10 --undefined-- 51.863
3.11 --undefined-- 50.334
3.12 --undefined-- 47.619
3.13 --undefined-- 45.420
3.14 --undefined-- 43.531
3.15 --undefined-- 40.992
3.16 --undefined-- 39.007
3.17 --undefined-- 37.925
3.18 --undefined-- 36.893
3.19 --undefined-- 35.882
3.20 --undefined-- 35.062
3.21 --undefined-- 34.066
3.22 --undefined-- 33.726
3.23 --undefined-- 33.920
3.24 --undefined-- 33.444
3.25 --undefined-- 34.221
3.26 --undefined-- 44.007
3.27 --undefined-- 54.203
3.28 --undefined-- 60.374
3.29 100.459 63.969
3.30 103.140 66.831
3.31 103.007 68.856
3.32 96.563 69.355
3.33 95.870 68.940
3.34 94.852 68.787
3.35 94.350 68.912
3.36 94.315 68.633
3.37 95.148 67.936
3.38 96.335 67.363
3.39 99.053 66.907
3.40 101.031 66.819
3.41 102.345 67.036
3.42 102.954 67.432
3.43 102.892 67.746
3.44 103.997 67.956
3.45 104.860 68.093
3.46 105.540 68.009
3.47 105.893 67.669
3.48 106.080 67.046
3.49 106.067 66.501
3.50 105.671 66.232
3.51 105.723 66.025
3.52 105.800 65.706
3.53 106.452 65.169
3.54 106.296 64.438
3.55 107.285 63.978
3.56 106.033 63.922
3.57 105.012 63.826
3.58 107.238 64.189
3.59 109.554 65.342
3.60 109.566 65.600
3.61 110.563 64.239
3.62 105.431 61.545
3.63 105.255 57.150
3.64 108.194 52.313
3.65 112.090 50.804
3.66 115.672 50.725
3.67 117.031 50.899
3.68 120.029 51.182
3.69 121.392 54.364
3.70 --undefined-- 61.373
3.71 127.015 66.568
3.72 125.896 69.373
3.73 127.255 70.829
3.74 126.854 71.830
3.75 125.905 72.109
3.76 124.639 71.106
3.77 124.033 68.393
3.78 118.276 63.494
3.79 --undefined-- 56.683
3.80 --undefined-- 52.720
3.81 --undefined-- 51.470
3.82 --undefined-- 50.401
3.83 --undefined-- 56.478
3.84 --undefined-- 63.829
3.85 102.774 67.967
3.86 101.335 69.325
3.87 99.653 68.820
3.88 99.306 67.918
3.89 99.606 67.626
3.90 98.348 67.430
3.91 97.290 66.639
3.92 97.312 65.122
3.93 --undefined-- 62.943
3.94 --undefined-- 58.869
3.95 --undefined-- 51.177
3.96 --undefined-- 40.165
3.97 --undefined-- 34.496
3.98 --undefined-- 34.594
3.99 --undefined-- 45.608
4.00 --undefined-- 55.343
4.01 --undefined-- 61.407
4.02 --undefined-- 66.196
4.03 --undefined-- 69.413
4.04 --undefined-- 69.952
4.05 --undefined-- 67.642
4.06 --undefined-- 62.452
4.07 --undefined-- 54.520
4.08 --undefined-- 45.204
4.09 --undefined-- 40.703
4.10 --undefined-- 37.486
4.11 --undefined-- 35.575
4.12 --undefined-- 35.340
4.13 --undefined-- 35.080
4.14 --undefined-- 35.382
4.15 --undefined-- 35.103
4.16 --undefined-- 35.648
4.17 --undefined-- 47.092
4.18 --undefined-- 56.941
4.19 --undefined-- 64.118
4.20 --undefined-- 69.079
4.21 --undefined-- 71.489
4.22 92.924 71.427
4.23 92.871 69.679
4.24 93.136 67.437
4.25 92.788 64.790
4.26 92.227 61.121
4.27 95.071 56.643
4.28 98.291 54.013
4.29 99.520 53.973
4.30 103.709 54.182
4.31 106.325 54.380
4.32 107.257 54.384
4.33 110.593 54.445
4.34 113.916 55.003
4.35 114.111 56.356
4.36 114.243 57.975
4.37 114.165 58.816
4.38 113.763 58.933
4.39 112.849 59.313
4.40 111.801 59.082
4.41 112.174 57.508
4.42 111.440 56.033
4.43 108.627 55.864
4.44 107.328 58.015
4.45 103.762 63.506
4.46 101.038 68.089
4.47 100.284 70.513
4.48 98.503 71.372
4.49 95.758 70.984
4.50 92.271 69.401
4.51 89.463 66.808
4.52 --undefined-- 62.998
4.53 --undefined-- 56.800
4.54 --undefined-- 47.347
4.55 --undefined-- 47.664
4.56 --undefined-- 52.246
4.57 --undefined-- 54.428
4.58 --undefined-- 59.600
4.59 --undefined-- 64.803
4.60 93.360 67.609
4.61 93.828 68.458
4.62 94.942 68.278
4.63 94.744 67.766
4.64 96.432 67.706
4.65 96.993 68.160
4.66 97.064 68.492
4.67 97.730 68.540
4.68 98.719 68.457
4.69 99.698 68.506
4.70 101.050 68.820
4.71 101.974 69.230
4.72 103.043 69.414
4.73 101.976 69.265
4.74 103.032 68.988
4.75 103.588 68.841
4.76 103.463 68.596
4.77 104.641 68.261
4.78 105.383 68.128
4.79 105.634 68.103
4.80 105.573 68.052
4.81 104.458 67.793
4.82 104.356 67.103
4.83 104.603 65.767
4.84 104.971 63.787
4.85 105.546 61.851
4.86 105.085 61.547
4.87 105.037 61.962
4.88 104.825 61.001
4.89 106.987 59.137
4.90 109.454 57.988
4.91 108.772 57.054
4.92 111.424 56.092
4.93 110.757 54.901
4.94 106.668 53.360
4.95 107.849 53.738
4.96 112.378 56.379
4.97 114.085 59.620
4.98 114.523 62.835
4.99 114.387 65.107
5.00 114.194 65.825
5.01 112.787 65.128
5.02 114.787 63.935
5.03 113.689 63.168
5.04 113.301 62.749
5.05 112.770 62.514
5.06 112.788 62.326
5.07 113.504 62.265
5.08 114.820 62.097
5.09 114.266 62.063
5.10 111.083 62.303
5.11 110.178 62.282
5.12 109.172 62.368
5.13 110.704 62.478
5.14 110.196 62.668
5.15 109.833 61.891
5.16 --undefined-- 58.831
5.17 --undefined-- 55.294
5.18 --undefined-- 56.468
5.19 --undefined-- 58.969
5.20 --undefined-- 60.453
5.21 --undefined-- 61.258
5.22 --undefined-- 61.672
5.23 --undefined-- 61.786
5.24 --undefined-- 61.509
5.25 --undefined-- 60.660
5.26 --undefined-- 59.235
5.27 --undefined-- 61.497
5.28 --undefined-- 66.803
5.29 --undefined-- 69.067
5.30 85.692 67.888
5.31 84.740 63.715
5.32 80.828 57.529
5.33 79.378 51.881
5.34 78.726 49.480
5.35 75.791 48.014
5.36 --undefined-- 47.007
5.37 --undefined-- 47.320
5.38 --undefined-- 48.379
5.39 --undefined-- 48.088
5.40 --undefined-- 47.049
5.41 --undefined-- 48.148
5.42 --undefined-- 50.546
5.43 --undefined-- 53.545
5.44 --undefined-- 57.528
5.45 --undefined-- 60.979
5.46 --undefined-- 62.893
5.47 --undefined-- 63.427
5.48 80.952 63.050
5.49 81.122 62.192
5.50 81.088 61.034
5.51 --undefined-- 59.089
5.52 --undefined-- 55.444
5.53 --undefined-- --undefined--
5.54 --undefined-- --undefined--
5.55 --undefined-- --undefined--
5.56 --undefined-- --undefined--
