Time Pitch Intensity
0.01 --undefined-- --undefined--
0.02 88.366 --undefined--
0.03 89.886 --undefined--
0.04 89.210 --undefined--
0.05 --undefined-- 57.993
0.06 --undefined-- 55.010
0.07 --undefined-- 53.281
0.08 --undefined-- 50.407
0.09 --undefined-- 46.052
0.10 --undefined-- 44.437
0.11 --undefined-- 43.861
0.12 --undefined-- 42.482
0.13 --undefined-- 41.185
0.14 --undefined-- 40.379
0.15 --undefined-- 39.463
0.16 --undefined-- 38.931
0.17 --undefined-- 39.997
0.18 --undefined-- 41.474
0.19 --undefined-- 41.379
0.20 --undefined-- 39.329
0.21 --undefined-- 37.070
0.22 --undefined-- 34.827
0.23 --undefined-- 32.596
0.24 --undefined-- 32.337
0.25 --undefined-- 32.539
0.26 --undefined-- 33.548
0.27 --undefined-- 35.127
0.28 --undefined-- 36.424
0.29 --undefined-- 37.012
0.30 --undefined-- 36.034
0.31 --undefined-- 34.101
0.32 --undefined-- 33.637
0.33 --undefined-- 34.696
0.34 --undefined-- 35.640
0.35 --undefined-- 36.007
0.36 --undefined-- 35.979
0.37 --undefined-- 35.427
0.38 --undefined-- 34.840
0.39 --undefined-- 35.000
0.40 --undefined-- 36.225
0.41 --undefined-- 43.593
0.42 --undefined-- 54.086
0.43 --undefined-- 60.960
0.44 134.239 64.300
0.45 134.914 64.485
0.46 134.802 62.111
0.47 132.592 57.953
0.48 --undefined-- 52.595
0.49 --undefined-- 45.263
0.50 --undefined-- 36.400
0.51 --undefined-- 33.891
0.52 --undefined-- 34.014
0.53 --undefined-- 32.826
0.54 --undefined-- 31.912
0.55 --undefined-- 31.741
0.56 --undefined-- 32.284
0.57 --undefined-- 34.164
0.58 --undefined-- 36.087
0.59 --undefined-- 37.508
0.60 --undefined-- 38.611
0.61 --undefined-- 43.997
0.62 --undefined-- 49.251
0.63 --undefined-- 52.331
0.64 --undefined-- 53.892
0.65 --undefined-- 54.477
0.66 --undefined-- 54.577
0.67 --undefined-- 55.170
0.68 --undefined-- 55.906
0.69 --undefined-- 55.302
0.70 --undefined-- 53.534
0.71 --undefined-- 51.793
0.72 --undefined-- 50.730
0.73 --undefined-- 48.765
0.74 --undefined-- 47.631
0.75 --undefined-- 51.210
0.76 --undefined-- 54.002
0.77 123.551 54.906
0.78 119.314 54.581
0.79 116.046 53.810
0.80 116.679 53.566
0.81 116.698 54.115
0.82 116.752 54.126
0.83 --undefined-- 53.327
0.84 --undefined-- 52.526
0.85 --undefined-- 51.340
0.86 --undefined-- 49.633
0.87 --undefined-- 49.698
0.88 --undefined-- 51.034
0.89 --undefined-- 52.786
0.90 131.644 55.011
0.91 133.814 57.561
0.92 141.320 61.230
0.93 143.937 65.452
0.94 146.371 69.199
0.95 149.537 72.101
0.96 152.443 74.107
0.97 154.342 75.282
0.98 156.503 75.608
0.99 157.466 74.892
1.00 157.121 73.007
1.01 154.932 70.121
1.02 151.415 66.664
1.03 147.501 63.099
1.04 143.295 59.197
1.05 --undefined-- 55.081
1.06 --undefined-- 51.418
1.07 --undefined-- 47.849
1.08 --undefined-- 43.254
1.09 --undefined-- 38.178
1.10 --undefined-- 37.972
1.11 --undefined-- 41.675
1.12 --undefined-- 43.911
1.13 --undefined-- 45.055
1.14 --undefined-- 45.450
1.15 --undefined-- 45.087
1.16 --undefined-- 44.955
1.17 --undefined-- 45.194
1.18 --undefined-- 46.586
1.19 --undefined-- 48.014
1.20 --undefined-- 49.076
1.21 --undefined-- 50.840
1.22 --undefined-- 53.186
1.23 --undefined-- 60.718
1.24 154.574 69.524
1.25 156.949 75.544
1.26 156.243 78.932
1.27 154.438 80.101
1.28 151.342 79.746
1.29 144.989 78.781
1.30 140.257 77.704
1.31 138.882 76.284
1.32 137.044 74.255
1.33 135.083 72.105
1.34 133.332 70.438
1.35 131.693 69.040
1.36 131.779 67.617
1.37 130.228 66.356
1.38 129.971 65.315
1.39 129.657 64.453
1.40 128.939 63.673
1.41 128.314 62.704
1.42 128.216 61.751
1.43 128.385 61.213
1.44 129.121 61.243
1.45 129.303 61.258
1.46 130.245 61.033
1.47 130.691 60.967
1.48 130.814 60.626
1.49 130.764 59.512
1.50 131.957 57.843
1.51 134.503 56.383
1.52 --undefined-- 55.785
1.53 --undefined-- 55.181
1.54 --undefined-- 53.290
1.55 --undefined-- 49.666
1.56 --undefined-- 45.685
1.57 --undefined-- 42.548
1.58 --undefined-- 40.205
1.59 --undefined-- 39.284
1.60 --undefined-- 37.898
1.61 --undefined-- 35.835
1.62 --undefined-- 36.061
1.63 --undefined-- 37.717
1.64 --undefined-- 39.021
1.65 --undefined-- 39.394
1.66 --undefined-- 39.414
1.67 --undefined-- 40.655
1.68 --undefined-- 42.294
1.69 --undefined-- 42.691
1.70 --undefined-- 42.109
1.71 --undefined-- 41.452
1.72 --undefined-- 40.563
1.73 --undefined-- 39.400
1.74 --undefined-- 38.490
1.75 --undefined-- 38.850
1.76 --undefined-- 39.998
1.77 --undefined-- 40.302
1.78 --undefined-- 39.398
1.79 --undefined-- 38.452
1.80 --undefined-- 41.774
1.81 --undefined-- 49.785
1.82 --undefined-- 56.103
1.83 --undefined-- 59.786
1.84 144.597 62.082
1.85 143.450 64.315
1.86 142.385 65.979
1.87 142.053 66.920
1.88 141.567 67.631
1.89 141.076 68.261
1.90 139.671 69.923
1.91 139.271 73.437
1.92 142.183 76.351
1.93 141.331 77.359
1.94 140.353 76.515
1.95 137.544 74.184
1.96 136.097 70.610
1.97 134.395 65.721
1.98 132.689 61.234
1.99 133.228 60.704
2.00 134.844 61.753
2.01 135.977 62.663
2.02 135.865 63.212
2.03 135.366 63.507
2.04 134.676 63.583
2.05 134.012 63.571
2.06 133.956 63.627
2.07 133.855 63.644
2.08 134.158 63.430
2.09 134.667 62.913
2.10 135.064 62.561
2.11 135.294 62.589
2.12 136.544 62.768
2.13 137.585 62.984
2.14 138.111 62.979
2.15 138.954 62.741
2.16 139.570 62.410
2.17 139.601 61.894
2.18 138.143 60.751
2.19 133.936 57.913
2.20 --undefined-- 52.352
2.21 --undefined-- 44.128
2.22 --undefined-- 36.183
2.23 --undefined-- 31.271
2.24 --undefined-- 32.263
2.25 --undefined-- 46.942
2.26 --undefined-- 58.877
2.27 --undefined-- 66.306
2.28 152.278 70.489
2.29 150.787 72.242
2.30 148.112 72.246
2.31 146.779 71.655
2.32 147.432 71.580
2.33 146.736 71.689
2.34 146.357 71.392
2.35 147.011 70.583
2.36 148.110 69.291
2.37 148.423 67.777
2.38 148.372 66.381
2.39 148.488 64.589
2.40 147.584 61.549
2.41 --undefined-- 57.174
2.42 --undefined-- 52.407
2.43 --undefined-- 47.789
2.44 --undefined-- 42.592
2.45 --undefined-- 47.408
2.46 --undefined-- 55.320
2.47 --undefined-- 61.082
2.48 148.101 66.252
2.49 150.151 70.158
2.50 150.672 72.266
2.51 148.927 72.825
2.52 144.251 71.744
2.53 140.547 68.753
2.54 --undefined-- 63.816
2.55 --undefined-- 57.071
2.56 --undefined-- 50.956
2.57 --undefined-- 48.569
2.58 --undefined-- 47.250
2.59 --undefined-- 46.012
2.60 --undefined-- 44.023
2.61 --undefined-- 42.426
2.62 --undefined-- 44.230
2.63 --undefined-- 48.343
2.64 --undefined-- 57.277
2.65 142.263 64.392
2.66 138.519 68.667
2.67 132.089 71.071
2.68 130.355 72.151
2.69 129.795 72.070
2.70 131.786 71.188
2.71 133.269 70.177
2.72 134.396 69.518
2.73 136.599 69.165
2.74 139.679 69.052
2.75 141.476 68.809
2.76 141.336 67.943
2.77 141.937 66.580
2.78 142.412 65.432
2.79 143.299 64.559
2.80 147.773 64.097
2.81 152.358 64.711
2.82 155.305 65.935
2.83 156.796 67.040
2.84 159.207 67.827
2.85 160.575 68.061
2.86 162.510 68.028
2.87 165.346 68.288
2.88 166.441 68.168
2.89 166.518 66.945
2.90 167.794 64.834
2.91 170.466 62.880
2.92 171.567 62.620
2.93 171.317 63.783
2.94 170.552 65.243
2.95 169.408 66.674
2.96 168.945 67.564
2.97 168.841 67.346
2.98 167.626 65.574
2.99 165.641 62.196
3.00 165.696 57.538
3.01 --undefined-- 51.597
3.02 --undefined-- 45.666
3.03 --undefined-- 42.784
3.04 --undefined-- 41.905
3.05 --undefined-- 41.942
3.06 --undefined-- 41.210
3.07 --undefined-- 39.166
3.08 --undefined-- 36.225
3.09 --undefined-- 33.746
3.10 --undefined-- 32.689
3.11 --undefined-- 32.708
3.12 --undefined-- 33.863
3.13 --undefined-- 34.500
3.14 --undefined-- 34.372
3.15 --undefined-- 34.396
3.16 --undefined-- 33.656
3.17 --undefined-- 31.911
3.18 --undefined-- 30.994
3.19 --undefined-- 31.488
3.20 --undefined-- 31.565
3.21 --undefined-- 31.215
3.22 --undefined-- 32.310
3.23 --undefined-- 33.657
3.24 --undefined-- 33.636
3.25 --undefined-- 33.362
3.26 --undefined-- 33.191
3.27 --undefined-- 31.578
3.28 --undefined-- 31.126
3.29 --undefined-- 33.459
3.30 --undefined-- 33.634
3.31 --undefined-- 31.178
3.32 --undefined-- 30.725
3.33 --undefined-- 32.181
3.34 --undefined-- 32.835
3.35 --undefined-- 33.407
3.36 --undefined-- 33.299
3.37 --undefined-- 33.318
3.38 --undefined-- 33.256
3.39 --undefined-- 32.391
3.40 --undefined-- 32.181
3.41 --undefined-- 34.076
3.42 --undefined-- 36.334
3.43 --undefined-- 36.576
3.44 --undefined-- 35.000
3.45 --undefined-- 33.081
3.46 --undefined-- 31.820
3.47 --undefined-- 31.673
3.48 --undefined-- 31.553
3.49 --undefined-- 30.788
3.50 --undefined-- 30.729
3.51 --undefined-- 31.247
3.52 --undefined-- 31.765
3.53 --undefined-- 38.923
3.54 --undefined-- 50.723
3.55 --undefined-- 58.721
3.56 --undefined-- 64.393
3.57 --undefined-- 69.384
3.58 --undefined-- 72.556
3.59 --undefined-- 73.420
3.60 --undefined-- 73.096
3.61 --undefined-- 73.455
3.62 --undefined-- 73.938
3.63 145.521 73.101
3.64 145.714 70.786
3.65 144.961 67.527
3.66 146.673 64.946
3.67 147.509 64.099
3.68 148.052 63.545
3.69 147.184 62.641
3.70 144.886 61.912
3.71 143.589 61.499
3.72 142.619 61.112
3.73 142.170 60.994
3.74 142.373 60.996
3.75 142.747 60.768
3.76 143.215 60.525
3.77 144.031 60.408
3.78 144.764 60.437
3.79 146.035 60.997
3.80 146.278 61.905
3.81 145.922 62.463
3.82 145.946 62.688
3.83 146.130 62.774
3.84 146.649 62.520
3.85 147.246 61.620
3.86 147.179 60.099
3.87 147.197 58.150
3.88 147.096 55.734
3.89 --undefined-- 52.436
3.90 --undefined-- 47.821
3.91 --undefined-- 41.476
3.92 --undefined-- 33.319
3.93 --undefined-- 27.388
3.94 --undefined-- 25.767
3.95 --undefined-- 28.507
3.96 --undefined-- 40.753
3.97 --undefined-- 54.259
3.98 --undefined-- 63.957
3.99 177.018 70.495
4.00 173.601 74.655
4.01 170.589 77.084
4.02 167.379 78.477
4.03 164.601 79.408
4.04 163.371 79.843
4.05 162.051 79.632
4.06 161.214 78.925
4.07 160.587 77.933
4.08 161.140 77.017
4.09 161.696 76.584
4.10 162.204 76.821
4.11 162.861 77.129
4.12 163.105 77.075
4.13 163.318 76.937
4.14 163.056 76.939
4.15 162.925 77.049
4.16 162.861 77.214
4.17 162.978 77.235
4.18 163.245 77.047
4.19 163.933 76.634
4.20 164.613 75.835
4.21 165.486 74.734
4.22 166.109 73.420
4.23 165.508 71.855
4.24 163.278 70.090
4.25 --undefined-- 67.791
4.26 --undefined-- 65.017
4.27 --undefined-- 63.199
4.28 --undefined-- 61.543
4.29 --undefined-- 58.522
4.30 --undefined-- 55.321
4.31 --undefined-- 52.836
4.32 --undefined-- 51.869
4.33 --undefined-- 51.618
4.34 --undefined-- 50.649
4.35 --undefined-- 49.169
4.36 --undefined-- 47.821
4.37 --undefined-- 46.559
4.38 --undefined-- 44.996
4.39 --undefined-- 42.387
4.40 --undefined-- 37.893
4.41 --undefined-- 31.880
4.42 --undefined-- 29.876
4.43 --undefined-- 32.526
4.44 --undefined-- 36.294
4.45 --undefined-- 39.150
4.46 --undefined-- 41.199
4.47 --undefined-- 49.005
4.48 --undefined-- 59.284
4.49 198.222 65.658
4.50 189.237 68.883
4.51 181.490 70.520
4.52 179.362 71.757
4.53 174.610 72.924
4.54 171.504 73.793
4.55 169.697 73.910
4.56 167.520 73.266
4.57 160.577 72.555
4.58 154.930 72.140
4.59 153.990 71.841
4.60 146.027 71.570
4.61 141.615 71.303
4.62 138.160 71.019
4.63 133.958 70.500
4.64 131.988 69.487
4.65 126.879 68.229
4.66 123.974 67.057
4.67 120.357 66.197
4.68 120.427 65.694
4.69 120.359 65.273
4.70 121.991 64.777
4.71 123.069 64.286
4.72 119.160 63.652
4.73 118.215 62.756
4.74 117.636 61.977
4.75 117.400 61.426
4.76 117.933 60.935
4.77 117.840 60.346
4.78 120.020 59.595
4.79 120.063 59.102
4.80 --undefined-- 59.040
4.81 --undefined-- 59.024
4.82 --undefined-- 59.707
4.83 --undefined-- 60.751
4.84 --undefined-- 60.415
4.85 122.775 58.652
4.86 117.697 56.974
4.87 118.531 55.616
4.88 --undefined-- 53.955
4.89 --undefined-- 51.467
4.90 --undefined-- 48.878
4.91 --undefined-- 48.364
4.92 --undefined-- 47.423
4.93 --undefined-- 45.202
4.94 --undefined-- 44.192
4.95 --undefined-- 45.666
4.96 --undefined-- 46.957
4.97 --undefined-- 46.531
4.98 --undefined-- 45.030
4.99 --undefined-- 43.900
5.00 --undefined-- 43.052
5.01 --undefined-- 41.694
5.02 --undefined-- 40.347
5.03 --undefined-- 39.555
5.04 --undefined-- 41.200
5.05 --undefined-- 43.071
5.06 --undefined-- 42.867
5.07 --undefined-- 41.123
5.08 --undefined-- 44.895
5.09 --undefined-- 54.582
5.10 --undefined-- 61.159
5.11 --undefined-- 65.321
5.12 --undefined-- 68.627
5.13 --undefined-- 71.017
5.14 121.536 72.691
5.15 120.024 74.008
5.16 128.354 74.679
5.17 123.642 74.947
5.18 122.729 75.093
5.19 120.234 74.714
5.20 118.590 73.972
5.21 117.059 73.331
5.22 116.543 72.604
5.23 116.125 71.935
5.24 116.359 71.768
5.25 116.760 72.043
5.26 117.094 72.557
5.27 116.278 72.964
5.28 115.921 73.062
5.29 115.426 72.921
5.30 116.227 72.766
5.31 116.956 72.684
5.32 117.265 72.507
5.33 117.356 72.085
5.34 116.955 71.395
5.35 115.260 70.158
5.36 115.282 68.232
5.37 116.176 66.193
5.38 116.922 64.739
5.39 117.318 63.142
5.40 117.604 60.813
5.41 118.004 57.975
5.42 --undefined-- 54.922
5.43 --undefined-- 51.745
5.44 --undefined-- 49.538
5.45 --undefined-- 48.319
5.46 --undefined-- 48.848
5.47 --undefined-- 55.547
5.48 --undefined-- 62.971
5.49 --undefined-- 68.405
5.50 --undefined-- 71.608
5.51 --undefined-- 73.045
5.52 112.161 73.693
5.53 113.204 74.520
5.54 116.432 75.485
5.55 121.863 75.677
5.56 127.192 74.674
5.57 133.771 72.950
5.58 137.294 70.873
5.59 144.912 69.189
5.60 153.502 69.018
5.61 161.920 70.426
5.62 165.904 72.480
5.63 168.154 74.474
5.64 170.929 76.135
5.65 171.867 77.197
5.66 172.373 77.604
5.67 172.044 76.585
5.68 170.836 73.046
5.69 --undefined-- 66.423
5.70 --undefined-- 56.655
5.71 --undefined-- 47.628
5.72 --undefined-- 44.510
5.73 --undefined-- 42.858
5.74 --undefined-- 40.692
5.75 --undefined-- 39.078
5.76 --undefined-- 39.257
5.77 --undefined-- 38.901
5.78 --undefined-- 38.413
5.79 --undefined-- 38.818
5.80 --undefined-- 39.724
5.81 --undefined-- 40.831
5.82 --undefined-- 41.781
5.83 --undefined-- 42.046
5.84 --undefined-- 41.269
5.85 --undefined-- 38.978
5.86 --undefined-- 36.369
5.87 --undefined-- 36.759
5.88 --undefined-- 38.503
5.89 --undefined-- 39.984
5.90 --undefined-- 40.127
5.91 --undefined-- 41.137
5.92 --undefined-- 45.275
5.93 --undefined-- 48.471
5.94 --undefined-- 50.533
5.95 --undefined-- 54.125
5.96 124.801 59.079
5.97 127.124 63.112
5.98 128.245 65.092
5.99 126.853 64.774
6.00 --undefined-- 62.646
6.01 --undefined-- 60.618
6.02 --undefined-- 59.405
6.03 --undefined-- 58.324
6.04 --undefined-- 56.249
6.05 --undefined-- 51.852
6.06 --undefined-- 45.852
6.07 --undefined-- 40.282
6.08 --undefined-- 37.368
6.09 --undefined-- 36.814
6.10 --undefined-- 37.317
6.11 --undefined-- 38.718
6.12 --undefined-- 39.277
6.13 --undefined-- 38.471
6.14 --undefined-- 36.864
6.15 --undefined-- 36.687
6.16 --undefined-- 37.375
6.17 --undefined-- 37.883
6.18 --undefined-- 37.552
6.19 --undefined-- 36.872
6.20 --undefined-- 37.083
6.21 --undefined-- 37.998
6.22 --undefined-- 37.711
6.23 --undefined-- 36.624
6.24 --undefined-- 36.363
6.25 --undefined-- 37.224
6.26 --undefined-- 38.448
6.27 --undefined-- 37.895
6.28 --undefined-- 36.041
6.29 --undefined-- 36.786
6.30 --undefined-- 37.965
6.31 --undefined-- 38.048
6.32 --undefined-- 38.694
6.33 --undefined-- 39.859
6.34 --undefined-- 40.624
6.35 --undefined-- 40.817
6.36 --undefined-- 41.830
6.37 --undefined-- 43.856
6.38 --undefined-- 44.885
6.39 --undefined-- 45.236
6.40 --undefined-- 46.186
6.41 --undefined-- 47.826
6.42 --undefined-- 49.857
6.43 --undefined-- 51.192
6.44 --undefined-- 51.339
6.45 --undefined-- 52.100
6.46 --undefined-- 53.183
6.47 --undefined-- 53.129
6.48 --undefined-- 53.049
6.49 --undefined-- 54.912
6.50 129.126 58.780
6.51 129.831 62.686
6.52 130.946 65.240
6.53 135.185 66.653
6.54 137.151 67.758
6.55 141.921 69.177
6.56 152.826 70.826
6.57 156.300 72.319
6.58 160.629 73.063
6.59 162.015 72.399
6.60 161.479 70.210
6.61 165.171 68.603
6.62 166.357 68.925
6.63 164.596 69.116
6.64 160.693 68.734
6.65 153.980 68.398
6.66 146.405 69.191
6.67 --undefined-- 71.946
6.68 --undefined-- 75.101
6.69 --undefined-- 76.738
6.70 108.425 76.443
6.71 108.360 74.536
6.72 118.070 72.202
6.73 116.776 70.454
6.74 --undefined-- 67.835
6.75 --undefined-- 62.760
6.76 --undefined-- 56.217
6.77 --undefined-- 53.051
6.78 --undefined-- 52.256
6.79 --undefined-- 52.241
6.80 --undefined-- 52.643
6.81 --undefined-- 53.290
6.82 --undefined-- 53.780
6.83 --undefined-- 54.665
6.84 --undefined-- 54.899
6.85 --undefined-- 53.551
6.86 --undefined-- 49.964
6.87 --undefined-- 45.045
6.88 --undefined-- 42.473
6.89 --undefined-- 46.001
6.90 --undefined-- 60.692
6.91 --undefined-- 71.627
6.92 132.622 77.925
6.93 133.249 80.747
6.94 134.441 80.915
6.95 133.824 79.760
6.96 135.683 78.487
6.97 136.676 77.284
6.98 135.739 75.854
6.99 135.103 74.149
7.00 135.866 72.281
7.01 137.073 69.998
7.02 135.476 67.517
7.03 135.194 --undefined--
7.04 136.491 --undefined--
7.05 --undefined-- --undefined--
7.06 --undefined-- --undefined--
