Time Pitch Intensity
0.01 --undefined-- --undefined--
0.02 266.337 --undefined--
0.03 243.650 --undefined--
0.04 233.891 --undefined--
0.05 226.780 68.354
0.06 221.984 68.864
0.07 218.829 69.188
0.08 217.159 69.642
0.09 216.818 69.619
0.10 217.249 68.997
0.11 218.117 68.233
0.12 220.092 67.664
0.13 222.069 67.493
0.14 224.835 67.686
0.15 227.079 67.818
0.16 228.879 67.774
0.17 230.311 67.641
0.18 231.370 67.264
0.19 231.768 66.584
0.20 230.363 66.013
0.21 230.233 66.010
0.22 229.126 66.427
0.23 228.071 66.448
0.24 226.367 65.861
0.25 224.860 65.336
0.26 223.467 64.937
0.27 221.112 64.568
0.28 217.550 64.084
0.29 214.598 62.686
0.30 207.626 60.203
0.31 204.593 57.965
0.32 --undefined-- 56.054
0.33 --undefined-- 53.395
0.34 --undefined-- 53.014
0.35 --undefined-- 57.242
0.36 184.654 61.924
0.37 178.600 65.197
0.38 174.330 67.046
0.39 170.821 68.051
0.40 167.694 68.744
0.41 165.459 69.000
0.42 163.788 68.557
0.43 162.786 67.887
0.44 163.279 67.366
0.45 164.297 66.465
0.46 165.307 65.012
0.47 166.707 63.644
0.48 168.273 62.634
0.49 165.003 60.887
0.50 160.738 57.374
0.51 --undefined-- 52.678
0.52 --undefined-- 50.622
0.53 --undefined-- 50.134
0.54 --undefined-- 49.269
0.55 --undefined-- 50.104
0.56 --undefined-- 51.467
0.57 --undefined-- 51.114
0.58 --undefined-- 48.551
0.59 --undefined-- 47.397
0.60 --undefined-- 50.066
0.61 --undefined-- 50.920
0.62 --undefined-- 51.201
0.63 --undefined-- 55.141
0.64 --undefined-- 59.002
0.65 173.805 61.677
0.66 169.847 63.384
0.67 165.349 64.426
0.68 164.370 65.269
0.69 163.838 65.995
0.70 162.986 66.182
0.71 162.757 65.704
0.72 162.260 64.861
0.73 162.187 63.892
0.74 159.939 62.529
0.75 156.933 60.461
0.76 150.361 57.898
0.77 152.698 55.419
0.78 162.535 55.220
0.79 184.715 58.730
0.80 185.163 62.965
0.81 184.437 66.090
0.82 178.570 68.399
0.83 176.664 70.147
0.84 175.445 71.094
0.85 175.035 71.640
0.86 175.795 72.072
0.87 177.640 72.218
0.88 179.132 72.145
0.89 180.123 72.196
0.90 181.320 72.819
0.91 180.683 73.789
0.92 180.629 74.609
0.93 180.799 75.019
0.94 180.772 75.057
0.95 180.768 74.969
0.96 180.276 74.981
0.97 177.629 75.066
0.98 176.106 74.932
0.99 173.420 73.974
1.00 168.947 71.345
1.01 --undefined-- 66.842
1.02 --undefined-- 61.950
1.03 --undefined-- 59.392
1.04 283.528 58.872
1.05 285.922 57.972
1.06 282.678 57.057
1.07 --undefined-- 57.315
1.08 --undefined-- 55.879
1.09 --undefined-- 52.937
1.10 --undefined-- 53.414
1.11 --undefined-- 54.536
1.12 --undefined-- 53.781
1.13 --undefined-- 52.978
1.14 --undefined-- 52.705
1.15 --undefined-- 52.295
1.16 --undefined-- 52.687
1.17 --undefined-- 54.387
1.18 --undefined-- 54.633
1.19 --undefined-- 54.116
1.20 --undefined-- 55.408
1.21 --undefined-- 55.234
1.22 --undefined-- 53.818
1.23 --undefined-- 53.907
1.24 --undefined-- 54.154
1.25 --undefined-- 53.124
1.26 --undefined-- 52.004
1.27 --undefined-- 54.517
1.28 --undefined-- 58.316
1.29 --undefined-- 59.426
1.30 --undefined-- 57.221
1.31 --undefined-- 54.388
1.32 --undefined-- 53.046
1.33 --undefined-- 51.385
1.34 --undefined-- 53.049
1.35 --undefined-- 55.266
1.36 --undefined-- 55.987
1.37 --undefined-- 56.333
1.38 --undefined-- 55.973
1.39 --undefined-- 55.028
1.40 --undefined-- 54.170
1.41 288.217 53.985
1.42 287.489 55.131
1.43 289.429 55.999
1.44 287.341 56.442
1.45 292.541 56.462
1.46 239.666 57.525
1.47 289.745 57.028
1.48 288.359 54.010
1.49 285.468 53.415
1.50 285.628 56.108
1.51 292.595 57.449
1.52 --undefined-- 58.017
1.53 --undefined-- 58.654
1.54 --undefined-- 57.312
1.55 --undefined-- 54.212
1.56 --undefined-- 52.345
1.57 --undefined-- 53.808
1.58 285.656 57.439
1.59 286.972 59.888
1.60 289.513 60.063
1.61 275.171 58.142
1.62 271.317 55.979
1.63 --undefined-- 54.149
1.64 --undefined-- 54.897
1.65 --undefined-- 58.346
1.66 --undefined-- 60.132
1.67 --undefined-- 59.392
1.68 --undefined-- 58.751
1.69 --undefined-- 60.804
1.70 211.887 63.089
1.71 211.467 65.595
1.72 214.346 68.200
1.73 219.143 70.188
1.74 226.256 71.704
1.75 232.869 72.987
1.76 237.701 73.523
1.77 243.524 73.026
1.78 247.203 71.688
1.79 247.640 69.704
1.80 243.115 66.795
1.81 234.565 63.135
1.82 239.098 60.539
1.83 254.393 60.400
1.84 252.704 60.177
1.85 252.557 59.067
1.86 278.207 58.325
1.87 288.580 56.789
1.88 --undefined-- 56.431
1.89 283.384 58.545
1.90 294.144 59.662
1.91 269.038 59.040
1.92 194.825 61.966
1.93 184.288 67.317
1.94 185.246 70.969
1.95 186.761 72.870
1.96 187.419 73.427
1.97 187.623 73.095
1.98 187.432 72.567
1.99 189.147 72.326
2.00 190.774 72.292
2.01 189.895 72.402
2.02 190.368 72.616
2.03 192.176 72.718
2.04 194.025 72.755
2.05 195.063 72.912
2.06 194.932 73.203
2.07 193.998 73.593
2.08 193.202 73.922
2.09 192.517 74.043
2.10 191.008 73.892
2.11 188.042 73.081
2.12 181.690 70.878
2.13 166.867 67.038
2.14 161.617 62.986
2.15 --undefined-- 59.592
2.16 --undefined-- 57.393
2.17 190.791 61.949
2.18 182.942 67.694
2.19 174.699 70.862
2.20 175.015 71.696
2.21 177.047 71.332
2.22 180.479 71.055
2.23 182.558 71.328
2.24 183.669 71.641
2.25 184.649 71.571
2.26 184.980 71.288
2.27 183.149 71.065
2.28 180.886 71.118
2.29 182.748 71.300
2.30 182.997 71.304
2.31 182.696 71.161
2.32 182.366 70.919
2.33 181.012 70.484
2.34 178.620 69.713
2.35 174.781 68.705
2.36 169.937 67.826
2.37 164.561 66.849
2.38 160.699 64.724
2.39 165.914 61.042
2.40 172.693 57.639
2.41 171.600 58.051
2.42 --undefined-- 63.035
2.43 261.734 66.869
2.44 244.315 68.451
2.45 224.524 68.617
2.46 213.989 68.176
2.47 204.879 67.416
2.48 201.579 66.791
2.49 202.170 66.510
2.50 207.063 66.204
2.51 214.006 66.365
2.52 218.458 67.157
2.53 227.112 67.844
2.54 230.527 68.310
2.55 242.210 68.526
2.56 247.087 68.255
2.57 264.436 67.959
2.58 270.795 67.921
2.59 286.078 67.794
2.60 290.798 67.346
2.61 290.890 65.970
2.62 282.953 63.021
2.63 273.222 58.310
2.64 280.107 53.684
2.65 282.618 54.656
2.66 --undefined-- 58.286
2.67 --undefined-- 59.212
2.68 --undefined-- 56.880
2.69 --undefined-- 52.380
2.70 --undefined-- 50.618
2.71 --undefined-- 53.317
2.72 253.957 58.486
2.73 248.055 62.808
2.74 236.374 64.857
2.75 201.306 65.679
2.76 180.629 66.284
2.77 168.752 66.353
2.78 159.866 65.700
2.79 158.578 64.936
2.80 158.592 64.182
2.81 163.242 63.429
2.82 164.131 63.089
2.83 164.032 63.513
2.84 163.987 64.764
2.85 164.767 65.370
2.86 167.049 64.597
2.87 168.150 63.709
2.88 168.120 63.574
2.89 168.417 63.586
2.90 168.726 64.019
2.91 168.141 64.933
2.92 168.105 65.071
2.93 168.081 64.355
2.94 167.570 63.875
2.95 166.250 63.091
2.96 163.487 61.996
2.97 162.888 62.208
2.98 162.960 62.853
2.99 163.760 63.491
3.00 165.874 64.851
3.01 168.347 66.202
3.02 167.117 66.957
3.03 164.925 67.624
3.04 164.180 68.451
3.05 164.475 68.822
3.06 164.593 68.670
3.07 166.387 68.210
3.08 170.590 67.546
3.09 176.620 67.711
3.10 181.394 69.172
3.11 191.483 70.706
3.12 196.936 70.877
3.13 207.764 69.181
3.14 224.897 66.838
3.15 229.487 65.825
3.16 238.638 65.951
3.17 243.245 66.242
3.18 247.863 66.706
3.19 247.415 68.027
3.20 242.105 70.147
3.21 234.966 71.803
3.22 225.764 71.729
3.23 207.970 69.774
3.24 187.291 67.609
3.25 182.280 66.655
3.26 171.886 65.865
3.27 168.488 64.859
3.28 165.506 64.490
3.29 165.818 64.781
3.30 166.385 64.659
3.31 164.614 64.236
3.32 163.022 63.965
3.33 162.663 63.675
3.34 161.977 63.051
3.35 161.865 62.272
3.36 163.923 62.749
3.37 167.696 64.849
3.38 173.769 66.535
3.39 178.595 67.574
3.40 184.689 68.641
3.41 188.695 69.616
3.42 193.543 70.017
3.43 199.528 69.867
3.44 202.930 69.288
3.45 202.946 67.838
3.46 201.678 64.846
3.47 189.743 60.531
3.48 187.549 56.142
3.49 --undefined-- 53.163
3.50 --undefined-- 52.757
3.51 --undefined-- 54.163
3.52 --undefined-- 57.354
3.53 --undefined-- 60.463
3.54 --undefined-- 61.941
3.55 --undefined-- 63.304
3.56 193.601 66.293
3.57 194.018 69.305
3.58 195.291 71.079
3.59 198.358 71.433
3.60 202.549 70.555
3.61 213.368 69.045
3.62 221.620 68.236
3.63 229.551 68.092
3.64 233.927 67.323
3.65 235.588 65.438
3.66 232.246 62.339
3.67 231.056 58.495
3.68 231.305 54.836
3.69 --undefined-- 50.930
3.70 --undefined-- 47.579
3.71 --undefined-- 51.768
3.72 --undefined-- 60.103
3.73 231.481 65.372
3.74 217.439 67.540
3.75 198.544 67.977
3.76 187.147 68.211
3.77 184.137 67.536
3.78 177.184 64.741
3.79 184.219 60.008
3.80 182.929 55.728
3.81 --undefined-- 53.017
3.82 --undefined-- 50.917
3.83 --undefined-- 51.616
3.84 --undefined-- 54.595
3.85 --undefined-- 57.884
3.86 239.244 61.860
3.87 221.918 64.877
3.88 203.100 65.986
3.89 198.245 66.171
3.90 197.630 66.534
3.91 199.029 66.773
3.92 199.885 66.409
3.93 200.943 65.854
3.94 202.726 65.396
3.95 203.724 64.445
3.96 202.722 62.664
3.97 199.077 59.939
3.98 192.579 56.896
3.99 --undefined-- 57.579
4.00 --undefined-- 60.078
4.01 --undefined-- 60.368
4.02 --undefined-- 57.889
4.03 --undefined-- 54.909
4.04 --undefined-- 53.823
4.05 --undefined-- 51.729
4.06 --undefined-- 49.782
4.07 --undefined-- 49.445
4.08 --undefined-- 51.863
4.09 --undefined-- 56.478
4.10 284.199 61.620
4.11 272.529 64.868
4.12 269.760 66.233
4.13 271.085 66.888
4.14 271.328 67.444
4.15 271.997 67.849
4.16 273.618 68.238
4.17 275.308 68.644
4.18 277.155 69.164
4.19 279.488 69.611
4.20 281.206 69.838
4.21 282.975 69.905
4.22 284.260 69.786
4.23 284.147 69.167
4.24 282.273 67.681
4.25 279.208 64.989
4.26 279.459 60.395
4.27 284.605 54.356
4.28 --undefined-- 51.583
4.29 --undefined-- 54.843
4.30 --undefined-- 57.643
4.31 --undefined-- 57.309
4.32 240.900 55.613
4.33 223.243 57.202
4.34 222.794 59.904
4.35 220.300 62.005
4.36 204.200 63.844
4.37 190.403 65.759
4.38 178.820 66.694
4.39 167.665 66.210
4.40 164.673 65.322
4.41 162.162 64.796
4.42 160.890 64.556
4.43 159.561 64.539
4.44 157.803 64.351
4.45 157.742 63.967
4.46 158.608 63.669
4.47 159.210 63.539
4.48 159.225 63.073
4.49 156.867 61.491
4.50 152.529 58.460
4.51 152.756 54.885
4.52 162.808 53.315
4.53 157.233 52.783
4.54 --undefined-- 51.484
4.55 --undefined-- 50.282
4.56 --undefined-- 50.923
4.57 --undefined-- 53.014
4.58 281.273 54.136
4.59 282.447 53.575
4.60 250.872 54.728
4.61 231.690 58.681
4.62 241.227 62.208
4.63 253.752 64.615
4.64 263.863 66.493
4.65 267.144 68.108
4.66 263.718 69.572
4.67 262.319 70.734
4.68 263.192 71.145
4.69 265.387 70.434
4.70 272.476 68.913
4.71 274.392 67.649
4.72 273.828 67.126
4.73 271.078 66.836
4.74 266.808 66.304
4.75 261.597 65.372
4.76 255.916 64.387
4.77 250.049 63.971
4.78 246.794 63.924
4.79 243.966 63.607
4.80 237.276 62.982
4.81 233.212 62.617
4.82 223.726 62.842
4.83 219.785 63.472
4.84 207.223 64.275
4.85 194.268 64.851
4.86 192.159 65.404
4.87 187.866 66.564
4.88 182.698 68.000
4.89 179.294 69.208
4.90 176.901 69.887
4.91 176.342 70.040
4.92 177.257 70.064
4.93 178.725 70.379
4.94 180.501 --undefined--
4.95 182.661 --undefined--
4.96 --undefined-- --undefined--
4.97 --undefined-- --undefined--
