Time Pitch Intensity
0.01 --undefined-- --undefined--
0.02 154.970 --undefined--
0.03 154.794 --undefined--
0.04 154.874 --undefined--
0.05 154.864 75.057
0.06 155.395 74.414
0.07 155.098 73.177
0.08 151.585 71.753
0.09 152.324 71.427
0.10 153.163 72.016
0.11 155.187 72.784
0.12 155.363 73.272
0.13 154.379 73.559
0.14 153.274 73.718
0.15 153.058 73.707
0.16 152.602 73.640
0.17 152.408 73.596
0.18 152.698 73.547
0.19 152.725 73.561
0.20 152.129 73.593
0.21 151.951 73.516
0.22 151.955 73.474
0.23 151.617 73.543
0.24 152.037 73.677
0.25 155.700 74.048
0.26 154.704 74.365
0.27 153.671 74.392
0.28 152.931 74.597
0.29 151.825 74.885
0.30 150.579 74.906
0.31 149.278 74.758
0.32 147.983 74.660
0.33 146.752 74.511
0.34 144.772 74.340
0.35 143.430 74.444
0.36 141.576 74.589
0.37 139.329 74.555
0.38 136.205 74.668
0.39 134.120 74.891
0.40 131.017 74.978
0.41 128.544 74.968
0.42 126.521 74.901
0.43 123.962 74.777
0.44 121.830 74.672
0.45 120.555 74.545
0.46 118.633 74.317
0.47 117.448 74.151
0.48 116.533 74.136
0.49 115.510 73.559
0.50 110.078 71.261
0.51 97.335 67.170
0.52 118.160 63.409
0.53 114.077 59.656
0.54 116.411 56.223
0.55 117.265 58.961
0.56 134.362 66.575
0.57 161.279 72.071
0.58 148.537 74.770
0.59 144.505 75.513
0.60 143.725 75.480
0.61 143.499 75.325
0.62 142.474 75.000
0.63 141.332 74.389
0.64 141.220 73.680
0.65 141.384 73.234
0.66 144.542 73.386
0.67 148.341 73.898
0.68 151.312 74.304
0.69 154.231 74.491
0.70 158.894 74.689
0.71 162.846 75.261
0.72 167.227 75.978
0.73 171.851 76.439
0.74 174.275 76.374
0.75 176.935 75.674
0.76 178.317 74.685
0.77 175.825 73.683
0.78 169.173 72.790
0.79 166.155 72.221
0.80 163.741 71.943
0.81 160.596 71.884
0.82 156.520 72.308
0.83 152.453 73.006
0.84 147.021 73.392
0.85 140.194 73.580
0.86 135.176 74.163
0.87 131.424 74.945
0.88 128.907 75.350
0.89 126.628 75.439
0.90 126.365 75.552
0.91 125.723 75.669
0.92 124.338 75.155
0.93 122.471 72.952
0.94 122.571 68.532
0.95 122.875 63.367
0.96 124.738 59.948
0.97 126.392 61.504
0.98 --undefined-- 68.511
0.99 138.409 73.007
1.00 126.396 74.776
1.01 120.918 75.143
1.02 117.012 75.217
1.03 114.213 75.259
1.04 113.451 75.310
1.05 113.521 75.011
1.06 113.905 74.525
1.07 115.461 74.297
1.08 116.316 74.016
1.09 114.807 73.341
1.10 113.857 72.416
1.11 112.989 71.590
1.12 112.476 71.134
1.13 113.124 71.303
1.14 117.124 72.302
1.15 119.321 73.885
1.16 119.169 75.222
1.17 118.562 75.485
1.18 108.787 75.103
1.19 108.205 75.183
1.20 108.507 75.552
1.21 109.202 75.664
1.22 110.941 75.335
1.23 114.672 74.729
1.24 115.622 73.675
1.25 113.343 71.404
1.26 112.150 67.993
1.27 119.564 64.807
1.28 119.991 61.834
1.29 139.508 58.250
1.30 142.880 56.226
1.31 142.658 61.813
1.32 167.673 68.435
1.33 163.055 72.820
1.34 163.675 75.400
1.35 163.427 76.571
1.36 161.877 76.426
1.37 158.721 75.001
1.38 154.336 73.651
1.39 159.192 74.090
1.40 159.396 74.916
1.41 158.335 75.218
1.42 156.736 75.185
1.43 155.818 75.078
1.44 155.618 74.929
1.45 155.692 74.754
1.46 156.763 74.677
1.47 159.001 74.799
1.48 157.105 74.820
1.49 154.204 74.489
1.50 152.749 73.924
1.51 151.599 72.795
1.52 150.118 70.107
1.53 148.643 65.102
1.54 154.554 58.643
1.55 153.663 54.038
1.56 153.393 51.455
1.57 --undefined-- 49.562
1.58 --undefined-- 47.401
1.59 --undefined-- 45.311
1.60 --undefined-- 42.815
1.61 --undefined-- 41.388
1.62 --undefined-- 43.569
1.63 --undefined-- 52.840
1.64 --undefined-- 61.429
1.65 120.592 67.244
1.66 115.408 70.757
1.67 113.202 72.612
1.68 110.951 73.641
1.69 109.378 74.536
1.70 110.131 75.275
1.71 110.904 75.548
1.72 110.698 75.374
1.73 109.884 74.808
1.74 107.822 73.429
1.75 106.582 70.672
1.76 102.393 66.806
1.77 97.789 62.883
1.78 105.020 60.999
1.79 110.406 64.656
1.80 115.729 69.398
1.81 115.613 72.793
1.82 112.876 74.735
1.83 110.451 75.430
1.84 107.908 75.298
1.85 106.410 74.390
1.86 106.539 72.175
1.87 109.734 68.385
1.88 112.649 63.278
1.89 113.609 57.295
1.90 113.550 52.533
1.91 --undefined-- 49.951
1.92 --undefined-- 49.173
1.93 --undefined-- 49.385
1.94 --undefined-- 50.693
1.95 --undefined-- 51.794
1.96 --undefined-- 52.406
1.97 --undefined-- 53.980
1.98 --undefined-- 57.333
1.99 --undefined-- 60.637
2.00 --undefined-- 62.026
2.01 --undefined-- 61.335
2.02 --undefined-- 59.591
2.03 --undefined-- 61.667
2.04 147.185 67.401
2.05 134.280 70.706
2.06 122.180 71.490
2.07 116.917 70.907
2.08 114.080 69.952
2.09 110.745 68.750
2.10 108.377 66.815
2.11 108.383 63.569
2.12 117.222 59.470
2.13 117.232 56.507
2.14 117.137 55.438
2.15 123.020 55.057
2.16 123.259 54.656
2.17 --undefined-- 53.893
2.18 --undefined-- 53.523
2.19 --undefined-- 54.382
2.20 --undefined-- 56.784
2.21 --undefined-- 64.581
2.22 --undefined-- 71.189
2.23 157.601 74.303
2.24 140.401 74.940
2.25 137.122 74.919
2.26 135.344 74.892
2.27 133.138 74.091
2.28 127.790 72.311
2.29 129.950 71.319
2.30 137.359 72.459
2.31 137.143 73.673
2.32 136.176 74.213
2.33 136.238 74.356
2.34 135.731 74.353
2.35 133.854 74.249
2.36 130.913 74.025
2.37 128.333 73.645
2.38 125.598 72.896
2.39 121.670 71.543
2.40 116.606 69.906
2.41 111.062 69.832
2.42 109.256 71.637
2.43 104.427 73.209
2.44 95.888 73.922
2.45 95.032 73.910
2.46 92.562 73.327
2.47 87.404 72.419
2.48 90.108 70.981
2.49 87.290 68.978
2.50 84.996 67.734
2.51 96.035 68.160
2.52 90.408 69.073
2.53 95.245 69.595
2.54 96.576 69.944
2.55 99.131 70.582
2.56 101.404 71.413
2.57 104.052 72.124
2.58 107.060 72.557
2.59 110.481 72.763
2.60 115.133 72.852
2.61 117.824 72.926
2.62 120.642 73.117
2.63 125.326 73.634
2.64 127.295 74.290
2.65 128.099 74.521
2.66 126.908 74.039
2.67 123.624 73.106
2.68 123.996 71.767
2.69 122.230 69.742
2.70 116.531 68.313
2.71 116.701 68.753
2.72 117.462 70.020
2.73 116.926 71.377
2.74 114.488 72.453
2.75 111.666 73.271
2.76 102.969 74.058
2.77 97.649 74.639
2.78 98.875 74.902
2.79 101.161 75.069
2.80 102.576 75.194
2.81 102.354 75.225
2.82 101.263 75.085
2.83 100.226 74.706
2.84 98.795 74.018
2.85 97.411 73.037
2.86 96.908 71.962
2.87 98.425 71.270
2.88 100.298 71.336
2.89 104.196 71.960
2.90 109.234 72.700
2.91 113.817 73.421
2.92 118.360 74.130
2.93 122.415 74.631
2.94 125.187 74.775
2.95 126.501 74.584
2.96 129.232 74.137
2.97 130.108 73.682
2.98 129.360 73.400
2.99 128.620 73.441
3.00 130.482 74.291
3.01 131.114 75.696
3.02 130.388 76.485
3.03 130.729 76.515
3.04 130.641 76.448
3.05 130.356 76.465
3.06 129.722 76.264
3.07 127.788 75.573
3.08 125.863 74.169
3.09 123.255 72.146
3.10 117.529 69.908
3.11 118.970 67.445
3.12 111.977 64.108
3.13 111.139 59.895
3.14 113.767 56.360
3.15 117.428 54.284
3.16 119.420 53.325
3.17 122.588 52.753
3.18 124.484 51.706
3.19 --undefined-- 50.463
3.20 --undefined-- 49.810
3.21 --undefined-- 49.732
3.22 --undefined-- 50.021
3.23 --undefined-- 49.959
3.24 --undefined-- 49.543
3.25 --undefined-- 49.643
3.26 --undefined-- 49.481
3.27 --undefined-- 49.369
3.28 --undefined-- 50.263
3.29 --undefined-- 51.466
3.30 --undefined-- 51.909
3.31 --undefined-- 51.665
3.32 --undefined-- 51.615
3.33 --undefined-- 51.669
3.34 --undefined-- 51.557
3.35 --undefined-- 51.124
3.36 --undefined-- 50.642
3.37 --undefined-- 50.577
3.38 --undefined-- 50.425
3.39 --undefined-- 49.888
3.40 --undefined-- 49.425
3.41 --undefined-- 49.489
3.42 --undefined-- 49.323
3.43 --undefined-- 48.788
3.44 --undefined-- 48.079
3.45 --undefined-- 46.343
3.46 --undefined-- 43.293
3.47 --undefined-- 39.984
3.48 --undefined-- 39.900
3.49 --undefined-- 43.406
3.50 --undefined-- 45.782
3.51 --undefined-- 51.256
3.52 --undefined-- 59.523
3.53 --undefined-- 64.654
3.54 --undefined-- 68.210
3.55 97.446 71.026
3.56 85.027 72.561
3.57 96.964 73.134
3.58 104.443 73.362
3.59 108.316 73.556
3.60 115.536 73.551
3.61 120.992 73.322
3.62 128.272 73.374
3.63 144.243 74.015
3.64 154.649 74.805
3.65 166.703 74.861
3.66 181.551 74.169
3.67 193.589 73.393
3.68 194.257 72.439
3.69 193.147 70.156
3.70 198.089 65.999
3.71 183.328 63.114
3.72 --undefined-- 63.268
3.73 --undefined-- 64.430
3.74 173.222 69.694
3.75 160.800 73.949
3.76 149.045 75.553
3.77 132.384 75.497
3.78 117.721 75.325
3.79 107.780 75.234
3.80 101.224 74.700
3.81 96.837 74.025
3.82 96.321 72.977
3.83 97.584 70.939
3.84 97.556 67.768
3.85 101.360 63.742
3.86 100.146 59.275
3.87 100.124 55.703
3.88 --undefined-- 54.984
3.89 --undefined-- 62.320
3.90 --undefined-- 69.994
3.91 127.259 74.143
3.92 126.862 75.521
3.93 119.609 75.382
3.94 115.690 74.836
3.95 114.231 74.074
3.96 114.998 73.414
3.97 119.291 73.060
3.98 122.009 72.893
3.99 127.031 73.101
4.00 130.670 74.277
4.01 143.487 75.881
4.02 145.084 76.592
4.03 146.697 76.525
4.04 148.182 76.179
4.05 148.991 75.585
4.06 149.038 74.565
4.07 148.566 72.612
4.08 144.319 68.982
4.09 147.481 63.081
4.10 148.187 56.463
4.11 149.102 53.262
4.12 147.757 51.273
4.13 --undefined-- 48.898
4.14 --undefined-- 46.644
4.15 --undefined-- 50.432
4.16 --undefined-- 58.462
4.17 --undefined-- 63.600
4.18 --undefined-- 69.014
4.19 --undefined-- 73.847
4.20 --undefined-- 76.250
4.21 133.380 76.652
4.22 131.612 76.147
4.23 127.367 75.475
4.24 125.895 74.825
4.25 125.439 73.767
4.26 122.420 71.609
4.27 119.557 67.677
4.28 125.041 62.050
4.29 124.394 57.053
4.30 124.575 53.525
4.31 --undefined-- 50.260
4.32 --undefined-- 48.638
4.33 --undefined-- 49.143
4.34 --undefined-- 55.458
4.35 135.183 62.996
4.36 128.241 67.690
4.37 125.967 70.207
4.38 123.889 71.598
4.39 122.485 72.794
4.40 120.132 73.817
4.41 114.708 74.364
4.42 110.516 74.568
4.43 108.374 74.555
4.44 108.048 74.292
4.45 108.542 73.607
4.46 108.740 71.853
4.47 108.766 68.187
4.48 109.347 62.340
4.49 109.399 56.567
4.50 109.113 53.768
4.51 110.945 51.917
4.52 121.791 50.281
4.53 --undefined-- 48.360
4.54 --undefined-- 46.992
4.55 --undefined-- 47.134
4.56 --undefined-- 49.816
4.57 --undefined-- 59.992
4.58 --undefined-- 68.651
4.59 --undefined-- 73.332
4.60 --undefined-- 74.885
4.61 121.529 74.434
4.62 110.585 73.588
4.63 109.034 73.123
4.64 108.739 73.041
4.65 110.166 73.472
4.66 112.761 74.019
4.67 113.537 74.321
4.68 114.216 74.449
4.69 113.759 74.632
4.70 113.832 75.029
4.71 115.388 75.476
4.72 115.219 75.427
4.73 114.407 74.792
4.74 113.744 73.849
4.75 112.516 73.013
4.76 117.705 72.697
4.77 119.472 72.620
4.78 120.270 72.408
4.79 120.015 72.192
4.80 122.834 72.115
4.81 124.601 72.078
4.82 124.697 72.322
4.83 123.515 73.165
4.84 120.433 74.121
4.85 117.256 74.294
4.86 113.371 73.050
4.87 110.209 70.203
4.88 110.807 65.924
4.89 114.016 60.619
4.90 118.402 56.372
4.91 123.731 53.989
4.92 116.385 52.205
4.93 123.997 52.826
4.94 139.302 58.710
4.95 141.118 64.950
4.96 139.143 68.998
4.97 138.838 71.268
4.98 133.755 72.624
4.99 132.999 73.665
5.00 132.723 74.385
5.01 132.446 74.563
5.02 127.426 73.809
5.03 124.651 71.349
5.04 98.417 66.400
5.05 124.146 59.899
5.06 124.714 --undefined--
5.07 126.352 --undefined--
5.08 --undefined-- --undefined--
5.09 --undefined-- --undefined--
