Time Pitch Intensity
0.01 --undefined-- --undefined--
0.02 --undefined-- --undefined--
0.03 --undefined-- --undefined--
0.04 --undefined-- --undefined--
0.05 --undefined-- 50.107
0.06 --undefined-- 49.604
0.07 --undefined-- 50.623
0.08 --undefined-- 51.549
0.09 --undefined-- 50.816
0.10 --undefined-- 49.123
0.11 --undefined-- 47.057
0.12 --undefined-- 44.292
0.13 --undefined-- 45.025
0.14 --undefined-- 50.024
0.15 --undefined-- 52.279
0.16 --undefined-- 53.975
0.17 279.858 59.240
0.18 271.759 63.634
0.19 270.383 66.690
0.20 281.978 69.495
0.21 288.871 71.836
0.22 293.245 73.085
0.23 298.421 73.251
0.24 155.202 72.961
0.25 160.381 72.796
0.26 167.312 72.408
0.27 174.507 71.790
0.28 179.240 71.433
0.29 182.436 71.443
0.30 184.408 71.688
0.31 186.031 71.888
0.32 186.826 72.086
0.33 186.750 72.205
0.34 186.787 72.098
0.35 186.000 71.878
0.36 184.685 71.303
0.37 182.491 69.442
0.38 177.740 65.317
0.39 175.815 59.096
0.40 187.831 53.393
0.41 183.358 50.754
0.42 --undefined-- 51.424
0.43 --undefined-- 54.674
0.44 --undefined-- 58.016
0.45 --undefined-- 61.353
0.46 195.533 65.836
0.47 195.782 69.353
0.48 196.367 70.983
0.49 199.696 71.335
0.50 201.274 71.190
0.51 200.050 70.743
0.52 200.896 70.399
0.53 204.029 70.752
0.54 204.489 71.096
0.55 206.057 70.918
0.56 207.811 70.376
0.57 208.549 69.770
0.58 208.533 69.203
0.59 208.477 68.592
0.60 206.931 68.049
0.61 202.603 67.449
0.62 193.859 66.163
0.63 183.726 63.678
0.64 --undefined-- 60.729
0.65 --undefined-- 58.564
0.66 282.932 57.640
0.67 266.689 57.797
0.68 263.431 57.936
0.69 268.232 59.772
0.70 274.896 62.436
0.71 283.352 65.548
0.72 253.213 69.185
0.73 236.187 72.070
0.74 210.869 73.484
0.75 202.829 73.398
0.76 200.858 71.872
0.77 201.704 69.103
0.78 202.165 65.785
0.79 200.713 62.160
0.80 202.359 57.897
0.81 202.323 56.049
0.82 202.485 56.480
0.83 --undefined-- 54.860
0.84 --undefined-- 52.021
0.85 --undefined-- 51.187
0.86 --undefined-- 51.457
0.87 --undefined-- 51.626
0.88 --undefined-- 52.683
0.89 --undefined-- 54.753
0.90 --undefined-- 57.376
0.91 --undefined-- 60.439
0.92 --undefined-- 62.769
0.93 213.848 64.520
0.94 212.366 65.868
0.95 210.245 67.416
0.96 209.071 68.892
0.97 208.494 69.877
0.98 207.867 70.418
0.99 207.451 70.685
1.00 207.400 70.887
1.01 206.925 71.189
1.02 206.515 71.713
1.03 204.811 72.230
1.04 202.671 72.313
1.05 202.028 72.110
1.06 201.504 71.953
1.07 200.274 71.797
1.08 200.230 71.495
1.09 201.137 70.800
1.10 204.039 69.493
1.11 207.147 67.835
1.12 209.720 65.997
1.13 208.800 63.364
1.14 201.817 59.314
1.15 202.982 54.311
1.16 202.562 51.907
1.17 203.166 51.246
1.18 --undefined-- 49.513
1.19 --undefined-- 51.446
1.20 --undefined-- 56.925
1.21 --undefined-- 61.607
1.22 222.027 63.742
1.23 215.616 64.000
1.24 211.233 63.927
1.25 209.504 64.199
1.26 209.815 64.288
1.27 211.110 63.644
1.28 210.321 62.599
1.29 215.855 62.489
1.30 220.794 63.192
1.31 219.463 63.531
1.32 218.974 63.399
1.33 218.920 63.129
1.34 217.603 62.915
1.35 216.436 62.772
1.36 215.366 62.643
1.37 214.831 62.460
1.38 213.895 62.248
1.39 212.335 61.976
1.40 208.179 61.230
1.41 200.540 59.259
1.42 --undefined-- 57.052
1.43 --undefined-- 58.129
1.44 --undefined-- 59.554
1.45 182.588 61.065
1.46 177.207 63.136
1.47 173.789 64.650
1.48 171.643 65.349
1.49 167.990 65.381
1.50 165.018 65.044
1.51 164.138 64.904
1.52 164.418 65.239
1.53 164.680 65.906
1.54 165.498 66.717
1.55 167.049 67.190
1.56 169.104 67.025
1.57 176.241 66.712
1.58 181.816 66.708
1.59 188.088 66.581
1.60 193.424 66.173
1.61 204.684 65.792
1.62 207.905 65.882
1.63 208.217 65.527
1.64 205.914 63.284
1.65 199.203 58.644
1.66 201.926 52.750
1.67 207.963 50.260
1.68 --undefined-- 52.315
1.69 --undefined-- 54.511
1.70 --undefined-- 55.657
1.71 248.568 58.298
1.72 251.599 62.941
1.73 250.264 67.065
1.74 253.469 69.520
1.75 252.260 70.061
1.76 248.740 69.470
1.77 247.912 68.802
1.78 248.246 68.006
1.79 249.943 67.091
1.80 252.410 66.450
1.81 254.316 66.065
1.82 256.071 65.983
1.83 257.470 66.060
1.84 259.198 65.866
1.85 261.645 65.303
1.86 264.023 64.616
1.87 267.034 63.845
1.88 265.973 63.011
1.89 263.944 63.034
1.90 264.483 63.382
1.91 257.727 62.195
1.92 243.465 59.277
1.93 248.158 55.407
1.94 --undefined-- 52.281
1.95 --undefined-- 54.108
1.96 --undefined-- 56.661
1.97 --undefined-- 58.636
1.98 --undefined-- 61.190
1.99 214.377 63.523
2.00 203.145 65.600
2.01 194.989 67.095
2.02 191.282 67.319
2.03 188.845 66.175
2.04 186.765 63.827
2.05 183.923 60.395
2.06 177.560 56.552
2.07 --undefined-- 55.004
2.08 --undefined-- 56.483
2.09 --undefined-- 57.655
2.10 --undefined-- 58.067
2.11 --undefined-- 60.822
2.12 187.583 63.598
2.13 182.849 64.414
2.14 170.598 63.742
2.15 166.662 62.837
2.16 165.869 62.572
2.17 167.732 63.135
2.18 171.034 64.218
2.19 175.970 65.326
2.20 180.024 66.156
2.21 184.530 66.437
2.22 188.465 66.141
2.23 195.245 65.620
2.24 202.637 65.348
2.25 207.514 65.367
2.26 210.429 65.551
2.27 217.827 66.161
2.28 217.881 67.249
2.29 217.327 68.383
2.30 218.141 69.622
2.31 218.313 70.709
2.32 218.206 71.351
2.33 217.139 71.508
2.34 215.389 71.300
2.35 212.974 71.102
2.36 208.987 71.074
2.37 205.221 70.810
2.38 200.713 69.850
2.39 196.319 68.311
2.40 195.016 66.747
2.41 195.186 65.067
2.42 195.146 62.911
2.43 191.030 60.065
2.44 187.089 56.578
2.45 194.470 52.897
2.46 195.375 50.332
2.47 --undefined-- 49.649
2.48 --undefined-- 50.520
2.49 --undefined-- 53.077
2.50 --undefined-- 56.649
2.51 227.274 59.648
2.52 220.201 61.439
2.53 218.054 62.531
2.54 215.438 63.130
2.55 214.917 63.148
2.56 214.954 62.836
2.57 215.461 62.557
2.58 216.273 62.407
2.59 217.125 62.181
2.60 217.257 61.794
2.61 219.922 61.933
2.62 227.946 62.750
2.63 229.022 63.321
2.64 229.361 63.489
2.65 229.209 63.489
2.66 229.938 63.385
2.67 229.760 63.131
2.68 228.581 62.390
2.69 223.415 60.557
2.70 214.562 57.243
2.71 --undefined-- 54.916
2.72 --undefined-- 57.918
2.73 264.722 62.125
2.74 253.878 64.602
2.75 251.456 65.854
2.76 253.300 66.999
2.77 255.552 67.885
2.78 257.707 68.165
2.79 259.793 67.993
2.80 261.933 67.713
2.81 263.529 67.461
2.82 264.956 67.247
2.83 266.494 67.128
2.84 268.287 67.033
2.85 270.281 66.953
2.86 272.527 67.089
2.87 274.088 67.139
2.88 274.475 66.736
2.89 273.990 65.690
2.90 273.007 63.363
2.91 273.412 59.069
2.92 271.898 53.585
2.93 272.219 49.619
2.94 --undefined-- 47.692
2.95 --undefined-- 48.455
2.96 --undefined-- 50.147
2.97 --undefined-- 56.027
2.98 255.257 61.524
2.99 246.287 64.090
3.00 235.355 64.608
3.01 212.191 64.692
3.02 201.807 65.361
3.03 194.638 65.849
3.04 --undefined-- 65.669
3.05 --undefined-- 65.200
3.06 --undefined-- 64.322
3.07 --undefined-- 62.756
3.08 --undefined-- 60.789
3.09 --undefined-- 57.879
3.10 --undefined-- 54.425
3.11 --undefined-- 51.968
3.12 --undefined-- 51.368
3.13 --undefined-- 52.223
3.14 --undefined-- 54.181
3.15 --undefined-- 55.697
3.16 193.690 56.453
3.17 192.992 57.199
3.18 200.931 57.628
3.19 200.251 57.849
3.20 189.961 58.393
3.21 178.399 59.657
3.22 172.154 61.027
3.23 169.591 62.080
3.24 166.632 62.917
3.25 164.614 63.770
3.26 166.419 64.728
3.27 168.279 65.460
3.28 171.498 65.742
3.29 173.382 65.593
3.30 177.641 65.304
3.31 180.926 65.290
3.32 186.846 65.124
3.33 186.949 63.765
3.34 194.590 61.029
3.35 187.530 57.817
3.36 186.046 54.608
3.37 --undefined-- 50.741
3.38 --undefined-- 46.224
3.39 --undefined-- 42.764
3.40 --undefined-- 43.048
3.41 --undefined-- 46.039
3.42 --undefined-- 52.098
3.43 --undefined-- 57.658
3.44 --undefined-- 60.650
3.45 250.439 64.149
3.46 238.247 68.171
3.47 238.384 70.461
3.48 241.469 70.805
3.49 244.717 70.067
3.50 248.012 69.224
3.51 249.879 68.086
3.52 249.473 66.126
3.53 248.859 64.101
3.54 255.862 63.751
3.55 258.058 64.074
3.56 258.606 63.940
3.57 260.295 63.650
3.58 261.008 63.395
3.59 261.519 62.981
3.60 261.611 62.515
3.61 260.672 62.046
3.62 258.837 60.942
3.63 252.300 58.309
3.64 238.298 54.327
3.65 --undefined-- 52.999
3.66 --undefined-- 55.257
3.67 --undefined-- 56.224
3.68 --undefined-- 56.668
3.69 --undefined-- 57.055
3.70 --undefined-- 56.833
3.71 --undefined-- 57.392
3.72 --undefined-- 58.547
3.73 --undefined-- 59.700
3.74 --undefined-- 61.335
3.75 --undefined-- 62.876
3.76 --undefined-- 63.472
3.77 76.883 63.025
3.78 77.152 62.127
3.79 --undefined-- 61.314
3.80 --undefined-- 60.432
3.81 --undefined-- 59.137
3.82 --undefined-- 57.996
3.83 --undefined-- 56.338
3.84 --undefined-- 53.117
3.85 --undefined-- 49.270
3.86 --undefined-- 46.991
3.87 --undefined-- 46.489
3.88 --undefined-- 52.600
3.89 --undefined-- 58.998
3.90 --undefined-- 62.960
3.91 --undefined-- 64.889
3.92 168.220 65.832
3.93 169.290 66.176
3.94 169.539 65.889
3.95 169.903 65.497
3.96 169.088 65.414
3.97 168.097 65.500
3.98 167.548 65.515
3.99 167.643 65.501
4.00 168.092 65.729
4.01 167.776 66.070
4.02 166.989 66.222
4.03 165.770 66.065
4.04 166.603 65.434
4.05 169.140 64.121
4.06 171.786 62.039
4.07 174.218 59.180
4.08 170.358 55.611
4.09 --undefined-- 51.833
4.10 --undefined-- 49.416
4.11 --undefined-- 47.036
4.12 --undefined-- 44.469
4.13 --undefined-- 44.897
4.14 --undefined-- 47.351
4.15 --undefined-- 52.343
4.16 221.438 58.173
4.17 205.746 62.638
4.18 195.748 66.101
4.19 188.213 68.696
4.20 185.350 70.335
4.21 183.427 71.248
4.22 183.026 71.841
4.23 183.607 72.235
4.24 184.498 72.594
4.25 185.049 73.078
4.26 185.662 73.586
4.27 186.026 73.997
4.28 186.430 74.277
4.29 186.643 74.318
4.30 186.284 74.075
4.31 184.709 73.552
4.32 181.682 72.441
4.33 178.494 70.258
4.34 177.996 67.017
4.35 --undefined-- 62.629
4.36 --undefined-- 57.078
4.37 --undefined-- 52.241
4.38 --undefined-- 49.231
4.39 --undefined-- 47.580
4.40 --undefined-- 48.646
4.41 --undefined-- 48.375
4.42 --undefined-- 46.384
4.43 --undefined-- 45.569
4.44 --undefined-- 46.963
4.45 --undefined-- 49.091
4.46 --undefined-- 49.458
4.47 --undefined-- 49.508
4.48 --undefined-- 50.945
4.49 --undefined-- 52.967
4.50 --undefined-- 54.050
4.51 --undefined-- 53.151
4.52 --undefined-- 51.258
4.53 --undefined-- 49.550
4.54 --undefined-- 50.390
4.55 --undefined-- 52.141
4.56 --undefined-- 51.218
4.57 --undefined-- 48.259
4.58 --undefined-- 47.585
4.59 --undefined-- 49.351
4.60 --undefined-- 50.537
4.61 --undefined-- 51.114
4.62 --undefined-- 51.489
4.63 --undefined-- 51.109
4.64 --undefined-- 50.480
4.65 --undefined-- 50.053
4.66 --undefined-- 49.813
4.67 --undefined-- 49.848
4.68 --undefined-- 50.037
4.69 --undefined-- 50.393
4.70 --undefined-- 50.674
4.71 --undefined-- 51.666
4.72 --undefined-- 53.589
4.73 --undefined-- 54.559
4.74 --undefined-- 53.381
4.75 --undefined-- 49.918
4.76 --undefined-- 46.197
4.77 --undefined-- 45.002
4.78 --undefined-- 45.804
4.79 --undefined-- 49.969
4.80 --undefined-- 55.540
4.81 195.831 60.486
4.82 193.004 64.209
4.83 191.781 67.018
4.84 192.609 68.758
4.85 194.896 69.535
4.86 197.708 69.665
4.87 200.119 69.503
4.88 203.454 69.405
4.89 206.832 69.256
4.90 210.755 68.749
4.91 215.394 68.202
4.92 221.891 68.336
4.93 228.809 69.115
4.94 235.940 69.827
4.95 241.086 70.491
4.96 245.593 71.338
4.97 247.911 71.848
4.98 247.965 71.491
4.99 247.541 70.592
5.00 247.846 69.805
5.01 247.879 69.287
5.02 247.195 69.027
5.03 246.770 68.949
5.04 247.560 --undefined--
5.05 250.125 --undefined--
5.06 --undefined-- --undefined--
5.07 --undefined-- --undefined--
