Time Pitch Intensity
0.01 --undefined-- --undefined--
0.02 105.537 --undefined--
0.03 109.281 --undefined--
0.04 111.979 --undefined--
0.05 115.580 68.350
0.06 117.994 68.272
0.07 120.285 68.374
0.08 121.820 68.645
0.09 123.355 68.947
0.10 126.144 69.187
0.11 127.477 69.479
0.12 128.246 69.482
0.13 128.475 68.353
0.14 122.911 65.119
0.15 117.135 59.189
0.16 --undefined-- 51.535
0.17 --undefined-- 45.891
0.18 --undefined-- 45.775
0.19 --undefined-- 53.936
0.20 --undefined-- 62.488
0.21 155.082 68.007
0.22 144.897 70.675
0.23 143.062 71.371
0.24 140.801 70.917
0.25 141.457 70.078
0.26 142.167 69.692
0.27 141.686 69.849
0.28 140.476 70.041
0.29 140.430 69.969
0.30 140.701 69.719
0.31 141.136 69.597
0.32 141.892 69.673
0.33 141.847 69.817
0.34 141.215 69.694
0.35 140.542 69.245
0.36 140.043 68.679
0.37 138.695 67.986
0.38 135.731 66.924
0.39 129.220 64.788
0.40 --undefined-- 60.686
0.41 --undefined-- 54.090
0.42 --undefined-- 47.893
0.43 --undefined-- 50.877
0.44 --undefined-- 57.184
0.45 --undefined-- 60.367
0.46 --undefined-- 61.365
0.47 --undefined-- 63.069
0.48 --undefined-- 66.614
0.49 --undefined-- 69.354
0.50 111.513 70.706
0.51 109.575 71.350
0.52 107.695 71.740
0.53 106.688 71.651
0.54 105.657 70.887
0.55 105.380 69.664
0.56 104.955 68.698
0.57 105.536 68.431
0.58 105.601 67.768
0.59 105.424 65.574
0.60 --undefined-- 61.315
0.61 --undefined-- 54.784
0.62 --undefined-- 48.238
0.63 --undefined-- 46.652
0.64 --undefined-- 46.802
0.65 --undefined-- 45.183
0.66 --undefined-- 47.733
0.67 --undefined-- 58.925
0.68 --undefined-- 65.499
0.69 --undefined-- 68.021
0.70 --undefined-- 69.257
0.71 --undefined-- 71.809
0.72 --undefined-- 73.578
0.73 133.684 73.805
0.74 131.638 73.230
0.75 130.310 72.494
0.76 129.399 71.995
0.77 130.765 71.650
0.78 131.978 70.945
0.79 133.966 70.501
0.80 135.304 70.874
0.81 135.462 71.024
0.82 136.736 70.695
0.83 138.491 70.456
0.84 140.601 70.701
0.85 141.879 70.691
0.86 142.466 69.344
0.87 141.422 66.223
0.88 140.641 61.293
0.89 --undefined-- 54.910
0.90 --undefined-- 51.063
0.91 --undefined-- 51.143
0.92 --undefined-- 51.485
0.93 --undefined-- 51.667
0.94 --undefined-- 51.811
0.95 --undefined-- 52.190
0.96 --undefined-- 52.632
0.97 --undefined-- 52.995
0.98 --undefined-- 53.252
0.99 --undefined-- 53.199
1.00 --undefined-- 52.767
1.01 --undefined-- 51.790
1.02 --undefined-- 53.752
1.03 141.510 58.360
1.04 142.140 61.859
1.05 143.506 64.287
1.06 144.642 65.887
1.07 144.704 66.506
1.08 144.652 66.544
1.09 143.152 66.866
1.10 141.165 67.653
1.11 139.556 68.746
1.12 138.624 69.997
1.13 137.285 71.224
1.14 141.995 71.972
1.15 134.382 72.270
1.16 122.821 72.489
1.17 119.461 72.785
1.18 116.587 72.922
1.19 115.161 72.286
1.20 113.660 70.602
1.21 110.435 68.382
1.22 107.465 66.454
1.23 105.276 65.436
1.24 103.978 66.038
1.25 103.033 67.997
1.26 104.188 69.758
1.27 105.478 70.510
1.28 105.954 70.555
1.29 107.203 70.577
1.30 111.206 70.660
1.31 113.618 70.254
1.32 123.490 69.621
1.33 128.838 69.160
1.34 132.457 67.971
1.35 136.370 65.139
1.36 --undefined-- 60.328
1.37 --undefined-- 53.947
1.38 --undefined-- 48.385
1.39 --undefined-- 45.879
1.40 --undefined-- 47.083
1.41 --undefined-- 55.247
1.42 --undefined-- 62.453
1.43 --undefined-- 65.956
1.44 --undefined-- 66.196
1.45 --undefined-- 64.462
1.46 --undefined-- 65.639
1.47 --undefined-- 69.176
1.48 --undefined-- 71.104
1.49 --undefined-- 71.736
1.50 102.167 71.479
1.51 98.751 70.747
1.52 97.761 70.395
1.53 97.637 70.149
1.54 97.142 69.683
1.55 96.527 69.079
1.56 96.310 68.249
1.57 96.475 66.756
1.58 97.507 64.081
1.59 98.111 60.179
1.60 100.318 56.552
1.61 101.357 53.992
1.62 101.036 52.825
1.63 100.869 52.650
1.64 100.674 52.592
1.65 100.530 52.536
1.66 100.659 52.653
1.67 100.883 52.677
1.68 101.597 52.084
1.69 98.627 50.836
1.70 --undefined-- 49.106
1.71 --undefined-- 45.963
1.72 --undefined-- 42.146
1.73 --undefined-- 41.687
1.74 --undefined-- 40.447
1.75 --undefined-- 39.925
1.76 --undefined-- 45.891
1.77 --undefined-- 51.194
1.78 --undefined-- 54.838
1.79 --undefined-- 59.330
1.80 113.151 64.110
1.81 110.856 67.353
1.82 107.842 68.491
1.83 101.556 67.351
1.84 101.822 63.924
1.85 --undefined-- 58.390
1.86 --undefined-- 51.261
1.87 --undefined-- 44.088
1.88 --undefined-- 40.679
1.89 --undefined-- 39.450
1.90 --undefined-- 39.375
1.91 --undefined-- 39.499
1.92 --undefined-- 39.665
1.93 --undefined-- 41.236
1.94 --undefined-- 46.002
1.95 --undefined-- 53.803
1.96 --undefined-- 60.880
1.97 --undefined-- 65.287
1.98 128.065 67.525
1.99 127.165 68.452
2.00 126.514 68.690
2.01 126.256 68.337
2.02 125.729 67.503
2.03 125.295 66.587
2.04 124.769 65.584
2.05 123.926 64.028
2.06 122.359 61.917
2.07 121.272 59.872
2.08 120.623 58.736
2.09 119.178 59.037
2.10 118.343 61.143
2.11 118.523 64.967
2.12 117.585 68.506
2.13 116.168 70.396
2.14 110.651 70.485
2.15 100.468 69.223
2.16 99.476 67.069
2.17 99.272 65.150
2.18 --undefined-- 65.756
2.19 --undefined-- 67.238
2.20 --undefined-- 68.160
2.21 --undefined-- 68.674
2.22 --undefined-- 67.710
2.23 --undefined-- 66.563
2.24 --undefined-- 65.708
2.25 --undefined-- 65.482
2.26 --undefined-- 65.525
2.27 --undefined-- 65.427
2.28 --undefined-- 63.401
2.29 --undefined-- 61.786
2.30 --undefined-- 64.242
2.31 --undefined-- 66.139
2.32 --undefined-- 66.321
2.33 --undefined-- 67.254
2.34 --undefined-- 69.237
2.35 --undefined-- 70.721
2.36 --undefined-- 70.540
2.37 --undefined-- 69.326
2.38 --undefined-- 67.945
2.39 --undefined-- 66.139
2.40 --undefined-- 64.069
2.41 --undefined-- 59.407
2.42 --undefined-- 51.482
2.43 --undefined-- 46.937
2.44 --undefined-- 46.437
2.45 --undefined-- 46.652
2.46 --undefined-- 48.988
2.47 --undefined-- 51.210
2.48 --undefined-- 53.071
2.49 --undefined-- 55.429
2.50 --undefined-- 57.221
2.51 --undefined-- 57.985
2.52 --undefined-- 57.912
2.53 --undefined-- 56.914
2.54 --undefined-- 55.936
2.55 87.196 56.804
2.56 86.913 58.174
2.57 --undefined-- 58.788
2.58 --undefined-- 59.015
2.59 281.100 60.183
2.60 282.315 60.621
2.61 --undefined-- 58.946
2.62 --undefined-- 55.868
2.63 --undefined-- 54.677
2.64 --undefined-- 55.968
2.65 --undefined-- 57.101
2.66 271.300 57.587
2.67 271.345 57.213
2.68 271.193 54.876
2.69 --undefined-- 49.645
2.70 --undefined-- 42.013
2.71 --undefined-- 36.167
2.72 --undefined-- 34.685
2.73 --undefined-- 35.702
2.74 --undefined-- 36.562
2.75 --undefined-- 45.005
2.76 --undefined-- 58.690
2.77 --undefined-- 66.368
2.78 --undefined-- 69.338
2.79 --undefined-- 69.385
2.80 122.364 69.540
2.81 126.459 69.648
2.82 126.000 67.744
2.83 123.560 64.585
2.84 129.523 63.882
2.85 132.815 64.557
2.86 136.371 65.244
2.87 139.593 66.022
2.88 144.994 66.594
2.89 148.640 66.875
2.90 151.471 67.303
2.91 153.238 67.723
2.92 155.101 67.519
2.93 156.977 66.753
2.94 157.411 65.823
2.95 157.680 65.706
2.96 157.791 67.343
2.97 159.122 69.285
2.98 162.445 70.464
2.99 163.774 70.888
3.00 163.743 70.863
3.01 162.793 70.558
3.02 160.987 70.002
3.03 157.432 69.238
3.04 155.422 68.110
3.05 151.261 66.237
3.06 145.428 63.472
3.07 138.269 59.866
3.08 --undefined-- 55.594
3.09 --undefined-- 54.732
3.10 --undefined-- 59.517
3.11 --undefined-- 65.462
3.12 --undefined-- 70.172
3.13 --undefined-- 72.330
3.14 --undefined-- 72.817
3.15 117.621 72.573
3.16 114.218 71.330
3.17 111.758 69.668
3.18 110.004 68.371
3.19 109.247 66.563
3.20 99.799 63.393
3.21 96.130 58.911
3.22 --undefined-- 53.455
3.23 --undefined-- 48.134
3.24 --undefined-- 46.296
3.25 --undefined-- 47.948
3.26 --undefined-- 52.388
3.27 --undefined-- 56.038
3.28 --undefined-- 61.330
3.29 --undefined-- 67.427
3.30 --undefined-- 70.974
3.31 --undefined-- 72.126
3.32 100.882 71.707
3.33 99.531 70.854
3.34 98.315 70.471
3.35 97.489 70.126
3.36 96.058 69.392
3.37 95.369 68.688
3.38 94.050 68.517
3.39 93.942 68.084
3.40 92.135 67.026
3.41 92.510 65.963
3.42 93.076 65.661
3.43 93.479 66.095
3.44 93.834 66.119
3.45 95.759 65.551
3.46 93.259 65.149
3.47 94.872 65.096
3.48 95.536 65.161
3.49 100.534 65.185
3.50 102.137 65.700
3.51 106.240 67.099
3.52 111.525 68.861
3.53 115.653 70.031
3.54 119.707 70.227
3.55 123.178 70.243
3.56 126.436 70.205
3.57 128.536 69.587
3.58 129.739 67.865
3.59 129.468 64.170
3.60 --undefined-- 57.881
3.61 --undefined-- 50.053
3.62 --undefined-- 45.870
3.63 --undefined-- 44.878
3.64 --undefined-- 43.563
3.65 --undefined-- 43.109
3.66 --undefined-- 53.870
3.67 --undefined-- 63.343
3.68 --undefined-- 67.999
3.69 --undefined-- 68.573
3.70 --undefined-- 66.726
3.71 104.658 66.870
3.72 103.878 68.184
3.73 --undefined-- 68.829
3.74 95.570 69.155
3.75 95.178 69.241
3.76 94.395 69.244
3.77 93.202 69.110
3.78 91.643 68.649
3.79 92.651 68.362
3.80 92.202 67.654
3.81 93.982 67.366
3.82 93.907 67.754
3.83 93.024 67.339
3.84 94.274 66.996
3.85 94.298 67.213
3.86 --undefined-- 67.673
3.87 --undefined-- 67.512
3.88 --undefined-- 66.602
3.89 95.903 67.416
3.90 94.323 67.936
3.91 91.204 67.932
3.92 100.453 68.919
3.93 100.309 68.824
3.94 103.224 67.927
3.95 102.282 68.053
3.96 101.267 67.671
3.97 --undefined-- 67.449
3.98 93.452 68.365
3.99 92.604 68.004
4.00 88.875 67.021
4.01 83.380 67.587
4.02 83.363 67.622
4.03 96.650 65.513
4.04 96.122 62.021
4.05 --undefined-- 62.884
4.06 203.272 64.366
4.07 203.715 62.132
4.08 202.748 56.993
4.09 94.803 54.449
4.10 95.398 55.960
4.11 100.149 60.745
4.12 102.063 66.020
4.13 102.937 69.539
4.14 104.535 71.009
4.15 104.143 70.909
4.16 104.936 70.393
4.17 108.096 70.112
4.18 109.559 69.668
4.19 111.024 68.280
4.20 112.181 65.299
4.21 110.124 60.362
4.22 109.745 53.802
4.23 --undefined-- 48.221
4.24 --undefined-- 50.591
4.25 --undefined-- 59.178
4.26 --undefined-- 65.089
4.27 --undefined-- 68.395
4.28 110.308 69.905
4.29 109.641 70.310
4.30 108.567 70.288
4.31 108.292 70.171
4.32 107.457 69.890
4.33 107.159 69.391
4.34 107.123 68.571
4.35 106.527 67.416
4.36 106.650 66.009
4.37 105.924 64.035
4.38 105.544 61.538
4.39 106.385 59.889
4.40 108.747 60.175
4.41 112.672 61.560
4.42 113.977 62.924
4.43 111.160 62.769
4.44 111.440 59.833
4.45 --undefined-- 54.222
4.46 --undefined-- 54.209
4.47 --undefined-- 58.366
4.48 --undefined-- 61.058
4.49 --undefined-- 62.741
4.50 --undefined-- 63.900
4.51 --undefined-- 63.933
4.52 --undefined-- 61.895
4.53 --undefined-- 58.641
4.54 --undefined-- 58.290
4.55 --undefined-- 62.469
4.56 107.051 65.989
4.57 106.594 67.673
4.58 108.641 68.060
4.59 112.340 67.573
4.60 117.532 66.118
4.61 122.803 64.454
4.62 133.497 65.473
4.63 141.380 67.673
4.64 150.488 69.259
4.65 158.115 70.369
4.66 162.987 71.047
4.67 164.507 71.120
4.68 164.811 70.689
4.69 164.614 69.791
4.70 163.890 67.624
4.71 162.415 63.219
4.72 --undefined-- 57.728
4.73 --undefined-- 56.851
4.74 --undefined-- 58.525
4.75 --undefined-- 59.787
4.76 --undefined-- 60.633
4.77 --undefined-- 61.972
4.78 --undefined-- 63.214
4.79 --undefined-- 63.657
4.80 --undefined-- 64.650
4.81 124.894 66.948
4.82 125.437 69.194
4.83 116.729 70.718
4.84 117.687 71.120
4.85 112.940 70.101
4.86 111.611 68.417
4.87 106.967 67.776
4.88 105.568 68.317
4.89 107.751 69.249
4.90 112.114 70.593
4.91 116.523 71.894
4.92 126.617 72.535
4.93 131.129 72.559
4.94 132.502 72.047
4.95 137.271 71.051
4.96 137.872 69.627
4.97 133.410 67.647
4.98 133.473 65.704
4.99 138.296 65.667
5.00 140.528 67.442
5.01 140.586 69.310
5.02 130.099 70.038
5.03 123.471 69.240
5.04 122.927 67.584
5.05 --undefined-- 66.595
5.06 --undefined-- 66.808
5.07 131.461 67.132
5.08 131.198 65.962
5.09 141.723 64.278
5.10 146.510 63.959
5.11 148.281 64.318
5.12 148.793 64.852
5.13 148.899 --undefined--
5.14 148.972 --undefined--
5.15 --undefined-- --undefined--
5.16 --undefined-- --undefined--
