Time Pitch Intensity
0.01 --undefined-- --undefined--
0.02 177.989 --undefined--
0.03 177.868 --undefined--
0.04 179.233 --undefined--
0.05 181.512 72.742
0.06 182.362 71.464
0.07 179.969 68.712
0.08 173.728 63.954
0.09 165.979 57.159
0.10 --undefined-- 48.662
0.11 --undefined-- 47.228
0.12 --undefined-- 51.440
0.13 --undefined-- 53.031
0.14 --undefined-- 53.933
0.15 --undefined-- 54.405
0.16 --undefined-- 52.812
0.17 --undefined-- 49.627
0.18 --undefined-- 49.918
0.19 --undefined-- 59.731
0.20 192.084 67.067
0.21 184.652 70.698
0.22 171.864 71.816
0.23 167.411 71.650
0.24 164.646 71.288
0.25 163.806 71.511
0.26 163.265 72.279
0.27 162.688 73.091
0.28 162.680 73.686
0.29 163.628 74.145
0.30 163.622 74.452
0.31 162.721 74.493
0.32 162.628 74.571
0.33 162.287 74.769
0.34 160.812 74.732
0.35 161.667 74.357
0.36 161.064 73.772
0.37 159.239 73.048
0.38 156.677 72.263
0.39 157.815 72.075
0.40 159.838 72.338
0.41 159.173 72.459
0.42 156.932 72.631
0.43 155.669 72.906
0.44 154.908 73.090
0.45 154.422 73.190
0.46 154.373 73.273
0.47 154.468 73.353
0.48 153.988 73.433
0.49 152.836 73.468
0.50 151.866 73.328
0.51 151.234 72.839
0.52 153.145 72.106
0.53 148.109 71.509
0.54 138.731 71.274
0.55 135.938 71.264
0.56 134.602 71.328
0.57 133.596 71.379
0.58 131.902 71.426
0.59 130.802 71.425
0.60 130.206 71.337
0.61 128.445 71.145
0.62 126.954 70.780
0.63 124.859 70.230
0.64 122.349 69.646
0.65 119.918 69.096
0.66 118.100 68.296
0.67 117.407 66.702
0.68 126.060 63.994
0.69 147.307 60.083
0.70 --undefined-- 54.686
0.71 --undefined-- 47.301
0.72 --undefined-- 39.796
0.73 --undefined-- 39.165
0.74 --undefined-- 40.847
0.75 --undefined-- 41.759
0.76 --undefined-- 42.198
0.77 --undefined-- 43.320
0.78 --undefined-- 44.788
0.79 --undefined-- 45.684
0.80 --undefined-- 46.454
0.81 --undefined-- 47.568
0.82 --undefined-- 48.887
0.83 --undefined-- 49.528
0.84 --undefined-- 49.564
0.85 --undefined-- 49.701
0.86 --undefined-- 49.589
0.87 --undefined-- 48.919
0.88 --undefined-- 47.783
0.89 --undefined-- 45.970
0.90 --undefined-- 44.497
0.91 --undefined-- 44.340
0.92 --undefined-- 43.718
0.93 --undefined-- 41.879
0.94 --undefined-- 39.145
0.95 --undefined-- 35.999
0.96 --undefined-- 35.068
0.97 --undefined-- 37.049
0.98 --undefined-- 38.862
0.99 --undefined-- 39.743
1.00 --undefined-- 40.870
1.01 --undefined-- 42.907
1.02 --undefined-- 45.122
1.03 --undefined-- 46.813
1.04 --undefined-- 48.296
1.05 --undefined-- 53.249
1.06 --undefined-- 61.379
1.07 --undefined-- 67.065
1.08 --undefined-- 70.325
1.09 142.064 71.893
1.10 135.635 72.473
1.11 132.842 72.231
1.12 131.562 71.255
1.13 131.616 70.508
1.14 132.362 70.529
1.15 133.709 70.749
1.16 134.423 70.998
1.17 133.829 70.867
1.18 133.052 69.838
1.19 131.951 67.576
1.20 129.447 63.737
1.21 128.726 58.403
1.22 138.108 53.993
1.23 152.171 54.460
1.24 153.797 54.271
1.25 154.684 50.797
1.26 --undefined-- 46.611
1.27 --undefined-- 51.967
1.28 --undefined-- 59.098
1.29 157.238 63.692
1.30 157.394 66.187
1.31 156.004 67.301
1.32 154.229 67.692
1.33 152.310 67.840
1.34 151.240 67.710
1.35 148.885 66.839
1.36 144.203 64.789
1.37 140.183 61.753
1.38 152.279 58.839
1.39 154.504 56.666
1.40 159.497 55.190
1.41 167.114 55.627
1.42 176.261 60.275
1.43 168.286 65.117
1.44 161.849 67.816
1.45 152.816 68.769
1.46 147.662 68.698
1.47 143.695 67.889
1.48 138.923 66.988
1.49 138.358 66.767
1.50 140.190 67.020
1.51 142.090 67.485
1.52 145.416 68.178
1.53 148.451 68.967
1.54 151.162 69.667
1.55 157.737 70.463
1.56 164.073 71.121
1.57 168.120 71.382
1.58 170.498 71.308
1.59 176.287 71.061
1.60 175.595 70.827
1.61 175.611 70.687
1.62 173.283 70.799
1.63 171.490 70.830
1.64 171.762 70.360
1.65 170.016 69.746
1.66 167.795 69.278
1.67 163.465 68.784
1.68 157.558 67.504
1.69 147.884 64.533
1.70 158.413 60.197
1.71 168.649 56.030
1.72 173.188 51.931
1.73 --undefined-- 47.721
1.74 --undefined-- 45.883
1.75 --undefined-- 53.221
1.76 --undefined-- 60.864
1.77 164.218 65.380
1.78 155.927 67.534
1.79 149.410 68.284
1.80 137.150 68.358
1.81 132.227 68.141
1.82 125.979 67.974
1.83 115.786 68.245
1.84 113.537 68.255
1.85 112.871 67.915
1.86 112.465 67.645
1.87 113.046 67.252
1.88 114.649 66.790
1.89 116.226 66.266
1.90 117.118 65.312
1.91 117.954 64.155
1.92 118.754 63.349
1.93 118.126 62.869
1.94 116.745 62.388
1.95 114.801 61.692
1.96 113.799 60.841
1.97 113.262 60.196
1.98 113.901 60.215
1.99 115.240 60.912
2.00 115.177 61.893
2.01 114.748 62.969
2.02 115.394 63.952
2.03 116.606 64.713
2.04 119.836 65.646
2.05 116.187 66.973
2.06 111.965 67.867
2.07 111.642 68.211
2.08 113.116 68.486
2.09 116.314 68.925
2.10 119.041 69.413
2.11 121.254 69.849
2.12 123.314 70.272
2.13 125.786 70.471
2.14 127.616 70.225
2.15 129.390 69.663
2.16 129.412 68.966
2.17 127.102 68.144
2.18 122.817 67.130
2.19 120.006 65.553
2.20 119.279 62.702
2.21 --undefined-- 58.228
2.22 --undefined-- 52.587
2.23 --undefined-- 46.653
2.24 --undefined-- 42.867
2.25 --undefined-- 42.254
2.26 --undefined-- 44.057
2.27 --undefined-- 45.413
2.28 --undefined-- 45.219
2.29 --undefined-- 44.870
2.30 --undefined-- 45.065
2.31 --undefined-- 45.005
2.32 --undefined-- 44.797
2.33 --undefined-- 44.595
2.34 --undefined-- 44.006
2.35 --undefined-- 43.631
2.36 --undefined-- 43.129
2.37 --undefined-- 42.094
2.38 --undefined-- 40.974
2.39 --undefined-- 40.387
2.40 --undefined-- 40.719
2.41 --undefined-- 41.355
2.42 --undefined-- 40.923
2.43 --undefined-- 38.829
2.44 --undefined-- 35.226
2.45 --undefined-- 33.213
2.46 --undefined-- 35.341
2.47 --undefined-- 37.090
2.48 --undefined-- 36.872
2.49 --undefined-- 35.078
2.50 --undefined-- 39.522
2.51 --undefined-- 52.009
2.52 --undefined-- 60.009
2.53 140.771 64.473
2.54 142.062 66.776
2.55 142.604 67.989
2.56 142.007 68.835
2.57 141.305 69.852
2.58 141.604 71.173
2.59 141.560 72.193
2.60 138.940 72.122
2.61 132.803 71.315
2.62 130.567 70.829
2.63 128.196 70.404
2.64 126.289 69.855
2.65 125.939 69.551
2.66 126.548 69.297
2.67 128.901 68.814
2.68 130.779 68.443
2.69 131.320 68.943
2.70 136.674 69.756
2.71 136.392 70.139
2.72 136.805 70.193
2.73 136.561 70.026
2.74 135.502 69.849
2.75 135.611 69.864
2.76 139.532 69.847
2.77 132.282 69.423
2.78 131.772 69.027
2.79 131.475 69.300
2.80 131.852 70.161
2.81 133.163 70.905
2.82 134.438 70.722
2.83 138.684 69.846
2.84 150.213 68.931
2.85 150.935 68.148
2.86 160.029 68.100
2.87 166.959 69.013
2.88 177.414 70.329
2.89 184.344 71.558
2.90 190.990 72.774
2.91 198.106 73.774
2.92 --undefined-- 74.013
2.93 --undefined-- 73.219
2.94 --undefined-- 71.196
2.95 --undefined-- 67.550
2.96 --undefined-- 61.744
2.97 --undefined-- 55.029
2.98 --undefined-- 54.697
2.99 --undefined-- 56.047
3.00 --undefined-- 57.516
3.01 93.578 61.469
3.02 97.382 64.647
3.03 104.131 66.331
3.04 117.571 67.230
3.05 119.463 68.109
3.06 119.096 68.799
3.07 120.033 69.157
3.08 120.977 69.227
3.09 119.027 69.037
3.10 117.337 68.711
3.11 115.692 68.438
3.12 113.949 68.246
3.13 112.703 68.161
3.14 111.369 68.145
3.15 110.568 68.023
3.16 109.979 67.790
3.17 109.657 67.552
3.18 110.760 67.683
3.19 114.156 68.214
3.20 116.056 68.501
3.21 118.745 68.758
3.22 119.901 69.162
3.23 120.964 69.313
3.24 122.189 69.365
3.25 123.772 69.708
3.26 124.978 70.250
3.27 125.879 70.719
3.28 126.370 71.104
3.29 126.950 71.287
3.30 128.343 71.181
3.31 131.044 71.078
3.32 132.595 71.050
3.33 133.644 71.053
3.34 134.360 71.224
3.35 129.843 70.932
3.36 123.713 70.041
3.37 110.485 69.067
3.38 106.807 67.691
3.39 105.977 64.786
3.40 106.792 59.339
3.41 --undefined-- 51.289
3.42 --undefined-- 44.742
3.43 --undefined-- 41.527
3.44 --undefined-- 39.658
3.45 --undefined-- 38.726
3.46 --undefined-- 37.147
3.47 --undefined-- 35.076
3.48 --undefined-- 34.346
3.49 --undefined-- 35.862
3.50 --undefined-- 37.560
3.51 --undefined-- 38.250
3.52 --undefined-- 37.687
3.53 --undefined-- 35.862
3.54 --undefined-- 33.252
3.55 --undefined-- 32.012
3.56 --undefined-- 34.341
3.57 --undefined-- 36.691
3.58 --undefined-- 37.063
3.59 --undefined-- 35.614
3.60 --undefined-- 32.967
3.61 --undefined-- 30.658
3.62 --undefined-- 32.234
3.63 --undefined-- 34.925
3.64 --undefined-- 36.392
3.65 --undefined-- 36.753
3.66 --undefined-- 35.523
3.67 --undefined-- 32.266
3.68 --undefined-- 29.216
3.69 --undefined-- 32.050
3.70 --undefined-- 35.229
3.71 --undefined-- 36.426
3.72 --undefined-- 35.896
3.73 --undefined-- 33.593
3.74 --undefined-- 30.205
3.75 --undefined-- 30.466
3.76 --undefined-- 34.073
3.77 --undefined-- 36.497
3.78 --undefined-- 44.590
3.79 --undefined-- 55.046
3.80 --undefined-- 61.318
3.81 120.802 64.340
3.82 122.402 65.275
3.83 121.638 65.348
3.84 120.431 65.615
3.85 118.944 66.037
3.86 117.917 66.245
3.87 117.756 66.235
3.88 118.068 66.053
3.89 119.753 65.863
3.90 121.673 65.849
3.91 123.267 65.904
3.92 125.496 65.730
3.93 128.939 65.351
3.94 130.638 64.634
3.95 131.609 63.246
3.96 130.813 60.989
3.97 132.697 57.808
3.98 130.045 53.790
3.99 --undefined-- 48.967
4.00 --undefined-- 44.496
4.01 --undefined-- 43.385
4.02 --undefined-- 47.908
4.03 --undefined-- 56.358
4.04 --undefined-- 62.117
4.05 152.694 65.262
4.06 148.167 66.396
4.07 143.727 66.148
4.08 136.160 65.617
4.09 134.841 65.509
4.10 132.352 65.460
4.11 131.958 65.519
4.12 132.961 65.691
4.13 134.361 65.816
4.14 136.139 65.981
4.15 136.807 66.170
4.16 136.378 66.012
4.17 135.854 65.150
4.18 135.434 63.506
4.19 136.041 61.165
4.20 140.660 58.071
4.21 142.934 54.161
4.22 --undefined-- 49.235
4.23 --undefined-- 47.877
4.24 --undefined-- 55.383
4.25 --undefined-- 61.923
4.26 --undefined-- 66.012
4.27 159.027 68.333
4.28 155.342 69.517
4.29 153.218 69.809
4.30 152.236 69.652
4.31 151.284 69.386
4.32 150.396 69.066
4.33 150.138 68.823
4.34 150.438 68.697
4.35 151.264 68.642
4.36 151.686 68.553
4.37 151.389 68.356
4.38 150.862 68.034
4.39 149.931 67.487
4.40 149.229 66.716
4.41 148.852 65.882
4.42 149.008 65.071
4.43 150.552 64.418
4.44 152.308 64.292
4.45 153.408 64.516
4.46 152.881 64.359
4.47 144.348 63.322
4.48 --undefined-- 61.350
4.49 --undefined-- 58.243
4.50 --undefined-- 54.367
4.51 --undefined-- 51.577
4.52 --undefined-- 48.224
4.53 --undefined-- 42.007
4.54 --undefined-- 36.949
4.55 --undefined-- 38.406
4.56 --undefined-- 39.152
4.57 --undefined-- 37.996
4.58 --undefined-- 38.301
4.59 --undefined-- 41.117
4.60 --undefined-- 42.789
4.61 --undefined-- 42.063
4.62 --undefined-- 39.146
4.63 --undefined-- 37.487
4.64 --undefined-- 38.956
4.65 --undefined-- 40.290
4.66 --undefined-- 43.282
4.67 --undefined-- 52.631
4.68 --undefined-- 61.310
4.69 --undefined-- 66.275
4.70 180.168 68.390
4.71 175.467 68.709
4.72 171.064 68.490
4.73 167.280 68.683
4.74 164.786 69.087
4.75 161.692 69.101
4.76 158.155 68.493
4.77 155.726 67.560
4.78 155.013 67.135
4.79 152.597 67.424
4.80 149.176 67.682
4.81 144.068 67.182
4.82 138.638 65.869
4.83 131.185 64.574
4.84 127.853 64.344
4.85 130.704 64.723
4.86 129.358 65.113
4.87 128.267 65.532
4.88 126.596 65.817
4.89 120.641 66.010
4.90 113.657 66.053
4.91 108.673 65.714
4.92 103.687 64.854
4.93 103.960 63.996
4.94 106.014 63.890
4.95 107.053 64.117
4.96 101.650 64.048
4.97 93.972 63.633
4.98 92.453 63.055
4.99 93.940 62.491
5.00 94.261 62.073
5.01 94.941 61.979
5.02 96.671 62.177
5.03 97.242 62.187
5.04 97.265 61.837
5.05 101.152 61.348
5.06 101.592 60.861
5.07 100.803 60.434
5.08 102.376 59.889
5.09 105.195 59.227
5.10 109.079 59.015
5.11 109.581 59.131
5.12 111.759 59.226
5.13 112.960 59.974
5.14 114.637 61.898
5.15 106.931 63.544
5.16 103.682 64.046
5.17 99.298 63.700
5.18 94.771 63.148
5.19 91.390 62.714
5.20 90.521 62.298
5.21 88.686 61.911
5.22 87.841 61.930
5.23 87.815 62.265
5.24 87.569 62.540
5.25 87.671 62.789
5.26 88.838 62.971
5.27 90.702 62.854
5.28 92.475 62.617
5.29 93.262 62.604
5.30 94.232 62.659
5.31 94.961 62.570
5.32 94.161 62.233
5.33 93.158 61.914
5.34 92.336 61.844
5.35 91.028 61.676
5.36 89.121 60.782
5.37 93.125 59.272
5.38 93.462 57.728
5.39 92.578 56.322
5.40 95.119 55.030
5.41 94.985 53.005
5.42 97.407 49.632
5.43 --undefined-- 44.946
5.44 --undefined-- 40.675
5.45 --undefined-- 38.614
5.46 --undefined-- 37.375
5.47 --undefined-- 36.199
5.48 --undefined-- 36.442
5.49 --undefined-- 37.777
5.50 --undefined-- 38.961
5.51 --undefined-- 38.595
5.52 --undefined-- 36.340
5.53 --undefined-- 34.066
5.54 --undefined-- 34.873
5.55 --undefined-- 37.631
5.56 --undefined-- 39.234
5.57 --undefined-- 38.582
5.58 --undefined-- 35.954
5.59 --undefined-- 32.802
5.60 --undefined-- 34.024
5.61 --undefined-- 36.764
5.62 --undefined-- 37.702
5.63 --undefined-- 37.260
5.64 --undefined-- 36.112
5.65 --undefined-- 34.150
5.66 --undefined-- 32.978
5.67 --undefined-- 35.341
5.68 --undefined-- 37.664
5.69 --undefined-- 38.796
5.70 --undefined-- 38.957
5.71 --undefined-- 45.388
5.72 --undefined-- 57.115
5.73 226.305 64.416
5.74 215.486 68.347
5.75 211.262 70.729
5.76 217.282 72.675
5.77 219.332 74.034
5.78 220.094 74.846
5.79 220.771 75.377
5.80 221.624 75.650
5.81 221.548 75.673
5.82 220.457 75.631
5.83 218.008 75.583
5.84 214.968 75.500
5.85 211.972 75.357
5.86 208.424 75.133
5.87 204.662 74.851
5.88 201.299 74.604
5.89 198.459 74.446
5.90 196.317 74.363
5.91 194.359 74.246
5.92 192.658 73.981
5.93 190.270 73.474
5.94 187.934 72.767
5.95 185.021 72.058
5.96 182.987 71.606
5.97 181.030 71.466
5.98 179.223 71.350
5.99 175.561 70.991
6.00 171.594 70.388
6.01 168.835 69.768
6.02 166.763 69.123
6.03 163.489 68.178
6.04 159.240 67.191
6.05 152.016 66.847
6.06 145.404 67.094
6.07 137.954 67.096
6.08 128.086 66.656
6.09 121.137 --undefined--
6.10 119.726 --undefined--
6.11 --undefined-- --undefined--
6.12 --undefined-- --undefined--
