Time Pitch Intensity
0.01 --undefined-- --undefined--
0.02 295.955 --undefined--
0.03 286.206 --undefined--
0.04 274.555 --undefined--
0.05 267.465 68.222
0.06 254.811 67.168
0.07 245.957 66.933
0.08 234.557 67.185
0.09 224.300 67.399
0.10 212.222 67.881
0.11 201.594 69.124
0.12 196.714 70.571
0.13 190.262 71.720
0.14 184.603 72.514
0.15 179.113 72.774
0.16 172.176 72.606
0.17 169.062 72.399
0.18 166.990 72.078
0.19 165.870 71.477
0.20 165.252 70.894
0.21 164.039 70.486
0.22 162.750 70.060
0.23 161.631 69.569
0.24 158.810 68.982
0.25 157.010 68.273
0.26 153.432 67.517
0.27 151.458 66.855
0.28 153.025 66.163
0.29 154.689 65.186
0.30 156.075 63.789
0.31 156.647 62.172
0.32 160.528 60.087
0.33 162.292 56.932
0.34 163.025 53.761
0.35 --undefined-- 51.283
0.36 --undefined-- 47.874
0.37 --undefined-- 42.778
0.38 --undefined-- 37.107
0.39 --undefined-- 35.904
0.40 --undefined-- 35.635
0.41 --undefined-- 40.887
0.42 --undefined-- 49.198
0.43 142.563 54.683
0.44 137.663 58.123
0.45 135.499 60.898
0.46 135.078 63.626
0.47 149.608 66.077
0.48 149.265 67.493
0.49 149.003 67.320
0.50 148.615 65.783
0.51 148.369 64.408
0.52 140.764 65.151
0.53 145.570 66.749
0.54 149.368 68.105
0.55 153.491 69.179
0.56 159.155 69.920
0.57 168.626 70.197
0.58 176.635 69.837
0.59 179.148 68.888
0.60 182.335 67.251
0.61 189.567 64.408
0.62 187.658 59.954
0.63 --undefined-- 53.620
0.64 --undefined-- 47.131
0.65 --undefined-- 43.497
0.66 --undefined-- 40.262
0.67 --undefined-- 38.745
0.68 --undefined-- 46.199
0.69 --undefined-- 54.612
0.70 --undefined-- 61.608
0.71 --undefined-- 66.355
0.72 195.919 68.373
0.73 195.730 69.463
0.74 198.612 70.946
0.75 194.463 71.952
0.76 192.585 72.624
0.77 191.911 73.235
0.78 190.996 73.710
0.79 191.043 73.994
0.80 192.470 74.198
0.81 195.265 74.463
0.82 198.328 74.554
0.83 200.659 74.147
0.84 200.554 72.789
0.85 199.085 69.500
0.86 200.566 63.374
0.87 --undefined-- 54.761
0.88 --undefined-- 49.619
0.89 --undefined-- 49.095
0.90 --undefined-- 47.325
0.91 --undefined-- 44.440
0.92 --undefined-- 50.823
0.93 --undefined-- 60.085
0.94 --undefined-- 66.279
0.95 186.735 69.656
0.96 180.390 70.734
0.97 173.116 69.926
0.98 164.520 67.558
0.99 164.549 63.843
1.00 176.457 58.709
1.01 --undefined-- 52.785
1.02 --undefined-- 48.776
1.03 --undefined-- 46.753
1.04 --undefined-- 46.418
1.05 --undefined-- 51.621
1.06 --undefined-- 57.530
1.07 --undefined-- 60.934
1.08 --undefined-- 63.539
1.09 247.317 68.571
1.10 218.099 72.844
1.11 215.258 74.888
1.12 204.618 75.034
1.13 200.204 74.441
1.14 197.892 74.361
1.15 195.998 74.643
1.16 193.995 74.759
1.17 193.136 74.662
1.18 192.722 74.467
1.19 192.855 74.212
1.20 192.777 73.967
1.21 191.974 73.858
1.22 190.996 73.799
1.23 190.057 73.295
1.24 189.387 71.847
1.25 182.544 69.594
1.26 172.862 67.501
1.27 170.554 66.184
1.28 171.305 64.696
1.29 171.787 62.394
1.30 175.167 60.385
1.31 182.367 60.511
1.32 186.441 61.507
1.33 192.863 61.934
1.34 185.975 62.404
1.35 174.147 64.309
1.36 172.497 66.708
1.37 172.188 68.568
1.38 171.007 69.884
1.39 169.168 70.921
1.40 167.900 71.817
1.41 167.545 72.498
1.42 167.953 72.923
1.43 168.794 73.165
1.44 171.132 73.158
1.45 175.840 72.770
1.46 181.883 72.137
1.47 188.440 71.545
1.48 192.395 70.819
1.49 196.674 69.748
1.50 197.975 68.638
1.51 192.720 67.644
1.52 186.475 66.359
1.53 183.437 64.479
1.54 184.375 61.854
1.55 180.148 58.263
1.56 174.459 53.840
1.57 182.649 49.977
1.58 --undefined-- 51.611
1.59 --undefined-- 59.871
1.60 --undefined-- 66.021
1.61 167.433 69.809
1.62 164.731 71.667
1.63 159.311 71.725
1.64 153.204 70.506
1.65 152.592 69.408
1.66 155.494 69.205
1.67 158.861 69.287
1.68 162.177 69.319
1.69 165.354 69.405
1.70 165.439 69.674
1.71 165.637 69.961
1.72 168.204 69.975
1.73 171.631 69.719
1.74 173.821 69.415
1.75 174.651 69.087
1.76 172.693 68.740
1.77 167.296 68.708
1.78 164.984 68.967
1.79 162.272 68.853
1.80 163.283 68.152
1.81 167.936 66.823
1.82 171.180 64.404
1.83 171.385 60.070
1.84 --undefined-- 53.764
1.85 --undefined-- 49.864
1.86 166.584 49.339
1.87 --undefined-- 46.980
1.88 --undefined-- 43.168
1.89 --undefined-- 41.900
1.90 --undefined-- 40.804
1.91 --undefined-- 39.364
1.92 --undefined-- 39.181
1.93 --undefined-- 39.880
1.94 --undefined-- 40.938
1.95 --undefined-- 41.390
1.96 --undefined-- 42.907
1.97 --undefined-- 44.253
1.98 --undefined-- 43.154
1.99 --undefined-- 40.842
2.00 --undefined-- 39.000
2.01 --undefined-- 36.792
2.02 --undefined-- 34.747
2.03 --undefined-- 33.282
2.04 --undefined-- 31.884
2.05 --undefined-- 33.110
2.06 --undefined-- 35.862
2.07 --undefined-- 36.856
2.08 --undefined-- 37.683
2.09 --undefined-- 42.259
2.10 --undefined-- 48.714
2.11 --undefined-- 54.061
2.12 --undefined-- 59.055
2.13 --undefined-- 64.273
2.14 --undefined-- 67.870
2.15 --undefined-- 69.777
2.16 181.497 70.739
2.17 170.445 70.965
2.18 164.157 70.521
2.19 157.977 69.625
2.20 153.487 68.839
2.21 154.462 68.714
2.22 157.047 68.746
2.23 160.276 68.467
2.24 163.132 67.860
2.25 165.058 66.826
2.26 169.608 65.119
2.27 180.124 62.641
2.28 186.304 60.067
2.29 186.140 58.508
2.30 --undefined-- 58.599
2.31 --undefined-- 63.731
2.32 228.593 69.085
2.33 228.243 72.006
2.34 228.587 73.071
2.35 230.061 73.201
2.36 231.274 72.981
2.37 233.481 72.620
2.38 238.367 72.436
2.39 240.701 72.572
2.40 243.346 72.758
2.41 246.337 72.811
2.42 248.191 72.548
2.43 252.067 71.503
2.44 253.826 69.055
2.45 238.529 64.804
2.46 227.751 58.710
2.47 261.332 51.970
2.48 267.003 48.647
2.49 --undefined-- 47.328
2.50 --undefined-- 46.574
2.51 --undefined-- 50.711
2.52 --undefined-- 60.535
2.53 251.561 68.342
2.54 244.678 72.623
2.55 231.417 74.100
2.56 221.341 73.659
2.57 207.643 72.129
2.58 195.633 70.571
2.59 192.070 69.773
2.60 191.086 69.576
2.61 189.493 69.584
2.62 186.205 69.465
2.63 184.106 68.594
2.64 181.300 65.798
2.65 169.960 60.220
2.66 --undefined-- 52.517
2.67 --undefined-- 47.601
2.68 --undefined-- 44.916
2.69 --undefined-- 41.331
2.70 --undefined-- 38.966
2.71 --undefined-- 44.982
2.72 --undefined-- 56.134
2.73 --undefined-- 64.102
2.74 176.591 69.084
2.75 179.266 71.918
2.76 177.829 73.347
2.77 178.273 73.954
2.78 181.683 74.231
2.79 186.935 74.472
2.80 192.514 74.597
2.81 199.553 74.502
2.82 207.983 74.590
2.83 213.916 75.097
2.84 217.628 75.390
2.85 220.349 74.797
2.86 223.384 72.878
2.87 224.729 69.352
2.88 214.187 64.989
2.89 214.800 61.454
2.90 219.442 57.228
2.91 --undefined-- 50.283
2.92 --undefined-- 42.465
2.93 --undefined-- 42.136
2.94 --undefined-- 43.375
2.95 --undefined-- 49.029
2.96 --undefined-- 56.923
2.97 --undefined-- 64.810
2.98 --undefined-- 70.935
2.99 215.747 74.251
3.00 208.420 75.690
3.01 202.496 76.977
3.02 200.317 78.044
3.03 197.211 77.904
3.04 194.779 76.793
3.05 193.883 75.697
3.06 193.669 75.154
3.07 192.987 75.093
3.08 192.782 75.405
3.09 192.337 75.926
3.10 191.483 76.326
3.11 190.322 76.308
3.12 189.062 75.751
3.13 187.944 74.716
3.14 187.601 73.248
3.15 188.803 71.172
3.16 191.315 68.371
3.17 195.834 65.060
3.18 194.526 61.086
3.19 --undefined-- 55.434
3.20 --undefined-- 48.457
3.21 --undefined-- 44.626
3.22 --undefined-- 43.846
3.23 --undefined-- 43.673
3.24 --undefined-- 43.710
3.25 --undefined-- 43.756
3.26 --undefined-- 43.049
3.27 --undefined-- 42.176
3.28 --undefined-- 41.438
3.29 --undefined-- 40.060
3.30 --undefined-- 38.854
3.31 --undefined-- 37.996
3.32 --undefined-- 36.451
3.33 --undefined-- 34.206
3.34 --undefined-- 30.706
3.35 --undefined-- 26.730
3.36 --undefined-- 30.750
3.37 --undefined-- 39.011
3.38 --undefined-- 45.167
3.39 --undefined-- 49.075
3.40 --undefined-- 51.836
3.41 --undefined-- 54.169
3.42 --undefined-- 55.833
3.43 --undefined-- 58.452
3.44 --undefined-- 64.010
3.45 177.620 69.032
3.46 177.076 72.222
3.47 176.383 74.108
3.48 181.117 75.412
3.49 188.034 76.169
3.50 196.736 76.259
3.51 206.785 76.022
3.52 217.236 75.871
3.53 228.764 76.006
3.54 239.071 76.066
3.55 245.161 75.436
3.56 255.995 74.392
3.57 265.323 73.600
3.58 270.942 73.009
3.59 274.272 72.668
3.60 274.544 72.703
3.61 271.948 73.218
3.62 264.965 73.769
3.63 255.492 73.686
3.64 245.360 72.979
3.65 228.819 71.985
3.66 213.088 71.149
3.67 196.400 70.839
3.68 185.587 70.728
3.69 175.048 70.337
3.70 167.382 69.734
3.71 160.341 69.047
3.72 155.436 68.182
3.73 153.282 67.787
3.74 155.719 68.150
3.75 158.785 68.531
3.76 163.641 68.772
3.77 168.248 68.801
3.78 171.719 68.738
3.79 174.562 68.950
3.80 179.583 70.190
3.81 187.720 72.238
3.82 183.991 73.654
3.83 184.756 74.109
3.84 186.109 73.983
3.85 186.146 73.558
3.86 184.549 73.119
3.87 182.660 72.889
3.88 180.715 72.783
3.89 179.398 72.666
3.90 178.533 72.571
3.91 178.524 72.498
3.92 179.424 72.412
3.93 180.748 72.336
3.94 181.668 72.272
3.95 181.923 72.158
3.96 182.347 72.031
3.97 183.543 71.917
3.98 184.589 71.753
3.99 186.557 71.507
4.00 188.675 71.190
4.01 191.736 70.909
4.02 194.304 70.829
4.03 194.992 71.137
4.04 195.475 72.108
4.05 191.620 73.554
4.06 189.129 74.383
4.07 184.510 74.167
4.08 181.474 73.135
4.09 176.689 71.222
4.10 168.123 68.305
4.11 165.987 64.337
4.12 --undefined-- 58.673
4.13 --undefined-- 52.231
4.14 --undefined-- 51.117
4.15 --undefined-- 53.515
4.16 --undefined-- 54.857
4.17 --undefined-- 54.265
4.18 --undefined-- 51.841
4.19 --undefined-- 49.119
4.20 --undefined-- 47.762
4.21 --undefined-- 47.574
4.22 --undefined-- 49.826
4.23 --undefined-- 54.020
4.24 --undefined-- 61.721
4.25 297.325 68.895
4.26 299.763 72.603
4.27 297.694 73.354
4.28 294.783 72.663
4.29 295.762 72.380
4.30 297.516 72.969
4.31 298.910 73.919
4.32 298.538 74.272
4.33 295.533 73.170
4.34 288.338 71.260
4.35 284.506 71.143
4.36 279.306 72.206
4.37 263.871 73.119
4.38 248.937 74.131
4.39 233.036 75.010
4.40 220.146 74.971
4.41 200.616 74.396
4.42 182.738 74.034
4.43 166.572 73.287
4.44 156.302 71.405
4.45 145.355 69.284
4.46 143.482 68.354
4.47 146.778 67.716
4.48 156.471 67.098
4.49 162.962 66.931
4.50 163.180 66.935
4.51 164.887 66.822
4.52 165.909 66.728
4.53 165.911 66.714
4.54 164.603 66.480
4.55 162.637 65.941
4.56 162.927 65.950
4.57 167.762 67.218
4.58 161.733 68.367
4.59 150.734 68.749
4.60 139.538 68.489
4.61 133.445 67.702
4.62 137.861 66.829
4.63 140.865 66.026
4.64 144.893 65.266
4.65 148.067 64.860
4.66 148.225 64.584
4.67 147.356 64.200
4.68 147.190 63.868
4.69 147.625 63.739
4.70 148.421 63.877
4.71 151.723 64.369
4.72 152.275 64.891
4.73 147.343 64.798
4.74 142.468 63.247
4.75 143.444 59.439
4.76 --undefined-- 53.224
4.77 --undefined-- 47.474
4.78 --undefined-- 46.561
4.79 --undefined-- 47.275
4.80 --undefined-- 48.178
4.81 --undefined-- 49.439
4.82 --undefined-- 50.614
4.83 --undefined-- 54.709
4.84 --undefined-- 62.069
4.85 --undefined-- 67.549
4.86 177.300 70.373
4.87 174.344 71.317
4.88 170.863 71.209
4.89 168.730 70.795
4.90 167.124 70.369
4.91 165.317 69.875
4.92 163.850 69.390
4.93 163.575 68.988
4.94 163.517 68.689
4.95 163.016 68.336
4.96 162.640 67.177
4.97 161.175 64.120
4.98 156.780 58.630
4.99 --undefined-- 51.997
5.00 --undefined-- 48.077
5.01 --undefined-- 45.804
5.02 --undefined-- 42.645
5.03 --undefined-- 38.941
5.04 --undefined-- 45.672
5.05 --undefined-- 58.206
5.06 --undefined-- 67.053
5.07 221.704 72.347
5.08 215.405 74.784
5.09 212.984 75.178
5.10 213.417 74.508
5.11 212.595 73.270
5.12 206.493 71.338
5.13 --undefined-- 68.200
5.14 --undefined-- 62.873
5.15 --undefined-- 55.120
5.16 --undefined-- 47.101
5.17 --undefined-- 44.817
5.18 --undefined-- 44.387
5.19 --undefined-- 43.109
5.20 --undefined-- 42.822
5.21 --undefined-- 42.598
5.22 --undefined-- 40.088
5.23 --undefined-- 35.731
5.24 --undefined-- 33.150
5.25 --undefined-- 33.020
5.26 --undefined-- 39.287
5.27 --undefined-- 49.962
5.28 --undefined-- 58.718
5.29 --undefined-- 64.998
5.30 195.753 68.964
5.31 196.674 71.344
5.32 195.470 72.492
5.33 195.651 72.901
5.34 194.270 73.213
5.35 192.433 73.708
5.36 190.739 74.191
5.37 189.298 74.495
5.38 188.508 74.505
5.39 188.248 74.268
5.40 187.278 73.880
5.41 187.007 73.267
5.42 186.867 72.282
5.43 183.904 71.188
5.44 186.578 71.000
5.45 189.414 71.390
5.46 190.555 71.639
5.47 191.228 71.709
5.48 191.434 71.696
5.49 190.729 71.546
5.50 189.013 71.028
5.51 185.581 69.750
5.52 180.741 67.277
5.53 179.866 63.273
5.54 177.372 58.562
5.55 --undefined-- 58.303
5.56 --undefined-- 60.102
5.57 --undefined-- --undefined--
5.58 196.642 --undefined--
5.59 --undefined-- --undefined--
5.60 --undefined-- --undefined--
