Time Pitch Intensity
0.01 --undefined-- --undefined--
0.02 --undefined-- --undefined--
0.03 --undefined-- --undefined--
0.04 --undefined-- --undefined--
0.05 --undefined-- 53.228
0.06 --undefined-- 47.476
0.07 --undefined-- 41.833
0.08 --undefined-- 36.685
0.09 --undefined-- 35.221
0.10 --undefined-- 37.164
0.11 --undefined-- 39.163
0.12 --undefined-- 38.255
0.13 --undefined-- 35.591
0.14 --undefined-- 48.816
0.15 --undefined-- 59.503
0.16 --undefined-- 65.697
0.17 185.788 68.555
0.18 171.981 69.258
0.19 169.490 68.931
0.20 169.660 68.384
0.21 169.451 68.294
0.22 169.361 68.547
0.23 169.983 69.059
0.24 172.532 69.699
0.25 174.820 69.868
0.26 174.090 69.394
0.27 172.491 68.176
0.28 171.791 66.160
0.29 170.409 64.173
0.30 169.174 62.726
0.31 167.929 61.203
0.32 167.574 58.763
0.33 166.583 54.770
0.34 --undefined-- 50.419
0.35 --undefined-- 55.899
0.36 --undefined-- 61.309
0.37 --undefined-- 63.757
0.38 --undefined-- 66.472
0.39 --undefined-- 69.993
0.40 183.659 71.617
0.41 181.549 71.170
0.42 178.341 70.232
0.43 177.454 70.470
0.44 176.972 71.202
0.45 172.455 72.117
0.46 166.294 72.975
0.47 163.482 72.955
0.48 162.931 71.894
0.49 162.519 70.134
0.50 162.928 68.039
0.51 163.101 66.038
0.52 165.294 64.457
0.53 168.626 63.713
0.54 --undefined-- 63.768
0.55 --undefined-- 63.165
0.56 --undefined-- 62.240
0.57 --undefined-- 62.090
0.58 --undefined-- 61.359
0.59 --undefined-- 59.532
0.60 --undefined-- 56.895
0.61 --undefined-- 52.938
0.62 --undefined-- 50.369
0.63 --undefined-- 47.656
0.64 --undefined-- 41.291
0.65 --undefined-- 32.177
0.66 --undefined-- 28.327
0.67 --undefined-- 27.082
0.68 --undefined-- 29.367
0.69 --undefined-- 34.103
0.70 --undefined-- 38.284
0.71 --undefined-- 41.899
0.72 --undefined-- 43.972
0.73 --undefined-- 43.984
0.74 --undefined-- 44.745
0.75 --undefined-- 47.508
0.76 --undefined-- 49.931
0.77 --undefined-- 52.182
0.78 --undefined-- 53.514
0.79 --undefined-- 53.832
0.80 --undefined-- 53.708
0.81 --undefined-- 52.770
0.82 --undefined-- 52.487
0.83 --undefined-- 53.497
0.84 --undefined-- 53.501
0.85 --undefined-- 53.203
0.86 --undefined-- 53.034
0.87 --undefined-- 52.169
0.88 --undefined-- 51.412
0.89 --undefined-- 51.662
0.90 --undefined-- 50.628
0.91 --undefined-- 46.413
0.92 --undefined-- 39.729
0.93 --undefined-- 34.590
0.94 --undefined-- 31.532
0.95 --undefined-- 29.115
0.96 --undefined-- 27.708
0.97 --undefined-- 27.523
0.98 --undefined-- 27.902
0.99 --undefined-- 28.327
1.00 --undefined-- 27.832
1.01 --undefined-- 26.728
1.02 --undefined-- 26.399
1.03 --undefined-- 31.435
1.04 --undefined-- 44.953
1.05 --undefined-- 55.282
1.06 183.305 63.056
1.07 181.613 68.340
1.08 185.571 71.146
1.09 189.551 71.734
1.10 188.943 70.909
1.11 185.370 69.908
1.12 182.488 69.671
1.13 180.624 70.057
1.14 178.757 70.458
1.15 178.011 70.346
1.16 178.221 69.497
1.17 176.800 68.053
1.18 174.581 66.560
1.19 173.478 65.778
1.20 171.457 65.582
1.21 171.203 65.554
1.22 172.398 65.383
1.23 171.662 64.724
1.24 170.968 63.560
1.25 174.312 62.543
1.26 180.205 62.446
1.27 177.593 62.913
1.28 173.851 63.552
1.29 173.461 64.391
1.30 173.203 64.932
1.31 169.821 64.524
1.32 171.364 63.052
1.33 174.794 60.710
1.34 174.395 57.364
1.35 170.362 53.373
1.36 --undefined-- 50.852
1.37 --undefined-- 50.612
1.38 --undefined-- 50.567
1.39 --undefined-- 50.373
1.40 --undefined-- 50.964
1.41 --undefined-- 52.255
1.42 298.215 53.893
1.43 297.047 54.286
1.44 298.285 54.599
1.45 263.871 60.291
1.46 269.619 65.806
1.47 272.433 68.444
1.48 252.626 68.967
1.49 250.105 68.802
1.50 249.759 68.461
1.51 243.775 67.703
1.52 236.018 66.773
1.53 232.477 66.138
1.54 234.675 66.088
1.55 235.074 65.873
1.56 234.902 65.179
1.57 237.552 64.673
1.58 240.591 64.817
1.59 240.779 65.320
1.60 240.590 65.694
1.61 240.437 66.149
1.62 240.473 66.503
1.63 241.880 66.301
1.64 244.961 65.748
1.65 245.192 65.197
1.66 241.306 64.547
1.67 236.642 63.498
1.68 231.957 61.694
1.69 280.928 59.260
1.70 295.955 56.419
1.71 294.246 53.310
1.72 --undefined-- 49.221
1.73 --undefined-- 42.305
1.74 --undefined-- 33.996
1.75 --undefined-- 29.423
1.76 --undefined-- 27.765
1.77 --undefined-- 27.193
1.78 --undefined-- 27.279
1.79 --undefined-- 27.649
1.80 --undefined-- 27.970
1.81 --undefined-- 32.989
1.82 --undefined-- 46.280
1.83 --undefined-- 54.595
1.84 --undefined-- 58.751
1.85 --undefined-- 60.444
1.86 --undefined-- 62.818
1.87 248.161 68.133
1.88 244.496 71.803
1.89 243.302 73.007
1.90 243.324 72.814
1.91 242.325 72.418
1.92 241.957 72.222
1.93 241.988 72.161
1.94 242.409 72.229
1.95 244.967 72.412
1.96 248.937 72.592
1.97 250.083 72.651
1.98 251.130 72.413
1.99 254.306 71.667
2.00 258.145 70.108
2.01 263.081 67.566
2.02 273.370 64.538
2.03 274.939 60.850
2.04 272.754 56.376
2.05 268.643 53.299
2.06 266.744 52.627
2.07 268.825 55.448
2.08 277.714 60.213
2.09 287.396 64.542
2.10 294.118 67.774
2.11 291.086 69.392
2.12 285.268 69.162
2.13 274.180 67.282
2.14 252.627 64.830
2.15 243.736 63.455
2.16 238.621 62.504
2.17 232.639 61.083
2.18 233.395 60.208
2.19 234.854 60.565
2.20 235.137 61.063
2.21 234.279 61.437
2.22 234.568 61.979
2.23 236.193 62.374
2.24 236.237 62.534
2.25 237.478 63.006
2.26 243.039 63.975
2.27 247.244 64.490
2.28 251.110 63.411
2.29 261.045 60.022
2.30 --undefined-- 54.116
2.31 --undefined-- 48.024
2.32 --undefined-- 47.058
2.33 --undefined-- 47.535
2.34 --undefined-- 46.622
2.35 --undefined-- 45.784
2.36 --undefined-- 46.522
2.37 --undefined-- 49.225
2.38 --undefined-- 53.183
2.39 --undefined-- 57.456
2.40 --undefined-- 62.278
2.41 173.663 65.651
2.42 173.411 67.242
2.43 170.168 67.751
2.44 169.462 67.469
2.45 166.101 66.123
2.46 158.712 63.404
2.47 146.232 59.212
2.48 --undefined-- 53.553
2.49 --undefined-- 47.097
2.50 --undefined-- 49.723
2.51 --undefined-- 57.993
2.52 --undefined-- 61.500
2.53 --undefined-- 60.392
2.54 --undefined-- 54.545
2.55 --undefined-- 43.455
2.56 --undefined-- 31.810
2.57 --undefined-- 30.418
2.58 --undefined-- 37.330
2.59 --undefined-- 48.242
2.60 --undefined-- 56.926
2.61 --undefined-- 62.191
2.62 --undefined-- 64.314
2.63 --undefined-- 64.070
2.64 --undefined-- 65.822
2.65 --undefined-- 70.006
2.66 --undefined-- 72.358
2.67 --undefined-- 73.094
2.68 --undefined-- 72.971
2.69 --undefined-- 72.165
2.70 --undefined-- 71.423
2.71 --undefined-- 71.115
2.72 114.800 70.838
2.73 114.073 70.254
2.74 --undefined-- 69.269
2.75 --undefined-- 68.536
2.76 --undefined-- 68.171
2.77 --undefined-- 67.741
2.78 --undefined-- 67.201
2.79 --undefined-- 66.267
2.80 --undefined-- 64.787
2.81 --undefined-- 62.993
2.82 --undefined-- 61.118
2.83 --undefined-- 59.439
2.84 292.314 57.778
2.85 297.123 56.562
2.86 --undefined-- 54.763
2.87 --undefined-- 52.041
2.88 --undefined-- 47.800
2.89 --undefined-- 42.324
2.90 --undefined-- 37.487
2.91 --undefined-- 32.383
2.92 --undefined-- 31.655
2.93 --undefined-- 37.121
2.94 --undefined-- 43.260
2.95 --undefined-- 48.710
2.96 --undefined-- 52.759
2.97 --undefined-- 54.913
2.98 --undefined-- 55.266
2.99 --undefined-- 55.494
3.00 --undefined-- 55.767
3.01 --undefined-- 56.610
3.02 --undefined-- 58.272
3.03 --undefined-- 58.237
3.04 --undefined-- 56.094
3.05 --undefined-- 53.597
3.06 --undefined-- 51.858
3.07 --undefined-- 49.454
3.08 --undefined-- 46.204
3.09 --undefined-- 41.809
3.10 --undefined-- 36.607
3.11 --undefined-- 33.216
3.12 --undefined-- 30.145
3.13 --undefined-- 27.460
3.14 --undefined-- 26.141
3.15 --undefined-- 26.257
3.16 --undefined-- 26.855
3.17 --undefined-- 36.990
3.18 --undefined-- 49.243
3.19 --undefined-- 57.301
3.20 --undefined-- 63.479
3.21 284.602 68.304
3.22 283.445 71.086
3.23 287.191 71.871
3.24 295.426 71.419
3.25 150.824 70.749
3.26 153.582 70.536
3.27 153.828 70.684
3.28 153.942 70.544
3.29 153.901 69.303
3.30 148.210 66.169
3.31 152.333 61.338
3.32 176.742 60.250
3.33 174.696 64.717
3.34 154.881 67.646
3.35 292.211 68.575
3.36 286.092 68.275
3.37 286.165 66.866
3.38 294.409 64.000
3.39 --undefined-- 59.181
3.40 --undefined-- 51.618
3.41 --undefined-- 41.306
3.42 --undefined-- 32.826
3.43 --undefined-- 29.218
3.44 --undefined-- 29.648
3.45 --undefined-- 43.297
3.46 --undefined-- 53.035
3.47 --undefined-- 57.540
3.48 --undefined-- 58.268
3.49 --undefined-- 62.130
3.50 199.031 68.027
3.51 199.692 70.685
3.52 187.073 70.673
3.53 173.941 70.141
3.54 170.521 70.509
3.55 167.805 70.695
3.56 166.889 70.202
3.57 167.729 68.965
3.58 169.716 67.442
3.59 169.630 66.884
3.60 166.391 67.420
3.61 166.076 67.706
3.62 166.676 67.047
3.63 165.618 65.834
3.64 163.477 65.221
3.65 163.511 65.712
3.66 163.223 66.247
3.67 161.911 65.853
3.68 161.854 64.368
3.69 161.977 61.586
3.70 159.778 57.158
3.71 --undefined-- 53.288
3.72 --undefined-- 52.898
3.73 --undefined-- 53.856
3.74 --undefined-- 54.937
3.75 --undefined-- 55.565
3.76 --undefined-- 56.107
3.77 --undefined-- 55.869
3.78 --undefined-- 56.213
3.79 --undefined-- 61.721
3.80 --undefined-- 66.686
3.81 --undefined-- 69.420
3.82 --undefined-- 70.649
3.83 --undefined-- 70.857
3.84 --undefined-- 70.174
3.85 --undefined-- 69.097
3.86 --undefined-- 68.008
3.87 --undefined-- 65.965
3.88 --undefined-- 62.361
3.89 --undefined-- 57.102
3.90 --undefined-- 52.036
3.91 --undefined-- 48.806
3.92 --undefined-- 46.519
3.93 --undefined-- 44.895
3.94 --undefined-- 41.568
3.95 --undefined-- 40.578
3.96 --undefined-- 45.950
3.97 --undefined-- 50.847
3.98 --undefined-- 54.062
3.99 195.793 55.847
4.00 193.510 56.943
4.01 192.909 57.864
4.02 197.421 60.353
4.03 193.816 64.065
4.04 185.644 66.842
4.05 181.155 68.395
4.06 177.975 69.078
4.07 175.239 69.182
4.08 172.628 68.570
4.09 170.658 66.508
4.10 166.380 62.314
4.11 165.040 56.043
4.12 --undefined-- 47.608
4.13 --undefined-- 37.758
4.14 --undefined-- 31.046
4.15 --undefined-- 28.645
4.16 --undefined-- 27.353
4.17 --undefined-- 26.969
4.18 --undefined-- 26.992
4.19 --undefined-- 26.572
4.20 --undefined-- 26.277
4.21 --undefined-- 41.203
4.22 --undefined-- 53.845
4.23 --undefined-- 60.426
4.24 --undefined-- 62.211
4.25 --undefined-- 60.715
4.26 --undefined-- 63.923
4.27 248.895 69.188
4.28 248.144 71.990
4.29 249.004 72.701
4.30 248.597 72.204
4.31 243.578 71.171
4.32 235.647 70.076
4.33 231.183 69.138
4.34 227.840 68.308
4.35 223.458 67.553
4.36 221.367 67.343
4.37 221.078 67.973
4.38 221.859 68.940
4.39 224.323 69.646
4.40 227.419 69.721
4.41 230.583 69.122
4.42 234.773 68.202
4.43 235.321 66.861
4.44 235.278 65.026
4.45 234.918 63.792
4.46 235.832 63.521
4.47 240.336 63.589
4.48 242.771 64.078
4.49 242.048 64.679
4.50 243.427 64.805
4.51 248.496 64.839
4.52 253.303 65.802
4.53 256.983 67.013
4.54 260.633 67.530
4.55 265.924 67.206
4.56 269.830 65.734
4.57 272.212 62.716
4.58 283.836 57.675
4.59 --undefined-- 54.089
4.60 --undefined-- 61.571
4.61 --undefined-- 67.867
4.62 278.751 71.608
4.63 272.939 72.788
4.64 267.669 71.659
4.65 --undefined-- 69.109
4.66 --undefined-- 66.490
4.67 --undefined-- 63.329
4.68 --undefined-- 57.911
4.69 --undefined-- 51.833
4.70 --undefined-- 48.483
4.71 --undefined-- 43.485
4.72 --undefined-- 48.307
4.73 --undefined-- 58.654
4.74 --undefined-- 65.520
4.75 --undefined-- 69.345
4.76 --undefined-- 70.933
4.77 177.243 71.291
4.78 178.189 71.299
4.79 178.183 71.403
4.80 178.146 71.149
4.81 177.487 69.649
4.82 177.157 66.991
4.83 176.649 63.512
4.84 174.529 59.138
4.85 173.203 55.363
4.86 --undefined-- 53.972
4.87 --undefined-- 53.539
4.88 --undefined-- 54.242
4.89 --undefined-- 54.066
4.90 --undefined-- 50.886
4.91 --undefined-- 44.467
4.92 --undefined-- 37.649
4.93 --undefined-- 32.139
4.94 --undefined-- 27.681
4.95 --undefined-- 26.081
4.96 --undefined-- 25.408
4.97 --undefined-- 25.025
4.98 --undefined-- 24.796
4.99 --undefined-- 24.831
5.00 --undefined-- 25.015
5.01 --undefined-- 25.138
5.02 --undefined-- 25.318
5.03 --undefined-- 25.503
5.04 --undefined-- 25.679
5.05 --undefined-- 26.679
5.06 --undefined-- 42.073
5.07 --undefined-- 53.988
5.08 --undefined-- 60.724
5.09 --undefined-- 64.953
5.10 287.571 68.954
5.11 269.426 72.034
5.12 262.664 73.374
5.13 258.597 73.263
5.14 258.795 72.642
5.15 264.204 72.050
5.16 272.526 71.291
5.17 276.882 70.403
5.18 281.626 69.697
5.19 281.820 69.343
5.20 277.109 69.091
5.21 273.960 68.694
5.22 275.533 68.043
5.23 272.930 66.881
5.24 262.184 65.090
5.25 249.747 63.734
5.26 245.879 63.355
5.27 237.590 62.784
5.28 230.146 61.840
5.29 217.281 60.544
5.30 211.739 60.424
5.31 --undefined-- 64.472
5.32 --undefined-- 67.986
5.33 --undefined-- 68.512
5.34 --undefined-- 66.566
5.35 --undefined-- 64.357
5.36 --undefined-- 63.692
5.37 --undefined-- 62.270
5.38 --undefined-- 59.008
5.39 --undefined-- 56.015
5.40 --undefined-- 53.851
5.41 --undefined-- 52.020
5.42 --undefined-- 51.264
5.43 --undefined-- 52.368
5.44 276.335 53.430
5.45 --undefined-- 52.220
5.46 --undefined-- 50.587
5.47 --undefined-- 49.729
5.48 --undefined-- 46.741
5.49 --undefined-- 44.165
5.50 --undefined-- 43.717
5.51 --undefined-- 40.576
5.52 --undefined-- 34.209
5.53 --undefined-- 27.516
5.54 --undefined-- 26.250
5.55 --undefined-- 29.952
5.56 --undefined-- 36.476
5.57 --undefined-- 45.379
5.58 --undefined-- 53.166
5.59 --undefined-- 58.642
5.60 164.646 63.129
5.61 165.669 66.631
5.62 166.559 68.495
5.63 165.062 69.097
5.64 164.127 69.543
5.65 163.577 69.698
5.66 163.399 68.888
5.67 162.895 67.200
5.68 160.524 65.141
5.69 159.267 63.299
5.70 159.253 62.130
5.71 158.991 62.186
5.72 159.094 62.284
5.73 160.745 61.872
5.74 160.608 61.905
5.75 158.958 62.209
5.76 159.007 61.787
5.77 162.534 60.430
5.78 161.832 57.943
5.79 154.574 54.161
5.80 --undefined-- 50.543
5.81 --undefined-- 50.087
5.82 --undefined-- 51.099
5.83 --undefined-- 51.169
5.84 --undefined-- 51.939
5.85 --undefined-- 53.275
5.86 --undefined-- 53.368
5.87 --undefined-- 52.681
5.88 --undefined-- 57.605
5.89 142.575 63.713
5.90 142.414 67.231
5.91 144.215 68.853
5.92 146.469 69.389
5.93 149.319 68.984
5.94 153.334 67.467
5.95 166.663 65.697
5.96 170.980 64.837
5.97 175.574 64.443
5.98 178.907 63.808
5.99 180.404 --undefined--
6.00 181.241 --undefined--
6.01 --undefined-- --undefined--
6.02 --undefined-- --undefined--
