Time Pitch Intensity
0.01 --undefined-- --undefined--
0.02 196.629 --undefined--
0.03 189.958 --undefined--
0.04 181.393 --undefined--
0.05 173.452 71.459
0.06 165.152 70.623
0.07 157.166 69.676
0.08 146.523 68.608
0.09 145.748 68.203
0.10 145.585 67.822
0.11 148.920 66.995
0.12 155.240 66.468
0.13 156.062 66.729
0.14 157.349 66.931
0.15 155.966 65.940
0.16 151.545 63.071
0.17 154.229 58.104
0.18 --undefined-- 52.003
0.19 --undefined-- 49.551
0.20 --undefined-- 52.982
0.21 --undefined-- 60.542
0.22 209.253 67.741
0.23 210.482 72.179
0.24 210.189 74.126
0.25 203.152 74.632
0.26 194.369 74.908
0.27 188.555 75.109
0.28 186.383 74.921
0.29 186.804 74.458
0.30 188.484 74.036
0.31 190.061 73.870
0.32 191.720 73.783
0.33 192.810 73.571
0.34 193.153 73.013
0.35 192.396 71.910
0.36 189.339 70.175
0.37 184.213 67.531
0.38 177.696 63.437
0.39 185.934 58.024
0.40 183.633 53.826
0.41 --undefined-- 52.328
0.42 --undefined-- 50.866
0.43 --undefined-- 49.485
0.44 --undefined-- 48.914
0.45 --undefined-- 49.701
0.46 --undefined-- 55.403
0.47 --undefined-- 65.363
0.48 240.698 72.201
0.49 231.180 75.717
0.50 225.695 76.840
0.51 220.350 76.693
0.52 215.098 76.234
0.53 208.889 76.028
0.54 206.638 75.929
0.55 208.540 75.355
0.56 209.372 74.038
0.57 206.189 71.877
0.58 --undefined-- 68.826
0.59 --undefined-- 64.971
0.60 --undefined-- 60.225
0.61 --undefined-- 54.310
0.62 --undefined-- 48.299
0.63 --undefined-- 45.937
0.64 --undefined-- 43.430
0.65 --undefined-- 43.776
0.66 --undefined-- 49.811
0.67 206.813 54.088
0.68 203.911 57.349
0.69 202.368 59.807
0.70 200.311 60.663
0.71 197.246 60.526
0.72 180.446 61.074
0.73 176.623 63.085
0.74 184.686 65.555
0.75 194.673 67.369
0.76 188.046 68.438
0.77 161.514 69.016
0.78 151.432 69.105
0.79 146.660 68.497
0.80 143.969 67.195
0.81 147.624 66.084
0.82 162.363 66.706
0.83 175.628 68.310
0.84 187.639 69.918
0.85 197.765 71.272
0.86 208.042 71.816
0.87 223.706 71.713
0.88 232.881 71.302
0.89 241.106 70.638
0.90 245.168 70.157
0.91 245.588 70.225
0.92 243.691 69.988
0.93 240.277 67.933
0.94 185.185 63.950
0.95 174.837 60.815
0.96 174.191 60.059
0.97 --undefined-- 60.489
0.98 --undefined-- 60.999
0.99 --undefined-- 60.449
1.00 --undefined-- 59.178
1.01 --undefined-- 58.007
1.02 --undefined-- 57.197
1.03 --undefined-- 56.773
1.04 --undefined-- 58.045
1.05 --undefined-- 62.416
1.06 161.790 65.449
1.07 156.052 66.258
1.08 146.475 66.406
1.09 149.733 66.815
1.10 156.236 66.980
1.11 167.300 67.099
1.12 173.196 67.102
1.13 174.341 66.345
1.14 175.981 64.216
1.15 179.584 60.262
1.16 --undefined-- 54.504
1.17 --undefined-- 48.594
1.18 --undefined-- 46.233
1.19 --undefined-- 44.814
1.20 --undefined-- 45.699
1.21 --undefined-- 51.619
1.22 --undefined-- 55.650
1.23 --undefined-- 58.352
1.24 --undefined-- 60.955
1.25 --undefined-- 64.965
1.26 203.810 68.338
1.27 202.345 70.302
1.28 201.857 71.613
1.29 203.376 72.896
1.30 205.516 74.181
1.31 206.968 75.045
1.32 208.280 75.151
1.33 209.115 74.792
1.34 209.924 74.600
1.35 208.911 74.776
1.36 206.783 75.113
1.37 205.734 75.004
1.38 206.046 74.257
1.39 205.357 73.677
1.40 205.005 73.499
1.41 205.550 72.787
1.42 209.561 70.981
1.43 200.417 68.151
1.44 187.293 64.575
1.45 186.928 59.920
1.46 --undefined-- 53.440
1.47 --undefined-- 48.336
1.48 --undefined-- 48.811
1.49 193.952 49.770
1.50 --undefined-- 51.104
1.51 --undefined-- 57.352
1.52 --undefined-- 65.489
1.53 241.744 70.667
1.54 236.509 72.786
1.55 227.030 72.683
1.56 219.968 71.558
1.57 212.720 70.152
1.58 205.951 68.547
1.59 199.612 67.301
1.60 201.870 67.824
1.61 207.137 69.201
1.62 209.970 70.076
1.63 213.757 70.370
1.64 218.381 70.327
1.65 221.950 70.186
1.66 224.526 70.039
1.67 228.219 69.833
1.68 231.590 69.481
1.69 230.880 68.876
1.70 224.278 67.495
1.71 216.287 64.324
1.72 --undefined-- 58.722
1.73 --undefined-- 52.406
1.74 --undefined-- 49.923
1.75 --undefined-- 50.019
1.76 --undefined-- 50.869
1.77 --undefined-- 57.958
1.78 --undefined-- 66.949
1.79 253.533 72.535
1.80 246.185 75.403
1.81 237.719 76.635
1.82 233.910 77.014
1.83 232.437 77.018
1.84 232.798 76.887
1.85 234.376 76.348
1.86 235.851 74.768
1.87 235.281 71.673
1.88 238.184 68.014
1.89 240.229 66.685
1.90 240.225 66.571
1.91 241.001 65.903
1.92 242.252 63.854
1.93 239.931 59.583
1.94 --undefined-- 52.978
1.95 --undefined-- 46.852
1.96 --undefined-- 43.518
1.97 --undefined-- 41.144
1.98 --undefined-- 40.685
1.99 --undefined-- 42.194
2.00 --undefined-- 43.562
2.01 --undefined-- 44.731
2.02 --undefined-- 45.593
2.03 --undefined-- 46.044
2.04 --undefined-- 46.377
2.05 --undefined-- 46.484
2.06 --undefined-- 46.194
2.07 --undefined-- 45.716
2.08 --undefined-- 44.930
2.09 --undefined-- 44.254
2.10 --undefined-- 43.378
2.11 --undefined-- 41.977
2.12 --undefined-- 40.900
2.13 --undefined-- 40.301
2.14 --undefined-- 39.089
2.15 --undefined-- 36.469
2.16 --undefined-- 33.349
2.17 --undefined-- 32.660
2.18 --undefined-- 35.278
2.19 --undefined-- 36.024
2.20 --undefined-- 35.730
2.21 --undefined-- 41.625
2.22 --undefined-- 48.511
2.23 --undefined-- 54.993
2.24 --undefined-- 64.329
2.25 249.946 71.740
2.26 243.995 75.674
2.27 237.928 76.854
2.28 232.540 76.782
2.29 227.794 76.692
2.30 223.469 76.157
2.31 218.832 74.740
2.32 211.244 73.368
2.33 213.513 73.143
2.34 212.745 73.222
2.35 210.823 73.041
2.36 210.368 72.738
2.37 210.293 72.298
2.38 210.638 71.696
2.39 212.100 71.137
2.40 213.963 70.950
2.41 216.323 71.081
2.42 216.771 71.006
2.43 215.915 70.330
2.44 206.186 68.998
2.45 185.293 67.699
2.46 --undefined-- 67.098
2.47 --undefined-- 66.594
2.48 --undefined-- 65.652
2.49 --undefined-- 64.439
2.50 --undefined-- 63.886
2.51 --undefined-- 63.687
2.52 --undefined-- 63.893
2.53 188.293 66.446
2.54 175.201 68.615
2.55 162.967 68.988
2.56 164.243 67.820
2.57 141.510 65.641
2.58 131.469 62.947
2.59 132.033 60.075
2.60 133.536 58.042
2.61 138.305 57.503
2.62 --undefined-- 56.664
2.63 --undefined-- 54.979
2.64 139.879 54.189
2.65 143.021 54.471
2.66 141.792 54.485
2.67 145.962 54.629
2.68 147.565 54.960
2.69 146.235 55.370
2.70 152.591 56.625
2.71 163.111 57.775
2.72 172.379 56.705
2.73 --undefined-- 52.281
2.74 --undefined-- 45.327
2.75 --undefined-- 43.790
2.76 --undefined-- 46.296
2.77 --undefined-- 50.623
2.78 --undefined-- 54.395
2.79 --undefined-- 57.028
2.80 --undefined-- 57.773
2.81 --undefined-- 56.487
2.82 --undefined-- 55.311
2.83 --undefined-- 57.436
2.84 --undefined-- 63.997
2.85 257.114 69.194
2.86 252.431 71.314
2.87 248.476 70.953
2.88 245.280 69.444
2.89 245.427 68.731
2.90 248.492 69.224
2.91 247.062 70.013
2.92 245.559 70.667
2.93 245.637 71.012
2.94 249.736 70.929
2.95 256.372 70.410
2.96 261.575 69.736
2.97 262.521 69.329
2.98 257.988 69.237
2.99 255.610 69.163
3.00 255.780 69.078
3.01 255.860 69.111
3.02 252.007 68.929
3.03 245.311 67.763
3.04 234.829 64.812
3.05 221.535 59.407
3.06 --undefined-- 51.913
3.07 --undefined-- 48.602
3.08 --undefined-- 49.145
3.09 --undefined-- 51.183
3.10 --undefined-- 58.966
3.11 218.099 65.675
3.12 205.188 69.060
3.13 186.560 69.829
3.14 170.406 69.103
3.15 152.823 68.293
3.16 150.995 68.173
3.17 150.247 68.447
3.18 148.512 68.631
3.19 147.297 68.400
3.20 147.011 67.823
3.21 153.305 67.363
3.22 157.481 67.435
3.23 163.025 67.634
3.24 167.722 67.303
3.25 169.810 65.869
3.26 169.184 62.685
3.27 170.485 57.291
3.28 --undefined-- 50.336
3.29 --undefined-- 46.331
3.30 --undefined-- 47.380
3.31 --undefined-- 51.165
3.32 --undefined-- 55.558
3.33 --undefined-- 60.127
3.34 --undefined-- 64.303
3.35 246.729 69.049
3.36 242.430 72.293
3.37 240.862 73.421
3.38 240.303 73.205
3.39 239.333 72.474
3.40 239.220 71.627
3.41 239.167 70.997
3.42 240.234 70.977
3.43 242.234 71.340
3.44 243.877 71.664
3.45 245.463 71.786
3.46 248.053 71.629
3.47 250.474 71.202
3.48 253.095 70.639
3.49 253.950 70.073
3.50 253.030 69.490
3.51 248.834 68.451
3.52 241.310 66.174
3.53 235.446 61.954
3.54 --undefined-- 55.628
3.55 233.445 51.842
3.56 234.944 55.229
3.57 242.995 62.006
3.58 250.534 68.991
3.59 214.362 73.621
3.60 203.520 76.270
3.61 187.032 77.602
3.62 179.263 77.905
3.63 169.281 77.556
3.64 166.256 77.558
3.65 169.020 77.854
3.66 175.608 77.663
3.67 187.505 77.071
3.68 198.204 76.347
3.69 207.256 74.930
3.70 216.697 72.455
3.71 218.481 69.368
3.72 --undefined-- 65.628
3.73 --undefined-- 61.132
3.74 --undefined-- 56.242
3.75 --undefined-- 50.577
3.76 --undefined-- 45.773
3.77 --undefined-- 43.013
3.78 --undefined-- 42.080
3.79 --undefined-- 40.711
3.80 --undefined-- 37.232
3.81 --undefined-- 33.001
3.82 --undefined-- 31.138
3.83 --undefined-- 32.109
3.84 --undefined-- 32.517
3.85 --undefined-- 32.551
3.86 --undefined-- 34.047
3.87 --undefined-- 35.588
3.88 --undefined-- 35.926
3.89 --undefined-- 35.740
3.90 --undefined-- 37.580
3.91 --undefined-- 39.595
3.92 --undefined-- 39.722
3.93 --undefined-- 39.255
3.94 --undefined-- 40.039
3.95 --undefined-- 41.503
3.96 --undefined-- 42.719
3.97 --undefined-- 43.043
3.98 --undefined-- 42.844
3.99 --undefined-- 42.873
4.00 --undefined-- 42.882
4.01 --undefined-- 42.375
4.02 --undefined-- 41.853
4.03 --undefined-- 41.673
4.04 --undefined-- 44.104
4.05 --undefined-- 47.039
4.06 --undefined-- 47.115
4.07 --undefined-- 43.576
4.08 --undefined-- 36.586
4.09 --undefined-- 29.668
4.10 --undefined-- 28.165
4.11 --undefined-- 26.757
4.12 --undefined-- 29.338
4.13 --undefined-- 43.570
4.14 --undefined-- 56.093
4.15 --undefined-- 64.145
4.16 187.588 69.161
4.17 184.160 72.038
4.18 176.485 73.347
4.19 165.811 73.848
4.20 163.732 74.303
4.21 165.420 74.589
4.22 168.206 74.583
4.23 169.931 74.272
4.24 171.132 73.489
4.25 171.929 72.164
4.26 173.172 70.930
4.27 174.584 70.647
4.28 175.463 71.057
4.29 176.463 71.576
4.30 175.996 71.909
4.31 176.407 72.080
4.32 178.364 72.208
4.33 179.018 72.258
4.34 179.811 72.154
4.35 181.880 71.920
4.36 184.899 71.811
4.37 187.313 72.205
4.38 187.277 72.996
4.39 180.934 73.868
4.40 168.154 74.537
4.41 160.843 74.551
4.42 154.268 73.948
4.43 152.224 73.059
4.44 152.138 71.641
4.45 148.176 69.368
4.46 140.646 65.976
4.47 128.780 61.580
4.48 --undefined-- 57.255
4.49 --undefined-- 53.884
4.50 --undefined-- 50.016
4.51 --undefined-- 44.253
4.52 --undefined-- 39.922
4.53 --undefined-- 41.064
4.54 --undefined-- 45.425
4.55 --undefined-- 49.835
4.56 --undefined-- 53.731
4.57 --undefined-- 57.631
4.58 --undefined-- 61.326
4.59 --undefined-- 66.851
4.60 261.244 72.463
4.61 262.469 75.660
4.62 254.801 76.791
4.63 246.417 76.351
4.64 237.945 74.372
4.65 221.234 70.866
4.66 197.645 66.023
4.67 184.247 60.726
4.68 196.160 56.770
4.69 230.512 57.211
4.70 237.446 59.701
4.71 233.250 62.122
4.72 220.781 63.955
4.73 206.295 65.158
4.74 197.078 66.172
4.75 188.365 66.809
4.76 181.750 66.834
4.77 178.011 66.779
4.78 178.116 67.253
4.79 179.129 67.877
4.80 178.995 68.181
4.81 178.723 68.231
4.82 178.582 68.287
4.83 178.022 68.566
4.84 176.342 68.856
4.85 173.817 68.604
4.86 170.742 67.130
4.87 172.056 63.891
4.88 --undefined-- 60.605
4.89 --undefined-- 60.701
4.90 --undefined-- 62.970
4.91 --undefined-- 67.842
4.92 200.061 71.447
4.93 198.502 73.682
4.94 195.148 74.700
4.95 190.106 74.526
4.96 187.436 74.041
4.97 185.858 73.980
4.98 185.053 74.187
4.99 185.395 74.574
5.00 186.099 74.754
5.01 187.218 74.302
5.02 188.127 73.475
5.03 188.197 72.776
5.04 186.663 72.044
5.05 185.815 70.946
5.06 184.662 69.486
5.07 182.578 67.903
5.08 183.186 66.751
5.09 191.262 67.564
5.10 194.152 69.740
5.11 193.378 71.484
5.12 181.760 72.328
5.13 172.889 72.059
5.14 153.715 70.868
5.15 147.699 69.377
5.16 142.645 67.773
5.17 142.236 66.131
5.18 141.940 64.388
5.19 142.442 63.154
5.20 145.884 63.236
5.21 144.513 63.468
5.22 144.922 63.700
5.23 148.048 64.128
5.24 149.458 64.403
5.25 149.654 64.664
5.26 151.373 65.137
5.27 152.779 65.686
5.28 152.080 66.165
5.29 153.426 66.570
5.30 153.905 66.674
5.31 155.274 66.055
5.32 152.625 64.144
5.33 150.643 60.235
5.34 --undefined-- 54.898
5.35 --undefined-- 51.949
5.36 --undefined-- 51.533
5.37 --undefined-- 51.461
5.38 --undefined-- 51.302
5.39 --undefined-- 51.263
5.40 --undefined-- 51.478
5.41 --undefined-- 53.089
5.42 --undefined-- 60.956
5.43 261.675 68.871
5.44 244.343 73.190
5.45 234.300 74.888
5.46 226.964 75.341
5.47 223.643 75.227
5.48 221.424 --undefined--
5.49 218.913 --undefined--
5.50 --undefined-- --undefined--
5.51 --undefined-- --undefined--
