Time Pitch Intensity
0.01 --undefined-- --undefined--
0.02 175.868 --undefined--
0.03 167.723 --undefined--
0.04 152.656 --undefined--
0.05 137.436 64.937
0.06 133.548 65.377
0.07 129.480 65.637
0.08 126.603 65.610
0.09 122.867 65.359
0.10 121.118 64.917
0.11 120.159 64.404
0.12 118.950 64.057
0.13 120.150 64.079
0.14 122.509 64.230
0.15 124.285 64.262
0.16 126.039 64.180
0.17 128.613 63.648
0.18 130.682 61.929
0.19 129.798 58.143
0.20 --undefined-- 51.469
0.21 --undefined-- 43.920
0.22 --undefined-- 46.470
0.23 --undefined-- 50.462
0.24 --undefined-- 54.448
0.25 --undefined-- 62.176
0.26 175.366 67.760
0.27 176.808 70.624
0.28 175.738 71.643
0.29 171.211 71.744
0.30 167.750 71.887
0.31 165.221 72.134
0.32 163.492 72.008
0.33 163.303 71.245
0.34 162.912 69.480
0.35 160.774 66.227
0.36 145.289 61.783
0.37 148.769 57.586
0.38 154.254 53.180
0.39 --undefined-- 46.832
0.40 --undefined-- 39.767
0.41 --undefined-- 37.991
0.42 --undefined-- 39.608
0.43 --undefined-- 41.787
0.44 --undefined-- 46.425
0.45 --undefined-- 52.121
0.46 --undefined-- 59.180
0.47 158.469 64.097
0.48 156.198 66.173
0.49 151.115 66.195
0.50 144.837 64.803
0.51 139.991 62.056
0.52 135.154 57.618
0.53 --undefined-- 50.749
0.54 --undefined-- 42.784
0.55 --undefined-- 40.654
0.56 --undefined-- 40.797
0.57 --undefined-- 40.299
0.58 --undefined-- 38.998
0.59 --undefined-- 37.401
0.60 --undefined-- 36.709
0.61 --undefined-- 37.956
0.62 --undefined-- 39.476
0.63 --undefined-- 41.939
0.64 --undefined-- 46.647
0.65 --undefined-- 55.236
0.66 222.722 63.615
0.67 217.729 68.801
0.68 214.359 71.186
0.69 212.059 71.960
0.70 210.136 72.292
0.71 209.098 72.846
0.72 206.034 73.513
0.73 203.052 74.049
0.74 202.812 74.743
0.75 205.726 75.561
0.76 206.131 76.032
0.77 206.195 76.166
0.78 206.525 76.143
0.79 206.479 75.944
0.80 205.658 75.356
0.81 202.799 73.887
0.82 197.005 70.822
0.83 190.105 65.434
0.84 --undefined-- 57.361
0.85 --undefined-- 52.909
0.86 --undefined-- 60.453
0.87 --undefined-- 66.821
0.88 176.732 69.839
0.89 168.464 70.325
0.90 140.068 69.482
0.91 130.612 68.127
0.92 117.361 66.487
0.93 117.952 65.548
0.94 120.592 65.450
0.95 130.853 65.509
0.96 137.666 65.480
0.97 145.488 65.454
0.98 153.831 65.493
0.99 163.732 65.547
1.00 164.944 64.850
1.01 158.776 62.464
1.02 154.482 57.886
1.03 --undefined-- 51.069
1.04 --undefined-- 43.469
1.05 --undefined-- 41.427
1.06 --undefined-- 52.467
1.07 --undefined-- 62.869
1.08 231.109 69.141
1.09 215.910 71.946
1.10 211.828 72.462
1.11 209.256 72.243
1.12 208.307 72.289
1.13 207.813 72.462
1.14 206.591 72.342
1.15 203.321 71.536
1.16 199.955 69.453
1.17 189.366 65.593
1.18 179.549 60.460
1.19 --undefined-- 56.116
1.20 --undefined-- 52.108
1.21 --undefined-- 46.273
1.22 --undefined-- 40.680
1.23 --undefined-- 39.418
1.24 --undefined-- 40.185
1.25 --undefined-- 40.586
1.26 --undefined-- 40.729
1.27 --undefined-- 40.690
1.28 --undefined-- 39.389
1.29 --undefined-- 37.503
1.30 --undefined-- 37.149
1.31 --undefined-- 37.977
1.32 --undefined-- 38.520
1.33 --undefined-- 38.854
1.34 --undefined-- 40.212
1.35 --undefined-- 41.167
1.36 --undefined-- 41.678
1.37 --undefined-- 41.615
1.38 --undefined-- 40.350
1.39 --undefined-- 39.515
1.40 --undefined-- 40.331
1.41 --undefined-- 41.668
1.42 --undefined-- 42.168
1.43 --undefined-- 41.391
1.44 --undefined-- 39.841
1.45 --undefined-- 37.850
1.46 --undefined-- 35.894
1.47 --undefined-- 36.265
1.48 --undefined-- 36.670
1.49 --undefined-- 36.155
1.50 --undefined-- 37.100
1.51 --undefined-- 38.707
1.52 --undefined-- 39.394
1.53 --undefined-- 39.177
1.54 --undefined-- 39.442
1.55 --undefined-- 40.354
1.56 --undefined-- 40.967
1.57 --undefined-- 40.579
1.58 --undefined-- 38.507
1.59 --undefined-- 36.777
1.60 --undefined-- 36.935
1.61 --undefined-- 46.002
1.62 --undefined-- 58.125
1.63 --undefined-- 66.195
1.64 214.069 70.707
1.65 206.094 72.814
1.66 200.680 73.775
1.67 196.499 74.365
1.68 195.088 74.865
1.69 195.226 75.273
1.70 195.981 75.358
1.71 196.445 75.081
1.72 195.866 74.679
1.73 195.033 74.322
1.74 193.929 73.922
1.75 193.516 73.453
1.76 193.166 73.224
1.77 192.949 73.645
1.78 199.722 74.198
1.79 203.544 74.059
1.80 206.759 73.105
1.81 205.283 71.297
1.82 198.531 68.544
1.83 185.766 65.167
1.84 176.817 62.357
1.85 177.910 61.460
1.86 192.014 62.699
1.87 206.396 64.794
1.88 219.772 66.927
1.89 225.465 68.855
1.90 230.404 70.320
1.91 236.592 71.399
1.92 244.501 72.346
1.93 251.704 73.016
1.94 257.363 73.117
1.95 261.068 72.943
1.96 263.724 73.441
1.97 264.464 74.325
1.98 261.117 74.387
1.99 256.437 73.561
2.00 254.767 72.696
2.01 255.971 72.590
2.02 255.976 72.971
2.03 254.871 73.250
2.04 254.156 73.364
2.05 254.301 73.296
2.06 254.839 73.051
2.07 256.289 72.824
2.08 257.922 72.649
2.09 259.291 72.425
2.10 260.094 72.285
2.11 259.743 72.265
2.12 256.599 71.919
2.13 251.887 70.645
2.14 247.100 68.039
2.15 231.085 63.930
2.16 232.262 58.905
2.17 --undefined-- 55.191
2.18 --undefined-- 53.673
2.19 --undefined-- 52.779
2.20 --undefined-- 54.335
2.21 254.078 61.177
2.22 269.473 67.245
2.23 269.947 70.874
2.24 264.689 72.579
2.25 257.099 73.040
2.26 251.818 73.025
2.27 250.010 73.042
2.28 249.310 73.150
2.29 249.289 73.341
2.30 248.220 73.676
2.31 246.606 74.008
2.32 243.563 74.047
2.33 238.447 73.468
2.34 229.530 71.755
2.35 213.307 68.707
2.36 --undefined-- 64.978
2.37 --undefined-- 61.580
2.38 --undefined-- 57.573
2.39 --undefined-- 51.307
2.40 --undefined-- 45.959
2.41 --undefined-- 43.878
2.42 --undefined-- 43.007
2.43 --undefined-- 43.366
2.44 --undefined-- 45.108
2.45 --undefined-- 50.629
2.46 --undefined-- 58.298
2.47 --undefined-- 63.890
2.48 184.757 67.261
2.49 180.375 68.990
2.50 170.522 69.845
2.51 164.579 70.239
2.52 163.870 70.302
2.53 162.591 70.208
2.54 160.459 70.010
2.55 159.272 69.716
2.56 159.028 69.395
2.57 158.125 69.078
2.58 159.797 68.602
2.59 160.355 67.782
2.60 161.006 66.662
2.61 165.227 66.499
2.62 184.401 68.843
2.63 193.435 71.570
2.64 197.167 73.321
2.65 200.259 74.293
2.66 208.665 75.010
2.67 217.060 75.592
2.68 224.158 75.829
2.69 228.187 75.898
2.70 231.448 76.290
2.71 237.339 76.877
2.72 241.664 77.306
2.73 243.973 77.491
2.74 244.192 77.401
2.75 244.134 77.091
2.76 243.419 76.558
2.77 240.734 75.505
2.78 238.452 73.255
2.79 240.407 69.008
2.80 243.696 62.397
2.81 --undefined-- 56.992
2.82 --undefined-- 57.269
2.83 --undefined-- 59.361
2.84 265.220 65.351
2.85 250.012 69.790
2.86 246.528 71.886
2.87 245.067 72.738
2.88 244.469 73.215
2.89 244.067 73.670
2.90 243.975 74.139
2.91 243.700 74.416
2.92 242.215 74.364
2.93 240.141 74.125
2.94 238.871 73.869
2.95 238.451 73.600
2.96 238.157 73.339
2.97 237.400 73.198
2.98 236.829 73.261
2.99 237.444 73.246
3.00 238.474 72.220
3.01 236.786 69.155
3.02 236.526 63.562
3.03 240.089 56.271
3.04 238.137 50.497
3.05 --undefined-- 47.157
3.06 --undefined-- 43.921
3.07 --undefined-- 40.871
3.08 --undefined-- 45.436
3.09 --undefined-- 57.390
3.10 --undefined-- 65.791
3.11 247.761 70.435
3.12 241.756 72.381
3.13 235.941 72.790
3.14 231.929 72.557
3.15 229.891 72.293
3.16 229.171 72.244
3.17 229.004 72.337
3.18 229.263 72.533
3.19 229.436 72.725
3.20 229.030 72.925
3.21 226.393 73.627
3.22 229.957 74.694
3.23 230.826 75.263
3.24 231.397 75.336
3.25 231.754 75.188
3.26 230.767 74.728
3.27 228.245 73.568
3.28 226.045 71.121
3.29 226.519 66.646
3.30 --undefined-- 59.363
3.31 --undefined-- 54.283
3.32 --undefined-- 62.914
3.33 --undefined-- 68.503
3.34 --undefined-- 70.747
3.35 166.434 70.567
3.36 157.472 68.620
3.37 148.791 65.083
3.38 138.444 59.860
3.39 --undefined-- 52.853
3.40 --undefined-- 44.946
3.41 --undefined-- 43.889
3.42 --undefined-- 49.683
3.43 --undefined-- 53.065
3.44 --undefined-- 53.408
3.45 --undefined-- 52.088
3.46 --undefined-- 51.643
3.47 --undefined-- 55.904
3.48 185.248 62.324
3.49 176.425 66.216
3.50 167.236 67.657
3.51 154.845 67.686
3.52 149.000 67.522
3.53 142.520 67.716
3.54 135.439 68.175
3.55 133.706 68.629
3.56 134.583 68.893
3.57 135.139 69.072
3.58 135.867 69.223
3.59 136.805 69.259
3.60 137.773 69.194
3.61 139.706 68.952
3.62 139.975 68.232
3.63 138.446 66.790
3.64 134.302 64.274
3.65 126.287 60.233
3.66 --undefined-- 54.354
3.67 --undefined-- 47.195
3.68 --undefined-- 43.294
3.69 --undefined-- 41.984
3.70 --undefined-- 42.102
3.71 --undefined-- 42.095
3.72 --undefined-- 41.365
3.73 --undefined-- 42.151
3.74 --undefined-- 42.843
3.75 --undefined-- 42.062
3.76 --undefined-- 44.955
3.77 --undefined-- 54.269
3.78 193.851 61.290
3.79 181.424 65.308
3.80 180.050 67.529
3.81 180.143 68.830
3.82 178.443 69.489
3.83 175.375 69.684
3.84 172.431 69.619
3.85 169.542 69.495
3.86 167.630 69.311
3.87 166.178 69.041
3.88 166.162 68.852
3.89 166.654 68.803
3.90 167.511 68.768
3.91 167.971 68.710
3.92 168.594 68.628
3.93 168.721 68.439
3.94 169.064 68.154
3.95 170.036 67.843
3.96 169.822 67.260
3.97 164.613 65.985
3.98 158.702 63.862
3.99 --undefined-- 60.910
4.00 --undefined-- 56.794
4.01 --undefined-- 51.160
4.02 --undefined-- 44.850
4.03 --undefined-- 42.146
4.04 --undefined-- 41.395
4.05 --undefined-- 40.254
4.06 --undefined-- 38.908
4.07 --undefined-- 37.728
4.08 --undefined-- 38.930
4.09 --undefined-- 40.723
4.10 --undefined-- 41.405
4.11 --undefined-- 41.253
4.12 --undefined-- 40.387
4.13 --undefined-- 38.429
4.14 --undefined-- 36.476
4.15 --undefined-- 35.385
4.16 --undefined-- 34.653
4.17 --undefined-- 34.643
4.18 --undefined-- 35.640
4.19 --undefined-- 38.508
4.20 --undefined-- 40.593
4.21 --undefined-- 40.379
4.22 --undefined-- 40.203
4.23 --undefined-- 41.164
4.24 --undefined-- 41.583
4.25 --undefined-- 41.834
4.26 --undefined-- 40.997
4.27 --undefined-- 39.579
4.28 --undefined-- 39.330
4.29 --undefined-- 40.459
4.30 --undefined-- 41.461
4.31 --undefined-- 40.813
4.32 --undefined-- 39.939
4.33 --undefined-- 40.270
4.34 --undefined-- 41.735
4.35 --undefined-- 51.300
4.36 192.838 59.610
4.37 185.216 64.340
4.38 179.206 66.802
4.39 180.792 68.398
4.40 181.019 69.570
4.41 181.540 70.424
4.42 181.878 71.009
4.43 181.097 71.261
4.44 180.061 70.921
4.45 177.585 69.606
4.46 169.288 67.038
4.47 161.346 63.151
4.48 161.022 57.601
4.49 --undefined-- 49.921
4.50 --undefined-- 43.154
4.51 --undefined-- 42.282
4.52 --undefined-- 44.350
4.53 --undefined-- 49.575
4.54 --undefined-- 59.659
4.55 236.801 67.219
4.56 222.156 71.548
4.57 213.242 73.427
4.58 207.183 74.147
4.59 200.872 74.672
4.60 197.713 74.942
4.61 195.471 74.741
4.62 194.230 74.379
4.63 193.421 73.972
4.64 193.072 73.454
4.65 192.595 73.010
4.66 191.620 72.732
4.67 190.567 72.514
4.68 189.309 72.291
4.69 188.481 71.983
4.70 188.694 71.519
4.71 190.203 71.012
4.72 192.143 70.516
4.73 190.429 69.820
4.74 181.801 68.676
4.75 168.744 66.880
4.76 --undefined-- 64.047
4.77 --undefined-- 59.455
4.78 --undefined-- 52.439
4.79 --undefined-- 44.724
4.80 --undefined-- 41.811
4.81 --undefined-- 41.521
4.82 --undefined-- 46.377
4.83 --undefined-- 55.171
4.84 --undefined-- 62.548
4.85 --undefined-- 67.218
4.86 220.774 69.706
4.87 218.863 71.011
4.88 215.616 71.853
4.89 212.874 72.530
4.90 212.769 72.924
4.91 212.091 73.015
4.92 211.204 72.809
4.93 212.658 72.255
4.94 217.033 71.423
4.95 220.807 70.567
4.96 221.258 69.901
4.97 221.832 69.206
4.98 222.705 67.741
4.99 217.303 64.554
5.00 215.672 59.018
5.01 --undefined-- 51.175
5.02 --undefined-- 43.722
5.03 --undefined-- 42.342
5.04 --undefined-- 42.939
5.05 --undefined-- 48.409
5.06 --undefined-- 59.390
5.07 --undefined-- 66.558
5.08 287.474 70.250
5.09 283.633 71.691
5.10 283.556 72.166
5.11 284.345 72.394
5.12 284.531 72.515
5.13 283.840 72.490
5.14 282.382 72.358
5.15 280.956 72.245
5.16 280.812 72.212
5.17 281.495 72.082
5.18 283.364 71.531
5.19 285.627 70.658
5.20 285.483 69.760
5.21 283.800 68.850
5.22 281.331 67.836
5.23 277.643 66.332
5.24 265.088 63.351
5.25 243.183 57.900
5.26 --undefined-- 49.746
5.27 --undefined-- 41.279
5.28 --undefined-- 41.838
5.29 --undefined-- 49.514
5.30 --undefined-- 53.701
5.31 --undefined-- 55.010
5.32 189.251 58.705
5.33 194.041 64.395
5.34 200.815 68.300
5.35 197.246 70.286
5.36 183.032 70.529
5.37 160.293 69.774
5.38 149.387 69.032
5.39 143.464 68.838
5.40 142.169 68.882
5.41 143.735 68.750
5.42 145.491 68.575
5.43 146.548 68.463
5.44 147.249 68.355
5.45 148.122 68.231
5.46 148.565 68.132
5.47 149.512 68.062
5.48 151.108 68.131
5.49 151.909 68.398
5.50 152.801 68.593
5.51 152.314 68.616
5.52 151.278 68.478
5.53 150.298 68.048
5.54 146.811 67.496
5.55 143.631 67.093
5.56 140.479 66.862
5.57 138.886 66.812
5.58 138.373 66.853
5.59 139.449 67.188
5.60 143.093 67.775
5.61 146.147 68.241
5.62 148.326 68.508
5.63 149.507 68.738
5.64 149.797 68.965
5.65 150.413 69.060
5.66 152.331 69.006
5.67 153.385 68.826
5.68 153.409 68.367
5.69 154.033 67.657
5.70 155.495 67.182
5.71 158.871 67.516
5.72 161.438 68.324
5.73 160.377 68.569
5.74 156.011 68.203
5.75 151.269 67.945
5.76 146.742 68.046
5.77 146.014 68.406
5.78 147.887 68.915
5.79 152.712 69.547
5.80 157.489 70.267
5.81 162.883 70.810
5.82 170.818 71.066
5.83 173.317 70.932
5.84 176.918 70.415
5.85 187.368 70.231
5.86 197.748 70.625
5.87 207.224 70.729
5.88 213.543 70.221
5.89 211.755 69.452
5.90 210.931 68.917
5.91 210.024 68.740
5.92 206.904 68.705
5.93 202.831 68.676
5.94 195.580 68.638
5.95 187.838 --undefined--
5.96 180.286 --undefined--
5.97 --undefined-- --undefined--
5.98 --undefined-- --undefined--
