Time Pitch Intensity
0.01 --undefined-- --undefined--
0.02 --undefined-- --undefined--
0.03 --undefined-- --undefined--
0.04 156.396 --undefined--
0.05 156.161 67.169
0.06 161.174 68.835
0.07 164.307 68.856
0.08 166.741 68.080
0.09 166.714 67.545
0.10 166.686 67.550
0.11 166.659 67.800
0.12 166.228 68.001
0.13 163.770 67.945
0.14 158.835 67.203
0.15 153.803 65.317
0.16 --undefined-- 62.245
0.17 --undefined-- 58.400
0.18 --undefined-- 54.801
0.19 --undefined-- 54.168
0.20 --undefined-- 58.011
0.21 --undefined-- 62.192
0.22 --undefined-- 64.568
0.23 --undefined-- 66.247
0.24 163.140 68.089
0.25 167.610 69.570
0.26 168.052 70.528
0.27 167.527 70.942
0.28 166.067 69.975
0.29 164.399 66.835
0.30 --undefined-- 61.459
0.31 --undefined-- 55.925
0.32 --undefined-- 55.928
0.33 --undefined-- 58.324
0.34 --undefined-- 59.314
0.35 --undefined-- 59.321
0.36 --undefined-- 59.506
0.37 --undefined-- 59.408
0.38 --undefined-- 57.920
0.39 --undefined-- 54.664
0.40 --undefined-- 50.064
0.41 --undefined-- 49.770
0.42 --undefined-- 52.661
0.43 --undefined-- 54.654
0.44 --undefined-- 56.900
0.45 --undefined-- 59.366
0.46 --undefined-- 61.126
0.47 --undefined-- 61.525
0.48 --undefined-- 61.815
0.49 213.032 64.023
0.50 205.488 66.404
0.51 192.222 67.853
0.52 188.947 68.692
0.53 189.215 69.469
0.54 190.221 70.180
0.55 191.413 70.609
0.56 193.931 70.502
0.57 197.637 69.764
0.58 198.192 68.464
0.59 194.171 66.749
0.60 191.465 64.774
0.61 --undefined-- 62.496
0.62 --undefined-- 59.840
0.63 --undefined-- 58.499
0.64 --undefined-- 61.036
0.65 --undefined-- 62.870
0.66 --undefined-- 62.705
0.67 194.871 61.667
0.68 193.073 61.730
0.69 188.656 61.939
0.70 193.231 61.204
0.71 189.999 59.970
0.72 174.407 59.485
0.73 166.045 60.069
0.74 162.103 60.799
0.75 160.909 61.277
0.76 160.182 61.520
0.77 159.698 61.765
0.78 159.070 61.609
0.79 158.115 60.444
0.80 153.313 58.173
0.81 139.798 55.877
0.82 155.277 55.612
0.83 150.418 56.132
0.84 145.172 55.984
0.85 --undefined-- 55.528
0.86 --undefined-- 57.171
0.87 --undefined-- 60.644
0.88 187.352 63.125
0.89 181.706 64.280
0.90 178.147 64.928
0.91 177.674 65.563
0.92 178.142 65.933
0.93 179.414 66.195
0.94 180.738 66.535
0.95 181.493 66.697
0.96 182.273 66.535
0.97 183.105 66.258
0.98 184.184 66.012
0.99 185.019 65.921
1.00 186.103 66.014
1.01 186.699 66.083
1.02 186.441 65.766
1.03 185.543 64.510
1.04 184.060 61.747
1.05 182.277 57.480
1.06 --undefined-- 53.214
1.07 --undefined-- 50.622
1.08 --undefined-- 51.672
1.09 --undefined-- 56.736
1.10 --undefined-- 60.312
1.11 --undefined-- 60.803
1.12 --undefined-- 58.900
1.13 --undefined-- 56.411
1.14 --undefined-- 55.689
1.15 197.896 56.895
1.16 194.632 58.289
1.17 196.923 59.505
1.18 190.517 60.687
1.19 181.446 61.648
1.20 169.319 62.557
1.21 164.735 63.446
1.22 162.468 63.822
1.23 161.126 63.750
1.24 162.511 64.074
1.25 165.362 64.722
1.26 168.944 64.747
1.27 173.086 64.004
1.28 177.377 63.247
1.29 179.808 62.943
1.30 183.153 62.885
1.31 195.017 63.062
1.32 206.556 63.262
1.33 217.021 63.454
1.34 222.427 63.790
1.35 223.645 63.324
1.36 220.614 61.595
1.37 --undefined-- 60.173
1.38 --undefined-- 59.957
1.39 --undefined-- 59.145
1.40 --undefined-- 58.334
1.41 242.095 60.102
1.42 243.483 62.235
1.43 246.696 63.119
1.44 246.233 63.391
1.45 235.641 63.997
1.46 226.342 65.158
1.47 219.689 66.589
1.48 213.054 67.786
1.49 208.201 68.484
1.50 205.817 68.446
1.51 204.909 67.859
1.52 204.637 67.448
1.53 204.010 67.066
1.54 202.936 66.192
1.55 202.133 65.302
1.56 201.691 65.064
1.57 201.703 64.762
1.58 202.351 63.685
1.59 202.170 61.855
1.60 201.330 59.417
1.61 197.032 56.026
1.62 --undefined-- 51.710
1.63 --undefined-- 49.481
1.64 --undefined-- 48.512
1.65 --undefined-- 47.464
1.66 --undefined-- 52.003
1.67 --undefined-- 56.755
1.68 --undefined-- 60.038
1.69 265.872 63.265
1.70 266.432 65.710
1.71 268.283 66.338
1.72 268.089 65.165
1.73 265.733 62.308
1.74 256.923 57.641
1.75 --undefined-- 51.559
1.76 --undefined-- 48.106
1.77 --undefined-- 49.750
1.78 --undefined-- 52.093
1.79 --undefined-- 53.387
1.80 --undefined-- 53.107
1.81 --undefined-- 51.629
1.82 --undefined-- 52.641
1.83 --undefined-- 55.649
1.84 --undefined-- 56.605
1.85 --undefined-- 54.684
1.86 --undefined-- 49.963
1.87 --undefined-- 46.013
1.88 --undefined-- 46.914
1.89 --undefined-- 47.836
1.90 --undefined-- 50.893
1.91 --undefined-- 56.542
1.92 --undefined-- 61.157
1.93 209.432 63.733
1.94 196.663 64.380
1.95 185.369 64.235
1.96 --undefined-- 63.884
1.97 --undefined-- 62.854
1.98 140.251 61.104
1.99 140.290 58.782
2.00 95.867 56.564
2.01 --undefined-- 55.089
2.02 277.872 54.155
2.03 271.775 52.795
2.04 281.724 50.883
2.05 --undefined-- 50.484
2.06 95.478 51.885
2.07 --undefined-- 54.223
2.08 --undefined-- 56.777
2.09 81.942 58.981
2.10 91.578 60.360
2.11 94.596 61.181
2.12 187.748 61.994
2.13 188.302 62.711
2.14 188.334 63.338
2.15 185.176 63.750
2.16 184.822 64.007
2.17 186.676 64.334
2.18 183.509 64.505
2.19 182.144 64.318
2.20 181.012 63.979
2.21 179.242 63.636
2.22 177.624 63.292
2.23 176.635 62.961
2.24 176.838 62.698
2.25 176.788 62.612
2.26 176.615 62.674
2.27 176.395 62.779
2.28 176.777 62.882
2.29 176.955 62.905
2.30 177.339 62.741
2.31 176.536 62.506
2.32 176.470 62.441
2.33 180.372 62.564
2.34 182.398 62.639
2.35 184.773 62.654
2.36 187.115 62.712
2.37 188.499 62.416
2.38 188.671 61.140
2.39 181.466 59.019
2.40 180.921 57.483
2.41 --undefined-- 56.375
2.42 --undefined-- 54.451
2.43 --undefined-- 51.681
2.44 --undefined-- 48.002
2.45 --undefined-- 45.695
2.46 --undefined-- 49.598
2.47 --undefined-- 55.417
2.48 --undefined-- 60.026
2.49 --undefined-- 62.997
2.50 --undefined-- 63.919
2.51 --undefined-- 63.171
2.52 147.077 61.730
2.53 146.571 60.149
2.54 141.847 58.515
2.55 138.165 56.866
2.56 132.785 55.501
2.57 131.473 54.927
2.58 131.847 55.730
2.59 134.759 56.952
2.60 139.511 58.122
2.61 147.601 59.288
2.62 155.641 60.400
2.63 159.368 61.219
2.64 164.467 61.273
2.65 171.966 60.692
2.66 175.835 60.485
2.67 186.584 61.554
2.68 188.805 62.941
2.69 195.554 63.656
2.70 202.624 63.769
2.71 209.980 63.831
2.72 214.095 64.302
2.73 217.469 65.127
2.74 221.139 65.902
2.75 224.788 66.264
2.76 227.357 65.786
2.77 224.776 64.035
2.78 218.210 61.030
2.79 --undefined-- 57.664
2.80 --undefined-- 56.611
2.81 279.071 58.868
2.82 275.909 62.507
2.83 253.702 65.984
2.84 247.360 68.671
2.85 247.405 71.420
2.86 248.979 74.178
2.87 249.730 76.271
2.88 249.925 77.491
2.89 250.123 78.026
2.90 249.866 78.237
2.91 249.222 78.313
2.92 248.666 78.194
2.93 247.564 77.697
2.94 245.787 76.789
2.95 245.218 75.901
2.96 246.196 75.297
2.97 248.159 74.696
2.98 249.958 73.764
2.99 250.571 72.266
3.00 250.778 70.275
3.01 250.490 68.269
3.02 251.156 67.270
3.03 252.763 66.921
3.04 249.959 66.209
3.05 248.076 65.259
3.06 246.342 64.089
3.07 244.045 62.361
3.08 241.568 59.414
3.09 --undefined-- 54.882
3.10 --undefined-- 52.161
3.11 --undefined-- 52.988
3.12 --undefined-- 53.278
3.13 --undefined-- 52.199
3.14 --undefined-- 49.629
3.15 --undefined-- 49.291
3.16 --undefined-- 52.728
3.17 --undefined-- 55.347
3.18 --undefined-- 56.095
3.19 --undefined-- 55.877
3.20 --undefined-- 55.771
3.21 --undefined-- 55.566
3.22 --undefined-- 54.378
3.23 --undefined-- 51.439
3.24 --undefined-- 47.879
3.25 --undefined-- 46.581
3.26 --undefined-- 47.166
3.27 --undefined-- 47.561
3.28 --undefined-- 48.502
3.29 --undefined-- 49.711
3.30 --undefined-- 50.036
3.31 --undefined-- 50.554
3.32 --undefined-- 50.650
3.33 --undefined-- 48.969
3.34 --undefined-- 46.888
3.35 --undefined-- 47.178
3.36 --undefined-- 47.292
3.37 --undefined-- 47.602
3.38 --undefined-- 49.936
3.39 --undefined-- 50.454
3.40 --undefined-- 53.031
3.41 281.160 59.647
3.42 261.889 63.353
3.43 243.072 64.542
3.44 237.751 64.824
3.45 236.875 65.464
3.46 242.210 66.837
3.47 256.499 68.530
3.48 261.276 69.983
3.49 264.666 70.876
3.50 267.535 71.352
3.51 270.505 71.654
3.52 272.445 71.704
3.53 273.471 71.444
3.54 274.563 71.048
3.55 274.932 70.705
3.56 274.213 70.401
3.57 272.962 70.017
3.58 269.687 69.603
3.59 268.233 69.160
3.60 267.534 68.519
3.61 266.567 67.839
3.62 265.674 67.443
3.63 265.517 67.305
3.64 265.745 67.128
3.65 266.500 66.929
3.66 267.923 66.926
3.67 269.563 67.135
3.68 271.316 67.477
3.69 272.211 67.781
3.70 272.043 67.676
3.71 269.254 66.454
3.72 258.707 63.653
3.73 239.332 59.867
3.74 267.792 56.603
3.75 --undefined-- 54.233
3.76 --undefined-- 52.876
3.77 --undefined-- 56.659
3.78 --undefined-- 62.538
3.79 160.451 66.462
3.80 162.558 68.863
3.81 163.391 70.258
3.82 163.659 70.491
3.83 163.198 69.139
3.84 --undefined-- 65.540
3.85 --undefined-- 59.199
3.86 --undefined-- 51.848
3.87 --undefined-- 48.846
3.88 --undefined-- 47.750
3.89 --undefined-- 48.797
3.90 --undefined-- 52.379
3.91 --undefined-- 53.505
3.92 --undefined-- 51.651
3.93 --undefined-- 50.011
3.94 --undefined-- 50.446
3.95 --undefined-- 49.848
3.96 --undefined-- 49.901
3.97 --undefined-- 50.634
3.98 --undefined-- 52.205
3.99 --undefined-- 54.978
4.00 --undefined-- 59.672
4.01 226.897 64.644
4.02 224.600 67.170
4.03 205.774 67.586
4.04 201.938 67.647
4.05 199.893 67.959
4.06 197.752 68.064
4.07 197.823 68.067
4.08 198.032 68.112
4.09 197.709 68.159
4.10 197.520 68.198
4.11 196.879 68.158
4.12 196.776 68.031
4.13 196.541 67.783
4.14 196.984 67.230
4.15 198.532 66.406
4.16 199.066 64.992
4.17 198.264 62.255
4.18 197.668 57.897
4.19 --undefined-- 52.858
4.20 --undefined-- 48.059
4.21 --undefined-- 46.544
4.22 --undefined-- 47.199
4.23 --undefined-- 47.157
4.24 --undefined-- 48.439
4.25 --undefined-- 49.663
4.26 --undefined-- 49.921
4.27 --undefined-- 51.948
4.28 --undefined-- 55.324
4.29 --undefined-- 56.613
4.30 --undefined-- 55.403
4.31 --undefined-- 59.360
4.32 --undefined-- 67.060
4.33 274.043 71.459
4.34 273.824 73.084
4.35 273.003 73.103
4.36 273.419 72.324
4.37 273.242 70.799
4.38 271.248 68.281
4.39 266.272 65.586
4.40 271.780 65.612
4.41 277.722 66.995
4.42 278.277 67.877
4.43 278.194 68.336
4.44 278.303 68.526
4.45 278.315 68.487
4.46 278.554 68.286
4.47 278.598 68.092
4.48 277.859 67.954
4.49 277.113 67.798
4.50 276.263 67.607
4.51 275.210 67.446
4.52 275.147 67.359
4.53 276.363 67.351
4.54 277.276 67.418
4.55 278.712 67.511
4.56 279.766 67.574
4.57 280.328 67.567
4.58 281.103 67.474
4.59 283.177 67.354
4.60 284.016 67.255
4.61 283.120 67.197
4.62 282.028 67.251
4.63 281.850 67.375
4.64 281.408 67.424
4.65 281.062 67.429
4.66 280.721 67.407
4.67 280.831 67.295
4.68 281.539 67.206
4.69 281.529 67.132
4.70 280.759 66.999
4.71 279.360 66.892
4.72 277.448 66.918
4.73 276.354 67.016
4.74 274.263 66.856
4.75 271.024 66.126
4.76 263.745 65.045
4.77 256.877 64.354
4.78 246.525 64.068
4.79 233.727 64.020
4.80 218.458 64.208
4.81 204.935 65.310
4.82 --undefined-- 67.632
4.83 --undefined-- 69.205
4.84 --undefined-- 69.395
4.85 158.242 68.585
4.86 157.940 67.002
4.87 161.414 65.164
4.88 164.499 63.545
4.89 166.060 61.684
4.90 163.658 58.746
4.91 --undefined-- 54.223
4.92 --undefined-- 49.415
4.93 --undefined-- 47.076
4.94 --undefined-- 46.910
4.95 --undefined-- 47.441
4.96 --undefined-- 48.829
4.97 --undefined-- 50.050
4.98 --undefined-- 50.229
4.99 --undefined-- 50.822
5.00 --undefined-- 51.253
5.01 --undefined-- 49.416
5.02 --undefined-- --undefined--
5.03 --undefined-- --undefined--
5.04 --undefined-- --undefined--
5.05 --undefined-- --undefined--
