Time Pitch Intensity
0.01 --undefined-- --undefined--
0.02 179.018 --undefined--
0.03 174.260 --undefined--
0.04 169.712 --undefined--
0.05 167.180 72.493
0.06 165.425 72.057
0.07 163.442 71.759
0.08 162.301 71.588
0.09 161.420 71.459
0.10 161.596 71.364
0.11 162.394 71.353
0.12 164.508 71.519
0.13 166.939 71.680
0.14 168.995 71.502
0.15 170.825 70.913
0.16 171.134 69.855
0.17 169.666 68.222
0.18 170.764 66.623
0.19 172.378 65.557
0.20 171.163 64.546
0.21 169.939 63.473
0.22 167.963 62.460
0.23 166.020 61.568
0.24 165.081 61.500
0.25 165.775 63.202
0.26 167.096 65.705
0.27 167.417 67.902
0.28 166.148 69.566
0.29 163.790 70.695
0.30 162.420 71.361
0.31 162.671 71.633
0.32 163.458 71.589
0.33 163.616 71.278
0.34 164.337 70.698
0.35 165.440 69.817
0.36 160.596 68.384
0.37 151.880 66.585
0.38 152.415 65.916
0.39 154.846 66.473
0.40 158.836 67.284
0.41 162.119 67.980
0.42 163.832 68.335
0.43 164.060 68.456
0.44 164.375 68.437
0.45 165.556 68.386
0.46 166.854 68.430
0.47 167.632 68.537
0.48 167.615 68.656
0.49 168.507 68.783
0.50 170.207 68.999
0.51 172.935 69.498
0.52 179.869 70.711
0.53 185.144 72.666
0.54 182.264 74.643
0.55 181.506 76.320
0.56 181.408 77.470
0.57 180.969 77.910
0.58 180.914 77.702
0.59 181.354 77.133
0.60 181.237 76.424
0.61 181.000 75.502
0.62 180.801 74.319
0.63 179.770 73.011
0.64 176.290 71.823
0.65 177.077 71.316
0.66 180.385 71.278
0.67 182.351 70.910
0.68 184.448 69.958
0.69 184.095 68.272
0.70 177.754 65.822
0.71 163.911 62.770
0.72 179.334 59.359
0.73 187.561 56.157
0.74 --undefined-- 52.625
0.75 --undefined-- 48.305
0.76 --undefined-- 45.146
0.77 --undefined-- 42.641
0.78 --undefined-- 38.998
0.79 --undefined-- 34.806
0.80 --undefined-- 33.832
0.81 --undefined-- 34.632
0.82 --undefined-- 35.166
0.83 --undefined-- 35.638
0.84 --undefined-- 35.880
0.85 --undefined-- 36.178
0.86 --undefined-- 36.770
0.87 --undefined-- 36.853
0.88 --undefined-- 37.055
0.89 --undefined-- 38.130
0.90 --undefined-- 39.156
0.91 --undefined-- 39.743
0.92 --undefined-- 39.495
0.93 --undefined-- 39.435
0.94 --undefined-- 40.419
0.95 --undefined-- 41.284
0.96 --undefined-- 42.210
0.97 --undefined-- 42.563
0.98 --undefined-- 40.889
0.99 --undefined-- 38.011
1.00 --undefined-- 37.665
1.01 --undefined-- 38.886
1.02 --undefined-- 38.292
1.03 --undefined-- 35.346
1.04 --undefined-- 31.506
1.05 --undefined-- 31.618
1.06 --undefined-- 33.334
1.07 --undefined-- 34.170
1.08 --undefined-- 46.431
1.09 --undefined-- 59.135
1.10 --undefined-- 67.679
1.11 222.107 72.670
1.12 216.573 75.118
1.13 210.693 76.288
1.14 208.618 77.164
1.15 210.022 77.772
1.16 215.004 77.643
1.17 220.425 76.857
1.18 224.132 76.032
1.19 227.114 75.416
1.20 229.242 74.848
1.21 229.530 74.160
1.22 229.486 73.714
1.23 233.855 73.947
1.24 237.357 74.185
1.25 241.911 74.155
1.26 247.344 74.398
1.27 249.096 74.887
1.28 248.393 75.031
1.29 248.131 74.768
1.30 247.631 74.453
1.31 249.210 74.295
1.32 264.012 74.591
1.33 267.995 75.457
1.34 264.222 76.501
1.35 261.352 77.075
1.36 258.515 77.010
1.37 255.593 76.658
1.38 254.351 76.292
1.39 253.109 75.964
1.40 251.587 75.778
1.41 249.290 75.764
1.42 246.832 75.661
1.43 243.477 75.207
1.44 234.508 74.366
1.45 224.206 73.192
1.46 213.559 71.863
1.47 204.492 71.197
1.48 201.106 71.225
1.49 192.960 71.144
1.50 188.830 71.352
1.51 186.853 72.071
1.52 186.387 73.147
1.53 189.191 74.465
1.54 190.898 75.592
1.55 189.030 76.158
1.56 186.795 76.131
1.57 185.916 75.704
1.58 186.439 75.119
1.59 187.524 74.416
1.60 186.194 73.671
1.61 185.983 73.418
1.62 187.737 73.681
1.63 186.870 73.889
1.64 186.370 73.944
1.65 186.174 73.951
1.66 186.921 73.907
1.67 187.786 73.798
1.68 188.707 73.639
1.69 189.935 73.484
1.70 191.188 73.476
1.71 195.023 73.808
1.72 195.711 74.332
1.73 194.887 74.694
1.74 192.327 74.955
1.75 189.984 75.411
1.76 187.373 76.010
1.77 185.747 76.401
1.78 185.698 76.583
1.79 185.644 76.807
1.80 186.161 77.109
1.81 187.152 77.360
1.82 187.893 77.373
1.83 188.807 77.030
1.84 188.108 76.324
1.85 187.275 75.267
1.86 186.903 73.831
1.87 187.418 72.015
1.88 190.216 70.190
1.89 192.284 68.588
1.90 195.926 66.587
1.91 192.817 63.196
1.92 --undefined-- 57.474
1.93 --undefined-- 49.238
1.94 --undefined-- 44.603
1.95 --undefined-- 44.950
1.96 --undefined-- 44.189
1.97 --undefined-- 42.611
1.98 --undefined-- 41.723
1.99 --undefined-- 41.540
2.00 --undefined-- 41.753
2.01 --undefined-- 41.652
2.02 --undefined-- 41.751
2.03 --undefined-- 42.263
2.04 --undefined-- 42.476
2.05 --undefined-- 42.240
2.06 --undefined-- 41.368
2.07 --undefined-- 40.242
2.08 --undefined-- 39.253
2.09 --undefined-- 38.025
2.10 --undefined-- 36.153
2.11 --undefined-- 33.372
2.12 --undefined-- 30.144
2.13 --undefined-- 32.154
2.14 --undefined-- 35.368
2.15 --undefined-- 35.602
2.16 --undefined-- 38.394
2.17 --undefined-- 51.134
2.18 218.853 60.908
2.19 206.698 67.500
2.20 188.209 71.651
2.21 183.469 73.902
2.22 172.651 74.823
2.23 166.270 74.976
2.24 165.050 74.802
2.25 166.673 74.680
2.26 167.840 74.677
2.27 170.028 74.812
2.28 172.250 75.056
2.29 178.031 75.298
2.30 187.544 75.582
2.31 195.115 75.964
2.32 201.479 75.983
2.33 209.059 75.324
2.34 221.411 74.450
2.35 230.938 73.842
2.36 237.706 72.837
2.37 240.496 70.286
2.38 236.020 65.780
2.39 235.840 60.228
2.40 --undefined-- 54.506
2.41 --undefined-- 49.355
2.42 --undefined-- 46.147
2.43 --undefined-- 42.728
2.44 --undefined-- 39.194
2.45 --undefined-- 39.564
2.46 --undefined-- 49.527
2.47 --undefined-- 57.053
2.48 --undefined-- 61.565
2.49 --undefined-- 65.423
2.50 265.872 70.214
2.51 261.004 73.521
2.52 254.688 74.724
2.53 248.728 74.878
2.54 246.907 74.964
2.55 244.659 75.151
2.56 242.806 75.366
2.57 241.956 75.365
2.58 240.907 75.273
2.59 241.238 75.397
2.60 240.806 75.479
2.61 242.746 75.169
2.62 251.595 74.350
2.63 263.200 73.207
2.64 267.670 72.652
2.65 260.427 73.125
2.66 258.867 73.637
2.67 259.406 73.713
2.68 259.118 73.521
2.69 257.666 73.366
2.70 256.374 73.387
2.71 254.753 73.402
2.72 253.031 73.208
2.73 250.247 72.571
2.74 243.563 71.008
2.75 236.724 67.874
2.76 233.525 62.504
2.77 --undefined-- 54.892
2.78 --undefined-- 49.556
2.79 --undefined-- 48.352
2.80 --undefined-- 52.472
2.81 --undefined-- 64.003
2.82 --undefined-- 72.500
2.83 158.948 77.397
2.84 157.460 79.327
2.85 156.895 79.137
2.86 157.681 78.217
2.87 158.971 77.733
2.88 160.340 77.476
2.89 161.429 77.112
2.90 161.578 76.612
2.91 161.195 75.937
2.92 160.564 75.267
2.93 159.768 74.823
2.94 159.512 74.499
2.95 159.912 74.169
2.96 160.446 73.781
2.97 161.132 73.349
2.98 161.260 72.813
2.99 161.598 72.077
3.00 162.217 71.260
3.01 162.753 70.456
3.02 162.384 69.552
3.03 163.113 68.419
3.04 162.751 66.877
3.05 161.800 64.842
3.06 159.924 62.213
3.07 157.628 58.636
3.08 158.166 53.796
3.09 --undefined-- 47.443
3.10 --undefined-- 39.366
3.11 --undefined-- 31.771
3.12 --undefined-- 30.152
3.13 --undefined-- 30.647
3.14 --undefined-- 29.854
3.15 --undefined-- 28.656
3.16 --undefined-- 37.567
3.17 --undefined-- 48.627
3.18 --undefined-- 55.095
3.19 --undefined-- 58.427
3.20 --undefined-- 62.095
3.21 241.812 66.757
3.22 232.719 69.572
3.23 220.266 70.386
3.24 214.350 70.506
3.25 210.488 70.941
3.26 207.270 71.457
3.27 203.236 71.705
3.28 196.815 71.951
3.29 194.417 72.448
3.30 194.099 72.950
3.31 194.833 73.278
3.32 196.185 73.437
3.33 196.857 73.441
3.34 196.350 73.336
3.35 195.903 73.158
3.36 195.942 72.946
3.37 197.646 72.754
3.38 199.565 72.555
3.39 200.636 72.104
3.40 200.222 70.844
3.41 199.275 68.033
3.42 195.244 63.018
3.43 --undefined-- 56.109
3.44 --undefined-- 55.260
3.45 --undefined-- 63.644
3.46 --undefined-- 70.105
3.47 246.258 73.580
3.48 239.466 75.093
3.49 236.405 75.721
3.50 234.845 75.939
3.51 234.046 76.031
3.52 234.434 75.979
3.53 235.437 75.610
3.54 236.122 74.973
3.55 235.485 74.054
3.56 234.606 72.479
3.57 233.065 69.711
3.58 208.009 66.058
3.59 208.562 62.941
3.60 212.070 59.554
3.61 --undefined-- 53.977
3.62 --undefined-- 48.131
3.63 --undefined-- 50.531
3.64 --undefined-- 59.529
3.65 --undefined-- 66.677
3.66 217.905 70.725
3.67 215.408 72.253
3.68 203.436 72.278
3.69 197.472 72.139
3.70 193.085 72.391
3.71 187.311 72.590
3.72 182.006 72.447
3.73 177.517 72.112
3.74 175.239 71.846
3.75 172.691 71.600
3.76 169.799 70.922
3.77 168.113 69.466
3.78 166.286 67.486
3.79 164.614 65.580
3.80 163.032 64.044
3.81 160.216 63.071
3.82 159.065 63.012
3.83 160.023 63.413
3.84 159.197 63.768
3.85 159.231 64.327
3.86 159.833 65.197
3.87 158.798 66.066
3.88 157.350 66.786
3.89 157.041 67.481
3.90 156.957 68.205
3.91 156.736 68.887
3.92 156.541 69.404
3.93 156.902 69.815
3.94 158.766 70.266
3.95 160.897 70.627
3.96 164.450 70.746
3.97 168.499 70.463
3.98 172.627 69.547
3.99 174.551 68.086
4.00 172.097 66.698
4.01 169.946 65.757
4.02 171.098 64.900
4.03 174.564 63.878
4.04 180.764 63.054
4.05 186.399 62.629
4.06 189.017 62.382
4.07 199.440 63.197
4.08 184.054 66.065
4.09 172.208 69.611
4.10 167.633 72.266
4.11 164.498 73.324
4.12 161.615 72.876
4.13 158.959 71.428
4.14 155.596 69.564
4.15 151.942 67.940
4.16 149.219 66.411
4.17 144.320 64.098
4.18 135.861 61.259
4.19 140.198 59.664
4.20 74.826 58.633
4.21 --undefined-- 57.682
4.22 --undefined-- 56.316
4.23 --undefined-- 54.865
4.24 --undefined-- 54.267
4.25 --undefined-- 52.135
4.26 --undefined-- 47.082
4.27 --undefined-- 40.656
4.28 --undefined-- 39.406
4.29 --undefined-- 39.046
4.30 --undefined-- 38.020
4.31 --undefined-- 38.951
4.32 --undefined-- 40.735
4.33 --undefined-- 42.630
4.34 --undefined-- 43.500
4.35 --undefined-- 43.450
4.36 --undefined-- 43.304
4.37 --undefined-- 43.600
4.38 --undefined-- 44.115
4.39 --undefined-- 44.150
4.40 --undefined-- 43.788
4.41 --undefined-- 43.823
4.42 --undefined-- 44.481
4.43 --undefined-- 44.500
4.44 --undefined-- 43.289
4.45 --undefined-- 41.977
4.46 --undefined-- 40.438
4.47 --undefined-- 37.484
4.48 --undefined-- 33.827
4.49 --undefined-- 39.337
4.50 --undefined-- 48.363
4.51 --undefined-- 54.403
4.52 --undefined-- 58.791
4.53 --undefined-- 62.306
4.54 --undefined-- 64.033
4.55 --undefined-- 64.106
4.56 --undefined-- 64.516
4.57 158.800 65.811
4.58 157.564 66.777
4.59 147.395 67.358
4.60 146.164 67.905
4.61 141.369 68.158
4.62 139.311 67.937
4.63 142.314 67.218
4.64 143.299 66.083
4.65 143.018 64.866
4.66 149.655 64.084
4.67 149.979 63.715
4.68 163.420 63.441
4.69 197.480 63.591
4.70 205.642 63.999
4.71 206.348 64.354
4.72 200.204 64.868
4.73 188.182 66.156
4.74 181.529 67.610
4.75 181.910 68.363
4.76 186.576 68.148
4.77 188.049 66.642
4.78 187.916 63.316
4.79 181.020 57.680
4.80 --undefined-- 50.140
4.81 --undefined-- 44.476
4.82 --undefined-- 41.870
4.83 --undefined-- 38.837
4.84 --undefined-- 38.738
4.85 --undefined-- 44.490
4.86 --undefined-- 50.656
4.87 --undefined-- 57.000
4.88 --undefined-- 64.037
4.89 --undefined-- 70.898
4.90 221.184 75.072
4.91 214.112 76.589
4.92 202.429 76.920
4.93 197.016 77.105
4.94 187.629 76.431
4.95 180.773 75.302
4.96 177.469 74.337
4.97 177.673 73.301
4.98 178.754 72.217
4.99 177.944 70.638
5.00 174.790 67.995
5.01 146.111 64.220
5.02 122.736 59.540
5.03 --undefined-- 54.178
5.04 --undefined-- 49.119
5.05 --undefined-- 45.963
5.06 --undefined-- 44.570
5.07 --undefined-- 43.175
5.08 --undefined-- 40.099
5.09 --undefined-- 41.140
5.10 --undefined-- 48.319
5.11 --undefined-- 51.645
5.12 --undefined-- 50.856
5.13 --undefined-- 50.179
5.14 --undefined-- 58.049
5.15 190.493 64.683
5.16 183.118 68.471
5.17 176.361 70.289
5.18 174.661 71.072
5.19 174.749 71.402
5.20 175.072 71.622
5.21 176.031 71.788
5.22 177.319 71.876
5.23 179.807 71.891
5.24 183.116 71.831
5.25 184.207 71.820
5.26 191.408 72.088
5.27 196.459 72.425
5.28 200.609 72.812
5.29 203.009 73.356
5.30 206.223 73.711
5.31 210.003 73.612
5.32 211.996 73.208
5.33 211.672 72.824
5.34 213.966 72.844
5.35 212.622 73.206
5.36 207.520 73.357
5.37 200.397 73.362
5.38 193.007 73.624
5.39 187.823 74.164
5.40 183.267 74.770
5.41 180.087 75.276
5.42 176.975 75.679
5.43 174.133 75.938
5.44 171.389 75.806
5.45 169.069 75.349
5.46 165.581 74.658
5.47 166.145 73.799
5.48 167.222 72.794
5.49 167.182 71.589
5.50 167.263 70.092
5.51 168.783 68.329
5.52 171.169 67.011
5.53 175.049 66.096
5.54 178.611 64.309
5.55 173.264 60.532
5.56 --undefined-- 53.931
5.57 --undefined-- 47.063
5.58 --undefined-- 44.582
5.59 --undefined-- 42.299
5.60 --undefined-- 39.334
5.61 --undefined-- 38.550
5.62 --undefined-- 39.979
5.63 --undefined-- 41.628
5.64 --undefined-- 42.241
5.65 --undefined-- 41.854
5.66 --undefined-- 41.426
5.67 --undefined-- 41.437
5.68 --undefined-- 41.490
5.69 --undefined-- 41.428
5.70 --undefined-- 41.268
5.71 --undefined-- 40.437
5.72 --undefined-- 38.873
5.73 --undefined-- 37.492
5.74 --undefined-- 39.173
5.75 --undefined-- 43.436
5.76 --undefined-- 45.083
5.77 --undefined-- 43.075
5.78 --undefined-- 38.218
5.79 --undefined-- 34.224
5.80 --undefined-- 30.281
5.81 --undefined-- 25.967
5.82 --undefined-- 35.063
5.83 --undefined-- 51.369
5.84 --undefined-- 63.080
5.85 --undefined-- 70.675
5.86 157.742 74.917
5.87 156.193 76.980
5.88 156.385 77.707
5.89 156.919 77.475
5.90 158.775 76.473
5.91 160.430 75.510
5.92 160.336 75.228
5.93 159.906 75.119
5.94 159.618 74.676
5.95 159.574 73.935
5.96 159.303 73.147
5.97 158.269 72.294
5.98 156.020 71.157
5.99 151.783 69.238
6.00 290.177 66.403
6.01 274.361 63.120
6.02 269.136 58.847
6.03 --undefined-- 52.803
6.04 --undefined-- 47.457
6.05 --undefined-- 44.101
6.06 --undefined-- 39.564
6.07 --undefined-- 36.757
6.08 --undefined-- 47.109
6.09 --undefined-- 56.072
6.10 --undefined-- 61.242
6.11 --undefined-- --undefined--
6.12 249.576 --undefined--
6.13 --undefined-- --undefined--
6.14 --undefined-- --undefined--
