Time Pitch Intensity
0.01 --undefined-- --undefined--
0.02 113.475 --undefined--
0.03 115.459 --undefined--
0.04 109.401 --undefined--
0.05 115.312 62.449
0.06 113.780 62.186
0.07 111.855 62.208
0.08 117.845 62.037
0.09 110.057 62.072
0.10 112.743 61.891
0.11 115.720 61.263
0.12 114.507 60.918
0.13 113.060 60.653
0.14 113.712 60.258
0.15 109.728 59.934
0.16 110.745 59.644
0.17 109.681 59.143
0.18 111.564 58.089
0.19 114.202 56.198
0.20 112.797 55.006
0.21 109.705 57.156
0.22 105.801 59.975
0.23 103.326 62.121
0.24 101.832 63.435
0.25 100.540 64.041
0.26 99.292 64.200
0.27 97.499 63.756
0.28 95.451 62.912
0.29 93.778 62.320
0.30 92.369 61.920
0.31 90.950 61.288
0.32 89.066 60.179
0.33 87.845 58.299
0.34 --undefined-- 55.237
0.35 --undefined-- 50.935
0.36 --undefined-- 46.568
0.37 --undefined-- 43.268
0.38 --undefined-- 40.966
0.39 --undefined-- 38.648
0.40 --undefined-- 36.019
0.41 --undefined-- 34.639
0.42 --undefined-- 34.819
0.43 --undefined-- 34.722
0.44 --undefined-- 33.873
0.45 --undefined-- 35.256
0.46 --undefined-- 36.157
0.47 --undefined-- 35.157
0.48 --undefined-- 35.833
0.49 --undefined-- 39.341
0.50 --undefined-- 48.420
0.51 --undefined-- 58.795
0.52 140.999 66.394
0.53 143.156 71.254
0.54 144.652 73.712
0.55 145.629 74.310
0.56 148.053 73.995
0.57 151.291 73.359
0.58 154.197 71.929
0.59 157.314 69.506
0.60 156.221 67.278
0.61 153.864 66.536
0.62 151.512 67.016
0.63 148.750 69.126
0.64 146.892 72.699
0.65 144.862 75.462
0.66 141.586 76.356
0.67 138.990 76.012
0.68 134.788 75.228
0.69 129.735 74.171
0.70 122.636 73.248
0.71 116.409 72.764
0.72 110.987 72.282
0.73 105.593 71.438
0.74 102.682 70.047
0.75 98.760 68.245
0.76 95.958 66.476
0.77 94.511 64.139
0.78 94.612 60.429
0.79 96.145 55.525
0.80 --undefined-- 49.810
0.81 --undefined-- 44.341
0.82 --undefined-- 41.218
0.83 --undefined-- 40.301
0.84 --undefined-- 41.067
0.85 --undefined-- 42.162
0.86 --undefined-- 43.565
0.87 --undefined-- 46.285
0.88 --undefined-- 51.264
0.89 129.733 58.026
0.90 131.609 63.802
0.91 132.399 67.523
0.92 132.792 68.937
0.93 133.174 67.689
0.94 --undefined-- 63.456
0.95 --undefined-- 56.427
0.96 --undefined-- 49.060
0.97 --undefined-- 43.837
0.98 --undefined-- 40.944
0.99 --undefined-- 47.806
1.00 --undefined-- 59.394
1.01 --undefined-- 67.365
1.02 127.881 72.234
1.03 127.943 74.385
1.04 126.263 74.277
1.05 125.252 72.969
1.06 124.432 71.860
1.07 123.917 71.200
1.08 124.072 70.618
1.09 124.216 70.333
1.10 124.081 70.467
1.11 124.222 70.696
1.12 124.491 70.643
1.13 124.614 70.500
1.14 124.542 70.799
1.15 123.827 71.307
1.16 123.521 71.668
1.17 122.809 71.897
1.18 121.314 72.003
1.19 120.016 71.934
1.20 118.425 71.514
1.21 117.267 70.935
1.22 116.922 70.336
1.23 116.481 69.453
1.24 116.359 67.919
1.25 115.787 65.283
1.26 --undefined-- 60.700
1.27 --undefined-- 53.357
1.28 --undefined-- 44.002
1.29 --undefined-- 40.118
1.30 --undefined-- 40.057
1.31 --undefined-- 40.072
1.32 --undefined-- 47.978
1.33 --undefined-- 59.856
1.34 --undefined-- 67.901
1.35 106.688 72.288
1.36 90.700 73.753
1.37 90.766 73.299
1.38 89.014 72.169
1.39 85.720 71.040
1.40 84.256 69.928
1.41 81.962 68.900
1.42 81.675 67.865
1.43 80.522 66.519
1.44 79.663 64.805
1.45 79.300 62.696
1.46 80.264 60.570
1.47 80.373 58.617
1.48 80.592 56.238
1.49 80.276 53.101
1.50 --undefined-- 49.770
1.51 --undefined-- 47.486
1.52 --undefined-- 45.938
1.53 --undefined-- 43.942
1.54 --undefined-- 41.645
1.55 --undefined-- 39.297
1.56 --undefined-- 37.475
1.57 --undefined-- 36.939
1.58 --undefined-- 36.674
1.59 --undefined-- 37.392
1.60 --undefined-- 45.492
1.61 --undefined-- 57.013
1.62 --undefined-- 66.084
1.63 91.680 71.646
1.64 92.290 74.079
1.65 78.575 74.059
1.66 --undefined-- 72.097
1.67 --undefined-- 68.126
1.68 --undefined-- 64.277
1.69 --undefined-- 61.953
1.70 --undefined-- 57.020
1.71 --undefined-- 49.637
1.72 --undefined-- 43.962
1.73 --undefined-- 40.310
1.74 --undefined-- 37.697
1.75 --undefined-- 36.572
1.76 --undefined-- 36.197
1.77 --undefined-- 35.794
1.78 --undefined-- 36.140
1.79 --undefined-- 36.701
1.80 --undefined-- 37.383
1.81 --undefined-- 37.397
1.82 --undefined-- 37.096
1.83 --undefined-- 37.067
1.84 --undefined-- 40.935
1.85 --undefined-- 47.796
1.86 --undefined-- 53.857
1.87 109.062 58.294
1.88 106.654 60.635
1.89 101.070 60.417
1.90 --undefined-- 57.540
1.91 --undefined-- 52.931
1.92 --undefined-- 52.451
1.93 --undefined-- 57.694
1.94 --undefined-- 61.692
1.95 --undefined-- 66.890
1.96 --undefined-- 71.462
1.97 127.798 73.365
1.98 125.030 73.262
1.99 123.181 72.198
2.00 121.785 70.444
2.01 118.665 67.159
2.02 121.610 61.830
2.03 127.378 57.580
2.04 127.411 57.221
2.05 127.089 57.428
2.06 127.113 57.331
2.07 127.169 57.275
2.08 126.024 58.159
2.09 123.931 60.826
2.10 121.532 65.471
2.11 --undefined-- 69.392
2.12 --undefined-- 71.374
2.13 --undefined-- 71.938
2.14 --undefined-- 71.805
2.15 --undefined-- 71.300
2.16 --undefined-- 70.822
2.17 88.634 70.421
2.18 85.062 70.048
2.19 83.144 69.424
2.20 82.638 67.731
2.21 --undefined-- 64.278
2.22 --undefined-- 58.071
2.23 --undefined-- 48.111
2.24 --undefined-- 39.656
2.25 --undefined-- 37.105
2.26 --undefined-- 35.294
2.27 --undefined-- 34.107
2.28 --undefined-- 34.900
2.29 --undefined-- 36.655
2.30 --undefined-- 38.842
2.31 --undefined-- 41.303
2.32 --undefined-- 45.068
2.33 --undefined-- 54.018
2.34 --undefined-- 63.275
2.35 --undefined-- 68.411
2.36 --undefined-- 70.147
2.37 76.156 70.934
2.38 75.665 71.758
2.39 74.584 70.920
2.40 75.900 70.065
2.41 --undefined-- 69.978
2.42 --undefined-- 67.497
2.43 --undefined-- 63.002
2.44 --undefined-- 59.571
2.45 --undefined-- 55.969
2.46 --undefined-- 51.315
2.47 --undefined-- 46.306
2.48 --undefined-- 41.588
2.49 --undefined-- 38.948
2.50 --undefined-- 39.198
2.51 --undefined-- 39.542
2.52 --undefined-- 40.347
2.53 --undefined-- 42.463
2.54 --undefined-- 45.527
2.55 --undefined-- 49.334
2.56 100.386 53.573
2.57 100.454 58.196
2.58 101.572 62.870
2.59 103.460 67.207
2.60 106.098 70.587
2.61 105.030 72.290
2.62 105.093 72.840
2.63 104.570 73.070
2.64 104.369 73.126
2.65 104.116 73.068
2.66 103.587 72.979
2.67 103.310 72.902
2.68 103.053 72.760
2.69 101.600 72.449
2.70 101.057 72.124
2.71 100.405 71.913
2.72 100.045 71.658
2.73 99.308 71.350
2.74 99.220 71.133
2.75 99.249 71.071
2.76 99.785 70.847
2.77 277.163 69.913
2.78 276.272 67.984
2.79 273.288 65.288
2.80 273.148 61.759
2.81 --undefined-- 56.384
2.82 --undefined-- 50.545
2.83 --undefined-- 45.655
2.84 --undefined-- 41.326
2.85 --undefined-- 39.827
2.86 --undefined-- 39.737
2.87 --undefined-- 39.866
2.88 --undefined-- 38.955
2.89 --undefined-- 37.509
2.90 --undefined-- 36.910
2.91 --undefined-- 37.412
2.92 --undefined-- 37.448
2.93 --undefined-- 36.862
2.94 --undefined-- 37.374
2.95 --undefined-- 38.531
2.96 --undefined-- 38.446
2.97 --undefined-- 37.130
2.98 --undefined-- 36.444
2.99 --undefined-- 36.590
3.00 --undefined-- 36.677
3.01 --undefined-- 38.431
3.02 --undefined-- 46.732
3.03 --undefined-- 56.728
3.04 --undefined-- 64.305
3.05 --undefined-- 69.162
3.06 --undefined-- 71.879
3.07 94.037 73.469
3.08 92.259 74.331
3.09 92.570 74.265
3.10 92.100 73.271
3.11 91.516 71.864
3.12 91.183 70.520
3.13 89.820 68.965
3.14 87.372 66.487
3.15 --undefined-- 62.510
3.16 --undefined-- 56.734
3.17 --undefined-- 49.129
3.18 --undefined-- 41.541
3.19 --undefined-- 39.957
3.20 --undefined-- 40.483
3.21 --undefined-- 43.439
3.22 --undefined-- 52.035
3.23 --undefined-- 59.795
3.24 --undefined-- 65.583
3.25 --undefined-- 69.631
3.26 --undefined-- 72.221
3.27 --undefined-- 73.101
3.28 --undefined-- 71.560
3.29 --undefined-- 67.498
3.30 --undefined-- 62.509
3.31 92.178 59.439
3.32 95.671 57.932
3.33 98.023 56.692
3.34 101.856 54.965
3.35 103.218 53.442
3.36 101.784 52.984
3.37 100.495 52.720
3.38 99.833 52.729
3.39 98.655 53.150
3.40 96.060 53.028
3.41 --undefined-- 51.793
3.42 --undefined-- 51.078
3.43 --undefined-- 53.444
3.44 100.422 59.884
3.45 100.832 66.458
3.46 100.511 70.585
3.47 98.981 72.257
3.48 97.369 71.804
3.49 93.659 69.161
3.50 90.232 64.364
3.51 95.256 59.270
3.52 99.596 56.484
3.53 103.497 54.056
3.54 --undefined-- 50.640
3.55 --undefined-- 46.763
3.56 --undefined-- 43.289
3.57 --undefined-- 40.564
3.58 --undefined-- 39.177
3.59 --undefined-- 39.517
3.60 --undefined-- 40.518
3.61 --undefined-- 40.841
3.62 --undefined-- 44.535
3.63 --undefined-- 52.317
3.64 --undefined-- 58.604
3.65 --undefined-- 62.234
3.66 --undefined-- 63.463
3.67 --undefined-- 63.634
3.68 85.959 64.378
3.69 80.071 65.310
3.70 78.184 65.653
3.71 78.073 65.602
3.72 77.957 66.284
3.73 --undefined-- 69.221
3.74 --undefined-- 71.654
3.75 --undefined-- 72.048
3.76 --undefined-- 71.452
3.77 --undefined-- 71.045
3.78 --undefined-- 70.806
3.79 --undefined-- 70.460
3.80 --undefined-- 70.000
3.81 --undefined-- 69.801
3.82 --undefined-- 69.357
3.83 --undefined-- 68.281
3.84 --undefined-- 66.796
3.85 --undefined-- 65.692
3.86 --undefined-- 65.896
3.87 82.382 66.733
3.88 82.254 67.270
3.89 83.347 67.294
3.90 85.613 67.037
3.91 85.750 66.787
3.92 85.698 66.317
3.93 88.172 65.748
3.94 90.741 65.870
3.95 74.800 66.664
3.96 75.671 67.614
3.97 75.729 68.333
3.98 75.513 68.485
3.99 92.417 67.832
4.00 91.844 66.424
4.01 89.891 64.298
4.02 89.631 61.271
4.03 75.583 58.294
4.04 78.675 57.217
4.05 79.550 56.864
4.06 --undefined-- 56.894
4.07 --undefined-- 55.887
4.08 --undefined-- 53.243
4.09 --undefined-- 49.465
4.10 --undefined-- 46.727
4.11 --undefined-- 46.242
4.12 --undefined-- 46.896
4.13 --undefined-- 48.945
4.14 --undefined-- 51.271
4.15 --undefined-- 53.160
4.16 --undefined-- 54.406
4.17 --undefined-- 54.227
4.18 --undefined-- 52.179
4.19 --undefined-- 50.355
4.20 --undefined-- 54.111
4.21 --undefined-- 62.201
4.22 --undefined-- 69.197
4.23 --undefined-- 73.087
4.24 87.626 73.944
4.25 87.747 72.559
4.26 82.248 70.388
4.27 82.441 68.684
4.28 84.177 67.728
4.29 83.415 67.233
4.30 87.442 66.950
4.31 89.537 67.154
4.32 90.040 67.450
4.33 93.697 67.189
4.34 95.827 65.926
4.35 94.182 62.969
4.36 99.088 58.472
4.37 104.184 55.392
4.38 106.898 54.437
4.39 107.690 54.877
4.40 108.809 56.343
4.41 108.043 57.928
4.42 106.481 61.818
4.43 --undefined-- 67.293
4.44 --undefined-- 70.876
4.45 91.785 72.304
4.46 90.524 72.334
4.47 87.005 71.756
4.48 --undefined-- 70.836
4.49 79.480 69.855
4.50 76.564 69.066
4.51 --undefined-- 67.900
4.52 --undefined-- 65.833
4.53 --undefined-- 63.668
4.54 --undefined-- 61.645
4.55 --undefined-- 58.584
4.56 --undefined-- 53.988
4.57 --undefined-- 48.667
4.58 --undefined-- 44.259
4.59 --undefined-- 41.900
4.60 --undefined-- 40.274
4.61 --undefined-- 38.608
4.62 --undefined-- 37.965
4.63 --undefined-- 40.656
4.64 --undefined-- 43.594
4.65 --undefined-- 43.788
4.66 --undefined-- 42.020
4.67 --undefined-- 40.629
4.68 --undefined-- 45.072
4.69 --undefined-- 53.323
4.70 97.013 60.558
4.71 91.590 65.803
4.72 89.125 68.660
4.73 87.848 69.617
4.74 86.485 69.761
4.75 86.154 69.971
4.76 85.681 70.212
4.77 85.470 70.336
4.78 85.834 70.506
4.79 85.647 70.640
4.80 84.633 70.612
4.81 83.625 70.621
4.82 83.101 70.446
4.83 84.214 69.945
4.84 84.486 69.252
4.85 84.060 68.491
4.86 85.994 67.977
4.87 85.955 67.456
4.88 85.958 66.136
4.89 86.017 63.738
4.90 86.636 60.375
4.91 84.979 55.825
4.92 --undefined-- 50.963
4.93 --undefined-- 52.206
4.94 --undefined-- 59.599
4.95 --undefined-- 65.699
4.96 --undefined-- 69.437
4.97 --undefined-- 70.789
4.98 --undefined-- 70.591
4.99 --undefined-- 69.912
5.00 --undefined-- 68.795
5.01 --undefined-- 67.245
5.02 --undefined-- 65.487
5.03 --undefined-- 63.013
5.04 --undefined-- 58.899
5.05 --undefined-- 52.902
5.06 --undefined-- 45.243
5.07 --undefined-- 40.462
5.08 --undefined-- 37.572
5.09 --undefined-- 35.834
5.10 --undefined-- 36.066
5.11 --undefined-- 36.041
5.12 --undefined-- 34.972
5.13 --undefined-- 36.408
5.14 --undefined-- 38.702
5.15 --undefined-- 38.839
5.16 --undefined-- 37.551
5.17 --undefined-- 37.017
5.18 --undefined-- 37.016
5.19 --undefined-- 36.756
5.20 --undefined-- 35.984
5.21 --undefined-- 35.995
5.22 --undefined-- 36.547
5.23 --undefined-- 35.951
5.24 --undefined-- 35.979
5.25 --undefined-- 36.357
5.26 --undefined-- 35.325
5.27 --undefined-- 35.923
5.28 --undefined-- 41.908
5.29 --undefined-- 48.964
5.30 96.031 55.279
5.31 93.822 61.350
5.32 91.246 66.529
5.33 88.791 70.318
5.34 86.321 72.437
5.35 83.055 72.925
5.36 81.428 72.282
5.37 80.126 71.184
5.38 78.464 69.511
5.39 80.317 67.013
5.40 84.643 64.992
5.41 --undefined-- 64.033
5.42 --undefined-- 62.483
5.43 88.912 63.516
5.44 88.319 67.182
5.45 88.547 69.733
5.46 90.838 70.646
5.47 92.594 70.687
5.48 94.491 70.979
5.49 94.698 71.803
5.50 95.390 72.588
5.51 93.750 72.862
5.52 93.398 72.528
5.53 93.802 72.035
5.54 94.282 71.743
5.55 95.500 71.552
5.56 96.496 71.166
5.57 96.858 70.493
5.58 97.799 69.506
5.59 97.650 68.411
5.60 96.854 67.262
5.61 93.943 65.177
5.62 --undefined-- 60.980
5.63 --undefined-- 53.916
5.64 --undefined-- 44.674
5.65 --undefined-- 40.067
5.66 --undefined-- 36.915
5.67 --undefined-- 35.796
5.68 --undefined-- 36.406
5.69 --undefined-- 40.347
5.70 --undefined-- 45.434
5.71 --undefined-- 49.898
5.72 85.804 54.589
5.73 83.648 59.173
5.74 83.130 62.691
5.75 --undefined-- 64.277
5.76 --undefined-- 63.123
5.77 --undefined-- 59.006
5.78 --undefined-- 54.605
5.79 --undefined-- 57.375
5.80 --undefined-- 64.154
5.81 --undefined-- 69.287
5.82 --undefined-- 71.536
5.83 93.588 71.752
5.84 91.180 71.510
5.85 87.918 71.369
5.86 85.419 71.087
5.87 83.154 70.568
5.88 81.306 70.034
5.89 79.913 69.718
5.90 79.833 69.545
5.91 78.453 69.367
5.92 77.162 68.919
5.93 76.426 68.079
5.94 76.419 66.676
5.95 --undefined-- 63.864
5.96 --undefined-- 58.720
5.97 --undefined-- 50.826
5.98 --undefined-- 42.399
5.99 --undefined-- 39.766
6.00 --undefined-- 40.669
6.01 --undefined-- 42.204
6.02 --undefined-- 42.480
6.03 --undefined-- 41.754
6.04 --undefined-- 40.940
6.05 --undefined-- 42.250
6.06 --undefined-- 51.322
6.07 --undefined-- 58.698
6.08 --undefined-- 64.231
6.09 --undefined-- 69.629
6.10 --undefined-- 73.231
6.11 --undefined-- 74.303
6.12 --undefined-- 73.717
6.13 89.523 72.610
6.14 89.840 71.734
6.15 88.131 71.119
6.16 87.775 70.751
6.17 86.462 70.482
6.18 84.198 69.726
6.19 85.498 68.216
6.20 85.574 66.275
6.21 83.478 --undefined--
6.22 83.160 --undefined--
6.23 --undefined-- --undefined--
6.24 --undefined-- --undefined--
