Time Pitch Intensity
0.01 --undefined-- --undefined--
0.02 --undefined-- --undefined--
0.03 --undefined-- --undefined--
0.04 --undefined-- --undefined--
0.05 --undefined-- 53.798
0.06 --undefined-- 53.527
0.07 --undefined-- 53.301
0.08 --undefined-- 53.330
0.09 --undefined-- 56.088
0.10 --undefined-- 64.201
0.11 --undefined-- 70.422
0.12 --undefined-- 72.707
0.13 --undefined-- 72.393
0.14 --undefined-- 72.591
0.15 --undefined-- 72.138
0.16 167.067 69.201
0.17 169.158 66.751
0.18 170.076 67.152
0.19 172.757 67.210
0.20 173.773 66.424
0.21 175.521 65.872
0.22 177.277 65.711
0.23 179.817 65.759
0.24 183.854 66.303
0.25 188.942 67.017
0.26 192.398 67.493
0.27 199.335 67.195
0.28 202.276 65.276
0.29 203.484 61.220
0.30 201.444 55.910
0.31 --undefined-- 53.963
0.32 --undefined-- 54.835
0.33 --undefined-- 55.448
0.34 243.794 57.002
0.35 250.364 61.514
0.36 236.510 64.815
0.37 219.151 66.014
0.38 209.398 66.412
0.39 203.449 66.701
0.40 197.562 66.883
0.41 192.343 67.147
0.42 190.159 67.537
0.43 189.536 67.845
0.44 189.962 68.170
0.45 188.788 68.590
0.46 187.750 69.004
0.47 186.259 69.623
0.48 184.526 70.406
0.49 182.420 71.130
0.50 181.240 71.653
0.51 180.595 71.302
0.52 180.502 69.711
0.53 184.928 67.519
0.54 183.813 65.067
0.55 181.753 61.324
0.56 182.128 56.430
0.57 182.813 52.351
0.58 --undefined-- 50.074
0.59 --undefined-- 49.558
0.60 --undefined-- 49.339
0.61 --undefined-- 50.416
0.62 --undefined-- 52.341
0.63 --undefined-- 54.049
0.64 --undefined-- 55.460
0.65 --undefined-- 55.982
0.66 261.540 58.359
0.67 253.597 62.286
0.68 248.523 64.710
0.69 249.576 65.752
0.70 251.095 65.604
0.71 249.026 64.666
0.72 249.809 64.363
0.73 259.190 65.005
0.74 263.237 65.484
0.75 266.314 65.629
0.76 267.725 65.549
0.77 266.324 64.948
0.78 259.851 63.694
0.79 251.685 61.850
0.80 246.758 59.545
0.81 227.997 58.336
0.82 239.745 59.471
0.83 243.871 61.279
0.84 237.846 62.442
0.85 217.842 63.152
0.86 185.830 63.826
0.87 176.120 64.166
0.88 168.821 63.364
0.89 160.164 60.843
0.90 --undefined-- 57.005
0.91 --undefined-- 54.238
0.92 --undefined-- 53.420
0.93 --undefined-- 52.617
0.94 --undefined-- 51.643
0.95 --undefined-- 51.686
0.96 --undefined-- 52.592
0.97 --undefined-- 52.297
0.98 --undefined-- 51.961
0.99 --undefined-- 52.085
1.00 --undefined-- 51.678
1.01 --undefined-- 50.723
1.02 --undefined-- 49.488
1.03 --undefined-- 48.954
1.04 --undefined-- 50.590
1.05 --undefined-- 52.611
1.06 --undefined-- 57.592
1.07 242.064 62.676
1.08 237.908 65.510
1.09 226.015 66.807
1.10 218.899 67.578
1.11 216.009 68.292
1.12 216.489 69.231
1.13 218.868 69.653
1.14 222.837 69.126
1.15 226.715 68.448
1.16 229.910 68.010
1.17 232.935 68.004
1.18 236.268 67.210
1.19 239.440 65.156
1.20 243.556 63.800
1.21 241.453 63.387
1.22 240.455 63.057
1.23 236.815 62.171
1.24 233.751 59.841
1.25 --undefined-- 55.613
1.26 --undefined-- 50.495
1.27 --undefined-- 49.920
1.28 --undefined-- 58.554
1.29 --undefined-- 64.597
1.30 189.768 67.430
1.31 179.991 68.428
1.32 172.564 69.039
1.33 165.165 69.487
1.34 160.493 69.016
1.35 156.806 67.216
1.36 153.184 65.319
1.37 --undefined-- 65.777
1.38 80.073 67.031
1.39 75.756 67.181
1.40 77.260 66.534
1.41 78.550 66.801
1.42 77.336 66.986
1.43 163.831 66.697
1.44 172.922 66.208
1.45 178.225 64.786
1.46 179.707 61.659
1.47 175.026 56.559
1.48 --undefined-- 51.819
1.49 --undefined-- 52.157
1.50 --undefined-- 52.756
1.51 --undefined-- 51.433
1.52 --undefined-- 49.880
1.53 --undefined-- 51.120
1.54 --undefined-- 52.947
1.55 --undefined-- 56.640
1.56 199.330 61.106
1.57 193.854 64.687
1.58 189.084 67.396
1.59 187.564 69.202
1.60 186.624 70.286
1.61 186.224 71.050
1.62 186.308 71.690
1.63 187.569 72.127
1.64 189.405 72.306
1.65 190.433 72.445
1.66 190.100 72.659
1.67 190.510 72.847
1.68 189.969 72.751
1.69 187.498 71.910
1.70 185.345 69.920
1.71 188.589 66.990
1.72 192.493 64.162
1.73 193.745 61.419
1.74 190.223 57.778
1.75 190.127 53.788
1.76 --undefined-- 50.957
1.77 --undefined-- 51.212
1.78 --undefined-- 55.251
1.79 --undefined-- 57.614
1.80 --undefined-- 56.907
1.81 --undefined-- 53.923
1.82 --undefined-- 51.095
1.83 --undefined-- 50.179
1.84 --undefined-- 54.956
1.85 --undefined-- 59.706
1.86 --undefined-- 62.161
1.87 237.640 63.457
1.88 236.768 64.149
1.89 236.549 64.217
1.90 236.095 63.693
1.91 233.262 61.906
1.92 219.350 58.288
1.93 --undefined-- 53.830
1.94 --undefined-- 50.710
1.95 --undefined-- 52.101
1.96 --undefined-- 55.284
1.97 --undefined-- 57.783
1.98 --undefined-- 60.089
1.99 260.156 63.749
2.00 243.033 67.815
2.01 240.823 69.651
2.02 237.496 69.187
2.03 236.809 68.040
2.04 237.197 67.344
2.05 238.335 66.592
2.06 239.052 65.626
2.07 238.525 64.858
2.08 241.622 64.674
2.09 242.179 64.676
2.10 240.220 64.522
2.11 236.303 64.469
2.12 231.002 64.701
2.13 223.951 65.214
2.14 216.515 65.681
2.15 211.009 65.903
2.16 206.127 66.467
2.17 203.300 67.372
2.18 201.067 67.711
2.19 200.411 67.016
2.20 201.917 65.578
2.21 211.269 64.477
2.22 219.653 64.258
2.23 218.457 64.335
2.24 210.370 64.792
2.25 195.818 66.432
2.26 193.267 68.405
2.27 192.796 69.205
2.28 194.108 68.595
2.29 198.603 67.354
2.30 198.892 66.385
2.31 213.539 66.154
2.32 218.947 66.485
2.33 224.987 66.114
2.34 238.716 64.199
2.35 233.699 60.597
2.36 203.788 55.953
2.37 --undefined-- 52.821
2.38 --undefined-- 51.107
2.39 --undefined-- 50.703
2.40 --undefined-- 51.393
2.41 --undefined-- 51.924
2.42 --undefined-- 55.679
2.43 265.176 61.383
2.44 241.322 65.101
2.45 232.686 66.469
2.46 225.552 66.317
2.47 221.716 65.484
2.48 219.037 64.441
2.49 216.058 63.363
2.50 219.451 62.461
2.51 222.426 61.187
2.52 210.967 58.205
2.53 202.522 53.607
2.54 219.877 52.416
2.55 --undefined-- 55.223
2.56 255.480 58.218
2.57 248.180 61.865
2.58 255.852 64.889
2.59 263.839 66.330
2.60 269.822 66.327
2.61 274.152 65.187
2.62 271.990 62.536
2.63 261.526 58.196
2.64 265.257 54.757
2.65 268.806 51.999
2.66 --undefined-- 49.160
2.67 --undefined-- 51.960
2.68 --undefined-- 54.947
2.69 --undefined-- 59.011
2.70 246.959 64.133
2.71 240.171 66.677
2.72 208.145 67.219
2.73 191.728 68.135
2.74 186.137 68.905
2.75 184.937 68.465
2.76 188.238 67.879
2.77 197.875 67.662
2.78 207.556 66.986
2.79 218.065 65.904
2.80 228.342 65.383
2.81 236.604 65.422
2.82 243.597 65.701
2.83 251.374 66.297
2.84 256.894 66.689
2.85 260.504 66.399
2.86 262.465 64.828
2.87 258.968 61.172
2.88 256.456 55.519
2.89 274.087 50.656
2.90 --undefined-- 48.247
2.91 --undefined-- 52.870
2.92 --undefined-- 60.887
2.93 253.563 66.044
2.94 237.970 67.871
2.95 222.339 67.444
2.96 215.484 66.826
2.97 213.335 66.820
2.98 211.511 66.901
2.99 209.691 67.041
3.00 208.149 67.321
3.01 206.449 67.742
3.02 204.457 68.144
3.03 202.977 68.298
3.04 201.420 68.184
3.05 198.432 67.962
3.06 197.412 67.528
3.07 198.550 66.814
3.08 199.328 66.162
3.09 200.504 65.824
3.10 201.518 65.715
3.11 202.039 65.757
3.12 201.575 65.938
3.13 200.308 66.164
3.14 199.461 66.432
3.15 199.049 66.928
3.16 199.285 67.799
3.17 199.417 68.750
3.18 199.311 69.360
3.19 198.791 69.570
3.20 198.722 69.510
3.21 198.815 69.087
3.22 200.171 68.364
3.23 202.151 67.780
3.24 202.038 67.326
3.25 200.698 67.054
3.26 199.924 67.026
3.27 199.892 66.277
3.28 202.134 64.018
3.29 197.662 61.222
3.30 193.079 60.735
3.31 204.386 62.628
3.32 217.141 65.070
3.33 218.846 66.369
3.34 217.909 66.015
3.35 218.210 64.950
3.36 220.059 64.140
3.37 221.314 63.090
3.38 219.606 60.896
3.39 200.682 56.967
3.40 204.481 51.480
3.41 --undefined-- 46.645
3.42 --undefined-- 46.334
3.43 --undefined-- 51.351
3.44 --undefined-- 54.765
3.45 --undefined-- 55.066
3.46 --undefined-- 53.933
3.47 --undefined-- 53.646
3.48 --undefined-- 53.583
3.49 --undefined-- 52.870
3.50 --undefined-- 52.090
3.51 --undefined-- 52.934
3.52 --undefined-- 57.455
3.53 147.900 63.382
3.54 149.506 67.197
3.55 149.519 68.901
3.56 149.428 69.185
3.57 148.834 68.703
3.58 148.070 68.036
3.59 147.458 67.335
3.60 144.827 66.904
3.61 146.478 68.066
3.62 150.173 69.819
3.63 151.041 70.750
3.64 151.489 71.044
3.65 151.794 71.110
3.66 151.688 71.035
3.67 151.111 70.810
3.68 299.813 70.453
3.69 296.073 69.980
3.70 291.811 69.299
3.71 284.995 68.143
3.72 273.725 66.317
3.73 258.241 64.294
3.74 243.417 63.022
3.75 230.756 62.536
3.76 219.465 63.190
3.77 195.629 64.814
3.78 185.631 66.062
3.79 177.910 66.496
3.80 174.663 66.223
3.81 171.762 65.619
3.82 170.480 65.168
3.83 170.793 64.975
3.84 171.342 64.979
3.85 172.501 65.121
3.86 174.186 65.313
3.87 178.599 65.687
3.88 182.542 66.625
3.89 190.608 67.620
3.90 197.891 67.546
3.91 200.926 65.622
3.92 200.673 61.274
3.93 198.722 54.920
3.94 197.756 52.122
3.95 --undefined-- 52.679
3.96 --undefined-- 51.883
3.97 --undefined-- 52.352
3.98 --undefined-- 53.608
3.99 --undefined-- 53.897
4.00 --undefined-- 57.859
4.01 --undefined-- 62.846
4.02 196.697 66.160
4.03 184.227 68.224
4.04 174.442 69.143
4.05 169.353 68.717
4.06 164.481 67.237
4.07 164.594 66.006
4.08 167.809 66.054
4.09 172.515 66.733
4.10 175.591 67.208
4.11 177.447 67.266
4.12 179.731 66.942
4.13 181.945 66.013
4.14 184.000 64.159
4.15 186.194 61.551
4.16 187.103 58.779
4.17 186.104 56.526
4.18 174.540 54.032
4.19 --undefined-- 51.418
4.20 --undefined-- 51.775
4.21 189.827 54.821
4.22 183.606 57.555
4.23 183.499 58.889
4.24 177.873 59.219
4.25 173.046 59.081
4.26 165.857 58.887
4.27 160.146 58.556
4.28 156.264 57.579
4.29 152.281 56.194
4.30 152.142 55.841
4.31 156.043 56.719
4.32 157.207 57.311
4.33 156.686 57.750
4.34 157.056 58.476
4.35 158.948 59.406
4.36 160.104 60.508
4.37 161.627 61.739
4.38 162.420 62.659
4.39 162.156 63.256
4.40 161.710 63.791
4.41 162.037 64.325
4.42 162.761 64.822
4.43 163.169 65.288
4.44 162.693 65.510
4.45 160.892 65.383
4.46 160.287 65.080
4.47 160.519 64.746
4.48 161.523 64.455
4.49 163.619 64.444
4.50 164.587 64.575
4.51 165.858 64.543
4.52 164.120 64.666
4.53 166.106 65.495
4.54 171.092 66.087
4.55 172.679 65.932
4.56 173.976 65.424
4.57 175.869 64.864
4.58 177.420 64.652
4.59 177.774 64.941
4.60 178.827 65.367
4.61 180.734 65.618
4.62 183.301 65.719
4.63 184.842 65.886
4.64 189.492 66.350
4.65 193.379 67.194
4.66 187.214 68.269
4.67 187.258 69.652
4.68 186.377 71.150
4.69 186.014 72.159
4.70 186.429 72.519
4.71 186.754 72.459
4.72 186.935 72.323
4.73 187.254 72.316
4.74 187.739 72.431
4.75 188.424 72.582
4.76 188.333 72.517
4.77 188.858 71.930
4.78 189.920 70.915
4.79 191.148 70.020
4.80 191.634 69.562
4.81 192.142 69.074
4.82 192.992 67.951
4.83 192.346 65.657
4.84 189.406 61.908
4.85 191.270 57.297
4.86 192.011 53.987
4.87 192.318 51.180
4.88 193.281 48.019
4.89 --undefined-- 46.495
4.90 --undefined-- 46.426
4.91 --undefined-- 47.737
4.92 --undefined-- 48.581
4.93 --undefined-- 48.237
4.94 --undefined-- 49.414
4.95 --undefined-- 52.244
4.96 --undefined-- 53.876
4.97 --undefined-- 53.681
4.98 --undefined-- --undefined--
4.99 --undefined-- --undefined--
5.00 --undefined-- --undefined--
5.01 --undefined-- --undefined--
