Time Pitch Intensity
0.01 --undefined-- --undefined--
0.02 187.241 --undefined--
0.03 190.097 --undefined--
0.04 193.008 --undefined--
0.05 196.706 72.107
0.06 199.509 71.335
0.07 202.782 70.683
0.08 206.092 70.505
0.09 207.591 70.670
0.10 206.585 70.876
0.11 203.394 70.917
0.12 196.572 70.827
0.13 190.179 70.987
0.14 --undefined-- 71.160
0.15 --undefined-- 70.588
0.16 --undefined-- 68.806
0.17 --undefined-- 66.652
0.18 --undefined-- 64.987
0.19 --undefined-- 62.354
0.20 --undefined-- 57.417
0.21 --undefined-- 51.347
0.22 --undefined-- 47.421
0.23 --undefined-- 45.564
0.24 --undefined-- 47.890
0.25 --undefined-- 52.375
0.26 --undefined-- 55.357
0.27 --undefined-- 56.763
0.28 203.683 57.640
0.29 202.682 58.387
0.30 204.626 59.763
0.31 244.060 62.407
0.32 241.531 64.929
0.33 229.645 66.387
0.34 217.571 67.214
0.35 214.673 67.916
0.36 212.930 68.260
0.37 212.559 68.155
0.38 213.315 68.029
0.39 213.584 68.021
0.40 214.211 67.602
0.41 215.882 66.686
0.42 216.753 65.421
0.43 215.153 63.360
0.44 215.468 61.400
0.45 --undefined-- 60.823
0.46 --undefined-- 59.891
0.47 --undefined-- 59.819
0.48 --undefined-- 59.767
0.49 256.345 57.985
0.50 253.826 60.134
0.51 262.639 64.307
0.52 269.802 66.872
0.53 275.143 68.216
0.54 272.682 68.633
0.55 274.120 68.485
0.56 276.695 68.357
0.57 277.373 68.417
0.58 278.620 68.613
0.59 280.317 68.915
0.60 282.462 69.130
0.61 284.679 69.284
0.62 286.677 70.030
0.63 286.512 71.140
0.64 283.423 71.334
0.65 278.426 70.358
0.66 273.779 68.944
0.67 272.565 67.710
0.68 267.881 66.502
0.69 263.234 65.964
0.70 263.879 66.470
0.71 267.347 67.729
0.72 278.176 69.913
0.73 280.755 71.524
0.74 286.306 71.659
0.75 --undefined-- 71.138
0.76 163.349 70.635
0.77 172.079 69.532
0.78 179.304 67.128
0.79 171.680 63.409
0.80 155.582 58.703
0.81 --undefined-- 53.420
0.82 --undefined-- 50.027
0.83 --undefined-- 49.097
0.84 --undefined-- 48.218
0.85 --undefined-- 48.824
0.86 --undefined-- 49.497
0.87 --undefined-- 49.304
0.88 --undefined-- 49.773
0.89 --undefined-- 49.764
0.90 --undefined-- 47.404
0.91 --undefined-- 44.517
0.92 --undefined-- 47.226
0.93 --undefined-- 52.171
0.94 --undefined-- 55.380
0.95 --undefined-- 56.144
0.96 --undefined-- 55.476
0.97 --undefined-- 58.527
0.98 210.368 62.873
0.99 207.427 65.373
1.00 207.593 66.350
1.01 210.913 66.016
1.02 219.124 64.610
1.03 235.844 63.369
1.04 243.955 63.194
1.05 259.888 63.756
1.06 268.727 64.697
1.07 280.429 65.796
1.08 286.585 66.983
1.09 287.100 67.779
1.10 279.884 67.718
1.11 261.922 67.405
1.12 248.689 67.552
1.13 238.242 67.379
1.14 207.851 67.008
1.15 200.016 66.812
1.16 198.785 65.958
1.17 199.141 63.734
1.18 196.592 59.722
1.19 198.578 54.111
1.20 198.777 49.410
1.21 --undefined-- 50.572
1.22 --undefined-- 58.296
1.23 262.269 64.689
1.24 261.136 67.980
1.25 260.565 68.945
1.26 261.971 68.765
1.27 263.490 68.044
1.28 263.601 66.874
1.29 261.491 65.491
1.30 263.100 64.877
1.31 262.121 65.109
1.32 254.472 65.379
1.33 245.896 65.394
1.34 235.152 65.118
1.35 223.060 64.729
1.36 211.051 64.320
1.37 199.408 64.227
1.38 189.241 65.382
1.39 177.433 66.861
1.40 173.088 67.206
1.41 159.956 66.966
1.42 155.399 67.100
1.43 152.443 67.074
1.44 152.177 66.316
1.45 155.892 64.904
1.46 157.811 63.282
1.47 158.333 61.982
1.48 157.750 61.375
1.49 158.380 61.243
1.50 159.459 60.966
1.51 164.213 60.413
1.52 167.063 60.182
1.53 167.756 60.122
1.54 171.121 60.106
1.55 183.955 60.710
1.56 195.415 61.514
1.57 196.998 61.234
1.58 197.534 59.399
1.59 192.272 55.814
1.60 --undefined-- 51.212
1.61 --undefined-- 47.959
1.62 --undefined-- 46.484
1.63 --undefined-- 47.575
1.64 --undefined-- 48.129
1.65 --undefined-- 49.789
1.66 --undefined-- 54.718
1.67 --undefined-- 57.942
1.68 --undefined-- 59.154
1.69 74.395 59.319
1.70 74.580 59.167
1.71 --undefined-- 58.565
1.72 77.772 57.595
1.73 79.933 56.663
1.74 --undefined-- 56.591
1.75 83.082 58.148
1.76 81.871 59.325
1.77 79.389 59.889
1.78 169.218 60.895
1.79 174.000 62.069
1.80 192.555 63.002
1.81 201.170 63.856
1.82 210.794 64.658
1.83 215.946 65.281
1.84 221.883 65.648
1.85 225.721 65.787
1.86 227.628 65.561
1.87 227.753 65.240
1.88 225.944 65.162
1.89 221.648 65.361
1.90 217.962 65.447
1.91 215.016 64.810
1.92 216.428 63.339
1.93 219.716 60.977
1.94 218.120 57.947
1.95 216.296 55.687
1.96 --undefined-- 53.767
1.97 --undefined-- 52.751
1.98 --undefined-- 54.048
1.99 --undefined-- 55.863
2.00 --undefined-- 57.383
2.01 --undefined-- 58.089
2.02 --undefined-- 57.145
2.03 --undefined-- 53.901
2.04 --undefined-- 51.938
2.05 --undefined-- 53.050
2.06 --undefined-- 53.392
2.07 --undefined-- 54.660
2.08 --undefined-- 57.310
2.09 --undefined-- 59.676
2.10 216.298 60.960
2.11 230.789 61.820
2.12 240.613 62.839
2.13 247.740 63.777
2.14 253.045 64.543
2.15 254.754 65.116
2.16 255.484 65.417
2.17 255.584 65.439
2.18 255.927 65.267
2.19 255.567 64.964
2.20 253.006 64.314
2.21 246.165 62.759
2.22 229.607 60.240
2.23 214.789 57.911
2.24 207.344 56.134
2.25 200.072 55.352
2.26 195.529 55.460
2.27 189.862 55.362
2.28 188.090 55.872
2.29 189.298 57.527
2.30 190.475 58.766
2.31 190.677 59.251
2.32 189.151 59.941
2.33 187.381 60.845
2.34 186.191 61.624
2.35 185.584 62.466
2.36 186.095 63.649
2.37 186.646 65.304
2.38 187.090 67.135
2.39 187.280 68.284
2.40 185.850 68.078
2.41 181.685 66.164
2.42 175.523 62.593
2.43 174.636 59.444
2.44 174.948 59.899
2.45 177.382 62.091
2.46 180.077 64.155
2.47 179.833 65.585
2.48 175.847 66.143
2.49 172.259 65.974
2.50 169.919 65.644
2.51 168.392 65.201
2.52 167.489 64.738
2.53 165.908 64.768
2.54 163.387 65.009
2.55 162.212 65.022
2.56 161.860 64.743
2.57 161.435 63.837
2.58 162.364 62.182
2.59 162.236 60.137
2.60 158.110 57.119
2.61 --undefined-- 52.850
2.62 --undefined-- 50.900
2.63 --undefined-- 51.788
2.64 --undefined-- 54.369
2.65 --undefined-- 56.987
2.66 --undefined-- 57.081
2.67 --undefined-- 55.241
2.68 --undefined-- 54.027
2.69 --undefined-- 52.407
2.70 --undefined-- 48.582
2.71 --undefined-- 45.671
2.72 --undefined-- 49.275
2.73 259.308 55.503
2.74 239.354 59.999
2.75 241.199 62.535
2.76 242.178 63.870
2.77 240.489 64.518
2.78 239.231 64.709
2.79 238.685 64.683
2.80 239.037 64.668
2.81 239.757 64.654
2.82 240.588 64.677
2.83 241.287 64.694
2.84 241.333 64.612
2.85 241.352 64.498
2.86 240.676 63.926
2.87 238.717 62.514
2.88 226.477 61.558
2.89 227.168 62.082
2.90 228.588 62.501
2.91 227.105 62.743
2.92 222.861 63.379
2.93 218.658 63.947
2.94 213.783 64.291
2.95 206.853 64.808
2.96 200.854 65.260
2.97 191.327 65.519
2.98 187.428 67.083
2.99 182.329 69.097
3.00 178.071 69.661
3.01 173.768 69.106
3.02 169.993 68.418
3.03 164.848 68.010
3.04 160.504 67.767
3.05 157.763 67.833
3.06 156.257 68.386
3.07 155.680 69.145
3.08 156.798 69.853
3.09 156.913 70.067
3.10 155.709 69.488
3.11 155.303 68.116
3.12 155.704 66.445
3.13 156.863 65.233
3.14 157.758 64.214
3.15 158.882 62.904
3.16 162.700 61.966
3.17 164.521 61.954
3.18 166.061 62.161
3.19 165.593 62.189
3.20 163.267 61.467
3.21 158.307 59.273
3.22 --undefined-- 56.166
3.23 --undefined-- 53.022
3.24 --undefined-- 53.686
3.25 186.804 59.274
3.26 190.582 64.107
3.27 189.767 67.515
3.28 186.385 69.768
3.29 185.432 70.826
3.30 184.342 70.831
3.31 184.384 70.531
3.32 186.329 70.397
3.33 188.084 70.370
3.34 189.853 70.347
3.35 190.960 70.483
3.36 190.587 71.002
3.37 187.357 71.568
3.38 182.168 71.393
3.39 --undefined-- 69.764
3.40 --undefined-- 66.509
3.41 --undefined-- 62.148
3.42 --undefined-- 58.089
3.43 --undefined-- 56.418
3.44 --undefined-- 53.984
3.45 --undefined-- 50.788
3.46 --undefined-- 53.688
3.47 --undefined-- 55.728
3.48 --undefined-- 55.360
3.49 --undefined-- 55.990
3.50 --undefined-- 56.435
3.51 --undefined-- 54.018
3.52 --undefined-- 50.275
3.53 --undefined-- 52.888
3.54 --undefined-- 55.291
3.55 --undefined-- 55.146
3.56 --undefined-- 55.702
3.57 --undefined-- 56.559
3.58 --undefined-- 54.596
3.59 --undefined-- 50.243
3.60 --undefined-- 47.682
3.61 --undefined-- 49.338
3.62 --undefined-- 52.469
3.63 --undefined-- 54.145
3.64 --undefined-- 53.650
3.65 --undefined-- 51.775
3.66 --undefined-- 51.787
3.67 --undefined-- 52.219
3.68 --undefined-- 50.903
3.69 --undefined-- 49.435
3.70 --undefined-- 50.296
3.71 --undefined-- 53.891
3.72 --undefined-- 56.489
3.73 --undefined-- 56.506
3.74 --undefined-- 53.960
3.75 --undefined-- 49.945
3.76 --undefined-- 48.292
3.77 --undefined-- 47.983
3.78 --undefined-- 46.593
3.79 --undefined-- 46.375
3.80 --undefined-- 50.989
3.81 --undefined-- 58.002
3.82 179.760 63.693
3.83 183.425 67.294
3.84 189.384 68.967
3.85 195.236 69.697
3.86 203.608 70.254
3.87 209.451 70.759
3.88 212.980 70.920
3.89 216.513 70.683
3.90 215.568 70.543
3.91 210.681 70.471
3.92 204.950 70.613
3.93 199.748 71.153
3.94 196.205 71.300
3.95 194.105 70.737
3.96 188.345 70.353
3.97 182.312 70.813
3.98 173.946 71.337
3.99 --undefined-- 71.503
4.00 299.807 71.640
4.01 278.637 71.785
4.02 264.578 71.455
4.03 250.413 70.330
4.04 243.696 68.638
4.05 218.427 66.948
4.06 201.941 65.733
4.07 188.323 64.385
4.08 --undefined-- 62.682
4.09 --undefined-- 60.861
4.10 --undefined-- 59.034
4.11 --undefined-- 56.251
4.12 --undefined-- 52.532
4.13 --undefined-- 51.308
4.14 --undefined-- 53.398
4.15 146.591 56.649
4.16 149.925 59.748
4.17 174.897 61.442
4.18 191.263 61.951
4.19 190.455 62.159
4.20 191.270 62.378
4.21 188.480 62.577
4.22 186.855 62.914
4.23 186.410 63.275
4.24 186.847 63.420
4.25 188.534 63.417
4.26 190.697 63.325
4.27 192.814 63.045
4.28 195.307 62.566
4.29 198.018 61.923
4.30 199.498 61.074
4.31 198.710 59.503
4.32 188.248 56.446
4.33 --undefined-- 52.735
4.34 --undefined-- 54.231
4.35 --undefined-- 58.505
4.36 239.299 61.504
4.37 238.063 63.206
4.38 232.413 64.209
4.39 221.738 65.074
4.40 206.029 66.183
4.41 197.947 67.181
4.42 194.496 67.393
4.43 194.147 67.287
4.44 195.404 67.904
4.45 196.513 68.505
4.46 197.686 67.868
4.47 198.462 67.122
4.48 199.067 66.673
4.49 200.004 65.486
4.50 200.179 64.363
4.51 199.571 63.905
4.52 200.276 63.748
4.53 198.638 63.736
4.54 196.525 63.743
4.55 195.093 63.801
4.56 195.298 63.928
4.57 198.142 64.347
4.58 201.528 65.486
4.59 192.008 66.601
4.60 191.462 67.205
4.61 191.018 67.497
4.62 190.438 67.661
4.63 190.428 67.642
4.64 190.250 67.412
4.65 190.473 67.098
4.66 191.530 66.706
4.67 193.282 66.096
4.68 194.460 65.187
4.69 195.390 64.302
4.70 197.611 63.719
4.71 201.584 63.529
4.72 206.007 63.609
4.73 209.486 63.568
4.74 211.432 62.804
4.75 212.568 60.477
4.76 212.526 56.566
4.77 --undefined-- 54.232
4.78 --undefined-- 54.969
4.79 --undefined-- 56.139
4.80 --undefined-- 58.224
4.81 142.484 62.833
4.82 155.887 66.616
4.83 169.466 68.827
4.84 174.904 70.598
4.85 176.221 72.740
4.86 177.214 74.182
4.87 176.987 74.127
4.88 176.354 72.123
4.89 176.581 67.648
4.90 176.037 61.175
4.91 176.454 55.551
4.92 176.958 53.654
4.93 --undefined-- 51.753
4.94 --undefined-- 50.371
4.95 --undefined-- 50.666
4.96 --undefined-- 49.612
4.97 --undefined-- 48.396
4.98 --undefined-- 50.218
4.99 --undefined-- 51.593
5.00 --undefined-- --undefined--
5.01 --undefined-- --undefined--
5.02 --undefined-- --undefined--
5.03 --undefined-- --undefined--
