Time Pitch Intensity
0.01 --undefined-- --undefined--
0.02 143.908 --undefined--
0.03 147.001 --undefined--
0.04 156.701 --undefined--
0.05 148.392 75.646
0.06 148.767 77.024
0.07 149.308 76.802
0.08 138.419 76.025
0.09 136.665 75.468
0.10 135.122 74.955
0.11 133.582 73.757
0.12 130.339 70.979
0.13 --undefined-- 65.690
0.14 --undefined-- 58.695
0.15 134.570 56.395
0.16 135.473 55.718
0.17 133.749 53.921
0.18 133.735 51.881
0.19 --undefined-- 49.296
0.20 --undefined-- 47.496
0.21 --undefined-- 49.234
0.22 --undefined-- 52.380
0.23 --undefined-- 54.864
0.24 --undefined-- 56.411
0.25 --undefined-- 57.798
0.26 --undefined-- 59.574
0.27 --undefined-- 60.566
0.28 --undefined-- 60.701
0.29 --undefined-- 61.005
0.30 --undefined-- 60.488
0.31 --undefined-- 59.492
0.32 --undefined-- 64.898
0.33 --undefined-- 71.907
0.34 --undefined-- 75.736
0.35 128.743 76.996
0.36 118.005 76.912
0.37 110.904 76.594
0.38 109.698 76.431
0.39 109.731 76.244
0.40 108.148 75.719
0.41 107.370 74.358
0.42 104.271 71.361
0.43 --undefined-- 66.009
0.44 --undefined-- 58.449
0.45 --undefined-- 52.778
0.46 --undefined-- 58.035
0.47 --undefined-- 67.091
0.48 119.833 73.177
0.49 120.006 76.285
0.50 121.309 77.056
0.51 119.614 76.514
0.52 117.651 75.903
0.53 118.562 76.095
0.54 117.138 76.491
0.55 112.474 76.234
0.56 109.894 75.033
0.57 104.091 73.117
0.58 100.980 71.042
0.59 98.261 68.459
0.60 97.730 64.330
0.61 --undefined-- 58.245
0.62 --undefined-- 52.688
0.63 --undefined-- 51.434
0.64 --undefined-- 53.054
0.65 --undefined-- 56.299
0.66 --undefined-- 58.667
0.67 --undefined-- 60.023
0.68 --undefined-- 60.986
0.69 --undefined-- 62.497
0.70 --undefined-- 64.453
0.71 263.146 65.416
0.72 265.713 64.907
0.73 --undefined-- 63.128
0.74 --undefined-- 61.042
0.75 --undefined-- 59.713
0.76 --undefined-- 58.541
0.77 --undefined-- 57.606
0.78 --undefined-- 57.438
0.79 --undefined-- 57.166
0.80 --undefined-- 56.493
0.81 --undefined-- 55.820
0.82 --undefined-- 55.417
0.83 --undefined-- 55.137
0.84 --undefined-- 55.153
0.85 --undefined-- 55.515
0.86 --undefined-- 55.213
0.87 --undefined-- 53.457
0.88 --undefined-- 50.024
0.89 --undefined-- 45.233
0.90 --undefined-- 42.153
0.91 --undefined-- 45.945
0.92 --undefined-- 48.858
0.93 --undefined-- 55.863
0.94 --undefined-- 66.439
0.95 --undefined-- 72.737
0.96 192.167 75.347
0.97 191.408 75.438
0.98 189.427 74.774
0.99 190.506 74.638
1.00 191.669 74.791
1.01 193.025 75.022
1.02 194.080 75.467
1.03 192.080 75.914
1.04 185.334 76.103
1.05 175.707 76.302
1.06 169.207 76.557
1.07 159.435 76.625
1.08 152.821 76.402
1.09 145.323 76.031
1.10 140.878 75.696
1.11 139.227 75.394
1.12 138.591 75.204
1.13 137.887 75.122
1.14 139.602 75.098
1.15 144.605 75.427
1.16 150.726 76.472
1.17 157.447 77.898
1.18 158.605 78.795
1.19 159.313 78.919
1.20 160.490 78.745
1.21 159.413 78.549
1.22 158.083 78.122
1.23 156.197 76.926
1.24 151.851 74.223
1.25 139.900 70.044
1.26 141.847 66.875
1.27 143.539 68.082
1.28 146.385 72.135
1.29 146.909 75.254
1.30 144.044 76.550
1.31 139.943 76.531
1.32 135.317 76.109
1.33 126.394 75.987
1.34 123.500 76.153
1.35 121.598 76.285
1.36 120.242 76.275
1.37 118.809 76.125
1.38 118.724 75.936
1.39 118.529 75.992
1.40 118.758 76.160
1.41 115.969 76.025
1.42 113.769 75.580
1.43 117.619 74.682
1.44 117.595 72.657
1.45 117.152 69.604
1.46 113.726 67.299
1.47 113.816 66.628
1.48 115.457 66.092
1.49 113.952 64.374
1.50 111.404 60.941
1.51 117.955 57.199
1.52 117.643 55.144
1.53 114.834 53.255
1.54 116.602 51.660
1.55 116.966 55.654
1.56 --undefined-- 65.783
1.57 --undefined-- 72.571
1.58 164.644 75.718
1.59 157.934 76.249
1.60 141.535 75.678
1.61 138.111 75.404
1.62 136.754 75.540
1.63 135.498 75.718
1.64 134.614 75.894
1.65 133.268 76.000
1.66 132.455 75.839
1.67 132.656 75.569
1.68 132.530 75.602
1.69 133.052 76.075
1.70 133.650 76.641
1.71 133.560 76.934
1.72 133.396 77.007
1.73 133.157 77.039
1.74 132.834 77.084
1.75 132.839 77.126
1.76 133.823 77.166
1.77 134.998 77.121
1.78 137.749 76.747
1.79 131.353 75.991
1.80 130.614 75.070
1.81 129.376 73.720
1.82 122.700 71.792
1.83 128.362 70.997
1.84 130.609 71.982
1.85 131.339 72.963
1.86 131.162 73.675
1.87 134.750 74.483
1.88 137.174 75.062
1.89 136.383 75.013
1.90 135.525 74.277
1.91 135.508 72.579
1.92 137.809 69.530
1.93 141.464 65.071
1.94 --undefined-- 61.408
1.95 --undefined-- 60.501
1.96 147.908 60.175
1.97 148.949 64.289
1.98 139.980 70.376
1.99 135.900 74.272
2.00 125.740 76.034
2.01 117.422 76.308
2.02 108.374 75.795
2.03 106.255 75.644
2.04 105.706 75.677
2.05 107.606 75.709
2.06 107.939 75.921
2.07 106.881 75.514
2.08 105.901 73.907
2.09 102.797 70.991
2.10 104.597 66.934
2.11 106.690 61.944
2.12 109.244 56.679
2.13 --undefined-- 52.388
2.14 --undefined-- 50.243
2.15 --undefined-- 49.345
2.16 --undefined-- 48.337
2.17 --undefined-- 48.888
2.18 --undefined-- 50.113
2.19 --undefined-- 51.343
2.20 --undefined-- 52.330
2.21 --undefined-- 52.943
2.22 --undefined-- 53.928
2.23 --undefined-- 58.168
2.24 --undefined-- 65.455
2.25 --undefined-- 70.677
2.26 128.533 73.545
2.27 123.271 74.964
2.28 121.918 75.652
2.29 120.782 75.878
2.30 118.582 75.950
2.31 117.122 76.053
2.32 114.692 76.160
2.33 112.965 76.320
2.34 111.405 76.481
2.35 110.379 76.577
2.36 108.913 76.599
2.37 107.707 76.555
2.38 106.423 76.437
2.39 105.185 76.234
2.40 105.084 76.075
2.41 104.474 76.050
2.42 102.984 75.919
2.43 101.685 75.628
2.44 100.017 75.378
2.45 99.173 75.211
2.46 98.675 75.239
2.47 99.084 75.602
2.48 99.901 76.143
2.49 100.888 76.633
2.50 102.034 76.970
2.51 103.197 77.043
2.52 103.846 76.705
2.53 103.002 75.648
2.54 100.376 73.415
2.55 98.589 69.631
2.56 --undefined-- 64.052
2.57 --undefined-- 58.006
2.58 --undefined-- 57.986
2.59 --undefined-- 61.755
2.60 --undefined-- 65.554
2.61 --undefined-- 68.321
2.62 --undefined-- 69.144
2.63 --undefined-- 69.015
2.64 --undefined-- 72.091
2.65 171.224 75.675
2.66 164.362 76.958
2.67 153.672 76.442
2.68 142.856 75.342
2.69 138.190 74.899
2.70 137.956 75.407
2.71 139.584 76.063
2.72 141.006 76.511
2.73 140.308 76.730
2.74 140.319 76.773
2.75 141.128 76.709
2.76 142.743 76.422
2.77 143.713 76.081
2.78 144.237 75.983
2.79 144.464 75.848
2.80 144.140 75.688
2.81 145.285 76.146
2.82 148.669 76.972
2.83 151.153 76.951
2.84 150.894 75.973
2.85 156.214 75.304
2.86 165.910 75.058
2.87 163.029 74.571
2.88 150.180 74.182
2.89 146.315 74.014
2.90 139.570 73.718
2.91 122.585 74.336
2.92 115.733 75.787
2.93 113.642 76.388
2.94 106.027 76.228
2.95 104.299 75.983
2.96 104.055 75.862
2.97 104.982 75.693
2.98 106.689 75.513
2.99 109.095 75.438
3.00 112.066 75.357
3.01 117.815 75.356
3.02 122.237 75.602
3.03 124.911 75.761
3.04 127.949 75.522
3.05 133.128 74.891
3.06 143.806 74.097
3.07 150.063 72.765
3.08 153.881 70.803
3.09 155.840 69.924
3.10 154.344 70.221
3.11 152.533 70.657
3.12 149.388 70.906
3.13 144.571 70.757
3.14 139.808 71.223
3.15 139.528 73.678
3.16 138.755 76.463
3.17 135.239 77.781
3.18 134.187 77.676
3.19 122.824 77.239
3.20 121.298 77.425
3.21 119.063 77.397
3.22 112.731 76.738
3.23 110.802 76.329
3.24 108.870 76.228
3.25 108.679 76.127
3.26 109.021 76.108
3.27 109.694 75.924
3.28 109.408 75.212
3.29 108.670 73.961
3.30 108.331 72.804
3.31 109.738 72.846
3.32 113.556 73.527
3.33 115.487 73.957
3.34 117.410 73.982
3.35 119.314 73.851
3.36 121.055 73.832
3.37 122.125 74.031
3.38 123.562 74.590
3.39 121.626 75.398
3.40 121.779 76.102
3.41 122.592 76.476
3.42 122.727 76.527
3.43 122.827 76.389
3.44 122.296 75.968
3.45 121.523 75.149
3.46 120.694 74.224
3.47 126.305 73.743
3.48 132.622 74.006
3.49 132.216 74.891
3.50 130.070 75.658
3.51 128.823 75.851
3.52 129.720 75.192
3.53 130.030 73.193
3.54 132.288 69.885
3.55 139.823 67.821
3.56 140.926 68.497
3.57 142.575 69.271
3.58 142.664 70.015
3.59 142.412 71.331
3.60 141.688 72.915
3.61 141.717 74.533
3.62 141.559 76.033
3.63 140.707 77.100
3.64 138.062 77.642
3.65 136.944 77.774
3.66 135.562 77.589
3.67 133.958 77.233
3.68 133.506 76.997
3.69 133.534 77.012
3.70 133.804 77.238
3.71 134.655 77.635
3.72 135.022 77.965
3.73 135.021 78.060
3.74 135.485 77.931
3.75 136.119 77.589
3.76 135.143 76.933
3.77 127.030 76.042
3.78 122.318 75.281
3.79 119.831 73.908
3.80 113.330 71.613
3.81 113.600 70.977
3.82 119.628 72.798
3.83 123.762 74.567
3.84 124.478 75.282
3.85 124.146 74.903
3.86 126.068 73.157
3.87 123.830 69.417
3.88 100.102 64.419
3.89 118.158 61.746
3.90 120.265 60.683
3.91 117.023 60.142
3.92 --undefined-- 61.003
3.93 --undefined-- 63.670
3.94 --undefined-- 66.865
3.95 --undefined-- 70.449
3.96 --undefined-- 74.331
3.97 152.450 76.543
3.98 149.755 76.656
3.99 133.500 75.849
4.00 131.596 75.310
4.01 130.712 75.128
4.02 131.378 75.158
4.03 131.637 75.348
4.04 131.405 75.515
4.05 131.824 75.514
4.06 133.901 75.552
4.07 133.463 75.866
4.08 132.989 76.367
4.09 133.438 76.827
4.10 133.921 77.109
4.11 134.180 77.233
4.12 134.492 77.300
4.13 134.844 77.375
4.14 135.210 77.466
4.15 135.302 77.471
4.16 134.971 77.296
4.17 134.175 77.062
4.18 133.169 76.789
4.19 131.797 76.296
4.20 129.652 75.484
4.21 127.013 74.536
4.22 124.367 73.789
4.23 122.188 73.356
4.24 120.725 73.589
4.25 122.605 75.045
4.26 127.744 76.559
4.27 122.476 77.027
4.28 121.774 76.678
4.29 99.714 75.990
4.30 100.157 75.238
4.31 93.651 74.508
4.32 96.294 74.040
4.33 93.502 74.214
4.34 93.914 74.704
4.35 95.441 75.076
4.36 97.486 75.327
4.37 100.344 75.670
4.38 104.996 75.999
4.39 112.285 76.300
4.40 116.757 76.723
4.41 117.937 76.895
4.42 119.781 76.874
4.43 123.186 76.914
4.44 124.576 76.982
4.45 124.623 76.972
4.46 124.597 76.511
4.47 125.858 75.226
4.48 147.577 73.375
4.49 135.514 71.794
4.50 134.567 72.353
4.51 138.146 74.764
4.52 135.464 75.734
4.53 135.072 75.127
4.54 120.119 74.898
4.55 116.809 75.545
4.56 111.304 75.834
4.57 110.083 75.677
4.58 108.450 75.553
4.59 109.623 75.461
4.60 110.730 75.254
4.61 113.765 75.048
4.62 114.305 74.739
4.63 114.826 74.335
4.64 117.578 74.559
4.65 119.524 75.332
4.66 120.653 75.983
4.67 121.666 76.509
4.68 122.418 77.137
4.69 122.187 77.659
4.70 121.360 77.561
4.71 120.231 76.201
4.72 119.737 73.122
4.73 120.812 68.577
4.74 120.796 63.492
4.75 119.752 59.656
4.76 121.610 58.962
4.77 121.142 60.209
4.78 121.041 67.085
4.79 --undefined-- 73.145
4.80 156.757 75.874
4.81 145.208 76.306
4.82 140.678 76.073
4.83 138.676 76.060
4.84 138.584 76.185
4.85 139.334 76.459
4.86 139.396 76.557
4.87 138.832 76.171
4.88 137.985 75.466
4.89 137.770 74.991
4.90 138.188 74.994
4.91 137.702 75.036
4.92 136.070 75.017
4.93 135.011 75.299
4.94 134.996 --undefined--
4.95 133.576 --undefined--
4.96 --undefined-- --undefined--
4.97 --undefined-- --undefined--
