Time Pitch Intensity
0.01 --undefined-- --undefined--
0.02 136.618 --undefined--
0.03 133.575 --undefined--
0.04 127.715 --undefined--
0.05 120.208 66.860
0.06 119.711 64.695
0.07 111.989 62.712
0.08 107.453 61.960
0.09 112.593 62.418
0.10 122.096 63.847
0.11 123.094 66.655
0.12 125.807 69.550
0.13 125.083 71.525
0.14 116.014 72.700
0.15 115.831 73.524
0.16 114.283 74.338
0.17 113.265 75.073
0.18 112.429 75.441
0.19 112.522 75.491
0.20 112.973 75.331
0.21 113.877 75.002
0.22 114.897 74.700
0.23 116.382 74.447
0.24 116.140 73.971
0.25 117.042 72.863
0.26 115.714 70.679
0.27 111.262 67.742
0.28 113.495 65.594
0.29 117.588 64.049
0.30 118.951 61.567
0.31 114.156 57.991
0.32 114.008 55.998
0.33 114.420 58.682
0.34 --undefined-- 63.654
0.35 --undefined-- 69.730
0.36 145.299 73.650
0.37 137.766 75.046
0.38 129.814 75.202
0.39 128.040 75.700
0.40 127.058 76.470
0.41 125.943 77.003
0.42 125.331 77.249
0.43 125.212 77.288
0.44 125.232 77.185
0.45 124.717 76.987
0.46 124.365 76.871
0.47 124.347 76.852
0.48 124.324 76.732
0.49 123.858 76.339
0.50 122.393 75.238
0.51 120.810 72.834
0.52 123.427 69.995
0.53 127.643 69.841
0.54 127.195 70.704
0.55 125.454 70.780
0.56 125.888 70.397
0.57 126.567 69.922
0.58 126.978 69.610
0.59 127.914 69.706
0.60 129.835 70.127
0.61 131.462 70.726
0.62 132.828 71.498
0.63 133.050 72.290
0.64 130.679 72.795
0.65 128.223 73.061
0.66 127.456 73.313
0.67 127.712 73.507
0.68 127.810 73.513
0.69 127.701 73.418
0.70 127.070 73.280
0.71 126.505 73.148
0.72 127.445 73.312
0.73 128.226 73.930
0.74 128.910 74.608
0.75 129.230 75.009
0.76 130.105 75.266
0.77 130.954 75.463
0.78 131.903 75.320
0.79 132.207 74.142
0.80 128.844 71.000
0.81 128.419 65.213
0.82 129.559 57.156
0.83 129.131 52.104
0.84 132.670 51.675
0.85 131.773 52.881
0.86 --undefined-- 56.798
0.87 --undefined-- 64.455
0.88 --undefined-- 70.978
0.89 175.904 74.315
0.90 173.472 75.104
0.91 171.184 75.026
0.92 168.893 75.375
0.93 167.367 75.950
0.94 167.391 76.310
0.95 167.627 76.361
0.96 167.858 76.093
0.97 167.838 75.452
0.98 166.667 74.569
0.99 164.317 73.408
1.00 162.003 71.231
1.01 163.524 67.718
1.02 163.503 64.000
1.03 164.779 60.698
1.04 167.460 61.392
1.05 --undefined-- 66.096
1.06 --undefined-- 67.716
1.07 --undefined-- 66.191
1.08 --undefined-- 65.420
1.09 159.591 70.081
1.10 155.511 73.654
1.11 149.045 75.325
1.12 133.390 75.822
1.13 123.922 75.528
1.14 119.883 74.245
1.15 116.911 71.171
1.16 101.147 65.828
1.17 122.088 60.056
1.18 121.095 56.884
1.19 120.394 53.406
1.20 --undefined-- 48.795
1.21 --undefined-- 46.786
1.22 --undefined-- 47.148
1.23 --undefined-- 46.434
1.24 --undefined-- 44.104
1.25 --undefined-- 42.880
1.26 --undefined-- 44.733
1.27 --undefined-- 45.997
1.28 --undefined-- 46.373
1.29 --undefined-- 45.387
1.30 --undefined-- 43.281
1.31 --undefined-- 44.406
1.32 --undefined-- 52.151
1.33 --undefined-- 58.588
1.34 --undefined-- 61.570
1.35 --undefined-- 62.402
1.36 123.830 63.108
1.37 123.082 63.700
1.38 128.196 63.769
1.39 136.208 64.360
1.40 138.349 66.532
1.41 139.227 68.578
1.42 127.079 69.719
1.43 125.147 70.546
1.44 123.786 71.435
1.45 123.538 72.216
1.46 122.890 72.872
1.47 122.614 73.423
1.48 122.481 73.834
1.49 121.746 74.219
1.50 121.198 74.618
1.51 121.605 75.193
1.52 122.074 75.705
1.53 123.861 75.332
1.54 125.497 73.671
1.55 122.369 70.363
1.56 122.297 64.955
1.57 123.625 58.904
1.58 118.553 58.629
1.59 --undefined-- 64.937
1.60 --undefined-- 70.659
1.61 131.881 73.325
1.62 116.473 73.435
1.63 106.194 72.176
1.64 97.218 70.754
1.65 90.854 69.841
1.66 93.308 69.477
1.67 95.281 69.808
1.68 96.820 70.660
1.69 99.139 71.405
1.70 99.844 71.801
1.71 100.095 71.892
1.72 101.205 72.030
1.73 101.665 72.505
1.74 102.429 73.190
1.75 102.163 73.906
1.76 100.844 74.558
1.77 100.324 74.792
1.78 98.441 74.404
1.79 96.326 73.756
1.80 96.916 73.145
1.81 95.264 72.332
1.82 92.492 71.106
1.83 94.655 69.764
1.84 95.451 68.811
1.85 98.254 68.805
1.86 100.281 69.611
1.87 100.501 70.413
1.88 105.161 70.497
1.89 112.127 69.452
1.90 115.502 67.312
1.91 116.142 65.303
1.92 118.413 66.416
1.93 125.269 69.739
1.94 125.207 72.109
1.95 122.487 73.101
1.96 120.579 73.457
1.97 115.766 73.804
1.98 112.952 74.123
1.99 108.627 73.904
2.00 107.073 72.385
2.01 111.460 68.851
2.02 117.423 63.268
2.03 120.771 57.184
2.04 122.166 53.365
2.05 --undefined-- 49.992
2.06 --undefined-- 47.135
2.07 --undefined-- 45.593
2.08 --undefined-- 44.301
2.09 --undefined-- 42.956
2.10 --undefined-- 42.297
2.11 --undefined-- 43.302
2.12 --undefined-- 44.585
2.13 --undefined-- 44.251
2.14 --undefined-- 42.382
2.15 --undefined-- 42.259
2.16 --undefined-- 45.721
2.17 --undefined-- 54.057
2.18 --undefined-- 62.039
2.19 114.611 67.232
2.20 113.981 70.455
2.21 111.652 72.591
2.22 108.877 74.151
2.23 108.466 75.317
2.24 108.625 76.026
2.25 113.522 76.239
2.26 118.571 76.096
2.27 124.648 75.853
2.28 130.728 75.495
2.29 137.684 74.789
2.30 140.465 74.221
2.31 154.069 74.092
2.32 161.148 73.135
2.33 158.637 70.469
2.34 159.401 66.347
2.35 162.065 61.560
2.36 160.764 56.245
2.37 --undefined-- 51.435
2.38 --undefined-- 50.042
2.39 --undefined-- 50.078
2.40 --undefined-- 48.844
2.41 --undefined-- 47.001
2.42 --undefined-- 46.260
2.43 --undefined-- 46.132
2.44 --undefined-- 46.552
2.45 --undefined-- 47.513
2.46 --undefined-- 48.679
2.47 --undefined-- 50.205
2.48 --undefined-- 50.888
2.49 --undefined-- 57.740
2.50 161.692 65.561
2.51 149.543 70.157
2.52 137.451 72.272
2.53 135.142 72.950
2.54 133.306 73.087
2.55 130.861 73.196
2.56 129.250 73.319
2.57 128.316 73.263
2.58 127.475 73.106
2.59 127.359 73.030
2.60 126.143 72.938
2.61 125.148 72.753
2.62 125.517 72.493
2.63 125.313 71.888
2.64 124.045 70.312
2.65 119.806 67.248
2.66 117.090 62.943
2.67 133.595 58.718
2.68 132.402 56.261
2.69 --undefined-- 59.069
2.70 --undefined-- 64.121
2.71 --undefined-- 69.448
2.72 --undefined-- 73.292
2.73 139.529 74.788
2.74 134.442 74.891
2.75 128.643 74.707
2.76 126.622 74.647
2.77 122.603 74.510
2.78 117.009 74.215
2.79 114.328 74.032
2.80 113.625 74.043
2.81 113.837 74.377
2.82 114.712 74.863
2.83 116.064 75.159
2.84 117.343 75.370
2.85 117.439 75.612
2.86 119.393 75.946
2.87 119.941 76.190
2.88 119.874 75.831
2.89 120.643 74.777
2.90 121.725 73.706
2.91 122.013 72.990
2.92 121.172 71.800
2.93 118.939 69.193
2.94 116.298 65.044
2.95 115.391 61.000
2.96 117.238 59.354
2.97 116.376 58.596
2.98 116.228 57.367
2.99 116.465 56.122
3.00 119.966 57.094
3.01 --undefined-- 64.282
3.02 --undefined-- 70.906
3.03 127.116 74.385
3.04 123.930 75.476
3.05 116.565 75.514
3.06 109.270 75.450
3.07 106.383 75.259
3.08 103.971 75.011
3.09 102.713 75.033
3.10 101.632 75.220
3.11 102.133 75.339
3.12 103.472 75.250
3.13 102.725 74.746
3.14 104.083 73.830
3.15 102.799 72.623
3.16 96.645 70.523
3.17 94.121 66.729
3.18 86.524 62.027
3.19 --undefined-- 58.389
3.20 --undefined-- 55.227
3.21 --undefined-- 53.189
3.22 --undefined-- 51.508
3.23 --undefined-- 49.653
3.24 --undefined-- 48.910
3.25 --undefined-- 48.661
3.26 --undefined-- 48.653
3.27 --undefined-- 48.721
3.28 --undefined-- 48.391
3.29 --undefined-- 47.454
3.30 --undefined-- 46.073
3.31 --undefined-- 45.060
3.32 --undefined-- 45.724
3.33 --undefined-- 49.467
3.34 --undefined-- 60.161
3.35 200.780 68.537
3.36 189.961 73.160
3.37 181.507 75.123
3.38 176.254 75.745
3.39 171.489 76.142
3.40 168.358 76.644
3.41 166.968 77.033
3.42 165.349 77.239
3.43 164.875 77.365
3.44 165.240 77.313
3.45 165.715 77.010
3.46 167.138 76.512
3.47 169.704 75.852
3.48 171.555 75.052
3.49 171.681 74.304
3.50 171.624 73.877
3.51 171.313 73.912
3.52 170.643 74.519
3.53 169.352 75.584
3.54 167.469 76.589
3.55 164.802 77.033
3.56 161.286 76.697
3.57 156.939 75.846
3.58 152.634 75.272
3.59 149.630 75.395
3.60 145.411 75.629
3.61 140.020 75.363
3.62 133.799 74.530
3.63 126.898 74.444
3.64 127.388 75.702
3.65 125.037 76.227
3.66 117.922 75.454
3.67 111.500 74.731
3.68 110.480 75.039
3.69 110.325 75.593
3.70 108.852 76.029
3.71 108.444 76.254
3.72 107.167 76.147
3.73 106.706 75.686
3.74 106.286 75.074
3.75 107.718 74.635
3.76 108.887 74.582
3.77 109.966 74.763
3.78 110.272 74.771
3.79 109.872 74.397
3.80 109.315 73.897
3.81 111.925 74.004
3.82 115.641 74.941
3.83 120.204 76.095
3.84 123.119 76.818
3.85 124.351 76.952
3.86 124.654 76.727
3.87 126.081 76.391
3.88 127.299 76.019
3.89 128.464 75.718
3.90 128.737 75.698
3.91 127.370 75.641
3.92 124.984 74.810
3.93 122.233 72.448
3.94 122.691 67.994
3.95 124.917 61.861
3.96 124.758 56.604
3.97 126.235 53.557
3.98 126.186 56.110
3.99 --undefined-- 64.697
4.00 --undefined-- 70.791
4.01 125.036 73.987
4.02 119.501 75.047
4.03 113.197 74.641
4.04 109.268 73.714
4.05 108.260 72.853
4.06 109.666 72.476
4.07 110.226 72.837
4.08 109.471 73.837
4.09 108.829 74.997
4.10 105.938 75.616
4.11 105.651 75.561
4.12 104.474 75.332
4.13 102.649 75.150
4.14 102.454 74.822
4.15 102.030 74.497
4.16 102.236 74.376
4.17 102.805 74.433
4.18 103.631 74.591
4.19 104.984 74.834
4.20 105.249 75.233
4.21 104.366 75.468
4.22 104.096 75.531
4.23 106.783 75.834
4.24 109.699 76.132
4.25 114.386 76.339
4.26 116.292 76.419
4.27 117.683 76.435
4.28 119.121 76.444
4.29 120.266 76.213
4.30 121.357 75.897
4.31 120.330 75.257
4.32 116.941 73.711
4.33 87.050 71.299
4.34 117.679 68.223
4.35 118.259 63.495
4.36 116.571 58.046
4.37 117.943 54.865
4.38 119.832 52.592
4.39 120.159 52.140
4.40 119.672 52.946
4.41 119.567 53.303
4.42 117.477 52.954
4.43 --undefined-- 51.852
4.44 --undefined-- 51.033
4.45 --undefined-- 50.797
4.46 --undefined-- 51.519
4.47 --undefined-- 52.561
4.48 --undefined-- 52.799
4.49 --undefined-- 52.529
4.50 --undefined-- 52.231
4.51 --undefined-- 52.138
4.52 --undefined-- 51.722
4.53 --undefined-- 50.602
4.54 --undefined-- 50.018
4.55 --undefined-- 50.084
4.56 --undefined-- 49.879
4.57 --undefined-- 49.654
4.58 --undefined-- 49.525
4.59 --undefined-- 49.174
4.60 --undefined-- 48.621
4.61 --undefined-- 48.494
4.62 --undefined-- 48.460
4.63 --undefined-- 48.072
4.64 --undefined-- 47.089
4.65 --undefined-- 46.431
4.66 --undefined-- 46.659
4.67 --undefined-- 46.185
4.68 --undefined-- 45.090
4.69 --undefined-- 44.235
4.70 --undefined-- 43.427
4.71 --undefined-- 42.065
4.72 --undefined-- 41.604
4.73 --undefined-- 43.320
4.74 --undefined-- 46.750
4.75 --undefined-- 51.220
4.76 --undefined-- 57.493
4.77 --undefined-- 65.944
4.78 169.056 71.658
4.79 169.786 74.314
4.80 177.612 74.911
4.81 190.787 74.862
4.82 208.908 75.274
4.83 220.651 75.816
4.84 230.457 75.705
4.85 242.961 75.048
4.86 248.979 74.525
4.87 251.918 74.195
4.88 252.468 73.867
4.89 253.638 73.750
4.90 252.517 73.915
4.91 250.208 74.047
4.92 248.122 74.028
4.93 242.226 73.905
4.94 235.056 73.531
4.95 228.310 72.512
4.96 221.049 71.255
4.97 219.009 72.202
4.98 221.670 75.041
4.99 220.399 76.591
5.00 208.385 76.234
5.01 185.188 75.256
5.02 171.711 74.496
5.03 158.270 73.313
5.04 151.776 72.262
5.05 148.174 72.259
5.06 147.389 72.842
5.07 146.608 72.822
5.08 142.471 71.354
5.09 141.550 69.452
5.10 150.952 70.793
5.11 151.650 73.249
5.12 151.646 74.625
5.13 152.204 75.230
5.14 152.148 75.533
5.15 151.211 75.636
5.16 150.124 75.596
5.17 149.298 75.555
5.18 148.780 75.458
5.19 148.140 75.216
5.20 147.485 74.968
5.21 146.460 --undefined--
5.22 145.746 --undefined--
5.23 --undefined-- --undefined--
5.24 --undefined-- --undefined--
