Time Pitch Intensity
0.01 --undefined-- --undefined--
0.02 232.977 --undefined--
0.03 241.591 --undefined--
0.04 249.679 --undefined--
0.05 254.364 64.785
0.06 255.968 62.894
0.07 252.658 58.991
0.08 250.099 52.830
0.09 --undefined-- 47.180
0.10 --undefined-- 45.575
0.11 --undefined-- 47.732
0.12 --undefined-- 56.061
0.13 223.214 63.170
0.14 222.204 67.000
0.15 218.704 68.485
0.16 214.961 68.840
0.17 214.168 68.912
0.18 213.651 68.507
0.19 209.833 67.588
0.20 209.286 66.785
0.21 209.119 66.383
0.22 208.798 66.075
0.23 205.034 65.562
0.24 204.039 64.984
0.25 200.288 64.497
0.26 201.488 64.172
0.27 200.442 63.834
0.28 199.435 63.519
0.29 200.813 63.405
0.30 203.631 63.515
0.31 211.203 64.033
0.32 208.544 64.727
0.33 206.272 65.303
0.34 204.104 66.066
0.35 201.481 67.121
0.36 198.578 68.305
0.37 195.956 69.429
0.38 193.487 70.265
0.39 191.073 70.581
0.40 188.615 70.445
0.41 184.211 69.737
0.42 --undefined-- 68.481
0.43 --undefined-- 66.827
0.44 --undefined-- 64.219
0.45 --undefined-- 60.569
0.46 --undefined-- 56.305
0.47 --undefined-- 53.529
0.48 --undefined-- 52.419
0.49 --undefined-- 49.650
0.50 --undefined-- 47.454
0.51 --undefined-- 48.051
0.52 --undefined-- 49.787
0.53 --undefined-- 51.744
0.54 --undefined-- 52.902
0.55 --undefined-- 52.266
0.56 --undefined-- 49.894
0.57 --undefined-- 47.870
0.58 --undefined-- 47.540
0.59 --undefined-- 47.410
0.60 --undefined-- 48.000
0.61 --undefined-- 49.674
0.62 --undefined-- 49.814
0.63 --undefined-- 49.129
0.64 --undefined-- 49.464
0.65 --undefined-- 49.254
0.66 --undefined-- 48.743
0.67 --undefined-- 49.695
0.68 --undefined-- 51.055
0.69 --undefined-- 50.372
0.70 --undefined-- 48.057
0.71 --undefined-- 47.121
0.72 --undefined-- 46.061
0.73 --undefined-- 43.422
0.74 --undefined-- 44.854
0.75 --undefined-- 49.220
0.76 --undefined-- 50.485
0.77 --undefined-- 48.903
0.78 --undefined-- 47.983
0.79 --undefined-- 47.179
0.80 --undefined-- 44.830
0.81 --undefined-- 47.363
0.82 --undefined-- 50.885
0.83 --undefined-- 55.326
0.84 --undefined-- 63.194
0.85 160.701 68.627
0.86 159.299 71.273
0.87 159.885 72.076
0.88 161.230 72.019
0.89 163.256 71.859
0.90 165.481 71.863
0.91 167.572 71.880
0.92 169.598 71.828
0.93 171.547 71.711
0.94 173.130 71.387
0.95 174.063 70.924
0.96 174.016 70.488
0.97 173.549 69.661
0.98 172.963 67.917
0.99 166.400 65.241
1.00 152.505 61.889
1.01 169.938 57.453
1.02 172.098 52.223
1.03 171.650 48.791
1.04 173.532 47.775
1.05 --undefined-- 48.861
1.06 --undefined-- 50.141
1.07 --undefined-- 49.277
1.08 --undefined-- 46.052
1.09 --undefined-- 47.330
1.10 --undefined-- 51.149
1.11 --undefined-- 54.056
1.12 --undefined-- 57.115
1.13 --undefined-- 59.269
1.14 --undefined-- 60.290
1.15 --undefined-- 60.254
1.16 --undefined-- 60.690
1.17 183.448 64.365
1.18 189.425 67.966
1.19 192.532 70.004
1.20 196.334 70.828
1.21 198.436 70.884
1.22 199.430 70.711
1.23 199.205 70.580
1.24 197.680 70.322
1.25 194.799 69.704
1.26 189.702 68.066
1.27 --undefined-- 64.449
1.28 --undefined-- 58.782
1.29 --undefined-- 53.164
1.30 --undefined-- 48.346
1.31 --undefined-- 45.777
1.32 --undefined-- 45.547
1.33 --undefined-- 44.802
1.34 --undefined-- 45.894
1.35 --undefined-- 49.065
1.36 --undefined-- 49.659
1.37 --undefined-- 47.474
1.38 --undefined-- 45.183
1.39 --undefined-- 46.248
1.40 --undefined-- 46.900
1.41 --undefined-- 47.586
1.42 --undefined-- 53.990
1.43 --undefined-- 61.410
1.44 251.040 65.784
1.45 242.567 67.133
1.46 235.162 66.750
1.47 231.970 66.135
1.48 229.787 65.771
1.49 227.566 65.636
1.50 226.070 65.512
1.51 225.280 65.273
1.52 226.313 64.845
1.53 227.066 64.204
1.54 225.133 63.456
1.55 219.730 62.561
1.56 --undefined-- 61.004
1.57 --undefined-- 58.639
1.58 --undefined-- 56.343
1.59 --undefined-- 54.552
1.60 --undefined-- 53.554
1.61 --undefined-- 51.934
1.62 --undefined-- 50.593
1.63 --undefined-- 51.212
1.64 --undefined-- 51.981
1.65 --undefined-- 51.632
1.66 --undefined-- 50.870
1.67 --undefined-- 52.266
1.68 --undefined-- 56.647
1.69 --undefined-- 59.873
1.70 --undefined-- 62.451
1.71 --undefined-- 66.002
1.72 --undefined-- 69.186
1.73 --undefined-- 70.476
1.74 --undefined-- 69.276
1.75 189.475 67.675
1.76 185.123 68.005
1.77 181.492 68.585
1.78 180.058 68.359
1.79 179.993 67.832
1.80 180.410 67.861
1.81 180.766 66.991
1.82 180.325 65.189
1.83 180.341 64.439
1.84 182.056 64.983
1.85 184.777 65.710
1.86 186.693 66.094
1.87 188.652 66.284
1.88 190.239 66.364
1.89 191.766 65.910
1.90 191.011 64.086
1.91 185.228 60.096
1.92 185.231 54.062
1.93 --undefined-- 48.096
1.94 --undefined-- 46.594
1.95 --undefined-- 49.232
1.96 --undefined-- 50.881
1.97 --undefined-- 53.142
1.98 --undefined-- 59.456
1.99 260.952 65.370
2.00 255.851 68.153
2.01 254.644 68.149
2.02 254.160 66.949
2.03 256.038 66.260
2.04 263.482 66.161
2.05 270.117 66.206
2.06 273.576 66.222
2.07 276.441 66.417
2.08 276.129 66.696
2.09 273.959 66.754
2.10 271.406 66.630
2.11 266.718 66.440
2.12 260.313 65.926
2.13 252.041 65.254
2.14 239.975 65.046
2.15 232.047 64.612
2.16 206.131 63.492
2.17 181.099 63.252
2.18 175.531 64.183
2.19 169.455 64.489
2.20 165.136 63.843
2.21 162.164 62.838
2.22 160.936 61.816
2.23 161.040 60.826
2.24 159.731 59.874
2.25 156.713 58.744
2.26 149.978 57.909
2.27 150.187 58.063
2.28 149.935 58.379
2.29 150.054 58.309
2.30 150.460 58.058
2.31 150.669 58.078
2.32 151.258 58.468
2.33 152.699 58.805
2.34 154.840 59.201
2.35 156.881 59.605
2.36 159.534 59.856
2.37 162.117 59.775
2.38 163.451 59.399
2.39 164.312 59.237
2.40 168.618 59.967
2.41 168.849 61.307
2.42 171.313 62.398
2.43 171.733 62.996
2.44 172.591 63.082
2.45 174.102 62.845
2.46 176.433 62.729
2.47 178.982 63.036
2.48 179.909 63.099
2.49 178.500 61.891
2.50 174.554 58.856
2.51 --undefined-- 54.251
2.52 --undefined-- 50.631
2.53 --undefined-- 49.396
2.54 --undefined-- 49.292
2.55 --undefined-- 48.007
2.56 --undefined-- 45.069
2.57 --undefined-- 44.532
2.58 --undefined-- 45.590
2.59 --undefined-- 47.356
2.60 --undefined-- 48.111
2.61 --undefined-- 47.865
2.62 --undefined-- 47.733
2.63 --undefined-- 46.305
2.64 --undefined-- 45.763
2.65 --undefined-- 48.966
2.66 --undefined-- 50.506
2.67 --undefined-- 49.569
2.68 --undefined-- 46.729
2.69 --undefined-- 46.688
2.70 --undefined-- 54.941
2.71 258.242 63.007
2.72 250.812 68.207
2.73 248.075 70.780
2.74 245.395 71.456
2.75 244.453 71.057
2.76 245.292 70.071
2.77 247.243 69.047
2.78 248.986 68.441
2.79 249.514 68.055
2.80 250.062 67.691
2.81 250.245 67.451
2.82 249.838 67.323
2.83 250.070 67.183
2.84 249.125 67.016
2.85 247.640 66.769
2.86 246.327 66.410
2.87 246.301 65.980
2.88 246.326 65.560
2.89 245.801 65.282
2.90 244.545 65.125
2.91 243.261 64.957
2.92 239.997 64.817
2.93 236.096 64.862
2.94 232.384 64.855
2.95 229.562 64.404
2.96 225.714 63.580
2.97 220.807 63.608
2.98 219.689 65.314
2.99 216.823 66.632
3.00 204.996 67.126
3.01 194.654 67.905
3.02 187.143 68.400
3.03 169.246 68.239
3.04 164.910 67.938
3.05 161.373 67.130
3.06 161.443 65.626
3.07 162.862 63.712
3.08 163.674 60.937
3.09 161.741 56.859
3.10 --undefined-- 52.169
3.11 --undefined-- 49.476
3.12 --undefined-- 48.964
3.13 --undefined-- 50.176
3.14 --undefined-- 52.776
3.15 --undefined-- 53.202
3.16 --undefined-- 52.617
3.17 --undefined-- 53.959
3.18 --undefined-- 55.630
3.19 --undefined-- 55.078
3.20 --undefined-- 51.916
3.21 --undefined-- 47.549
3.22 --undefined-- 44.679
3.23 --undefined-- 43.514
3.24 --undefined-- 45.184
3.25 --undefined-- 48.300
3.26 --undefined-- 49.340
3.27 --undefined-- 50.230
3.28 --undefined-- 57.325
3.29 --undefined-- 63.288
3.30 --undefined-- 66.251
3.31 167.082 67.241
3.32 164.350 67.387
3.33 163.026 67.153
3.34 162.761 66.602
3.35 162.100 66.161
3.36 160.598 66.282
3.37 159.147 66.840
3.38 158.900 67.361
3.39 159.233 67.422
3.40 160.524 66.833
3.41 162.261 65.768
3.42 163.385 64.877
3.43 163.731 64.397
3.44 163.497 63.997
3.45 164.595 63.520
3.46 165.526 62.576
3.47 166.130 60.606
3.48 164.378 57.684
3.49 --undefined-- 55.197
3.50 --undefined-- 52.922
3.51 --undefined-- 51.599
3.52 --undefined-- 53.620
3.53 --undefined-- 55.471
3.54 --undefined-- 57.036
3.55 --undefined-- 58.028
3.56 248.086 60.801
3.57 237.072 64.716
3.58 232.908 67.241
3.59 232.534 68.194
3.60 232.609 68.090
3.61 234.324 67.775
3.62 235.826 67.510
3.63 237.093 67.099
3.64 238.368 66.653
3.65 239.150 66.344
3.66 239.055 66.064
3.67 239.109 65.726
3.68 238.558 65.375
3.69 238.177 64.827
3.70 236.181 63.686
3.71 232.678 61.496
3.72 227.204 57.925
3.73 --undefined-- 53.671
3.74 --undefined-- 50.960
3.75 --undefined-- 50.702
3.76 --undefined-- 51.649
3.77 --undefined-- 53.872
3.78 --undefined-- 55.758
3.79 --undefined-- 55.848
3.80 --undefined-- 55.838
3.81 --undefined-- 59.284
3.82 210.368 62.405
3.83 198.275 63.944
3.84 192.485 64.672
3.85 187.244 65.004
3.86 185.377 64.970
3.87 183.796 64.613
3.88 182.259 64.121
3.89 180.478 63.702
3.90 179.235 63.407
3.91 179.930 63.200
3.92 179.671 63.049
3.93 179.895 62.938
3.94 180.661 62.609
3.95 181.050 61.948
3.96 179.771 60.986
3.97 179.985 60.030
3.98 181.344 59.713
3.99 182.479 60.048
4.00 188.289 60.837
4.01 195.210 61.353
4.02 199.779 61.141
4.03 203.916 60.355
4.04 204.275 59.747
4.05 204.029 59.566
4.06 196.210 59.853
4.07 179.278 61.713
4.08 173.099 65.162
4.09 170.140 68.087
4.10 165.818 69.718
4.11 164.460 70.406
4.12 164.471 70.582
4.13 164.145 70.296
4.14 164.088 69.464
4.15 163.720 68.404
4.16 164.087 67.658
4.17 164.701 67.503
4.18 165.725 67.698
4.19 167.167 67.626
4.20 169.536 67.025
4.21 174.612 66.685
4.22 --undefined-- 66.751
4.23 --undefined-- 65.944
4.24 --undefined-- 64.015
4.25 --undefined-- 61.400
4.26 --undefined-- 57.964
4.27 --undefined-- 53.589
4.28 --undefined-- 50.091
4.29 --undefined-- 49.679
4.30 --undefined-- 51.365
4.31 --undefined-- 50.408
4.32 --undefined-- 47.781
4.33 --undefined-- 49.574
4.34 --undefined-- 51.652
4.35 --undefined-- 50.694
4.36 --undefined-- 47.295
4.37 --undefined-- 44.728
4.38 --undefined-- 47.017
4.39 --undefined-- 53.890
4.40 253.373 59.677
4.41 260.025 63.471
4.42 272.630 65.962
4.43 285.147 67.759
4.44 298.033 69.003
4.45 158.889 69.329
4.46 175.458 68.317
4.47 189.954 66.395
4.48 190.628 63.884
4.49 182.510 60.272
4.50 180.602 56.404
4.51 177.987 53.423
4.52 --undefined-- 49.685
4.53 --undefined-- 45.622
4.54 --undefined-- 44.322
4.55 --undefined-- 43.596
4.56 --undefined-- 42.831
4.57 --undefined-- 43.371
4.58 --undefined-- 46.368
4.59 --undefined-- 48.305
4.60 --undefined-- 47.393
4.61 --undefined-- 48.968
4.62 259.756 56.324
4.63 241.917 61.309
4.64 214.118 63.771
4.65 195.084 64.707
4.66 184.435 64.868
4.67 175.779 64.317
4.68 173.085 63.362
4.69 171.315 62.668
4.70 170.718 62.555
4.71 170.622 62.317
4.72 169.614 61.555
4.73 169.461 60.829
4.74 170.624 60.493
4.75 171.049 60.463
4.76 172.882 60.726
4.77 174.345 61.193
4.78 175.666 61.513
4.79 176.428 61.589
4.80 176.284 61.505
4.81 176.456 61.288
4.82 175.818 60.753
4.83 174.138 60.320
4.84 172.336 61.601
4.85 171.367 64.122
4.86 169.012 66.443
4.87 165.903 68.308
4.88 161.995 69.241
4.89 159.824 69.140
4.90 161.382 68.479
4.91 164.709 67.607
4.92 167.579 66.909
4.93 169.380 66.279
4.94 172.319 65.123
4.95 176.683 64.151
4.96 180.818 64.305
4.97 184.524 64.433
4.98 189.451 63.996
4.99 203.272 63.669
5.00 219.953 64.150
5.01 234.089 65.454
5.02 252.223 66.765
5.03 288.775 68.493
5.04 158.148 70.510
5.05 166.028 --undefined--
5.06 173.769 --undefined--
5.07 --undefined-- --undefined--
5.08 --undefined-- --undefined--
