Time Pitch Intensity
0.01 --undefined-- --undefined--
0.02 183.448 --undefined--
0.03 182.212 --undefined--
0.04 179.066 --undefined--
0.05 177.722 69.530
0.06 177.495 71.009
0.07 175.669 71.484
0.08 173.219 71.405
0.09 171.387 70.678
0.10 169.807 69.389
0.11 168.627 67.661
0.12 166.660 65.079
0.13 166.698 61.602
0.14 169.626 57.490
0.15 173.226 52.284
0.16 --undefined-- 45.845
0.17 --undefined-- 39.729
0.18 --undefined-- 37.733
0.19 --undefined-- 43.983
0.20 --undefined-- 50.058
0.21 --undefined-- 53.016
0.22 --undefined-- 54.022
0.23 --undefined-- 54.653
0.24 --undefined-- 56.360
0.25 --undefined-- 57.919
0.26 --undefined-- 58.077
0.27 --undefined-- 57.418
0.28 --undefined-- 57.852
0.29 --undefined-- 58.711
0.30 --undefined-- 58.418
0.31 --undefined-- 57.837
0.32 --undefined-- 57.919
0.33 --undefined-- 57.946
0.34 --undefined-- 57.845
0.35 --undefined-- 58.217
0.36 --undefined-- 58.631
0.37 --undefined-- 58.973
0.38 --undefined-- 59.224
0.39 --undefined-- 58.529
0.40 --undefined-- 57.780
0.41 --undefined-- 58.360
0.42 --undefined-- 58.348
0.43 --undefined-- 57.168
0.44 --undefined-- 55.992
0.45 --undefined-- 55.896
0.46 --undefined-- 56.233
0.47 --undefined-- 56.915
0.48 --undefined-- 58.336
0.49 --undefined-- 58.840
0.50 --undefined-- 57.525
0.51 --undefined-- 55.203
0.52 --undefined-- 52.763
0.53 --undefined-- 50.654
0.54 --undefined-- 48.451
0.55 --undefined-- 45.187
0.56 --undefined-- 40.806
0.57 --undefined-- 35.503
0.58 --undefined-- 30.514
0.59 --undefined-- 28.800
0.60 --undefined-- 35.694
0.61 --undefined-- 45.780
0.62 --undefined-- 52.104
0.63 --undefined-- 55.634
0.64 --undefined-- 60.291
0.65 --undefined-- 66.527
0.66 --undefined-- 70.712
0.67 206.623 72.454
0.68 204.878 72.412
0.69 203.086 70.953
0.70 199.894 67.723
0.71 196.877 62.313
0.72 --undefined-- 54.664
0.73 --undefined-- 46.855
0.74 --undefined-- 41.950
0.75 --undefined-- 43.195
0.76 --undefined-- 47.158
0.77 163.364 49.787
0.78 154.742 50.683
0.79 149.038 50.647
0.80 147.713 53.443
0.81 150.388 59.498
0.82 152.291 64.093
0.83 151.569 67.527
0.84 146.173 69.925
0.85 145.868 70.924
0.86 147.067 70.891
0.87 147.841 70.136
0.88 147.254 68.700
0.89 147.325 66.885
0.90 292.838 65.867
0.91 293.272 66.900
0.92 295.968 68.129
0.93 297.771 68.326
0.94 296.953 67.820
0.95 296.742 67.399
0.96 295.872 67.569
0.97 295.041 68.133
0.98 298.161 68.698
0.99 298.962 69.106
1.00 298.795 69.190
1.01 296.601 69.033
1.02 296.034 69.271
1.03 293.805 69.688
1.04 293.292 69.644
1.05 293.915 69.236
1.06 288.969 68.408
1.07 285.301 66.732
1.08 299.476 63.685
1.09 --undefined-- 59.835
1.10 --undefined-- 63.844
1.11 --undefined-- 68.751
1.12 --undefined-- 71.372
1.13 --undefined-- 72.882
1.14 231.015 73.138
1.15 227.005 72.610
1.16 220.005 72.804
1.17 216.380 73.494
1.18 215.742 73.359
1.19 216.443 72.465
1.20 214.532 71.704
1.21 210.921 71.085
1.22 209.314 70.103
1.23 210.035 68.702
1.24 212.905 67.127
1.25 215.162 65.424
1.26 214.561 63.575
1.27 215.823 62.165
1.28 217.701 62.281
1.29 219.163 63.991
1.30 225.646 66.646
1.31 231.027 69.490
1.32 234.173 71.552
1.33 235.012 72.443
1.34 235.496 72.486
1.35 235.139 72.186
1.36 234.702 71.538
1.37 235.060 70.161
1.38 234.651 67.836
1.39 234.244 64.625
1.40 234.886 60.503
1.41 236.461 55.776
1.42 236.128 51.456
1.43 --undefined-- 48.210
1.44 --undefined-- 46.482
1.45 --undefined-- 46.259
1.46 --undefined-- 46.113
1.47 --undefined-- 45.106
1.48 --undefined-- 44.865
1.49 --undefined-- 51.047
1.50 --undefined-- 57.115
1.51 --undefined-- 62.180
1.52 --undefined-- 66.637
1.53 262.935 69.237
1.54 261.441 70.182
1.55 258.476 70.279
1.56 252.803 71.373
1.57 249.274 73.788
1.58 249.053 75.031
1.59 249.297 74.518
1.60 248.695 72.574
1.61 247.813 69.103
1.62 244.396 65.812
1.63 243.163 65.681
1.64 247.225 66.452
1.65 251.827 67.133
1.66 255.476 67.634
1.67 256.684 67.129
1.68 257.191 65.013
1.69 257.975 62.203
1.70 258.214 59.936
1.71 258.130 57.399
1.72 270.336 53.975
1.73 --undefined-- 49.753
1.74 --undefined-- 52.191
1.75 --undefined-- 61.950
1.76 261.731 68.272
1.77 258.405 71.142
1.78 254.312 71.181
1.79 249.767 69.824
1.80 249.228 69.099
1.81 249.168 69.009
1.82 249.122 68.627
1.83 249.761 67.694
1.84 250.528 66.153
1.85 249.826 64.345
1.86 246.266 62.366
1.87 241.654 60.025
1.88 241.326 56.860
1.89 --undefined-- 52.333
1.90 --undefined-- 47.412
1.91 --undefined-- 44.543
1.92 --undefined-- 46.529
1.93 --undefined-- 55.712
1.94 --undefined-- 62.698
1.95 217.041 66.313
1.96 216.799 67.761
1.97 198.793 68.450
1.98 189.923 68.576
1.99 187.972 67.566
2.00 184.162 65.906
2.01 180.715 65.145
2.02 181.619 65.197
2.03 181.768 65.483
2.04 183.383 65.747
2.05 184.996 65.449
2.06 182.337 64.076
2.07 178.078 61.542
2.08 175.634 58.020
2.09 172.012 53.898
2.10 --undefined-- 50.315
2.11 --undefined-- 49.742
2.12 99.539 52.351
2.13 98.991 54.983
2.14 100.790 57.048
2.15 104.297 59.787
2.16 101.104 62.637
2.17 --undefined-- 64.375
2.18 217.798 64.787
2.19 213.714 64.058
2.20 212.310 62.219
2.21 214.418 59.697
2.22 224.040 57.629
2.23 245.804 60.257
2.24 266.163 65.093
2.25 248.502 67.591
2.26 237.761 68.316
2.27 230.954 68.367
2.28 219.215 67.632
2.29 208.554 65.592
2.30 164.529 63.367
2.31 161.713 62.860
2.32 161.521 62.321
2.33 --undefined-- 61.610
2.34 --undefined-- 61.924
2.35 --undefined-- 62.555
2.36 --undefined-- 64.532
2.37 --undefined-- 66.762
2.38 --undefined-- 68.049
2.39 77.319 68.297
2.40 --undefined-- 68.058
2.41 159.569 67.710
2.42 159.769 66.977
2.43 159.125 65.508
2.44 158.245 63.298
2.45 157.563 60.587
2.46 154.735 56.836
2.47 --undefined-- 51.137
2.48 --undefined-- 43.186
2.49 --undefined-- 33.438
2.50 --undefined-- 27.870
2.51 --undefined-- 27.187
2.52 --undefined-- 39.329
2.53 --undefined-- 53.189
2.54 --undefined-- 61.907
2.55 --undefined-- 66.632
2.56 --undefined-- 67.942
2.57 --undefined-- 67.951
2.58 185.247 69.988
2.59 184.752 71.288
2.60 183.338 70.648
2.61 180.965 68.947
2.62 178.463 67.294
2.63 176.567 65.713
2.64 174.343 62.973
2.65 172.632 58.287
2.66 178.590 52.412
2.67 --undefined-- 46.687
2.68 --undefined-- 41.099
2.69 --undefined-- 36.232
2.70 --undefined-- 33.242
2.71 --undefined-- 33.571
2.72 --undefined-- 41.261
2.73 --undefined-- 50.507
2.74 --undefined-- 56.239
2.75 --undefined-- 59.580
2.76 --undefined-- 63.258
2.77 184.448 67.042
2.78 184.638 69.351
2.79 182.939 70.005
2.80 182.375 69.653
2.81 181.801 69.403
2.82 181.594 69.559
2.83 181.907 69.825
2.84 183.592 69.823
2.85 186.512 69.399
2.86 187.678 69.082
2.87 185.416 69.087
2.88 183.178 69.120
2.89 181.541 69.243
2.90 178.876 69.575
2.91 177.253 69.910
2.92 177.431 70.009
2.93 177.109 69.863
2.94 176.892 69.466
2.95 178.024 68.997
2.96 178.206 68.808
2.97 177.799 68.661
2.98 179.804 68.452
2.99 181.247 68.617
3.00 181.365 68.983
3.01 182.079 69.095
3.02 182.043 69.005
3.03 180.648 68.705
3.04 178.483 67.974
3.05 174.564 66.922
3.06 --undefined-- 65.709
3.07 --undefined-- 64.116
3.08 --undefined-- 61.763
3.09 274.287 59.125
3.10 273.254 56.356
3.11 --undefined-- 51.994
3.12 --undefined-- 45.237
3.13 --undefined-- 36.668
3.14 --undefined-- 29.060
3.15 --undefined-- 26.817
3.16 --undefined-- 26.055
3.17 --undefined-- 26.056
3.18 --undefined-- 26.190
3.19 --undefined-- 25.762
3.20 --undefined-- 25.251
3.21 --undefined-- 28.397
3.22 --undefined-- 42.645
3.23 --undefined-- 54.916
3.24 164.399 63.242
3.25 165.767 68.121
3.26 166.221 70.172
3.27 165.888 70.145
3.28 165.428 69.053
3.29 165.141 68.189
3.30 163.565 68.086
3.31 162.942 67.888
3.32 162.696 67.220
3.33 162.994 66.673
3.34 161.491 66.723
3.35 159.700 67.287
3.36 159.557 67.622
3.37 159.984 67.019
3.38 158.517 66.330
3.39 157.028 66.683
3.40 159.052 67.250
3.41 160.199 67.470
3.42 161.768 67.132
3.43 164.052 66.365
3.44 165.384 66.031
3.45 165.853 66.319
3.46 166.112 66.632
3.47 166.556 66.341
3.48 167.807 65.161
3.49 169.116 63.382
3.50 167.977 61.026
3.51 168.101 57.704
3.52 --undefined-- 53.015
3.53 --undefined-- 49.123
3.54 --undefined-- 50.167
3.55 --undefined-- 51.773
3.56 --undefined-- 52.874
3.57 --undefined-- 53.328
3.58 --undefined-- 53.508
3.59 --undefined-- 53.824
3.60 --undefined-- 53.996
3.61 --undefined-- 54.331
3.62 --undefined-- 55.372
3.63 --undefined-- 57.734
3.64 --undefined-- 60.091
3.65 --undefined-- 61.267
3.66 --undefined-- 60.385
3.67 --undefined-- 61.779
3.68 --undefined-- 66.745
3.69 179.197 69.764
3.70 171.302 71.506
3.71 163.748 72.823
3.72 162.584 73.260
3.73 162.757 72.619
3.74 162.738 71.174
3.75 163.599 69.479
3.76 163.933 68.722
3.77 163.941 68.999
3.78 165.564 68.828
3.79 167.817 67.939
3.80 171.102 66.784
3.81 179.724 65.698
3.82 184.190 64.499
3.83 189.406 63.006
3.84 204.386 62.590
3.85 209.976 63.067
3.86 212.261 62.213
3.87 217.173 59.368
3.88 --undefined-- 54.592
3.89 --undefined-- 47.846
3.90 --undefined-- 40.953
3.91 --undefined-- 40.909
3.92 --undefined-- 53.927
3.93 --undefined-- 63.752
3.94 241.218 68.697
3.95 244.042 69.826
3.96 248.126 68.232
3.97 245.434 65.312
3.98 242.795 62.855
3.99 257.470 62.240
4.00 268.056 63.776
4.01 279.251 66.812
4.02 295.964 69.237
4.03 151.068 70.207
4.04 294.039 70.372
4.05 285.647 70.803
4.06 274.070 71.150
4.07 267.383 70.934
4.08 266.867 70.710
4.09 265.664 70.938
4.10 261.789 71.196
4.11 257.791 71.314
4.12 256.786 71.342
4.13 257.568 71.111
4.14 261.280 70.741
4.15 263.891 70.276
4.16 262.173 69.533
4.17 259.618 68.732
4.18 258.696 68.312
4.19 256.038 68.279
4.20 250.345 67.829
4.21 250.222 66.230
4.22 255.938 63.377
4.23 --undefined-- 60.881
4.24 --undefined-- 58.978
4.25 --undefined-- 55.580
4.26 --undefined-- 52.547
4.27 247.269 54.290
4.28 241.333 54.711
4.29 --undefined-- 56.003
4.30 --undefined-- 60.476
4.31 --undefined-- 64.775
4.32 --undefined-- 68.205
4.33 --undefined-- 69.892
4.34 83.878 70.368
4.35 83.381 70.439
4.36 --undefined-- 69.921
4.37 161.104 69.308
4.38 162.516 69.212
4.39 161.962 68.331
4.40 161.234 65.315
4.41 160.582 60.000
4.42 157.656 53.219
4.43 --undefined-- 45.080
4.44 --undefined-- 36.686
4.45 --undefined-- 39.044
4.46 --undefined-- 45.182
4.47 --undefined-- 49.389
4.48 --undefined-- 53.754
4.49 205.214 60.606
4.50 204.978 66.653
4.51 204.520 70.367
4.52 202.318 72.152
4.53 199.379 72.565
4.54 195.299 71.978
4.55 193.429 70.247
4.56 192.737 66.636
4.57 191.504 60.848
4.58 --undefined-- 52.949
4.59 --undefined-- 43.769
4.60 --undefined-- 35.379
4.61 --undefined-- 30.368
4.62 --undefined-- 42.285
4.63 --undefined-- 52.023
4.64 --undefined-- 57.451
4.65 129.757 60.013
4.66 127.533 62.131
4.67 120.656 65.088
4.68 116.665 66.693
4.69 114.439 66.193
4.70 228.633 65.003
4.71 228.694 63.964
4.72 231.213 62.849
4.73 233.480 62.002
4.74 234.272 61.600
4.75 234.976 61.377
4.76 235.327 61.334
4.77 235.854 61.364
4.78 241.184 61.033
4.79 247.299 59.822
4.80 253.359 57.296
4.81 --undefined-- 53.849
4.82 --undefined-- 53.184
4.83 --undefined-- 54.584
4.84 --undefined-- 55.004
4.85 --undefined-- 54.329
4.86 --undefined-- 55.747
4.87 190.726 61.328
4.88 191.137 66.232
4.89 186.976 69.144
4.90 178.035 70.378
4.91 169.192 70.407
4.92 166.358 69.165
4.93 165.774 66.892
4.94 165.344 63.733
4.95 163.476 58.923
4.96 --undefined-- 52.043
4.97 --undefined-- 43.168
4.98 --undefined-- 33.337
4.99 --undefined-- 34.929
5.00 --undefined-- 46.327
5.01 --undefined-- 55.452
5.02 205.113 61.777
5.03 205.163 65.532
5.04 205.626 67.178
5.05 205.664 67.345
5.06 205.748 66.561
5.07 206.916 65.321
5.08 208.977 64.070
5.09 209.369 63.202
5.10 209.489 62.837
5.11 209.908 62.680
5.12 212.259 62.300
5.13 217.926 61.758
5.14 228.826 60.742
5.15 229.905 58.273
5.16 227.672 53.937
5.17 --undefined-- 49.379
5.18 --undefined-- 46.768
5.19 --undefined-- 45.377
5.20 --undefined-- 45.501
5.21 --undefined-- 47.248
5.22 --undefined-- 49.554
5.23 --undefined-- 55.138
5.24 213.510 61.517
5.25 209.860 65.168
5.26 207.643 66.106
5.27 205.238 65.369
5.28 204.786 64.304
5.29 204.524 63.277
5.30 201.558 62.894
5.31 198.702 64.360
5.32 195.892 67.444
5.33 193.364 70.246
5.34 190.681 71.516
5.35 185.643 71.043
5.36 182.616 68.737
5.37 180.700 64.944
5.38 167.795 60.477
5.39 156.528 54.945
5.40 --undefined-- 48.040
5.41 --undefined-- 49.614
5.42 --undefined-- --undefined--
5.43 --undefined-- --undefined--
5.44 --undefined-- --undefined--
5.45 --undefined-- --undefined--
