Time Pitch Intensity
0.01 --undefined-- --undefined--
0.02 134.470 --undefined--
0.03 134.357 --undefined--
0.04 130.035 --undefined--
0.05 129.896 71.496
0.06 129.673 70.133
0.07 130.584 68.246
0.08 135.766 65.834
0.09 134.575 63.636
0.10 131.074 61.967
0.11 132.251 61.067
0.12 134.583 61.706
0.13 138.992 63.577
0.14 139.933 65.643
0.15 140.053 67.696
0.16 139.915 69.531
0.17 139.834 70.848
0.18 139.576 71.719
0.19 138.185 72.312
0.20 137.071 72.797
0.21 136.724 73.365
0.22 137.023 73.896
0.23 137.948 73.839
0.24 138.390 72.280
0.25 133.606 68.554
0.26 112.870 62.936
0.27 --undefined-- 57.909
0.28 --undefined-- 61.128
0.29 190.775 68.301
0.30 189.177 73.023
0.31 182.316 75.457
0.32 179.073 76.979
0.33 177.353 77.961
0.34 176.729 77.937
0.35 174.868 76.537
0.36 163.865 73.378
0.37 146.770 68.148
0.38 127.241 60.951
0.39 --undefined-- 54.113
0.40 --undefined-- 50.825
0.41 --undefined-- 49.560
0.42 --undefined-- 48.365
0.43 --undefined-- 48.492
0.44 --undefined-- 54.398
0.45 --undefined-- 61.086
0.46 --undefined-- 64.901
0.47 116.778 66.510
0.48 112.623 66.790
0.49 106.383 66.150
0.50 102.743 65.100
0.51 104.830 64.497
0.52 107.560 64.441
0.53 110.223 64.149
0.54 109.271 62.653
0.55 101.869 59.506
0.56 --undefined-- 55.239
0.57 --undefined-- 51.141
0.58 --undefined-- 48.949
0.59 --undefined-- 53.481
0.60 --undefined-- 59.911
0.61 --undefined-- 65.892
0.62 149.873 70.202
0.63 149.680 72.585
0.64 143.861 73.419
0.65 141.314 73.733
0.66 141.794 74.133
0.67 142.178 74.425
0.68 142.777 74.589
0.69 143.793 74.756
0.70 145.055 74.901
0.71 145.844 75.025
0.72 146.540 75.207
0.73 147.084 75.358
0.74 147.907 75.379
0.75 149.331 75.132
0.76 151.173 74.657
0.77 151.374 73.750
0.78 149.863 71.671
0.79 147.031 68.887
0.80 145.167 67.114
0.81 141.839 65.846
0.82 140.292 64.403
0.83 --undefined-- 62.612
0.84 --undefined-- 60.250
0.85 74.804 57.464
0.86 --undefined-- 55.446
0.87 --undefined-- 55.365
0.88 --undefined-- 54.224
0.89 --undefined-- 49.917
0.90 --undefined-- 43.163
0.91 --undefined-- 39.490
0.92 --undefined-- 39.688
0.93 --undefined-- 40.020
0.94 --undefined-- 39.746
0.95 --undefined-- 38.761
0.96 --undefined-- 37.642
0.97 --undefined-- 37.089
0.98 --undefined-- 37.986
0.99 --undefined-- 38.849
1.00 --undefined-- 38.188
1.01 --undefined-- 38.432
1.02 --undefined-- 40.646
1.03 --undefined-- 42.010
1.04 --undefined-- 41.959
1.05 --undefined-- 42.699
1.06 --undefined-- 49.894
1.07 --undefined-- 60.096
1.08 --undefined-- 68.590
1.09 195.655 73.888
1.10 188.712 76.353
1.11 185.179 76.676
1.12 185.627 75.947
1.13 187.280 75.005
1.14 187.982 73.683
1.15 186.694 72.131
1.16 179.331 70.937
1.17 166.264 69.323
1.18 152.453 66.354
1.19 149.306 63.081
1.20 152.470 64.349
1.21 156.193 68.668
1.22 158.904 72.184
1.23 158.730 74.681
1.24 157.668 76.232
1.25 151.148 76.681
1.26 145.465 76.341
1.27 143.037 75.793
1.28 142.007 75.070
1.29 145.612 73.671
1.30 144.695 71.734
1.31 135.556 69.688
1.32 131.606 66.797
1.33 --undefined-- 62.676
1.34 --undefined-- 58.577
1.35 --undefined-- 55.707
1.36 --undefined-- 55.094
1.37 --undefined-- 59.842
1.38 112.821 65.397
1.39 127.770 69.115
1.40 129.525 70.782
1.41 130.428 71.075
1.42 125.391 71.048
1.43 121.711 71.122
1.44 119.284 71.403
1.45 118.442 71.963
1.46 118.787 72.392
1.47 118.531 72.181
1.48 117.862 71.425
1.49 117.605 70.555
1.50 118.432 69.884
1.51 120.391 69.736
1.52 120.445 70.118
1.53 120.911 70.530
1.54 123.225 70.739
1.55 122.651 70.217
1.56 118.918 68.210
1.57 113.656 64.402
1.58 116.530 58.884
1.59 --undefined-- 53.057
1.60 --undefined-- 53.313
1.61 --undefined-- 55.652
1.62 --undefined-- 56.775
1.63 --undefined-- 56.560
1.64 --undefined-- 58.325
1.65 190.833 65.076
1.66 190.208 69.893
1.67 181.320 71.703
1.68 174.927 71.153
1.69 170.829 68.695
1.70 --undefined-- 63.933
1.71 --undefined-- 57.360
1.72 --undefined-- 53.318
1.73 --undefined-- 49.500
1.74 --undefined-- 43.835
1.75 --undefined-- 44.262
1.76 --undefined-- 51.519
1.77 --undefined-- 61.090
1.78 --undefined-- 67.795
1.79 155.960 71.632
1.80 148.372 73.232
1.81 138.261 73.319
1.82 134.315 72.914
1.83 131.069 72.269
1.84 127.890 71.031
1.85 122.256 69.197
1.86 116.237 66.693
1.87 109.193 63.082
1.88 102.294 58.100
1.89 --undefined-- 52.031
1.90 --undefined-- 47.081
1.91 --undefined-- 44.837
1.92 --undefined-- 42.772
1.93 --undefined-- 40.558
1.94 --undefined-- 40.096
1.95 --undefined-- 46.320
1.96 --undefined-- 54.533
1.97 --undefined-- 60.111
1.98 117.254 63.550
1.99 112.949 65.640
2.00 112.822 66.860
2.01 113.026 67.699
2.02 114.193 68.440
2.03 118.303 69.062
2.04 121.243 69.251
2.05 121.685 68.726
2.06 124.463 67.511
2.07 --undefined-- 65.596
2.08 98.040 65.056
2.09 100.521 66.555
2.10 100.447 67.881
2.11 113.667 69.501
2.12 139.645 71.596
2.13 139.157 73.612
2.14 138.962 75.095
2.15 139.156 75.952
2.16 138.604 76.270
2.17 138.733 76.387
2.18 138.443 76.642
2.19 138.309 76.795
2.20 137.319 76.650
2.21 135.704 76.205
2.22 137.418 75.368
2.23 140.786 74.480
2.24 143.697 73.591
2.25 145.493 72.246
2.26 146.159 70.592
2.27 144.052 68.904
2.28 --undefined-- 67.129
2.29 --undefined-- 64.950
2.30 --undefined-- 61.570
2.31 --undefined-- 56.243
2.32 --undefined-- 48.334
2.33 --undefined-- 39.263
2.34 --undefined-- 38.602
2.35 --undefined-- 40.261
2.36 --undefined-- 40.031
2.37 --undefined-- 39.197
2.38 --undefined-- 39.054
2.39 --undefined-- 38.738
2.40 --undefined-- 38.630
2.41 --undefined-- 39.704
2.42 --undefined-- 40.164
2.43 --undefined-- 39.434
2.44 --undefined-- 38.995
2.45 --undefined-- 39.062
2.46 --undefined-- 39.071
2.47 --undefined-- 39.333
2.48 --undefined-- 38.530
2.49 --undefined-- 37.470
2.50 --undefined-- 38.280
2.51 --undefined-- 38.075
2.52 --undefined-- 36.994
2.53 --undefined-- 37.644
2.54 --undefined-- 38.265
2.55 --undefined-- 37.931
2.56 --undefined-- 37.530
2.57 --undefined-- 37.850
2.58 --undefined-- 37.790
2.59 --undefined-- 36.361
2.60 --undefined-- 36.306
2.61 --undefined-- 38.933
2.62 --undefined-- 45.285
2.63 --undefined-- 55.106
2.64 --undefined-- 62.617
2.65 --undefined-- 68.245
2.66 188.222 72.636
2.67 194.722 76.255
2.68 193.580 79.025
2.69 191.994 80.549
2.70 190.607 80.714
2.71 190.272 79.787
2.72 189.706 78.431
2.73 187.896 77.380
2.74 185.554 76.856
2.75 182.163 76.837
2.76 178.556 77.397
2.77 176.166 77.859
2.78 171.794 77.373
2.79 156.657 76.971
2.80 147.520 77.479
2.81 144.438 77.229
2.82 --undefined-- 75.967
2.83 123.136 74.991
2.84 120.591 74.672
2.85 119.693 74.427
2.86 120.324 74.020
2.87 120.374 73.558
2.88 119.938 73.066
2.89 119.003 72.047
2.90 115.706 69.833
2.91 107.949 65.988
2.92 --undefined-- 60.505
2.93 --undefined-- 54.295
2.94 --undefined-- 50.915
2.95 --undefined-- 50.210
2.96 --undefined-- 49.193
2.97 --undefined-- 47.854
2.98 --undefined-- 47.376
2.99 --undefined-- 47.877
3.00 --undefined-- 48.324
3.01 --undefined-- 48.797
3.02 --undefined-- 54.437
3.03 --undefined-- 62.462
3.04 155.099 67.504
3.05 141.837 70.162
3.06 139.542 71.581
3.07 137.664 72.478
3.08 136.581 72.942
3.09 135.222 72.918
3.10 133.831 72.564
3.11 132.499 72.238
3.12 131.750 72.133
3.13 131.087 71.992
3.14 129.323 71.254
3.15 126.660 69.573
3.16 124.743 67.629
3.17 127.544 66.572
3.18 128.084 66.118
3.19 126.900 65.841
3.20 124.641 65.796
3.21 123.855 66.509
3.22 129.742 68.909
3.23 127.883 72.100
3.24 127.489 74.339
3.25 127.240 75.249
3.26 127.176 75.389
3.27 129.063 75.239
3.28 133.820 74.906
3.29 140.092 74.784
3.30 145.285 74.447
3.31 148.669 72.832
3.32 146.320 69.569
3.33 143.783 65.429
3.34 142.068 62.205
3.35 143.969 59.166
3.36 --undefined-- 54.445
3.37 --undefined-- 50.636
3.38 --undefined-- 54.444
3.39 --undefined-- 56.927
3.40 --undefined-- 56.530
3.41 --undefined-- 55.231
3.42 --undefined-- 55.996
3.43 --undefined-- 58.927
3.44 148.951 64.417
3.45 138.724 68.029
3.46 126.616 69.262
3.47 115.715 69.628
3.48 110.642 69.910
3.49 107.013 69.493
3.50 104.554 68.421
3.51 105.941 67.535
3.52 109.922 67.531
3.53 112.205 68.232
3.54 114.680 68.757
3.55 116.235 68.119
3.56 115.687 65.520
3.57 --undefined-- 60.388
3.58 --undefined-- 53.733
3.59 --undefined-- 52.607
3.60 --undefined-- 54.080
3.61 --undefined-- 58.697
3.62 118.187 64.584
3.63 116.783 68.114
3.64 121.077 69.640
3.65 125.600 70.095
3.66 127.668 70.230
3.67 127.350 70.467
3.68 121.509 70.912
3.69 119.007 71.182
3.70 117.118 70.821
3.71 114.761 69.708
3.72 113.205 68.317
3.73 113.704 67.278
3.74 113.539 66.592
3.75 113.217 66.136
3.76 112.328 65.796
3.77 112.690 65.507
3.78 112.409 65.251
3.79 111.324 64.789
3.80 109.711 64.048
3.81 106.697 63.033
3.82 102.366 61.503
3.83 --undefined-- 59.519
3.84 --undefined-- 57.052
3.85 --undefined-- 52.647
3.86 --undefined-- 46.083
3.87 --undefined-- 42.301
3.88 --undefined-- 40.907
3.89 --undefined-- 38.968
3.90 --undefined-- 37.778
3.91 --undefined-- 38.310
3.92 --undefined-- 37.927
3.93 --undefined-- 37.443
3.94 --undefined-- 37.645
3.95 --undefined-- 37.029
3.96 --undefined-- 35.552
3.97 --undefined-- 34.269
3.98 --undefined-- 35.487
3.99 --undefined-- 37.500
4.00 --undefined-- 38.125
4.01 --undefined-- 37.309
4.02 --undefined-- 35.344
4.03 --undefined-- 34.658
4.04 --undefined-- 34.849
4.05 --undefined-- 35.243
4.06 --undefined-- 36.127
4.07 --undefined-- 35.877
4.08 --undefined-- 35.489
4.09 --undefined-- 37.610
4.10 --undefined-- 40.503
4.11 --undefined-- 41.005
4.12 --undefined-- 39.138
4.13 --undefined-- 37.243
4.14 --undefined-- 37.064
4.15 --undefined-- 37.283
4.16 --undefined-- 39.103
4.17 --undefined-- 40.187
4.18 --undefined-- 40.074
4.19 --undefined-- 40.462
4.20 --undefined-- 40.726
4.21 --undefined-- 40.697
4.22 --undefined-- 40.698
4.23 --undefined-- 40.869
4.24 --undefined-- 41.735
4.25 --undefined-- 43.005
4.26 --undefined-- 43.488
4.27 --undefined-- 42.872
4.28 --undefined-- 42.443
4.29 --undefined-- 41.909
4.30 --undefined-- 41.744
4.31 --undefined-- 42.442
4.32 --undefined-- 42.423
4.33 --undefined-- 41.292
4.34 --undefined-- 39.875
4.35 --undefined-- 39.326
4.36 --undefined-- 38.381
4.37 --undefined-- 37.218
4.38 --undefined-- 37.972
4.39 --undefined-- 38.663
4.40 --undefined-- 38.210
4.41 --undefined-- 37.588
4.42 --undefined-- 37.217
4.43 --undefined-- 40.109
4.44 --undefined-- 48.267
4.45 --undefined-- 57.940
4.46 --undefined-- 66.362
4.47 167.858 72.329
4.48 156.976 75.676
4.49 152.455 76.326
4.50 149.872 74.719
4.51 163.348 72.552
4.52 168.872 71.444
4.53 177.537 71.212
4.54 184.559 71.529
4.55 186.801 72.006
4.56 184.487 72.291
4.57 179.968 72.737
4.58 182.494 74.533
4.59 177.313 76.435
4.60 171.933 77.116
4.61 160.680 76.772
4.62 153.602 76.039
4.63 147.714 75.018
4.64 140.542 73.415
4.65 135.474 71.809
4.66 133.398 70.657
4.67 130.721 69.834
4.68 129.069 69.253
4.69 127.033 68.664
4.70 124.183 68.163
4.71 124.851 69.361
4.72 134.520 72.197
4.73 133.980 74.255
4.74 131.530 75.298
4.75 129.732 76.111
4.76 128.304 76.808
4.77 127.482 77.164
4.78 126.956 77.336
4.79 128.850 77.679
4.80 130.212 78.137
4.81 131.337 78.306
4.82 131.314 77.924
4.83 131.160 77.206
4.84 130.662 76.448
4.85 130.103 75.756
4.86 129.778 74.942
4.87 130.448 73.926
4.88 125.669 72.742
4.89 124.476 70.926
4.90 119.325 68.668
4.91 117.962 66.194
4.92 --undefined-- 63.137
4.93 --undefined-- 58.646
4.94 --undefined-- 53.238
4.95 --undefined-- 49.646
4.96 --undefined-- 46.104
4.97 --undefined-- 43.493
4.98 --undefined-- 42.515
4.99 --undefined-- 40.522
5.00 --undefined-- 38.068
5.01 --undefined-- 38.419
5.02 --undefined-- 39.491
5.03 --undefined-- 39.432
5.04 --undefined-- 39.835
5.05 --undefined-- 40.040
5.06 --undefined-- 38.724
5.07 --undefined-- 37.645
5.08 --undefined-- 38.744
5.09 --undefined-- 39.034
5.10 --undefined-- 36.639
5.11 --undefined-- 32.845
5.12 --undefined-- 31.621
5.13 --undefined-- 33.436
5.14 --undefined-- 35.774
5.15 --undefined-- 37.080
5.16 --undefined-- 37.386
5.17 --undefined-- 36.331
5.18 --undefined-- 34.511
5.19 --undefined-- 34.707
5.20 --undefined-- 42.849
5.21 --undefined-- 53.735
5.22 --undefined-- 61.152
5.23 --undefined-- 64.340
5.24 --undefined-- 63.832
5.25 --undefined-- 61.299
5.26 --undefined-- 63.170
5.27 147.438 68.218
5.28 142.932 71.225
5.29 135.452 72.126
5.30 133.261 72.013
5.31 131.313 71.792
5.32 135.575 71.298
5.33 139.195 70.204
5.34 137.834 68.529
5.35 130.029 66.421
5.36 127.569 65.003
5.37 131.697 65.385
5.38 134.421 66.481
5.39 133.396 67.052
5.40 127.018 66.806
5.41 119.506 65.224
5.42 --undefined-- 61.476
5.43 --undefined-- 55.650
5.44 --undefined-- 51.238
5.45 --undefined-- 48.427
5.46 --undefined-- 44.423
5.47 --undefined-- 40.447
5.48 --undefined-- 40.960
5.49 --undefined-- 51.353
5.50 --undefined-- 61.781
5.51 --undefined-- 68.575
5.52 171.765 72.514
5.53 161.815 74.798
5.54 157.994 76.213
5.55 156.062 76.840
5.56 155.316 76.556
5.57 154.865 75.738
5.58 153.644 75.133
5.59 151.331 74.662
5.60 150.956 74.067
5.61 153.182 73.847
5.62 153.452 74.474
5.63 153.601 75.179
5.64 148.236 75.098
5.65 143.021 74.644
5.66 138.812 74.806
5.67 135.123 75.141
5.68 131.201 74.718
5.69 126.531 73.240
5.70 124.031 70.579
5.71 109.697 66.264
5.72 101.938 59.931
5.73 --undefined-- 52.609
5.74 --undefined-- 48.580
5.75 --undefined-- 50.785
5.76 --undefined-- 53.961
5.77 --undefined-- 59.900
5.78 --undefined-- 67.194
5.79 172.930 71.707
5.80 161.832 73.764
5.81 156.194 74.464
5.82 152.083 74.414
5.83 150.086 73.230
5.84 149.792 70.832
5.85 153.875 68.680
5.86 152.595 68.168
5.87 152.238 68.319
5.88 154.849 68.395
5.89 153.786 67.940
5.90 149.696 66.564
5.91 144.104 63.860
5.92 131.500 59.370
5.93 --undefined-- 52.707
5.94 --undefined-- 46.860
5.95 --undefined-- 46.890
5.96 --undefined-- 51.271
5.97 --undefined-- 59.873
5.98 --undefined-- 66.282
5.99 151.543 69.405
6.00 123.783 69.978
6.01 111.802 69.234
6.02 106.321 68.211
6.03 101.426 67.198
6.04 100.326 66.657
6.05 102.920 67.149
6.06 107.180 68.246
6.07 111.707 69.592
6.08 116.031 70.865
6.09 121.834 71.513
6.10 130.617 71.788
6.11 136.027 72.240
6.12 141.042 72.742
6.13 143.799 72.715
6.14 144.123 71.683
6.15 137.558 69.406
6.16 131.589 --undefined--
6.17 140.729 --undefined--
6.18 --undefined-- --undefined--
6.19 --undefined-- --undefined--
