Time Pitch Intensity
0.01 --undefined-- --undefined--
0.02 182.656 --undefined--
0.03 183.780 --undefined--
0.04 186.111 --undefined--
0.05 189.748 70.144
0.06 191.349 69.707
0.07 189.217 68.477
0.08 185.857 66.511
0.09 191.280 64.031
0.10 200.807 60.201
0.11 --undefined-- 53.834
0.12 --undefined-- 44.631
0.13 --undefined-- 37.942
0.14 --undefined-- 37.096
0.15 --undefined-- 37.253
0.16 --undefined-- 38.202
0.17 --undefined-- 39.873
0.18 --undefined-- 40.992
0.19 --undefined-- 42.042
0.20 --undefined-- 43.943
0.21 --undefined-- 46.733
0.22 --undefined-- 53.676
0.23 202.923 61.895
0.24 188.861 67.075
0.25 177.166 69.697
0.26 175.253 70.945
0.27 173.608 71.507
0.28 170.485 71.679
0.29 167.810 71.619
0.30 165.969 71.448
0.31 165.445 71.322
0.32 165.139 71.284
0.33 164.958 71.193
0.34 164.889 70.892
0.35 164.852 70.303
0.36 164.514 69.450
0.37 163.559 68.384
0.38 162.954 67.212
0.39 160.889 66.188
0.40 161.342 65.321
0.41 161.017 64.314
0.42 157.982 63.125
0.43 150.553 61.882
0.44 149.901 60.808
0.45 154.823 60.420
0.46 155.460 60.904
0.47 155.406 62.269
0.48 161.534 64.395
0.49 162.630 66.668
0.50 162.957 68.585
0.51 161.276 69.895
0.52 160.070 70.536
0.53 158.527 70.698
0.54 157.425 70.611
0.55 156.772 70.456
0.56 156.467 70.326
0.57 156.956 70.228
0.58 156.920 70.156
0.59 158.053 70.174
0.60 160.435 70.318
0.61 160.997 70.431
0.62 160.749 70.396
0.63 159.915 70.397
0.64 159.140 70.656
0.65 159.861 70.999
0.66 159.737 71.159
0.67 159.356 71.173
0.68 159.037 71.109
0.69 159.027 70.911
0.70 159.638 70.472
0.71 161.191 69.697
0.72 159.692 68.433
0.73 149.777 66.641
0.74 141.899 64.696
0.75 --undefined-- 62.508
0.76 --undefined-- 59.369
0.77 --undefined-- 56.629
0.78 --undefined-- 55.062
0.79 --undefined-- 51.820
0.80 --undefined-- 50.365
0.81 --undefined-- 49.822
0.82 --undefined-- 46.459
0.83 --undefined-- 43.192
0.84 --undefined-- 42.939
0.85 --undefined-- 43.539
0.86 --undefined-- 44.048
0.87 --undefined-- 48.801
0.88 --undefined-- 55.077
0.89 147.897 59.524
0.90 142.383 62.167
0.91 141.018 63.753
0.92 141.552 64.843
0.93 141.665 65.654
0.94 140.957 66.251
0.95 139.345 66.577
0.96 137.744 66.460
0.97 135.847 65.641
0.98 130.313 63.855
0.99 125.722 60.667
1.00 --undefined-- 55.255
1.01 --undefined-- 47.394
1.02 --undefined-- 40.480
1.03 --undefined-- 36.869
1.04 --undefined-- 37.717
1.05 --undefined-- 46.232
1.06 --undefined-- 51.987
1.07 --undefined-- 55.692
1.08 --undefined-- 63.386
1.09 237.964 70.093
1.10 233.974 73.533
1.11 229.589 74.538
1.12 226.654 74.407
1.13 223.923 74.206
1.14 221.133 74.295
1.15 218.145 74.639
1.16 216.504 74.971
1.17 217.680 74.931
1.18 220.807 74.111
1.19 219.705 71.958
1.20 207.692 68.034
1.21 217.946 62.589
1.22 --undefined-- 56.100
1.23 --undefined-- 51.997
1.24 --undefined-- 60.723
1.25 211.953 67.652
1.26 199.363 71.207
1.27 186.102 72.538
1.28 176.787 72.939
1.29 170.034 72.898
1.30 164.834 72.281
1.31 161.971 71.220
1.32 162.202 69.884
1.33 163.835 67.836
1.34 163.800 64.148
1.35 167.595 58.227
1.36 --undefined-- 49.952
1.37 --undefined-- 41.605
1.38 --undefined-- 46.135
1.39 --undefined-- 52.887
1.40 --undefined-- 60.382
1.41 184.242 65.817
1.42 178.760 68.283
1.43 164.942 68.431
1.44 156.947 67.140
1.45 149.799 65.267
1.46 145.477 63.831
1.47 144.292 63.702
1.48 145.621 64.896
1.49 147.369 66.392
1.50 149.252 67.421
1.51 151.754 68.162
1.52 163.452 69.030
1.53 169.040 69.862
1.54 173.665 70.295
1.55 178.377 69.766
1.56 180.920 67.476
1.57 178.360 62.636
1.58 --undefined-- 55.241
1.59 --undefined-- 51.934
1.60 --undefined-- 53.038
1.61 --undefined-- 56.115
1.62 179.456 60.888
1.63 164.072 63.695
1.64 144.274 64.741
1.65 124.259 65.119
1.66 114.960 65.302
1.67 107.274 65.165
1.68 104.867 64.801
1.69 106.552 64.520
1.70 109.127 63.948
1.71 110.854 61.796
1.72 109.862 56.997
1.73 --undefined-- 50.359
1.74 --undefined-- 45.855
1.75 --undefined-- 43.656
1.76 --undefined-- 45.288
1.77 --undefined-- 52.340
1.78 --undefined-- 60.968
1.79 --undefined-- 66.225
1.80 165.166 68.542
1.81 157.651 69.025
1.82 152.969 68.698
1.83 150.291 68.202
1.84 148.555 67.784
1.85 147.791 67.644
1.86 148.698 67.919
1.87 149.865 68.447
1.88 150.813 68.913
1.89 151.183 69.161
1.90 150.929 69.192
1.91 150.377 69.131
1.92 149.843 69.072
1.93 149.482 68.845
1.94 148.883 68.394
1.95 147.923 67.859
1.96 146.733 67.333
1.97 145.844 66.798
1.98 144.711 66.142
1.99 140.576 65.352
2.00 133.305 64.598
2.01 127.112 63.648
2.02 122.220 61.741
2.03 --undefined-- 58.224
2.04 --undefined-- 52.085
2.05 --undefined-- 42.259
2.06 --undefined-- 33.976
2.07 --undefined-- 34.429
2.08 --undefined-- 36.559
2.09 --undefined-- 37.276
2.10 --undefined-- 35.593
2.11 --undefined-- 34.295
2.12 --undefined-- 36.874
2.13 --undefined-- 38.096
2.14 --undefined-- 36.421
2.15 --undefined-- 33.421
2.16 --undefined-- 34.016
2.17 --undefined-- 36.255
2.18 --undefined-- 39.105
2.19 --undefined-- 41.539
2.20 --undefined-- 42.237
2.21 --undefined-- 41.111
2.22 --undefined-- 38.436
2.23 --undefined-- 35.959
2.24 --undefined-- 36.682
2.25 --undefined-- 36.812
2.26 --undefined-- 36.295
2.27 --undefined-- 37.824
2.28 --undefined-- 39.246
2.29 --undefined-- 39.028
2.30 --undefined-- 37.405
2.31 --undefined-- 37.246
2.32 --undefined-- 39.335
2.33 --undefined-- 40.041
2.34 --undefined-- 38.071
2.35 --undefined-- 34.960
2.36 --undefined-- 34.372
2.37 --undefined-- 35.320
2.38 --undefined-- 36.170
2.39 --undefined-- 35.330
2.40 --undefined-- 33.231
2.41 --undefined-- 31.261
2.42 --undefined-- 31.683
2.43 --undefined-- 34.828
2.44 --undefined-- 36.960
2.45 --undefined-- 36.598
2.46 --undefined-- 34.896
2.47 --undefined-- 34.759
2.48 --undefined-- 34.194
2.49 --undefined-- 32.835
2.50 --undefined-- 34.099
2.51 --undefined-- 35.911
2.52 --undefined-- 36.623
2.53 --undefined-- 36.511
2.54 --undefined-- 35.708
2.55 --undefined-- 35.044
2.56 --undefined-- 36.008
2.57 --undefined-- 37.515
2.58 --undefined-- 38.283
2.59 --undefined-- 37.726
2.60 --undefined-- 35.871
2.61 --undefined-- 34.613
2.62 --undefined-- 34.708
2.63 --undefined-- 34.572
2.64 --undefined-- 33.768
2.65 --undefined-- 32.710
2.66 --undefined-- 31.995
2.67 --undefined-- 32.778
2.68 --undefined-- 33.589
2.69 --undefined-- 34.425
2.70 --undefined-- 35.224
2.71 --undefined-- 34.169
2.72 --undefined-- 33.954
2.73 --undefined-- 36.491
2.74 --undefined-- 38.488
2.75 --undefined-- 39.725
2.76 --undefined-- 39.931
2.77 --undefined-- 48.977
2.78 --undefined-- 58.974
2.79 193.815 65.079
2.80 184.761 68.572
2.81 186.723 70.801
2.82 190.190 72.416
2.83 194.205 73.432
2.84 196.497 73.599
2.85 194.916 72.512
2.86 188.215 69.795
2.87 176.558 65.193
2.88 --undefined-- 58.469
2.89 --undefined-- 50.580
2.90 --undefined-- 48.485
2.91 --undefined-- 47.800
2.92 --undefined-- 53.918
2.93 --undefined-- 64.319
2.94 209.755 71.203
2.95 203.848 75.038
2.96 202.499 76.954
2.97 203.259 78.000
2.98 205.320 78.733
2.99 209.856 79.227
3.00 216.966 79.398
3.01 225.398 79.315
3.02 234.723 79.310
3.03 243.625 79.426
3.04 255.387 79.203
3.05 271.033 78.546
3.06 284.482 77.455
3.07 --undefined-- 76.223
3.08 157.039 75.616
3.09 160.889 74.803
3.10 163.448 72.667
3.11 161.909 68.941
3.12 150.225 63.746
3.13 134.327 57.399
3.14 --undefined-- 50.437
3.15 --undefined-- 46.743
3.16 --undefined-- 48.637
3.17 --undefined-- 53.617
3.18 --undefined-- 63.075
3.19 270.721 69.613
3.20 269.118 72.912
3.21 267.129 74.252
3.22 257.777 75.033
3.23 244.008 75.505
3.24 233.125 74.922
3.25 225.436 72.596
3.26 211.468 68.495
3.27 221.756 63.720
3.28 243.599 62.634
3.29 239.540 68.765
3.30 229.078 73.022
3.31 220.824 74.750
3.32 212.157 74.874
3.33 205.099 74.372
3.34 199.704 73.774
3.35 195.782 73.395
3.36 193.058 73.301
3.37 192.303 73.060
3.38 193.868 72.312
3.39 192.612 71.065
3.40 187.700 69.620
3.41 181.657 68.183
3.42 174.037 66.840
3.43 169.950 65.838
3.44 167.574 65.260
3.45 165.925 65.087
3.46 164.936 65.385
3.47 164.488 66.133
3.48 164.827 67.213
3.49 165.162 68.330
3.50 165.333 69.331
3.51 165.813 70.346
3.52 165.354 71.216
3.53 165.302 71.735
3.54 167.287 72.041
3.55 167.978 72.171
3.56 167.669 72.187
3.57 167.132 72.311
3.58 167.311 72.653
3.59 168.561 72.974
3.60 169.008 73.070
3.61 169.597 73.005
3.62 169.903 72.816
3.63 170.304 72.482
3.64 170.712 71.949
3.65 171.012 71.085
3.66 171.073 69.813
3.67 170.900 68.516
3.68 174.143 68.045
3.69 179.152 68.512
3.70 183.418 69.392
3.71 186.627 70.299
3.72 186.391 70.909
3.73 185.242 71.087
3.74 183.806 70.642
3.75 181.754 69.076
3.76 175.713 65.750
3.77 177.777 60.106
3.78 --undefined-- 51.847
3.79 --undefined-- 45.768
3.80 --undefined-- 50.448
3.81 --undefined-- 54.077
3.82 --undefined-- 55.405
3.83 --undefined-- 59.946
3.84 --undefined-- 66.799
3.85 177.271 70.901
3.86 170.558 72.641
3.87 166.654 72.956
3.88 163.799 72.387
3.89 161.843 71.800
3.90 167.259 72.027
3.91 171.568 72.647
3.92 178.006 73.344
3.93 185.535 74.115
3.94 194.288 74.968
3.95 203.254 75.914
3.96 212.895 77.011
3.97 221.573 78.127
3.98 228.858 78.908
3.99 233.890 78.994
4.00 236.700 78.019
4.01 237.699 75.507
4.02 241.964 70.762
4.03 253.613 63.230
4.04 250.682 54.646
4.05 --undefined-- 50.963
4.06 --undefined-- 53.790
4.07 --undefined-- 62.671
4.08 241.091 69.590
4.09 217.365 73.235
4.10 200.132 74.471
4.11 188.818 74.427
4.12 180.345 74.016
4.13 173.896 73.700
4.14 169.860 73.487
4.15 166.684 73.275
4.16 163.737 73.079
4.17 161.839 72.913
4.18 160.777 72.760
4.19 159.879 72.683
4.20 159.356 72.680
4.21 158.945 72.666
4.22 158.660 72.627
4.23 158.469 72.606
4.24 158.199 72.583
4.25 157.864 72.511
4.26 157.747 72.374
4.27 157.424 72.154
4.28 157.431 71.819
4.29 157.499 71.342
4.30 156.714 70.679
4.31 154.674 69.594
4.32 150.091 67.854
4.33 146.845 65.578
4.34 107.366 63.027
4.35 --undefined-- 59.271
4.36 --undefined-- 54.270
4.37 --undefined-- 49.890
4.38 --undefined-- 44.784
4.39 --undefined-- 41.552
4.40 --undefined-- 43.321
4.41 --undefined-- 44.271
4.42 --undefined-- 43.987
4.43 --undefined-- 43.363
4.44 --undefined-- 43.915
4.45 --undefined-- 44.919
4.46 --undefined-- 45.300
4.47 --undefined-- 44.958
4.48 --undefined-- 44.098
4.49 --undefined-- 43.170
4.50 --undefined-- 41.500
4.51 --undefined-- 39.656
4.52 --undefined-- 39.545
4.53 --undefined-- 39.567
4.54 --undefined-- 39.038
4.55 --undefined-- 38.919
4.56 --undefined-- 39.384
4.57 --undefined-- 40.277
4.58 --undefined-- 40.635
4.59 --undefined-- 39.323
4.60 --undefined-- 37.229
4.61 --undefined-- 36.325
4.62 --undefined-- 37.829
4.63 --undefined-- 40.901
4.64 --undefined-- 43.567
4.65 --undefined-- 45.635
4.66 --undefined-- 46.897
4.67 --undefined-- 48.520
4.68 --undefined-- 54.079
4.69 213.229 62.731
4.70 210.463 68.656
4.71 202.036 71.580
4.72 187.991 72.537
4.73 183.861 72.524
4.74 183.040 71.590
4.75 180.724 68.954
4.76 165.591 64.101
4.77 178.262 60.262
4.78 199.389 65.142
4.79 189.254 69.207
4.80 184.354 70.776
4.81 179.585 71.045
4.82 177.545 70.955
4.83 174.198 70.793
4.84 171.744 70.584
4.85 169.160 70.302
4.86 166.778 70.045
4.87 164.729 69.873
4.88 163.670 69.726
4.89 163.029 69.609
4.90 162.625 69.574
4.91 162.317 69.583
4.92 162.599 69.583
4.93 163.030 69.611
4.94 163.731 69.695
4.95 164.581 69.811
4.96 165.060 69.956
4.97 165.663 69.914
4.98 165.946 69.070
4.99 164.906 66.710
5.00 157.310 62.515
5.01 158.470 56.895
5.02 --undefined-- 50.178
5.03 --undefined-- 44.044
5.04 --undefined-- 47.053
5.05 --undefined-- 52.118
5.06 --undefined-- 55.795
5.07 --undefined-- 57.987
5.08 --undefined-- 60.511
5.09 252.360 66.289
5.10 242.290 71.027
5.11 238.165 73.035
5.12 234.743 73.198
5.13 234.002 73.050
5.14 234.237 73.540
5.15 234.122 74.050
5.16 233.746 74.193
5.17 233.584 74.170
5.18 233.805 74.144
5.19 234.154 74.166
5.20 234.828 74.270
5.21 235.512 74.410
5.22 235.842 74.466
5.23 235.439 74.231
5.24 234.120 73.364
5.25 230.522 71.371
5.26 224.368 67.775
5.27 213.483 62.331
5.28 --undefined-- 55.433
5.29 --undefined-- 48.817
5.30 --undefined-- 48.669
5.31 --undefined-- 55.289
5.32 176.202 60.131
5.33 166.548 62.294
5.34 150.528 62.619
5.35 141.410 62.533
5.36 138.757 63.014
5.37 138.575 63.994
5.38 140.030 65.071
5.39 142.154 66.154
5.40 143.148 67.178
5.41 144.862 68.116
5.42 145.993 68.729
5.43 146.291 68.945
5.44 147.296 69.022
5.45 148.153 69.087
5.46 148.933 69.074
5.47 149.533 69.050
5.48 149.764 69.235
5.49 149.910 69.525
5.50 151.076 69.532
5.51 152.427 69.144
5.52 155.262 68.732
5.53 158.933 68.554
5.54 161.820 68.316
5.55 161.789 67.565
5.56 158.207 65.875
5.57 144.647 63.226
5.58 --undefined-- 60.329
5.59 --undefined-- 57.728
5.60 --undefined-- 56.015
5.61 --undefined-- 56.738
5.62 --undefined-- 58.999
5.63 --undefined-- 61.006
5.64 160.959 63.063
5.65 164.672 65.454
5.66 169.418 67.539
5.67 173.054 68.930
5.68 169.282 69.589
5.69 163.713 69.757
5.70 160.686 69.787
5.71 159.290 69.576
5.72 158.143 68.876
5.73 156.757 67.650
5.74 154.050 65.855
5.75 150.443 62.843
5.76 --undefined-- 57.489
5.77 --undefined-- 49.131
5.78 --undefined-- 41.083
5.79 --undefined-- 38.799
5.80 --undefined-- 39.434
5.81 --undefined-- 41.026
5.82 --undefined-- 42.279
5.83 --undefined-- 50.809
5.84 --undefined-- 60.902
5.85 --undefined-- 67.284
5.86 212.426 70.182
5.87 213.161 70.812
5.88 212.705 70.414
5.89 212.044 69.498
5.90 211.659 68.069
5.91 210.787 66.089
5.92 209.337 63.038
5.93 --undefined-- 57.692
5.94 --undefined-- 49.858
5.95 --undefined-- 43.714
5.96 --undefined-- 41.014
5.97 --undefined-- 39.797
5.98 --undefined-- 41.377
5.99 --undefined-- 44.847
6.00 --undefined-- 49.558
6.01 --undefined-- 52.823
6.02 --undefined-- 53.456
6.03 --undefined-- 52.292
6.04 --undefined-- --undefined--
6.05 --undefined-- --undefined--
6.06 --undefined-- --undefined--
6.07 --undefined-- --undefined--
