Time Pitch Intensity
0.01 --undefined-- --undefined--
0.02 253.222 --undefined--
0.03 243.874 --undefined--
0.04 233.649 --undefined--
0.05 231.379 61.175
0.06 --undefined-- 57.377
0.07 --undefined-- 55.230
0.08 --undefined-- 52.596
0.09 --undefined-- 49.395
0.10 --undefined-- 47.274
0.11 --undefined-- 44.682
0.12 --undefined-- 43.293
0.13 --undefined-- 42.801
0.14 --undefined-- 40.996
0.15 --undefined-- 38.916
0.16 --undefined-- 37.384
0.17 --undefined-- 36.281
0.18 --undefined-- 36.417
0.19 --undefined-- 36.408
0.20 --undefined-- 35.447
0.21 --undefined-- 34.402
0.22 --undefined-- 34.250
0.23 --undefined-- 34.277
0.24 --undefined-- 34.183
0.25 --undefined-- 35.123
0.26 --undefined-- 36.006
0.27 --undefined-- 35.120
0.28 --undefined-- 34.690
0.29 --undefined-- 35.246
0.30 --undefined-- 35.666
0.31 --undefined-- 36.213
0.32 --undefined-- 36.530
0.33 --undefined-- 36.427
0.34 --undefined-- 36.290
0.35 --undefined-- 35.706
0.36 --undefined-- 35.244
0.37 --undefined-- 35.899
0.38 --undefined-- 36.405
0.39 --undefined-- 36.024
0.40 --undefined-- 35.903
0.41 --undefined-- 36.660
0.42 --undefined-- 36.031
0.43 --undefined-- 34.723
0.44 --undefined-- 35.021
0.45 --undefined-- 34.612
0.46 --undefined-- 33.495
0.47 --undefined-- 34.739
0.48 --undefined-- 36.320
0.49 --undefined-- 37.980
0.50 --undefined-- 50.565
0.51 --undefined-- 61.489
0.52 --undefined-- 67.814
0.53 126.327 70.861
0.54 125.817 71.857
0.55 125.776 72.013
0.56 126.694 72.023
0.57 127.949 71.930
0.58 128.484 71.549
0.59 128.378 70.647
0.60 129.004 68.886
0.61 129.212 65.479
0.62 127.472 59.930
0.63 128.103 55.086
0.64 128.264 54.056
0.65 127.862 53.420
0.66 127.067 52.353
0.67 127.185 50.743
0.68 --undefined-- 48.744
0.69 --undefined-- 47.398
0.70 --undefined-- 46.944
0.71 --undefined-- 48.353
0.72 --undefined-- 50.532
0.73 --undefined-- 51.110
0.74 --undefined-- 50.365
0.75 --undefined-- 49.815
0.76 --undefined-- 50.606
0.77 --undefined-- 52.149
0.78 --undefined-- 53.309
0.79 --undefined-- 54.346
0.80 --undefined-- 54.625
0.81 --undefined-- 54.171
0.82 --undefined-- 53.942
0.83 --undefined-- 53.768
0.84 --undefined-- 55.110
0.85 --undefined-- 63.354
0.86 --undefined-- 70.134
0.87 --undefined-- 73.494
0.88 117.817 74.523
0.89 115.215 74.238
0.90 111.004 73.381
0.91 107.581 72.841
0.92 105.008 72.568
0.93 102.116 72.319
0.94 100.720 71.820
0.95 100.145 70.181
0.96 100.609 67.400
0.97 101.520 64.848
0.98 --undefined-- 63.627
0.99 --undefined-- 62.024
1.00 --undefined-- 59.675
1.01 --undefined-- 56.780
1.02 --undefined-- 53.027
1.03 --undefined-- 50.591
1.04 --undefined-- 48.854
1.05 --undefined-- 46.742
1.06 --undefined-- 45.770
1.07 --undefined-- 44.736
1.08 --undefined-- 43.103
1.09 --undefined-- 43.820
1.10 --undefined-- 43.851
1.11 --undefined-- 41.837
1.12 --undefined-- 40.088
1.13 --undefined-- 39.738
1.14 --undefined-- 39.627
1.15 --undefined-- 40.116
1.16 --undefined-- 40.645
1.17 --undefined-- 40.996
1.18 --undefined-- 41.110
1.19 --undefined-- 40.534
1.20 --undefined-- 39.359
1.21 --undefined-- 39.194
1.22 --undefined-- 41.112
1.23 --undefined-- 42.249
1.24 --undefined-- 42.221
1.25 --undefined-- 43.882
1.26 --undefined-- 54.986
1.27 --undefined-- 64.200
1.28 --undefined-- 69.558
1.29 135.766 72.237
1.30 132.090 73.439
1.31 128.101 73.796
1.32 123.801 73.355
1.33 118.692 72.357
1.34 115.868 71.162
1.35 112.202 70.086
1.36 107.994 69.237
1.37 103.229 68.424
1.38 98.095 67.386
1.39 91.287 65.884
1.40 85.798 63.559
1.41 84.862 59.871
1.42 --undefined-- 55.101
1.43 --undefined-- 51.197
1.44 --undefined-- 49.748
1.45 --undefined-- 48.866
1.46 --undefined-- 47.774
1.47 --undefined-- 48.100
1.48 --undefined-- 48.931
1.49 --undefined-- 49.864
1.50 --undefined-- 56.993
1.51 --undefined-- 63.559
1.52 92.091 66.943
1.53 93.125 67.376
1.54 93.436 64.933
1.55 94.664 59.901
1.56 96.103 53.845
1.57 92.519 50.406
1.58 --undefined-- 48.496
1.59 --undefined-- 47.177
1.60 --undefined-- 45.138
1.61 --undefined-- 42.015
1.62 --undefined-- 40.763
1.63 --undefined-- 41.384
1.64 --undefined-- 41.088
1.65 --undefined-- 39.251
1.66 --undefined-- 37.914
1.67 --undefined-- 38.155
1.68 --undefined-- 38.020
1.69 --undefined-- 37.982
1.70 --undefined-- 37.506
1.71 --undefined-- 36.000
1.72 --undefined-- 35.079
1.73 --undefined-- 35.213
1.74 --undefined-- 34.718
1.75 --undefined-- 33.642
1.76 --undefined-- 33.443
1.77 --undefined-- 33.539
1.78 --undefined-- 34.613
1.79 --undefined-- 39.157
1.80 --undefined-- 46.000
1.81 --undefined-- 50.608
1.82 --undefined-- 53.056
1.83 --undefined-- 54.297
1.84 --undefined-- 54.331
1.85 --undefined-- 58.677
1.86 --undefined-- 65.920
1.87 --undefined-- 70.105
1.88 --undefined-- 71.801
1.89 --undefined-- 72.172
1.90 --undefined-- 71.801
1.91 --undefined-- 70.796
1.92 --undefined-- 69.263
1.93 84.217 67.363
1.94 80.605 65.089
1.95 80.005 62.561
1.96 80.250 60.569
1.97 78.813 59.539
1.98 79.686 58.589
1.99 82.016 57.443
2.00 84.903 56.834
2.01 87.405 57.388
2.02 86.357 58.757
2.03 86.214 59.482
2.04 84.767 59.122
2.05 81.793 57.956
2.06 77.162 55.599
2.07 --undefined-- 51.677
2.08 --undefined-- 46.796
2.09 --undefined-- 44.845
2.10 --undefined-- 48.982
2.11 --undefined-- 52.330
2.12 --undefined-- 52.909
2.13 --undefined-- 53.101
2.14 --undefined-- 56.011
2.15 --undefined-- 61.527
2.16 107.480 66.021
2.17 106.493 68.893
2.18 102.618 70.316
2.19 100.905 70.422
2.20 98.867 69.460
2.21 92.945 67.360
2.22 90.565 64.438
2.23 83.257 61.575
2.24 82.473 58.749
2.25 81.765 55.056
2.26 --undefined-- 50.458
2.27 --undefined-- 46.994
2.28 --undefined-- 44.568
2.29 --undefined-- 43.634
2.30 --undefined-- 44.907
2.31 --undefined-- 45.025
2.32 --undefined-- 44.629
2.33 --undefined-- 43.947
2.34 --undefined-- 42.486
2.35 --undefined-- 40.846
2.36 --undefined-- 40.521
2.37 --undefined-- 40.271
2.38 --undefined-- 39.032
2.39 --undefined-- 37.033
2.40 --undefined-- 35.397
2.41 --undefined-- 35.210
2.42 --undefined-- 35.734
2.43 --undefined-- 36.104
2.44 --undefined-- 36.497
2.45 --undefined-- 37.225
2.46 --undefined-- 39.125
2.47 --undefined-- 40.705
2.48 --undefined-- 41.076
2.49 --undefined-- 41.468
2.50 --undefined-- 43.001
2.51 --undefined-- 46.025
2.52 --undefined-- 49.323
2.53 --undefined-- 52.757
2.54 --undefined-- 61.547
2.55 --undefined-- 68.871
2.56 --undefined-- 72.625
2.57 136.161 73.753
2.58 130.911 73.513
2.59 126.890 72.924
2.60 125.154 72.343
2.61 123.012 71.550
2.62 120.759 69.815
2.63 119.112 67.252
2.64 122.776 66.000
2.65 124.438 65.894
2.66 125.387 65.472
2.67 125.365 64.259
2.68 123.826 61.677
2.69 --undefined-- 57.409
2.70 --undefined-- 52.360
2.71 --undefined-- 49.966
2.72 --undefined-- 51.412
2.73 --undefined-- 53.954
2.74 --undefined-- 55.048
2.75 --undefined-- 54.593
2.76 --undefined-- 55.922
2.77 --undefined-- 63.381
2.78 153.803 68.933
2.79 144.634 71.508
2.80 136.536 72.252
2.81 132.168 71.889
2.82 125.278 70.475
2.83 121.631 69.084
2.84 117.487 68.267
2.85 110.980 67.128
2.86 105.310 65.914
2.87 98.426 66.883
2.88 93.079 70.183
2.89 93.069 72.350
2.90 --undefined-- 72.453
2.91 --undefined-- 71.179
2.92 76.638 69.713
2.93 74.499 67.778
2.94 87.071 65.496
2.95 90.053 63.135
2.96 90.650 60.725
2.97 75.783 60.016
2.98 77.723 59.984
2.99 77.873 59.366
3.00 80.910 58.886
3.01 81.079 59.018
3.02 80.376 58.723
3.03 78.877 57.249
3.04 --undefined-- 54.311
3.05 --undefined-- 50.268
3.06 --undefined-- 47.353
3.07 --undefined-- 47.528
3.08 --undefined-- 51.489
3.09 --undefined-- 59.932
3.10 --undefined-- 66.410
3.11 --undefined-- 69.732
3.12 99.374 70.592
3.13 99.101 70.344
3.14 97.763 69.925
3.15 96.292 68.927
3.16 95.347 67.271
3.17 93.106 65.665
3.18 91.734 64.028
3.19 83.202 60.900
3.20 96.177 55.779
3.21 96.051 50.303
3.22 --undefined-- 47.617
3.23 --undefined-- 48.228
3.24 --undefined-- 54.807
3.25 --undefined-- 63.674
3.26 --undefined-- 69.145
3.27 --undefined-- 71.581
3.28 108.864 71.980
3.29 108.066 71.552
3.30 107.309 70.858
3.31 103.811 69.351
3.32 98.049 67.191
3.33 97.153 66.868
3.34 93.313 69.578
3.35 --undefined-- 71.957
3.36 --undefined-- 72.408
3.37 --undefined-- 71.236
3.38 76.949 69.197
3.39 75.922 66.740
3.40 75.008 64.099
3.41 84.232 62.244
3.42 84.191 60.655
3.43 84.570 58.494
3.44 --undefined-- 56.924
3.45 --undefined-- 55.891
3.46 76.216 55.427
3.47 76.619 55.103
3.48 75.815 54.121
3.49 --undefined-- 52.543
3.50 --undefined-- 50.657
3.51 --undefined-- 51.345
3.52 --undefined-- 55.976
3.53 82.408 59.558
3.54 88.903 62.800
3.55 --undefined-- 64.529
3.56 --undefined-- 64.088
3.57 --undefined-- 63.891
3.58 --undefined-- 63.504
3.59 82.017 61.647
3.60 --undefined-- 60.001
3.61 --undefined-- 56.948
3.62 --undefined-- 50.728
3.63 --undefined-- 45.898
3.64 --undefined-- 47.209
3.65 --undefined-- 48.564
3.66 --undefined-- 49.874
3.67 --undefined-- 52.363
3.68 --undefined-- 54.000
3.69 --undefined-- 54.329
3.70 --undefined-- 54.085
3.71 --undefined-- 52.976
3.72 --undefined-- 51.956
3.73 --undefined-- 51.771
3.74 --undefined-- 53.704
3.75 --undefined-- 60.878
3.76 --undefined-- 66.562
3.77 99.019 69.578
3.78 96.337 70.856
3.79 94.127 71.253
3.80 93.279 71.446
3.81 93.384 71.852
3.82 94.241 72.437
3.83 95.597 72.838
3.84 97.399 72.619
3.85 99.933 72.154
3.86 102.110 72.499
3.87 103.548 72.826
3.88 104.540 71.845
3.89 103.885 69.911
3.90 101.223 67.956
3.91 99.741 66.272
3.92 97.375 65.172
3.93 92.897 64.319
3.94 90.326 64.098
3.95 88.523 64.717
3.96 89.561 65.467
3.97 86.622 65.920
3.98 86.546 65.964
3.99 86.438 65.637
4.00 86.282 65.167
4.01 86.706 64.970
4.02 86.968 65.018
4.03 88.245 65.119
4.04 85.585 64.809
4.05 85.434 63.377
4.06 87.866 60.784
4.07 87.712 58.368
4.08 --undefined-- 56.399
4.09 --undefined-- 54.488
4.10 --undefined-- 52.669
4.11 --undefined-- 48.924
4.12 --undefined-- 44.736
4.13 --undefined-- 44.375
4.14 --undefined-- 44.667
4.15 --undefined-- 44.238
4.16 --undefined-- 43.312
4.17 --undefined-- 42.225
4.18 --undefined-- 41.063
4.19 --undefined-- 40.143
4.20 --undefined-- 42.024
4.21 --undefined-- 46.737
4.22 --undefined-- 50.790
4.23 --undefined-- 52.397
4.24 --undefined-- 52.897
4.25 --undefined-- 53.959
4.26 --undefined-- 54.349
4.27 --undefined-- 53.897
4.28 --undefined-- 54.515
4.29 --undefined-- 61.209
4.30 --undefined-- 67.830
4.31 --undefined-- 71.245
4.32 --undefined-- 72.013
4.33 --undefined-- 71.054
4.34 84.440 68.884
4.35 82.481 65.939
4.36 80.809 63.552
4.37 80.430 62.192
4.38 80.637 61.126
4.39 81.201 60.164
4.40 82.647 59.612
4.41 82.527 59.478
4.42 81.584 59.988
4.43 83.186 61.746
4.44 82.519 63.990
4.45 82.156 65.473
4.46 81.133 65.797
4.47 80.676 65.400
4.48 79.969 65.260
4.49 79.114 65.641
4.50 78.342 65.323
4.51 --undefined-- 63.364
4.52 --undefined-- 59.728
4.53 --undefined-- 55.792
4.54 --undefined-- 52.931
4.55 --undefined-- 51.534
4.56 --undefined-- 51.403
4.57 --undefined-- 52.294
4.58 --undefined-- 53.258
4.59 --undefined-- 52.929
4.60 --undefined-- 56.266
4.61 --undefined-- 62.971
4.62 --undefined-- 67.564
4.63 --undefined-- 69.723
4.64 85.876 69.860
4.65 84.902 68.886
4.66 81.426 67.528
4.67 80.756 65.545
4.68 80.789 62.946
4.69 81.403 60.970
4.70 83.431 59.844
4.71 86.605 59.414
4.72 90.914 60.317
4.73 92.992 61.669
4.74 94.164 62.302
4.75 94.104 61.721
4.76 91.701 59.741
4.77 87.971 56.787
4.78 91.801 59.928
4.79 --undefined-- 67.478
4.80 --undefined-- 71.648
4.81 --undefined-- 73.027
4.82 94.767 72.909
4.83 93.950 72.758
4.84 93.953 72.914
4.85 94.115 72.665
4.86 92.622 71.618
4.87 89.622 70.088
4.88 84.065 68.207
4.89 80.795 65.745
4.90 79.755 63.065
4.91 76.986 60.322
4.92 76.251 58.127
4.93 77.778 57.158
4.94 77.344 55.980
4.95 76.315 53.677
4.96 --undefined-- 50.810
4.97 --undefined-- 48.597
4.98 --undefined-- 47.247
4.99 --undefined-- 46.698
5.00 --undefined-- 46.062
5.01 --undefined-- 43.871
5.02 --undefined-- 41.815
5.03 --undefined-- 41.103
5.04 --undefined-- 39.645
5.05 --undefined-- 37.785
5.06 --undefined-- 36.509
5.07 --undefined-- 34.457
5.08 --undefined-- 32.150
5.09 --undefined-- 32.562
5.10 --undefined-- 33.739
5.11 --undefined-- 34.667
5.12 --undefined-- 35.897
5.13 --undefined-- 37.611
5.14 --undefined-- 39.986
5.15 --undefined-- 42.340
5.16 --undefined-- 45.081
5.17 --undefined-- 48.238
5.18 --undefined-- 52.011
5.19 --undefined-- 60.815
5.20 --undefined-- 68.013
5.21 108.122 71.648
5.22 105.930 72.585
5.23 101.722 72.081
5.24 97.672 71.216
5.25 95.754 69.906
5.26 94.050 67.370
5.27 90.364 63.453
5.28 --undefined-- 59.183
5.29 --undefined-- 57.051
5.30 80.297 56.673
5.31 94.177 57.366
5.32 84.772 58.763
5.33 86.223 59.900
5.34 86.548 61.053
5.35 86.695 63.048
5.36 85.805 65.508
5.37 84.941 66.587
5.38 85.072 66.596
5.39 84.655 66.245
5.40 84.020 65.434
5.41 82.765 64.938
5.42 80.724 64.571
5.43 79.112 64.009
5.44 77.495 63.160
5.45 77.163 61.521
5.46 75.735 59.109
5.47 79.406 57.539
5.48 79.165 56.670
5.49 78.393 54.458
5.50 77.574 51.202
5.51 --undefined-- 48.089
5.52 --undefined-- 46.857
5.53 --undefined-- 47.639
5.54 --undefined-- 47.808
5.55 --undefined-- 46.767
5.56 --undefined-- 46.889
5.57 --undefined-- 48.674
5.58 --undefined-- 50.167
5.59 --undefined-- 50.556
5.60 --undefined-- 49.917
5.61 --undefined-- 49.036
5.62 --undefined-- 53.407
5.63 --undefined-- 60.035
5.64 96.075 64.117
5.65 90.601 65.846
5.66 88.858 66.614
5.67 88.307 67.438
5.68 88.331 67.826
5.69 88.547 66.686
5.70 83.130 63.643
5.71 87.682 60.475
5.72 84.305 60.879
5.73 86.737 64.568
5.74 --undefined-- 67.131
5.75 78.913 67.552
5.76 79.785 67.732
5.77 --undefined-- 67.240
5.78 --undefined-- 65.920
5.79 --undefined-- 65.835
5.80 --undefined-- 63.833
5.81 --undefined-- 57.914
5.82 --undefined-- 50.169
5.83 --undefined-- 46.971
5.84 --undefined-- 45.852
5.85 --undefined-- 45.458
5.86 --undefined-- 45.029
5.87 --undefined-- 43.850
5.88 --undefined-- 42.971
5.89 --undefined-- 42.014
5.90 --undefined-- 40.405
5.91 --undefined-- 39.506
5.92 --undefined-- 39.200
5.93 --undefined-- 38.679
5.94 --undefined-- 38.085
5.95 --undefined-- 36.902
5.96 --undefined-- 36.067
5.97 --undefined-- 36.026
5.98 --undefined-- 36.504
5.99 --undefined-- 36.496
6.00 --undefined-- 35.615
6.01 --undefined-- 35.862
6.02 --undefined-- 36.671
6.03 --undefined-- 36.076
6.04 --undefined-- 35.429
6.05 --undefined-- 36.594
6.06 --undefined-- 36.016
6.07 --undefined-- 34.355
6.08 --undefined-- 35.420
6.09 --undefined-- 36.123
6.10 --undefined-- 34.715
6.11 --undefined-- 33.283
6.12 --undefined-- 34.052
6.13 --undefined-- 34.760
6.14 --undefined-- 34.678
6.15 --undefined-- 35.044
6.16 --undefined-- 35.017
6.17 --undefined-- 34.605
6.18 --undefined-- 35.631
6.19 --undefined-- 43.810
6.20 --undefined-- 54.194
6.21 --undefined-- 60.783
6.22 98.389 64.566
6.23 94.187 66.634
6.24 94.032 67.911
6.25 92.132 68.662
6.26 92.810 69.083
6.27 93.024 69.263
6.28 92.969 69.020
6.29 92.390 68.052
6.30 89.464 66.064
6.31 86.670 62.649
6.32 --undefined-- 57.469
6.33 --undefined-- 50.998
6.34 --undefined-- 47.188
6.35 --undefined-- 49.994
6.36 --undefined-- 53.974
6.37 --undefined-- 59.033
6.38 --undefined-- 66.380
6.39 --undefined-- 71.899
6.40 139.529 74.652
6.41 138.908 75.130
6.42 137.824 74.137
6.43 136.406 72.838
6.44 136.615 71.834
6.45 138.648 70.909
6.46 137.822 69.920
6.47 136.682 68.702
6.48 135.501 66.914
6.49 130.567 64.740
6.50 130.460 62.701
6.51 132.967 --undefined--
6.52 133.826 --undefined--
6.53 --undefined-- --undefined--
6.54 --undefined-- --undefined--
