Time Pitch Intensity
0.01 --undefined-- --undefined--
0.02 210.241 --undefined--
0.03 217.032 --undefined--
0.04 --undefined-- --undefined--
0.05 --undefined-- 49.560
0.06 --undefined-- 44.437
0.07 --undefined-- 39.899
0.08 --undefined-- 37.161
0.09 --undefined-- 36.051
0.10 --undefined-- 36.701
0.11 --undefined-- 41.308
0.12 --undefined-- 48.586
0.13 --undefined-- 52.404
0.14 --undefined-- 55.106
0.15 221.664 60.619
0.16 209.363 64.787
0.17 187.179 66.849
0.18 172.922 67.967
0.19 169.002 68.870
0.20 164.292 69.842
0.21 162.076 71.206
0.22 160.944 72.783
0.23 160.424 74.162
0.24 160.097 75.172
0.25 159.033 75.655
0.26 157.528 75.232
0.27 157.715 73.898
0.28 159.141 72.678
0.29 157.295 72.123
0.30 154.918 71.721
0.31 152.746 71.206
0.32 149.145 70.183
0.33 141.252 68.744
0.34 136.457 68.217
0.35 135.606 68.599
0.36 133.871 69.114
0.37 134.374 70.136
0.38 135.943 71.335
0.39 138.662 72.106
0.40 141.071 72.148
0.41 141.849 70.995
0.42 141.240 68.171
0.43 129.994 63.638
0.44 152.012 60.084
0.45 159.024 60.985
0.46 159.125 63.967
0.47 156.103 68.330
0.48 152.346 72.203
0.49 151.638 74.570
0.50 144.747 75.308
0.51 140.000 74.955
0.52 134.930 74.040
0.53 129.265 72.436
0.54 124.430 69.478
0.55 116.296 64.412
0.56 --undefined-- 56.926
0.57 --undefined-- 48.496
0.58 --undefined-- 44.271
0.59 --undefined-- 44.016
0.60 --undefined-- 46.092
0.61 --undefined-- 52.288
0.62 --undefined-- 62.330
0.63 --undefined-- 69.527
0.64 154.864 73.568
0.65 148.646 75.293
0.66 145.757 75.502
0.67 145.095 74.792
0.68 --undefined-- 73.618
0.69 --undefined-- 72.415
0.70 --undefined-- 71.283
0.71 --undefined-- 69.569
0.72 --undefined-- 66.964
0.73 --undefined-- 65.580
0.74 --undefined-- 66.577
0.75 137.553 68.388
0.76 119.095 69.754
0.77 121.921 70.237
0.78 121.255 70.254
0.79 118.421 70.213
0.80 118.925 70.088
0.81 120.230 69.862
0.82 124.306 69.549
0.83 123.064 68.598
0.84 119.090 66.321
0.85 114.887 62.687
0.86 115.780 58.036
0.87 --undefined-- 52.496
0.88 --undefined-- 47.549
0.89 --undefined-- 45.429
0.90 --undefined-- 46.110
0.91 --undefined-- 47.876
0.92 --undefined-- 49.050
0.93 --undefined-- 50.422
0.94 --undefined-- 56.871
0.95 200.703 63.649
0.96 185.100 67.630
0.97 171.781 69.744
0.98 169.727 71.221
0.99 167.851 72.495
1.00 172.308 73.141
1.01 162.692 73.336
1.02 154.603 73.909
1.03 149.320 74.206
1.04 141.010 73.501
1.05 136.857 72.242
1.06 137.089 71.217
1.07 142.686 70.891
1.08 140.965 71.492
1.09 136.392 72.625
1.10 134.109 73.545
1.11 130.429 74.037
1.12 127.558 74.176
1.13 126.729 74.199
1.14 126.280 74.153
1.15 126.237 73.927
1.16 127.330 73.756
1.17 127.898 73.701
1.18 127.628 73.455
1.19 126.924 73.103
1.20 127.564 72.926
1.21 128.285 72.749
1.22 127.858 71.840
1.23 127.591 69.575
1.24 126.051 65.944
1.25 115.927 61.926
1.26 --undefined-- 58.155
1.27 --undefined-- 53.052
1.28 --undefined-- 45.073
1.29 --undefined-- 38.851
1.30 --undefined-- 38.479
1.31 --undefined-- 38.183
1.32 --undefined-- 37.588
1.33 --undefined-- 35.806
1.34 --undefined-- 33.851
1.35 --undefined-- 33.778
1.36 --undefined-- 34.597
1.37 --undefined-- 36.070
1.38 --undefined-- 36.563
1.39 --undefined-- 36.174
1.40 --undefined-- 38.476
1.41 --undefined-- 40.902
1.42 --undefined-- 40.627
1.43 --undefined-- 39.324
1.44 --undefined-- 39.785
1.45 --undefined-- 40.561
1.46 --undefined-- 40.883
1.47 --undefined-- 41.032
1.48 --undefined-- 41.151
1.49 --undefined-- 41.546
1.50 --undefined-- 41.738
1.51 --undefined-- 40.752
1.52 --undefined-- 39.284
1.53 --undefined-- 39.045
1.54 --undefined-- 38.856
1.55 --undefined-- 38.118
1.56 --undefined-- 39.166
1.57 --undefined-- 40.271
1.58 --undefined-- 40.626
1.59 --undefined-- 39.540
1.60 --undefined-- 35.971
1.61 --undefined-- 33.524
1.62 --undefined-- 35.037
1.63 --undefined-- 36.182
1.64 --undefined-- 48.284
1.65 --undefined-- 60.914
1.66 204.644 68.762
1.67 193.724 73.008
1.68 191.427 74.818
1.69 189.464 75.490
1.70 189.739 76.134
1.71 191.715 76.944
1.72 192.217 77.408
1.73 193.601 76.972
1.74 201.640 75.571
1.75 206.131 73.995
1.76 206.252 72.933
1.77 205.770 72.066
1.78 204.300 71.391
1.79 203.207 70.882
1.80 200.894 69.973
1.81 192.771 67.886
1.82 173.968 64.153
1.83 179.905 58.751
1.84 --undefined-- 51.589
1.85 --undefined-- 44.219
1.86 --undefined-- 45.705
1.87 --undefined-- 52.153
1.88 --undefined-- 58.201
1.89 --undefined-- 61.537
1.90 --undefined-- 62.527
1.91 --undefined-- 62.880
1.92 --undefined-- 63.484
1.93 --undefined-- 64.301
1.94 --undefined-- 65.499
1.95 --undefined-- 65.718
1.96 --undefined-- 68.281
1.97 224.879 73.384
1.98 210.090 76.463
1.99 196.029 77.124
2.00 187.678 75.661
2.01 181.119 71.950
2.02 153.161 66.215
2.03 149.786 60.632
2.04 --undefined-- 56.776
2.05 --undefined-- 59.083
2.06 --undefined-- 66.006
2.07 199.524 71.333
2.08 189.611 74.389
2.09 185.549 75.521
2.10 185.976 75.545
2.11 187.433 75.422
2.12 186.433 75.530
2.13 184.183 75.532
2.14 181.858 74.593
2.15 172.165 72.130
2.16 152.405 67.985
2.17 --undefined-- 61.900
2.18 --undefined-- 54.154
2.19 --undefined-- 48.484
2.20 --undefined-- 46.261
2.21 --undefined-- 46.461
2.22 --undefined-- 48.264
2.23 --undefined-- 54.698
2.24 --undefined-- 63.126
2.25 229.828 68.307
2.26 208.197 70.816
2.27 190.705 71.879
2.28 188.123 72.420
2.29 187.485 72.952
2.30 186.657 73.512
2.31 185.490 73.880
2.32 184.823 73.971
2.33 185.225 73.758
2.34 185.858 73.234
2.35 185.104 72.484
2.36 182.474 71.535
2.37 175.826 70.401
2.38 174.034 69.276
2.39 165.919 68.006
2.40 --undefined-- 65.535
2.41 --undefined-- 61.533
2.42 --undefined-- 58.138
2.43 --undefined-- 55.278
2.44 --undefined-- 50.039
2.45 --undefined-- 42.175
2.46 --undefined-- 36.424
2.47 --undefined-- 34.568
2.48 --undefined-- 34.031
2.49 --undefined-- 35.110
2.50 --undefined-- 35.223
2.51 --undefined-- 33.613
2.52 --undefined-- 32.663
2.53 --undefined-- 33.702
2.54 --undefined-- 35.191
2.55 --undefined-- 36.246
2.56 --undefined-- 35.776
2.57 --undefined-- 34.732
2.58 --undefined-- 36.506
2.59 --undefined-- 37.903
2.60 --undefined-- 36.864
2.61 --undefined-- 37.448
2.62 --undefined-- 50.996
2.63 --undefined-- 61.157
2.64 --undefined-- 66.972
2.65 --undefined-- 69.858
2.66 144.992 71.197
2.67 144.506 72.092
2.68 144.356 72.878
2.69 143.291 73.524
2.70 143.216 74.012
2.71 143.949 74.346
2.72 144.781 74.576
2.73 145.379 74.811
2.74 145.760 75.057
2.75 146.738 75.209
2.76 148.051 75.230
2.77 148.888 75.184
2.78 149.494 75.074
2.79 150.343 74.764
2.80 150.338 73.731
2.81 143.464 71.187
2.82 134.016 66.658
2.83 --undefined-- 60.409
2.84 --undefined-- 54.691
2.85 --undefined-- 52.432
2.86 --undefined-- 51.213
2.87 --undefined-- 50.443
2.88 --undefined-- 51.512
2.89 --undefined-- 56.212
2.90 --undefined-- 64.477
2.91 272.232 69.896
2.92 273.919 72.495
2.93 253.140 74.141
2.94 221.610 75.305
2.95 218.418 75.838
2.96 217.510 76.494
2.97 212.532 76.644
2.98 211.825 75.242
2.99 221.180 72.969
3.00 218.513 72.054
3.01 215.586 72.394
3.02 212.572 73.177
3.03 208.571 74.796
3.04 202.169 77.416
3.05 196.968 79.602
3.06 191.311 80.240
3.07 183.547 79.447
3.08 175.086 78.424
3.09 168.824 77.993
3.10 163.512 77.612
3.11 159.079 76.600
3.12 149.942 74.143
3.13 135.723 69.355
3.14 --undefined-- 61.909
3.15 --undefined-- 52.931
3.16 --undefined-- 45.253
3.17 --undefined-- 42.883
3.18 --undefined-- 44.574
3.19 --undefined-- 50.689
3.20 --undefined-- 60.658
3.21 188.042 67.905
3.22 172.839 71.740
3.23 164.162 73.226
3.24 158.861 73.744
3.25 155.334 74.023
3.26 152.893 74.238
3.27 149.563 74.849
3.28 148.298 75.639
3.29 148.938 75.845
3.30 148.367 75.250
3.31 149.867 74.384
3.32 147.429 73.929
3.33 143.434 73.880
3.34 139.344 73.919
3.35 136.161 73.925
3.36 138.823 73.628
3.37 124.956 72.510
3.38 119.452 71.145
3.39 114.057 70.290
3.40 111.884 69.485
3.41 108.144 68.639
3.42 106.134 68.294
3.43 108.163 68.478
3.44 109.657 68.629
3.45 111.848 68.815
3.46 113.508 69.082
3.47 114.946 69.048
3.48 114.674 68.176
3.49 111.658 65.908
3.50 103.799 61.951
3.51 100.400 56.794
3.52 --undefined-- 51.624
3.53 --undefined-- 54.196
3.54 --undefined-- 61.238
3.55 --undefined-- 65.579
3.56 --undefined-- 69.011
3.57 157.656 72.223
3.58 160.170 74.551
3.59 162.112 76.135
3.60 165.199 77.315
3.61 168.078 78.160
3.62 169.174 78.383
3.63 170.022 77.862
3.64 171.630 76.803
3.65 171.901 75.592
3.66 171.237 74.845
3.67 170.999 74.292
3.68 172.053 73.360
3.69 169.008 72.048
3.70 163.552 69.625
3.71 146.068 65.412
3.72 143.432 60.097
3.73 153.041 54.489
3.74 --undefined-- 48.185
3.75 --undefined-- 47.348
3.76 --undefined-- 55.596
3.77 --undefined-- 61.427
3.78 --undefined-- 66.491
3.79 193.179 70.835
3.80 183.072 73.391
3.81 179.170 74.395
3.82 177.309 74.575
3.83 176.477 74.448
3.84 176.571 74.240
3.85 177.499 74.108
3.86 177.585 74.082
3.87 177.790 74.218
3.88 177.674 74.533
3.89 177.493 74.833
3.90 175.676 74.779
3.91 172.247 73.940
3.92 164.666 71.774
3.93 153.257 67.651
3.94 142.207 61.098
3.95 --undefined-- 52.664
3.96 --undefined-- 45.617
3.97 --undefined-- 42.738
3.98 --undefined-- 41.937
3.99 --undefined-- 41.893
4.00 --undefined-- 43.242
4.01 --undefined-- 45.164
4.02 --undefined-- 48.059
4.03 --undefined-- 55.790
4.04 220.138 62.140
4.05 201.700 65.539
4.06 186.671 67.053
4.07 184.789 67.954
4.08 182.214 68.734
4.09 180.741 69.360
4.10 180.168 69.758
4.11 180.604 69.986
4.12 182.447 70.159
4.13 183.594 70.276
4.14 183.956 70.267
4.15 183.230 70.117
4.16 181.645 69.835
4.17 178.094 69.524
4.18 173.401 69.268
4.19 171.733 68.667
4.20 --undefined-- 67.111
4.21 --undefined-- 64.422
4.22 --undefined-- 61.397
4.23 --undefined-- 58.786
4.24 --undefined-- 55.607
4.25 --undefined-- 52.931
4.26 --undefined-- 51.209
4.27 --undefined-- 48.677
4.28 --undefined-- 47.711
4.29 --undefined-- 48.586
4.30 --undefined-- 48.841
4.31 --undefined-- 49.074
4.32 --undefined-- 50.169
4.33 --undefined-- 51.336
4.34 --undefined-- 53.847
4.35 --undefined-- 60.213
4.36 165.020 65.081
4.37 137.583 67.489
4.38 132.037 68.532
4.39 129.319 69.151
4.40 123.111 69.289
4.41 121.057 69.051
4.42 121.925 68.935
4.43 122.673 68.824
4.44 124.683 68.566
4.45 123.625 67.963
4.46 119.964 66.195
4.47 113.457 62.496
4.48 --undefined-- 56.701
4.49 --undefined-- 50.090
4.50 --undefined-- 48.217
4.51 --undefined-- 50.338
4.52 --undefined-- 53.982
4.53 --undefined-- 58.333
4.54 --undefined-- 60.762
4.55 --undefined-- 61.269
4.56 --undefined-- 61.895
4.57 --undefined-- 62.541
4.58 --undefined-- 61.298
4.59 --undefined-- 63.308
4.60 --undefined-- 67.947
4.61 --undefined-- 69.412
4.62 --undefined-- 67.652
4.63 --undefined-- 63.279
4.64 --undefined-- 56.708
4.65 --undefined-- 49.108
4.66 --undefined-- 44.037
4.67 --undefined-- 42.353
4.68 --undefined-- 39.714
4.69 --undefined-- 36.762
4.70 --undefined-- 38.040
4.71 --undefined-- 49.086
4.72 --undefined-- 58.146
4.73 176.430 63.688
4.74 154.125 67.201
4.75 147.686 69.697
4.76 141.587 71.131
4.77 137.332 71.398
4.78 131.421 70.839
4.79 129.814 70.154
4.80 130.539 69.856
4.81 131.805 69.578
4.82 132.485 68.756
4.83 130.924 66.839
4.84 118.888 63.212
4.85 102.212 57.525
4.86 --undefined-- 53.548
4.87 --undefined-- 60.102
4.88 --undefined-- 66.226
4.89 136.086 69.654
4.90 131.369 70.649
4.91 127.190 69.670
4.92 117.753 67.934
4.93 120.354 68.116
4.94 131.176 69.504
4.95 137.237 70.411
4.96 143.978 71.148
4.97 152.868 72.438
4.98 154.566 73.935
4.99 155.137 74.774
5.00 156.355 74.988
5.01 158.630 75.113
5.02 159.436 75.118
5.03 158.838 74.619
5.04 155.363 73.742
5.05 158.256 72.882
5.06 152.354 71.299
5.07 142.604 68.027
5.08 130.394 62.657
5.09 --undefined-- 55.822
5.10 --undefined-- 51.459
5.11 --undefined-- 52.930
5.12 --undefined-- 57.395
5.13 173.952 64.158
5.14 161.136 69.319
5.15 143.938 72.011
5.16 137.097 73.131
5.17 131.454 73.365
5.18 128.212 73.127
5.19 128.096 72.967
5.20 129.177 73.175
5.21 129.772 73.552
5.22 130.305 73.906
5.23 129.629 74.002
5.24 128.579 73.563
5.25 128.766 72.737
5.26 129.400 72.134
5.27 129.151 71.961
5.28 130.461 71.813
5.29 131.960 71.245
5.30 132.034 70.130
5.31 132.372 68.563
5.32 --undefined-- 66.503
5.33 --undefined-- 63.432
5.34 --undefined-- 58.516
5.35 --undefined-- 50.657
5.36 --undefined-- 43.171
5.37 --undefined-- 40.193
5.38 --undefined-- 37.791
5.39 --undefined-- 35.705
5.40 --undefined-- 35.427
5.41 --undefined-- 36.769
5.42 --undefined-- 37.882
5.43 --undefined-- 37.675
5.44 --undefined-- 36.604
5.45 --undefined-- 36.098
5.46 --undefined-- 35.537
5.47 --undefined-- 34.203
5.48 --undefined-- 34.581
5.49 --undefined-- 35.836
5.50 --undefined-- 36.438
5.51 --undefined-- 36.757
5.52 --undefined-- 36.726
5.53 --undefined-- 36.992
5.54 --undefined-- 38.197
5.55 --undefined-- 39.646
5.56 --undefined-- 40.216
5.57 --undefined-- 40.475
5.58 --undefined-- 41.192
5.59 --undefined-- 41.869
5.60 --undefined-- 42.392
5.61 --undefined-- 42.396
5.62 --undefined-- 42.052
5.63 --undefined-- 41.401
5.64 --undefined-- 40.631
5.65 --undefined-- 40.318
5.66 --undefined-- 40.452
5.67 --undefined-- 40.186
5.68 --undefined-- 38.599
5.69 --undefined-- 37.060
5.70 --undefined-- 37.071
5.71 --undefined-- 36.573
5.72 --undefined-- 36.476
5.73 --undefined-- 37.571
5.74 --undefined-- 38.529
5.75 --undefined-- 38.731
5.76 --undefined-- 37.830
5.77 --undefined-- 35.443
5.78 --undefined-- 34.323
5.79 --undefined-- 36.553
5.80 --undefined-- 39.350
5.81 --undefined-- 42.629
5.82 --undefined-- 45.416
5.83 --undefined-- 49.766
5.84 --undefined-- 59.129
5.85 169.056 66.737
5.86 167.338 71.488
5.87 169.000 73.923
5.88 174.808 74.480
5.89 182.953 73.901
5.90 192.752 73.106
5.91 200.444 72.496
5.92 205.055 72.053
5.93 209.685 71.943
5.94 217.178 72.255
5.95 220.042 72.677
5.96 221.038 73.196
5.97 220.258 74.300
5.98 216.420 76.616
5.99 210.027 79.440
6.00 204.151 --undefined--
6.01 197.624 --undefined--
6.02 --undefined-- --undefined--
6.03 --undefined-- --undefined--
