Time Pitch Intensity
0.01 --undefined-- --undefined--
0.02 --undefined-- --undefined--
0.03 --undefined-- --undefined--
0.04 --undefined-- --undefined--
0.05 --undefined-- 58.420
0.06 --undefined-- 60.023
0.07 --undefined-- 60.867
0.08 --undefined-- 61.492
0.09 --undefined-- 61.809
0.10 --undefined-- 61.413
0.11 --undefined-- 60.688
0.12 --undefined-- 65.110
0.13 160.208 70.805
0.14 151.836 74.418
0.15 146.279 76.537
0.16 143.015 77.782
0.17 141.248 78.292
0.18 141.066 78.137
0.19 140.268 77.454
0.20 139.554 76.452
0.21 139.246 75.512
0.22 138.656 74.614
0.23 137.743 73.483
0.24 140.401 72.393
0.25 140.521 71.854
0.26 139.798 71.543
0.27 138.813 70.934
0.28 138.228 69.860
0.29 136.178 68.277
0.30 132.566 65.858
0.31 128.849 62.484
0.32 128.811 58.012
0.33 --undefined-- 52.766
0.34 --undefined-- 51.413
0.35 --undefined-- 56.879
0.36 172.894 64.062
0.37 161.822 69.145
0.38 151.640 71.848
0.39 143.491 73.099
0.40 140.165 73.864
0.41 138.885 74.410
0.42 138.450 74.679
0.43 138.294 74.651
0.44 137.885 74.467
0.45 137.511 74.235
0.46 137.951 73.968
0.47 137.595 73.477
0.48 137.089 72.288
0.49 132.877 70.462
0.50 136.795 69.268
0.51 138.165 68.760
0.52 138.656 68.030
0.53 137.773 66.694
0.54 134.724 64.587
0.55 138.311 61.926
0.56 143.930 58.466
0.57 --undefined-- 53.118
0.58 --undefined-- 49.661
0.59 --undefined-- 49.986
0.60 --undefined-- 49.961
0.61 --undefined-- 50.690
0.62 --undefined-- 50.261
0.63 --undefined-- 48.686
0.64 --undefined-- 46.174
0.65 --undefined-- 41.859
0.66 --undefined-- 38.086
0.67 --undefined-- 37.001
0.68 --undefined-- 37.037
0.69 --undefined-- 49.786
0.70 --undefined-- 61.896
0.71 --undefined-- 68.609
0.72 --undefined-- 71.948
0.73 --undefined-- 74.092
0.74 179.485 75.890
0.75 177.952 76.802
0.76 178.064 76.535
0.77 177.865 75.444
0.78 177.187 74.837
0.79 178.547 74.993
0.80 178.298 74.935
0.81 177.214 74.504
0.82 174.649 73.846
0.83 170.522 73.084
0.84 164.174 72.148
0.85 156.898 70.730
0.86 148.259 69.357
0.87 141.784 69.932
0.88 140.119 71.902
0.89 136.444 73.262
0.90 127.041 73.815
0.91 122.740 73.892
0.92 120.067 72.678
0.93 112.175 69.084
0.94 90.768 62.693
0.95 --undefined-- 54.950
0.96 --undefined-- 48.593
0.97 --undefined-- 43.449
0.98 --undefined-- 41.220
0.99 --undefined-- 43.287
1.00 --undefined-- 44.990
1.01 --undefined-- 46.268
1.02 --undefined-- 49.103
1.03 --undefined-- 55.811
1.04 --undefined-- 65.170
1.05 --undefined-- 71.538
1.06 168.136 75.008
1.07 163.508 76.527
1.08 160.348 76.702
1.09 157.951 75.386
1.10 156.784 72.949
1.11 163.020 72.025
1.12 161.047 72.712
1.13 161.706 73.214
1.14 160.785 73.434
1.15 157.690 73.266
1.16 153.975 72.468
1.17 149.814 70.964
1.18 142.459 68.612
1.19 132.542 64.939
1.20 123.778 59.746
1.21 --undefined-- 55.080
1.22 --undefined-- 55.980
1.23 --undefined-- 62.789
1.24 153.568 69.342
1.25 136.681 72.833
1.26 128.951 73.802
1.27 120.072 73.307
1.28 113.186 72.252
1.29 108.269 71.154
1.30 108.222 70.495
1.31 108.554 70.135
1.32 110.816 69.864
1.33 116.983 69.891
1.34 122.890 70.150
1.35 125.335 69.841
1.36 128.898 68.646
1.37 131.788 67.260
1.38 131.375 65.863
1.39 127.943 63.521
1.40 123.584 59.642
1.41 --undefined-- 55.415
1.42 --undefined-- 55.114
1.43 --undefined-- 58.163
1.44 188.632 64.855
1.45 177.592 70.621
1.46 161.769 73.515
1.47 150.627 73.949
1.48 142.503 72.760
1.49 141.852 71.320
1.50 145.919 70.872
1.51 146.334 71.018
1.52 145.572 71.055
1.53 144.580 70.882
1.54 143.893 70.457
1.55 143.005 69.647
1.56 141.773 68.457
1.57 139.880 66.967
1.58 137.236 64.799
1.59 138.073 61.113
1.60 --undefined-- 55.927
1.61 --undefined-- 51.349
1.62 --undefined-- 49.775
1.63 --undefined-- 56.651
1.64 --undefined-- 66.546
1.65 197.486 72.859
1.66 178.001 76.225
1.67 164.220 77.697
1.68 160.217 78.168
1.69 157.129 78.099
1.70 155.653 77.266
1.71 153.567 75.013
1.72 153.712 71.884
1.73 153.504 70.017
1.74 154.044 69.096
1.75 156.023 68.083
1.76 157.811 66.870
1.77 158.001 65.450
1.78 157.074 63.619
1.79 152.982 61.171
1.80 139.070 58.380
1.81 --undefined-- 55.639
1.82 --undefined-- 52.206
1.83 --undefined-- 48.294
1.84 --undefined-- 45.218
1.85 --undefined-- 41.821
1.86 --undefined-- 38.537
1.87 --undefined-- 37.131
1.88 --undefined-- 36.246
1.89 --undefined-- 34.499
1.90 --undefined-- 34.322
1.91 --undefined-- 36.258
1.92 --undefined-- 37.731
1.93 --undefined-- 37.881
1.94 --undefined-- 36.996
1.95 --undefined-- 36.709
1.96 --undefined-- 35.788
1.97 --undefined-- 34.226
1.98 --undefined-- 33.978
1.99 --undefined-- 34.368
2.00 --undefined-- 35.424
2.01 --undefined-- 36.099
2.02 --undefined-- 36.249
2.03 --undefined-- 36.072
2.04 --undefined-- 35.154
2.05 --undefined-- 34.516
2.06 --undefined-- 34.953
2.07 --undefined-- 34.555
2.08 --undefined-- 33.513
2.09 --undefined-- 33.608
2.10 --undefined-- 34.824
2.11 --undefined-- 35.320
2.12 --undefined-- 35.702
2.13 --undefined-- 36.772
2.14 --undefined-- 36.811
2.15 --undefined-- 35.828
2.16 --undefined-- 36.507
2.17 --undefined-- 37.622
2.18 --undefined-- 37.291
2.19 --undefined-- 37.947
2.20 --undefined-- 38.654
2.21 --undefined-- 37.751
2.22 --undefined-- 36.845
2.23 --undefined-- 36.061
2.24 --undefined-- 35.489
2.25 --undefined-- 37.020
2.26 --undefined-- 38.190
2.27 --undefined-- 38.334
2.28 --undefined-- 38.395
2.29 --undefined-- 38.413
2.30 --undefined-- 38.659
2.31 --undefined-- 39.385
2.32 --undefined-- 40.427
2.33 --undefined-- 41.357
2.34 --undefined-- 41.295
2.35 --undefined-- 40.827
2.36 --undefined-- 41.009
2.37 --undefined-- 40.765
2.38 --undefined-- 40.074
2.39 --undefined-- 38.808
2.40 --undefined-- 37.708
2.41 --undefined-- 37.265
2.42 --undefined-- 37.543
2.43 --undefined-- 37.559
2.44 --undefined-- 37.453
2.45 --undefined-- 37.946
2.46 --undefined-- 38.235
2.47 --undefined-- 37.462
2.48 --undefined-- 37.640
2.49 --undefined-- 40.306
2.50 --undefined-- 41.307
2.51 --undefined-- 39.184
2.52 --undefined-- 34.849
2.53 --undefined-- 35.750
2.54 --undefined-- 38.773
2.55 --undefined-- 44.056
2.56 --undefined-- 49.986
2.57 --undefined-- 55.853
2.58 --undefined-- 63.197
2.59 141.488 68.911
2.60 133.394 72.125
2.61 133.029 72.782
2.62 133.733 71.199
2.63 152.059 68.994
2.64 162.613 68.111
2.65 173.906 68.245
2.66 178.788 68.804
2.67 176.582 70.193
2.68 171.285 73.655
2.69 173.109 76.996
2.70 167.113 78.834
2.71 159.425 79.513
2.72 154.200 79.560
2.73 148.751 79.240
2.74 140.656 78.421
2.75 135.209 77.174
2.76 130.064 76.113
2.77 125.277 74.979
2.78 118.795 72.344
2.79 108.526 67.334
2.80 99.325 60.465
2.81 --undefined-- 54.596
2.82 --undefined-- 51.948
2.83 --undefined-- 49.635
2.84 --undefined-- 46.334
2.85 --undefined-- 42.516
2.86 --undefined-- 46.143
2.87 --undefined-- 58.202
2.88 --undefined-- 66.455
2.89 182.688 71.169
2.90 170.436 73.432
2.91 167.679 74.349
2.92 167.549 74.720
2.93 169.016 74.957
2.94 171.509 75.258
2.95 174.594 75.836
2.96 176.904 76.791
2.97 178.017 77.754
2.98 178.553 78.172
2.99 179.802 77.480
3.00 177.302 75.270
3.01 172.090 72.172
3.02 170.888 69.358
3.03 162.115 66.216
3.04 --undefined-- 62.091
3.05 --undefined-- 56.314
3.06 --undefined-- 47.934
3.07 --undefined-- 41.256
3.08 --undefined-- 39.711
3.09 --undefined-- 42.641
3.10 --undefined-- 52.917
3.11 --undefined-- 60.306
3.12 114.145 65.145
3.13 128.273 68.284
3.14 125.453 69.960
3.15 120.531 70.665
3.16 117.853 70.976
3.17 116.970 71.087
3.18 116.945 71.042
3.19 117.467 70.989
3.20 118.731 71.062
3.21 120.033 71.229
3.22 121.721 71.407
3.23 123.903 71.478
3.24 126.013 71.233
3.25 127.988 70.507
3.26 129.687 69.414
3.27 129.424 68.184
3.28 127.755 66.497
3.29 120.606 63.654
3.30 108.637 60.802
3.31 --undefined-- 63.747
3.32 --undefined-- 68.470
3.33 --undefined-- 73.553
3.34 147.334 77.525
3.35 143.157 79.802
3.36 139.054 80.557
3.37 135.833 80.154
3.38 133.440 79.056
3.39 129.633 77.336
3.40 125.676 74.561
3.41 113.854 70.144
3.42 113.685 63.691
3.43 --undefined-- 55.540
3.44 --undefined-- 48.646
3.45 --undefined-- 45.836
3.46 --undefined-- 43.917
3.47 --undefined-- 50.795
3.48 --undefined-- 60.434
3.49 --undefined-- 67.553
3.50 171.779 72.075
3.51 162.242 74.331
3.52 157.022 75.044
3.53 155.129 74.931
3.54 154.788 74.323
3.55 154.436 73.554
3.56 156.904 73.175
3.57 157.847 73.002
3.58 157.664 72.688
3.59 157.763 72.402
3.60 155.926 72.167
3.61 152.159 71.541
3.62 150.692 70.337
3.63 147.389 68.960
3.64 141.239 68.249
3.65 140.645 68.932
3.66 135.405 70.262
3.67 134.093 71.006
3.68 132.458 70.887
3.69 123.927 70.544
3.70 118.450 69.826
3.71 116.749 67.467
3.72 123.568 62.656
3.73 --undefined-- 55.300
3.74 --undefined-- 47.807
3.75 --undefined-- 48.532
3.76 --undefined-- 55.294
3.77 146.502 61.652
3.78 152.100 67.938
3.79 152.893 72.825
3.80 152.449 76.201
3.81 151.941 78.349
3.82 153.694 79.405
3.83 155.896 79.585
3.84 160.021 79.450
3.85 163.428 79.323
3.86 166.519 78.903
3.87 169.400 78.086
3.88 171.488 76.710
3.89 171.851 74.455
3.90 170.890 71.981
3.91 170.353 70.278
3.92 167.285 68.879
3.93 164.065 67.359
3.94 161.352 65.654
3.95 158.603 63.619
3.96 158.383 60.811
3.97 156.904 56.537
3.98 --undefined-- 50.027
3.99 --undefined-- 41.327
4.00 --undefined-- 37.190
4.01 --undefined-- 37.373
4.02 --undefined-- 36.800
4.03 --undefined-- 36.630
4.04 --undefined-- 37.463
4.05 --undefined-- 37.251
4.06 --undefined-- 35.564
4.07 --undefined-- 34.898
4.08 --undefined-- 34.487
4.09 --undefined-- 35.254
4.10 --undefined-- 37.923
4.11 --undefined-- 38.798
4.12 --undefined-- 38.061
4.13 --undefined-- 37.226
4.14 --undefined-- 36.441
4.15 --undefined-- 35.891
4.16 --undefined-- 35.907
4.17 --undefined-- 35.712
4.18 --undefined-- 35.244
4.19 --undefined-- 34.281
4.20 --undefined-- 33.793
4.21 --undefined-- 34.388
4.22 --undefined-- 34.674
4.23 --undefined-- 34.951
4.24 --undefined-- 36.073
4.25 --undefined-- 37.658
4.26 --undefined-- 38.282
4.27 --undefined-- 37.574
4.28 --undefined-- 37.453
4.29 --undefined-- 37.606
4.30 --undefined-- 37.917
4.31 --undefined-- 38.744
4.32 --undefined-- 38.969
4.33 --undefined-- 38.476
4.34 --undefined-- 36.615
4.35 --undefined-- 35.125
4.36 --undefined-- 35.825
4.37 --undefined-- 35.608
4.38 --undefined-- 34.447
4.39 --undefined-- 34.260
4.40 --undefined-- 35.036
4.41 --undefined-- 36.830
4.42 --undefined-- 38.583
4.43 --undefined-- 38.902
4.44 --undefined-- 37.825
4.45 --undefined-- 36.344
4.46 --undefined-- 35.507
4.47 --undefined-- 34.355
4.48 --undefined-- 33.689
4.49 --undefined-- 34.363
4.50 --undefined-- 34.413
4.51 --undefined-- 33.866
4.52 --undefined-- 33.506
4.53 --undefined-- 41.639
4.54 --undefined-- 51.902
4.55 --undefined-- 57.753
4.56 --undefined-- 60.031
4.57 --undefined-- 63.059
4.58 166.470 69.645
4.59 162.068 74.052
4.60 154.422 76.116
4.61 150.805 76.755
4.62 148.963 76.111
4.63 145.528 73.700
4.64 146.879 72.189
4.65 144.104 74.476
4.66 145.017 76.853
4.67 145.036 78.270
4.68 141.387 78.754
4.69 137.066 78.524
4.70 135.608 77.752
4.71 133.616 76.196
4.72 127.666 73.120
4.73 108.462 67.744
4.74 103.849 60.351
4.75 --undefined-- 52.660
4.76 --undefined-- 46.332
4.77 --undefined-- 43.986
4.78 --undefined-- 42.130
4.79 --undefined-- 40.574
4.80 --undefined-- 52.089
4.81 --undefined-- 64.437
4.82 --undefined-- 72.392
4.83 174.945 76.959
4.84 166.411 78.933
4.85 161.200 79.454
4.86 160.083 79.589
4.87 161.266 79.581
4.88 163.331 79.508
4.89 164.154 79.543
4.90 163.736 79.667
4.91 163.212 79.706
4.92 162.583 79.587
4.93 162.310 79.417
4.94 161.155 79.119
4.95 159.824 78.190
4.96 159.367 76.487
4.97 157.395 74.069
4.98 150.331 70.078
4.99 136.492 63.631
5.00 --undefined-- 55.657
5.01 --undefined-- 49.810
5.02 --undefined-- 46.382
5.03 --undefined-- 43.366
5.04 --undefined-- 46.946
5.05 --undefined-- 52.960
5.06 --undefined-- 55.252
5.07 --undefined-- 53.988
5.08 --undefined-- 52.446
5.09 --undefined-- 57.182
5.10 --undefined-- 65.474
5.11 --undefined-- 71.177
5.12 139.767 74.136
5.13 134.650 75.124
5.14 130.023 74.966
5.15 126.476 74.441
5.16 124.060 73.995
5.17 123.545 73.676
5.18 122.523 73.605
5.19 121.822 73.521
5.20 121.570 72.899
5.21 122.090 71.424
5.22 120.526 68.956
5.23 116.045 65.242
5.24 118.393 59.845
5.25 --undefined-- 53.114
5.26 --undefined-- 47.767
5.27 --undefined-- 44.762
5.28 --undefined-- 41.400
5.29 --undefined-- 38.235
5.30 --undefined-- 38.040
5.31 --undefined-- 37.615
5.32 --undefined-- 36.578
5.33 --undefined-- 36.860
5.34 --undefined-- 37.065
5.35 --undefined-- 37.147
5.36 --undefined-- 36.703
5.37 --undefined-- 35.553
5.38 --undefined-- 36.337
5.39 --undefined-- 37.177
5.40 --undefined-- 36.273
5.41 --undefined-- 35.597
5.42 --undefined-- 36.503
5.43 --undefined-- 36.625
5.44 --undefined-- 35.415
5.45 --undefined-- 35.565
5.46 --undefined-- 36.450
5.47 --undefined-- 36.535
5.48 --undefined-- 36.653
5.49 --undefined-- 38.090
5.50 --undefined-- 40.446
5.51 --undefined-- 40.736
5.52 --undefined-- 39.352
5.53 --undefined-- 38.146
5.54 --undefined-- 37.682
5.55 --undefined-- 38.020
5.56 --undefined-- 39.584
5.57 --undefined-- 47.218
5.58 --undefined-- 55.874
5.59 --undefined-- 64.048
5.60 144.841 69.763
5.61 122.192 72.387
5.62 112.898 72.761
5.63 112.336 72.210
5.64 112.239 71.945
5.65 116.818 72.242
5.66 119.037 72.752
5.67 120.769 72.902
5.68 123.473 72.460
5.69 127.775 71.954
5.70 132.413 72.367
5.71 143.485 74.017
5.72 149.392 76.066
5.73 156.532 77.855
5.74 156.953 78.905
5.75 158.487 79.616
5.76 159.518 80.332
5.77 160.048 80.678
5.78 162.291 80.748
5.79 164.941 80.383
5.80 166.435 79.246
5.81 166.948 76.866
5.82 166.863 72.556
5.83 --undefined-- 66.264
5.84 --undefined-- 60.255
5.85 --undefined-- 55.531
5.86 --undefined-- 51.062
5.87 --undefined-- 45.935
5.88 --undefined-- 40.881
5.89 --undefined-- 37.804
5.90 --undefined-- 35.402
5.91 --undefined-- 33.791
5.92 --undefined-- 33.917
5.93 --undefined-- 33.449
5.94 --undefined-- 33.889
5.95 --undefined-- 37.154
5.96 --undefined-- 38.936
5.97 --undefined-- 37.829
5.98 --undefined-- 35.548
5.99 --undefined-- 36.975
6.00 --undefined-- 40.217
6.01 --undefined-- 40.669
6.02 --undefined-- 38.389
6.03 --undefined-- 37.301
6.04 --undefined-- 37.854
6.05 --undefined-- 38.270
6.06 --undefined-- 38.067
6.07 --undefined-- 36.898
6.08 --undefined-- 36.389
6.09 --undefined-- 37.581
6.10 --undefined-- 39.475
6.11 --undefined-- 40.635
6.12 --undefined-- 40.497
6.13 --undefined-- 39.995
6.14 --undefined-- 40.195
6.15 --undefined-- 39.786
6.16 --undefined-- 37.813
6.17 --undefined-- 35.522
6.18 --undefined-- 35.031
6.19 --undefined-- 35.660
6.20 --undefined-- 36.565
6.21 --undefined-- 38.944
6.22 --undefined-- 41.072
6.23 --undefined-- 41.634
6.24 --undefined-- 41.597
6.25 --undefined-- 41.852
6.26 --undefined-- 41.668
6.27 --undefined-- 41.503
6.28 --undefined-- 42.216
6.29 --undefined-- 43.984
6.30 --undefined-- 46.430
6.31 --undefined-- 54.762
6.32 --undefined-- 65.864
6.33 194.186 72.988
6.34 175.142 76.572
6.35 164.549 77.654
6.36 162.737 77.087
6.37 161.369 75.530
6.38 156.047 73.330
6.39 151.337 70.374
6.40 --undefined-- 66.588
6.41 --undefined-- 62.841
6.42 75.380 60.572
6.43 142.124 60.449
6.44 129.646 62.261
6.45 147.380 64.825
6.46 155.062 67.031
6.47 159.461 68.876
6.48 160.043 71.055
6.49 162.183 73.883
6.50 155.545 76.345
6.51 151.124 77.681
6.52 149.976 78.171
6.53 148.745 78.082
6.54 148.638 77.262
6.55 144.438 75.376
6.56 --undefined-- 71.966
6.57 --undefined-- 66.640
6.58 --undefined-- 59.911
6.59 --undefined-- 52.614
6.60 --undefined-- 44.768
6.61 --undefined-- 41.128
6.62 --undefined-- 39.919
6.63 --undefined-- 39.781
6.64 --undefined-- 46.577
6.65 --undefined-- 53.097
6.66 137.179 57.002
6.67 124.766 60.325
6.68 124.742 64.169
6.69 123.755 67.594
6.70 125.085 70.235
6.71 126.235 72.075
6.72 127.000 73.326
6.73 127.784 74.162
6.74 128.380 74.754
6.75 130.400 75.218
6.76 132.022 75.655
6.77 133.681 76.070
6.78 136.157 76.430
6.79 138.627 76.800
6.80 140.120 77.208
6.81 141.566 77.545
6.82 142.886 77.786
6.83 145.193 77.925
6.84 147.780 77.943
6.85 150.523 77.910
6.86 154.877 77.796
6.87 158.067 77.580
6.88 163.667 77.311
6.89 166.478 76.579
6.90 167.396 74.828
6.91 163.847 71.673
6.92 --undefined-- 67.311
6.93 --undefined-- 62.196
6.94 --undefined-- 55.740
6.95 --undefined-- 47.873
6.96 --undefined-- 43.646
6.97 --undefined-- 40.918
6.98 --undefined-- 40.861
6.99 --undefined-- 51.192
7.00 --undefined-- 59.855
7.01 --undefined-- 65.355
7.02 146.898 68.654
7.03 144.291 70.525
7.04 139.954 71.523
7.05 135.790 71.956
7.06 131.337 71.985
7.07 127.066 --undefined--
7.08 123.132 --undefined--
7.09 --undefined-- --undefined--
7.10 --undefined-- --undefined--
