Time Pitch Intensity
0.01 --undefined-- --undefined--
0.02 224.769 --undefined--
0.03 224.624 --undefined--
0.04 224.774 --undefined--
0.05 223.853 70.503
0.06 220.547 68.968
0.07 216.811 65.495
0.08 227.958 59.531
0.09 --undefined-- 51.218
0.10 --undefined-- 43.250
0.11 --undefined-- 40.018
0.12 --undefined-- 41.050
0.13 --undefined-- 51.864
0.14 --undefined-- 61.287
0.15 225.941 66.428
0.16 211.455 68.143
0.17 193.700 67.716
0.18 187.209 67.006
0.19 183.712 66.769
0.20 180.353 66.832
0.21 178.379 67.194
0.22 176.919 67.682
0.23 175.436 68.023
0.24 173.630 68.051
0.25 171.929 67.298
0.26 171.084 64.922
0.27 170.905 60.083
0.28 --undefined-- 52.098
0.29 --undefined-- 41.948
0.30 --undefined-- 37.008
0.31 --undefined-- 35.961
0.32 --undefined-- 36.472
0.33 --undefined-- 37.737
0.34 --undefined-- 39.145
0.35 --undefined-- 41.588
0.36 --undefined-- 46.881
0.37 --undefined-- 56.727
0.38 189.451 63.536
0.39 177.787 66.526
0.40 164.991 66.903
0.41 154.826 66.120
0.42 146.878 65.418
0.43 138.559 65.345
0.44 135.768 65.748
0.45 135.243 66.315
0.46 135.283 66.947
0.47 134.744 67.546
0.48 133.742 67.957
0.49 134.316 67.873
0.50 135.546 66.976
0.51 134.598 64.962
0.52 131.207 61.458
0.53 --undefined-- 55.931
0.54 --undefined-- 50.588
0.55 --undefined-- 53.564
0.56 --undefined-- 60.164
0.57 --undefined-- 65.336
0.58 165.427 67.737
0.59 164.585 68.137
0.60 162.763 67.803
0.61 163.355 67.737
0.62 163.836 67.956
0.63 164.181 68.207
0.64 164.146 68.436
0.65 163.471 68.620
0.66 163.134 68.724
0.67 163.077 68.762
0.68 164.176 68.769
0.69 165.914 68.785
0.70 167.234 68.745
0.71 167.212 68.181
0.72 165.480 66.170
0.73 160.847 61.731
0.74 --undefined-- 54.144
0.75 --undefined-- 43.636
0.76 --undefined-- 36.466
0.77 --undefined-- 39.720
0.78 --undefined-- 45.849
0.79 --undefined-- 50.122
0.80 --undefined-- 51.674
0.81 --undefined-- 51.948
0.82 --undefined-- 55.616
0.83 201.274 62.703
0.84 196.558 67.696
0.85 192.050 70.059
0.86 176.946 70.330
0.87 156.886 69.123
0.88 148.256 67.660
0.89 143.223 67.365
0.90 139.857 67.848
0.91 138.496 68.163
0.92 139.235 68.224
0.93 139.606 68.220
0.94 139.023 68.189
0.95 137.126 67.997
0.96 133.477 67.249
0.97 129.177 65.425
0.98 121.828 62.516
0.99 119.428 60.303
1.00 130.502 60.674
1.01 143.655 62.683
1.02 152.721 65.344
1.03 157.033 67.283
1.04 149.954 67.944
1.05 147.850 67.887
1.06 146.122 67.651
1.07 143.487 67.395
1.08 140.752 67.334
1.09 139.971 67.595
1.10 139.128 67.995
1.11 138.963 68.259
1.12 139.890 68.259
1.13 140.704 67.882
1.14 140.197 66.858
1.15 138.721 64.826
1.16 136.158 61.376
1.17 133.210 55.924
1.18 --undefined-- 47.832
1.19 --undefined-- 38.745
1.20 --undefined-- 43.765
1.21 --undefined-- 55.594
1.22 --undefined-- 63.722
1.23 185.731 68.144
1.24 173.986 69.819
1.25 169.867 70.028
1.26 167.356 69.842
1.27 163.671 69.503
1.28 159.813 69.398
1.29 162.448 69.878
1.30 163.873 70.411
1.31 164.088 70.658
1.32 164.705 70.631
1.33 165.844 70.314
1.34 167.027 69.569
1.35 167.550 68.067
1.36 167.260 65.243
1.37 172.104 60.361
1.38 --undefined-- 52.754
1.39 --undefined-- 48.104
1.40 --undefined-- 52.614
1.41 --undefined-- 61.022
1.42 --undefined-- 67.388
1.43 213.238 70.533
1.44 212.386 71.657
1.45 212.599 72.115
1.46 212.285 72.423
1.47 211.910 72.598
1.48 211.824 72.766
1.49 211.339 73.052
1.50 210.501 73.480
1.51 210.411 73.963
1.52 211.922 74.397
1.53 213.451 74.667
1.54 212.758 74.550
1.55 209.147 73.581
1.56 202.478 71.136
1.57 193.365 66.768
1.58 185.443 60.798
1.59 198.103 54.732
1.60 --undefined-- 49.628
1.61 --undefined-- 46.323
1.62 --undefined-- 48.022
1.63 --undefined-- 57.133
1.64 195.775 63.757
1.65 190.070 67.145
1.66 182.224 68.435
1.67 176.664 68.762
1.68 170.347 68.680
1.69 164.536 68.251
1.70 157.839 67.242
1.71 147.815 65.209
1.72 129.406 62.335
1.73 128.408 59.348
1.74 124.594 55.286
1.75 --undefined-- 48.583
1.76 --undefined-- 45.381
1.77 --undefined-- 50.727
1.78 --undefined-- 54.888
1.79 156.052 58.222
1.80 160.291 61.211
1.81 162.177 63.432
1.82 160.973 64.741
1.83 157.197 65.284
1.84 155.630 65.485
1.85 155.348 65.761
1.86 156.146 66.189
1.87 157.093 66.657
1.88 157.242 67.080
1.89 157.387 67.448
1.90 156.637 67.750
1.91 155.923 68.013
1.92 156.172 68.293
1.93 155.676 68.544
1.94 155.328 68.720
1.95 155.175 68.841
1.96 155.171 68.882
1.97 154.814 68.849
1.98 156.058 68.830
1.99 158.566 68.863
2.00 159.857 68.851
2.01 161.459 68.703
2.02 162.084 68.427
2.03 162.454 68.088
2.04 161.884 67.653
2.05 158.592 66.811
2.06 151.784 65.167
2.07 --undefined-- 62.777
2.08 --undefined-- 59.546
2.09 --undefined-- 53.995
2.10 --undefined-- 44.900
2.11 --undefined-- 34.722
2.12 --undefined-- 31.658
2.13 --undefined-- 34.281
2.14 --undefined-- 35.576
2.15 --undefined-- 35.559
2.16 --undefined-- 34.374
2.17 --undefined-- 32.261
2.18 --undefined-- 31.219
2.19 --undefined-- 31.819
2.20 --undefined-- 32.567
2.21 --undefined-- 32.797
2.22 --undefined-- 33.147
2.23 --undefined-- 34.061
2.24 --undefined-- 35.019
2.25 --undefined-- 35.361
2.26 --undefined-- 34.990
2.27 --undefined-- 34.166
2.28 --undefined-- 33.694
2.29 --undefined-- 35.343
2.30 --undefined-- 37.576
2.31 --undefined-- 37.908
2.32 --undefined-- 36.021
2.33 --undefined-- 34.329
2.34 --undefined-- 35.422
2.35 --undefined-- 36.250
2.36 --undefined-- 35.358
2.37 --undefined-- 35.135
2.38 --undefined-- 35.953
2.39 --undefined-- 35.409
2.40 --undefined-- 33.972
2.41 --undefined-- 33.209
2.42 --undefined-- 34.359
2.43 --undefined-- 35.634
2.44 --undefined-- 35.074
2.45 --undefined-- 33.177
2.46 --undefined-- 32.381
2.47 --undefined-- 33.882
2.48 --undefined-- 35.878
2.49 --undefined-- 36.434
2.50 --undefined-- 34.924
2.51 --undefined-- 34.126
2.52 --undefined-- 34.609
2.53 --undefined-- 33.109
2.54 --undefined-- 30.670
2.55 --undefined-- 29.825
2.56 --undefined-- 30.755
2.57 --undefined-- 32.781
2.58 --undefined-- 33.994
2.59 --undefined-- 33.158
2.60 --undefined-- 31.985
2.61 --undefined-- 35.200
2.62 --undefined-- 39.200
2.63 --undefined-- 40.410
2.64 --undefined-- 40.952
2.65 --undefined-- 43.794
2.66 --undefined-- 50.520
2.67 --undefined-- 61.695
2.68 243.447 69.316
2.69 237.425 73.413
2.70 229.529 74.888
2.71 222.688 74.797
2.72 218.213 74.455
2.73 217.614 74.623
2.74 218.761 75.035
2.75 218.424 75.422
2.76 220.781 75.644
2.77 220.656 75.341
2.78 217.752 74.280
2.79 213.568 72.263
2.80 210.612 68.798
2.81 216.923 63.292
2.82 223.031 56.356
2.83 --undefined-- 60.609
2.84 --undefined-- 67.561
2.85 211.716 70.799
2.86 199.509 71.300
2.87 193.006 70.725
2.88 189.186 70.403
2.89 186.403 70.315
2.90 184.614 70.164
2.91 182.910 70.001
2.92 181.498 69.982
2.93 180.767 70.104
2.94 180.069 70.287
2.95 179.797 70.520
2.96 179.938 70.704
2.97 179.755 70.545
2.98 179.074 69.597
2.99 176.931 67.240
3.00 174.691 62.921
3.01 193.014 56.388
3.02 --undefined-- 47.664
3.03 --undefined-- 38.673
3.04 --undefined-- 40.047
3.05 --undefined-- 46.907
3.06 --undefined-- 51.860
3.07 --undefined-- 54.680
3.08 --undefined-- 56.440
3.09 --undefined-- 61.518
3.10 221.317 67.273
3.11 219.062 70.452
3.12 210.532 71.548
3.13 197.782 71.638
3.14 197.774 71.373
3.15 197.953 70.984
3.16 197.067 70.615
3.17 196.334 70.238
3.18 195.236 69.795
3.19 193.389 69.415
3.20 193.486 69.306
3.21 191.826 69.306
3.22 189.264 69.275
3.23 186.451 69.281
3.24 181.419 69.388
3.25 173.351 69.464
3.26 165.391 69.288
3.27 157.155 68.733
3.28 150.333 68.011
3.29 147.551 67.454
3.30 146.384 66.945
3.31 145.779 66.490
3.32 145.927 66.235
3.33 146.350 66.125
3.34 147.813 66.184
3.35 148.960 66.509
3.36 149.654 67.024
3.37 149.570 67.355
3.38 147.615 66.963
3.39 145.946 65.372
3.40 144.114 62.565
3.41 148.873 60.032
3.42 152.968 60.055
3.43 168.853 62.186
3.44 176.890 65.109
3.45 181.045 67.531
3.46 176.277 68.967
3.47 165.409 69.453
3.48 160.819 69.298
3.49 159.194 68.978
3.50 159.225 68.808
3.51 159.696 68.907
3.52 160.711 69.138
3.53 161.574 69.150
3.54 163.869 68.988
3.55 166.356 69.153
3.56 168.588 69.561
3.57 171.944 69.767
3.58 178.206 69.926
3.59 182.425 70.386
3.60 186.693 71.039
3.61 191.751 71.691
3.62 196.742 72.372
3.63 202.998 73.002
3.64 209.625 73.291
3.65 216.580 73.053
3.66 219.175 72.322
3.67 211.169 71.191
3.68 195.673 69.480
3.69 186.371 66.656
3.70 187.017 62.501
3.71 187.334 56.929
3.72 --undefined-- 48.838
3.73 --undefined-- 39.284
3.74 --undefined-- 38.118
3.75 --undefined-- 45.120
3.76 --undefined-- 53.335
3.77 --undefined-- 58.660
3.78 --undefined-- 62.402
3.79 178.700 65.490
3.80 177.172 67.782
3.81 178.931 69.252
3.82 177.444 70.117
3.83 174.339 70.782
3.84 176.482 71.632
3.85 174.227 72.169
3.86 171.243 72.177
3.87 170.345 72.136
3.88 169.983 72.206
3.89 169.495 72.126
3.90 170.201 71.595
3.91 170.528 70.580
3.92 171.436 69.363
3.93 174.379 68.482
3.94 179.110 68.299
3.95 183.188 68.701
3.96 187.231 69.407
3.97 190.947 70.074
3.98 191.511 70.294
3.99 189.267 70.246
4.00 193.577 70.675
4.01 191.327 71.266
4.02 187.450 71.573
4.03 183.283 71.684
4.04 181.230 71.971
4.05 177.464 72.707
4.06 174.166 73.194
4.07 171.448 73.025
4.08 169.793 72.716
4.09 169.282 72.673
4.10 169.809 72.677
4.11 171.070 72.245
4.12 174.721 71.385
4.13 179.517 70.586
4.14 183.577 70.099
4.15 187.126 69.801
4.16 190.602 69.378
4.17 193.918 68.455
4.18 193.770 66.531
4.19 189.246 63.359
4.20 192.822 58.561
4.21 --undefined-- 51.265
4.22 --undefined-- 40.704
4.23 --undefined-- 34.902
4.24 --undefined-- 42.949
4.25 --undefined-- 49.188
4.26 --undefined-- 54.344
4.27 --undefined-- 62.311
4.28 254.855 68.148
4.29 247.947 71.179
4.30 248.184 72.404
4.31 248.694 72.816
4.32 248.687 72.855
4.33 248.411 72.719
4.34 247.640 72.606
4.35 246.356 72.631
4.36 244.832 72.659
4.37 242.301 72.251
4.38 237.263 70.873
4.39 231.146 68.660
4.40 232.816 68.091
4.41 228.655 68.821
4.42 221.001 68.918
4.43 209.487 68.606
4.44 196.761 68.090
4.45 176.742 67.344
4.46 160.832 66.614
4.47 142.837 65.705
4.48 130.445 64.847
4.49 121.321 64.390
4.50 114.435 63.925
4.51 114.801 63.362
4.52 117.956 62.659
4.53 123.244 61.908
4.54 126.362 61.006
4.55 126.575 58.805
4.56 --undefined-- 53.863
4.57 --undefined-- 45.629
4.58 --undefined-- 36.960
4.59 --undefined-- 39.345
4.60 --undefined-- 45.808
4.61 --undefined-- 49.404
4.62 --undefined-- 51.797
4.63 --undefined-- 58.996
4.64 --undefined-- 64.886
4.65 198.089 67.217
4.66 195.045 66.913
4.67 192.920 65.172
4.68 193.600 63.565
4.69 195.674 63.796
4.70 201.080 66.224
4.71 206.574 69.119
4.72 209.325 70.907
4.73 211.044 71.707
4.74 212.353 72.154
4.75 214.394 72.438
4.76 215.131 72.044
4.77 215.383 70.120
4.78 219.110 65.833
4.79 225.214 58.603
4.80 --undefined-- 50.396
4.81 --undefined-- 47.926
4.82 --undefined-- 48.710
4.83 --undefined-- 56.671
4.84 237.192 65.150
4.85 231.888 69.999
4.86 226.677 71.779
4.87 221.630 71.857
4.88 219.562 71.494
4.89 217.025 71.104
4.90 215.539 71.201
4.91 215.759 71.748
4.92 215.677 72.294
4.93 216.262 72.703
4.94 215.391 72.741
4.95 213.530 72.360
4.96 211.075 71.265
4.97 207.827 68.762
4.98 207.539 64.111
4.99 229.233 57.072
5.00 --undefined-- 52.319
5.01 --undefined-- 57.921
5.02 --undefined-- 64.174
5.03 183.925 67.256
5.04 175.416 68.000
5.05 168.885 67.860
5.06 164.495 67.362
5.07 161.324 66.165
5.08 159.405 65.246
5.09 159.582 65.586
5.10 158.270 65.929
5.11 156.218 65.859
5.12 155.106 65.719
5.13 153.086 65.644
5.14 150.301 65.421
5.15 149.172 65.056
5.16 148.291 64.702
5.17 146.448 64.505
5.18 146.152 64.639
5.19 146.432 65.004
5.20 147.161 65.419
5.21 147.290 65.790
5.22 146.868 66.042
5.23 144.629 66.162
5.24 143.061 66.339
5.25 143.783 66.530
5.26 142.747 66.629
5.27 141.571 66.716
5.28 141.139 66.834
5.29 140.899 66.980
5.30 141.469 67.144
5.31 141.492 67.417
5.32 141.749 67.710
5.33 142.919 67.905
5.34 140.296 68.138
5.35 139.491 68.506
5.36 138.675 68.795
5.37 137.891 68.868
5.38 136.444 68.733
5.39 134.089 68.395
5.40 130.176 68.033
5.41 125.420 68.317
5.42 125.248 69.063
5.43 123.151 69.330
5.44 120.309 68.897
5.45 117.498 67.982
5.46 114.064 66.825
5.47 110.756 65.670
5.48 107.620 64.627
5.49 102.740 63.337
5.50 101.142 61.444
5.51 116.438 59.354
5.52 --undefined-- 57.504
5.53 135.081 55.623
5.54 131.230 53.310
5.55 --undefined-- 49.707
5.56 --undefined-- 44.037
5.57 --undefined-- 39.196
5.58 --undefined-- 38.560
5.59 --undefined-- 37.600
5.60 --undefined-- 35.564
5.61 --undefined-- 33.934
5.62 --undefined-- 33.017
5.63 --undefined-- 31.683
5.64 --undefined-- 30.094
5.65 --undefined-- 32.623
5.66 --undefined-- 35.641
5.67 --undefined-- 35.789
5.68 --undefined-- 33.372
5.69 --undefined-- 33.011
5.70 --undefined-- 34.154
5.71 --undefined-- 33.301
5.72 --undefined-- 32.313
5.73 --undefined-- 33.543
5.74 --undefined-- 33.905
5.75 --undefined-- 32.620
5.76 --undefined-- 32.108
5.77 --undefined-- 32.222
5.78 --undefined-- 31.148
5.79 --undefined-- 30.206
5.80 --undefined-- 31.675
5.81 --undefined-- 33.599
5.82 --undefined-- 35.906
5.83 --undefined-- 36.991
5.84 --undefined-- 36.919
5.85 --undefined-- 38.168
5.86 --undefined-- 40.394
5.87 --undefined-- 42.716
5.88 --undefined-- 44.868
5.89 --undefined-- 50.205
5.90 --undefined-- 59.915
5.91 185.245 66.628
5.92 182.395 70.484
5.93 182.987 73.121
5.94 186.057 75.086
5.95 190.262 76.164
5.96 195.173 76.270
5.97 199.245 --undefined--
5.98 203.521 --undefined--
5.99 --undefined-- --undefined--
6.00 --undefined-- --undefined--
