Time Pitch Intensity
0.01 --undefined-- --undefined--
0.02 162.059 --undefined--
0.03 156.755 --undefined--
0.04 155.301 --undefined--
0.05 149.039 71.262
0.06 145.276 71.439
0.07 138.127 71.431
0.08 130.370 71.169
0.09 120.331 70.458
0.10 114.419 68.916
0.11 105.773 66.790
0.12 102.857 64.830
0.13 101.399 63.643
0.14 99.652 63.110
0.15 99.890 62.764
0.16 102.723 62.505
0.17 104.554 62.163
0.18 105.867 61.651
0.19 107.218 60.942
0.20 108.363 59.862
0.21 108.792 58.494
0.22 106.487 56.226
0.23 --undefined-- 52.073
0.24 --undefined-- 46.267
0.25 --undefined-- 42.158
0.26 --undefined-- 41.978
0.27 --undefined-- 44.224
0.28 --undefined-- 48.428
0.29 --undefined-- 57.363
0.30 190.346 65.482
0.31 179.903 70.402
0.32 167.206 72.972
0.33 161.886 73.863
0.34 161.722 73.393
0.35 161.709 71.592
0.36 159.148 69.381
0.37 161.965 68.750
0.38 160.239 69.011
0.39 158.263 69.096
0.40 155.752 68.842
0.41 150.237 67.971
0.42 144.028 66.008
0.43 132.377 62.300
0.44 --undefined-- 56.704
0.45 --undefined-- 56.535
0.46 --undefined-- 61.243
0.47 129.515 65.217
0.48 128.506 67.477
0.49 128.455 68.386
0.50 126.443 68.827
0.51 122.516 68.837
0.52 117.857 68.784
0.53 116.274 69.264
0.54 116.838 69.789
0.55 119.428 69.969
0.56 127.527 70.095
0.57 133.749 70.349
0.58 140.353 69.886
0.59 137.142 67.796
0.60 132.378 63.737
0.61 --undefined-- 57.657
0.62 --undefined-- 49.909
0.63 --undefined-- 45.479
0.64 --undefined-- 50.459
0.65 --undefined-- 60.353
0.66 --undefined-- 67.589
0.67 --undefined-- 71.267
0.68 --undefined-- 72.173
0.69 --undefined-- 71.625
0.70 --undefined-- 70.582
0.71 111.896 69.594
0.72 110.727 68.918
0.73 106.395 68.226
0.74 104.622 67.410
0.75 106.870 66.810
0.76 110.781 66.744
0.77 113.980 66.731
0.78 115.279 65.946
0.79 114.750 63.492
0.80 --undefined-- 58.751
0.81 --undefined-- 52.331
0.82 --undefined-- 48.528
0.83 --undefined-- 48.111
0.84 --undefined-- 50.739
0.85 --undefined-- 59.543
0.86 177.152 66.874
0.87 168.042 71.218
0.88 158.537 73.921
0.89 156.551 76.025
0.90 157.427 77.346
0.91 157.466 77.872
0.92 157.001 78.013
0.93 157.816 78.102
0.94 158.833 78.170
0.95 159.405 78.017
0.96 160.300 77.473
0.97 161.073 76.584
0.98 160.757 75.525
0.99 159.974 74.327
1.00 159.992 72.960
1.01 161.117 71.500
1.02 160.009 69.809
1.03 157.932 68.018
1.04 159.085 66.604
1.05 158.904 65.291
1.06 156.901 63.993
1.07 154.652 62.453
1.08 --undefined-- 60.000
1.09 --undefined-- 56.376
1.10 --undefined-- 50.966
1.11 --undefined-- 45.948
1.12 --undefined-- 45.166
1.13 --undefined-- 43.294
1.14 --undefined-- 40.975
1.15 --undefined-- 40.980
1.16 --undefined-- 40.152
1.17 --undefined-- 38.026
1.18 --undefined-- 37.378
1.19 --undefined-- 37.965
1.20 --undefined-- 38.983
1.21 --undefined-- 39.283
1.22 --undefined-- 37.974
1.23 --undefined-- 37.165
1.24 --undefined-- 39.292
1.25 --undefined-- 40.763
1.26 --undefined-- 39.962
1.27 --undefined-- 38.134
1.28 --undefined-- 36.879
1.29 --undefined-- 36.837
1.30 --undefined-- 37.817
1.31 --undefined-- 37.979
1.32 --undefined-- 38.260
1.33 --undefined-- 38.982
1.34 --undefined-- 39.476
1.35 --undefined-- 39.620
1.36 --undefined-- 39.247
1.37 --undefined-- 38.136
1.38 --undefined-- 36.530
1.39 --undefined-- 37.218
1.40 --undefined-- 39.164
1.41 --undefined-- 39.538
1.42 --undefined-- 38.717
1.43 --undefined-- 37.604
1.44 --undefined-- 36.455
1.45 --undefined-- 36.264
1.46 --undefined-- 36.427
1.47 --undefined-- 36.629
1.48 --undefined-- 37.410
1.49 --undefined-- 39.301
1.50 --undefined-- 44.465
1.51 --undefined-- 49.304
1.52 --undefined-- 52.592
1.53 --undefined-- 55.072
1.54 --undefined-- 57.864
1.55 --undefined-- 60.724
1.56 --undefined-- 63.098
1.57 --undefined-- 63.779
1.58 --undefined-- 62.469
1.59 --undefined-- 64.856
1.60 225.583 71.217
1.61 221.218 75.583
1.62 219.262 77.761
1.63 218.352 77.922
1.64 216.301 76.242
1.65 208.760 73.044
1.66 --undefined-- 68.936
1.67 --undefined-- 64.322
1.68 --undefined-- 58.361
1.69 --undefined-- 51.256
1.70 --undefined-- 46.867
1.71 --undefined-- 43.873
1.72 --undefined-- 41.532
1.73 --undefined-- 40.665
1.74 --undefined-- 41.730
1.75 --undefined-- 47.852
1.76 --undefined-- 53.910
1.77 137.611 58.061
1.78 125.839 61.347
1.79 124.922 64.045
1.80 120.556 66.016
1.81 118.181 67.374
1.82 116.038 68.088
1.83 115.364 68.255
1.84 116.233 68.128
1.85 115.710 67.863
1.86 114.181 67.541
1.87 111.922 67.025
1.88 109.526 66.308
1.89 110.475 65.975
1.90 112.846 66.093
1.91 113.586 66.188
1.92 111.911 66.063
1.93 111.075 65.950
1.94 114.449 66.369
1.95 118.018 66.577
1.96 113.448 65.164
1.97 104.292 61.686
1.98 --undefined-- 57.687
1.99 --undefined-- 55.297
2.00 --undefined-- 54.757
2.01 --undefined-- 57.643
2.02 131.083 62.374
2.03 133.376 65.947
2.04 129.874 68.102
2.05 128.213 69.360
2.06 128.518 69.847
2.07 130.964 69.657
2.08 136.872 69.549
2.09 144.216 70.140
2.10 151.392 70.902
2.11 159.672 71.262
2.12 170.590 71.754
2.13 178.674 72.802
2.14 178.369 73.578
2.15 173.057 73.738
2.16 166.898 73.792
2.17 163.219 73.747
2.18 153.503 73.184
2.19 152.804 72.362
2.20 153.653 72.132
2.21 155.222 72.689
2.22 161.952 73.843
2.23 158.677 75.267
2.24 152.866 76.300
2.25 149.942 76.895
2.26 149.060 77.249
2.27 148.893 77.366
2.28 148.223 77.258
2.29 147.491 77.118
2.30 147.030 77.124
2.31 146.993 77.233
2.32 147.410 77.303
2.33 147.556 77.292
2.34 147.491 77.048
2.35 147.195 76.239
2.36 146.376 74.652
2.37 --undefined-- 72.321
2.38 --undefined-- 69.320
2.39 --undefined-- 65.426
2.40 --undefined-- 59.662
2.41 --undefined-- 51.433
2.42 --undefined-- 43.168
2.43 --undefined-- 38.051
2.44 --undefined-- 35.752
2.45 --undefined-- 35.053
2.46 --undefined-- 35.332
2.47 --undefined-- 36.977
2.48 --undefined-- 40.571
2.49 --undefined-- 42.380
2.50 --undefined-- 41.465
2.51 --undefined-- 39.883
2.52 --undefined-- 40.944
2.53 --undefined-- 41.770
2.54 --undefined-- 40.013
2.55 --undefined-- 37.819
2.56 --undefined-- 38.871
2.57 --undefined-- 39.023
2.58 --undefined-- 38.166
2.59 --undefined-- 40.410
2.60 --undefined-- 42.937
2.61 --undefined-- 43.247
2.62 --undefined-- 42.193
2.63 --undefined-- 42.104
2.64 --undefined-- 42.830
2.65 --undefined-- 43.170
2.66 --undefined-- 43.271
2.67 --undefined-- 43.167
2.68 --undefined-- 42.972
2.69 --undefined-- 43.290
2.70 --undefined-- 43.956
2.71 --undefined-- 44.307
2.72 --undefined-- 44.108
2.73 --undefined-- 42.882
2.74 --undefined-- 41.565
2.75 --undefined-- 41.812
2.76 --undefined-- 42.283
2.77 --undefined-- 42.068
2.78 --undefined-- 42.004
2.79 --undefined-- 42.260
2.80 --undefined-- 41.852
2.81 --undefined-- 41.064
2.82 --undefined-- 40.084
2.83 --undefined-- 38.679
2.84 --undefined-- 36.911
2.85 --undefined-- 36.044
2.86 --undefined-- 37.939
2.87 --undefined-- 39.705
2.88 --undefined-- 39.511
2.89 --undefined-- 38.411
2.90 --undefined-- 43.395
2.91 --undefined-- 52.225
2.92 153.442 58.597
2.93 131.987 62.377
2.94 116.761 64.722
2.95 116.475 66.769
2.96 121.438 68.902
2.97 129.212 71.250
2.98 135.661 74.072
2.99 143.248 76.871
3.00 148.146 78.720
3.01 151.246 79.208
3.02 152.665 78.672
3.03 157.467 78.087
3.04 163.560 78.238
3.05 170.537 79.147
3.06 177.591 80.520
3.07 184.034 81.654
3.08 187.050 81.879
3.09 187.587 80.863
3.10 189.008 78.453
3.11 193.639 75.342
3.12 188.521 74.180
3.13 180.510 77.081
3.14 174.992 80.289
3.15 171.155 81.476
3.16 165.395 80.822
3.17 158.185 79.519
3.18 151.506 78.784
3.19 145.624 78.448
3.20 140.572 78.011
3.21 137.442 77.312
3.22 135.792 75.952
3.23 130.451 73.710
3.24 128.973 71.621
3.25 131.361 70.612
3.26 131.201 70.001
3.27 130.076 69.285
3.28 128.613 68.041
3.29 124.990 65.800
3.30 119.070 62.229
3.31 --undefined-- 57.154
3.32 --undefined-- 50.746
3.33 --undefined-- 46.802
3.34 --undefined-- 48.289
3.35 --undefined-- 50.028
3.36 --undefined-- 50.791
3.37 --undefined-- 51.181
3.38 --undefined-- 54.865
3.39 --undefined-- 61.296
3.40 137.187 65.837
3.41 131.527 68.525
3.42 128.297 70.097
3.43 126.679 71.076
3.44 126.215 71.809
3.45 127.242 72.513
3.46 128.423 73.203
3.47 130.850 73.743
3.48 131.507 74.109
3.49 132.950 74.257
3.50 134.025 74.028
3.51 137.441 73.184
3.52 138.587 71.316
3.53 128.843 68.121
3.54 124.608 63.770
3.55 --undefined-- 58.260
3.56 --undefined-- 51.033
3.57 --undefined-- 43.944
3.58 --undefined-- 44.701
3.59 --undefined-- 55.655
3.60 --undefined-- 63.487
3.61 80.739 68.336
3.62 80.828 71.319
3.63 162.146 73.197
3.64 164.268 74.518
3.65 164.176 75.362
3.66 165.258 75.784
3.67 168.879 76.029
3.68 172.790 76.345
3.69 177.173 76.890
3.70 180.683 77.553
3.71 184.632 78.195
3.72 187.776 78.785
3.73 190.210 79.177
3.74 191.960 79.212
3.75 192.711 78.894
3.76 192.886 78.438
3.77 193.706 77.919
3.78 194.795 76.833
3.79 194.225 74.413
3.80 188.452 70.705
3.81 189.904 67.893
3.82 192.810 67.053
3.83 193.749 66.630
3.84 190.973 65.850
3.85 184.278 64.438
3.86 177.169 62.483
3.87 181.009 60.214
3.88 --undefined-- 57.452
3.89 --undefined-- 54.259
3.90 --undefined-- 50.742
3.91 --undefined-- 46.048
3.92 --undefined-- 41.713
3.93 --undefined-- 40.108
3.94 --undefined-- 39.111
3.95 --undefined-- 38.126
3.96 --undefined-- 38.744
3.97 --undefined-- 39.383
3.98 --undefined-- 38.354
3.99 --undefined-- 37.123
4.00 --undefined-- 36.731
4.01 --undefined-- 35.712
4.02 --undefined-- 34.958
4.03 --undefined-- 35.072
4.04 --undefined-- 35.828
4.05 --undefined-- 36.863
4.06 --undefined-- 42.228
4.07 --undefined-- 49.539
4.08 --undefined-- 53.587
4.09 --undefined-- 54.991
4.10 --undefined-- 57.348
4.11 120.672 61.256
4.12 122.184 63.565
4.13 119.369 63.906
4.14 111.449 63.228
4.15 112.982 63.109
4.16 111.819 63.306
4.17 111.020 63.308
4.18 109.123 63.380
4.19 111.296 64.237
4.20 111.395 65.534
4.21 109.947 66.187
4.22 107.064 65.933
4.23 104.732 65.342
4.24 104.510 65.018
4.25 105.513 64.957
4.26 106.341 64.813
4.27 107.292 64.388
4.28 106.757 63.523
4.29 100.662 62.026
4.30 85.708 60.524
4.31 86.023 60.604
4.32 94.948 62.477
4.33 102.668 64.616
4.34 116.649 66.097
4.35 125.419 67.314
4.36 121.779 68.792
4.37 118.139 70.408
4.38 119.786 71.384
4.39 126.780 71.856
4.40 141.712 72.743
4.41 149.270 73.385
4.42 150.603 72.765
4.43 148.417 70.375
4.44 143.540 65.818
4.45 --undefined-- 58.663
4.46 --undefined-- 51.176
4.47 --undefined-- 52.339
4.48 --undefined-- 56.048
4.49 --undefined-- 58.931
4.50 --undefined-- 59.869
4.51 --undefined-- 59.055
4.52 --undefined-- 57.602
4.53 --undefined-- 60.417
4.54 184.098 67.220
4.55 184.277 71.626
4.56 183.846 73.808
4.57 178.059 74.864
4.58 172.865 75.945
4.59 172.138 77.062
4.60 173.731 77.766
4.61 173.170 78.162
4.62 169.791 78.289
4.63 165.901 77.560
4.64 159.563 75.516
4.65 150.890 72.066
4.66 147.968 66.725
4.67 --undefined-- 59.184
4.68 --undefined-- 52.935
4.69 --undefined-- 59.788
4.70 211.762 68.304
4.71 193.160 73.563
4.72 173.159 76.205
4.73 164.876 77.435
4.74 162.157 78.027
4.75 161.467 77.844
4.76 161.104 76.867
4.77 160.270 75.471
4.78 156.172 73.536
4.79 150.004 71.267
4.80 151.413 70.338
4.81 154.249 70.411
4.82 154.345 70.519
4.83 151.945 70.563
4.84 149.335 71.022
4.85 148.027 72.819
4.86 138.738 74.832
4.87 135.945 75.803
4.88 130.512 76.012
4.89 126.279 75.899
4.90 123.158 75.600
4.91 122.703 75.398
4.92 124.320 75.284
4.93 124.560 74.974
4.94 122.945 74.445
4.95 121.667 73.912
4.96 120.446 73.582
4.97 117.918 73.305
4.98 116.082 72.696
4.99 115.599 71.860
5.00 114.922 71.542
5.01 113.550 71.500
5.02 113.485 70.696
5.03 113.240 68.817
5.04 --undefined-- 66.427
5.05 --undefined-- 63.815
5.06 --undefined-- 59.810
5.07 --undefined-- 55.486
5.08 --undefined-- 53.543
5.09 --undefined-- 53.612
5.10 --undefined-- 54.577
5.11 --undefined-- 55.769
5.12 --undefined-- 56.248
5.13 --undefined-- 55.183
5.14 --undefined-- 52.809
5.15 --undefined-- 51.711
5.16 --undefined-- 52.206
5.17 --undefined-- 52.600
5.18 --undefined-- 54.393
5.19 --undefined-- 60.095
5.20 144.682 65.096
5.21 133.851 67.688
5.22 131.880 68.556
5.23 132.711 68.821
5.24 136.967 69.545
5.25 141.184 70.811
5.26 146.035 72.139
5.27 150.061 72.878
5.28 153.857 72.556
5.29 155.066 71.733
5.30 156.684 71.644
5.31 160.553 72.532
5.32 160.227 73.851
5.33 159.607 74.827
5.34 161.206 75.052
5.35 167.090 74.924
5.36 156.637 75.209
5.37 --undefined-- 75.346
5.38 --undefined-- 74.561
5.39 --undefined-- 72.809
5.40 --undefined-- 70.440
5.41 --undefined-- 67.620
5.42 --undefined-- 64.477
5.43 --undefined-- 60.238
5.44 --undefined-- 54.708
5.45 --undefined-- 48.471
5.46 --undefined-- 45.478
5.47 --undefined-- 44.452
5.48 --undefined-- 41.861
5.49 --undefined-- 40.267
5.50 --undefined-- 41.432
5.51 --undefined-- 49.887
5.52 --undefined-- 57.197
5.53 --undefined-- 60.579
5.54 --undefined-- 60.739
5.55 --undefined-- 58.973
5.56 --undefined-- 57.204
5.57 --undefined-- 59.118
5.58 --undefined-- 65.099
5.59 150.058 69.694
5.60 146.252 72.583
5.61 145.270 74.143
5.62 145.668 74.906
5.63 146.398 75.394
5.64 146.972 75.809
5.65 147.469 76.161
5.66 148.310 76.472
5.67 149.226 76.622
5.68 148.986 76.565
5.69 148.460 76.411
5.70 146.507 76.086
5.71 143.595 75.119
5.72 138.943 73.546
5.73 138.554 72.372
5.74 138.985 71.776
5.75 133.765 71.608
5.76 131.457 71.796
5.77 125.860 71.963
5.78 121.587 72.056
5.79 120.092 71.813
5.80 113.515 70.905
5.81 111.471 69.338
5.82 104.373 67.775
5.83 101.349 66.722
5.84 99.877 65.662
5.85 99.533 64.492
5.86 98.018 62.885
5.87 98.979 --undefined--
5.88 104.525 --undefined--
5.89 --undefined-- --undefined--
5.90 --undefined-- --undefined--
