Time Pitch Intensity
0.01 --undefined-- --undefined--
0.02 156.361 --undefined--
0.03 139.762 --undefined--
0.04 137.042 --undefined--
0.05 134.070 73.476
0.06 132.158 71.625
0.07 128.697 69.067
0.08 --undefined-- 65.874
0.09 --undefined-- 62.124
0.10 --undefined-- 58.742
0.11 130.549 56.939
0.12 116.676 56.024
0.13 117.768 56.544
0.14 112.432 57.701
0.15 90.301 58.059
0.16 85.323 57.883
0.17 79.088 58.008
0.18 76.202 59.341
0.19 94.235 61.919
0.20 104.710 64.098
0.21 116.879 65.227
0.22 123.716 65.603
0.23 125.567 65.640
0.24 125.527 65.740
0.25 126.272 66.161
0.26 128.399 66.921
0.27 129.049 67.801
0.28 130.325 68.621
0.29 132.447 69.728
0.30 137.561 71.192
0.31 138.659 72.171
0.32 145.815 72.341
0.33 149.136 72.301
0.34 152.331 72.374
0.35 156.530 72.222
0.36 163.470 71.682
0.37 171.573 70.914
0.38 181.363 70.263
0.39 185.501 69.658
0.40 190.209 68.637
0.41 191.789 67.117
0.42 190.399 65.286
0.43 --undefined-- 63.651
0.44 --undefined-- 62.099
0.45 --undefined-- 58.911
0.46 --undefined-- 52.766
0.47 --undefined-- 44.125
0.48 --undefined-- 37.667
0.49 --undefined-- 35.719
0.50 --undefined-- 36.567
0.51 --undefined-- 36.964
0.52 --undefined-- 37.198
0.53 --undefined-- 37.257
0.54 --undefined-- 36.742
0.55 --undefined-- 35.799
0.56 --undefined-- 34.247
0.57 --undefined-- 33.387
0.58 --undefined-- 34.759
0.59 --undefined-- 35.358
0.60 --undefined-- 34.979
0.61 --undefined-- 35.181
0.62 --undefined-- 34.547
0.63 --undefined-- 36.702
0.64 --undefined-- 47.888
0.65 --undefined-- 57.485
0.66 --undefined-- 63.328
0.67 152.174 66.426
0.68 162.883 67.941
0.69 175.293 68.971
0.70 187.477 69.846
0.71 196.706 70.560
0.72 202.561 71.242
0.73 204.628 71.452
0.74 198.505 70.307
0.75 183.209 67.205
0.76 161.923 62.196
0.77 --undefined-- 57.447
0.78 --undefined-- 58.272
0.79 --undefined-- 59.632
0.80 --undefined-- 60.292
0.81 --undefined-- 65.328
0.82 182.582 70.708
0.83 177.974 73.429
0.84 167.619 74.393
0.85 166.465 74.949
0.86 166.134 75.830
0.87 166.144 76.939
0.88 165.157 77.650
0.89 162.497 77.439
0.90 158.801 75.954
0.91 154.297 72.612
0.92 131.170 67.051
0.93 --undefined-- 61.559
0.94 --undefined-- 58.774
0.95 --undefined-- 54.479
0.96 --undefined-- 46.799
0.97 --undefined-- 39.692
0.98 --undefined-- 36.810
0.99 --undefined-- 35.535
1.00 --undefined-- 35.879
1.01 --undefined-- 37.463
1.02 --undefined-- 39.138
1.03 --undefined-- 39.110
1.04 --undefined-- 36.804
1.05 --undefined-- 34.496
1.06 --undefined-- 35.655
1.07 --undefined-- 38.796
1.08 --undefined-- 39.985
1.09 --undefined-- 37.685
1.10 --undefined-- 33.751
1.11 --undefined-- 33.772
1.12 --undefined-- 34.105
1.13 --undefined-- 34.495
1.14 --undefined-- 37.528
1.15 --undefined-- 40.845
1.16 --undefined-- 49.258
1.17 --undefined-- 59.185
1.18 --undefined-- 65.703
1.19 187.900 69.224
1.20 179.149 70.996
1.21 177.363 72.080
1.22 175.081 72.879
1.23 173.518 73.630
1.24 172.222 74.739
1.25 169.843 75.897
1.26 168.753 76.271
1.27 167.881 75.998
1.28 167.514 75.835
1.29 166.947 75.696
1.30 165.927 75.312
1.31 164.029 74.643
1.32 159.667 73.383
1.33 152.568 71.041
1.34 143.056 67.185
1.35 136.132 61.588
1.36 --undefined-- 54.506
1.37 --undefined-- 48.584
1.38 --undefined-- 48.308
1.39 --undefined-- 49.333
1.40 --undefined-- 50.183
1.41 --undefined-- 55.026
1.42 182.627 62.585
1.43 171.431 67.598
1.44 158.835 70.100
1.45 159.331 70.876
1.46 164.814 70.572
1.47 176.030 69.961
1.48 187.294 69.558
1.49 200.190 69.280
1.50 202.163 69.147
1.51 219.060 69.390
1.52 223.030 70.172
1.53 234.315 71.157
1.54 230.409 71.625
1.55 219.615 70.983
1.56 207.211 68.819
1.57 198.982 64.581
1.58 --undefined-- 57.748
1.59 --undefined-- 49.013
1.60 --undefined-- 43.641
1.61 --undefined-- 42.864
1.62 --undefined-- 42.737
1.63 --undefined-- 42.552
1.64 --undefined-- 43.615
1.65 --undefined-- 45.453
1.66 --undefined-- 47.155
1.67 --undefined-- 49.106
1.68 --undefined-- 53.003
1.69 --undefined-- 59.843
1.70 --undefined-- 64.661
1.71 124.370 66.921
1.72 118.835 67.648
1.73 117.290 67.835
1.74 115.344 67.761
1.75 115.182 67.493
1.76 116.616 67.244
1.77 117.355 67.188
1.78 118.459 67.274
1.79 118.827 66.985
1.80 117.439 65.541
1.81 108.876 62.322
1.82 100.583 57.874
1.83 100.116 54.364
1.84 --undefined-- 51.505
1.85 --undefined-- 49.225
1.86 --undefined-- 57.548
1.87 --undefined-- 66.442
1.88 150.297 72.069
1.89 147.258 75.214
1.90 141.301 76.512
1.91 135.508 76.763
1.92 133.347 76.807
1.93 133.537 76.601
1.94 133.256 75.719
1.95 131.351 74.374
1.96 130.847 73.314
1.97 130.451 72.841
1.98 127.748 72.521
1.99 133.127 72.067
2.00 135.295 71.017
2.01 130.850 68.518
2.02 126.593 64.991
2.03 131.221 64.491
2.04 141.713 68.370
2.05 150.267 72.147
2.06 150.519 74.419
2.07 147.899 75.139
2.08 143.537 74.449
2.09 140.184 72.171
2.10 126.709 67.961
2.11 116.104 61.974
2.12 116.480 55.401
2.13 --undefined-- 48.772
2.14 --undefined-- 42.448
2.15 --undefined-- 40.075
2.16 --undefined-- 48.017
2.17 --undefined-- 58.464
2.18 --undefined-- 66.356
2.19 --undefined-- 71.800
2.20 157.419 75.261
2.21 150.727 77.218
2.22 146.332 77.980
2.23 143.196 77.820
2.24 140.877 77.082
2.25 139.810 76.351
2.26 139.676 75.927
2.27 139.269 75.111
2.28 138.757 73.704
2.29 138.944 72.369
2.30 137.562 71.621
2.31 136.435 71.539
2.32 138.330 72.094
2.33 141.725 72.843
2.34 142.218 73.262
2.35 141.478 73.385
2.36 141.000 73.406
2.37 140.103 73.093
2.38 134.738 72.367
2.39 130.510 72.041
2.40 120.162 72.598
2.41 120.478 72.826
2.42 118.318 72.305
2.43 113.451 71.315
2.44 111.918 69.880
2.45 111.061 68.005
2.46 111.451 66.045
2.47 111.842 65.368
2.48 112.672 66.094
2.49 111.886 66.597
2.50 112.649 66.623
2.51 113.874 66.638
2.52 114.426 66.673
2.53 113.945 66.669
2.54 112.937 66.670
2.55 113.411 66.613
2.56 113.968 66.309
2.57 111.482 65.141
2.58 81.696 62.541
2.59 82.341 58.882
2.60 79.750 54.644
2.61 --undefined-- 49.292
2.62 --undefined-- 42.384
2.63 --undefined-- 38.291
2.64 --undefined-- 37.361
2.65 --undefined-- 36.306
2.66 --undefined-- 37.446
2.67 --undefined-- 38.816
2.68 --undefined-- 38.213
2.69 --undefined-- 36.457
2.70 --undefined-- 36.256
2.71 --undefined-- 36.363
2.72 --undefined-- 35.915
2.73 --undefined-- 36.073
2.74 --undefined-- 36.594
2.75 --undefined-- 36.414
2.76 --undefined-- 36.236
2.77 --undefined-- 37.199
2.78 --undefined-- 38.608
2.79 --undefined-- 38.863
2.80 --undefined-- 37.894
2.81 --undefined-- 36.693
2.82 --undefined-- 35.670
2.83 --undefined-- 35.655
2.84 --undefined-- 35.850
2.85 --undefined-- 34.801
2.86 --undefined-- 32.745
2.87 --undefined-- 32.493
2.88 --undefined-- 34.273
2.89 --undefined-- 36.101
2.90 --undefined-- 36.919
2.91 --undefined-- 39.517
2.92 --undefined-- 52.234
2.93 --undefined-- 61.621
2.94 185.506 67.712
2.95 152.247 71.800
2.96 151.350 74.484
2.97 150.636 76.132
2.98 151.828 77.063
2.99 152.333 77.281
3.00 151.443 76.993
3.01 154.039 76.623
3.02 155.134 76.247
3.03 155.575 75.783
3.04 155.978 75.079
3.05 154.639 73.740
3.06 149.839 71.349
3.07 143.282 67.708
3.08 138.398 63.069
3.09 --undefined-- 64.220
3.10 --undefined-- 71.028
3.11 185.658 75.203
3.12 178.246 77.263
3.13 172.333 78.340
3.14 169.350 78.597
3.15 168.161 77.769
3.16 168.289 76.183
3.17 168.127 74.715
3.18 167.098 73.933
3.19 166.419 73.632
3.20 164.267 73.534
3.21 159.232 73.455
3.22 155.874 72.992
3.23 153.772 71.739
3.24 147.826 70.007
3.25 141.546 69.326
3.26 144.388 70.840
3.27 145.737 72.881
3.28 138.877 73.637
3.29 128.987 73.404
3.30 121.707 72.925
3.31 116.855 72.005
3.32 110.426 70.594
3.33 108.019 68.917
3.34 107.462 67.354
3.35 108.645 66.434
3.36 110.032 66.285
3.37 110.120 66.393
3.38 110.780 66.628
3.39 111.763 66.779
3.40 114.092 66.529
3.41 115.094 65.704
3.42 103.517 65.137
3.43 105.077 66.035
3.44 115.236 67.742
3.45 127.221 69.372
3.46 139.518 70.620
3.47 148.573 71.704
3.48 152.189 72.756
3.49 151.572 73.617
3.50 149.453 73.957
3.51 144.503 73.547
3.52 146.697 72.835
3.53 146.007 72.668
3.54 143.227 72.883
3.55 142.526 73.018
3.56 142.495 72.972
3.57 143.434 72.605
3.58 143.989 71.276
3.59 139.103 68.034
3.60 --undefined-- 62.243
3.61 --undefined-- 54.169
3.62 --undefined-- 46.394
3.63 --undefined-- 48.104
3.64 --undefined-- 54.306
3.65 --undefined-- 57.299
3.66 --undefined-- 58.570
3.67 --undefined-- 60.087
3.68 --undefined-- 61.242
3.69 --undefined-- 64.002
3.70 175.906 68.932
3.71 172.482 72.537
3.72 168.290 74.627
3.73 165.576 75.505
3.74 163.601 74.963
3.75 164.260 73.597
3.76 171.671 73.268
3.77 172.155 73.486
3.78 171.117 73.527
3.79 169.369 73.521
3.80 169.059 72.675
3.81 168.344 70.164
3.82 153.296 65.774
3.83 147.805 60.173
3.84 --undefined-- 54.146
3.85 --undefined-- 47.634
3.86 --undefined-- 48.698
3.87 --undefined-- 59.150
3.88 202.727 67.430
3.89 188.224 72.537
3.90 181.912 75.215
3.91 173.264 76.505
3.92 169.711 77.087
3.93 166.497 76.802
3.94 163.166 75.316
3.95 160.499 72.596
3.96 157.445 69.188
3.97 153.637 66.650
3.98 155.551 65.346
3.99 --undefined-- 63.406
4.00 --undefined-- 60.137
4.01 --undefined-- 56.241
4.02 --undefined-- 51.918
4.03 --undefined-- 46.154
4.04 --undefined-- 38.992
4.05 --undefined-- 34.333
4.06 --undefined-- 36.053
4.07 --undefined-- 38.274
4.08 --undefined-- 37.722
4.09 --undefined-- 35.207
4.10 --undefined-- 35.410
4.11 --undefined-- 39.147
4.12 --undefined-- 43.206
4.13 --undefined-- 46.060
4.14 --undefined-- 48.204
4.15 --undefined-- 49.865
4.16 --undefined-- 53.048
4.17 101.615 58.687
4.18 123.787 63.460
4.19 131.165 66.047
4.20 129.435 67.275
4.21 127.785 68.362
4.22 127.587 69.568
4.23 128.489 70.358
4.24 133.623 70.532
4.25 134.027 69.736
4.26 130.699 67.388
4.27 127.878 63.373
4.28 116.192 58.568
4.29 --undefined-- 56.890
4.30 163.765 63.031
4.31 162.524 69.091
4.32 157.582 72.479
4.33 153.385 74.044
4.34 148.548 75.118
4.35 145.705 75.964
4.36 144.178 75.207
4.37 144.044 71.935
4.38 145.928 65.974
4.39 150.809 57.743
4.40 --undefined-- 50.353
4.41 --undefined-- 44.513
4.42 --undefined-- 41.264
4.43 --undefined-- 48.496
4.44 --undefined-- 59.086
4.45 --undefined-- 65.865
4.46 151.021 69.415
4.47 129.928 70.611
4.48 125.054 70.492
4.49 121.610 70.301
4.50 121.183 70.484
4.51 120.436 70.611
4.52 115.253 70.569
4.53 120.361 70.705
4.54 123.369 70.839
4.55 126.081 70.686
4.56 127.268 70.286
4.57 127.978 69.659
4.58 126.269 68.716
4.59 121.462 67.042
4.60 116.057 63.868
4.61 116.793 58.825
4.62 --undefined-- 52.178
4.63 --undefined-- 48.901
4.64 --undefined-- 51.510
4.65 --undefined-- 54.488
4.66 --undefined-- 62.005
4.67 --undefined-- 68.217
4.68 134.725 71.431
4.69 130.194 72.564
4.70 125.604 73.032
4.71 123.703 73.363
4.72 122.714 73.565
4.73 122.031 73.751
4.74 122.318 73.933
4.75 122.850 74.035
4.76 124.003 74.048
4.77 124.828 73.924
4.78 125.218 73.657
4.79 125.636 73.327
4.80 126.722 72.883
4.81 128.608 72.239
4.82 130.119 71.480
4.83 130.009 70.200
4.84 129.324 68.115
4.85 129.148 65.309
4.86 130.149 62.208
4.87 136.701 59.052
4.88 --undefined-- 55.897
4.89 --undefined-- 52.980
4.90 --undefined-- 49.927
4.91 --undefined-- 45.173
4.92 --undefined-- 40.899
4.93 --undefined-- 39.496
4.94 --undefined-- 37.368
4.95 --undefined-- 36.724
4.96 --undefined-- 38.371
4.97 --undefined-- 38.067
4.98 --undefined-- 36.252
4.99 --undefined-- 36.378
5.00 --undefined-- 38.079
5.01 --undefined-- 38.222
5.02 --undefined-- 35.723
5.03 --undefined-- 32.819
5.04 --undefined-- 33.296
5.05 --undefined-- 34.570
5.06 --undefined-- 34.247
5.07 --undefined-- 33.483
5.08 --undefined-- 34.267
5.09 --undefined-- 34.987
5.10 --undefined-- 34.256
5.11 --undefined-- 32.194
5.12 --undefined-- 31.244
5.13 --undefined-- 31.785
5.14 --undefined-- 34.790
5.15 --undefined-- 37.251
5.16 --undefined-- 37.393
5.17 --undefined-- 37.667
5.18 --undefined-- 39.007
5.19 --undefined-- 38.853
5.20 --undefined-- 37.965
5.21 --undefined-- 38.204
5.22 --undefined-- 38.926
5.23 --undefined-- 39.139
5.24 --undefined-- 38.204
5.25 --undefined-- 36.923
5.26 --undefined-- 36.253
5.27 --undefined-- 36.046
5.28 --undefined-- 36.434
5.29 --undefined-- 36.710
5.30 --undefined-- 36.709
5.31 --undefined-- 37.469
5.32 --undefined-- 38.048
5.33 --undefined-- 38.346
5.34 --undefined-- 38.359
5.35 --undefined-- 37.768
5.36 --undefined-- 37.681
5.37 --undefined-- 36.975
5.38 --undefined-- 35.992
5.39 --undefined-- 36.325
5.40 --undefined-- 36.776
5.41 --undefined-- 37.448
5.42 --undefined-- 37.477
5.43 --undefined-- 35.695
5.44 --undefined-- 34.200
5.45 --undefined-- 35.316
5.46 --undefined-- 36.199
5.47 --undefined-- 36.524
5.48 --undefined-- 36.743
5.49 --undefined-- 35.866
5.50 --undefined-- 33.787
5.51 --undefined-- 34.924
5.52 --undefined-- 38.624
5.53 --undefined-- 39.464
5.54 --undefined-- 37.238
5.55 --undefined-- 34.974
5.56 --undefined-- 33.898
5.57 --undefined-- 33.252
5.58 --undefined-- 36.489
5.59 --undefined-- 46.623
5.60 --undefined-- 55.349
5.61 --undefined-- 62.058
5.62 167.361 66.991
5.63 137.463 70.025
5.64 141.869 72.237
5.65 144.289 74.459
5.66 142.108 76.155
5.67 140.828 76.712
5.68 140.975 76.233
5.69 141.728 74.766
5.70 142.943 71.816
5.71 129.739 66.859
5.72 125.105 63.133
5.73 151.814 67.950
5.74 157.137 72.152
5.75 162.816 73.874
5.76 162.837 74.034
5.77 161.638 73.843
5.78 160.398 73.847
5.79 159.076 73.961
5.80 158.322 74.155
5.81 157.944 74.365
5.82 157.295 74.562
5.83 157.672 74.715
5.84 158.508 74.765
5.85 160.525 74.628
5.86 161.571 74.259
5.87 161.901 73.844
5.88 161.999 73.480
5.89 162.531 72.896
5.90 162.847 71.861
5.91 161.917 70.316
5.92 78.418 68.387
5.93 78.542 65.817
5.94 78.287 62.142
5.95 --undefined-- 57.001
5.96 --undefined-- 50.345
5.97 --undefined-- 44.804
5.98 --undefined-- 44.909
5.99 --undefined-- 43.210
6.00 --undefined-- 38.968
6.01 --undefined-- 37.659
6.02 --undefined-- 44.370
6.03 --undefined-- 54.377
6.04 188.399 60.927
6.05 170.396 64.808
6.06 162.750 67.769
6.07 168.944 70.796
6.08 165.371 73.368
6.09 165.832 74.856
6.10 166.003 75.174
6.11 164.601 74.438
6.12 159.860 73.456
6.13 162.214 73.154
6.14 160.916 74.133
6.15 158.520 75.626
6.16 156.915 76.170
6.17 152.016 75.716
6.18 146.748 74.928
6.19 141.792 74.024
6.20 137.171 73.120
6.21 133.455 72.623
6.22 133.657 72.452
6.23 131.870 72.013
6.24 129.150 70.779
6.25 123.831 68.354
6.26 118.956 64.643
6.27 114.907 60.130
6.28 117.357 55.768
6.29 --undefined-- 55.107
6.30 --undefined-- 61.289
6.31 194.952 67.745
6.32 181.052 72.118
6.33 178.401 74.782
6.34 176.004 76.587
6.35 175.586 77.922
6.36 175.483 78.532
6.37 175.538 78.513
6.38 175.444 78.079
6.39 175.440 77.432
6.40 177.108 76.697
6.41 178.884 75.515
6.42 176.157 74.005
6.43 170.172 72.696
6.44 163.626 71.254
6.45 157.584 69.240
6.46 159.152 66.866
6.47 152.525 64.783
6.48 144.346 --undefined--
6.49 138.642 --undefined--
6.50 --undefined-- --undefined--
6.51 --undefined-- --undefined--
