Time Pitch Intensity
0.01 --undefined-- --undefined--
0.02 116.311 --undefined--
0.03 116.070 --undefined--
0.04 112.831 --undefined--
0.05 109.410 70.693
0.06 99.651 65.453
0.07 --undefined-- 58.509
0.08 --undefined-- 51.823
0.09 --undefined-- 48.659
0.10 --undefined-- 48.988
0.11 --undefined-- 50.948
0.12 --undefined-- 51.999
0.13 --undefined-- 52.577
0.14 --undefined-- 52.573
0.15 --undefined-- 52.162
0.16 --undefined-- 51.948
0.17 --undefined-- 51.502
0.18 --undefined-- 50.919
0.19 --undefined-- 50.885
0.20 --undefined-- 50.705
0.21 --undefined-- 49.931
0.22 --undefined-- 49.252
0.23 --undefined-- 49.850
0.24 --undefined-- 50.431
0.25 --undefined-- 49.660
0.26 --undefined-- 48.629
0.27 --undefined-- 48.405
0.28 --undefined-- 47.975
0.29 --undefined-- 47.312
0.30 --undefined-- 48.455
0.31 --undefined-- 50.089
0.32 --undefined-- 49.329
0.33 --undefined-- 47.511
0.34 --undefined-- 51.757
0.35 --undefined-- 56.538
0.36 --undefined-- 62.739
0.37 220.084 70.577
0.38 204.175 75.614
0.39 177.678 78.023
0.40 169.499 78.930
0.41 161.971 78.879
0.42 158.059 78.514
0.43 156.356 78.271
0.44 156.110 77.852
0.45 154.400 76.766
0.46 149.912 74.524
0.47 144.220 71.230
0.48 141.257 67.315
0.49 138.862 61.941
0.50 --undefined-- 54.326
0.51 --undefined-- 48.176
0.52 --undefined-- 53.940
0.53 --undefined-- 65.323
0.54 --undefined-- 73.521
0.55 --undefined-- 77.911
0.56 162.743 79.416
0.57 154.495 79.173
0.58 148.348 78.434
0.59 144.603 77.748
0.60 143.956 76.862
0.61 141.376 75.286
0.62 131.963 72.718
0.63 126.620 69.985
0.64 130.956 68.318
0.65 138.426 68.768
0.66 146.814 71.568
0.67 146.817 74.198
0.68 146.860 75.671
0.69 143.805 76.076
0.70 139.173 75.492
0.71 134.807 73.717
0.72 127.971 70.513
0.73 120.500 66.164
0.74 116.204 61.232
0.75 --undefined-- 55.926
0.76 --undefined-- 53.839
0.77 --undefined-- 62.012
0.78 --undefined-- 70.290
0.79 163.272 75.224
0.80 152.904 77.645
0.81 145.475 78.396
0.82 142.225 78.181
0.83 141.758 77.666
0.84 142.149 77.164
0.85 142.201 76.665
0.86 142.181 76.110
0.87 142.008 75.492
0.88 141.020 74.586
0.89 135.521 72.784
0.90 131.681 69.928
0.91 124.827 66.507
0.92 120.958 62.817
0.93 128.750 59.104
0.94 128.399 55.426
0.95 --undefined-- 53.331
0.96 --undefined-- 56.146
0.97 177.322 63.431
0.98 165.257 68.819
0.99 154.075 71.709
1.00 140.644 73.461
1.01 127.765 74.764
1.02 122.746 75.333
1.03 121.476 74.924
1.04 119.531 73.644
1.05 118.296 71.611
1.06 118.763 68.894
1.07 122.199 65.802
1.08 125.581 64.679
1.09 152.155 68.027
1.10 157.287 71.826
1.11 148.384 74.183
1.12 129.078 74.988
1.13 126.691 75.099
1.14 123.777 75.462
1.15 121.333 75.857
1.16 119.238 75.895
1.17 117.315 75.612
1.18 116.438 75.176
1.19 116.484 74.811
1.20 116.822 74.510
1.21 117.747 74.205
1.22 119.427 74.144
1.23 121.423 74.504
1.24 123.461 75.139
1.25 125.373 75.766
1.26 126.695 76.272
1.27 128.809 76.679
1.28 131.000 76.955
1.29 132.475 77.024
1.30 133.952 76.835
1.31 134.577 76.131
1.32 133.486 74.422
1.33 132.105 71.555
1.34 131.824 67.775
1.35 111.310 63.214
1.36 --undefined-- 58.044
1.37 --undefined-- 54.671
1.38 --undefined-- 54.722
1.39 --undefined-- 56.744
1.40 --undefined-- 64.606
1.41 --undefined-- 71.276
1.42 --undefined-- 74.544
1.43 140.582 75.437
1.44 129.655 75.250
1.45 125.338 74.718
1.46 120.838 74.240
1.47 118.837 73.897
1.48 118.714 73.648
1.49 119.749 73.655
1.50 121.382 73.736
1.51 123.405 73.783
1.52 125.123 73.887
1.53 126.440 73.865
1.54 127.057 73.435
1.55 128.683 72.429
1.56 130.513 70.837
1.57 129.894 68.503
1.58 129.118 65.083
1.59 128.964 60.234
1.60 --undefined-- 54.156
1.61 --undefined-- 52.392
1.62 --undefined-- 62.049
1.63 219.073 70.235
1.64 199.576 74.805
1.65 189.243 76.556
1.66 187.311 76.665
1.67 188.883 76.693
1.68 193.574 77.136
1.69 194.785 77.386
1.70 196.316 77.370
1.71 197.865 77.262
1.72 198.693 77.112
1.73 197.855 76.835
1.74 194.519 76.446
1.75 191.009 75.988
1.76 185.303 75.171
1.77 175.316 73.585
1.78 164.007 71.067
1.79 149.558 67.730
1.80 145.952 63.769
1.81 154.749 58.818
1.82 --undefined-- 52.690
1.83 --undefined-- 51.790
1.84 --undefined-- 56.056
1.85 --undefined-- 59.789
1.86 --undefined-- 65.188
1.87 175.958 69.924
1.88 161.047 72.241
1.89 155.018 72.892
1.90 150.033 72.509
1.91 140.648 71.125
1.92 133.151 69.125
1.93 129.406 67.119
1.94 129.776 65.430
1.95 130.876 64.737
1.96 142.088 67.459
1.97 160.837 71.973
1.98 154.951 75.048
1.99 127.734 76.316
2.00 125.562 76.831
2.01 123.745 77.486
2.02 122.801 77.855
2.03 121.842 77.737
2.04 120.980 77.272
2.05 120.994 76.603
2.06 121.772 75.979
2.07 122.607 75.651
2.08 123.036 75.579
2.09 123.692 75.548
2.10 123.953 75.405
2.11 123.722 75.059
2.12 123.458 74.441
2.13 122.129 73.543
2.14 122.474 72.507
2.15 124.197 71.647
2.16 126.294 71.394
2.17 127.963 71.618
2.18 128.507 71.973
2.19 127.222 72.488
2.20 125.405 73.299
2.21 123.604 74.138
2.22 120.046 74.518
2.23 117.658 74.033
2.24 113.446 72.111
2.25 104.597 68.614
2.26 103.827 64.069
2.27 115.749 58.695
2.28 --undefined-- 53.157
2.29 --undefined-- 49.100
2.30 --undefined-- 45.085
2.31 --undefined-- 43.169
2.32 --undefined-- 44.330
2.33 --undefined-- 49.116
2.34 --undefined-- 54.645
2.35 --undefined-- 59.340
2.36 --undefined-- 62.517
2.37 --undefined-- 64.297
2.38 --undefined-- 68.355
2.39 209.792 73.571
2.40 202.073 76.494
2.41 199.345 77.485
2.42 199.200 77.510
2.43 198.564 77.018
2.44 197.913 75.996
2.45 196.474 74.782
2.46 203.019 74.942
2.47 209.396 76.063
2.48 206.607 76.345
2.49 203.143 75.733
2.50 200.573 74.733
2.51 199.478 73.685
2.52 199.938 72.921
2.53 207.955 73.321
2.54 224.222 74.875
2.55 226.762 75.773
2.56 217.618 75.218
2.57 200.731 73.690
2.58 173.530 72.446
2.59 159.426 72.549
2.60 128.254 72.345
2.61 115.013 70.334
2.62 106.845 66.792
2.63 106.781 63.152
2.64 --undefined-- 60.036
2.65 --undefined-- 57.028
2.66 --undefined-- 53.719
2.67 --undefined-- 50.255
2.68 --undefined-- 46.628
2.69 --undefined-- 43.296
2.70 --undefined-- 42.526
2.71 --undefined-- 49.584
2.72 --undefined-- 60.476
2.73 --undefined-- 67.918
2.74 --undefined-- 72.284
2.75 121.565 74.472
2.76 120.726 75.348
2.77 119.908 75.406
2.78 118.538 74.662
2.79 117.832 73.290
2.80 118.465 71.742
2.81 119.072 70.127
2.82 117.627 68.176
2.83 114.758 65.315
2.84 102.639 61.098
2.85 --undefined-- 55.954
2.86 --undefined-- 51.317
2.87 --undefined-- 47.327
2.88 --undefined-- 43.743
2.89 --undefined-- 45.715
2.90 --undefined-- 51.643
2.91 --undefined-- 55.735
2.92 --undefined-- 58.056
2.93 --undefined-- 63.380
2.94 167.318 69.840
2.95 156.498 73.375
2.96 144.576 74.147
2.97 136.770 72.926
2.98 129.406 70.244
2.99 124.927 66.227
3.00 117.550 62.124
3.01 136.383 61.988
3.02 136.739 66.310
3.03 142.760 71.217
3.04 130.809 74.287
3.05 119.651 75.259
3.06 116.721 74.313
3.07 105.115 72.172
3.08 105.386 70.173
3.09 105.815 68.612
3.10 --undefined-- 68.147
3.11 --undefined-- 68.894
3.12 146.830 70.042
3.13 153.797 72.241
3.14 153.415 75.492
3.15 159.106 78.510
3.16 160.084 80.365
3.17 161.661 80.894
3.18 164.040 80.462
3.19 166.781 79.448
3.20 171.528 77.938
3.21 172.378 76.118
3.22 169.642 74.087
3.23 163.799 71.760
3.24 160.413 68.771
3.25 151.808 64.089
3.26 --undefined-- 56.898
3.27 --undefined-- 48.745
3.28 --undefined-- 46.181
3.29 --undefined-- 45.994
3.30 --undefined-- 46.587
3.31 --undefined-- 48.136
3.32 --undefined-- 48.018
3.33 --undefined-- 46.701
3.34 --undefined-- 45.946
3.35 --undefined-- 46.050
3.36 --undefined-- 46.671
3.37 --undefined-- 47.214
3.38 --undefined-- 47.061
3.39 --undefined-- 46.642
3.40 --undefined-- 46.349
3.41 --undefined-- 46.087
3.42 --undefined-- 45.909
3.43 --undefined-- 45.787
3.44 --undefined-- 45.607
3.45 --undefined-- 45.081
3.46 --undefined-- 43.720
3.47 --undefined-- 42.398
3.48 --undefined-- 42.066
3.49 --undefined-- 42.432
3.50 --undefined-- 41.818
3.51 --undefined-- 39.340
3.52 --undefined-- 38.712
3.53 --undefined-- 39.896
3.54 --undefined-- 44.814
3.55 --undefined-- 49.708
3.56 --undefined-- 50.851
3.57 --undefined-- 53.577
3.58 --undefined-- 62.450
3.59 167.653 68.408
3.60 155.975 71.392
3.61 148.126 72.762
3.62 147.476 73.781
3.63 147.574 74.575
3.64 144.426 74.611
3.65 138.620 73.696
3.66 134.636 72.223
3.67 131.007 70.305
3.68 126.361 67.763
3.69 122.476 66.354
3.70 136.324 68.057
3.71 142.888 71.380
3.72 143.890 74.372
3.73 137.599 76.527
3.74 130.186 77.888
3.75 126.546 78.512
3.76 125.411 78.531
3.77 124.594 78.190
3.78 123.369 77.579
3.79 121.096 76.321
3.80 117.173 73.736
3.81 112.025 69.488
3.82 113.758 64.176
3.83 115.040 59.424
3.84 --undefined-- 58.804
3.85 --undefined-- 59.936
3.86 --undefined-- 60.742
3.87 --undefined-- 65.303
3.88 --undefined-- 71.947
3.89 148.165 76.151
3.90 130.922 78.035
3.91 131.005 78.685
3.92 137.190 79.031
3.93 139.701 79.271
3.94 145.550 79.542
3.95 154.663 79.818
3.96 158.928 79.577
3.97 164.844 78.530
3.98 162.310 76.757
3.99 155.066 74.459
4.00 150.223 72.107
4.01 152.628 71.189
4.02 149.577 71.610
4.03 143.981 72.233
4.04 137.150 72.976
4.05 133.761 74.152
4.06 130.927 75.433
4.07 124.716 76.131
4.08 119.448 76.274
4.09 119.278 76.086
4.10 118.877 75.668
4.11 117.817 75.154
4.12 117.723 74.501
4.13 118.177 73.652
4.14 121.148 72.664
4.15 124.636 71.670
4.16 131.627 70.671
4.17 139.351 69.843
4.18 148.724 69.402
4.19 161.686 69.870
4.20 173.157 71.166
4.21 186.243 73.120
4.22 208.405 75.532
4.23 210.893 77.240
4.24 210.531 77.959
4.25 215.713 78.195
4.26 220.410 78.128
4.27 223.327 77.928
4.28 224.824 77.879
4.29 226.899 77.973
4.30 228.926 77.995
4.31 228.262 77.610
4.32 221.727 76.611
4.33 212.682 75.043
4.34 203.397 72.653
4.35 190.736 68.909
4.36 185.699 64.837
4.37 189.888 64.747
4.38 202.009 68.525
4.39 198.175 71.782
4.40 185.872 73.749
4.41 174.846 74.665
4.42 170.520 74.847
4.43 167.355 74.582
4.44 161.799 74.131
4.45 157.177 73.754
4.46 153.506 73.276
4.47 150.091 72.240
4.48 145.708 70.474
4.49 143.949 68.018
4.50 142.269 64.872
4.51 137.177 61.607
4.52 146.573 62.218
4.53 168.080 66.189
4.54 172.685 69.920
4.55 171.535 73.148
4.56 173.113 75.707
4.57 173.719 77.144
4.58 174.773 77.565
4.59 176.955 77.221
4.60 178.611 76.389
4.61 179.302 75.428
4.62 178.387 74.456
4.63 175.473 73.490
4.64 172.055 72.527
4.65 167.263 71.534
4.66 160.772 70.831
4.67 156.554 71.068
4.68 154.344 72.021
4.69 153.627 73.346
4.70 154.754 75.140
4.71 155.409 76.891
4.72 153.540 77.782
4.73 150.320 77.645
4.74 148.544 77.114
4.75 147.614 76.869
4.76 146.820 76.967
4.77 146.264 77.154
4.78 146.264 77.116
4.79 146.807 76.645
4.80 147.767 75.530
4.81 148.719 73.340
4.82 141.642 70.143
4.83 135.238 66.898
4.84 130.220 64.101
4.85 133.294 60.874
4.86 125.183 57.830
4.87 --undefined-- 59.428
4.88 --undefined-- 65.120
4.89 --undefined-- 70.882
4.90 157.125 74.232
4.91 149.390 75.244
4.92 137.338 75.151
4.93 134.746 74.949
4.94 133.424 74.672
4.95 132.541 74.444
4.96 132.048 74.364
4.97 132.434 74.331
4.98 133.356 73.998
4.99 131.285 72.814
5.00 126.476 70.511
5.01 125.492 67.469
5.02 119.212 64.095
5.03 129.007 61.402
5.04 149.677 63.550
5.05 149.842 67.703
5.06 141.898 70.569
5.07 131.915 71.863
5.08 123.999 71.724
5.09 119.042 70.325
5.10 114.333 67.777
5.11 111.341 64.401
5.12 112.718 61.077
5.13 104.280 59.788
5.14 104.520 61.545
5.15 105.346 63.925
5.16 109.640 65.949
5.17 117.956 67.883
5.18 117.249 69.442
5.19 114.714 70.462
5.20 115.115 71.345
5.21 115.056 72.170
5.22 115.820 --undefined--
5.23 118.368 --undefined--
5.24 --undefined-- --undefined--
5.25 --undefined-- --undefined--
