Time Pitch Intensity
0.01 --undefined-- --undefined--
0.02 171.884 --undefined--
0.03 165.857 --undefined--
0.04 158.837 --undefined--
0.05 296.709 70.619
0.06 266.714 71.353
0.07 247.358 71.342
0.08 225.811 70.107
0.09 214.251 68.618
0.10 207.506 67.530
0.11 202.118 66.527
0.12 199.866 65.705
0.13 198.611 65.025
0.14 196.813 63.748
0.15 192.186 61.439
0.16 189.296 58.875
0.17 189.980 57.153
0.18 --undefined-- 54.873
0.19 --undefined-- 51.632
0.20 --undefined-- 50.819
0.21 --undefined-- 51.209
0.22 --undefined-- 49.692
0.23 --undefined-- 47.796
0.24 --undefined-- 50.873
0.25 --undefined-- 57.694
0.26 --undefined-- 60.933
0.27 --undefined-- 60.657
0.28 --undefined-- 59.015
0.29 --undefined-- 58.012
0.30 --undefined-- 56.833
0.31 --undefined-- 55.783
0.32 --undefined-- 54.821
0.33 --undefined-- 54.670
0.34 203.010 56.517
0.35 201.959 58.766
0.36 216.064 60.509
0.37 219.081 61.965
0.38 201.610 63.547
0.39 197.759 65.294
0.40 194.128 66.775
0.41 191.646 67.642
0.42 189.363 67.802
0.43 187.854 67.507
0.44 186.635 67.171
0.45 185.207 66.986
0.46 184.465 66.966
0.47 184.559 67.019
0.48 185.726 67.084
0.49 186.863 67.012
0.50 188.164 66.404
0.51 190.857 65.573
0.52 193.057 65.577
0.53 191.832 66.152
0.54 190.902 66.286
0.55 190.766 65.348
0.56 189.956 63.447
0.57 184.782 61.296
0.58 179.776 59.455
0.59 173.322 58.060
0.60 170.536 57.075
0.61 163.859 56.982
0.62 163.330 58.888
0.63 163.602 62.514
0.64 170.860 65.902
0.65 170.952 67.692
0.66 167.177 67.416
0.67 164.634 65.525
0.68 164.281 64.052
0.69 166.833 64.224
0.70 --undefined-- 64.398
0.71 --undefined-- 63.939
0.72 159.397 63.516
0.73 159.296 62.256
0.74 --undefined-- 59.803
0.75 --undefined-- 58.550
0.76 --undefined-- 58.791
0.77 170.490 59.356
0.78 156.678 60.107
0.79 157.423 60.775
0.80 157.563 60.910
0.81 164.424 60.432
0.82 164.217 59.829
0.83 157.066 59.286
0.84 87.079 59.863
0.85 87.765 61.088
0.86 87.562 61.556
0.87 --undefined-- 61.466
0.88 --undefined-- 60.819
0.89 --undefined-- 59.822
0.90 --undefined-- 58.859
0.91 --undefined-- 57.770
0.92 --undefined-- 56.082
0.93 --undefined-- 53.911
0.94 --undefined-- 53.152
0.95 --undefined-- 54.167
0.96 --undefined-- 54.634
0.97 --undefined-- 54.042
0.98 --undefined-- 53.372
0.99 --undefined-- 52.877
1.00 --undefined-- 53.537
1.01 --undefined-- 54.602
1.02 --undefined-- 55.887
1.03 --undefined-- 57.069
1.04 --undefined-- 57.389
1.05 --undefined-- 57.256
1.06 --undefined-- 58.927
1.07 --undefined-- 61.613
1.08 257.393 64.467
1.09 256.677 67.291
1.10 252.887 69.105
1.11 251.246 69.800
1.12 250.090 69.960
1.13 250.271 69.934
1.14 251.194 69.664
1.15 252.297 69.042
1.16 252.904 68.024
1.17 253.216 66.747
1.18 252.629 65.685
1.19 250.149 65.144
1.20 245.571 64.918
1.21 239.441 64.831
1.22 235.213 64.762
1.23 230.167 64.537
1.24 225.340 64.020
1.25 220.539 62.835
1.26 213.636 60.167
1.27 199.458 55.534
1.28 201.529 52.621
1.29 204.473 56.944
1.30 205.702 61.358
1.31 190.130 63.805
1.32 180.998 64.560
1.33 172.130 64.340
1.34 168.987 63.784
1.35 168.659 62.960
1.36 169.798 62.110
1.37 169.213 61.707
1.38 168.970 61.406
1.39 171.809 60.969
1.40 175.552 61.147
1.41 180.838 62.178
1.42 186.250 63.169
1.43 190.963 63.372
1.44 194.456 62.457
1.45 194.092 60.194
1.46 --undefined-- 56.278
1.47 --undefined-- 51.639
1.48 --undefined-- 53.312
1.49 --undefined-- 56.124
1.50 --undefined-- 55.805
1.51 --undefined-- 54.340
1.52 200.962 56.365
1.53 198.945 58.972
1.54 204.439 60.409
1.55 210.057 61.566
1.56 198.136 62.986
1.57 182.005 64.326
1.58 175.534 64.895
1.59 173.044 64.908
1.60 172.294 65.031
1.61 171.236 65.240
1.62 171.205 65.224
1.63 173.602 65.073
1.64 176.799 65.337
1.65 178.791 65.931
1.66 180.795 65.971
1.67 183.245 64.446
1.68 183.662 60.551
1.69 189.554 54.624
1.70 --undefined-- 50.565
1.71 --undefined-- 50.058
1.72 --undefined-- 57.518
1.73 235.102 64.305
1.74 235.269 68.312
1.75 229.350 70.089
1.76 228.107 70.195
1.77 229.831 69.345
1.78 232.056 68.047
1.79 234.169 66.621
1.80 235.803 65.533
1.81 237.599 65.117
1.82 240.789 65.244
1.83 243.363 65.598
1.84 244.904 65.887
1.85 245.173 65.883
1.86 244.691 65.076
1.87 240.009 62.492
1.88 226.465 57.608
1.89 --undefined-- 54.924
1.90 --undefined-- 57.723
1.91 264.775 61.597
1.92 268.941 65.021
1.93 275.857 67.020
1.94 278.317 67.874
1.95 278.714 67.971
1.96 273.665 67.760
1.97 269.986 67.649
1.98 267.062 67.707
1.99 264.296 67.831
2.00 260.370 67.852
2.01 255.054 67.963
2.02 248.941 68.606
2.03 243.533 69.652
2.04 235.437 70.118
2.05 229.636 69.230
2.06 210.654 67.430
2.07 192.997 66.399
2.08 187.748 66.358
2.09 179.895 65.764
2.10 162.039 63.964
2.11 149.361 61.194
2.12 --undefined-- 57.450
2.13 --undefined-- 53.182
2.14 --undefined-- 50.161
2.15 --undefined-- 47.869
2.16 --undefined-- 45.083
2.17 --undefined-- 44.888
2.18 --undefined-- 45.388
2.19 --undefined-- 44.173
2.20 --undefined-- 43.510
2.21 --undefined-- 44.206
2.22 --undefined-- 45.795
2.23 --undefined-- 46.970
2.24 --undefined-- 48.121
2.25 --undefined-- 51.398
2.26 --undefined-- 52.737
2.27 --undefined-- 50.679
2.28 --undefined-- 47.112
2.29 --undefined-- 46.438
2.30 --undefined-- 46.547
2.31 --undefined-- 46.214
2.32 --undefined-- 47.369
2.33 --undefined-- 50.594
2.34 --undefined-- 52.792
2.35 --undefined-- 52.909
2.36 --undefined-- 51.180
2.37 --undefined-- 48.321
2.38 --undefined-- 47.923
2.39 --undefined-- 50.484
2.40 --undefined-- 52.655
2.41 --undefined-- 52.729
2.42 --undefined-- 51.514
2.43 --undefined-- 51.832
2.44 --undefined-- 52.359
2.45 --undefined-- 52.120
2.46 --undefined-- 51.794
2.47 --undefined-- 51.072
2.48 --undefined-- 51.035
2.49 --undefined-- 51.641
2.50 --undefined-- 51.506
2.51 --undefined-- 51.218
2.52 --undefined-- 51.039
2.53 --undefined-- 50.273
2.54 --undefined-- 49.683
2.55 --undefined-- 51.290
2.56 --undefined-- 53.274
2.57 --undefined-- 53.058
2.58 --undefined-- 50.790
2.59 --undefined-- 47.952
2.60 --undefined-- 45.586
2.61 --undefined-- 47.061
2.62 --undefined-- 51.195
2.63 --undefined-- 52.884
2.64 --undefined-- 52.184
2.65 --undefined-- 52.905
2.66 --undefined-- 54.455
2.67 --undefined-- 55.251
2.68 --undefined-- 58.598
2.69 --undefined-- 64.053
2.70 164.085 67.940
2.71 162.541 69.892
2.72 162.607 70.803
2.73 164.158 71.351
2.74 167.442 71.612
2.75 170.606 71.562
2.76 173.529 71.347
2.77 176.500 71.235
2.78 178.597 71.468
2.79 179.730 71.666
2.80 178.974 71.393
2.81 176.960 71.061
2.82 181.360 71.021
2.83 183.958 71.099
2.84 181.609 70.833
2.85 182.015 70.098
2.86 180.246 69.822
2.87 178.658 69.982
2.88 178.425 70.101
2.89 179.658 70.326
2.90 179.049 70.427
2.91 173.361 70.114
2.92 170.021 69.860
2.93 168.106 70.093
2.94 166.454 70.488
2.95 165.605 70.683
2.96 165.266 70.445
2.97 164.420 69.982
2.98 164.269 69.733
2.99 164.746 69.602
3.00 166.348 69.429
3.01 168.289 69.274
3.02 166.951 69.392
3.03 162.929 70.128
3.04 161.582 70.758
3.05 160.198 70.681
3.06 158.178 70.178
3.07 154.626 69.712
3.08 299.315 69.350
3.09 287.934 68.961
3.10 272.972 68.861
3.11 251.877 69.284
3.12 236.308 69.669
3.13 225.936 69.537
3.14 216.343 68.706
3.15 212.126 67.979
3.16 211.748 68.082
3.17 215.012 68.723
3.18 221.147 69.282
3.19 232.237 68.944
3.20 249.324 67.703
3.21 269.057 67.124
3.22 283.718 68.179
3.23 294.669 69.650
3.24 150.581 70.597
3.25 153.694 70.921
3.26 156.515 70.932
3.27 159.547 70.795
3.28 162.430 70.315
3.29 162.238 69.694
3.30 157.049 69.539
3.31 --undefined-- 69.856
3.32 --undefined-- 70.258
3.33 --undefined-- 70.145
3.34 --undefined-- 69.450
3.35 --undefined-- 68.399
3.36 --undefined-- 67.309
3.37 --undefined-- 66.338
3.38 --undefined-- 65.646
3.39 --undefined-- 64.680
3.40 --undefined-- 62.233
3.41 --undefined-- 58.390
3.42 --undefined-- 56.719
3.43 --undefined-- 57.727
3.44 --undefined-- 57.360
3.45 --undefined-- 55.010
3.46 --undefined-- 53.930
3.47 --undefined-- 53.932
3.48 --undefined-- 51.491
3.49 --undefined-- 48.853
3.50 --undefined-- 48.444
3.51 --undefined-- 47.863
3.52 --undefined-- 47.732
3.53 --undefined-- 48.250
3.54 --undefined-- 48.413
3.55 --undefined-- 50.208
3.56 --undefined-- 58.398
3.57 159.985 64.900
3.58 158.074 68.580
3.59 157.242 70.468
3.60 159.142 71.651
3.61 160.402 72.555
3.62 160.979 73.088
3.63 161.739 73.181
3.64 162.762 72.836
3.65 164.217 72.110
3.66 166.116 70.980
3.67 168.243 69.584
3.68 168.371 68.379
3.69 167.280 67.552
3.70 165.285 66.998
3.71 163.405 67.001
3.72 166.876 68.046
3.73 166.455 69.082
3.74 163.784 69.717
3.75 157.710 69.898
3.76 294.799 68.894
3.77 268.440 66.448
3.78 241.318 63.515
3.79 219.025 62.383
3.80 211.406 63.880
3.81 217.550 65.526
3.82 217.814 66.193
3.83 214.141 66.497
3.84 202.485 67.229
3.85 193.186 68.213
3.86 190.714 68.916
3.87 185.191 68.853
3.88 175.864 67.584
3.89 173.084 65.207
3.90 169.704 62.686
3.91 --undefined-- 60.923
3.92 --undefined-- 59.741
3.93 --undefined-- 58.106
3.94 --undefined-- 56.166
3.95 --undefined-- 54.701
3.96 --undefined-- 52.520
3.97 --undefined-- 50.421
3.98 --undefined-- 51.226
3.99 --undefined-- 53.811
4.00 --undefined-- 54.218
4.01 --undefined-- 52.347
4.02 --undefined-- 51.497
4.03 --undefined-- 51.883
4.04 --undefined-- 52.366
4.05 --undefined-- 52.913
4.06 --undefined-- 53.812
4.07 --undefined-- 55.290
4.08 229.656 57.367
4.09 231.341 60.061
4.10 253.123 62.305
4.11 249.368 63.756
4.12 243.095 64.810
4.13 241.719 65.767
4.14 241.818 66.212
4.15 243.893 65.866
4.16 247.114 65.261
4.17 251.003 65.146
4.18 252.205 65.564
4.19 252.099 65.941
4.20 247.484 65.572
4.21 238.543 63.798
4.22 230.013 60.043
4.23 --undefined-- 54.850
4.24 --undefined-- 54.761
4.25 214.504 59.965
4.26 200.666 64.049
4.27 193.158 66.648
4.28 188.847 68.048
4.29 183.065 68.194
4.30 182.935 67.449
4.31 186.169 66.425
4.32 188.739 65.760
4.33 191.255 65.508
4.34 194.119 65.007
4.35 195.306 63.835
4.36 193.546 61.621
4.37 191.665 57.970
4.38 189.919 54.142
4.39 --undefined-- 51.448
4.40 --undefined-- 48.565
4.41 --undefined-- 48.880
4.42 --undefined-- 50.303
4.43 --undefined-- 50.627
4.44 --undefined-- 51.802
4.45 --undefined-- 53.794
4.46 --undefined-- 56.407
4.47 --undefined-- 57.767
4.48 --undefined-- 57.961
4.49 --undefined-- 60.416
4.50 184.635 63.400
4.51 181.561 65.058
4.52 173.888 65.475
4.53 173.651 65.321
4.54 175.808 65.234
4.55 182.869 64.963
4.56 184.324 63.676
4.57 182.657 60.465
4.58 185.359 55.180
4.59 --undefined-- 51.395
4.60 --undefined-- 50.056
4.61 --undefined-- 47.276
4.62 --undefined-- 44.569
4.63 --undefined-- 45.446
4.64 --undefined-- 49.179
4.65 --undefined-- 54.949
4.66 165.990 59.581
4.67 163.950 62.163
4.68 161.707 63.351
4.69 159.067 63.600
4.70 156.989 63.075
4.71 154.309 61.386
4.72 149.979 57.800
4.73 153.752 52.039
4.74 --undefined-- 47.362
4.75 --undefined-- 48.869
4.76 --undefined-- 51.221
4.77 --undefined-- 53.607
4.78 --undefined-- 57.836
4.79 189.920 61.492
4.80 177.241 63.352
4.81 173.412 63.994
4.82 170.468 64.092
4.83 169.789 64.235
4.84 169.059 64.424
4.85 167.872 64.442
4.86 166.999 64.358
4.87 166.711 64.418
4.88 167.329 64.767
4.89 169.153 65.139
4.90 171.127 64.992
4.91 170.815 64.660
4.92 170.563 65.182
4.93 170.047 66.237
4.94 169.670 66.920
4.95 169.950 66.984
4.96 172.142 66.623
4.97 175.942 66.408
4.98 178.844 66.170
4.99 179.020 64.675
5.00 177.830 60.911
5.01 175.960 54.618
5.02 175.825 47.812
5.03 --undefined-- 44.396
5.04 --undefined-- 43.538
5.05 --undefined-- 45.783
5.06 --undefined-- --undefined--
5.07 --undefined-- --undefined--
5.08 --undefined-- --undefined--
5.09 --undefined-- --undefined--
