Time Pitch Intensity
0.01 --undefined-- --undefined--
0.02 108.628 --undefined--
0.03 107.838 --undefined--
0.04 107.740 --undefined--
0.05 107.938 71.400
0.06 108.507 70.946
0.07 108.475 70.480
0.08 109.324 70.144
0.09 111.134 69.859
0.10 111.783 69.277
0.11 112.723 68.203
0.12 114.821 66.299
0.13 118.400 63.910
0.14 118.548 62.447
0.15 118.546 61.765
0.16 118.241 61.401
0.17 115.605 61.155
0.18 112.075 61.640
0.19 108.368 65.745
0.20 --undefined-- 70.570
0.21 --undefined-- 73.176
0.22 --undefined-- 74.045
0.23 --undefined-- 74.298
0.24 --undefined-- 74.143
0.25 86.857 72.774
0.26 86.428 70.179
0.27 86.429 68.464
0.28 86.476 68.233
0.29 85.602 68.012
0.30 84.815 68.041
0.31 83.692 68.145
0.32 82.677 67.750
0.33 80.821 67.135
0.34 79.464 66.884
0.35 78.142 66.369
0.36 74.953 64.209
0.37 --undefined-- 59.692
0.38 --undefined-- 52.926
0.39 --undefined-- 45.890
0.40 --undefined-- 46.704
0.41 --undefined-- 49.208
0.42 --undefined-- 51.190
0.43 --undefined-- 52.960
0.44 --undefined-- 53.668
0.45 --undefined-- 53.477
0.46 --undefined-- 53.504
0.47 --undefined-- 54.097
0.48 --undefined-- 54.953
0.49 --undefined-- 55.903
0.50 --undefined-- 57.467
0.51 --undefined-- 59.505
0.52 --undefined-- 61.187
0.53 --undefined-- 62.442
0.54 --undefined-- 63.395
0.55 --undefined-- 64.137
0.56 --undefined-- 64.421
0.57 --undefined-- 63.571
0.58 --undefined-- 61.777
0.59 --undefined-- 61.145
0.60 --undefined-- 61.429
0.61 --undefined-- 61.373
0.62 --undefined-- 61.119
0.63 --undefined-- 60.327
0.64 --undefined-- 59.446
0.65 --undefined-- 58.927
0.66 --undefined-- 59.388
0.67 --undefined-- 60.088
0.68 --undefined-- 59.739
0.69 --undefined-- 58.381
0.70 --undefined-- 56.204
0.71 --undefined-- 56.152
0.72 --undefined-- 61.307
0.73 --undefined-- 63.976
0.74 100.563 64.030
0.75 110.639 66.469
0.76 118.584 70.457
0.77 121.979 72.829
0.78 123.470 73.690
0.79 124.958 73.746
0.80 128.259 73.342
0.81 129.994 72.200
0.82 129.967 69.680
0.83 127.009 65.341
0.84 125.448 59.432
0.85 --undefined-- 52.965
0.86 --undefined-- 46.470
0.87 --undefined-- 41.119
0.88 --undefined-- 48.216
0.89 --undefined-- 59.017
0.90 --undefined-- 67.293
0.91 121.238 72.827
0.92 115.608 76.102
0.93 110.988 77.561
0.94 108.538 77.637
0.95 105.439 76.750
0.96 103.095 75.535
0.97 100.896 74.597
0.98 99.889 74.269
0.99 98.328 74.423
1.00 96.620 74.696
1.01 95.912 74.898
1.02 95.661 74.840
1.03 94.040 74.411
1.04 92.983 73.680
1.05 93.206 72.648
1.06 95.641 71.450
1.07 100.232 70.112
1.08 102.991 68.191
1.09 103.028 65.438
1.10 107.058 62.879
1.11 108.028 61.699
1.12 108.627 60.628
1.13 109.246 58.402
1.14 109.245 55.003
1.15 --undefined-- 50.871
1.16 --undefined-- 46.786
1.17 --undefined-- 43.955
1.18 --undefined-- 43.752
1.19 --undefined-- 45.458
1.20 --undefined-- 46.098
1.21 --undefined-- 43.996
1.22 --undefined-- 39.217
1.23 --undefined-- 33.994
1.24 --undefined-- 31.646
1.25 --undefined-- 34.233
1.26 --undefined-- 40.121
1.27 --undefined-- 51.380
1.28 --undefined-- 61.630
1.29 --undefined-- 68.564
1.30 111.083 72.687
1.31 110.511 74.692
1.32 110.019 75.169
1.33 109.066 74.709
1.34 108.101 73.883
1.35 106.838 72.895
1.36 105.998 71.927
1.37 105.749 71.410
1.38 105.448 71.389
1.39 105.444 71.700
1.40 105.519 72.084
1.41 105.246 72.239
1.42 104.490 72.135
1.43 103.827 72.161
1.44 103.774 72.447
1.45 103.871 72.730
1.46 103.858 72.827
1.47 103.059 72.638
1.48 102.069 72.340
1.49 101.846 72.065
1.50 101.901 71.736
1.51 101.793 71.436
1.52 101.272 71.253
1.53 99.957 71.239
1.54 99.307 71.258
1.55 98.636 71.147
1.56 99.894 70.737
1.57 101.596 69.737
1.58 102.800 68.208
1.59 102.934 65.941
1.60 101.001 61.979
1.61 --undefined-- 55.891
1.62 --undefined-- 49.358
1.63 --undefined-- 45.302
1.64 --undefined-- 43.092
1.65 --undefined-- 41.277
1.66 --undefined-- 39.490
1.67 --undefined-- 38.503
1.68 --undefined-- 38.700
1.69 --undefined-- 39.775
1.70 --undefined-- 47.634
1.71 --undefined-- 57.105
1.72 91.385 64.251
1.73 90.886 68.905
1.74 87.836 71.324
1.75 83.300 72.131
1.76 80.017 71.965
1.77 78.031 71.257
1.78 77.938 70.234
1.79 77.796 69.016
1.80 77.434 67.663
1.81 77.476 66.049
1.82 78.002 64.126
1.83 79.684 62.490
1.84 81.100 61.665
1.85 81.406 60.782
1.86 81.418 59.179
1.87 80.893 57.201
1.88 78.766 54.633
1.89 --undefined-- 50.711
1.90 --undefined-- 45.867
1.91 --undefined-- 44.858
1.92 --undefined-- 50.338
1.93 --undefined-- 55.588
1.94 --undefined-- 58.688
1.95 --undefined-- 60.253
1.96 --undefined-- 60.210
1.97 --undefined-- 58.875
1.98 --undefined-- 59.768
1.99 --undefined-- 64.510
2.00 --undefined-- 68.896
2.01 --undefined-- 71.398
2.02 --undefined-- 72.317
2.03 --undefined-- 72.349
2.04 --undefined-- 71.492
2.05 --undefined-- 69.713
2.06 --undefined-- 67.540
2.07 --undefined-- 65.134
2.08 --undefined-- 62.187
2.09 --undefined-- 58.689
2.10 --undefined-- 54.691
2.11 --undefined-- 50.328
2.12 --undefined-- 46.619
2.13 --undefined-- 43.802
2.14 --undefined-- 41.306
2.15 --undefined-- 40.149
2.16 --undefined-- 40.184
2.17 --undefined-- 40.684
2.18 --undefined-- 40.598
2.19 --undefined-- 40.242
2.20 --undefined-- 42.296
2.21 --undefined-- 47.290
2.22 --undefined-- 51.748
2.23 --undefined-- 55.385
2.24 --undefined-- 58.578
2.25 --undefined-- 60.861
2.26 --undefined-- 61.657
2.27 --undefined-- 61.366
2.28 --undefined-- 61.208
2.29 --undefined-- 61.559
2.30 --undefined-- 62.530
2.31 --undefined-- 65.082
2.32 --undefined-- 69.879
2.33 --undefined-- 73.674
2.34 95.328 74.857
2.35 95.082 74.317
2.36 95.584 73.615
2.37 96.353 73.187
2.38 98.597 72.546
2.39 100.241 71.590
2.40 102.882 70.583
2.41 106.491 69.603
2.42 109.917 69.599
2.43 109.438 70.389
2.44 108.599 70.827
2.45 107.213 70.645
2.46 105.327 69.969
2.47 103.619 69.059
2.48 103.000 68.927
2.49 100.725 70.732
2.50 98.799 73.401
2.51 97.478 74.958
2.52 93.807 75.016
2.53 94.330 74.364
2.54 --undefined-- 73.586
2.55 --undefined-- 72.615
2.56 --undefined-- 71.085
2.57 --undefined-- 68.594
2.58 --undefined-- 65.162
2.59 --undefined-- 61.124
2.60 --undefined-- 56.632
2.61 --undefined-- 51.214
2.62 --undefined-- 46.385
2.63 --undefined-- 44.984
2.64 --undefined-- 46.402
2.65 --undefined-- 50.647
2.66 80.130 55.357
2.67 76.765 59.549
2.68 76.740 63.340
2.69 85.970 66.668
2.70 84.886 69.306
2.71 85.331 70.714
2.72 74.881 70.368
2.73 --undefined-- 68.296
2.74 --undefined-- 64.532
2.75 --undefined-- 59.038
2.76 --undefined-- 51.124
2.77 --undefined-- 41.290
2.78 --undefined-- 35.997
2.79 --undefined-- 34.620
2.80 --undefined-- 35.075
2.81 --undefined-- 35.045
2.82 --undefined-- 35.076
2.83 --undefined-- 36.009
2.84 --undefined-- 37.405
2.85 --undefined-- 42.304
2.86 --undefined-- 51.481
2.87 --undefined-- 58.717
2.88 --undefined-- 63.489
2.89 --undefined-- 66.506
2.90 --undefined-- 68.409
2.91 --undefined-- 69.293
2.92 --undefined-- 68.596
2.93 --undefined-- 65.301
2.94 --undefined-- 58.522
2.95 --undefined-- 49.815
2.96 --undefined-- 43.701
2.97 --undefined-- 39.408
2.98 --undefined-- 37.871
2.99 --undefined-- 37.586
3.00 --undefined-- 39.108
3.01 --undefined-- 41.193
3.02 --undefined-- 42.672
3.03 --undefined-- 43.252
3.04 --undefined-- 44.425
3.05 --undefined-- 49.667
3.06 --undefined-- 57.094
3.07 --undefined-- 63.751
3.08 --undefined-- 68.475
3.09 --undefined-- 71.053
3.10 80.765 71.532
3.11 78.620 70.444
3.12 78.184 68.416
3.13 78.426 65.887
3.14 79.514 63.766
3.15 78.458 62.548
3.16 76.991 61.218
3.17 76.496 58.859
3.18 76.501 55.748
3.19 77.487 53.228
3.20 78.363 52.177
3.21 79.490 51.825
3.22 80.797 51.707
3.23 82.427 52.077
3.24 81.759 52.847
3.25 80.640 54.152
3.26 80.673 56.404
3.27 82.529 59.355
3.28 81.955 62.595
3.29 81.624 65.321
3.30 82.243 67.269
3.31 83.689 68.777
3.32 83.579 69.241
3.33 84.914 69.027
3.34 85.833 69.526
3.35 85.459 69.456
3.36 85.528 68.599
3.37 84.893 67.776
3.38 86.900 67.843
3.39 88.243 68.875
3.40 88.841 69.920
3.41 88.333 70.895
3.42 87.087 71.569
3.43 85.266 71.565
3.44 80.530 71.166
3.45 78.497 71.007
3.46 78.088 71.016
3.47 78.031 70.883
3.48 78.830 70.982
3.49 81.280 71.251
3.50 83.130 71.302
3.51 83.822 70.729
3.52 84.385 69.049
3.53 84.514 65.696
3.54 --undefined-- 59.888
3.55 --undefined-- 51.437
3.56 --undefined-- 42.215
3.57 --undefined-- 37.724
3.58 --undefined-- 37.193
3.59 --undefined-- 36.120
3.60 --undefined-- 34.812
3.61 --undefined-- 36.482
3.62 --undefined-- 38.561
3.63 --undefined-- 38.786
3.64 --undefined-- 37.082
3.65 --undefined-- 35.659
3.66 --undefined-- 37.360
3.67 --undefined-- 44.096
3.68 --undefined-- 53.572
3.69 108.815 61.237
3.70 107.603 66.611
3.71 107.470 69.428
3.72 107.959 69.863
3.73 104.980 69.490
3.74 133.564 69.966
3.75 138.116 70.261
3.76 139.628 69.612
3.77 138.830 67.968
3.78 136.030 65.009
3.79 127.915 60.927
3.80 --undefined-- 60.769
3.81 --undefined-- 64.796
3.82 --undefined-- 69.120
3.83 130.928 71.919
3.84 125.794 72.658
3.85 123.871 72.104
3.86 118.971 71.201
3.87 115.357 70.402
3.88 112.048 69.625
3.89 108.899 68.505
3.90 106.572 66.893
3.91 104.920 64.922
3.92 104.172 63.112
3.93 104.174 62.160
3.94 104.774 61.932
3.95 103.078 61.408
3.96 101.623 59.977
3.97 --undefined-- 57.615
3.98 --undefined-- 55.439
3.99 --undefined-- 57.732
4.00 --undefined-- 64.486
4.01 105.316 69.973
4.02 104.456 72.919
4.03 103.153 73.736
4.04 100.372 73.789
4.05 98.891 73.800
4.06 98.007 73.408
4.07 96.836 72.635
4.08 96.578 71.691
4.09 97.740 70.785
4.10 99.264 70.516
4.11 99.856 71.385
4.12 100.225 72.631
4.13 99.905 73.273
4.14 99.065 73.114
4.15 97.216 72.646
4.16 96.936 72.189
4.17 97.036 71.919
4.18 97.456 72.103
4.19 98.284 72.371
4.20 99.765 72.330
4.21 99.153 72.120
4.22 98.507 72.367
4.23 97.959 72.941
4.24 97.264 73.036
4.25 98.822 72.365
4.26 103.296 71.774
4.27 107.711 71.642
4.28 112.368 70.831
4.29 117.855 69.425
4.30 119.016 68.699
4.31 118.811 68.215
4.32 118.127 66.435
4.33 117.748 62.625
4.34 120.550 57.019
4.35 --undefined-- 50.662
4.36 --undefined-- 43.515
4.37 --undefined-- 37.095
4.38 --undefined-- 36.245
4.39 --undefined-- 41.759
4.40 --undefined-- 54.121
4.41 --undefined-- 62.557
4.42 --undefined-- 67.681
4.43 117.743 71.196
4.44 113.084 73.874
4.45 111.106 75.597
4.46 110.222 76.035
4.47 110.110 75.399
4.48 110.260 74.400
4.49 109.973 73.460
4.50 110.617 72.438
4.51 110.400 71.164
4.52 108.846 70.063
4.53 108.189 69.193
4.54 107.491 67.765
4.55 106.887 65.351
4.56 108.457 62.690
4.57 110.851 61.454
4.58 112.827 60.931
4.59 113.920 60.646
4.60 114.596 60.618
4.61 115.007 60.300
4.62 115.867 59.321
4.63 116.454 57.772
4.64 117.177 56.360
4.65 116.391 55.185
4.66 113.016 53.077
4.67 --undefined-- 49.567
4.68 --undefined-- 46.121
4.69 --undefined-- 45.182
4.70 --undefined-- 46.547
4.71 --undefined-- 54.490
4.72 --undefined-- 64.084
4.73 --undefined-- 70.456
4.74 --undefined-- 73.588
4.75 --undefined-- 74.373
4.76 --undefined-- 74.054
4.77 --undefined-- 73.338
4.78 79.533 72.096
4.79 82.076 70.048
4.80 83.445 67.323
4.81 85.377 64.933
4.82 86.146 65.009
4.83 88.232 66.606
4.84 74.632 67.169
4.85 --undefined-- 66.749
4.86 80.478 66.687
4.87 81.149 66.684
4.88 81.388 65.314
4.89 80.258 61.707
4.90 --undefined-- 57.090
4.91 --undefined-- 52.233
4.92 --undefined-- 53.343
4.93 --undefined-- 61.697
4.94 98.044 67.725
4.95 97.937 71.322
4.96 100.841 72.621
4.97 100.808 72.120
4.98 101.299 70.807
4.99 101.118 69.064
5.00 99.848 66.027
5.01 --undefined-- 60.683
5.02 --undefined-- 53.012
5.03 --undefined-- 45.834
5.04 --undefined-- 44.956
5.05 --undefined-- 51.262
5.06 112.962 58.609
5.07 109.521 64.751
5.08 108.249 69.230
5.09 106.138 71.481
5.10 104.251 71.118
5.11 --undefined-- 67.843
5.12 --undefined-- 61.536
5.13 --undefined-- 53.031
5.14 --undefined-- 45.693
5.15 --undefined-- 41.287
5.16 --undefined-- 39.041
5.17 --undefined-- 40.886
5.18 --undefined-- 50.735
5.19 --undefined-- 59.813
5.20 --undefined-- 66.182
5.21 98.465 70.176
5.22 94.434 72.306
5.23 90.202 72.788
5.24 88.740 71.736
5.25 83.966 69.443
5.26 80.224 66.124
5.27 --undefined-- 62.000
5.28 --undefined-- 57.189
5.29 --undefined-- 50.970
5.30 --undefined-- 42.970
5.31 --undefined-- 35.708
5.32 --undefined-- 34.430
5.33 --undefined-- 36.131
5.34 --undefined-- 38.158
5.35 --undefined-- 39.021
5.36 --undefined-- 42.104
5.37 --undefined-- 50.265
5.38 --undefined-- 58.502
5.39 100.282 64.629
5.40 99.756 68.540
5.41 93.862 70.867
5.42 91.021 71.901
5.43 90.210 71.744
5.44 90.581 70.756
5.45 91.527 69.499
5.46 92.042 67.683
5.47 91.937 64.502
5.48 --undefined-- 59.580
5.49 --undefined-- 53.070
5.50 --undefined-- 45.474
5.51 --undefined-- 39.140
5.52 --undefined-- 36.969
5.53 --undefined-- 38.826
5.54 --undefined-- 40.666
5.55 --undefined-- 46.552
5.56 --undefined-- 54.096
5.57 100.124 --undefined--
5.58 95.947 --undefined--
5.59 --undefined-- --undefined--
5.60 --undefined-- --undefined--
