Time Pitch Intensity
0.01 --undefined-- --undefined--
0.02 153.003 --undefined--
0.03 147.992 --undefined--
0.04 138.563 --undefined--
0.05 124.045 75.301
0.06 115.454 74.713
0.07 111.487 74.906
0.08 108.742 75.061
0.09 112.009 75.081
0.10 110.801 74.732
0.11 109.798 74.226
0.12 107.142 73.796
0.13 105.236 73.330
0.14 102.202 72.905
0.15 102.995 72.727
0.16 101.777 72.740
0.17 102.300 72.722
0.18 102.279 72.559
0.19 101.175 72.118
0.20 98.364 70.950
0.21 103.017 68.684
0.22 101.706 66.160
0.23 --undefined-- 65.407
0.24 --undefined-- 65.012
0.25 --undefined-- 63.670
0.26 --undefined-- 62.685
0.27 --undefined-- 63.381
0.28 --undefined-- 64.002
0.29 --undefined-- 64.604
0.30 --undefined-- 64.410
0.31 --undefined-- 63.439
0.32 --undefined-- 66.505
0.33 --undefined-- 73.076
0.34 --undefined-- 77.015
0.35 156.547 78.592
0.36 153.778 78.928
0.37 148.777 78.917
0.38 145.761 79.054
0.39 144.617 79.190
0.40 144.421 79.044
0.41 143.936 78.887
0.42 141.958 78.960
0.43 138.981 78.812
0.44 135.088 78.106
0.45 132.547 77.197
0.46 132.816 76.403
0.47 132.356 75.649
0.48 130.711 75.237
0.49 128.626 75.463
0.50 125.237 76.070
0.51 123.592 76.795
0.52 123.461 77.195
0.53 122.262 76.902
0.54 118.081 76.160
0.55 113.326 75.629
0.56 111.177 75.400
0.57 108.851 75.048
0.58 106.825 74.492
0.59 108.104 74.407
0.60 110.776 74.908
0.61 113.711 75.335
0.62 118.219 75.528
0.63 123.654 75.869
0.64 123.681 76.366
0.65 125.374 76.667
0.66 127.143 76.804
0.67 128.142 77.066
0.68 129.082 77.414
0.69 129.031 77.672
0.70 128.617 77.654
0.71 127.546 77.281
0.72 126.792 76.893
0.73 125.985 76.729
0.74 123.696 76.497
0.75 120.484 75.933
0.76 117.383 75.089
0.77 114.038 74.250
0.78 110.177 73.648
0.79 108.915 73.480
0.80 108.651 73.493
0.81 104.816 73.110
0.82 103.884 72.608
0.83 103.520 72.248
0.84 103.779 71.985
0.85 105.255 71.948
0.86 106.435 72.139
0.87 106.990 72.337
0.88 107.177 72.085
0.89 107.472 70.563
0.90 104.552 67.539
0.91 108.145 64.746
0.92 110.974 63.630
0.93 122.898 65.960
0.94 133.496 70.483
0.95 130.988 73.597
0.96 129.533 74.896
0.97 127.256 74.822
0.98 124.581 73.754
0.99 121.909 72.022
1.00 119.482 70.121
1.01 118.181 68.875
1.02 118.208 69.835
1.03 118.453 72.241
1.04 116.637 73.857
1.05 113.052 74.210
1.06 107.817 73.763
1.07 106.513 73.325
1.08 104.619 72.978
1.09 104.121 72.283
1.10 103.899 70.481
1.11 92.603 67.135
1.12 96.685 63.365
1.13 101.469 60.859
1.14 105.375 58.684
1.15 104.008 55.948
1.16 --undefined-- 54.396
1.17 --undefined-- 56.018
1.18 --undefined-- 62.021
1.19 --undefined-- 70.098
1.20 --undefined-- 75.121
1.21 --undefined-- 76.848
1.22 --undefined-- 76.169
1.23 --undefined-- 74.501
1.24 --undefined-- 73.158
1.25 --undefined-- 72.040
1.26 --undefined-- 70.505
1.27 --undefined-- 68.215
1.28 --undefined-- 65.280
1.29 --undefined-- 62.339
1.30 --undefined-- 60.286
1.31 --undefined-- 58.632
1.32 --undefined-- 58.088
1.33 --undefined-- 59.640
1.34 97.724 60.984
1.35 105.234 62.044
1.36 108.593 63.223
1.37 107.101 64.771
1.38 104.218 67.343
1.39 99.649 69.360
1.40 95.074 69.874
1.41 93.776 69.395
1.42 94.439 68.617
1.43 92.929 67.633
1.44 88.043 65.973
1.45 95.827 64.270
1.46 90.198 63.480
1.47 96.928 63.372
1.48 90.292 63.896
1.49 104.667 64.908
1.50 94.490 65.873
1.51 95.581 66.418
1.52 95.550 66.797
1.53 95.698 67.331
1.54 99.067 68.449
1.55 101.343 70.351
1.56 105.439 72.535
1.57 108.095 74.397
1.58 110.571 75.785
1.59 113.675 76.738
1.60 115.018 77.037
1.61 115.082 76.679
1.62 114.486 76.050
1.63 114.415 75.264
1.64 113.091 73.785
1.65 110.972 71.453
1.66 98.831 68.945
1.67 --undefined-- 65.883
1.68 --undefined-- 60.941
1.69 --undefined-- 55.097
1.70 --undefined-- 51.439
1.71 --undefined-- 48.683
1.72 --undefined-- 49.931
1.73 --undefined-- 55.871
1.74 --undefined-- 59.430
1.75 --undefined-- 59.799
1.76 --undefined-- 57.764
1.77 --undefined-- 55.625
1.78 --undefined-- 53.972
1.79 --undefined-- 52.447
1.80 --undefined-- 52.168
1.81 --undefined-- 52.535
1.82 --undefined-- 52.963
1.83 --undefined-- 53.801
1.84 --undefined-- 54.380
1.85 --undefined-- 54.153
1.86 --undefined-- 53.921
1.87 --undefined-- 54.180
1.88 --undefined-- 54.211
1.89 --undefined-- 53.807
1.90 --undefined-- 53.446
1.91 --undefined-- 53.464
1.92 --undefined-- 54.021
1.93 --undefined-- 54.559
1.94 --undefined-- 54.857
1.95 --undefined-- 55.962
1.96 --undefined-- 57.697
1.97 --undefined-- 58.661
1.98 --undefined-- 58.421
1.99 --undefined-- 58.119
2.00 --undefined-- 57.177
2.01 --undefined-- 53.738
2.02 --undefined-- 47.984
2.03 --undefined-- 43.432
2.04 --undefined-- 44.423
2.05 --undefined-- 56.154
2.06 272.791 65.759
2.07 267.747 71.324
2.08 266.077 74.102
2.09 266.589 75.462
2.10 268.513 76.506
2.11 269.800 77.549
2.12 272.905 78.502
2.13 275.979 78.872
2.14 270.312 78.513
2.15 263.915 78.901
2.16 254.559 80.574
2.17 243.920 81.377
2.18 237.194 80.117
2.19 219.550 77.534
2.20 181.091 75.834
2.21 174.415 74.656
2.22 177.242 73.303
2.23 181.442 72.500
2.24 182.916 72.255
2.25 182.498 72.403
2.26 181.361 72.886
2.27 179.063 73.134
2.28 176.165 72.901
2.29 173.481 72.789
2.30 172.119 73.185
2.31 170.479 73.533
2.32 168.064 73.586
2.33 167.905 74.162
2.34 165.733 75.690
2.35 164.873 77.148
2.36 162.422 77.833
2.37 160.107 77.815
2.38 158.869 77.403
2.39 157.235 76.692
2.40 156.321 76.244
2.41 155.733 76.419
2.42 156.351 76.823
2.43 157.905 77.236
2.44 158.816 77.686
2.45 161.025 78.421
2.46 165.846 79.106
2.47 169.337 78.751
2.48 172.073 77.047
2.49 171.090 75.494
2.50 179.909 75.065
2.51 193.498 75.126
2.52 204.141 76.385
2.53 218.876 77.590
2.54 217.653 77.655
2.55 221.601 77.762
2.56 227.780 78.374
2.57 231.635 78.856
2.58 234.374 79.196
2.59 235.217 79.865
2.60 231.888 80.425
2.61 228.690 79.984
2.62 229.657 78.673
2.63 227.257 77.224
2.64 206.393 75.489
2.65 191.690 73.792
2.66 180.621 73.227
2.67 174.581 72.752
2.68 162.006 71.598
2.69 155.155 70.656
2.70 148.793 70.360
2.71 144.704 71.161
2.72 144.716 72.707
2.73 143.251 74.055
2.74 139.207 75.615
2.75 136.561 77.460
2.76 133.781 78.877
2.77 130.181 79.598
2.78 127.643 79.733
2.79 126.341 79.232
2.80 125.644 77.827
2.81 124.837 75.218
2.82 123.625 71.714
2.83 129.160 69.487
2.84 129.123 69.547
2.85 132.841 70.487
2.86 135.203 71.497
2.87 136.427 72.358
2.88 136.904 72.747
2.89 136.915 72.440
2.90 136.536 71.681
2.91 136.583 70.803
2.92 136.337 69.738
2.93 134.942 68.288
2.94 134.062 66.346
2.95 132.310 63.735
2.96 133.457 60.530
2.97 133.940 57.705
2.98 133.514 56.362
2.99 --undefined-- 55.757
3.00 --undefined-- 56.467
3.01 --undefined-- 58.610
3.02 --undefined-- 60.279
3.03 --undefined-- 60.715
3.04 --undefined-- 59.956
3.05 --undefined-- 59.501
3.06 --undefined-- 61.717
3.07 193.768 67.328
3.08 187.778 71.478
3.09 185.967 73.697
3.10 188.234 74.997
3.11 189.299 75.852
3.12 189.150 76.347
3.13 189.188 76.674
3.14 189.138 76.968
3.15 189.618 77.221
3.16 190.153 77.417
3.17 190.032 77.563
3.18 189.531 77.695
3.19 188.956 77.818
3.20 188.499 77.901
3.21 188.231 77.756
3.22 185.862 77.045
3.23 178.509 76.082
3.24 179.086 75.612
3.25 176.065 75.381
3.26 174.378 75.325
3.27 171.034 75.397
3.28 165.826 75.507
3.29 159.848 75.691
3.30 153.228 76.076
3.31 151.011 76.762
3.32 136.513 76.815
3.33 123.911 75.665
3.34 115.926 74.302
3.35 111.283 73.454
3.36 109.122 72.552
3.37 107.294 71.548
3.38 102.536 70.336
3.39 106.464 69.437
3.40 109.656 69.626
3.41 111.247 70.232
3.42 112.876 70.574
3.43 115.152 70.648
3.44 117.363 70.499
3.45 119.637 70.282
3.46 120.483 70.019
3.47 120.742 69.297
3.48 122.528 67.955
3.49 126.242 67.401
3.50 142.207 70.671
3.51 150.113 74.865
3.52 152.171 77.276
3.53 155.680 78.091
3.54 158.636 78.116
3.55 161.679 77.954
3.56 164.341 77.613
3.57 168.119 76.576
3.58 177.166 75.002
3.59 186.327 74.230
3.60 188.283 74.141
3.61 195.630 73.986
3.62 199.639 74.316
3.63 203.320 74.712
3.64 208.420 74.648
3.65 210.524 74.586
3.66 210.736 74.809
3.67 210.155 75.258
3.68 208.694 75.622
3.69 206.435 75.338
3.70 199.948 73.961
3.71 182.019 72.374
3.72 180.513 72.206
3.73 167.650 73.647
3.74 155.165 76.277
3.75 144.227 77.580
3.76 133.288 77.057
3.77 121.647 75.846
3.78 115.134 74.899
3.79 110.135 74.108
3.80 107.951 73.454
3.81 106.310 72.940
3.82 105.840 72.817
3.83 105.293 72.797
3.84 104.877 72.478
3.85 105.340 72.138
3.86 106.470 71.842
3.87 106.494 70.850
3.88 102.124 68.513
3.89 107.461 65.486
3.90 114.244 63.123
3.91 114.273 60.511
3.92 108.196 57.090
3.93 --undefined-- 55.489
3.94 --undefined-- 57.568
3.95 --undefined-- 59.383
3.96 --undefined-- 59.597
3.97 --undefined-- 59.124
3.98 --undefined-- 61.285
3.99 196.292 67.834
4.00 193.594 72.205
4.01 191.315 74.064
4.02 191.932 74.689
4.03 192.171 74.882
4.04 192.078 74.774
4.05 191.390 74.366
4.06 190.170 73.667
4.07 189.297 73.035
4.08 191.727 73.040
4.09 194.316 73.487
4.10 195.525 73.931
4.11 195.011 74.223
4.12 193.688 74.387
4.13 192.291 74.407
4.14 191.157 74.038
4.15 187.460 72.902
4.16 180.545 70.733
4.17 174.200 67.553
4.18 170.351 63.449
4.19 176.709 59.898
4.20 --undefined-- 63.344
4.21 --undefined-- 70.313
4.22 --undefined-- 74.342
4.23 193.175 75.680
4.24 188.098 75.803
4.25 184.387 75.870
4.26 182.829 76.132
4.27 182.842 76.292
4.28 183.061 76.171
4.29 183.393 75.892
4.30 183.284 75.360
4.31 181.962 74.415
4.32 178.771 73.377
4.33 172.943 72.632
4.34 164.036 72.120
4.35 157.848 71.003
4.36 --undefined-- 68.887
4.37 --undefined-- 66.134
4.38 --undefined-- 63.327
4.39 --undefined-- 61.273
4.40 86.553 61.475
4.41 82.967 63.042
4.42 82.679 64.639
4.43 105.943 66.212
4.44 134.558 67.995
4.45 143.614 69.987
4.46 146.781 71.962
4.47 148.177 73.577
4.48 146.820 74.771
4.49 145.788 75.647
4.50 145.231 76.229
4.51 145.545 76.699
4.52 145.437 77.065
4.53 142.458 76.624
4.54 143.123 74.904
4.55 146.857 72.753
4.56 148.240 71.500
4.57 148.694 70.884
4.58 149.077 70.314
4.59 150.026 69.875
4.60 152.329 69.598
4.61 155.276 69.343
4.62 158.115 68.908
4.63 162.465 68.086
4.64 168.998 66.994
4.65 176.783 66.855
4.66 178.889 68.218
4.67 182.649 69.932
4.68 184.315 71.236
4.69 188.451 71.962
4.70 191.936 72.798
4.71 191.800 74.002
4.72 192.947 74.949
4.73 194.038 75.569
4.74 194.819 76.103
4.75 195.754 76.648
4.76 196.532 77.144
4.77 197.489 77.498
4.78 198.451 77.711
4.79 199.220 77.775
4.80 199.338 77.655
4.81 198.516 77.160
4.82 195.916 75.986
4.83 189.267 73.984
4.84 185.691 71.498
4.85 184.926 68.304
4.86 181.100 63.512
4.87 --undefined-- 56.394
4.88 --undefined-- 48.294
4.89 --undefined-- 45.002
4.90 --undefined-- 43.970
4.91 --undefined-- 42.231
4.92 --undefined-- 42.108
4.93 --undefined-- 43.799
4.94 --undefined-- 45.177
4.95 --undefined-- 47.725
4.96 --undefined-- 51.622
4.97 --undefined-- 53.898
4.98 --undefined-- 54.199
4.99 --undefined-- 55.335
5.00 --undefined-- 61.240
5.01 208.615 68.401
5.02 199.564 72.906
5.03 197.401 --undefined--
5.04 197.053 --undefined--
5.05 --undefined-- --undefined--
5.06 --undefined-- --undefined--
