Time Pitch Intensity
0.01 --undefined-- --undefined--
0.02 --undefined-- --undefined--
0.03 233.096 --undefined--
0.04 226.073 --undefined--
0.05 --undefined-- 55.735
0.06 --undefined-- 46.908
0.07 --undefined-- 41.035
0.08 --undefined-- 40.536
0.09 --undefined-- 41.508
0.10 --undefined-- 41.824
0.11 --undefined-- 40.237
0.12 --undefined-- 37.151
0.13 --undefined-- 36.075
0.14 --undefined-- 36.078
0.15 --undefined-- 35.440
0.16 --undefined-- 35.672
0.17 --undefined-- 36.404
0.18 --undefined-- 36.695
0.19 --undefined-- 37.101
0.20 --undefined-- 38.018
0.21 --undefined-- 38.468
0.22 --undefined-- 38.087
0.23 --undefined-- 37.714
0.24 --undefined-- 37.237
0.25 --undefined-- 36.946
0.26 --undefined-- 36.708
0.27 --undefined-- 35.931
0.28 --undefined-- 35.985
0.29 --undefined-- 36.253
0.30 --undefined-- 35.271
0.31 --undefined-- 36.597
0.32 --undefined-- 38.662
0.33 --undefined-- 38.761
0.34 --undefined-- 37.298
0.35 --undefined-- 35.546
0.36 --undefined-- 35.106
0.37 --undefined-- 35.201
0.38 --undefined-- 35.840
0.39 --undefined-- 37.779
0.40 --undefined-- 39.565
0.41 --undefined-- 41.499
0.42 --undefined-- 43.918
0.43 --undefined-- 45.256
0.44 --undefined-- 46.569
0.45 --undefined-- 55.967
0.46 225.110 64.064
0.47 201.335 68.501
0.48 183.355 70.365
0.49 179.992 71.077
0.50 179.122 71.472
0.51 179.548 71.696
0.52 180.702 71.809
0.53 182.812 71.919
0.54 184.305 72.058
0.55 185.056 72.162
0.56 184.908 72.005
0.57 183.623 71.091
0.58 177.066 68.793
0.59 156.273 64.836
0.60 147.789 59.746
0.61 --undefined-- 55.628
0.62 --undefined-- 57.243
0.63 --undefined-- 61.126
0.64 141.596 66.700
0.65 142.545 70.846
0.66 142.633 72.659
0.67 148.531 73.316
0.68 147.793 74.008
0.69 137.026 74.497
0.70 132.444 74.472
0.71 127.845 73.979
0.72 124.013 73.157
0.73 119.685 72.307
0.74 118.396 71.521
0.75 119.842 70.745
0.76 121.356 70.217
0.77 122.113 69.966
0.78 121.600 69.586
0.79 120.524 68.899
0.80 119.246 67.520
0.81 114.735 64.587
0.82 113.283 59.708
0.83 --undefined-- 53.471
0.84 --undefined-- 47.424
0.85 --undefined-- 44.404
0.86 --undefined-- 42.803
0.87 --undefined-- 42.050
0.88 --undefined-- 41.931
0.89 --undefined-- 41.607
0.90 --undefined-- 41.749
0.91 --undefined-- 43.625
0.92 --undefined-- 47.761
0.93 --undefined-- 58.128
0.94 --undefined-- 66.210
0.95 181.668 70.479
0.96 167.978 71.875
0.97 153.289 72.062
0.98 148.831 71.680
0.99 142.036 69.614
1.00 --undefined-- 65.256
1.01 --undefined-- 59.315
1.02 --undefined-- 53.147
1.03 --undefined-- 47.333
1.04 --undefined-- 43.411
1.05 --undefined-- 40.781
1.06 --undefined-- 38.742
1.07 --undefined-- 38.528
1.08 --undefined-- 40.399
1.09 --undefined-- 42.429
1.10 --undefined-- 44.189
1.11 --undefined-- 48.621
1.12 --undefined-- 57.972
1.13 194.313 65.334
1.14 176.633 69.724
1.15 174.110 72.081
1.16 166.194 73.327
1.17 163.893 74.038
1.18 161.417 74.500
1.19 160.242 74.689
1.20 159.695 74.331
1.21 158.455 73.292
1.22 156.566 71.790
1.23 154.873 69.831
1.24 --undefined-- 66.528
1.25 --undefined-- 61.177
1.26 --undefined-- 54.024
1.27 --undefined-- 46.082
1.28 --undefined-- 41.218
1.29 --undefined-- 39.136
1.30 --undefined-- 38.614
1.31 --undefined-- 38.397
1.32 --undefined-- 37.968
1.33 --undefined-- 37.779
1.34 --undefined-- 37.383
1.35 --undefined-- 36.397
1.36 --undefined-- 35.803
1.37 --undefined-- 34.678
1.38 --undefined-- 33.030
1.39 --undefined-- 34.422
1.40 --undefined-- 36.174
1.41 --undefined-- 37.104
1.42 --undefined-- 37.943
1.43 --undefined-- 37.758
1.44 --undefined-- 36.755
1.45 --undefined-- 35.315
1.46 --undefined-- 33.704
1.47 --undefined-- 34.399
1.48 --undefined-- 35.662
1.49 --undefined-- 41.691
1.50 --undefined-- 54.161
1.51 --undefined-- 62.887
1.52 143.049 68.151
1.53 140.231 70.578
1.54 137.298 71.092
1.55 138.596 70.810
1.56 137.451 69.602
1.57 130.168 66.462
1.58 116.228 61.273
1.59 --undefined-- 55.201
1.60 --undefined-- 49.722
1.61 --undefined-- 47.477
1.62 --undefined-- 55.714
1.63 225.081 64.773
1.64 198.508 70.691
1.65 198.779 73.829
1.66 198.372 74.767
1.67 197.553 74.213
1.68 196.668 72.484
1.69 191.004 69.069
1.70 --undefined-- 63.263
1.71 --undefined-- 54.740
1.72 --undefined-- 45.868
1.73 --undefined-- 41.848
1.74 --undefined-- 38.604
1.75 --undefined-- 36.973
1.76 --undefined-- 38.700
1.77 --undefined-- 46.564
1.78 --undefined-- 57.269
1.79 --undefined-- 63.570
1.80 --undefined-- 66.919
1.81 176.073 69.768
1.82 159.502 72.299
1.83 153.339 73.846
1.84 147.217 74.440
1.85 143.825 74.475
1.86 141.400 74.420
1.87 139.135 74.177
1.88 137.127 73.579
1.89 135.554 72.860
1.90 133.164 72.245
1.91 132.294 71.833
1.92 131.521 71.708
1.93 131.725 71.797
1.94 132.822 71.962
1.95 134.056 72.204
1.96 136.436 72.461
1.97 139.567 72.369
1.98 140.493 71.823
1.99 139.985 71.749
2.00 142.711 72.528
2.01 143.106 73.235
2.02 141.969 73.503
2.03 140.320 73.361
2.04 138.424 72.509
2.05 135.592 70.358
2.06 128.213 66.426
2.07 120.668 60.688
2.08 --undefined-- 53.611
2.09 --undefined-- 45.853
2.10 --undefined-- 42.543
2.11 --undefined-- 44.316
2.12 --undefined-- 47.331
2.13 --undefined-- 55.987
2.14 179.424 63.944
2.15 153.194 68.756
2.16 141.461 71.293
2.17 136.225 72.498
2.18 134.097 72.890
2.19 132.068 72.716
2.20 132.230 72.475
2.21 134.178 72.579
2.22 134.460 72.728
2.23 133.473 72.206
2.24 131.193 70.266
2.25 --undefined-- 66.871
2.26 --undefined-- 63.810
2.27 82.692 61.234
2.28 81.441 57.646
2.29 --undefined-- 52.985
2.30 --undefined-- 47.082
2.31 --undefined-- 40.579
2.32 --undefined-- 37.882
2.33 --undefined-- 39.288
2.34 --undefined-- 39.597
2.35 --undefined-- 38.087
2.36 --undefined-- 35.998
2.37 --undefined-- 35.454
2.38 --undefined-- 36.557
2.39 --undefined-- 37.469
2.40 --undefined-- 36.878
2.41 --undefined-- 35.919
2.42 --undefined-- 34.909
2.43 --undefined-- 34.090
2.44 --undefined-- 33.753
2.45 --undefined-- 34.406
2.46 --undefined-- 36.520
2.47 --undefined-- 38.273
2.48 --undefined-- 39.996
2.49 --undefined-- 42.461
2.50 --undefined-- 44.545
2.51 --undefined-- 45.580
2.52 --undefined-- 46.706
2.53 --undefined-- 51.534
2.54 --undefined-- 58.911
2.55 152.575 64.259
2.56 144.849 67.666
2.57 142.667 70.209
2.58 142.822 72.213
2.59 142.153 73.566
2.60 141.317 74.405
2.61 140.772 74.811
2.62 140.183 74.808
2.63 140.435 74.632
2.64 140.239 74.560
2.65 135.608 75.146
2.66 140.595 76.076
2.67 140.732 76.542
2.68 140.762 76.533
2.69 141.592 76.080
2.70 140.987 74.923
2.71 138.625 72.580
2.72 133.715 68.507
2.73 --undefined-- 62.406
2.74 --undefined-- 55.058
2.75 --undefined-- 54.658
2.76 --undefined-- 63.855
2.77 176.220 70.298
2.78 167.309 73.693
2.79 160.478 75.217
2.80 155.071 76.199
2.81 151.690 77.080
2.82 149.579 77.553
2.83 148.230 77.322
2.84 147.990 76.513
2.85 148.673 75.906
2.86 145.777 75.656
2.87 150.288 75.151
2.88 149.379 74.385
2.89 148.579 73.045
2.90 142.275 70.093
2.91 137.364 64.850
2.92 --undefined-- 57.790
2.93 --undefined-- 50.911
2.94 --undefined-- 44.326
2.95 --undefined-- 39.077
2.96 --undefined-- 48.679
2.97 --undefined-- 58.804
2.98 --undefined-- 63.848
2.99 --undefined-- 65.913
3.00 --undefined-- 69.151
3.01 203.280 72.432
3.02 188.498 74.011
3.03 186.974 74.901
3.04 187.886 75.814
3.05 186.388 76.474
3.06 182.769 76.786
3.07 178.633 76.857
3.08 173.945 76.770
3.09 170.939 76.579
3.10 166.661 76.380
3.11 161.400 76.556
3.12 158.109 77.321
3.13 154.969 78.020
3.14 149.789 77.928
3.15 143.182 76.980
3.16 138.929 75.850
3.17 136.133 75.017
3.18 133.067 74.411
3.19 134.941 74.403
3.20 137.431 74.770
3.21 137.406 74.978
3.22 136.438 74.884
3.23 135.496 74.340
3.24 134.151 72.994
3.25 128.620 70.211
3.26 115.315 65.442
3.27 110.492 58.891
3.28 --undefined-- 52.498
3.29 --undefined-- 50.234
3.30 --undefined-- 50.361
3.31 --undefined-- 50.833
3.32 --undefined-- 53.249
3.33 --undefined-- 62.265
3.34 196.551 69.627
3.35 187.711 73.661
3.36 171.242 75.449
3.37 167.029 76.468
3.38 165.093 77.462
3.39 164.195 78.091
3.40 162.582 78.201
3.41 161.575 78.039
3.42 161.155 77.815
3.43 161.283 77.609
3.44 161.612 77.440
3.45 161.933 77.243
3.46 162.015 76.991
3.47 161.446 76.579
3.48 160.693 75.875
3.49 160.955 74.868
3.50 163.872 73.756
3.51 164.037 72.781
3.52 162.760 71.858
3.53 161.118 70.773
3.54 158.734 69.558
3.55 152.643 68.170
3.56 --undefined-- 66.121
3.57 99.673 62.904
3.58 97.516 58.804
3.59 --undefined-- 54.102
3.60 --undefined-- 48.116
3.61 --undefined-- 42.278
3.62 --undefined-- 39.421
3.63 --undefined-- 38.370
3.64 --undefined-- 37.656
3.65 --undefined-- 37.210
3.66 --undefined-- 42.227
3.67 --undefined-- 54.507
3.68 --undefined-- 61.734
3.69 --undefined-- 65.131
3.70 --undefined-- 67.917
3.71 175.430 71.095
3.72 169.480 73.287
3.73 166.091 74.521
3.74 164.737 75.086
3.75 163.666 75.063
3.76 163.764 74.459
3.77 165.692 73.685
3.78 166.105 73.128
3.79 166.154 72.600
3.80 166.879 72.142
3.81 167.483 72.075
3.82 167.269 72.387
3.83 165.200 72.559
3.84 159.192 71.844
3.85 148.967 69.814
3.86 141.152 66.349
3.87 134.408 61.252
3.88 --undefined-- 54.925
3.89 --undefined-- 51.077
3.90 --undefined-- 52.600
3.91 --undefined-- 60.448
3.92 --undefined-- 67.389
3.93 149.455 71.639
3.94 136.175 73.655
3.95 132.421 74.113
3.96 130.997 73.963
3.97 133.864 74.037
3.98 130.031 74.323
3.99 130.671 74.049
4.00 126.865 72.199
4.01 --undefined-- 68.067
4.02 --undefined-- 61.620
4.03 --undefined-- 54.351
4.04 --undefined-- 47.964
4.05 --undefined-- 51.192
4.06 --undefined-- 60.234
4.07 --undefined-- 66.160
4.08 133.999 69.187
4.09 120.624 70.216
4.10 117.042 70.246
4.11 115.753 70.262
4.12 115.020 70.422
4.13 114.377 70.323
4.14 116.664 69.825
4.15 123.401 69.545
4.16 130.041 69.836
4.17 136.018 70.356
4.18 140.047 71.179
4.19 143.011 71.945
4.20 147.075 72.179
4.21 151.885 71.741
4.22 151.359 70.236
4.23 144.254 67.233
4.24 136.156 62.639
4.25 --undefined-- 56.350
4.26 --undefined-- 48.899
4.27 --undefined-- 44.248
4.28 --undefined-- 42.734
4.29 --undefined-- 41.756
4.30 --undefined-- 41.662
4.31 --undefined-- 42.428
4.32 --undefined-- 44.386
4.33 --undefined-- 47.463
4.34 --undefined-- 54.312
4.35 --undefined-- 61.373
4.36 126.284 65.424
4.37 119.018 67.021
4.38 114.022 67.185
4.39 112.011 66.951
4.40 114.501 66.867
4.41 119.477 67.301
4.42 126.968 68.091
4.43 131.729 68.735
4.44 137.460 69.453
4.45 141.335 70.518
4.46 143.111 71.404
4.47 145.285 71.678
4.48 148.322 71.380
4.49 148.487 71.089
4.50 145.493 71.521
4.51 139.740 72.080
4.52 134.039 71.857
4.53 117.604 71.062
4.54 113.072 70.053
4.55 106.806 68.648
4.56 104.251 67.226
4.57 103.730 66.339
4.58 103.127 65.759
4.59 104.200 65.349
4.60 106.838 65.245
4.61 107.442 65.096
4.62 107.262 64.285
4.63 104.104 62.363
4.64 99.737 59.083
4.65 --undefined-- 56.677
4.66 --undefined-- 59.222
4.67 --undefined-- 63.018
4.68 --undefined-- 66.390
4.69 126.227 68.259
4.70 124.719 69.012
4.71 123.952 69.479
4.72 124.274 69.985
4.73 124.916 70.471
4.74 125.456 70.881
4.75 124.589 70.961
4.76 121.217 70.408
4.77 121.954 69.477
4.78 120.419 68.354
4.79 115.337 66.597
4.80 111.381 64.253
4.81 110.108 63.274
4.82 114.708 65.054
4.83 112.527 66.558
4.84 109.266 66.679
4.85 105.697 66.098
4.86 104.459 65.611
4.87 102.988 65.324
4.88 103.095 65.273
4.89 103.414 65.442
4.90 102.487 65.830
4.91 104.883 66.321
4.92 105.378 66.405
4.93 105.388 65.716
4.94 105.610 64.086
4.95 104.698 61.395
4.96 103.893 57.680
4.97 --undefined-- 53.129
4.98 --undefined-- 49.164
4.99 --undefined-- 47.841
5.00 --undefined-- 51.488
5.01 --undefined-- 59.712
5.02 146.979 65.285
5.03 137.941 67.842
5.04 125.669 68.461
5.05 123.087 68.620
5.06 122.339 69.243
5.07 123.165 70.168
5.08 128.171 71.365
5.09 135.707 72.851
5.10 139.388 74.135
5.11 143.145 74.741
5.12 149.177 74.643
5.13 154.071 73.396
5.14 153.140 69.870
5.15 137.813 63.382
5.16 --undefined-- 54.546
5.17 --undefined-- 47.152
5.18 --undefined-- 51.954
5.19 --undefined-- 62.219
5.20 --undefined-- 68.704
5.21 157.112 72.100
5.22 142.150 73.518
5.23 139.208 73.869
5.24 137.241 73.663
5.25 135.579 73.486
5.26 134.705 73.622
5.27 133.095 73.625
5.28 132.428 73.460
5.29 132.151 73.343
5.30 132.507 73.147
5.31 131.551 72.671
5.32 128.730 72.349
5.33 133.809 72.217
5.34 135.924 71.592
5.35 135.259 70.445
5.36 133.904 68.995
5.37 128.209 67.253
5.38 --undefined-- 64.988
5.39 --undefined-- 61.451
5.40 229.480 58.574
5.41 226.671 58.358
5.42 235.957 57.837
5.43 241.934 56.068
5.44 --undefined-- 52.385
5.45 --undefined-- 46.298
5.46 --undefined-- 39.463
5.47 --undefined-- 35.977
5.48 --undefined-- 34.895
5.49 --undefined-- 35.206
5.50 --undefined-- 35.097
5.51 --undefined-- 34.332
5.52 --undefined-- 34.475
5.53 --undefined-- 34.934
5.54 --undefined-- 34.925
5.55 --undefined-- 35.342
5.56 --undefined-- 36.448
5.57 --undefined-- 36.979
5.58 --undefined-- 37.884
5.59 --undefined-- 38.413
5.60 --undefined-- 36.893
5.61 --undefined-- 34.959
5.62 --undefined-- 36.045
5.63 --undefined-- 37.115
5.64 --undefined-- 35.798
5.65 --undefined-- 34.419
5.66 --undefined-- 34.328
5.67 --undefined-- 34.225
5.68 --undefined-- 36.192
5.69 --undefined-- 37.321
5.70 --undefined-- 37.851
5.71 --undefined-- 38.616
5.72 --undefined-- 39.008
5.73 --undefined-- 38.283
5.74 --undefined-- 36.515
5.75 --undefined-- 35.538
5.76 --undefined-- 36.512
5.77 --undefined-- 38.341
5.78 --undefined-- 39.085
5.79 --undefined-- 38.620
5.80 --undefined-- 38.307
5.81 --undefined-- 38.810
5.82 --undefined-- 39.396
5.83 --undefined-- 39.274
5.84 --undefined-- 39.176
5.85 --undefined-- 39.299
5.86 --undefined-- 39.271
5.87 --undefined-- 39.827
5.88 --undefined-- 40.201
5.89 --undefined-- 39.614
5.90 --undefined-- 39.538
5.91 --undefined-- 39.911
5.92 --undefined-- 39.398
5.93 --undefined-- 38.417
5.94 --undefined-- 38.002
5.95 --undefined-- 38.662
5.96 --undefined-- 39.046
5.97 --undefined-- 38.953
5.98 --undefined-- 38.875
5.99 --undefined-- 37.996
6.00 --undefined-- 38.562
6.01 --undefined-- 50.861
6.02 --undefined-- 62.181
6.03 --undefined-- 69.173
6.04 177.106 73.279
6.05 175.621 75.621
6.06 177.017 76.816
6.07 180.002 77.477
6.08 180.966 78.095
6.09 180.297 78.313
6.10 178.089 77.973
6.11 177.997 77.761
6.12 176.502 78.073
6.13 178.351 78.854
6.14 181.317 79.409
6.15 183.446 79.422
6.16 184.948 79.270
6.17 185.174 79.187
6.18 183.885 79.166
6.19 182.152 79.107
6.20 181.180 79.127
6.21 180.325 79.071
6.22 178.969 78.668
6.23 178.188 78.176
6.24 179.060 77.620
6.25 179.895 76.824
6.26 177.879 76.251
6.27 176.037 76.078
6.28 175.377 75.777
6.29 175.502 75.091
6.30 175.539 74.049
6.31 173.652 72.651
6.32 169.739 70.770
6.33 160.181 68.206
6.34 --undefined-- 64.757
6.35 --undefined-- 59.778
6.36 --undefined-- 53.237
6.37 --undefined-- 45.793
6.38 --undefined-- 39.542
6.39 --undefined-- 36.533
6.40 --undefined-- 37.303
6.41 --undefined-- 48.012
6.42 --undefined-- 56.416
6.43 159.927 --undefined--
6.44 140.231 --undefined--
6.45 --undefined-- --undefined--
6.46 --undefined-- --undefined--
