Time Pitch Intensity
0.01 --undefined-- --undefined--
0.02 161.624 --undefined--
0.03 158.863 --undefined--
0.04 158.688 --undefined--
0.05 159.890 67.836
0.06 160.990 67.931
0.07 163.405 68.298
0.08 165.913 69.069
0.09 165.245 69.366
0.10 164.002 68.867
0.11 163.876 68.125
0.12 164.085 67.216
0.13 164.876 65.781
0.14 166.120 63.675
0.15 166.175 61.033
0.16 164.911 57.403
0.17 --undefined-- 52.353
0.18 --undefined-- 47.310
0.19 --undefined-- 45.239
0.20 --undefined-- 45.738
0.21 --undefined-- 46.585
0.22 --undefined-- 48.142
0.23 --undefined-- 51.475
0.24 --undefined-- 59.043
0.25 204.576 65.346
0.26 203.040 69.332
0.27 200.107 71.742
0.28 197.951 73.409
0.29 196.747 74.777
0.30 196.159 75.751
0.31 196.054 76.307
0.32 196.388 76.709
0.33 196.133 77.116
0.34 195.307 77.475
0.35 194.267 77.622
0.36 193.091 77.471
0.37 191.766 77.118
0.38 190.254 76.488
0.39 188.110 75.085
0.40 185.283 72.548
0.41 180.437 69.376
0.42 175.453 66.261
0.43 159.868 62.689
0.44 189.205 59.012
0.45 189.843 55.859
0.46 190.587 52.060
0.47 --undefined-- 48.037
0.48 --undefined-- 46.061
0.49 --undefined-- 45.365
0.50 --undefined-- 45.614
0.51 --undefined-- 49.711
0.52 --undefined-- 52.244
0.53 --undefined-- 51.812
0.54 --undefined-- 49.381
0.55 --undefined-- 46.905
0.56 --undefined-- 45.519
0.57 --undefined-- 45.552
0.58 --undefined-- 47.182
0.59 --undefined-- 47.657
0.60 --undefined-- 47.721
0.61 --undefined-- 48.492
0.62 --undefined-- 49.140
0.63 --undefined-- 48.933
0.64 --undefined-- 47.772
0.65 --undefined-- 47.661
0.66 --undefined-- 48.831
0.67 --undefined-- 48.870
0.68 --undefined-- 48.942
0.69 --undefined-- 50.945
0.70 --undefined-- 51.859
0.71 --undefined-- 51.335
0.72 --undefined-- 51.843
0.73 --undefined-- 53.826
0.74 --undefined-- 54.391
0.75 --undefined-- 53.406
0.76 --undefined-- 53.946
0.77 --undefined-- 54.418
0.78 --undefined-- 54.144
0.79 --undefined-- 53.796
0.80 --undefined-- 53.652
0.81 --undefined-- 56.676
0.82 --undefined-- 58.397
0.83 --undefined-- 57.027
0.84 --undefined-- 53.371
0.85 --undefined-- 51.039
0.86 --undefined-- 52.188
0.87 --undefined-- 58.080
0.88 267.889 65.543
0.89 272.800 70.764
0.90 273.572 73.916
0.91 --undefined-- 75.592
0.92 --undefined-- 75.827
0.93 --undefined-- 74.636
0.94 --undefined-- 73.014
0.95 --undefined-- 71.545
0.96 --undefined-- 69.809
0.97 --undefined-- 67.281
0.98 --undefined-- 63.877
0.99 --undefined-- 61.797
1.00 --undefined-- 61.734
1.01 --undefined-- 62.174
1.02 203.481 62.837
1.03 205.550 63.140
1.04 201.960 63.489
1.05 198.912 64.199
1.06 196.307 65.350
1.07 196.952 67.025
1.08 191.190 68.677
1.09 188.126 69.668
1.10 187.082 69.880
1.11 186.173 69.610
1.12 184.678 69.139
1.13 184.402 68.474
1.14 184.494 67.834
1.15 180.653 67.541
1.16 181.765 67.599
1.17 186.206 67.783
1.18 187.776 67.766
1.19 189.346 67.167
1.20 188.486 65.766
1.21 187.751 63.019
1.22 187.940 58.196
1.23 --undefined-- 52.151
1.24 --undefined-- 50.048
1.25 --undefined-- 50.764
1.26 --undefined-- 54.448
1.27 238.302 59.648
1.28 217.960 62.826
1.29 215.049 64.678
1.30 211.224 66.242
1.31 208.227 67.449
1.32 206.224 68.120
1.33 204.965 68.318
1.34 204.521 68.122
1.35 204.466 67.691
1.36 203.896 67.242
1.37 201.441 66.445
1.38 199.479 64.531
1.39 200.385 61.808
1.40 196.827 60.013
1.41 191.825 59.516
1.42 192.347 60.437
1.43 198.588 63.222
1.44 204.680 66.200
1.45 202.864 67.793
1.46 200.696 68.863
1.47 200.853 70.608
1.48 202.614 72.417
1.49 205.978 73.617
1.50 208.841 74.085
1.51 212.757 74.098
1.52 217.866 73.907
1.53 221.953 73.633
1.54 225.892 73.340
1.55 229.188 72.789
1.56 231.190 72.151
1.57 230.362 71.681
1.58 226.838 71.277
1.59 221.932 71.099
1.60 --undefined-- 71.070
1.61 --undefined-- 70.918
1.62 --undefined-- 70.050
1.63 --undefined-- 67.773
1.64 --undefined-- 63.811
1.65 --undefined-- 58.600
1.66 --undefined-- 54.837
1.67 --undefined-- 55.158
1.68 --undefined-- 55.538
1.69 --undefined-- 54.609
1.70 --undefined-- 53.254
1.71 --undefined-- 51.122
1.72 --undefined-- 50.150
1.73 --undefined-- 53.950
1.74 --undefined-- 56.888
1.75 --undefined-- 57.469
1.76 --undefined-- 55.788
1.77 --undefined-- 52.121
1.78 --undefined-- 48.807
1.79 --undefined-- 48.072
1.80 --undefined-- 49.367
1.81 --undefined-- 50.802
1.82 --undefined-- 50.702
1.83 --undefined-- 51.995
1.84 --undefined-- 53.226
1.85 --undefined-- 52.275
1.86 --undefined-- 51.879
1.87 --undefined-- 51.926
1.88 --undefined-- 51.339
1.89 --undefined-- 50.381
1.90 --undefined-- 49.582
1.91 --undefined-- 51.536
1.92 --undefined-- 54.363
1.93 --undefined-- 56.044
1.94 --undefined-- 58.348
1.95 162.227 64.307
1.96 164.654 68.984
1.97 172.636 71.387
1.98 172.922 72.580
1.99 173.072 73.394
2.00 173.487 73.810
2.01 174.952 73.840
2.02 177.677 73.564
2.03 180.536 73.058
2.04 180.859 72.599
2.05 178.433 72.511
2.06 175.329 72.825
2.07 173.692 73.074
2.08 172.359 72.701
2.09 172.554 71.157
2.10 171.239 67.901
2.11 158.739 63.144
2.12 163.013 58.504
2.13 171.160 55.244
2.14 171.253 54.758
2.15 171.131 55.818
2.16 --undefined-- 55.898
2.17 --undefined-- 53.989
2.18 --undefined-- 51.331
2.19 --undefined-- 54.584
2.20 260.410 60.608
2.21 243.893 64.519
2.22 207.957 67.209
2.23 196.981 69.573
2.24 188.043 71.574
2.25 181.786 72.685
2.26 179.524 72.765
2.27 181.795 72.370
2.28 184.984 71.829
2.29 190.418 70.954
2.30 195.991 69.270
2.31 206.094 66.656
2.32 210.833 63.812
2.33 215.107 61.411
2.34 240.013 60.363
2.35 242.182 60.165
2.36 244.867 58.818
2.37 --undefined-- 55.301
2.38 --undefined-- 51.701
2.39 --undefined-- 51.640
2.40 230.782 54.096
2.41 244.334 57.893
2.42 255.419 61.180
2.43 257.888 63.359
2.44 229.122 65.001
2.45 215.402 66.437
2.46 202.880 67.323
2.47 186.281 66.912
2.48 176.938 64.485
2.49 171.727 60.096
2.50 --undefined-- 57.368
2.51 --undefined-- 56.954
2.52 --undefined-- 56.112
2.53 --undefined-- 55.683
2.54 --undefined-- 54.884
2.55 --undefined-- 54.297
2.56 --undefined-- 53.849
2.57 --undefined-- 52.561
2.58 --undefined-- 51.111
2.59 --undefined-- 50.376
2.60 --undefined-- 50.934
2.61 --undefined-- 51.916
2.62 --undefined-- 52.661
2.63 --undefined-- 53.769
2.64 --undefined-- 57.348
2.65 --undefined-- 63.521
2.66 --undefined-- 67.526
2.67 --undefined-- 68.222
2.68 175.959 67.374
2.69 172.478 67.145
2.70 170.054 67.540
2.71 171.436 68.412
2.72 173.025 68.332
2.73 173.308 67.388
2.74 172.811 66.586
2.75 172.717 65.400
2.76 172.215 63.707
2.77 168.914 61.771
2.78 165.288 59.670
2.79 143.996 57.907
2.80 151.868 57.420
2.81 175.387 59.302
2.82 180.036 62.901
2.83 181.833 65.383
2.84 179.717 66.142
2.85 177.912 65.997
2.86 179.361 65.741
2.87 181.336 65.517
2.88 180.944 64.916
2.89 179.267 63.157
2.90 175.344 60.094
2.91 179.758 56.587
2.92 --undefined-- 53.731
2.93 --undefined-- 54.297
2.94 --undefined-- 54.811
2.95 --undefined-- 53.992
2.96 --undefined-- 55.160
2.97 --undefined-- 56.515
2.98 --undefined-- 57.571
2.99 191.536 60.575
3.00 183.817 63.428
3.01 177.971 64.597
3.02 170.435 64.608
3.03 165.659 64.475
3.04 161.290 64.573
3.05 159.030 64.622
3.06 157.591 64.524
3.07 157.357 64.523
3.08 158.288 64.665
3.09 161.126 65.087
3.10 164.172 65.698
3.11 165.611 66.053
3.12 165.939 65.868
3.13 165.568 65.104
3.14 165.001 63.787
3.15 164.463 61.612
3.16 164.980 58.154
3.17 --undefined-- 54.142
3.18 --undefined-- 51.498
3.19 --undefined-- 49.582
3.20 --undefined-- 46.437
3.21 --undefined-- 43.580
3.22 --undefined-- 43.992
3.23 --undefined-- 48.608
3.24 --undefined-- 56.185
3.25 217.504 61.532
3.26 213.797 64.765
3.27 205.222 67.375
3.28 201.213 69.682
3.29 198.249 71.395
3.30 193.994 72.688
3.31 190.951 73.577
3.32 188.188 73.896
3.33 186.919 73.737
3.34 186.808 73.398
3.35 186.615 73.000
3.36 185.800 72.558
3.37 183.900 72.039
3.38 180.695 70.985
3.39 --undefined-- 68.786
3.40 --undefined-- 65.638
3.41 --undefined-- 62.621
3.42 --undefined-- 59.183
3.43 --undefined-- 55.119
3.44 --undefined-- 53.749
3.45 --undefined-- 54.003
3.46 --undefined-- 52.518
3.47 --undefined-- 49.228
3.48 --undefined-- 48.161
3.49 --undefined-- 48.982
3.50 --undefined-- 51.048
3.51 --undefined-- 51.736
3.52 --undefined-- 49.140
3.53 --undefined-- 45.109
3.54 --undefined-- 44.578
3.55 --undefined-- 47.597
3.56 --undefined-- 50.513
3.57 --undefined-- 51.052
3.58 --undefined-- 49.620
3.59 --undefined-- 48.295
3.60 --undefined-- 51.609
3.61 --undefined-- 56.580
3.62 224.902 59.828
3.63 235.059 61.997
3.64 245.714 63.496
3.65 253.288 64.485
3.66 261.029 65.368
3.67 268.938 66.183
3.68 276.384 66.573
3.69 279.322 65.691
3.70 275.945 62.528
3.71 267.237 56.798
3.72 --undefined-- 50.981
3.73 --undefined-- 49.094
3.74 --undefined-- 52.443
3.75 --undefined-- 60.445
3.76 --undefined-- 67.251
3.77 --undefined-- 71.181
3.78 --undefined-- 72.698
3.79 --undefined-- 72.673
3.80 --undefined-- 72.047
3.81 --undefined-- 70.788
3.82 173.518 68.767
3.83 170.857 66.768
3.84 168.093 65.596
3.85 168.121 65.339
3.86 168.006 65.325
3.87 169.539 65.597
3.88 172.760 66.089
3.89 177.521 66.769
3.90 179.156 67.257
3.91 179.561 66.890
3.92 180.310 65.428
3.93 182.424 64.121
3.94 197.421 63.927
3.95 201.284 63.360
3.96 203.556 62.269
3.97 206.760 61.607
3.98 215.881 61.694
3.99 222.572 62.253
4.00 220.558 62.772
4.01 215.506 62.925
4.02 211.799 63.642
4.03 192.198 65.902
4.04 189.894 68.084
4.05 184.438 69.351
4.06 181.267 70.109
4.07 181.149 70.529
4.08 180.636 70.082
4.09 181.099 68.811
4.10 181.727 67.850
4.11 189.364 67.530
4.12 190.712 67.765
4.13 192.198 68.517
4.14 193.853 69.184
4.15 194.851 69.372
4.16 193.635 69.045
4.17 193.708 68.298
4.18 197.622 67.442
4.19 202.116 67.465
4.20 203.227 68.584
4.21 203.321 69.892
4.22 205.094 71.563
4.23 206.113 73.128
4.24 204.285 73.843
4.25 198.994 74.042
4.26 189.308 74.386
4.27 --undefined-- 74.396
4.28 --undefined-- 73.256
4.29 --undefined-- 70.790
4.30 --undefined-- 67.280
4.31 --undefined-- 62.428
4.32 --undefined-- 56.853
4.33 --undefined-- 52.580
4.34 --undefined-- 50.755
4.35 --undefined-- 50.741
4.36 --undefined-- 51.199
4.37 --undefined-- 51.039
4.38 --undefined-- 51.280
4.39 --undefined-- 51.703
4.40 --undefined-- 51.184
4.41 --undefined-- 51.236
4.42 --undefined-- 52.546
4.43 --undefined-- 55.082
4.44 --undefined-- 56.781
4.45 --undefined-- 56.195
4.46 --undefined-- 54.113
4.47 --undefined-- 52.689
4.48 --undefined-- 53.564
4.49 --undefined-- 55.049
4.50 --undefined-- 55.038
4.51 --undefined-- 53.739
4.52 --undefined-- 53.349
4.53 --undefined-- 54.260
4.54 --undefined-- 54.751
4.55 --undefined-- 54.998
4.56 --undefined-- 53.703
4.57 --undefined-- 49.449
4.58 --undefined-- 47.413
4.59 --undefined-- 51.068
4.60 --undefined-- 52.987
4.61 --undefined-- 52.522
4.62 --undefined-- 51.886
4.63 --undefined-- 54.322
4.64 --undefined-- 57.634
4.65 --undefined-- 59.609
4.66 242.754 59.693
4.67 239.322 60.230
4.68 234.184 64.149
4.69 252.916 68.046
4.70 245.776 70.894
4.71 244.837 72.670
4.72 244.510 73.642
4.73 243.747 74.052
4.74 244.080 73.747
4.75 245.238 72.688
4.76 246.918 71.207
4.77 247.738 69.782
4.78 248.347 68.834
4.79 249.883 68.425
4.80 253.281 68.239
4.81 256.726 67.781
4.82 260.744 67.227
4.83 266.668 67.291
4.84 269.592 67.895
4.85 272.357 68.103
4.86 271.553 67.017
4.87 265.705 64.071
4.88 251.474 60.150
4.89 252.302 58.709
4.90 --undefined-- 60.061
4.91 --undefined-- 63.147
4.92 287.438 66.154
4.93 280.800 67.768
4.94 276.042 67.982
4.95 273.547 67.738
4.96 274.018 67.660
4.97 275.824 67.719
4.98 277.084 67.875
4.99 277.246 68.086
5.00 277.613 68.221
5.01 279.053 --undefined--
5.02 280.567 --undefined--
5.03 --undefined-- --undefined--
5.04 --undefined-- --undefined--
