Time Pitch Intensity
0.01 --undefined-- --undefined--
0.02 106.820 --undefined--
0.03 108.507 --undefined--
0.04 106.825 --undefined--
0.05 --undefined-- 60.444
0.06 --undefined-- 58.806
0.07 --undefined-- 56.238
0.08 --undefined-- 52.529
0.09 --undefined-- 48.563
0.10 --undefined-- 45.430
0.11 --undefined-- 42.451
0.12 --undefined-- 40.294
0.13 --undefined-- 39.582
0.14 --undefined-- 39.337
0.15 --undefined-- 38.294
0.16 --undefined-- 36.773
0.17 --undefined-- 36.410
0.18 --undefined-- 36.927
0.19 --undefined-- 37.815
0.20 --undefined-- 37.037
0.21 --undefined-- 35.920
0.22 --undefined-- 38.085
0.23 --undefined-- 39.412
0.24 --undefined-- 39.161
0.25 --undefined-- 38.528
0.26 --undefined-- 37.494
0.27 --undefined-- 36.885
0.28 --undefined-- 37.886
0.29 --undefined-- 38.121
0.30 --undefined-- 37.417
0.31 --undefined-- 37.301
0.32 --undefined-- 37.078
0.33 --undefined-- 36.704
0.34 --undefined-- 36.600
0.35 --undefined-- 36.384
0.36 --undefined-- 37.287
0.37 --undefined-- 38.978
0.38 --undefined-- 39.442
0.39 --undefined-- 39.622
0.40 --undefined-- 40.128
0.41 --undefined-- 40.660
0.42 --undefined-- 39.898
0.43 --undefined-- 38.233
0.44 --undefined-- 38.665
0.45 --undefined-- 38.618
0.46 --undefined-- 37.165
0.47 --undefined-- 36.198
0.48 --undefined-- 35.625
0.49 --undefined-- 35.442
0.50 --undefined-- 36.617
0.51 --undefined-- 38.560
0.52 --undefined-- 40.187
0.53 --undefined-- 40.266
0.54 --undefined-- 38.227
0.55 --undefined-- 37.411
0.56 --undefined-- 40.324
0.57 --undefined-- 48.282
0.58 --undefined-- 56.597
0.59 167.625 61.753
0.60 149.521 64.460
0.61 145.444 66.170
0.62 148.595 67.896
0.63 155.519 70.667
0.64 174.073 75.237
0.65 186.627 79.894
0.66 194.214 83.187
0.67 199.348 84.910
0.68 205.479 85.347
0.69 212.695 84.986
0.70 220.076 84.112
0.71 226.194 82.842
0.72 229.651 81.358
0.73 230.949 79.443
0.74 230.962 76.611
0.75 226.166 73.179
0.76 218.836 71.269
0.77 221.016 71.601
0.78 223.476 72.121
0.79 224.538 72.290
0.80 225.158 72.282
0.81 223.854 72.262
0.82 221.605 72.219
0.83 220.439 71.967
0.84 215.253 71.124
0.85 205.454 69.129
0.86 196.912 65.394
0.87 --undefined-- 59.511
0.88 --undefined-- 53.725
0.89 --undefined-- 51.906
0.90 --undefined-- 50.727
0.91 --undefined-- 52.803
0.92 --undefined-- 62.247
0.93 --undefined-- 69.693
0.94 --undefined-- 73.781
0.95 --undefined-- 75.117
0.96 --undefined-- 74.497
0.97 --undefined-- 73.308
0.98 117.862 72.703
0.99 113.636 72.109
1.00 111.346 71.230
1.01 110.471 70.606
1.02 108.992 70.286
1.03 107.520 70.048
1.04 106.684 69.865
1.05 106.571 69.704
1.06 105.906 69.566
1.07 105.643 69.552
1.08 105.801 69.545
1.09 106.040 69.461
1.10 106.861 69.303
1.11 107.361 69.147
1.12 106.127 69.035
1.13 104.620 68.344
1.14 103.329 66.631
1.15 --undefined-- 64.816
1.16 --undefined-- 62.936
1.17 --undefined-- 59.190
1.18 --undefined-- 55.558
1.19 --undefined-- 54.634
1.20 --undefined-- 51.545
1.21 --undefined-- 45.276
1.22 --undefined-- 41.415
1.23 --undefined-- 39.996
1.24 --undefined-- 38.372
1.25 --undefined-- 39.821
1.26 --undefined-- 40.681
1.27 --undefined-- 39.866
1.28 --undefined-- 38.412
1.29 --undefined-- 37.951
1.30 --undefined-- 39.613
1.31 --undefined-- 40.304
1.32 --undefined-- 39.332
1.33 --undefined-- 38.813
1.34 --undefined-- 45.569
1.35 --undefined-- 57.589
1.36 --undefined-- 66.362
1.37 159.869 71.569
1.38 160.156 74.111
1.39 158.423 75.118
1.40 157.350 75.783
1.41 157.012 76.260
1.42 157.824 75.844
1.43 162.150 74.801
1.44 159.162 73.956
1.45 159.891 72.590
1.46 165.454 70.245
1.47 164.750 68.227
1.48 165.612 67.412
1.49 169.193 67.473
1.50 176.693 68.427
1.51 185.163 69.989
1.52 191.658 71.438
1.53 197.006 72.483
1.54 200.565 73.313
1.55 203.119 74.245
1.56 204.985 75.423
1.57 206.835 76.863
1.58 207.592 78.534
1.59 207.120 80.290
1.60 205.477 81.755
1.61 203.500 82.619
1.62 201.544 82.811
1.63 199.809 82.540
1.64 198.974 82.123
1.65 198.777 81.709
1.66 198.276 81.209
1.67 196.974 80.403
1.68 194.586 78.900
1.69 191.304 76.060
1.70 202.903 71.590
1.71 207.264 67.025
1.72 207.158 63.192
1.73 209.731 57.979
1.74 --undefined-- 51.876
1.75 --undefined-- 47.340
1.76 --undefined-- 43.372
1.77 --undefined-- 39.761
1.78 --undefined-- 40.415
1.79 --undefined-- 41.614
1.80 --undefined-- 45.730
1.81 --undefined-- 54.333
1.82 --undefined-- 59.461
1.83 --undefined-- 61.362
1.84 --undefined-- 62.161
1.85 --undefined-- 62.729
1.86 --undefined-- 63.418
1.87 191.420 67.373
1.88 177.049 71.570
1.89 166.680 74.002
1.90 154.329 75.104
1.91 148.027 75.660
1.92 147.098 75.990
1.93 149.643 76.366
1.94 151.190 76.946
1.95 149.381 77.101
1.96 147.657 76.155
1.97 137.375 74.406
1.98 127.624 72.749
1.99 126.729 71.244
2.00 116.729 69.925
2.01 121.080 69.599
2.02 141.135 70.513
2.03 143.202 71.753
2.04 --undefined-- 72.360
2.05 --undefined-- 72.007
2.06 --undefined-- 71.078
2.07 --undefined-- 70.257
2.08 132.797 70.237
2.09 139.733 71.183
2.10 155.502 72.406
2.11 165.159 73.245
2.12 169.830 73.379
2.13 169.923 72.016
2.14 163.122 68.443
2.15 156.128 62.559
2.16 --undefined-- 55.045
2.17 --undefined-- 50.401
2.18 --undefined-- 50.755
2.19 --undefined-- 52.632
2.20 --undefined-- 58.399
2.21 --undefined-- 65.988
2.22 --undefined-- 70.830
2.23 145.521 72.935
2.24 140.664 72.969
2.25 137.048 72.168
2.26 138.652 71.925
2.27 144.552 71.650
2.28 148.966 70.684
2.29 145.771 69.024
2.30 138.498 66.486
2.31 134.044 64.061
2.32 134.611 64.912
2.33 139.660 68.740
2.34 144.624 71.696
2.35 139.832 72.681
2.36 129.686 72.583
2.37 126.325 72.122
2.38 122.009 70.418
2.39 113.850 66.809
2.40 101.981 61.293
2.41 --undefined-- 54.210
2.42 --undefined-- 46.208
2.43 --undefined-- 41.330
2.44 --undefined-- 40.193
2.45 --undefined-- 41.097
2.46 --undefined-- 44.029
2.47 --undefined-- 45.774
2.48 --undefined-- 48.334
2.49 --undefined-- 55.811
2.50 --undefined-- 61.608
2.51 114.542 64.638
2.52 113.473 65.957
2.53 113.121 66.541
2.54 115.259 66.975
2.55 118.393 67.604
2.56 124.870 68.419
2.57 132.558 69.076
2.58 140.588 69.046
2.59 143.523 67.692
2.60 140.970 64.543
2.61 139.028 59.770
2.62 --undefined-- 53.950
2.63 --undefined-- 48.581
2.64 --undefined-- 55.407
2.65 --undefined-- 65.048
2.66 182.682 71.147
2.67 155.977 74.375
2.68 147.182 75.670
2.69 138.512 75.651
2.70 129.124 74.993
2.71 126.549 74.594
2.72 124.793 74.611
2.73 124.121 74.408
2.74 124.933 74.037
2.75 125.605 73.908
2.76 126.162 73.822
2.77 126.015 73.451
2.78 125.803 72.761
2.79 126.266 71.800
2.80 125.321 70.426
2.81 121.986 68.569
2.82 121.122 66.380
2.83 --undefined-- 63.379
2.84 --undefined-- 58.359
2.85 --undefined-- 51.152
2.86 --undefined-- 43.538
2.87 --undefined-- 39.280
2.88 --undefined-- 38.252
2.89 --undefined-- 38.836
2.90 --undefined-- 38.972
2.91 --undefined-- 38.432
2.92 --undefined-- 37.365
2.93 --undefined-- 35.882
2.94 --undefined-- 37.233
2.95 --undefined-- 39.491
2.96 --undefined-- 39.552
2.97 --undefined-- 38.657
2.98 --undefined-- 39.695
2.99 --undefined-- 41.531
3.00 --undefined-- 42.785
3.01 --undefined-- 42.655
3.02 --undefined-- 42.137
3.03 --undefined-- 45.803
3.04 --undefined-- 50.801
3.05 --undefined-- 53.470
3.06 --undefined-- 57.026
3.07 --undefined-- 64.246
3.08 162.190 69.384
3.09 151.271 71.836
3.10 145.171 72.485
3.11 140.381 71.753
3.12 129.483 69.902
3.13 131.727 68.229
3.14 126.072 67.287
3.15 118.874 66.241
3.16 112.371 65.646
3.17 113.481 66.393
3.18 111.014 67.226
3.19 108.165 67.507
3.20 112.703 67.616
3.21 115.114 67.525
3.22 116.900 66.988
3.23 115.606 65.847
3.24 104.946 64.082
3.25 98.536 62.256
3.26 101.175 61.447
3.27 102.444 61.370
3.28 106.205 61.596
3.29 111.183 61.911
3.30 113.068 61.340
3.31 114.117 59.327
3.32 --undefined-- 55.914
3.33 --undefined-- 51.195
3.34 --undefined-- 46.389
3.35 --undefined-- 43.830
3.36 --undefined-- 43.723
3.37 --undefined-- 44.691
3.38 --undefined-- 47.002
3.39 --undefined-- 54.656
3.40 --undefined-- 64.051
3.41 170.569 70.395
3.42 163.655 73.967
3.43 154.642 75.563
3.44 148.798 76.030
3.45 145.955 75.943
3.46 145.482 75.556
3.47 146.354 74.555
3.48 146.848 72.435
3.49 149.253 70.435
3.50 154.499 69.824
3.51 154.735 69.296
3.52 152.333 68.520
3.53 149.321 67.544
3.54 145.821 66.228
3.55 141.831 64.371
3.56 138.075 62.026
3.57 140.761 59.613
3.58 --undefined-- 56.952
3.59 --undefined-- 53.277
3.60 --undefined-- 48.321
3.61 --undefined-- 52.612
3.62 --undefined-- 62.297
3.63 --undefined-- 68.323
3.64 146.985 71.244
3.65 141.691 72.071
3.66 130.781 71.794
3.67 123.439 71.137
3.68 121.875 70.617
3.69 121.297 70.418
3.70 122.087 70.390
3.71 122.651 70.386
3.72 123.734 70.412
3.73 123.485 70.419
3.74 126.401 70.276
3.75 127.174 69.714
3.76 127.502 68.341
3.77 120.181 66.265
3.78 123.434 65.073
3.79 122.675 65.008
3.80 124.452 64.853
3.81 125.155 64.097
3.82 124.441 62.717
3.83 118.070 61.065
3.84 --undefined-- 58.975
3.85 --undefined-- 56.203
3.86 --undefined-- 52.967
3.87 --undefined-- 49.446
3.88 --undefined-- 46.492
3.89 --undefined-- 42.560
3.90 --undefined-- 39.450
3.91 --undefined-- 38.881
3.92 --undefined-- 39.334
3.93 --undefined-- 39.754
3.94 --undefined-- 38.711
3.95 --undefined-- 38.083
3.96 --undefined-- 39.008
3.97 --undefined-- 38.740
3.98 --undefined-- 38.783
3.99 --undefined-- 38.463
4.00 --undefined-- 37.173
4.01 --undefined-- 37.091
4.02 --undefined-- 37.948
4.03 --undefined-- 38.060
4.04 --undefined-- 37.529
4.05 --undefined-- 37.546
4.06 --undefined-- 37.914
4.07 --undefined-- 37.758
4.08 --undefined-- 38.563
4.09 --undefined-- 40.189
4.10 --undefined-- 40.747
4.11 --undefined-- 40.373
4.12 --undefined-- 40.174
4.13 --undefined-- 41.125
4.14 --undefined-- 42.644
4.15 --undefined-- 42.870
4.16 --undefined-- 42.096
4.17 --undefined-- 42.322
4.18 --undefined-- 43.257
4.19 --undefined-- 43.694
4.20 --undefined-- 44.121
4.21 --undefined-- 44.731
4.22 --undefined-- 45.173
4.23 --undefined-- 45.211
4.24 --undefined-- 44.690
4.25 --undefined-- 43.747
4.26 --undefined-- 43.109
4.27 --undefined-- 42.419
4.28 --undefined-- 41.159
4.29 --undefined-- 41.597
4.30 --undefined-- 42.916
4.31 --undefined-- 41.723
4.32 --undefined-- 38.827
4.33 --undefined-- 40.504
4.34 --undefined-- 51.084
4.35 --undefined-- 59.480
4.36 131.191 64.906
4.37 134.825 68.421
4.38 130.409 70.623
4.39 133.071 72.215
4.40 134.569 73.564
4.41 136.081 74.585
4.42 137.245 75.049
4.43 138.917 75.133
4.44 140.020 75.202
4.45 140.995 75.336
4.46 141.645 75.343
4.47 142.416 75.188
4.48 142.493 74.838
4.49 141.550 74.116
4.50 141.333 73.011
4.51 140.012 71.860
4.52 139.587 71.432
4.53 145.175 72.336
4.54 151.750 73.990
4.55 155.349 75.890
4.56 150.030 77.493
4.57 146.099 77.872
4.58 137.472 76.984
4.59 134.452 75.959
4.60 131.090 75.201
4.61 130.576 73.987
4.62 135.284 72.920
4.63 142.218 73.050
4.64 148.515 73.427
4.65 162.837 73.105
4.66 179.883 72.504
4.67 189.580 72.448
4.68 202.023 72.949
4.69 218.061 73.554
4.70 224.908 73.827
4.71 232.111 73.717
4.72 235.766 73.603
4.73 239.696 73.934
4.74 240.943 74.692
4.75 236.232 75.066
4.76 225.462 73.883
4.77 211.544 70.238
4.78 --undefined-- 63.829
4.79 --undefined-- 58.610
4.80 --undefined-- 60.697
4.81 --undefined-- 62.868
4.82 --undefined-- 63.939
4.83 --undefined-- 64.641
4.84 --undefined-- 65.965
4.85 156.115 69.993
4.86 160.505 73.495
4.87 156.305 75.290
4.88 145.940 76.097
4.89 138.352 76.177
4.90 130.378 75.648
4.91 128.798 75.457
4.92 128.764 75.975
4.93 129.535 76.163
4.94 132.644 75.474
4.95 136.015 75.249
4.96 137.727 75.772
4.97 141.846 75.561
4.98 147.529 74.818
4.99 149.273 74.579
5.00 150.766 74.560
5.01 152.634 74.214
5.02 156.492 73.412
5.03 163.914 72.241
5.04 165.172 70.484
5.05 159.472 67.458
5.06 147.242 62.334
5.07 --undefined-- 55.307
5.08 --undefined-- 48.676
5.09 --undefined-- 48.263
5.10 --undefined-- 49.443
5.11 --undefined-- 48.709
5.12 --undefined-- 49.477
5.13 --undefined-- 56.326
5.14 --undefined-- 65.811
5.15 184.238 72.328
5.16 172.727 75.664
5.17 164.424 76.154
5.18 153.617 74.179
5.19 145.071 70.399
5.20 --undefined-- 65.053
5.21 --undefined-- 57.987
5.22 --undefined-- 52.124
5.23 --undefined-- 49.993
5.24 --undefined-- 50.255
5.25 --undefined-- 54.889
5.26 --undefined-- 58.606
5.27 131.958 60.962
5.28 131.490 62.848
5.29 127.869 64.748
5.30 124.550 66.700
5.31 121.711 68.534
5.32 119.729 69.788
5.33 115.925 70.436
5.34 116.356 70.792
5.35 116.076 71.045
5.36 114.487 70.893
5.37 111.263 70.150
5.38 109.529 69.043
5.39 105.238 67.106
5.40 99.871 64.603
5.41 103.991 63.497
5.42 109.968 63.920
5.43 113.031 64.803
5.44 115.486 65.541
5.45 116.048 65.865
5.46 116.037 65.533
5.47 113.462 64.214
5.48 109.881 61.459
5.49 --undefined-- 57.509
5.50 --undefined-- 56.591
5.51 --undefined-- 58.749
5.52 --undefined-- 61.252
5.53 113.348 63.595
5.54 108.939 65.183
5.55 120.693 66.741
5.56 135.667 68.601
5.57 147.615 70.125
5.58 146.656 71.360
5.59 146.356 72.188
5.60 146.913 72.818
5.61 147.434 73.615
5.62 148.342 74.682
5.63 150.177 75.852
5.64 151.405 76.512
5.65 148.561 76.009
5.66 143.258 74.468
5.67 135.072 72.558
5.68 125.354 70.507
5.69 123.663 68.197
5.70 120.989 65.257
5.71 120.524 61.733
5.72 120.797 60.742
5.73 128.197 64.936
5.74 128.844 68.530
5.75 --undefined-- 70.249
5.76 --undefined-- 70.961
5.77 --undefined-- 71.494
5.78 --undefined-- 72.122
5.79 132.500 72.799
5.80 138.705 73.221
5.81 148.836 73.294
5.82 156.629 73.135
5.83 166.043 73.342
5.84 174.501 73.772
5.85 176.908 73.224
5.86 174.837 70.615
5.87 165.639 65.453
5.88 --undefined-- 58.540
5.89 --undefined-- 53.318
5.90 --undefined-- 51.977
5.91 --undefined-- 51.947
5.92 --undefined-- 52.443
5.93 --undefined-- 58.346
5.94 --undefined-- 65.430
5.95 --undefined-- 69.600
5.96 --undefined-- 71.336
5.97 122.140 71.713
5.98 117.193 71.264
5.99 110.046 70.288
6.00 111.872 69.811
6.01 115.580 70.379
6.02 118.912 71.310
6.03 123.344 72.209
6.04 125.957 72.973
6.05 131.321 73.568
6.06 135.561 74.383
6.07 140.577 --undefined--
6.08 147.950 --undefined--
6.09 --undefined-- --undefined--
6.10 --undefined-- --undefined--
