Time Pitch Intensity
0.01 --undefined-- --undefined--
0.02 111.946 --undefined--
0.03 114.685 --undefined--
0.04 119.669 --undefined--
0.05 123.819 74.910
0.06 126.527 74.784
0.07 124.616 73.005
0.08 115.317 69.097
0.09 120.175 67.082
0.10 129.024 71.090
0.11 129.089 74.550
0.12 120.657 76.078
0.13 117.205 76.520
0.14 112.930 76.422
0.15 110.482 75.901
0.16 109.694 74.946
0.17 107.168 73.247
0.18 105.204 70.458
0.19 100.242 66.684
0.20 101.959 62.878
0.21 98.376 60.265
0.22 --undefined-- 59.006
0.23 --undefined-- 57.616
0.24 --undefined-- 58.541
0.25 --undefined-- 64.763
0.26 113.338 69.874
0.27 113.459 72.407
0.28 108.283 72.986
0.29 103.399 72.560
0.30 101.211 71.773
0.31 97.549 70.853
0.32 96.320 69.965
0.33 96.097 69.392
0.34 95.984 69.146
0.35 96.243 68.989
0.36 97.447 68.847
0.37 99.064 68.895
0.38 101.431 68.638
0.39 99.332 67.243
0.40 98.220 64.968
0.41 105.989 62.949
0.42 104.189 61.942
0.43 --undefined-- 63.024
0.44 --undefined-- 64.171
0.45 --undefined-- 66.434
0.46 165.661 71.610
0.47 161.526 75.459
0.48 162.733 77.200
0.49 165.361 77.475
0.50 168.849 76.908
0.51 173.339 76.266
0.52 175.037 76.497
0.53 174.988 77.083
0.54 174.139 77.266
0.55 172.762 77.252
0.56 171.417 77.232
0.57 170.139 76.940
0.58 167.647 75.897
0.59 159.840 74.001
0.60 162.417 71.610
0.61 163.280 68.470
0.62 168.031 64.143
0.63 170.951 58.937
0.64 170.706 57.514
0.65 168.525 65.300
0.66 191.991 72.344
0.67 188.040 75.942
0.68 180.306 76.851
0.69 174.344 76.805
0.70 170.756 77.194
0.71 166.493 77.596
0.72 161.246 76.915
0.73 160.135 74.457
0.74 163.464 70.360
0.75 156.496 66.440
0.76 154.824 64.874
0.77 154.563 64.752
0.78 153.959 63.867
0.79 157.941 61.444
0.80 160.046 57.637
0.81 161.792 53.856
0.82 --undefined-- 52.387
0.83 --undefined-- 51.866
0.84 --undefined-- 51.436
0.85 --undefined-- 52.961
0.86 --undefined-- 56.845
0.87 --undefined-- 61.379
0.88 --undefined-- 64.537
0.89 --undefined-- 66.051
0.90 --undefined-- 65.579
0.91 --undefined-- 63.725
0.92 --undefined-- 62.791
0.93 --undefined-- 64.354
0.94 --undefined-- 68.048
0.95 105.887 71.045
0.96 104.669 72.460
0.97 101.403 72.721
0.98 99.378 72.468
0.99 100.489 72.244
1.00 104.307 72.157
1.01 110.501 72.461
1.02 114.884 73.233
1.03 119.881 73.601
1.04 126.797 73.392
1.05 131.691 73.669
1.06 139.071 74.437
1.07 146.349 75.077
1.08 153.216 75.730
1.09 160.215 76.368
1.10 168.746 76.742
1.11 177.118 76.881
1.12 183.024 77.313
1.13 185.465 77.942
1.14 189.503 78.079
1.15 194.101 78.127
1.16 194.311 78.629
1.17 193.575 78.856
1.18 191.928 78.183
1.19 185.717 76.532
1.20 175.711 73.742
1.21 159.193 69.526
1.22 158.604 65.313
1.23 --undefined-- 64.487
1.24 --undefined-- 65.321
1.25 --undefined-- 66.343
1.26 --undefined-- 69.568
1.27 --undefined-- 74.392
1.28 164.611 77.631
1.29 157.475 79.011
1.30 155.052 78.700
1.31 134.113 77.064
1.32 130.904 75.214
1.33 124.150 73.849
1.34 123.066 73.215
1.35 123.279 72.921
1.36 124.039 72.663
1.37 123.495 72.217
1.38 124.221 71.715
1.39 125.242 71.339
1.40 126.142 71.021
1.41 125.889 70.657
1.42 125.204 69.961
1.43 119.063 69.132
1.44 124.492 69.376
1.45 124.537 70.481
1.46 126.278 71.843
1.47 126.958 73.124
1.48 126.505 73.794
1.49 125.903 73.908
1.50 125.277 73.821
1.51 124.615 73.710
1.52 124.374 73.779
1.53 123.399 73.982
1.54 123.274 74.000
1.55 123.426 73.614
1.56 122.546 72.810
1.57 123.954 72.158
1.58 127.119 72.181
1.59 127.882 72.420
1.60 128.283 72.583
1.61 128.177 72.641
1.62 128.116 72.627
1.63 128.163 72.584
1.64 127.699 72.461
1.65 127.031 72.201
1.66 126.149 71.775
1.67 124.345 71.200
1.68 123.503 70.925
1.69 121.278 71.518
1.70 117.994 72.564
1.71 114.423 73.207
1.72 111.366 73.177
1.73 109.142 72.714
1.74 107.202 72.127
1.75 105.795 71.758
1.76 104.602 72.047
1.77 104.214 72.649
1.78 104.506 72.978
1.79 104.688 73.077
1.80 104.876 73.069
1.81 104.923 72.931
1.82 105.226 72.938
1.83 106.252 73.299
1.84 107.937 73.812
1.85 109.911 74.418
1.86 110.775 74.874
1.87 110.766 74.644
1.88 110.617 73.166
1.89 105.849 69.994
1.90 107.096 65.775
1.91 109.466 62.014
1.92 109.623 58.707
1.93 --undefined-- 57.764
1.94 --undefined-- 63.036
1.95 --undefined-- 70.477
1.96 --undefined-- 75.241
1.97 122.335 77.144
1.98 120.826 77.161
1.99 118.490 76.404
2.00 117.108 75.117
2.01 114.761 72.607
2.02 111.290 68.536
2.03 115.847 64.214
2.04 117.219 61.425
2.05 122.833 59.314
2.06 122.772 58.484
2.07 123.848 63.026
2.08 141.298 70.029
2.09 145.438 74.578
2.10 140.150 76.513
2.11 132.692 76.892
2.12 128.643 76.932
2.13 126.531 76.984
2.14 123.094 76.985
2.15 121.570 76.504
2.16 122.934 75.021
2.17 122.461 72.695
2.18 120.889 70.287
2.19 121.792 68.145
2.20 121.083 65.753
2.21 116.945 63.227
2.22 115.755 61.519
2.23 115.351 60.837
2.24 116.191 60.618
2.25 111.363 60.376
2.26 110.695 60.570
2.27 111.692 61.267
2.28 110.473 62.024
2.29 108.967 62.661
2.30 107.353 63.379
2.31 107.422 64.595
2.32 106.966 66.076
2.33 106.503 67.423
2.34 105.817 68.665
2.35 106.281 70.145
2.36 107.677 71.802
2.37 108.798 73.352
2.38 108.931 74.640
2.39 108.751 75.471
2.40 108.882 75.868
2.41 109.199 76.056
2.42 109.599 76.194
2.43 109.534 76.261
2.44 108.715 76.209
2.45 107.816 76.026
2.46 106.731 75.757
2.47 106.167 75.570
2.48 106.085 75.580
2.49 106.573 75.734
2.50 107.282 75.966
2.51 108.389 76.315
2.52 109.432 76.815
2.53 110.740 77.243
2.54 112.106 77.374
2.55 112.704 77.189
2.56 113.489 76.834
2.57 113.915 76.503
2.58 113.233 76.146
2.59 111.793 75.234
2.60 108.961 73.015
2.61 105.524 69.359
2.62 102.951 65.660
2.63 100.128 62.792
2.64 104.519 59.507
2.65 107.283 56.225
2.66 --undefined-- 53.817
2.67 --undefined-- 52.992
2.68 --undefined-- 51.929
2.69 --undefined-- 50.759
2.70 --undefined-- 55.648
2.71 --undefined-- 63.536
2.72 115.013 68.908
2.73 110.571 71.906
2.74 108.211 73.519
2.75 107.777 74.641
2.76 109.215 75.585
2.77 111.721 76.337
2.78 114.094 76.846
2.79 116.641 77.111
2.80 120.242 77.320
2.81 122.136 77.374
2.82 124.041 76.898
2.83 125.639 76.370
2.84 136.359 76.770
2.85 143.481 77.480
2.86 148.996 78.036
2.87 153.432 78.554
2.88 158.142 78.897
2.89 164.413 78.904
2.90 169.728 78.585
2.91 175.925 78.348
2.92 180.604 78.663
2.93 187.110 79.088
2.94 179.360 78.798
2.95 175.777 77.960
2.96 171.357 77.625
2.97 168.717 77.583
2.98 167.022 77.122
2.99 161.233 76.466
3.00 159.339 75.284
3.01 159.448 72.375
3.02 163.907 67.142
3.03 165.482 61.512
3.04 163.807 60.846
3.05 164.838 61.026
3.06 164.947 59.751
3.07 160.547 57.212
3.08 --undefined-- 55.245
3.09 --undefined-- 55.255
3.10 --undefined-- 55.105
3.11 --undefined-- 54.415
3.12 --undefined-- 54.566
3.13 --undefined-- 55.750
3.14 --undefined-- 56.622
3.15 --undefined-- 56.793
3.16 --undefined-- 56.842
3.17 --undefined-- 57.239
3.18 --undefined-- 57.543
3.19 --undefined-- 57.988
3.20 --undefined-- 58.402
3.21 --undefined-- 58.402
3.22 --undefined-- 57.872
3.23 --undefined-- 56.921
3.24 --undefined-- 56.050
3.25 --undefined-- 55.131
3.26 --undefined-- 54.011
3.27 --undefined-- 53.010
3.28 --undefined-- 51.539
3.29 --undefined-- 49.368
3.30 --undefined-- 48.735
3.31 --undefined-- 50.493
3.32 --undefined-- 50.071
3.33 --undefined-- 46.173
3.34 --undefined-- 45.191
3.35 --undefined-- 54.291
3.36 --undefined-- 61.927
3.37 --undefined-- 68.704
3.38 --undefined-- 73.728
3.39 --undefined-- 75.901
3.40 147.114 76.164
3.41 149.000 76.185
3.42 148.737 76.258
3.43 148.825 76.320
3.44 152.440 76.627
3.45 154.349 76.988
3.46 157.036 77.328
3.47 159.005 77.540
3.48 160.457 77.316
3.49 160.656 76.741
3.50 159.444 76.316
3.51 157.327 76.369
3.52 155.248 76.637
3.53 153.084 76.593
3.54 149.447 75.910
3.55 146.016 74.640
3.56 147.338 72.752
3.57 151.717 69.688
3.58 157.464 66.223
3.59 156.344 67.654
3.60 158.646 72.415
3.61 154.979 75.571
3.62 151.930 76.802
3.63 152.751 77.362
3.64 158.994 78.194
3.65 163.600 78.514
3.66 166.627 77.493
3.67 171.923 75.891
3.68 180.705 76.170
3.69 186.100 77.466
3.70 191.542 77.829
3.71 196.479 76.872
3.72 202.259 74.425
3.73 182.464 70.892
3.74 180.560 68.055
3.75 176.143 68.356
3.76 197.555 73.099
3.77 197.503 76.879
3.78 188.604 78.181
3.79 179.871 77.999
3.80 172.660 77.711
3.81 167.971 77.632
3.82 164.177 77.561
3.83 160.586 77.556
3.84 157.583 77.550
3.85 154.691 77.084
3.86 151.337 75.725
3.87 141.244 73.160
3.88 134.984 69.484
3.89 130.932 65.670
3.90 --undefined-- 63.497
3.91 --undefined-- 62.619
3.92 --undefined-- 65.109
3.93 --undefined-- 71.492
3.94 170.169 75.379
3.95 169.451 76.454
3.96 171.799 76.118
3.97 176.099 75.940
3.98 181.287 76.151
3.99 187.270 76.471
4.00 193.522 76.602
4.01 200.606 76.131
4.02 209.074 74.989
4.03 212.783 72.977
4.04 201.733 69.834
4.05 200.623 65.577
4.06 203.376 59.503
4.07 --undefined-- 51.349
4.08 --undefined-- 45.794
4.09 --undefined-- 43.870
4.10 --undefined-- 42.802
4.11 --undefined-- 48.027
4.12 --undefined-- 61.226
4.13 --undefined-- 69.818
4.14 --undefined-- 74.450
4.15 163.052 75.972
4.16 155.373 75.801
4.17 149.472 75.541
4.18 147.969 75.951
4.19 147.347 76.508
4.20 146.413 76.778
4.21 145.471 76.854
4.22 144.267 76.965
4.23 143.375 77.164
4.24 142.408 77.325
4.25 141.518 77.309
4.26 140.766 77.024
4.27 140.342 76.578
4.28 140.504 76.228
4.29 141.457 76.105
4.30 143.339 76.135
4.31 144.656 76.236
4.32 145.716 76.300
4.33 146.152 75.885
4.34 145.312 74.271
4.35 140.342 70.674
4.36 145.027 64.902
4.37 147.350 57.735
4.38 --undefined-- 55.611
4.39 --undefined-- 57.902
4.40 --undefined-- 58.943
4.41 --undefined-- 62.276
4.42 195.186 69.749
4.43 190.413 74.916
4.44 189.296 77.100
4.45 190.875 77.387
4.46 190.473 76.767
4.47 188.243 75.757
4.48 186.209 74.903
4.49 186.728 74.597
4.50 184.119 74.439
4.51 181.746 74.290
4.52 180.094 74.261
4.53 178.267 74.320
4.54 175.396 74.354
4.55 172.219 74.123
4.56 167.888 73.311
4.57 160.933 72.066
4.58 157.282 72.126
4.59 158.080 74.272
4.60 153.124 76.161
4.61 148.250 76.632
4.62 138.746 76.124
4.63 133.350 75.636
4.64 130.585 75.164
4.65 128.495 73.958
4.66 125.822 71.230
4.67 119.634 67.044
4.68 123.097 63.052
4.69 132.507 59.949
4.70 129.651 56.159
4.71 --undefined-- 50.721
4.72 --undefined-- 44.155
4.73 --undefined-- 39.198
4.74 --undefined-- 36.309
4.75 --undefined-- 34.678
4.76 --undefined-- 34.152
4.77 --undefined-- 33.751
4.78 --undefined-- 33.090
4.79 --undefined-- 33.627
4.80 --undefined-- 45.849
4.81 --undefined-- 58.166
4.82 --undefined-- 67.053
4.83 --undefined-- 72.864
4.84 --undefined-- 75.501
4.85 172.832 75.561
4.86 168.183 74.136
4.87 164.743 72.508
4.88 163.183 71.494
4.89 161.334 70.785
4.90 161.790 70.607
4.91 171.610 71.703
4.92 172.224 72.997
4.93 171.542 73.975
4.94 170.922 74.641
4.95 170.742 75.089
4.96 170.383 75.368
4.97 170.553 75.538
4.98 169.266 75.657
4.99 167.193 75.684
5.00 166.548 75.697
5.01 165.544 75.753
5.02 163.906 75.802
5.03 161.512 75.829
5.04 158.668 75.815
5.05 154.246 75.599
5.06 150.272 75.255
5.07 146.408 75.024
5.08 142.519 74.835
5.09 140.236 74.816
5.10 136.038 --undefined--
5.11 129.725 --undefined--
5.12 --undefined-- --undefined--
5.13 --undefined-- --undefined--
