Time Pitch Intensity
0.01 --undefined-- --undefined--
0.02 --undefined-- --undefined--
0.03 --undefined-- --undefined--
0.04 --undefined-- --undefined--
0.05 --undefined-- 45.877
0.06 --undefined-- 44.633
0.07 --undefined-- 43.222
0.08 --undefined-- 41.303
0.09 --undefined-- 40.706
0.10 --undefined-- 40.893
0.11 --undefined-- 40.723
0.12 --undefined-- 40.753
0.13 --undefined-- 40.836
0.14 --undefined-- 40.843
0.15 --undefined-- 41.013
0.16 --undefined-- 40.535
0.17 --undefined-- 39.620
0.18 --undefined-- 39.668
0.19 --undefined-- 40.109
0.20 --undefined-- 39.841
0.21 --undefined-- 39.598
0.22 --undefined-- 45.514
0.23 --undefined-- 55.131
0.24 --undefined-- 62.017
0.25 --undefined-- 67.607
0.26 --undefined-- 71.323
0.27 128.460 72.864
0.28 128.238 73.295
0.29 126.404 73.481
0.30 126.022 73.503
0.31 126.423 73.244
0.32 126.748 72.535
0.33 126.319 71.304
0.34 127.251 69.882
0.35 128.730 68.717
0.36 133.075 67.616
0.37 131.775 66.111
0.38 131.969 64.371
0.39 132.476 62.482
0.40 131.874 59.763
0.41 125.099 55.721
0.42 --undefined-- 50.335
0.43 --undefined-- 44.141
0.44 --undefined-- 39.188
0.45 --undefined-- 37.160
0.46 --undefined-- 36.397
0.47 --undefined-- 36.544
0.48 --undefined-- 38.596
0.49 --undefined-- 43.589
0.50 --undefined-- 52.124
0.51 --undefined-- 58.160
0.52 --undefined-- 60.221
0.53 --undefined-- 59.358
0.54 --undefined-- 58.430
0.55 --undefined-- 58.691
0.56 --undefined-- 59.604
0.57 --undefined-- 64.469
0.58 --undefined-- 68.430
0.59 136.095 69.724
0.60 131.469 69.197
0.61 128.673 68.276
0.62 127.753 67.743
0.63 128.117 67.429
0.64 128.691 67.168
0.65 128.873 66.926
0.66 129.288 66.461
0.67 131.091 65.544
0.68 130.948 64.243
0.69 131.481 62.458
0.70 126.943 59.539
0.71 125.674 55.482
0.72 128.823 53.561
0.73 123.479 54.281
0.74 119.413 58.283
0.75 --undefined-- 63.800
0.76 --undefined-- 66.999
0.77 --undefined-- 68.011
0.78 --undefined-- 67.574
0.79 --undefined-- 66.649
0.80 --undefined-- 67.010
0.81 82.029 67.887
0.82 76.003 67.822
0.83 75.257 66.914
0.84 --undefined-- 66.111
0.85 --undefined-- 65.611
0.86 --undefined-- 65.107
0.87 --undefined-- 64.068
0.88 --undefined-- 60.750
0.89 --undefined-- 55.127
0.90 --undefined-- 50.382
0.91 --undefined-- 48.502
0.92 --undefined-- 51.898
0.93 --undefined-- 55.973
0.94 101.817 58.512
0.95 102.848 59.875
0.96 108.692 60.373
0.97 111.037 60.733
0.98 117.131 62.218
0.99 117.368 64.348
1.00 117.591 65.628
1.01 117.062 65.304
1.02 110.028 63.191
1.03 104.880 59.102
1.04 --undefined-- 53.037
1.05 --undefined-- 46.105
1.06 --undefined-- 41.952
1.07 --undefined-- 44.058
1.08 --undefined-- 48.782
1.09 --undefined-- 51.853
1.10 --undefined-- 54.556
1.11 --undefined-- 57.042
1.12 --undefined-- 59.039
1.13 --undefined-- 62.397
1.14 --undefined-- 66.036
1.15 --undefined-- 68.136
1.16 --undefined-- 68.878
1.17 97.419 68.680
1.18 93.488 68.009
1.19 91.736 67.382
1.20 88.780 66.875
1.21 86.831 66.034
1.22 86.956 64.661
1.23 87.436 63.400
1.24 87.352 62.408
1.25 88.648 61.320
1.26 90.627 60.736
1.27 90.517 60.737
1.28 91.755 60.839
1.29 92.207 60.678
1.30 92.579 59.809
1.31 91.701 58.012
1.32 92.436 55.893
1.33 92.759 54.028
1.34 91.375 51.529
1.35 --undefined-- 47.265
1.36 --undefined-- 41.298
1.37 --undefined-- 37.330
1.38 --undefined-- 35.611
1.39 --undefined-- 34.885
1.40 --undefined-- 37.793
1.41 --undefined-- 44.953
1.42 --undefined-- 52.920
1.43 --undefined-- 57.936
1.44 --undefined-- 61.419
1.45 --undefined-- 66.183
1.46 129.531 69.675
1.47 122.082 71.031
1.48 121.549 71.021
1.49 116.712 70.101
1.50 117.269 68.063
1.51 113.038 64.371
1.52 --undefined-- 58.552
1.53 --undefined-- 50.936
1.54 --undefined-- 49.177
1.55 --undefined-- 60.208
1.56 --undefined-- 67.659
1.57 --undefined-- 70.967
1.58 --undefined-- 71.029
1.59 --undefined-- 68.648
1.60 --undefined-- 64.375
1.61 --undefined-- 60.075
1.62 --undefined-- 60.071
1.63 --undefined-- 61.581
1.64 --undefined-- 61.506
1.65 104.125 59.696
1.66 104.106 58.342
1.67 100.231 58.545
1.68 100.666 58.900
1.69 105.659 58.938
1.70 111.545 59.097
1.71 114.197 59.579
1.72 114.474 59.099
1.73 111.433 57.243
1.74 --undefined-- 55.729
1.75 --undefined-- 56.200
1.76 --undefined-- 56.564
1.77 --undefined-- 56.784
1.78 --undefined-- 57.530
1.79 --undefined-- 58.481
1.80 --undefined-- 60.639
1.81 --undefined-- 63.054
1.82 --undefined-- 64.708
1.83 --undefined-- 66.397
1.84 115.690 66.911
1.85 113.257 65.470
1.86 106.924 63.201
1.87 103.306 61.403
1.88 100.265 59.078
1.89 96.185 55.357
1.90 --undefined-- 50.344
1.91 --undefined-- 47.270
1.92 --undefined-- 53.368
1.93 --undefined-- 57.237
1.94 --undefined-- 58.987
1.95 --undefined-- 62.485
1.96 --undefined-- 65.279
1.97 --undefined-- 65.348
1.98 96.326 63.081
1.99 96.733 59.968
2.00 98.168 58.157
2.01 99.387 58.131
2.02 98.641 58.292
2.03 99.493 57.466
2.04 100.047 54.997
2.05 --undefined-- 50.461
2.06 --undefined-- 44.915
2.07 --undefined-- 50.363
2.08 --undefined-- 58.408
2.09 --undefined-- 62.636
2.10 --undefined-- 63.818
2.11 --undefined-- 63.436
2.12 --undefined-- 61.967
2.13 --undefined-- 60.831
2.14 --undefined-- 62.566
2.15 --undefined-- 64.194
2.16 104.576 64.082
2.17 96.041 62.634
2.18 88.661 61.031
2.19 88.284 59.360
2.20 84.984 56.978
2.21 --undefined-- 53.305
2.22 --undefined-- 47.619
2.23 --undefined-- 40.905
2.24 --undefined-- 42.764
2.25 --undefined-- 54.447
2.26 --undefined-- 62.493
2.27 --undefined-- 66.048
2.28 --undefined-- 65.561
2.29 --undefined-- 62.470
2.30 115.176 61.693
2.31 114.973 61.914
2.32 107.955 60.372
2.33 108.298 57.722
2.34 114.437 56.345
2.35 115.006 56.715
2.36 115.031 57.001
2.37 115.824 57.095
2.38 117.216 57.891
2.39 120.216 59.595
2.40 120.764 61.497
2.41 120.403 63.197
2.42 119.245 64.716
2.43 118.381 65.875
2.44 117.683 65.991
2.45 117.515 64.403
2.46 --undefined-- 60.531
2.47 --undefined-- 53.679
2.48 --undefined-- 44.473
2.49 --undefined-- 42.353
2.50 --undefined-- 52.502
2.51 --undefined-- 63.149
2.52 --undefined-- 69.466
2.53 --undefined-- 71.887
2.54 --undefined-- 71.346
2.55 107.161 69.056
2.56 104.301 65.787
2.57 --undefined-- 61.884
2.58 --undefined-- 57.753
2.59 --undefined-- 52.329
2.60 --undefined-- 44.356
2.61 --undefined-- 38.612
2.62 --undefined-- 38.189
2.63 --undefined-- 37.352
2.64 --undefined-- 37.142
2.65 --undefined-- 43.135
2.66 --undefined-- 48.234
2.67 --undefined-- 50.003
2.68 --undefined-- 49.996
2.69 --undefined-- 50.932
2.70 --undefined-- 56.270
2.71 110.055 60.556
2.72 105.701 62.302
2.73 102.664 62.501
2.74 100.646 62.211
2.75 98.909 61.859
2.76 98.058 61.454
2.77 98.012 61.006
2.78 98.407 60.346
2.79 97.757 59.274
2.80 96.912 58.401
2.81 98.974 58.464
2.82 99.533 58.894
2.83 99.377 58.951
2.84 97.633 58.708
2.85 96.285 58.609
2.86 95.244 58.665
2.87 92.152 58.312
2.88 88.907 57.399
2.89 --undefined-- 56.939
2.90 --undefined-- 57.207
2.91 --undefined-- 56.102
2.92 --undefined-- 52.325
2.93 --undefined-- 46.945
2.94 --undefined-- 43.984
2.95 --undefined-- 45.668
2.96 --undefined-- 47.312
2.97 --undefined-- 47.821
2.98 --undefined-- 48.117
2.99 --undefined-- 49.985
3.00 --undefined-- 54.737
3.01 --undefined-- 59.709
3.02 --undefined-- 62.701
3.03 --undefined-- 63.663
3.04 --undefined-- 63.511
3.05 --undefined-- 62.110
3.06 --undefined-- 59.208
3.07 --undefined-- 56.047
3.08 --undefined-- 54.077
3.09 --undefined-- 54.544
3.10 --undefined-- 55.749
3.11 --undefined-- 57.140
3.12 --undefined-- 58.264
3.13 --undefined-- 58.541
3.14 --undefined-- 58.182
3.15 --undefined-- 57.624
3.16 --undefined-- 58.704
3.17 --undefined-- 65.111
3.18 --undefined-- 70.301
3.19 --undefined-- 72.248
3.20 --undefined-- 71.504
3.21 --undefined-- 68.470
3.22 --undefined-- 63.073
3.23 --undefined-- 55.360
3.24 --undefined-- 48.299
3.25 --undefined-- 46.775
3.26 --undefined-- 46.702
3.27 --undefined-- 46.605
3.28 --undefined-- 46.475
3.29 --undefined-- 46.603
3.30 --undefined-- 47.080
3.31 --undefined-- 47.825
3.32 --undefined-- 48.446
3.33 --undefined-- 48.462
3.34 --undefined-- 50.275
3.35 --undefined-- 58.699
3.36 --undefined-- 66.354
3.37 --undefined-- 70.518
3.38 --undefined-- 71.301
3.39 --undefined-- 69.382
3.40 --undefined-- 65.694
3.41 --undefined-- 60.537
3.42 --undefined-- 56.701
3.43 --undefined-- 58.227
3.44 101.643 60.696
3.45 96.216 62.244
3.46 95.924 62.373
3.47 94.463 61.307
3.48 92.979 60.185
3.49 90.486 59.285
3.50 92.623 58.627
3.51 91.534 58.887
3.52 97.057 59.621
3.53 103.147 60.988
3.54 103.041 62.519
3.55 108.873 63.018
3.56 --undefined-- 61.623
3.57 --undefined-- 58.792
3.58 --undefined-- 57.316
3.59 --undefined-- 57.885
3.60 --undefined-- 59.149
3.61 --undefined-- 61.398
3.62 113.488 64.275
3.63 110.750 66.317
3.64 106.918 66.866
3.65 103.487 66.250
3.66 99.953 65.503
3.67 96.866 64.849
3.68 95.472 63.646
3.69 93.536 61.938
3.70 92.773 60.382
3.71 92.004 59.053
3.72 90.051 57.160
3.73 86.620 54.328
3.74 85.753 51.654
3.75 98.379 51.170
3.76 96.974 51.945
3.77 97.325 52.692
3.78 98.786 53.478
3.79 100.875 54.541
3.80 101.792 55.880
3.81 103.035 58.650
3.82 104.917 62.582
3.83 104.538 65.383
3.84 105.083 66.665
3.85 104.882 67.079
3.86 104.917 67.347
3.87 104.121 67.786
3.88 103.413 68.323
3.89 102.688 68.868
3.90 101.862 69.037
3.91 100.735 68.697
3.92 98.545 68.085
3.93 97.090 66.698
3.94 93.784 64.210
3.95 91.645 61.467
3.96 91.149 59.290
3.97 --undefined-- 57.702
3.98 --undefined-- 56.636
3.99 --undefined-- 54.839
4.00 --undefined-- 50.953
4.01 --undefined-- 45.591
4.02 --undefined-- 41.407
4.03 --undefined-- 38.105
4.04 --undefined-- 36.524
4.05 --undefined-- 36.247
4.06 --undefined-- 36.341
4.07 --undefined-- 37.350
4.08 --undefined-- 39.448
4.09 --undefined-- 41.708
4.10 --undefined-- 42.912
4.11 --undefined-- 43.378
4.12 --undefined-- 44.525
4.13 --undefined-- 46.119
4.14 --undefined-- 47.024
4.15 --undefined-- 47.510
4.16 --undefined-- 47.989
4.17 --undefined-- 48.112
4.18 --undefined-- 48.155
4.19 --undefined-- 48.488
4.20 --undefined-- 49.438
4.21 --undefined-- 50.553
4.22 --undefined-- 51.669
4.23 --undefined-- 52.287
4.24 --undefined-- 52.344
4.25 --undefined-- 53.093
4.26 --undefined-- 53.408
4.27 --undefined-- 52.562
4.28 --undefined-- 51.978
4.29 --undefined-- 51.890
4.30 --undefined-- 51.492
4.31 --undefined-- 51.343
4.32 --undefined-- 51.650
4.33 --undefined-- 51.928
4.34 --undefined-- 51.995
4.35 --undefined-- 51.606
4.36 --undefined-- 50.820
4.37 --undefined-- 50.495
4.38 --undefined-- 49.945
4.39 --undefined-- 47.295
4.40 --undefined-- 43.046
4.41 --undefined-- 39.944
4.42 --undefined-- 38.758
4.43 --undefined-- 39.403
4.44 --undefined-- 40.450
4.45 --undefined-- 40.957
4.46 --undefined-- 41.758
4.47 --undefined-- 42.972
4.48 --undefined-- 47.068
4.49 --undefined-- 54.541
4.50 --undefined-- 62.340
4.51 --undefined-- 67.309
4.52 --undefined-- 68.569
4.53 --undefined-- 66.189
4.54 121.102 61.258
4.55 122.009 58.336
4.56 129.230 57.609
4.57 135.709 56.505
4.58 134.630 55.344
4.59 134.757 53.981
4.60 135.532 51.563
4.61 --undefined-- 48.848
4.62 --undefined-- 49.502
4.63 --undefined-- 51.702
4.64 --undefined-- 54.428
4.65 --undefined-- 62.582
4.66 --undefined-- 68.360
4.67 --undefined-- 71.547
4.68 --undefined-- 73.767
4.69 130.126 74.914
4.70 127.474 74.289
4.71 122.008 71.529
4.72 --undefined-- 66.436
4.73 --undefined-- 58.780
4.74 121.648 51.018
4.75 120.740 49.395
4.76 119.909 49.449
4.77 119.526 49.372
4.78 120.217 49.097
4.79 120.035 49.008
4.80 120.716 49.380
4.81 121.453 50.114
4.82 121.699 51.354
4.83 123.673 53.607
4.84 123.817 55.272
4.85 124.205 55.651
4.86 124.907 56.354
4.87 124.681 60.219
4.88 130.065 66.594
4.89 128.541 71.532
4.90 128.453 74.130
4.91 129.100 74.973
4.92 129.110 74.650
4.93 129.044 73.770
4.94 128.841 73.093
4.95 128.997 72.901
4.96 129.356 72.922
4.97 128.611 72.809
4.98 --undefined-- 72.580
4.99 --undefined-- 72.359
5.00 --undefined-- 72.017
5.01 --undefined-- 71.442
5.02 131.700 70.093
5.03 133.006 66.750
5.04 134.154 60.730
5.05 135.620 54.330
5.06 134.658 52.566
5.07 133.986 52.242
5.08 134.607 51.750
5.09 --undefined-- 50.365
5.10 --undefined-- 47.877
5.11 --undefined-- 44.924
5.12 --undefined-- 41.350
5.13 --undefined-- 38.598
5.14 --undefined-- 37.268
5.15 --undefined-- 35.412
5.16 --undefined-- 35.230
5.17 --undefined-- 36.815
5.18 --undefined-- 36.762
5.19 --undefined-- 34.881
5.20 --undefined-- 34.042
5.21 --undefined-- 35.772
5.22 --undefined-- 37.442
5.23 --undefined-- 38.702
5.24 --undefined-- 39.922
5.25 --undefined-- 41.029
5.26 --undefined-- 42.129
5.27 --undefined-- 43.198
5.28 --undefined-- 44.286
5.29 --undefined-- 44.802
5.30 --undefined-- 44.996
5.31 --undefined-- 46.678
5.32 --undefined-- 49.813
5.33 --undefined-- 51.483
5.34 --undefined-- 50.584
5.35 --undefined-- 48.436
5.36 --undefined-- 46.819
5.37 --undefined-- 45.100
5.38 --undefined-- 44.471
5.39 --undefined-- 44.415
5.40 --undefined-- 43.161
5.41 --undefined-- 40.901
5.42 --undefined-- 40.315
5.43 --undefined-- 41.732
5.44 --undefined-- 41.995
5.45 --undefined-- 41.671
5.46 --undefined-- 41.799
5.47 --undefined-- 42.175
5.48 --undefined-- 42.503
5.49 --undefined-- 45.432
5.50 --undefined-- 51.723
5.51 129.235 56.199
5.52 133.247 58.563
5.53 134.305 59.718
5.54 133.706 61.897
5.55 134.126 66.227
5.56 133.940 69.436
5.57 137.775 70.627
5.58 140.129 70.727
5.59 142.048 70.529
5.60 145.442 70.470
5.61 148.800 70.369
5.62 150.412 69.932
5.63 150.192 69.005
5.64 146.712 67.069
5.65 138.161 63.729
5.66 --undefined-- 58.804
5.67 --undefined-- 53.582
5.68 --undefined-- 55.484
5.69 135.045 62.191
5.70 137.020 67.822
5.71 136.721 --undefined--
5.72 135.366 --undefined--
5.73 --undefined-- --undefined--
5.74 --undefined-- --undefined--
