Time Pitch Intensity
0.01 --undefined-- --undefined--
0.02 --undefined-- --undefined--
0.03 --undefined-- --undefined--
0.04 --undefined-- --undefined--
0.05 --undefined-- 45.322
0.06 --undefined-- 55.733
0.07 --undefined-- 62.758
0.08 118.089 66.526
0.09 113.796 67.932
0.10 111.555 68.060
0.11 107.468 67.514
0.12 100.917 66.669
0.13 96.986 65.664
0.14 90.975 64.744
0.15 92.932 63.919
0.16 93.449 62.064
0.17 --undefined-- 58.486
0.18 --undefined-- 54.177
0.19 --undefined-- 51.115
0.20 --undefined-- 50.348
0.21 97.600 54.731
0.22 120.634 61.088
0.23 116.405 65.372
0.24 105.707 67.574
0.25 106.776 68.647
0.26 110.167 69.466
0.27 116.269 70.341
0.28 125.683 71.453
0.29 134.319 72.506
0.30 140.649 73.102
0.31 144.380 73.157
0.32 143.858 72.355
0.33 140.871 70.111
0.34 139.081 65.965
0.35 139.986 59.575
0.36 --undefined-- 52.101
0.37 --undefined-- 47.158
0.38 --undefined-- 44.293
0.39 --undefined-- 42.642
0.40 --undefined-- 47.810
0.41 --undefined-- 58.312
0.42 --undefined-- 65.172
0.43 126.523 68.824
0.44 127.386 70.337
0.45 123.612 70.766
0.46 120.759 71.004
0.47 119.200 71.323
0.48 118.675 71.668
0.49 118.894 71.917
0.50 118.373 72.038
0.51 118.531 72.068
0.52 119.412 71.980
0.53 120.443 71.809
0.54 120.322 71.532
0.55 120.339 71.040
0.56 121.465 70.114
0.57 116.534 68.716
0.58 --undefined-- 66.794
0.59 --undefined-- 63.718
0.60 --undefined-- 59.755
0.61 --undefined-- 55.808
0.62 --undefined-- 52.986
0.63 --undefined-- 49.918
0.64 --undefined-- 44.907
0.65 --undefined-- 41.002
0.66 --undefined-- 39.862
0.67 --undefined-- 38.916
0.68 --undefined-- 39.392
0.69 --undefined-- 40.163
0.70 --undefined-- 39.282
0.71 --undefined-- 38.716
0.72 --undefined-- 40.468
0.73 --undefined-- 41.240
0.74 --undefined-- 39.736
0.75 --undefined-- 37.452
0.76 --undefined-- 37.348
0.77 --undefined-- 38.679
0.78 --undefined-- 39.454
0.79 --undefined-- 39.102
0.80 --undefined-- 39.031
0.81 --undefined-- 38.894
0.82 --undefined-- 37.861
0.83 --undefined-- 37.888
0.84 --undefined-- 38.101
0.85 --undefined-- 37.979
0.86 --undefined-- 38.833
0.87 --undefined-- 39.844
0.88 --undefined-- 40.378
0.89 --undefined-- 39.983
0.90 --undefined-- 38.585
0.91 --undefined-- 36.422
0.92 --undefined-- 35.701
0.93 --undefined-- 37.121
0.94 --undefined-- 38.614
0.95 --undefined-- 40.298
0.96 --undefined-- 40.938
0.97 --undefined-- 40.430
0.98 --undefined-- 39.673
0.99 --undefined-- 40.548
1.00 --undefined-- 42.163
1.01 --undefined-- 44.478
1.02 --undefined-- 50.499
1.03 --undefined-- 54.335
1.04 --undefined-- 54.903
1.05 --undefined-- 54.340
1.06 --undefined-- 57.812
1.07 --undefined-- 65.691
1.08 171.974 71.503
1.09 164.817 74.608
1.10 164.287 75.592
1.11 167.533 75.149
1.12 177.445 74.731
1.13 181.857 75.385
1.14 184.046 75.940
1.15 186.576 75.237
1.16 188.243 72.586
1.17 165.020 67.668
1.18 161.265 61.229
1.19 --undefined-- 58.844
1.20 --undefined-- 67.083
1.21 --undefined-- 72.786
1.22 171.485 75.671
1.23 164.916 76.893
1.24 158.952 76.828
1.25 156.355 76.341
1.26 154.618 76.273
1.27 152.138 76.277
1.28 150.110 76.420
1.29 147.260 76.671
1.30 144.861 76.702
1.31 139.196 76.414
1.32 145.859 75.748
1.33 144.433 74.991
1.34 143.697 74.706
1.35 143.781 74.845
1.36 144.252 75.083
1.37 145.017 75.243
1.38 145.703 75.225
1.39 146.571 75.006
1.40 147.428 74.606
1.41 146.964 73.976
1.42 147.932 72.997
1.43 148.220 71.461
1.44 150.988 69.065
1.45 156.460 65.736
1.46 --undefined-- 61.422
1.47 --undefined-- 55.997
1.48 --undefined-- 49.806
1.49 --undefined-- 43.584
1.50 --undefined-- 40.230
1.51 --undefined-- 39.251
1.52 --undefined-- 38.425
1.53 --undefined-- 37.181
1.54 --undefined-- 36.776
1.55 --undefined-- 38.359
1.56 --undefined-- 44.007
1.57 --undefined-- 54.212
1.58 --undefined-- 61.110
1.59 --undefined-- 65.291
1.60 121.905 67.709
1.61 124.907 69.128
1.62 125.768 70.027
1.63 126.354 70.746
1.64 126.936 71.479
1.65 128.033 72.074
1.66 129.135 72.191
1.67 129.378 71.439
1.68 128.337 69.271
1.69 114.490 65.240
1.70 110.477 59.927
1.71 --undefined-- 59.349
1.72 168.185 65.788
1.73 163.732 71.209
1.74 168.999 74.956
1.75 173.919 77.556
1.76 176.536 78.919
1.77 180.104 78.948
1.78 186.057 78.072
1.79 194.497 76.501
1.80 199.361 73.841
1.81 196.949 71.640
1.82 193.335 72.096
1.83 190.261 73.333
1.84 183.059 74.620
1.85 174.809 75.930
1.86 167.296 76.303
1.87 147.537 75.384
1.88 139.603 74.149
1.89 131.944 73.309
1.90 123.290 72.989
1.91 120.908 73.198
1.92 119.492 73.238
1.93 117.336 72.915
1.94 114.612 72.324
1.95 111.529 71.032
1.96 107.504 68.452
1.97 103.903 64.437
1.98 113.421 62.399
1.99 121.634 66.087
2.00 125.652 69.591
2.01 127.514 71.538
2.02 126.795 72.484
2.03 126.046 73.126
2.04 124.891 73.610
2.05 124.553 73.799
2.06 124.719 73.643
2.07 123.773 72.853
2.08 122.841 71.071
2.09 122.641 68.820
2.10 118.546 67.524
2.11 116.224 68.248
2.12 116.187 70.439
2.13 117.579 72.291
2.14 115.919 72.882
2.15 115.235 72.411
2.16 112.604 71.314
2.17 109.052 70.199
2.18 108.867 69.589
2.19 109.563 69.365
2.20 109.966 69.734
2.21 115.502 71.011
2.22 120.234 72.231
2.23 122.993 72.908
2.24 125.350 73.184
2.25 127.688 72.943
2.26 131.388 71.757
2.27 132.998 69.172
2.28 132.512 64.804
2.29 --undefined-- 59.036
2.30 --undefined-- 56.250
2.31 --undefined-- 56.478
2.32 --undefined-- 56.550
2.33 --undefined-- 56.981
2.34 --undefined-- 56.699
2.35 --undefined-- 59.475
2.36 173.816 66.277
2.37 161.278 71.057
2.38 152.279 73.883
2.39 147.516 75.700
2.40 145.466 76.878
2.41 144.655 77.456
2.42 144.631 77.459
2.43 144.699 76.815
2.44 144.445 75.380
2.45 143.646 73.236
2.46 143.378 70.661
2.47 139.428 67.967
2.48 147.976 66.151
2.49 143.632 65.298
2.50 136.185 63.470
2.51 --undefined-- 59.732
2.52 --undefined-- 53.572
2.53 --undefined-- 44.978
2.54 --undefined-- 39.119
2.55 --undefined-- 38.518
2.56 --undefined-- 38.271
2.57 --undefined-- 38.519
2.58 --undefined-- 38.693
2.59 --undefined-- 37.918
2.60 --undefined-- 37.942
2.61 --undefined-- 39.835
2.62 --undefined-- 41.731
2.63 --undefined-- 42.570
2.64 --undefined-- 41.819
2.65 --undefined-- 41.287
2.66 --undefined-- 42.212
2.67 --undefined-- 42.846
2.68 --undefined-- 50.905
2.69 --undefined-- 59.530
2.70 --undefined-- 64.728
2.71 147.337 67.816
2.72 151.282 70.414
2.73 153.827 72.552
2.74 154.823 73.702
2.75 156.140 74.140
2.76 156.376 74.261
2.77 156.301 74.182
2.78 156.032 73.912
2.79 155.482 73.435
2.80 154.510 72.405
2.81 152.861 69.919
2.82 140.029 65.109
2.83 148.150 58.627
2.84 157.740 53.872
2.85 --undefined-- 56.452
2.86 --undefined-- 64.433
2.87 174.034 69.488
2.88 162.230 71.830
2.89 152.815 72.387
2.90 148.345 72.193
2.91 146.369 72.227
2.92 145.077 72.825
2.93 145.286 73.201
2.94 145.310 72.048
2.95 145.103 68.452
2.96 133.400 63.573
2.97 134.383 64.065
2.98 138.422 67.001
2.99 136.895 69.285
3.00 131.881 71.079
3.01 123.170 72.020
3.02 117.911 71.965
3.03 112.440 71.176
3.04 107.690 70.065
3.05 105.349 69.075
3.06 105.386 68.260
3.07 106.881 67.503
3.08 108.130 66.454
3.09 106.757 64.287
3.10 102.489 60.084
3.11 --undefined-- 54.000
3.12 --undefined-- 50.305
3.13 --undefined-- 50.926
3.14 --undefined-- 52.060
3.15 --undefined-- 51.791
3.16 --undefined-- 49.708
3.17 --undefined-- 47.633
3.18 --undefined-- 46.729
3.19 --undefined-- 45.738
3.20 --undefined-- 45.305
3.21 --undefined-- 47.502
3.22 --undefined-- 56.783
3.23 --undefined-- 64.502
3.24 145.955 68.655
3.25 128.287 70.260
3.26 122.382 70.733
3.27 119.927 71.036
3.28 119.249 71.284
3.29 119.592 71.130
3.30 119.036 69.434
3.31 118.279 65.033
3.32 --undefined-- 57.369
3.33 --undefined-- 48.663
3.34 --undefined-- 45.528
3.35 --undefined-- 43.910
3.36 --undefined-- 43.281
3.37 --undefined-- 44.962
3.38 --undefined-- 49.740
3.39 --undefined-- 57.054
3.40 --undefined-- 64.510
3.41 --undefined-- 69.009
3.42 124.036 71.019
3.43 119.978 71.755
3.44 117.684 71.901
3.45 115.072 71.269
3.46 114.594 69.503
3.47 116.518 66.570
3.48 112.356 63.098
3.49 103.101 60.125
3.50 97.263 58.092
3.51 91.899 56.393
3.52 87.185 54.704
3.53 91.045 55.012
3.54 87.136 58.221
3.55 99.285 62.026
3.56 101.174 64.615
3.57 102.406 65.809
3.58 100.133 66.185
3.59 97.761 66.340
3.60 96.459 66.365
3.61 95.257 66.201
3.62 94.915 65.843
3.63 91.564 65.145
3.64 91.693 65.073
3.65 96.819 66.184
3.66 100.390 67.274
3.67 103.042 67.866
3.68 103.519 67.896
3.69 103.326 67.496
3.70 102.651 66.564
3.71 100.875 64.573
3.72 103.159 61.107
3.73 --undefined-- 57.378
3.74 --undefined-- 58.871
3.75 --undefined-- 60.553
3.76 --undefined-- 60.115
3.77 --undefined-- 58.679
3.78 --undefined-- 56.441
3.79 --undefined-- 54.751
3.80 --undefined-- 55.568
3.81 --undefined-- 59.391
3.82 118.756 62.801
3.83 114.411 64.568
3.84 108.167 65.371
3.85 105.578 65.633
3.86 101.149 65.605
3.87 99.427 65.447
3.88 96.066 65.183
3.89 96.143 65.378
3.90 98.123 65.853
3.91 100.512 66.428
3.92 101.850 67.069
3.93 101.792 67.397
3.94 102.247 67.390
3.95 103.317 67.358
3.96 103.309 67.525
3.97 102.348 67.677
3.98 101.129 67.549
3.99 100.592 67.099
4.00 100.082 66.303
4.01 98.339 64.987
4.02 99.134 63.313
4.03 110.626 61.734
4.04 --undefined-- 60.143
4.05 --undefined-- 58.289
4.06 --undefined-- 54.432
4.07 --undefined-- 47.651
4.08 --undefined-- 41.706
4.09 --undefined-- 40.280
4.10 --undefined-- 38.815
4.11 --undefined-- 36.401
4.12 --undefined-- 35.099
4.13 --undefined-- 34.544
4.14 --undefined-- 35.118
4.15 --undefined-- 36.245
4.16 --undefined-- 35.776
4.17 --undefined-- 34.336
4.18 --undefined-- 34.552
4.19 --undefined-- 35.588
4.20 --undefined-- 36.775
4.21 --undefined-- 37.802
4.22 --undefined-- 38.207
4.23 --undefined-- 37.837
4.24 --undefined-- 36.777
4.25 --undefined-- 39.441
4.26 --undefined-- 48.114
4.27 --undefined-- 54.171
4.28 --undefined-- 56.259
4.29 --undefined-- 55.490
4.30 --undefined-- 57.314
4.31 125.549 63.029
4.32 124.505 66.900
4.33 120.894 68.823
4.34 123.891 69.843
4.35 122.897 70.430
4.36 119.983 70.697
4.37 118.636 70.920
4.38 117.610 71.068
4.39 119.205 70.980
4.40 117.220 70.613
4.41 115.301 70.028
4.42 113.907 69.253
4.43 113.488 68.624
4.44 112.658 68.461
4.45 112.601 68.335
4.46 113.283 68.011
4.47 113.433 66.979
4.48 --undefined-- 64.038
4.49 --undefined-- 58.645
4.50 --undefined-- 51.845
4.51 --undefined-- 45.364
4.52 --undefined-- 40.744
4.53 --undefined-- 38.735
4.54 --undefined-- 36.634
4.55 --undefined-- 35.790
4.56 --undefined-- 41.861
4.57 --undefined-- 52.692
4.58 196.402 61.098
4.59 178.967 66.589
4.60 168.373 70.406
4.61 166.288 73.082
4.62 166.143 74.751
4.63 168.183 75.699
4.64 168.247 76.430
4.65 168.603 77.120
4.66 168.702 77.660
4.67 169.383 77.877
4.68 169.692 77.690
4.69 169.416 77.114
4.70 169.494 76.314
4.71 169.180 75.438
4.72 169.318 74.457
4.73 169.431 72.743
4.74 169.936 69.051
4.75 --undefined-- 62.231
4.76 --undefined-- 51.869
4.77 --undefined-- 43.051
4.78 --undefined-- 40.633
4.79 --undefined-- 38.600
4.80 --undefined-- 38.146
4.81 --undefined-- 38.396
4.82 --undefined-- 38.998
4.83 --undefined-- 49.701
4.84 --undefined-- 60.219
4.85 --undefined-- 66.793
4.86 --undefined-- 70.044
4.87 116.361 71.239
4.88 113.624 71.478
4.89 111.907 71.241
4.90 110.690 70.830
4.91 110.931 70.681
4.92 110.118 70.835
4.93 109.045 71.019
4.94 106.636 70.782
4.95 104.282 70.131
4.96 104.235 69.674
4.97 105.549 69.404
4.98 105.555 68.635
4.99 104.128 67.106
5.00 103.951 65.155
5.01 101.211 63.401
5.02 93.646 62.030
5.03 --undefined-- 60.518
5.04 --undefined-- 58.331
5.05 --undefined-- 56.503
5.06 --undefined-- 58.976
5.07 --undefined-- 62.952
5.08 116.600 65.419
5.09 113.827 66.127
5.10 104.562 65.926
5.11 102.886 65.827
5.12 105.115 66.156
5.13 104.271 66.711
5.14 103.853 66.881
5.15 104.906 66.120
5.16 105.875 64.607
5.17 107.720 63.526
5.18 117.667 65.333
5.19 129.946 69.293
5.20 135.264 72.547
5.21 136.408 74.217
5.22 135.998 74.564
5.23 136.103 74.062
5.24 136.024 73.081
5.25 136.021 72.204
5.26 137.195 72.644
5.27 139.664 73.912
5.28 140.000 74.739
5.29 139.681 75.096
5.30 139.461 75.176
5.31 139.575 74.967
5.32 138.640 74.176
5.33 136.629 72.253
5.34 137.501 68.634
5.35 --undefined-- 62.553
5.36 --undefined-- 55.643
5.37 --undefined-- 54.952
5.38 --undefined-- 55.959
5.39 --undefined-- 56.239
5.40 --undefined-- 55.784
5.41 --undefined-- 54.280
5.42 --undefined-- 53.352
5.43 --undefined-- 54.695
5.44 --undefined-- 56.676
5.45 --undefined-- 60.092
5.46 107.885 62.735
5.47 106.071 64.082
5.48 87.355 64.463
5.49 86.616 64.055
5.50 87.081 63.640
5.51 89.147 63.292
5.52 94.206 63.169
5.53 96.142 63.180
5.54 95.603 62.519
5.55 92.749 60.752
5.56 91.474 58.758
5.57 98.640 58.428
5.58 --undefined-- 60.038
5.59 102.692 62.923
5.60 106.774 65.444
5.61 107.664 67.104
5.62 108.269 68.266
5.63 109.375 69.198
5.64 108.678 69.996
5.65 109.504 70.238
5.66 109.615 69.252
5.67 110.500 67.354
5.68 109.997 66.110
5.69 108.269 66.755
5.70 109.127 68.739
5.71 108.011 70.236
5.72 104.863 70.287
5.73 99.984 69.292
5.74 96.544 68.114
5.75 97.212 67.371
5.76 97.777 67.416
5.77 100.019 68.142
5.78 104.794 68.911
5.79 108.201 69.888
5.80 115.609 71.437
5.81 123.007 72.866
5.82 127.916 73.891
5.83 133.535 74.839
5.84 138.287 75.580
5.85 145.584 76.086
5.86 150.863 76.420
5.87 155.605 76.403
5.88 158.793 75.808
5.89 160.714 74.421
5.90 159.901 72.000
5.91 156.788 68.308
5.92 --undefined-- 64.110
5.93 --undefined-- 60.017
5.94 --undefined-- 53.975
5.95 --undefined-- 45.136
5.96 --undefined-- 40.018
5.97 --undefined-- 38.578
5.98 --undefined-- 38.777
5.99 --undefined-- 39.586
6.00 --undefined-- 38.385
6.01 --undefined-- 36.305
6.02 --undefined-- 35.777
6.03 --undefined-- 35.534
6.04 --undefined-- 35.804
6.05 --undefined-- 36.308
6.06 --undefined-- 36.808
6.07 --undefined-- 37.882
6.08 --undefined-- 39.368
6.09 --undefined-- 40.194
6.10 --undefined-- 40.110
6.11 --undefined-- 39.431
6.12 --undefined-- 39.718
6.13 --undefined-- 41.369
6.14 --undefined-- 42.436
6.15 --undefined-- 41.810
6.16 --undefined-- 40.429
6.17 --undefined-- 39.643
6.18 --undefined-- 39.996
6.19 --undefined-- 41.277
6.20 --undefined-- 42.027
6.21 --undefined-- 41.470
6.22 --undefined-- 41.078
6.23 --undefined-- 41.786
6.24 --undefined-- 41.261
6.25 --undefined-- 39.203
6.26 --undefined-- 37.614
6.27 --undefined-- 37.832
6.28 --undefined-- 38.137
6.29 --undefined-- 37.491
6.30 --undefined-- 36.114
6.31 --undefined-- 35.570
6.32 --undefined-- 37.178
6.33 --undefined-- 37.447
6.34 --undefined-- 40.493
6.35 --undefined-- 49.908
6.36 --undefined-- 56.636
6.37 --undefined-- 62.371
6.38 144.130 --undefined--
6.39 129.910 --undefined--
6.40 --undefined-- --undefined--
6.41 --undefined-- --undefined--
