Time Pitch Intensity
0.01 --undefined-- --undefined--
0.02 166.511 --undefined--
0.03 168.953 --undefined--
0.04 173.718 --undefined--
0.05 175.125 73.618
0.06 176.179 74.133
0.07 176.472 74.885
0.08 176.239 75.496
0.09 176.216 75.631
0.10 177.005 75.067
0.11 178.788 73.830
0.12 179.059 72.324
0.13 178.004 71.013
0.14 177.325 70.012
0.15 176.145 69.061
0.16 175.356 67.852
0.17 174.479 65.918
0.18 165.618 62.620
0.19 157.277 57.878
0.20 --undefined-- 52.490
0.21 --undefined-- 46.840
0.22 --undefined-- 40.223
0.23 --undefined-- 42.142
0.24 --undefined-- 50.600
0.25 --undefined-- 56.913
0.26 --undefined-- 60.154
0.27 --undefined-- 60.554
0.28 --undefined-- 59.067
0.29 --undefined-- 57.739
0.30 --undefined-- 57.634
0.31 --undefined-- 57.003
0.32 --undefined-- 56.109
0.33 --undefined-- 61.301
0.34 215.712 68.593
0.35 198.313 72.900
0.36 184.933 74.216
0.37 178.156 72.916
0.38 164.718 69.076
0.39 143.135 63.084
0.40 --undefined-- 56.541
0.41 --undefined-- 51.342
0.42 --undefined-- 53.852
0.43 --undefined-- 59.407
0.44 --undefined-- 65.267
0.45 198.975 70.398
0.46 180.864 73.030
0.47 175.879 73.691
0.48 174.559 73.720
0.49 171.881 73.673
0.50 168.173 73.241
0.51 161.504 72.110
0.52 149.043 70.016
0.53 141.372 66.448
0.54 136.258 60.852
0.55 --undefined-- 53.416
0.56 --undefined-- 47.967
0.57 --undefined-- 46.926
0.58 --undefined-- 46.553
0.59 --undefined-- 46.597
0.60 --undefined-- 47.545
0.61 --undefined-- 51.831
0.62 --undefined-- 60.454
0.63 197.592 67.104
0.64 172.112 70.750
0.65 168.842 72.392
0.66 166.626 72.972
0.67 164.808 73.074
0.68 163.478 73.047
0.69 163.398 73.037
0.70 163.122 73.002
0.71 163.893 72.815
0.72 165.508 72.408
0.73 166.062 71.786
0.74 165.572 71.004
0.75 163.986 70.103
0.76 162.260 68.863
0.77 160.276 66.711
0.78 151.497 63.217
0.79 152.590 58.773
0.80 --undefined-- 54.033
0.81 --undefined-- 48.486
0.82 --undefined-- 42.525
0.83 --undefined-- 38.771
0.84 --undefined-- 38.811
0.85 --undefined-- 40.128
0.86 --undefined-- 42.461
0.87 --undefined-- 46.068
0.88 --undefined-- 49.224
0.89 --undefined-- 50.816
0.90 --undefined-- 51.797
0.91 --undefined-- 57.462
0.92 208.347 64.117
0.93 192.156 67.871
0.94 180.981 69.456
0.95 179.689 70.185
0.96 177.207 71.295
0.97 173.620 72.841
0.98 172.991 73.827
0.99 170.977 73.924
1.00 167.950 73.429
1.01 166.226 72.911
1.02 167.190 72.626
1.03 166.804 72.418
1.04 164.429 72.196
1.05 159.780 72.051
1.06 154.254 72.113
1.07 150.352 72.370
1.08 147.645 72.818
1.09 142.481 73.231
1.10 136.211 73.372
1.11 130.757 73.312
1.12 126.034 73.023
1.13 122.884 72.409
1.14 120.556 71.623
1.15 119.731 71.177
1.16 119.956 71.283
1.17 123.436 71.712
1.18 126.823 72.355
1.19 126.898 72.829
1.20 125.444 72.681
1.21 124.178 72.215
1.22 123.627 71.856
1.23 124.072 71.373
1.24 124.704 70.655
1.25 121.413 69.748
1.26 121.376 68.432
1.27 121.618 66.912
1.28 122.617 65.626
1.29 102.940 64.386
1.30 155.478 62.439
1.31 --undefined-- 59.210
1.32 --undefined-- 55.852
1.33 --undefined-- 53.225
1.34 --undefined-- 49.709
1.35 --undefined-- 44.994
1.36 --undefined-- 41.298
1.37 --undefined-- 39.104
1.38 --undefined-- 36.849
1.39 --undefined-- 36.449
1.40 --undefined-- 37.655
1.41 --undefined-- 37.609
1.42 --undefined-- 37.021
1.43 --undefined-- 36.208
1.44 --undefined-- 35.891
1.45 --undefined-- 37.648
1.46 --undefined-- 39.185
1.47 --undefined-- 39.523
1.48 --undefined-- 39.379
1.49 --undefined-- 39.142
1.50 --undefined-- 38.865
1.51 --undefined-- 38.319
1.52 --undefined-- 38.392
1.53 --undefined-- 39.105
1.54 --undefined-- 39.197
1.55 --undefined-- 39.048
1.56 --undefined-- 39.178
1.57 --undefined-- 38.847
1.58 --undefined-- 37.511
1.59 --undefined-- 36.806
1.60 --undefined-- 37.149
1.61 --undefined-- 36.753
1.62 --undefined-- 35.874
1.63 --undefined-- 35.919
1.64 --undefined-- 35.821
1.65 --undefined-- 35.244
1.66 --undefined-- 35.482
1.67 --undefined-- 41.537
1.68 --undefined-- 53.739
1.69 --undefined-- 61.567
1.70 80.889 66.188
1.71 82.031 69.311
1.72 82.126 72.060
1.73 158.654 74.459
1.74 159.240 76.163
1.75 159.379 77.243
1.76 159.137 77.803
1.77 160.545 77.704
1.78 160.822 76.720
1.79 163.054 75.273
1.80 167.972 74.465
1.81 168.466 74.344
1.82 168.416 74.333
1.83 168.522 74.163
1.84 168.467 73.859
1.85 168.234 73.561
1.86 167.072 73.261
1.87 164.273 72.888
1.88 160.479 72.642
1.89 159.151 73.196
1.90 160.879 74.715
1.91 158.865 76.175
1.92 157.574 77.119
1.93 157.353 77.710
1.94 157.160 78.113
1.95 157.013 78.422
1.96 157.529 78.598
1.97 157.532 78.469
1.98 156.407 78.106
1.99 155.581 77.788
2.00 154.149 77.447
2.01 152.954 76.733
2.02 152.426 75.672
2.03 152.334 74.812
2.04 154.528 74.099
2.05 157.519 72.987
2.06 152.626 70.806
2.07 146.871 66.788
2.08 140.604 61.122
2.09 --undefined-- 54.515
2.10 --undefined-- 47.117
2.11 --undefined-- 43.337
2.12 --undefined-- 44.170
2.13 --undefined-- 47.359
2.14 --undefined-- 51.807
2.15 --undefined-- 56.546
2.16 --undefined-- 59.844
2.17 --undefined-- 60.828
2.18 --undefined-- 59.945
2.19 --undefined-- 59.473
2.20 --undefined-- 59.739
2.21 228.059 59.266
2.22 228.244 61.525
2.23 206.757 67.677
2.24 190.681 71.846
2.25 186.523 73.367
2.26 177.163 72.573
2.27 167.158 70.214
2.28 163.604 67.372
2.29 76.418 65.549
2.30 79.696 66.427
2.31 79.568 68.918
2.32 156.069 71.961
2.33 152.352 74.152
2.34 149.525 75.095
2.35 146.762 75.433
2.36 145.011 75.695
2.37 144.521 75.483
2.38 143.575 73.805
2.39 137.823 70.371
2.40 --undefined-- 66.257
2.41 --undefined-- 61.335
2.42 --undefined-- 54.184
2.43 --undefined-- 48.881
2.44 --undefined-- 51.133
2.45 --undefined-- 56.693
2.46 194.665 64.757
2.47 204.739 70.751
2.48 206.467 73.605
2.49 203.058 74.266
2.50 202.524 74.072
2.51 200.878 72.868
2.52 198.353 69.577
2.53 148.766 63.625
2.54 --undefined-- 55.557
2.55 --undefined-- 48.293
2.56 --undefined-- 44.686
2.57 --undefined-- 45.286
2.58 --undefined-- 53.334
2.59 --undefined-- 60.264
2.60 --undefined-- 65.857
2.61 --undefined-- 70.613
2.62 153.891 74.100
2.63 150.792 76.564
2.64 148.221 78.233
2.65 146.997 79.105
2.66 145.936 79.244
2.67 144.957 78.843
2.68 143.734 78.237
2.69 143.631 77.823
2.70 144.525 77.805
2.71 145.262 77.885
2.72 145.414 77.643
2.73 144.546 76.883
2.74 144.491 75.917
2.75 145.256 75.261
2.76 145.942 74.690
2.77 145.504 73.832
2.78 --undefined-- 72.637
2.79 --undefined-- 71.168
2.80 74.813 69.434
2.81 --undefined-- 67.335
2.82 --undefined-- 64.662
2.83 --undefined-- 60.736
2.84 --undefined-- 54.860
2.85 --undefined-- 48.206
2.86 --undefined-- 42.989
2.87 --undefined-- 39.249
2.88 --undefined-- 37.612
2.89 --undefined-- 36.909
2.90 --undefined-- 36.382
2.91 --undefined-- 35.634
2.92 --undefined-- 34.544
2.93 --undefined-- 34.990
2.94 --undefined-- 36.593
2.95 --undefined-- 38.199
2.96 --undefined-- 41.342
2.97 --undefined-- 47.883
2.98 --undefined-- 56.069
2.99 172.539 63.365
3.00 162.097 68.237
3.01 157.528 71.013
3.02 156.332 72.547
3.03 155.418 73.514
3.04 154.860 74.076
3.05 154.054 74.067
3.06 152.913 73.299
3.07 150.510 71.469
3.08 143.077 67.873
3.09 134.737 61.792
3.10 --undefined-- 54.259
3.11 --undefined-- 52.484
3.12 --undefined-- 55.936
3.13 --undefined-- 62.365
3.14 178.679 68.246
3.15 156.242 71.829
3.16 150.176 73.627
3.17 142.453 74.279
3.18 136.520 74.469
3.19 133.466 74.463
3.20 131.456 74.213
3.21 129.315 73.671
3.22 126.050 72.199
3.23 121.863 69.407
3.24 111.331 65.975
3.25 115.974 62.366
3.26 --undefined-- 57.695
3.27 --undefined-- 51.313
3.28 --undefined-- 44.278
3.29 --undefined-- 39.982
3.30 --undefined-- 38.265
3.31 --undefined-- 37.621
3.32 --undefined-- 38.379
3.33 --undefined-- 38.025
3.34 --undefined-- 36.967
3.35 --undefined-- 36.934
3.36 --undefined-- 38.667
3.37 --undefined-- 53.368
3.38 --undefined-- 65.050
3.39 --undefined-- 72.120
3.40 168.747 75.659
3.41 174.827 76.715
3.42 175.928 76.725
3.43 174.216 76.788
3.44 173.053 76.969
3.45 172.638 77.118
3.46 173.245 77.213
3.47 175.492 77.319
3.48 178.970 77.328
3.49 182.673 76.980
3.50 186.097 76.271
3.51 188.348 75.686
3.52 187.747 75.368
3.53 187.399 74.359
3.54 185.421 71.455
3.55 162.767 66.184
3.56 162.405 59.816
3.57 --undefined-- 54.426
3.58 --undefined-- 51.464
3.59 --undefined-- 55.635
3.60 --undefined-- 64.719
3.61 235.351 72.028
3.62 227.172 76.179
3.63 214.900 78.012
3.64 211.065 79.073
3.65 209.272 79.892
3.66 208.331 80.005
3.67 209.957 79.324
3.68 212.065 78.223
3.69 209.276 77.635
3.70 206.518 77.565
3.71 205.444 77.165
3.72 205.745 75.566
3.73 205.066 71.950
3.74 191.829 66.415
3.75 193.003 61.928
3.76 203.052 59.236
3.77 206.272 55.450
3.78 --undefined-- 50.054
3.79 --undefined-- 44.976
3.80 --undefined-- 50.540
3.81 --undefined-- 58.492
3.82 --undefined-- 64.353
3.83 205.394 68.977
3.84 189.058 71.617
3.85 169.392 72.247
3.86 157.760 72.273
3.87 153.604 72.738
3.88 147.514 73.313
3.89 141.686 73.980
3.90 144.350 74.768
3.91 148.113 75.267
3.92 149.651 75.317
3.93 150.875 75.065
3.94 152.455 74.665
3.95 153.810 74.169
3.96 154.578 73.511
3.97 154.508 72.380
3.98 151.555 70.064
3.99 145.462 65.832
4.00 144.564 59.542
4.01 --undefined-- 57.959
4.02 --undefined-- 66.059
4.03 207.011 71.994
4.04 194.107 75.075
4.05 183.954 76.205
4.06 180.585 76.076
4.07 179.348 75.411
4.08 178.439 74.389
4.09 177.705 73.260
4.10 179.991 72.940
4.11 181.418 73.212
4.12 182.185 73.476
4.13 183.402 73.646
4.14 183.948 73.703
4.15 182.929 73.529
4.16 180.599 72.999
4.17 176.875 71.981
4.18 171.638 70.086
4.19 163.304 66.759
4.20 152.334 61.387
4.21 --undefined-- 54.047
4.22 --undefined-- 47.560
4.23 --undefined-- 48.853
4.24 --undefined-- 59.168
4.25 198.841 66.466
4.26 180.420 70.195
4.27 159.137 71.796
4.28 151.034 72.644
4.29 144.077 72.955
4.30 137.876 72.995
4.31 136.826 73.320
4.32 137.253 73.925
4.33 138.100 74.495
4.34 138.949 74.790
4.35 139.389 74.820
4.36 138.006 74.507
4.37 136.522 73.566
4.38 133.794 71.488
4.39 126.205 67.500
4.40 --undefined-- 61.230
4.41 --undefined-- 54.519
4.42 --undefined-- 55.487
4.43 --undefined-- 58.485
4.44 --undefined-- 59.935
4.45 --undefined-- 62.234
4.46 152.314 67.310
4.47 151.882 70.912
4.48 146.623 72.297
4.49 147.508 72.507
4.50 146.061 72.658
4.51 142.624 72.982
4.52 139.607 73.285
4.53 137.400 73.445
4.54 136.176 73.334
4.55 136.066 72.974
4.56 135.976 72.169
4.57 134.766 70.608
4.58 135.348 68.413
4.59 --undefined-- 65.999
4.60 --undefined-- 62.908
4.61 --undefined-- 58.235
4.62 --undefined-- 51.484
4.63 --undefined-- 47.512
4.64 --undefined-- 44.683
4.65 --undefined-- 39.326
4.66 --undefined-- 35.114
4.67 --undefined-- 35.766
4.68 --undefined-- 43.422
4.69 --undefined-- 51.252
4.70 131.192 56.116
4.71 135.518 59.081
4.72 125.478 61.205
4.73 121.427 62.750
4.74 121.533 63.689
4.75 121.285 64.335
4.76 120.894 65.109
4.77 120.874 66.089
4.78 121.277 67.233
4.79 122.296 68.422
4.80 125.001 69.555
4.81 128.095 70.624
4.82 132.810 71.452
4.83 135.357 71.986
4.84 134.693 72.053
4.85 131.992 71.357
4.86 129.137 70.116
4.87 128.291 69.299
4.88 128.510 69.538
4.89 130.764 70.588
4.90 133.630 71.927
4.91 135.686 73.362
4.92 138.598 74.766
4.93 140.636 75.756
4.94 142.266 75.847
4.95 147.027 75.090
4.96 152.669 74.201
4.97 154.189 73.220
4.98 155.026 70.970
4.99 152.678 66.733
5.00 144.516 61.302
5.01 181.404 60.456
5.02 174.934 65.133
5.03 162.558 69.253
5.04 154.437 72.048
5.05 146.871 73.469
5.06 140.741 73.707
5.07 137.107 72.902
5.08 132.317 70.880
5.09 131.827 67.282
5.10 104.273 61.556
5.11 --undefined-- 54.239
5.12 --undefined-- 46.729
5.13 --undefined-- 41.987
5.14 --undefined-- 46.175
5.15 --undefined-- 54.666
5.16 191.474 62.373
5.17 181.971 67.351
5.18 169.348 69.710
5.19 161.295 70.399
5.20 160.655 70.698
5.21 160.391 71.098
5.22 159.788 71.652
5.23 159.119 72.242
5.24 158.604 72.639
5.25 159.335 72.583
5.26 160.974 71.915
5.27 162.589 70.452
5.28 160.164 67.792
5.29 143.633 63.437
5.30 --undefined-- 57.418
5.31 --undefined-- 51.772
5.32 --undefined-- 56.058
5.33 --undefined-- 60.539
5.34 --undefined-- 64.129
5.35 --undefined-- 70.262
5.36 179.138 74.816
5.37 171.254 77.039
5.38 167.188 77.823
5.39 164.118 78.258
5.40 162.828 78.612
5.41 161.823 78.569
5.42 161.296 78.216
5.43 161.909 77.901
5.44 162.494 77.680
5.45 163.359 77.364
5.46 164.700 76.879
5.47 167.170 76.256
5.48 170.087 75.407
5.49 173.042 74.307
5.50 173.975 72.976
5.51 170.681 71.163
5.52 165.551 69.367
5.53 169.922 68.501
5.54 169.446 67.935
5.55 166.392 66.989
5.56 162.369 65.642
5.57 --undefined-- 64.622
5.58 --undefined-- 63.281
5.59 --undefined-- 59.854
5.60 --undefined-- 54.211
5.61 --undefined-- 48.119
5.62 --undefined-- 41.491
5.63 --undefined-- 37.838
5.64 --undefined-- 36.919
5.65 --undefined-- 36.186
5.66 --undefined-- 35.825
5.67 --undefined-- 37.296
5.68 --undefined-- 38.679
5.69 --undefined-- 38.918
5.70 --undefined-- 38.475
5.71 --undefined-- --undefined--
5.72 --undefined-- --undefined--
5.73 --undefined-- --undefined--
5.74 --undefined-- --undefined--
