Time Pitch Intensity
0.01 --undefined-- --undefined--
0.02 202.543 --undefined--
0.03 195.779 --undefined--
0.04 190.830 --undefined--
0.05 187.990 70.341
0.06 187.468 70.148
0.07 188.907 69.827
0.08 188.527 70.182
0.09 187.394 70.628
0.10 186.428 70.855
0.11 184.831 71.073
0.12 183.826 71.258
0.13 183.905 71.301
0.14 184.663 71.350
0.15 184.367 71.337
0.16 183.842 71.272
0.17 181.812 71.159
0.18 178.067 70.976
0.19 175.739 70.679
0.20 175.466 69.924
0.21 174.850 68.484
0.22 174.724 66.466
0.23 174.679 64.179
0.24 175.674 62.055
0.25 176.525 60.317
0.26 174.108 59.284
0.27 172.249 58.587
0.28 177.146 57.529
0.29 172.068 56.914
0.30 198.580 57.125
0.31 194.440 58.009
0.32 208.929 59.546
0.33 208.613 61.222
0.34 200.139 63.204
0.35 197.311 64.922
0.36 197.601 65.830
0.37 198.936 66.265
0.38 204.515 66.457
0.39 206.386 66.427
0.40 206.516 65.504
0.41 204.977 62.514
0.42 202.328 57.054
0.43 198.295 51.339
0.44 206.082 49.333
0.45 --undefined-- 49.087
0.46 --undefined-- 48.747
0.47 --undefined-- 51.776
0.48 --undefined-- 55.833
0.49 --undefined-- 59.603
0.50 149.556 64.419
0.51 152.002 67.811
0.52 154.879 69.035
0.53 157.635 69.035
0.54 160.479 68.899
0.55 162.605 69.076
0.56 163.516 69.555
0.57 162.527 70.081
0.58 160.574 70.223
0.59 158.098 69.789
0.60 154.836 69.118
0.61 152.722 68.819
0.62 151.962 69.015
0.63 153.174 69.432
0.64 156.851 69.842
0.65 159.899 69.975
0.66 161.153 69.706
0.67 161.453 69.122
0.68 161.564 68.481
0.69 161.850 67.927
0.70 162.077 67.407
0.71 162.060 67.043
0.72 161.899 66.979
0.73 161.650 67.066
0.74 161.042 67.081
0.75 160.400 67.078
0.76 159.430 67.121
0.77 157.422 66.944
0.78 152.576 66.744
0.79 155.186 67.756
0.80 158.881 69.093
0.81 158.923 69.644
0.82 158.105 69.594
0.83 157.067 69.268
0.84 155.806 68.866
0.85 153.792 68.358
0.86 150.791 67.642
0.87 149.012 67.213
0.88 150.515 67.504
0.89 151.005 67.934
0.90 150.843 68.266
0.91 150.445 68.619
0.92 150.795 68.892
0.93 151.773 69.036
0.94 153.035 69.214
0.95 153.943 69.476
0.96 154.431 69.648
0.97 155.154 69.546
0.98 155.533 69.178
0.99 156.517 68.856
1.00 157.667 68.685
1.01 157.426 68.620
1.02 155.908 68.976
1.03 153.462 69.705
1.04 151.002 69.537
1.05 294.689 67.294
1.06 288.830 62.430
1.07 --undefined-- 55.362
1.08 --undefined-- 51.304
1.09 --undefined-- 54.182
1.10 --undefined-- 56.416
1.11 --undefined-- 56.976
1.12 --undefined-- 56.752
1.13 --undefined-- 55.983
1.14 --undefined-- 55.259
1.15 --undefined-- 56.063
1.16 228.996 59.036
1.17 201.635 61.741
1.18 168.630 63.428
1.19 162.042 63.977
1.20 145.000 63.393
1.21 144.920 62.565
1.22 147.275 61.834
1.23 148.349 60.635
1.24 153.846 59.199
1.25 153.514 57.846
1.26 145.120 56.464
1.27 154.010 56.143
1.28 158.501 55.913
1.29 160.278 54.230
1.30 161.518 52.280
1.31 --undefined-- 51.737
1.32 --undefined-- 51.495
1.33 --undefined-- 50.540
1.34 --undefined-- 50.052
1.35 --undefined-- 50.061
1.36 --undefined-- 50.607
1.37 --undefined-- 52.637
1.38 --undefined-- 54.953
1.39 --undefined-- 56.460
1.40 --undefined-- 56.986
1.41 --undefined-- 56.791
1.42 --undefined-- 56.996
1.43 --undefined-- 58.004
1.44 --undefined-- 59.978
1.45 --undefined-- 62.364
1.46 170.869 63.925
1.47 168.194 64.711
1.48 166.814 65.093
1.49 166.309 65.210
1.50 166.626 65.464
1.51 168.214 66.198
1.52 168.766 67.119
1.53 170.017 67.742
1.54 173.393 68.183
1.55 177.296 68.744
1.56 181.131 68.744
1.57 195.161 67.737
1.58 207.803 66.491
1.59 221.241 66.066
1.60 229.714 67.115
1.61 236.141 69.051
1.62 243.064 70.781
1.63 248.424 71.759
1.64 250.957 72.184
1.65 249.536 72.504
1.66 244.229 72.558
1.67 237.377 71.844
1.68 230.413 70.919
1.69 222.417 71.121
1.70 217.109 71.500
1.71 211.128 71.206
1.72 206.875 70.757
1.73 203.273 70.358
1.74 199.133 70.146
1.75 194.961 70.610
1.76 191.479 70.994
1.77 188.231 70.328
1.78 186.434 68.757
1.79 187.386 67.405
1.80 189.402 66.677
1.81 189.055 65.753
1.82 188.277 63.878
1.83 188.956 60.709
1.84 188.262 57.264
1.85 --undefined-- 56.823
1.86 --undefined-- 58.202
1.87 --undefined-- 58.288
1.88 --undefined-- 56.684
1.89 --undefined-- 54.303
1.90 --undefined-- 55.085
1.91 206.880 58.491
1.92 196.518 61.382
1.93 189.695 63.543
1.94 187.760 65.234
1.95 186.661 66.509
1.96 185.773 67.011
1.97 188.360 66.612
1.98 194.427 65.799
1.99 202.014 65.172
2.00 206.995 65.074
2.01 216.597 64.583
2.02 232.908 63.245
2.03 232.435 62.416
2.04 232.214 62.498
2.05 231.694 62.475
2.06 227.827 62.467
2.07 223.297 63.269
2.08 220.194 65.097
2.09 217.155 67.199
2.10 218.279 68.216
2.11 219.982 67.766
2.12 222.546 66.460
2.13 223.110 65.076
2.14 227.291 64.532
2.15 235.253 65.251
2.16 240.692 66.637
2.17 244.880 68.857
2.18 244.882 70.899
2.19 241.956 71.511
2.20 236.834 71.248
2.21 232.158 71.288
2.22 228.060 71.250
2.23 225.069 70.478
2.24 223.247 69.069
2.25 222.853 67.196
2.26 222.132 64.575
2.27 222.752 60.867
2.28 225.186 55.848
2.29 --undefined-- 50.127
2.30 --undefined-- 46.908
2.31 --undefined-- 46.131
2.32 --undefined-- 44.971
2.33 --undefined-- 45.074
2.34 --undefined-- 48.936
2.35 --undefined-- 53.098
2.36 --undefined-- 54.957
2.37 --undefined-- 54.511
2.38 262.998 55.303
2.39 263.006 59.375
2.40 284.056 63.118
2.41 288.823 65.328
2.42 278.008 66.090
2.43 269.770 65.921
2.44 265.180 65.231
2.45 262.145 63.889
2.46 258.916 62.277
2.47 259.751 62.004
2.48 269.974 63.022
2.49 270.111 63.507
2.50 269.698 63.304
2.51 270.868 63.131
2.52 271.544 63.030
2.53 270.086 62.431
2.54 266.334 60.937
2.55 260.550 58.897
2.56 245.426 58.141
2.57 241.562 58.433
2.58 238.556 58.500
2.59 240.735 58.665
2.60 242.019 59.459
2.61 220.792 61.460
2.62 208.486 64.404
2.63 200.827 66.781
2.64 193.229 68.204
2.65 189.259 69.054
2.66 187.277 69.435
2.67 187.955 69.177
2.68 189.469 68.548
2.69 189.234 68.071
2.70 188.077 67.732
2.71 186.659 67.171
2.72 184.823 66.375
2.73 183.500 65.587
2.74 183.713 64.920
2.75 185.622 64.334
2.76 187.741 63.784
2.77 190.820 63.143
2.78 193.304 62.328
2.79 196.760 61.555
2.80 198.828 60.917
2.81 199.017 60.394
2.82 198.069 60.068
2.83 195.000 59.920
2.84 190.210 60.009
2.85 186.034 60.279
2.86 180.703 60.505
2.87 175.296 60.462
2.88 171.311 60.295
2.89 168.444 60.611
2.90 167.205 61.254
2.91 165.065 61.890
2.92 155.887 62.533
2.93 151.428 62.736
2.94 145.133 62.565
2.95 142.526 62.410
2.96 140.999 62.047
2.97 142.008 61.721
2.98 142.395 61.587
2.99 143.311 61.239
3.00 141.913 60.636
3.01 144.318 59.737
3.02 147.136 59.150
3.03 147.819 59.208
3.04 150.180 59.260
3.05 152.641 59.156
3.06 153.548 58.823
3.07 154.704 57.713
3.08 154.953 55.675
3.09 --undefined-- 53.498
3.10 --undefined-- 52.636
3.11 --undefined-- 53.518
3.12 --undefined-- 55.405
3.13 --undefined-- 56.198
3.14 --undefined-- 55.505
3.15 189.844 55.479
3.16 191.882 57.036
3.17 185.704 59.593
3.18 177.279 62.171
3.19 172.374 64.030
3.20 169.865 65.447
3.21 168.669 66.663
3.22 168.510 67.308
3.23 167.729 67.310
3.24 166.418 67.095
3.25 165.205 66.876
3.26 164.984 66.589
3.27 166.230 66.395
3.28 167.388 66.430
3.29 168.443 66.204
3.30 169.380 65.370
3.31 170.127 63.629
3.32 169.210 60.353
3.33 --undefined-- 55.420
3.34 --undefined-- 50.668
3.35 --undefined-- 51.076
3.36 --undefined-- 56.073
3.37 --undefined-- 61.530
3.38 --undefined-- 65.282
3.39 173.707 66.682
3.40 169.161 66.708
3.41 166.668 66.756
3.42 165.350 66.764
3.43 163.733 66.290
3.44 162.860 65.560
3.45 162.204 65.154
3.46 162.262 65.427
3.47 162.703 65.956
3.48 162.175 66.126
3.49 161.365 65.944
3.50 161.286 65.580
3.51 161.712 64.817
3.52 161.885 63.399
3.53 162.898 61.260
3.54 163.581 58.267
3.55 162.207 54.134
3.56 --undefined-- 49.999
3.57 --undefined-- 48.450
3.58 --undefined-- 46.668
3.59 --undefined-- 46.546
3.60 --undefined-- 50.560
3.61 --undefined-- 57.332
3.62 202.991 62.967
3.63 196.160 66.662
3.64 187.090 69.035
3.65 183.775 70.139
3.66 181.765 70.345
3.67 180.462 70.292
3.68 179.838 70.109
3.69 179.857 69.911
3.70 181.420 69.817
3.71 183.432 69.814
3.72 184.033 69.914
3.73 184.736 69.974
3.74 185.399 69.681
3.75 186.056 68.626
3.76 184.907 66.232
3.77 175.556 62.545
3.78 169.080 59.096
3.79 166.810 56.486
3.80 176.039 58.266
3.81 189.946 63.177
3.82 192.279 67.007
3.83 189.581 69.918
3.84 189.760 72.173
3.85 189.817 73.469
3.86 188.036 73.874
3.87 186.421 74.143
3.88 184.875 74.649
3.89 183.482 75.178
3.90 183.052 75.476
3.91 182.877 75.405
3.92 182.958 75.035
3.93 182.107 74.483
3.94 179.300 73.696
3.95 175.888 72.241
3.96 --undefined-- 69.319
3.97 --undefined-- 64.385
3.98 --undefined-- 58.505
3.99 --undefined-- 56.256
4.00 --undefined-- 55.784
4.01 --undefined-- 53.350
4.02 --undefined-- 49.899
4.03 --undefined-- 48.360
4.04 --undefined-- 46.314
4.05 --undefined-- 42.698
4.06 --undefined-- 41.612
4.07 --undefined-- 43.869
4.08 --undefined-- 46.543
4.09 --undefined-- 48.525
4.10 --undefined-- 48.782
4.11 --undefined-- 46.760
4.12 --undefined-- 43.494
4.13 --undefined-- 42.729
4.14 --undefined-- 44.037
4.15 --undefined-- 44.977
4.16 --undefined-- 45.861
4.17 --undefined-- 46.423
4.18 --undefined-- 46.529
4.19 --undefined-- 46.319
4.20 --undefined-- 46.837
4.21 --undefined-- 46.880
4.22 --undefined-- 48.145
4.23 --undefined-- 50.966
4.24 --undefined-- 52.063
4.25 --undefined-- 50.922
4.26 --undefined-- 48.807
4.27 --undefined-- 49.055
4.28 --undefined-- 50.499
4.29 --undefined-- 52.373
4.30 --undefined-- 54.223
4.31 --undefined-- 54.097
4.32 --undefined-- 52.074
4.33 --undefined-- 49.905
4.34 --undefined-- 49.570
4.35 --undefined-- 50.321
4.36 --undefined-- 50.186
4.37 --undefined-- 48.682
4.38 --undefined-- 46.766
4.39 --undefined-- 45.821
4.40 --undefined-- 46.516
4.41 --undefined-- 48.303
4.42 --undefined-- 49.809
4.43 --undefined-- 49.919
4.44 --undefined-- 50.339
4.45 --undefined-- 55.358
4.46 265.700 60.384
4.47 243.912 62.980
4.48 242.171 64.458
4.49 244.481 65.963
4.50 247.722 67.319
4.51 253.281 68.414
4.52 258.565 69.301
4.53 263.182 70.010
4.54 270.450 70.816
4.55 278.865 71.817
4.56 284.834 72.608
4.57 292.237 72.549
4.58 297.599 71.291
4.59 290.913 68.987
4.60 286.495 65.981
4.61 288.571 62.793
4.62 --undefined-- 60.792
4.63 --undefined-- 60.589
4.64 --undefined-- 60.088
4.65 --undefined-- 59.774
4.66 --undefined-- 59.975
4.67 --undefined-- 59.969
4.68 243.809 61.149
4.69 280.640 63.537
4.70 281.586 65.826
4.71 270.394 67.732
4.72 266.675 69.397
4.73 263.271 70.488
4.74 261.920 70.931
4.75 262.561 70.873
4.76 263.795 70.547
4.77 265.414 70.210
4.78 266.205 70.092
4.79 266.219 70.163
4.80 265.773 70.346
4.81 264.083 70.577
4.82 262.154 70.566
4.83 260.943 70.016
4.84 261.485 69.115
4.85 263.106 68.518
4.86 263.743 68.651
4.87 265.263 69.182
4.88 267.644 69.423
4.89 270.894 68.851
4.90 276.186 67.475
4.91 276.256 65.208
4.92 273.135 61.521
4.93 274.968 56.210
4.94 273.371 52.988
4.95 269.046 53.385
4.96 279.527 53.318
4.97 --undefined-- 54.578
4.98 --undefined-- 55.407
4.99 --undefined-- 53.554
5.00 --undefined-- 53.893
5.01 --undefined-- 60.127
5.02 168.783 64.524
5.03 170.439 67.026
5.04 170.583 68.777
5.05 171.564 --undefined--
5.06 172.089 --undefined--
5.07 --undefined-- --undefined--
5.08 --undefined-- --undefined--
