Time Pitch Intensity
0.01 --undefined-- --undefined--
0.02 170.526 --undefined--
0.03 169.697 --undefined--
0.04 167.863 --undefined--
0.05 166.671 70.860
0.06 166.473 71.579
0.07 167.471 72.372
0.08 168.224 73.114
0.09 170.924 73.697
0.10 173.531 73.956
0.11 178.376 73.936
0.12 182.797 74.192
0.13 187.256 74.700
0.14 193.743 74.904
0.15 198.875 74.338
0.16 213.944 72.997
0.17 224.014 71.285
0.18 228.814 68.961
0.19 231.695 66.618
0.20 229.359 65.489
0.21 235.653 64.266
0.22 275.741 61.811
0.23 --undefined-- 59.053
0.24 --undefined-- 58.245
0.25 --undefined-- 57.249
0.26 --undefined-- 55.675
0.27 --undefined-- 55.892
0.28 --undefined-- 56.640
0.29 --undefined-- 57.098
0.30 280.596 60.674
0.31 260.802 63.973
0.32 206.576 65.686
0.33 189.562 66.801
0.34 188.703 67.662
0.35 184.569 68.169
0.36 182.204 69.192
0.37 180.558 71.151
0.38 179.474 72.888
0.39 176.714 73.534
0.40 173.593 73.285
0.41 171.945 72.854
0.42 170.414 72.523
0.43 167.622 71.947
0.44 166.454 71.063
0.45 164.856 69.800
0.46 163.661 68.435
0.47 163.081 67.713
0.48 165.025 67.430
0.49 166.408 67.222
0.50 167.646 66.850
0.51 168.965 65.973
0.52 171.428 65.112
0.53 176.850 65.269
0.54 180.949 66.124
0.55 183.828 66.933
0.56 187.155 67.438
0.57 190.777 67.741
0.58 193.158 67.931
0.59 196.175 67.578
0.60 204.368 66.762
0.61 210.304 66.268
0.62 212.354 65.945
0.63 210.568 65.092
0.64 193.520 63.437
0.65 207.795 62.382
0.66 --undefined-- 64.568
0.67 --undefined-- 66.045
0.68 231.659 65.877
0.69 232.350 65.256
0.70 239.113 65.132
0.71 --undefined-- 65.645
0.72 --undefined-- 66.211
0.73 --undefined-- 66.723
0.74 --undefined-- 68.242
0.75 --undefined-- 70.463
0.76 --undefined-- 71.312
0.77 --undefined-- 69.913
0.78 --undefined-- 67.246
0.79 --undefined-- 65.455
0.80 --undefined-- 63.615
0.81 --undefined-- 60.686
0.82 --undefined-- 60.823
0.83 --undefined-- 63.221
0.84 --undefined-- 63.733
0.85 --undefined-- 61.949
0.86 --undefined-- 61.059
0.87 --undefined-- 62.987
0.88 --undefined-- 63.736
0.89 --undefined-- 62.605
0.90 --undefined-- 60.852
0.91 --undefined-- 62.040
0.92 264.636 63.864
0.93 243.567 63.521
0.94 230.183 61.699
0.95 261.224 63.248
0.96 260.037 68.056
0.97 260.257 71.400
0.98 258.326 72.351
0.99 256.420 71.543
1.00 260.738 70.318
1.01 265.339 68.722
1.02 268.235 66.210
1.03 262.698 63.702
1.04 262.968 61.850
1.05 263.310 58.896
1.06 266.068 55.782
1.07 --undefined-- 57.536
1.08 --undefined-- 59.689
1.09 --undefined-- 58.968
1.10 --undefined-- 55.904
1.11 --undefined-- 54.980
1.12 --undefined-- 56.227
1.13 --undefined-- 57.477
1.14 --undefined-- 57.418
1.15 --undefined-- 56.900
1.16 --undefined-- 59.227
1.17 --undefined-- 60.382
1.18 --undefined-- 58.727
1.19 --undefined-- 59.493
1.20 --undefined-- 65.101
1.21 271.868 68.970
1.22 269.103 71.205
1.23 264.189 71.948
1.24 260.448 71.298
1.25 260.381 70.406
1.26 263.006 70.182
1.27 265.974 70.371
1.28 268.943 70.352
1.29 272.026 69.324
1.30 272.314 66.644
1.31 261.533 62.272
1.32 256.301 58.720
1.33 --undefined-- 57.078
1.34 --undefined-- 54.800
1.35 --undefined-- 55.507
1.36 --undefined-- 57.669
1.37 --undefined-- 58.597
1.38 --undefined-- 60.555
1.39 --undefined-- 64.284
1.40 283.714 66.842
1.41 282.354 68.220
1.42 283.510 69.231
1.43 287.962 70.206
1.44 287.609 70.939
1.45 284.698 71.279
1.46 280.330 71.050
1.47 275.020 70.176
1.48 267.867 69.009
1.49 256.921 68.076
1.50 244.278 67.617
1.51 230.875 67.882
1.52 219.070 69.056
1.53 204.767 70.730
1.54 196.810 72.452
1.55 191.323 74.137
1.56 189.715 75.529
1.57 189.215 76.260
1.58 189.931 76.483
1.59 191.655 76.540
1.60 191.519 76.593
1.61 189.735 76.721
1.62 188.192 76.630
1.63 185.683 75.903
1.64 178.355 74.313
1.65 172.298 71.945
1.66 171.134 68.659
1.67 179.766 64.769
1.68 186.126 62.077
1.69 187.340 61.795
1.70 187.906 60.631
1.71 --undefined-- 56.917
1.72 --undefined-- 54.085
1.73 --undefined-- 56.372
1.74 288.005 58.700
1.75 290.346 58.394
1.76 294.422 55.784
1.77 --undefined-- 54.598
1.78 --undefined-- 53.967
1.79 --undefined-- 51.436
1.80 --undefined-- 49.426
1.81 --undefined-- 49.928
1.82 --undefined-- 51.841
1.83 --undefined-- 54.243
1.84 238.363 57.504
1.85 243.091 59.327
1.86 257.730 58.537
1.87 258.708 56.925
1.88 --undefined-- 55.774
1.89 --undefined-- 53.721
1.90 --undefined-- 52.703
1.91 --undefined-- 54.780
1.92 --undefined-- 55.903
1.93 --undefined-- 55.604
1.94 --undefined-- 57.112
1.95 --undefined-- 59.123
1.96 --undefined-- 59.487
1.97 282.958 59.660
1.98 268.756 61.884
1.99 245.807 64.026
2.00 240.233 65.835
2.01 241.239 67.203
2.02 244.170 68.152
2.03 248.029 69.265
2.04 250.530 70.109
2.05 248.896 70.265
2.06 244.650 70.086
2.07 241.319 70.135
2.08 236.788 70.668
2.09 231.911 71.271
2.10 227.096 71.320
2.11 220.223 71.157
2.12 216.056 71.247
2.13 213.628 71.058
2.14 212.416 70.517
2.15 211.129 69.738
2.16 208.228 68.260
2.17 192.275 65.551
2.18 188.097 61.761
2.19 189.247 60.287
2.20 214.954 62.241
2.21 257.735 62.347
2.22 259.765 60.214
2.23 261.308 61.484
2.24 234.957 66.160
2.25 228.534 68.642
2.26 221.061 68.530
2.27 214.634 66.997
2.28 218.308 66.305
2.29 222.978 66.519
2.30 225.863 66.667
2.31 228.703 66.554
2.32 231.592 66.213
2.33 233.073 66.099
2.34 235.079 66.406
2.35 236.562 66.290
2.36 234.348 64.880
2.37 221.106 61.865
2.38 213.254 57.897
2.39 --undefined-- 54.307
2.40 --undefined-- 52.120
2.41 --undefined-- 55.905
2.42 --undefined-- 65.418
2.43 --undefined-- 71.295
2.44 154.004 73.800
2.45 156.785 74.432
2.46 158.824 74.304
2.47 159.905 73.710
2.48 161.123 73.100
2.49 162.263 72.787
2.50 163.563 72.398
2.51 164.842 71.864
2.52 165.252 71.506
2.53 166.006 71.376
2.54 166.558 71.280
2.55 167.603 70.794
2.56 166.965 69.533
2.57 163.401 67.467
2.58 159.756 65.035
2.59 166.114 62.513
2.60 170.426 60.418
2.61 --undefined-- 60.361
2.62 --undefined-- 59.249
2.63 --undefined-- 55.726
2.64 --undefined-- 55.751
2.65 --undefined-- 58.844
2.66 --undefined-- 63.609
2.67 280.663 68.517
2.68 257.924 71.453
2.69 241.860 72.539
2.70 227.723 72.153
2.71 216.330 70.844
2.72 206.446 69.426
2.73 204.869 68.755
2.74 196.012 68.743
2.75 194.449 67.848
2.76 192.691 65.089
2.77 190.785 60.997
2.78 196.651 58.100
2.79 221.628 60.698
2.80 --undefined-- 62.771
2.81 --undefined-- 61.805
2.82 --undefined-- 59.766
2.83 --undefined-- 59.259
2.84 --undefined-- 57.546
2.85 --undefined-- 55.720
2.86 --undefined-- 58.492
2.87 --undefined-- 62.657
2.88 145.337 66.105
2.89 147.980 68.282
2.90 151.231 69.196
2.91 153.824 69.424
2.92 155.294 69.721
2.93 154.787 70.290
2.94 155.077 71.207
2.95 155.255 72.053
2.96 154.648 72.018
2.97 153.039 70.564
2.98 149.837 67.270
2.99 --undefined-- 61.881
3.00 --undefined-- 57.116
3.01 --undefined-- 57.326
3.02 --undefined-- 59.764
3.03 --undefined-- 65.502
3.04 240.186 70.298
3.05 229.669 73.192
3.06 216.378 74.602
3.07 205.169 74.615
3.08 200.928 73.198
3.09 198.180 70.519
3.10 199.619 67.038
3.11 198.019 63.873
3.12 197.149 62.147
3.13 198.619 59.844
3.14 199.784 55.987
3.15 --undefined-- 52.454
3.16 --undefined-- 51.079
3.17 --undefined-- 53.364
3.18 --undefined-- 55.111
3.19 --undefined-- 55.460
3.20 --undefined-- 57.148
3.21 --undefined-- 57.943
3.22 --undefined-- 55.755
3.23 --undefined-- 51.690
3.24 --undefined-- 50.310
3.25 --undefined-- 53.960
3.26 --undefined-- 58.591
3.27 --undefined-- 60.704
3.28 --undefined-- 60.538
3.29 --undefined-- 60.270
3.30 --undefined-- 59.498
3.31 --undefined-- 57.907
3.32 --undefined-- 58.659
3.33 212.315 60.786
3.34 205.420 62.980
3.35 173.048 64.612
3.36 168.880 65.320
3.37 164.539 65.066
3.38 162.395 64.116
3.39 162.535 63.094
3.40 161.952 62.807
3.41 156.426 63.522
3.42 156.331 64.534
3.43 162.421 65.587
3.44 169.291 66.706
3.45 177.984 67.952
3.46 188.152 69.601
3.47 195.069 70.277
3.48 212.771 68.965
3.49 235.508 66.539
3.50 239.351 63.810
3.51 222.670 60.488
3.52 210.318 60.109
3.53 --undefined-- 62.049
3.54 279.642 62.867
3.55 259.248 63.964
3.56 255.987 64.906
3.57 248.688 64.698
3.58 253.319 64.683
3.59 262.847 65.398
3.60 --undefined-- 66.395
3.61 --undefined-- 68.235
3.62 --undefined-- 70.285
3.63 --undefined-- 71.442
3.64 --undefined-- 71.249
3.65 --undefined-- 69.870
3.66 --undefined-- 67.778
3.67 --undefined-- 65.072
3.68 --undefined-- 62.748
3.69 --undefined-- 61.369
3.70 --undefined-- 61.790
3.71 --undefined-- 61.749
3.72 --undefined-- 61.419
3.73 --undefined-- 62.688
3.74 --undefined-- 62.104
3.75 --undefined-- 58.262
3.76 --undefined-- 51.963
3.77 --undefined-- 48.863
3.78 --undefined-- 53.524
3.79 --undefined-- 57.914
3.80 --undefined-- 59.523
3.81 --undefined-- 58.624
3.82 --undefined-- 57.159
3.83 --undefined-- 58.177
3.84 --undefined-- 60.518
3.85 289.649 61.938
3.86 288.044 63.685
3.87 290.971 64.376
3.88 293.541 62.644
3.89 --undefined-- 60.393
3.90 --undefined-- 60.970
3.91 225.784 64.299
3.92 223.223 67.623
3.93 222.248 69.724
3.94 220.877 70.960
3.95 217.522 71.726
3.96 213.357 72.117
3.97 209.576 72.170
3.98 205.965 71.897
3.99 201.814 71.493
4.00 196.874 71.326
4.01 193.226 71.574
4.02 191.300 72.277
4.03 189.651 72.892
4.04 187.764 73.032
4.05 186.058 72.894
4.06 184.123 72.295
4.07 182.510 71.097
4.08 181.645 70.007
4.09 181.974 69.625
4.10 181.944 69.616
4.11 182.269 69.543
4.12 183.385 69.381
4.13 183.767 69.414
4.14 184.278 69.594
4.15 184.343 69.325
4.16 184.466 68.693
4.17 184.794 68.280
4.18 185.038 67.991
4.19 184.232 67.226
4.20 184.498 65.366
4.21 186.810 63.745
4.22 --undefined-- 64.514
4.23 --undefined-- 63.990
4.24 --undefined-- 60.711
4.25 --undefined-- 60.064
4.26 --undefined-- 65.475
4.27 --undefined-- 68.493
4.28 189.930 68.257
4.29 193.713 66.664
4.30 197.618 66.558
4.31 195.984 66.138
4.32 183.087 64.995
4.33 173.415 64.555
4.34 167.823 64.054
4.35 165.112 63.260
4.36 163.861 63.039
4.37 164.068 63.686
4.38 164.325 63.847
4.39 163.004 63.400
4.40 161.360 63.489
4.41 159.668 63.193
4.42 157.714 62.595
4.43 156.954 62.590
4.44 157.452 62.688
4.45 157.953 63.516
4.46 158.125 65.016
4.47 165.018 66.107
4.48 169.541 66.611
4.49 177.042 67.047
4.50 177.349 67.356
4.51 166.919 67.057
4.52 165.545 66.518
4.53 162.974 65.962
4.54 162.314 65.560
4.55 161.727 65.643
4.56 161.885 65.172
4.57 160.468 63.952
4.58 159.678 63.565
4.59 161.400 63.413
4.60 160.630 62.761
4.61 159.475 62.603
4.62 158.207 63.072
4.63 159.225 63.466
4.64 159.890 63.698
4.65 161.639 63.386
4.66 163.076 63.247
4.67 162.352 63.189
4.68 163.077 62.592
4.69 165.243 62.557
4.70 168.931 63.251
4.71 174.820 65.084
4.72 179.956 68.263
4.73 183.372 71.129
4.74 186.518 73.141
4.75 189.445 74.292
4.76 196.061 74.408
4.77 213.276 73.876
4.78 217.772 72.957
4.79 222.024 71.069
4.80 225.382 68.635
4.81 223.289 67.664
4.82 --undefined-- 68.212
4.83 --undefined-- 67.677
4.84 193.708 65.954
4.85 193.298 65.019
4.86 190.093 65.529
4.87 196.654 67.083
4.88 202.121 68.863
4.89 204.871 72.092
4.90 202.783 75.586
4.91 201.510 77.052
4.92 199.817 76.411
4.93 198.489 --undefined--
4.94 195.633 --undefined--
4.95 --undefined-- --undefined--
4.96 --undefined-- --undefined--
