Time Pitch Intensity
0.01 --undefined-- --undefined--
0.02 --undefined-- --undefined--
0.03 --undefined-- --undefined--
0.04 --undefined-- --undefined--
0.05 --undefined-- 48.595
0.06 --undefined-- 43.835
0.07 --undefined-- 43.049
0.08 --undefined-- 52.188
0.09 --undefined-- 59.226
0.10 120.738 63.625
0.11 119.849 66.468
0.12 116.159 68.581
0.13 116.378 70.118
0.14 111.611 70.855
0.15 111.912 71.253
0.16 111.826 71.720
0.17 113.974 72.347
0.18 117.154 73.059
0.19 121.229 73.609
0.20 125.620 73.887
0.21 129.773 73.949
0.22 134.175 74.036
0.23 137.916 74.384
0.24 139.196 74.971
0.25 142.303 75.631
0.26 142.614 76.160
0.27 141.968 76.160
0.28 140.610 75.295
0.29 132.224 73.951
0.30 126.476 73.069
0.31 121.148 72.581
0.32 115.656 72.074
0.33 110.364 71.419
0.34 104.145 70.534
0.35 101.159 69.904
0.36 100.369 69.762
0.37 101.594 69.740
0.38 102.395 69.669
0.39 104.619 69.718
0.40 106.737 70.091
0.41 107.568 70.607
0.42 107.417 70.842
0.43 107.117 70.668
0.44 109.256 70.486
0.45 111.209 70.837
0.46 110.308 71.339
0.47 109.996 71.558
0.48 109.732 71.559
0.49 109.115 71.580
0.50 108.547 71.731
0.51 107.927 71.916
0.52 106.966 72.050
0.53 106.948 72.136
0.54 107.201 72.177
0.55 107.487 72.117
0.56 106.397 72.026
0.57 103.601 72.204
0.58 109.349 72.527
0.59 109.373 72.578
0.60 110.179 72.281
0.61 111.194 71.508
0.62 109.043 70.084
0.63 114.067 68.233
0.64 --undefined-- 65.681
0.65 --undefined-- 61.093
0.66 --undefined-- 55.325
0.67 --undefined-- 49.863
0.68 --undefined-- 43.354
0.69 --undefined-- 39.681
0.70 --undefined-- 39.466
0.71 --undefined-- 39.894
0.72 --undefined-- 40.022
0.73 --undefined-- 39.885
0.74 --undefined-- 38.701
0.75 --undefined-- 36.642
0.76 --undefined-- 36.538
0.77 --undefined-- 36.038
0.78 --undefined-- 33.772
0.79 --undefined-- 33.175
0.80 --undefined-- 35.307
0.81 --undefined-- 37.285
0.82 --undefined-- 38.169
0.83 --undefined-- 37.771
0.84 --undefined-- 36.408
0.85 --undefined-- 36.151
0.86 --undefined-- 39.917
0.87 --undefined-- 45.619
0.88 --undefined-- 50.119
0.89 --undefined-- 53.264
0.90 --undefined-- 55.796
0.91 --undefined-- 57.897
0.92 --undefined-- 59.209
0.93 --undefined-- 59.634
0.94 --undefined-- 59.032
0.95 --undefined-- 57.243
0.96 --undefined-- 55.183
0.97 --undefined-- 57.337
0.98 --undefined-- 64.858
0.99 147.370 69.780
1.00 135.163 71.583
1.01 129.863 71.461
1.02 129.461 71.066
1.03 129.645 71.069
1.04 126.907 71.322
1.05 131.122 71.871
1.06 134.088 72.302
1.07 134.483 72.422
1.08 134.476 72.377
1.09 134.980 72.246
1.10 134.826 72.157
1.11 134.472 72.096
1.12 134.293 71.801
1.13 133.873 71.047
1.14 131.738 69.517
1.15 126.449 66.671
1.16 117.425 61.976
1.17 --undefined-- 55.872
1.18 --undefined-- 53.510
1.19 --undefined-- 52.895
1.20 --undefined-- 51.458
1.21 --undefined-- 51.562
1.22 --undefined-- 52.799
1.23 --undefined-- 54.367
1.24 --undefined-- 54.541
1.25 --undefined-- 53.469
1.26 --undefined-- 57.116
1.27 --undefined-- 63.093
1.28 --undefined-- 66.692
1.29 --undefined-- 68.486
1.30 --undefined-- 69.424
1.31 --undefined-- 70.042
1.32 117.804 70.533
1.33 121.545 71.004
1.34 120.160 71.295
1.35 121.429 71.019
1.36 125.327 70.331
1.37 127.203 70.070
1.38 127.700 70.304
1.39 128.219 70.415
1.40 127.759 70.060
1.41 125.854 69.033
1.42 121.380 66.929
1.43 114.661 63.200
1.44 117.939 57.807
1.45 --undefined-- 53.386
1.46 --undefined-- 51.937
1.47 --undefined-- 50.827
1.48 --undefined-- 50.187
1.49 --undefined-- 49.702
1.50 --undefined-- 49.076
1.51 --undefined-- 52.991
1.52 --undefined-- 62.273
1.53 141.685 68.576
1.54 138.563 71.924
1.55 132.042 73.340
1.56 127.742 73.854
1.57 128.198 74.325
1.58 133.671 75.168
1.59 141.104 76.371
1.60 148.074 77.423
1.61 154.802 77.388
1.62 162.786 75.931
1.63 174.208 74.325
1.64 184.705 73.417
1.65 191.625 72.824
1.66 190.061 72.799
1.67 189.935 73.179
1.68 188.390 73.297
1.69 184.618 73.145
1.70 176.998 73.918
1.71 166.695 75.187
1.72 160.134 75.945
1.73 153.857 75.973
1.74 147.692 75.750
1.75 146.530 76.017
1.76 146.806 76.635
1.77 146.949 77.168
1.78 146.695 77.363
1.79 146.105 77.174
1.80 144.848 76.509
1.81 144.561 74.795
1.82 142.682 71.800
1.83 133.461 68.173
1.84 119.773 63.638
1.85 --undefined-- 57.182
1.86 --undefined-- 50.652
1.87 --undefined-- 47.794
1.88 --undefined-- 46.432
1.89 --undefined-- 45.590
1.90 --undefined-- 45.128
1.91 --undefined-- 44.942
1.92 --undefined-- 45.217
1.93 --undefined-- 50.423
1.94 --undefined-- 58.549
1.95 123.011 63.816
1.96 102.805 66.499
1.97 105.253 67.784
1.98 106.816 68.614
1.99 108.286 69.295
2.00 110.943 69.984
2.01 114.533 70.808
2.02 116.546 71.563
2.03 119.597 71.956
2.04 122.106 71.969
2.05 127.073 71.971
2.06 130.907 71.915
2.07 140.012 71.855
2.08 146.557 72.429
2.09 150.099 73.000
2.10 161.153 72.842
2.11 168.787 72.547
2.12 170.585 72.586
2.13 168.994 72.779
2.14 163.130 73.715
2.15 156.387 75.480
2.16 151.258 76.419
2.17 143.262 75.821
2.18 135.242 74.629
2.19 130.544 74.002
2.20 126.989 73.413
2.21 124.568 71.980
2.22 120.878 69.227
2.23 111.361 65.055
2.24 103.506 59.973
2.25 --undefined-- 55.408
2.26 --undefined-- 58.223
2.27 --undefined-- 63.214
2.28 --undefined-- 67.706
2.29 136.724 71.452
2.30 131.096 73.426
2.31 123.515 73.761
2.32 118.225 72.694
2.33 115.290 69.670
2.34 --undefined-- 63.920
2.35 --undefined-- 55.733
2.36 --undefined-- 48.979
2.37 --undefined-- 46.317
2.38 --undefined-- 47.890
2.39 --undefined-- 56.999
2.40 --undefined-- 64.453
2.41 --undefined-- 68.783
2.42 121.165 70.533
2.43 108.572 70.362
2.44 106.861 69.344
2.45 107.236 68.721
2.46 108.564 68.934
2.47 108.840 69.932
2.48 116.161 71.224
2.49 120.878 72.167
2.50 125.331 72.643
2.51 130.669 72.703
2.52 139.602 72.687
2.53 144.962 72.700
2.54 146.811 71.921
2.55 143.662 69.407
2.56 136.800 64.593
2.57 --undefined-- 57.731
2.58 --undefined-- 54.090
2.59 --undefined-- 57.256
2.60 --undefined-- 63.933
2.61 --undefined-- 69.132
2.62 135.651 71.742
2.63 122.609 72.395
2.64 111.153 71.682
2.65 106.944 70.602
2.66 110.679 70.682
2.67 117.566 71.634
2.68 119.524 72.386
2.69 119.958 72.847
2.70 120.597 73.099
2.71 121.149 72.984
2.72 120.715 72.087
2.73 120.994 69.806
2.74 120.547 65.391
2.75 --undefined-- 58.366
2.76 --undefined-- 51.132
2.77 --undefined-- 49.742
2.78 --undefined-- 51.024
2.79 --undefined-- 55.654
2.80 172.197 62.657
2.81 155.831 67.574
2.82 146.793 70.494
2.83 145.983 71.999
2.84 145.108 72.465
2.85 142.660 72.146
2.86 140.740 70.821
2.87 137.818 67.908
2.88 124.645 63.043
2.89 123.338 57.161
2.90 --undefined-- 53.227
2.91 --undefined-- 57.273
2.92 --undefined-- 65.611
2.93 175.542 71.662
2.94 161.832 75.203
2.95 155.074 77.056
2.96 151.123 77.848
2.97 149.483 77.906
2.98 147.354 77.326
2.99 147.077 76.429
3.00 146.255 75.572
3.01 146.582 74.884
3.02 148.793 74.722
3.03 153.179 75.028
3.04 156.504 75.098
3.05 157.968 74.754
3.06 157.473 74.095
3.07 155.060 72.967
3.08 150.603 71.024
3.09 148.978 67.910
3.10 152.751 63.486
3.11 --undefined-- 58.851
3.12 --undefined-- 57.011
3.13 --undefined-- 54.482
3.14 --undefined-- 48.232
3.15 --undefined-- 40.074
3.16 --undefined-- 37.331
3.17 --undefined-- 37.082
3.18 --undefined-- 38.346
3.19 --undefined-- 39.149
3.20 --undefined-- 38.315
3.21 --undefined-- 37.240
3.22 --undefined-- 37.226
3.23 --undefined-- 38.517
3.24 --undefined-- 39.063
3.25 --undefined-- 38.362
3.26 --undefined-- 38.585
3.27 --undefined-- 39.769
3.28 --undefined-- 40.404
3.29 --undefined-- 41.399
3.30 --undefined-- 42.283
3.31 --undefined-- 42.442
3.32 --undefined-- 42.022
3.33 --undefined-- 41.340
3.34 --undefined-- 40.957
3.35 --undefined-- 40.519
3.36 --undefined-- 40.231
3.37 --undefined-- 40.012
3.38 --undefined-- 39.658
3.39 --undefined-- 39.273
3.40 --undefined-- 38.675
3.41 --undefined-- 38.179
3.42 --undefined-- 37.909
3.43 --undefined-- 39.101
3.44 --undefined-- 41.264
3.45 --undefined-- 41.918
3.46 --undefined-- 41.182
3.47 --undefined-- 43.643
3.48 --undefined-- 54.946
3.49 160.355 63.479
3.50 165.192 68.963
3.51 141.628 72.261
3.52 144.322 74.294
3.53 146.057 75.819
3.54 148.363 77.400
3.55 152.784 79.050
3.56 156.014 79.933
3.57 160.358 79.521
3.58 167.650 78.276
3.59 173.921 76.786
3.60 174.050 74.963
3.61 171.027 72.166
3.62 162.829 67.732
3.63 155.655 62.106
3.64 157.321 56.113
3.65 --undefined-- 49.144
3.66 --undefined-- 42.701
3.67 --undefined-- 44.660
3.68 --undefined-- 54.443
3.69 --undefined-- 60.738
3.70 --undefined-- 64.162
3.71 --undefined-- 67.840
3.72 --undefined-- 71.138
3.73 124.780 72.971
3.74 124.288 74.009
3.75 123.981 74.693
3.76 128.644 75.411
3.77 134.005 76.470
3.78 142.715 77.440
3.79 148.360 77.769
3.80 157.157 77.381
3.81 172.211 76.608
3.82 181.612 76.346
3.83 187.629 76.571
3.84 192.637 76.257
3.85 192.133 74.989
3.86 185.925 72.844
3.87 178.267 69.814
3.88 169.130 65.376
3.89 171.292 59.285
3.90 --undefined-- 53.641
3.91 --undefined-- 50.955
3.92 --undefined-- 54.547
3.93 --undefined-- 64.794
3.94 --undefined-- 71.330
3.95 --undefined-- 74.183
3.96 --undefined-- 74.329
3.97 123.634 73.345
3.98 116.788 72.596
3.99 111.299 72.147
4.00 106.496 71.756
4.01 106.310 71.534
4.02 106.519 71.306
4.03 103.757 70.676
4.04 100.272 69.670
4.05 95.119 68.244
4.06 87.567 66.435
4.07 92.613 64.515
4.08 --undefined-- 61.774
4.09 --undefined-- 56.435
4.10 --undefined-- 47.680
4.11 --undefined-- 44.126
4.12 --undefined-- 53.956
4.13 --undefined-- 61.184
4.14 --undefined-- 65.491
4.15 100.034 67.943
4.16 105.919 69.637
4.17 108.663 70.895
4.18 110.357 71.860
4.19 112.445 72.586
4.20 115.323 73.224
4.21 118.214 73.785
4.22 120.982 74.167
4.23 123.462 74.290
4.24 125.877 74.005
4.25 126.903 73.023
4.26 125.571 70.837
4.27 112.493 67.243
4.28 --undefined-- 66.095
4.29 --undefined-- 70.014
4.30 137.612 72.774
4.31 135.448 73.677
4.32 128.036 72.975
4.33 --undefined-- 70.626
4.34 --undefined-- 66.250
4.35 --undefined-- 59.520
4.36 --undefined-- 52.429
4.37 --undefined-- 49.773
4.38 --undefined-- 58.617
4.39 --undefined-- 66.272
4.40 --undefined-- 70.270
4.41 --undefined-- 71.614
4.42 111.951 71.279
4.43 104.676 70.200
4.44 105.466 69.542
4.45 109.200 69.956
4.46 110.761 71.258
4.47 119.659 72.745
4.48 124.965 73.884
4.49 130.424 74.623
4.50 137.986 74.973
4.51 146.282 75.035
4.52 152.580 74.752
4.53 154.309 73.934
4.54 151.636 72.129
4.55 145.286 68.653
4.56 --undefined-- 62.701
4.57 --undefined-- 55.904
4.58 --undefined-- 55.994
4.59 --undefined-- 62.555
4.60 --undefined-- 68.708
4.61 --undefined-- 72.128
4.62 --undefined-- 73.247
4.63 --undefined-- 72.580
4.64 105.367 70.954
4.65 100.471 69.856
4.66 100.903 69.654
4.67 102.938 69.722
4.68 106.258 69.977
4.69 111.545 70.394
4.70 116.988 70.699
4.71 122.974 70.796
4.72 128.747 71.007
4.73 134.522 71.700
4.74 138.028 72.684
4.75 141.165 73.545
4.76 145.576 74.175
4.77 147.637 74.409
4.78 147.791 73.896
4.79 145.052 72.430
4.80 140.899 69.667
4.81 --undefined-- 64.669
4.82 --undefined-- 56.918
4.83 --undefined-- 48.242
4.84 --undefined-- 44.184
4.85 --undefined-- 41.482
4.86 --undefined-- 40.216
4.87 --undefined-- 39.818
4.88 --undefined-- 41.166
4.89 --undefined-- 44.505
4.90 --undefined-- 45.916
4.91 --undefined-- 44.350
4.92 --undefined-- 41.601
4.93 --undefined-- 39.604
4.94 --undefined-- 38.637
4.95 --undefined-- 37.751
4.96 --undefined-- 36.411
4.97 --undefined-- 35.840
4.98 --undefined-- 36.377
4.99 --undefined-- 37.459
5.00 --undefined-- 39.601
5.01 --undefined-- 42.808
5.02 --undefined-- 43.825
5.03 --undefined-- 41.783
5.04 --undefined-- 38.118
5.05 --undefined-- 37.377
5.06 --undefined-- 40.453
5.07 --undefined-- 45.627
5.08 --undefined-- 51.861
5.09 --undefined-- 61.115
5.10 --undefined-- 68.775
5.11 192.730 72.937
5.12 177.572 74.700
5.13 175.888 75.060
5.14 175.432 74.238
5.15 171.711 72.819
5.16 168.219 72.640
5.17 169.628 73.537
5.18 167.805 74.298
5.19 162.252 74.881
5.20 155.344 75.200
5.21 147.799 74.965
5.22 139.611 74.488
5.23 134.659 74.189
5.24 130.831 73.712
5.25 128.672 72.960
5.26 128.395 71.699
5.27 128.471 68.827
5.28 --undefined-- 63.310
5.29 --undefined-- 55.179
5.30 --undefined-- 53.797
5.31 --undefined-- 59.004
5.32 --undefined-- 60.632
5.33 --undefined-- 58.747
5.34 --undefined-- 55.496
5.35 --undefined-- 53.995
5.36 --undefined-- 53.936
5.37 --undefined-- 55.624
5.38 --undefined-- 62.851
5.39 181.874 69.226
5.40 155.431 72.471
5.41 150.071 73.431
5.42 146.928 73.327
5.43 142.314 73.588
5.44 146.588 74.348
5.45 146.828 74.745
5.46 147.665 74.731
5.47 148.306 74.520
5.48 149.605 74.202
5.49 150.513 73.844
5.50 149.609 73.468
5.51 147.793 73.073
5.52 145.719 72.436
5.53 141.394 71.018
5.54 136.495 68.159
5.55 --undefined-- 63.356
5.56 --undefined-- 57.678
5.57 --undefined-- 57.351
5.58 --undefined-- 60.409
5.59 --undefined-- 66.236
5.60 --undefined-- 71.028
5.61 122.362 73.629
5.62 123.079 74.666
5.63 118.135 74.764
5.64 115.931 74.670
5.65 115.112 74.558
5.66 113.969 74.242
5.67 113.325 73.909
5.68 113.179 73.723
5.69 113.425 73.733
5.70 113.775 73.853
5.71 113.936 74.023
5.72 114.403 74.145
5.73 115.029 73.926
5.74 114.353 --undefined--
5.75 112.872 --undefined--
5.76 --undefined-- --undefined--
5.77 --undefined-- --undefined--
