Time Pitch Intensity
0.01 --undefined-- --undefined--
0.02 --undefined-- --undefined--
0.03 --undefined-- --undefined--
0.04 --undefined-- --undefined--
0.05 --undefined-- 47.771
0.06 --undefined-- 38.999
0.07 --undefined-- 37.490
0.08 --undefined-- 38.928
0.09 --undefined-- 38.097
0.10 --undefined-- 34.304
0.11 --undefined-- 31.025
0.12 --undefined-- 32.822
0.13 --undefined-- 35.471
0.14 --undefined-- 37.179
0.15 --undefined-- 38.130
0.16 --undefined-- 37.821
0.17 --undefined-- 36.782
0.18 --undefined-- 38.435
0.19 --undefined-- 45.531
0.20 --undefined-- 51.522
0.21 --undefined-- 53.746
0.22 --undefined-- 52.508
0.23 --undefined-- 49.224
0.24 --undefined-- 52.751
0.25 132.554 59.336
0.26 132.009 64.255
0.27 133.648 67.340
0.28 130.821 68.532
0.29 129.441 68.009
0.30 126.140 65.895
0.31 117.655 61.987
0.32 --undefined-- 55.983
0.33 --undefined-- 49.186
0.34 --undefined-- 46.733
0.35 --undefined-- 47.162
0.36 --undefined-- 49.539
0.37 --undefined-- 55.686
0.38 148.895 61.935
0.39 155.737 66.724
0.40 158.246 69.951
0.41 157.420 71.508
0.42 155.393 71.106
0.43 148.036 68.784
0.44 144.607 65.133
0.45 139.008 61.181
0.46 133.965 57.332
0.47 131.741 54.372
0.48 --undefined-- 55.586
0.49 --undefined-- 60.129
0.50 160.860 65.431
0.51 167.899 69.700
0.52 170.473 72.080
0.53 171.254 73.087
0.54 171.589 73.617
0.55 172.474 74.017
0.56 173.062 74.064
0.57 172.670 73.480
0.58 171.479 71.522
0.59 168.040 67.071
0.60 --undefined-- 59.414
0.61 --undefined-- 52.022
0.62 --undefined-- 52.508
0.63 --undefined-- 53.301
0.64 --undefined-- 52.641
0.65 --undefined-- 51.050
0.66 --undefined-- 49.057
0.67 --undefined-- 47.369
0.68 --undefined-- 48.289
0.69 --undefined-- 49.350
0.70 --undefined-- 47.340
0.71 --undefined-- 43.386
0.72 --undefined-- 42.280
0.73 --undefined-- 43.445
0.74 --undefined-- 46.162
0.75 --undefined-- 51.301
0.76 166.830 58.054
0.77 172.644 63.651
0.78 179.871 67.578
0.79 184.836 70.292
0.80 186.637 72.082
0.81 188.269 72.788
0.82 187.452 72.566
0.83 183.589 73.035
0.84 179.983 74.688
0.85 176.243 75.415
0.86 169.588 74.889
0.87 160.249 74.722
0.88 154.935 74.676
0.89 149.759 73.407
0.90 144.234 70.985
0.91 140.236 67.876
0.92 --undefined-- 63.540
0.93 --undefined-- 57.869
0.94 --undefined-- 53.395
0.95 --undefined-- 52.338
0.96 --undefined-- 52.721
0.97 --undefined-- 53.187
0.98 --undefined-- 53.033
0.99 --undefined-- 52.472
1.00 --undefined-- 51.914
1.01 --undefined-- 51.486
1.02 --undefined-- 51.711
1.03 --undefined-- 54.965
1.04 183.773 60.786
1.05 187.821 65.351
1.06 188.686 67.982
1.07 187.999 69.135
1.08 184.503 69.679
1.09 183.920 70.218
1.10 184.655 70.514
1.11 185.915 70.120
1.12 187.043 69.008
1.13 187.091 67.578
1.14 186.850 66.790
1.15 187.147 67.198
1.16 188.569 67.687
1.17 189.445 67.687
1.18 188.569 67.510
1.19 186.636 66.789
1.20 182.966 64.541
1.21 178.284 60.930
1.22 176.062 57.962
1.23 172.472 55.534
1.24 167.314 52.437
1.25 --undefined-- 48.922
1.26 --undefined-- 45.500
1.27 --undefined-- 44.505
1.28 --undefined-- 52.956
1.29 --undefined-- 62.273
1.30 132.447 68.577
1.31 131.615 71.912
1.32 128.426 72.582
1.33 122.682 71.385
1.34 118.265 70.082
1.35 115.527 69.945
1.36 113.985 70.373
1.37 113.859 70.675
1.38 113.634 70.566
1.39 113.131 70.102
1.40 112.068 68.980
1.41 110.710 66.717
1.42 109.942 62.958
1.43 110.395 57.597
1.44 110.374 52.154
1.45 109.211 49.462
1.46 --undefined-- 48.690
1.47 --undefined-- 47.785
1.48 --undefined-- 44.902
1.49 --undefined-- 40.843
1.50 --undefined-- 38.982
1.51 --undefined-- 40.338
1.52 --undefined-- 41.960
1.53 --undefined-- 41.774
1.54 --undefined-- 40.917
1.55 --undefined-- 42.668
1.56 --undefined-- 45.825
1.57 --undefined-- 48.549
1.58 --undefined-- 50.152
1.59 --undefined-- 50.409
1.60 --undefined-- 52.117
1.61 144.474 55.320
1.62 135.706 57.467
1.63 134.903 58.224
1.64 133.447 58.120
1.65 131.587 57.828
1.66 131.597 57.295
1.67 131.058 56.751
1.68 131.053 56.084
1.69 130.997 54.970
1.70 131.076 54.477
1.71 131.421 55.264
1.72 131.748 56.084
1.73 131.736 56.160
1.74 131.522 55.588
1.75 131.774 55.007
1.76 132.272 55.531
1.77 132.844 56.719
1.78 132.498 56.869
1.79 129.012 55.602
1.80 --undefined-- 53.270
1.81 --undefined-- 49.765
1.82 --undefined-- 44.856
1.83 --undefined-- 41.714
1.84 --undefined-- 45.552
1.85 --undefined-- 50.976
1.86 --undefined-- 55.180
1.87 --undefined-- 58.606
1.88 --undefined-- 63.991
1.89 176.262 69.766
1.90 172.464 73.257
1.91 167.115 74.226
1.92 162.012 73.334
1.93 159.449 71.935
1.94 158.649 70.882
1.95 157.561 69.491
1.96 157.270 66.991
1.97 158.435 64.193
1.98 159.489 63.077
1.99 158.762 63.039
2.00 157.895 62.963
2.01 157.475 62.536
2.02 157.309 61.999
2.03 158.685 61.411
2.04 160.066 60.432
2.05 159.821 58.556
2.06 160.399 55.253
2.07 --undefined-- 50.482
2.08 --undefined-- 46.693
2.09 --undefined-- 44.414
2.10 --undefined-- 41.817
2.11 --undefined-- 39.672
2.12 --undefined-- 38.843
2.13 --undefined-- 38.180
2.14 --undefined-- 36.940
2.15 --undefined-- 36.388
2.16 --undefined-- 35.581
2.17 --undefined-- 36.249
2.18 --undefined-- 37.834
2.19 --undefined-- 37.503
2.20 --undefined-- 38.558
2.21 --undefined-- 43.979
2.22 --undefined-- 49.464
2.23 140.098 53.584
2.24 137.339 56.267
2.25 131.238 57.835
2.26 121.551 58.763
2.27 119.221 59.250
2.28 116.716 59.159
2.29 113.178 58.257
2.30 110.135 57.185
2.31 107.339 56.813
2.32 105.003 56.766
2.33 103.746 56.659
2.34 103.820 55.971
2.35 104.815 55.294
2.36 105.602 55.238
2.37 105.875 55.050
2.38 105.775 54.555
2.39 106.371 54.802
2.40 106.589 56.203
2.41 107.041 57.639
2.42 107.570 58.475
2.43 107.808 58.605
2.44 107.740 58.584
2.45 107.509 58.629
2.46 107.187 58.121
2.47 106.449 56.688
2.48 105.427 54.900
2.49 101.462 55.808
2.50 101.175 58.931
2.51 102.086 61.665
2.52 102.876 63.891
2.53 103.715 65.687
2.54 104.677 66.867
2.55 106.239 67.521
2.56 108.343 68.387
2.57 111.201 69.518
2.58 112.461 69.918
2.59 113.992 69.424
2.60 115.909 68.534
2.61 116.398 67.542
2.62 117.463 66.885
2.63 119.734 66.606
2.64 120.943 66.308
2.65 121.207 65.594
2.66 120.471 64.182
2.67 117.372 61.824
2.68 112.684 58.015
2.69 --undefined-- 52.346
2.70 --undefined-- 45.287
2.71 --undefined-- 40.352
2.72 --undefined-- 39.590
2.73 --undefined-- 40.852
2.74 --undefined-- 42.534
2.75 --undefined-- 43.323
2.76 --undefined-- 47.679
2.77 --undefined-- 58.469
2.78 138.144 66.654
2.79 132.812 71.368
2.80 126.240 73.317
2.81 120.678 73.762
2.82 117.398 74.020
2.83 115.335 74.277
2.84 114.616 74.560
2.85 114.060 74.785
2.86 114.464 74.699
2.87 115.260 74.120
2.88 115.647 72.585
2.89 114.761 69.530
2.90 111.556 64.601
2.91 --undefined-- 58.287
2.92 --undefined-- 52.816
2.93 --undefined-- 49.592
2.94 --undefined-- 46.903
2.95 --undefined-- 43.947
2.96 --undefined-- 41.220
2.97 --undefined-- 40.914
2.98 --undefined-- 42.547
2.99 --undefined-- 45.381
3.00 --undefined-- 48.076
3.01 --undefined-- 49.544
3.02 --undefined-- 54.281
3.03 --undefined-- 62.706
3.04 146.147 68.865
3.05 141.849 72.838
3.06 138.753 75.277
3.07 136.698 76.395
3.08 135.137 76.161
3.09 134.575 74.794
3.10 133.520 72.606
3.11 131.225 69.553
3.12 133.426 66.641
3.13 133.266 65.227
3.14 133.315 64.554
3.15 133.096 63.741
3.16 133.055 62.348
3.17 132.071 60.728
3.18 132.053 58.951
3.19 130.733 56.312
3.20 127.954 52.770
3.21 --undefined-- 49.584
3.22 --undefined-- 46.551
3.23 --undefined-- 43.569
3.24 --undefined-- 42.721
3.25 --undefined-- 42.019
3.26 --undefined-- 39.827
3.27 --undefined-- 37.876
3.28 --undefined-- 39.184
3.29 --undefined-- 41.086
3.30 --undefined-- 41.125
3.31 --undefined-- 39.867
3.32 --undefined-- 39.207
3.33 --undefined-- 38.077
3.34 --undefined-- 35.441
3.35 --undefined-- 34.397
3.36 --undefined-- 36.115
3.37 --undefined-- 37.002
3.38 --undefined-- 36.756
3.39 --undefined-- 36.387
3.40 --undefined-- 36.924
3.41 --undefined-- 39.409
3.42 --undefined-- 40.940
3.43 --undefined-- 39.877
3.44 --undefined-- 37.123
3.45 --undefined-- 35.447
3.46 --undefined-- 35.575
3.47 --undefined-- 37.745
3.48 --undefined-- 39.476
3.49 --undefined-- 38.726
3.50 --undefined-- 36.392
3.51 --undefined-- 35.294
3.52 --undefined-- 36.368
3.53 --undefined-- 38.114
3.54 --undefined-- 38.670
3.55 --undefined-- 38.528
3.56 --undefined-- 37.728
3.57 --undefined-- 35.570
3.58 --undefined-- 34.232
3.59 --undefined-- 34.046
3.60 --undefined-- 34.210
3.61 --undefined-- 34.612
3.62 --undefined-- 35.683
3.63 --undefined-- 36.666
3.64 --undefined-- 37.946
3.65 --undefined-- 38.853
3.66 --undefined-- 38.044
3.67 --undefined-- 36.544
3.68 --undefined-- 35.879
3.69 --undefined-- 35.363
3.70 --undefined-- 35.158
3.71 --undefined-- 35.205
3.72 --undefined-- 35.224
3.73 --undefined-- 35.782
3.74 --undefined-- 36.939
3.75 --undefined-- 42.677
3.76 --undefined-- 51.643
3.77 --undefined-- 60.260
3.78 --undefined-- 67.112
3.79 --undefined-- 71.597
3.80 145.741 74.092
3.81 149.470 75.363
3.82 153.547 76.035
3.83 155.790 76.371
3.84 157.625 76.556
3.85 158.314 75.901
3.86 156.755 73.624
3.87 153.231 70.179
3.88 152.643 69.613
3.89 153.504 72.143
3.90 153.699 73.687
3.91 152.041 73.974
3.92 149.624 73.656
3.93 147.855 72.971
3.94 146.638 71.627
3.95 143.416 69.325
3.96 138.502 65.878
3.97 134.417 61.046
3.98 --undefined-- 54.725
3.99 --undefined-- 47.608
4.00 --undefined-- 42.096
4.01 --undefined-- 42.001
4.02 --undefined-- 43.722
4.03 --undefined-- 45.609
4.04 --undefined-- 46.188
4.05 --undefined-- 46.321
4.06 --undefined-- 47.553
4.07 --undefined-- 53.088
4.08 159.858 60.306
4.09 161.163 65.500
4.10 164.292 68.596
4.11 163.814 69.827
4.12 162.846 69.707
4.13 161.309 69.302
4.14 159.501 69.466
4.15 157.788 69.915
4.16 155.905 70.592
4.17 153.928 71.286
4.18 152.235 71.402
4.19 149.803 70.820
4.20 144.995 69.679
4.21 143.266 67.987
4.22 136.678 65.864
4.23 134.687 62.652
4.24 --undefined-- 57.430
4.25 --undefined-- 51.476
4.26 --undefined-- 48.523
4.27 --undefined-- 48.165
4.28 --undefined-- 48.744
4.29 --undefined-- 49.725
4.30 --undefined-- 50.733
4.31 --undefined-- 53.094
4.32 175.003 59.275
4.33 177.498 64.931
4.34 181.919 68.257
4.35 185.535 69.722
4.36 185.178 69.942
4.37 182.446 69.500
4.38 180.962 69.155
4.39 181.082 69.349
4.40 181.554 69.522
4.41 182.168 69.133
4.42 181.448 68.296
4.43 181.297 67.294
4.44 180.547 65.527
4.45 173.273 62.517
4.46 172.942 60.803
4.47 171.671 61.325
4.48 167.618 61.944
4.49 163.889 62.029
4.50 159.234 61.868
4.51 153.467 62.896
4.52 144.644 65.058
4.53 140.322 67.088
4.54 135.773 68.509
4.55 131.645 68.877
4.56 127.592 68.194
4.57 123.928 66.816
4.58 120.751 64.910
4.59 118.431 62.767
4.60 117.161 60.804
4.61 116.164 59.442
4.62 116.150 58.675
4.63 116.732 58.351
4.64 116.956 58.170
4.65 116.118 58.095
4.66 114.936 58.004
4.67 114.682 57.504
4.68 114.352 56.139
4.69 112.961 53.779
4.70 --undefined-- 50.308
4.71 --undefined-- 45.535
4.72 --undefined-- 40.163
4.73 --undefined-- 37.558
4.74 --undefined-- 36.853
4.75 --undefined-- 35.684
4.76 --undefined-- 34.766
4.77 --undefined-- 34.857
4.78 --undefined-- 34.775
4.79 --undefined-- 35.029
4.80 --undefined-- 35.474
4.81 --undefined-- 35.123
4.82 --undefined-- 34.667
4.83 --undefined-- 35.115
4.84 --undefined-- 36.864
4.85 --undefined-- 38.456
4.86 --undefined-- 39.083
4.87 --undefined-- 40.216
4.88 --undefined-- 43.841
4.89 --undefined-- 46.297
4.90 --undefined-- 46.244
4.91 --undefined-- 44.288
4.92 --undefined-- 40.817
4.93 --undefined-- 36.611
4.94 --undefined-- 32.942
4.95 --undefined-- 32.274
4.96 --undefined-- 33.670
4.97 --undefined-- 33.599
4.98 --undefined-- 32.085
4.99 --undefined-- 31.880
5.00 --undefined-- 33.757
5.01 --undefined-- 35.746
5.02 --undefined-- 37.791
5.03 --undefined-- 43.473
5.04 --undefined-- 51.471
5.05 143.643 57.449
5.06 144.104 60.954
5.07 143.021 62.371
5.08 141.471 62.788
5.09 140.724 62.917
5.10 139.948 62.599
5.11 139.725 61.567
5.12 139.336 59.614
5.13 --undefined-- 56.422
5.14 --undefined-- 54.965
5.15 284.464 57.292
5.16 285.942 58.979
5.17 290.620 59.451
5.18 291.712 59.212
5.19 286.940 58.324
5.20 284.491 56.246
5.21 --undefined-- 52.682
5.22 --undefined-- 47.421
5.23 --undefined-- 43.742
5.24 --undefined-- 48.432
5.25 --undefined-- 56.143
5.26 170.804 63.495
5.27 173.417 68.855
5.28 175.210 72.319
5.29 174.105 74.247
5.30 171.922 74.859
5.31 171.788 74.102
5.32 172.477 71.970
5.33 174.106 68.814
5.34 174.723 66.266
5.35 174.383 65.252
5.36 172.036 64.315
5.37 167.581 62.555
5.38 161.589 59.305
5.39 --undefined-- 53.649
5.40 --undefined-- 46.129
5.41 --undefined-- 39.822
5.42 --undefined-- 45.626
5.43 --undefined-- 57.640
5.44 145.492 66.413
5.45 145.811 71.947
5.46 144.388 74.911
5.47 141.103 76.204
5.48 137.657 76.423
5.49 133.863 75.866
5.50 130.844 74.881
5.51 129.821 73.567
5.52 129.565 71.869
5.53 128.664 69.386
5.54 127.031 65.560
5.55 --undefined-- 60.406
5.56 --undefined-- 54.748
5.57 --undefined-- 50.595
5.58 --undefined-- 47.689
5.59 --undefined-- 45.141
5.60 --undefined-- 43.780
5.61 --undefined-- 45.035
5.62 --undefined-- 47.050
5.63 --undefined-- 53.578
5.64 --undefined-- 62.839
5.65 169.343 69.154
5.66 165.491 72.637
5.67 162.151 73.468
5.68 158.520 71.697
5.69 154.016 67.801
5.70 148.669 62.766
5.71 141.706 58.213
5.72 141.908 57.624
5.73 145.070 60.396
5.74 147.487 64.265
5.75 147.098 67.551
5.76 145.338 69.687
5.77 143.573 70.871
5.78 141.180 71.185
5.79 134.925 70.413
5.80 131.301 68.194
5.81 125.409 63.953
5.82 115.605 57.450
5.83 --undefined-- 50.559
5.84 --undefined-- 46.672
5.85 --undefined-- 44.635
5.86 --undefined-- 42.740
5.87 --undefined-- 42.209
5.88 --undefined-- 45.658
5.89 --undefined-- 54.440
5.90 --undefined-- 61.935
5.91 --undefined-- 66.515
5.92 --undefined-- 68.259
5.93 --undefined-- 67.860
5.94 112.120 66.913
5.95 111.957 66.238
5.96 111.000 64.722
5.97 112.347 62.180
5.98 115.011 60.757
5.99 114.445 60.249
6.00 --undefined-- 58.706
6.01 --undefined-- 56.013
6.02 --undefined-- 52.157
6.03 --undefined-- 48.452
6.04 --undefined-- 46.100
6.05 --undefined-- 44.943
6.06 --undefined-- 44.626
6.07 --undefined-- 44.326
6.08 --undefined-- 44.050
6.09 --undefined-- 45.401
6.10 --undefined-- 48.711
6.11 118.227 51.526
6.12 115.593 52.137
6.13 112.700 50.552
6.14 --undefined-- 47.308
6.15 --undefined-- 43.760
6.16 --undefined-- 41.842
6.17 --undefined-- 40.310
6.18 --undefined-- 38.717
6.19 --undefined-- 37.937
6.20 --undefined-- 37.129
6.21 --undefined-- 36.731
6.22 --undefined-- 36.843
6.23 --undefined-- 37.119
6.24 --undefined-- 38.968
6.25 --undefined-- 48.894
6.26 --undefined-- 57.515
6.27 109.684 62.464
6.28 109.301 64.557
6.29 107.362 64.678
6.30 105.843 64.143
6.31 106.058 64.243
6.32 109.128 65.341
6.33 112.467 66.729
6.34 114.577 67.364
6.35 114.145 --undefined--
6.36 117.558 --undefined--
6.37 --undefined-- --undefined--
6.38 --undefined-- --undefined--
