Time Pitch Intensity
0.01 --undefined-- --undefined--
0.02 --undefined-- --undefined--
0.03 --undefined-- --undefined--
0.04 --undefined-- --undefined--
0.05 --undefined-- 61.134
0.06 --undefined-- 61.908
0.07 --undefined-- 62.926
0.08 --undefined-- 63.011
0.09 --undefined-- 62.205
0.10 --undefined-- 60.650
0.11 --undefined-- 59.921
0.12 --undefined-- 65.089
0.13 124.948 69.441
0.14 110.147 70.941
0.15 105.378 70.729
0.16 99.644 70.185
0.17 97.422 70.155
0.18 95.549 70.369
0.19 94.335 70.204
0.20 93.184 69.637
0.21 92.293 68.851
0.22 91.364 67.797
0.23 90.111 66.687
0.24 93.490 66.664
0.25 97.209 67.547
0.26 98.140 68.256
0.27 98.627 68.723
0.28 98.730 69.134
0.29 99.152 69.398
0.30 100.068 69.405
0.31 101.346 69.132
0.32 103.400 68.699
0.33 105.354 68.302
0.34 106.959 68.025
0.35 108.495 68.516
0.36 114.015 70.184
0.37 109.869 71.395
0.38 109.213 71.623
0.39 109.974 71.525
0.40 109.990 71.335
0.41 109.939 70.968
0.42 109.928 70.659
0.43 110.178 70.549
0.44 111.314 70.437
0.45 109.603 70.137
0.46 111.193 69.814
0.47 112.480 69.668
0.48 111.856 69.587
0.49 111.421 69.465
0.50 111.127 69.299
0.51 110.863 69.165
0.52 111.018 69.053
0.53 111.616 68.807
0.54 113.360 68.176
0.55 114.146 66.689
0.56 110.003 63.776
0.57 97.703 59.082
0.58 107.267 53.324
0.59 110.593 49.166
0.60 --undefined-- 47.019
0.61 --undefined-- 45.497
0.62 --undefined-- 44.823
0.63 --undefined-- 45.118
0.64 --undefined-- 45.531
0.65 --undefined-- 46.229
0.66 --undefined-- 55.697
0.67 190.848 65.098
0.68 184.324 70.529
0.69 180.304 73.108
0.70 181.334 73.989
0.71 180.376 74.256
0.72 177.366 74.374
0.73 173.637 74.450
0.74 170.449 74.798
0.75 169.101 75.312
0.76 168.743 75.492
0.77 169.432 75.027
0.78 171.547 73.926
0.79 173.659 72.865
0.80 173.666 72.626
0.81 172.649 72.999
0.82 170.804 73.319
0.83 168.725 72.901
0.84 164.294 71.088
0.85 151.109 67.665
0.86 143.350 63.238
0.87 158.234 59.124
0.88 162.082 56.555
0.89 159.908 54.962
0.90 169.227 52.997
0.91 --undefined-- 54.705
0.92 --undefined-- 63.454
0.93 --undefined-- 69.338
0.94 144.842 71.614
0.95 135.562 71.031
0.96 120.890 68.848
0.97 --undefined-- 65.992
0.98 --undefined-- 62.124
0.99 --undefined-- 57.378
1.00 --undefined-- 52.691
1.01 --undefined-- 48.921
1.02 --undefined-- 46.489
1.03 --undefined-- 46.242
1.04 --undefined-- 46.393
1.05 --undefined-- 47.321
1.06 --undefined-- 50.497
1.07 --undefined-- 53.372
1.08 --undefined-- 55.355
1.09 --undefined-- 56.902
1.10 108.420 58.005
1.11 112.068 59.044
1.12 111.311 60.285
1.13 110.323 61.073
1.14 109.238 61.378
1.15 108.433 62.049
1.16 111.147 63.987
1.17 115.557 67.203
1.18 116.256 70.081
1.19 117.938 71.645
1.20 114.694 71.641
1.21 112.079 70.471
1.22 109.616 69.356
1.23 108.939 69.030
1.24 108.032 68.958
1.25 107.442 68.717
1.26 106.859 68.019
1.27 101.340 66.998
1.28 105.558 66.546
1.29 106.480 66.617
1.30 106.825 66.616
1.31 107.512 66.555
1.32 107.628 66.577
1.33 107.521 66.696
1.34 107.750 66.921
1.35 108.377 67.203
1.36 109.108 67.524
1.37 109.726 67.850
1.38 109.939 68.057
1.39 110.441 68.081
1.40 111.061 67.982
1.41 111.315 67.854
1.42 111.604 67.659
1.43 112.257 67.187
1.44 112.077 66.105
1.45 110.793 64.050
1.46 106.677 60.979
1.47 109.554 57.766
1.48 110.564 55.195
1.49 104.772 55.555
1.50 --undefined-- 60.447
1.51 --undefined-- 64.596
1.52 --undefined-- 66.713
1.53 --undefined-- 69.187
1.54 --undefined-- 72.272
1.55 139.055 73.461
1.56 132.163 72.844
1.57 127.488 71.816
1.58 125.140 70.903
1.59 122.897 69.441
1.60 118.936 67.761
1.61 99.695 66.167
1.62 82.931 65.111
1.63 82.880 65.025
1.64 84.547 65.324
1.65 77.368 66.050
1.66 86.863 67.201
1.67 102.091 68.424
1.68 112.630 69.807
1.69 116.088 71.046
1.70 116.783 71.631
1.71 116.282 71.750
1.72 113.858 71.884
1.73 111.676 71.972
1.74 109.288 71.464
1.75 103.225 70.275
1.76 102.904 68.736
1.77 101.063 66.584
1.78 95.752 63.244
1.79 96.772 58.714
1.80 102.391 53.850
1.81 103.201 49.698
1.82 --undefined-- 47.310
1.83 --undefined-- 46.923
1.84 --undefined-- 47.847
1.85 --undefined-- 48.585
1.86 --undefined-- 48.997
1.87 --undefined-- 49.814
1.88 --undefined-- 50.884
1.89 --undefined-- 51.895
1.90 --undefined-- 52.495
1.91 --undefined-- 52.718
1.92 --undefined-- 52.727
1.93 --undefined-- 52.834
1.94 --undefined-- 53.220
1.95 --undefined-- 53.253
1.96 --undefined-- 52.749
1.97 --undefined-- 51.945
1.98 --undefined-- 51.174
1.99 --undefined-- 50.624
2.00 --undefined-- 50.567
2.01 --undefined-- 50.288
2.02 --undefined-- 49.141
2.03 --undefined-- 47.956
2.04 --undefined-- 46.885
2.05 --undefined-- 45.182
2.06 --undefined-- 42.529
2.07 --undefined-- 41.850
2.08 --undefined-- 46.998
2.09 --undefined-- 51.150
2.10 131.117 52.475
2.11 135.365 52.169
2.12 133.205 51.125
2.13 132.922 50.084
2.14 --undefined-- 50.963
2.15 --undefined-- 55.429
2.16 --undefined-- 63.729
2.17 153.017 69.926
2.18 147.548 73.437
2.19 147.571 75.081
2.20 149.906 75.696
2.21 154.192 75.876
2.22 156.656 75.947
2.23 158.613 75.989
2.24 160.801 75.925
2.25 160.392 75.579
2.26 158.080 74.632
2.27 156.873 72.917
2.28 163.937 70.834
2.29 179.781 69.856
2.30 191.355 70.851
2.31 198.823 71.611
2.32 203.517 71.119
2.33 204.275 70.703
2.34 210.336 71.077
2.35 216.940 72.024
2.36 219.841 73.359
2.37 221.200 74.442
2.38 220.672 74.902
2.39 217.923 74.704
2.40 216.918 73.872
2.41 219.510 72.123
2.42 209.137 69.005
2.43 191.086 64.702
2.44 181.779 61.617
2.45 185.021 59.504
2.46 198.441 56.522
2.47 187.745 58.475
2.48 171.536 65.579
2.49 163.906 70.689
2.50 157.051 73.195
2.51 156.935 74.015
2.52 158.358 74.213
2.53 161.193 74.180
2.54 164.544 73.886
2.55 172.358 73.379
2.56 176.125 72.628
2.57 169.689 71.055
2.58 168.354 68.049
2.59 169.284 64.219
2.60 169.418 61.217
2.61 170.206 60.520
2.62 180.006 65.307
2.63 176.685 70.128
2.64 169.533 72.698
2.65 164.416 73.315
2.66 149.483 72.534
2.67 133.359 71.433
2.68 126.082 71.032
2.69 120.538 71.176
2.70 118.158 70.979
2.71 115.998 69.240
2.72 111.449 65.750
2.73 117.196 62.075
2.74 123.208 58.813
2.75 127.109 54.570
2.76 --undefined-- 48.836
2.77 --undefined-- 44.103
2.78 --undefined-- 42.514
2.79 --undefined-- 40.996
2.80 --undefined-- 38.889
2.81 --undefined-- 46.007
2.82 --undefined-- 57.044
2.83 --undefined-- 65.076
2.84 197.266 69.777
2.85 197.091 71.993
2.86 197.266 73.010
2.87 196.249 73.686
2.88 194.574 74.058
2.89 187.828 73.711
2.90 180.035 71.971
2.91 170.028 68.394
2.92 162.291 63.177
2.93 --undefined-- 59.445
2.94 --undefined-- 59.067
2.95 --undefined-- 59.081
2.96 --undefined-- 58.676
2.97 --undefined-- 57.663
2.98 --undefined-- 56.303
2.99 --undefined-- 54.956
3.00 --undefined-- 54.526
3.01 --undefined-- 55.749
3.02 --undefined-- 57.241
3.03 --undefined-- 58.274
3.04 --undefined-- 59.576
3.05 --undefined-- 64.811
3.06 --undefined-- 70.348
3.07 187.325 72.836
3.08 185.521 73.311
3.09 181.652 73.613
3.10 178.214 73.957
3.11 174.170 73.967
3.12 171.586 74.154
3.13 170.623 74.646
3.14 169.572 75.048
3.15 168.843 75.247
3.16 167.933 75.123
3.17 167.213 74.837
3.18 166.536 74.578
3.19 164.769 73.891
3.20 158.616 72.371
3.21 168.197 71.057
3.22 168.733 71.578
3.23 168.317 72.944
3.24 171.860 73.775
3.25 169.853 73.863
3.26 162.811 73.763
3.27 161.124 73.904
3.28 160.166 74.128
3.29 158.708 74.112
3.30 156.718 74.074
3.31 154.665 74.406
3.32 151.900 74.469
3.33 145.864 73.329
3.34 141.871 70.698
3.35 145.187 67.265
3.36 140.369 64.514
3.37 128.820 62.821
3.38 121.877 63.414
3.39 120.612 66.188
3.40 117.708 68.524
3.41 111.811 69.305
3.42 101.391 68.784
3.43 95.436 67.711
3.44 93.289 66.581
3.45 92.329 65.603
3.46 91.949 64.396
3.47 92.016 62.938
3.48 92.499 62.152
3.49 93.494 62.077
3.50 93.762 61.954
3.51 93.446 61.589
3.52 91.119 61.248
3.53 80.785 61.401
3.54 80.779 62.683
3.55 107.978 65.418
3.56 107.760 67.720
3.57 109.752 69.119
3.58 112.912 70.157
3.59 115.820 70.875
3.60 122.023 71.320
3.61 129.892 71.725
3.62 140.625 72.426
3.63 147.041 73.351
3.64 151.317 74.018
3.65 152.209 74.285
3.66 153.032 74.150
3.67 153.456 73.726
3.68 153.842 72.846
3.69 151.365 71.365
3.70 148.864 69.842
3.71 147.497 68.950
3.72 148.748 69.079
3.73 147.261 70.219
3.74 146.994 71.674
3.75 147.381 72.782
3.76 146.668 73.270
3.77 143.203 72.938
3.78 133.361 71.856
3.79 128.306 70.686
3.80 120.671 70.119
3.81 119.656 70.085
3.82 118.207 70.218
3.83 116.433 70.351
3.84 115.853 70.531
3.85 115.978 70.802
3.86 116.684 71.085
3.87 117.241 71.054
3.88 117.333 69.957
3.89 115.605 67.085
3.90 116.509 62.536
3.91 129.395 57.697
3.92 134.402 53.482
3.93 --undefined-- 53.001
3.94 --undefined-- 55.702
3.95 --undefined-- 57.289
3.96 --undefined-- 58.052
3.97 --undefined-- 62.276
3.98 160.526 68.687
3.99 162.782 72.531
4.00 161.970 73.957
4.01 160.508 74.161
4.02 160.085 74.034
4.03 160.009 73.747
4.04 159.703 73.249
4.05 158.591 72.493
4.06 158.203 71.809
4.07 157.206 71.400
4.08 155.988 71.005
4.09 154.835 70.338
4.10 148.835 68.982
4.11 --undefined-- 66.909
4.12 --undefined-- 64.652
4.13 --undefined-- 62.276
4.14 --undefined-- 59.426
4.15 --undefined-- 56.860
4.16 --undefined-- 55.013
4.17 --undefined-- 52.856
4.18 --undefined-- 51.038
4.19 --undefined-- 50.646
4.20 --undefined-- 50.860
4.21 --undefined-- 50.835
4.22 --undefined-- 50.261
4.23 --undefined-- 50.079
4.24 --undefined-- 50.752
4.25 --undefined-- 51.250
4.26 --undefined-- 51.179
4.27 --undefined-- 51.450
4.28 --undefined-- 52.045
4.29 --undefined-- 52.809
4.30 --undefined-- 58.765
4.31 --undefined-- 65.419
4.32 --undefined-- 68.482
4.33 111.738 68.497
4.34 97.974 67.078
4.35 --undefined-- 66.534
4.36 --undefined-- 66.735
4.37 --undefined-- 66.681
4.38 --undefined-- 66.538
4.39 88.196 66.301
4.40 98.445 66.639
4.41 99.828 67.591
4.42 103.413 68.716
4.43 107.572 69.885
4.44 111.450 71.021
4.45 114.385 72.055
4.46 118.489 72.763
4.47 123.056 73.225
4.48 127.326 73.720
4.49 132.186 74.150
4.50 136.748 74.170
4.51 143.026 73.602
4.52 151.168 72.720
4.53 153.589 72.054
4.54 153.645 72.199
4.55 154.877 73.474
4.56 154.518 74.641
4.57 152.704 74.583
4.58 140.140 73.312
4.59 131.223 71.323
4.60 121.102 69.808
4.61 114.212 69.172
4.62 106.646 68.166
4.63 102.394 66.198
4.64 90.673 62.974
4.65 95.918 59.667
4.66 96.491 56.821
4.67 121.507 53.948
4.68 --undefined-- 50.363
4.69 --undefined-- 45.750
4.70 --undefined-- 43.290
4.71 --undefined-- 43.408
4.72 --undefined-- 42.827
4.73 --undefined-- 41.505
4.74 --undefined-- 39.812
4.75 --undefined-- 38.275
4.76 --undefined-- 39.166
4.77 --undefined-- 48.077
4.78 --undefined-- 58.310
4.79 --undefined-- 64.675
4.80 --undefined-- 67.787
4.81 113.969 68.704
4.82 103.211 68.174
4.83 101.070 66.337
4.84 --undefined-- 62.854
4.85 --undefined-- 57.603
4.86 --undefined-- 51.931
4.87 --undefined-- 46.762
4.88 --undefined-- 43.278
4.89 --undefined-- 42.413
4.90 --undefined-- 45.811
4.91 --undefined-- 50.966
4.92 --undefined-- 53.121
4.93 --undefined-- 52.609
4.94 --undefined-- 52.211
4.95 --undefined-- 52.668
4.96 --undefined-- 53.121
4.97 --undefined-- 54.304
4.98 --undefined-- 55.464
4.99 --undefined-- 60.377
5.00 --undefined-- 66.789
5.01 --undefined-- 69.993
5.02 110.532 70.309
5.03 102.726 69.067
5.04 96.482 67.718
5.05 93.477 67.016
5.06 92.976 66.683
5.07 94.762 66.620
5.08 99.679 67.097
5.09 102.419 67.990
5.10 107.964 69.214
5.11 112.537 70.518
5.12 116.668 71.436
5.13 123.478 72.049
5.14 130.620 --undefined--
5.15 134.356 --undefined--
5.16 --undefined-- --undefined--
5.17 --undefined-- --undefined--
