Time Pitch Intensity
0.01 --undefined-- --undefined--
0.02 171.338 --undefined--
0.03 --undefined-- --undefined--
0.04 --undefined-- --undefined--
0.05 192.277 62.131
0.06 193.672 68.312
0.07 193.497 72.154
0.08 191.980 73.427
0.09 189.314 72.587
0.10 184.855 71.359
0.11 169.290 71.167
0.12 163.626 70.939
0.13 162.917 70.208
0.14 162.073 69.029
0.15 --undefined-- 67.980
0.16 142.994 67.239
0.17 136.299 65.300
0.18 135.172 61.915
0.19 135.918 57.997
0.20 --undefined-- 56.046
0.21 --undefined-- 56.920
0.22 135.425 57.984
0.23 143.269 58.111
0.24 149.605 57.619
0.25 148.894 57.632
0.26 148.456 57.717
0.27 146.926 57.276
0.28 142.274 56.088
0.29 129.145 54.337
0.30 130.995 52.822
0.31 --undefined-- 54.484
0.32 170.141 60.125
0.33 170.687 64.619
0.34 173.856 67.112
0.35 179.495 68.659
0.36 180.252 70.113
0.37 175.700 70.770
0.38 170.802 70.140
0.39 167.926 69.130
0.40 166.407 68.745
0.41 165.915 68.265
0.42 166.594 66.998
0.43 168.427 65.877
0.44 168.886 65.557
0.45 168.318 65.380
0.46 167.206 65.225
0.47 166.793 65.219
0.48 166.793 65.201
0.49 166.805 64.934
0.50 166.747 64.450
0.51 166.525 64.022
0.52 166.145 63.833
0.53 166.377 63.769
0.54 168.623 63.832
0.55 176.414 63.902
0.56 179.610 63.046
0.57 178.129 60.290
0.58 181.872 55.716
0.59 186.453 51.557
0.60 --undefined-- 50.029
0.61 --undefined-- 50.460
0.62 --undefined-- 50.916
0.63 --undefined-- 52.665
0.64 --undefined-- 54.554
0.65 --undefined-- 55.016
0.66 --undefined-- 54.845
0.67 --undefined-- 55.497
0.68 --undefined-- 56.613
0.69 --undefined-- 57.356
0.70 --undefined-- 57.923
0.71 --undefined-- 62.661
0.72 --undefined-- 66.913
0.73 --undefined-- 68.789
0.74 --undefined-- 69.059
0.75 --undefined-- 68.345
0.76 --undefined-- 67.903
0.77 --undefined-- 68.066
0.78 --undefined-- 67.368
0.79 --undefined-- 66.388
0.80 --undefined-- 65.877
0.81 --undefined-- 65.429
0.82 162.955 65.589
0.83 166.913 66.775
0.84 170.471 67.686
0.85 175.669 67.395
0.86 182.519 65.706
0.87 214.909 63.810
0.88 225.921 63.594
0.89 231.049 63.701
0.90 233.816 62.836
0.91 232.534 61.223
0.92 231.206 60.304
0.93 242.022 63.196
0.94 244.900 67.794
0.95 241.663 70.723
0.96 236.896 71.737
0.97 232.304 71.398
0.98 228.007 70.217
0.99 221.627 68.430
1.00 215.162 66.475
1.01 209.769 64.809
1.02 199.301 63.249
1.03 193.924 62.359
1.04 190.697 62.316
1.05 185.743 62.159
1.06 181.043 61.678
1.07 174.609 61.284
1.08 172.045 61.061
1.09 170.813 60.988
1.10 166.645 61.110
1.11 166.164 61.072
1.12 168.123 61.175
1.13 175.299 63.266
1.14 180.629 67.780
1.15 181.593 71.054
1.16 180.409 72.059
1.17 178.899 71.509
1.18 177.243 70.711
1.19 171.028 70.406
1.20 166.265 70.386
1.21 153.362 70.653
1.22 151.361 71.108
1.23 150.765 71.517
1.24 148.662 71.860
1.25 148.922 71.694
1.26 151.109 70.689
1.27 151.380 69.660
1.28 150.714 69.477
1.29 150.353 69.658
1.30 150.139 69.693
1.31 149.037 69.675
1.32 148.575 69.600
1.33 149.454 69.102
1.34 153.000 68.201
1.35 155.191 67.535
1.36 153.899 67.319
1.37 153.746 66.720
1.38 158.789 65.758
1.39 160.901 65.166
1.40 161.037 64.544
1.41 164.507 63.514
1.42 169.248 62.875
1.43 171.672 63.230
1.44 174.982 64.215
1.45 180.148 65.025
1.46 185.612 65.117
1.47 191.124 64.672
1.48 196.404 64.478
1.49 202.540 65.516
1.50 208.288 68.836
1.51 211.608 71.992
1.52 212.276 73.387
1.53 214.212 73.396
1.54 216.956 72.936
1.55 219.596 72.476
1.56 222.121 72.299
1.57 221.840 72.483
1.58 221.096 72.435
1.59 219.110 71.922
1.60 216.769 71.272
1.61 216.018 70.799
1.62 216.157 70.737
1.63 216.295 70.917
1.64 216.199 70.768
1.65 216.017 70.358
1.66 216.095 70.127
1.67 215.902 70.035
1.68 215.829 69.848
1.69 215.245 69.279
1.70 214.557 67.954
1.71 213.731 65.816
1.72 213.137 63.154
1.73 208.895 60.499
1.74 202.787 58.013
1.75 198.761 56.073
1.76 189.121 56.853
1.77 180.643 60.085
1.78 172.198 63.555
1.79 166.705 66.399
1.80 161.421 68.080
1.81 155.323 68.666
1.82 150.549 68.287
1.83 148.801 66.979
1.84 149.271 65.531
1.85 152.424 64.227
1.86 155.781 63.268
1.87 159.496 63.420
1.88 163.138 64.711
1.89 169.424 65.887
1.90 174.423 66.074
1.91 173.791 65.963
1.92 171.367 66.185
1.93 172.551 66.628
1.94 173.128 67.346
1.95 171.871 68.033
1.96 171.602 68.432
1.97 168.972 68.428
1.98 166.849 67.803
1.99 166.749 66.657
2.00 167.152 65.591
2.01 157.568 64.975
2.02 154.320 64.767
2.03 152.545 64.588
2.04 148.988 64.563
2.05 146.522 65.371
2.06 144.434 66.875
2.07 142.342 68.458
2.08 150.546 69.440
2.09 151.115 70.222
2.10 128.556 71.176
2.11 128.367 71.567
2.12 121.335 70.916
2.13 118.390 70.348
2.14 117.849 70.951
2.15 117.800 71.524
2.16 117.598 71.497
2.17 113.400 70.997
2.18 112.091 70.212
2.19 117.047 69.026
2.20 119.772 67.954
2.21 121.095 67.531
2.22 120.972 67.147
2.23 129.478 66.855
2.24 127.838 65.953
2.25 127.147 64.171
2.26 148.648 62.535
2.27 146.181 60.600
2.28 --undefined-- 58.152
2.29 --undefined-- 55.082
2.30 --undefined-- 51.354
2.31 --undefined-- 48.479
2.32 --undefined-- 44.132
2.33 --undefined-- 35.732
2.34 --undefined-- 27.266
2.35 --undefined-- 25.635
2.36 --undefined-- 25.404
2.37 --undefined-- 25.363
2.38 --undefined-- 24.954
2.39 --undefined-- 24.970
2.40 --undefined-- 30.142
2.41 --undefined-- 39.659
2.42 --undefined-- 46.685
2.43 --undefined-- 50.948
2.44 --undefined-- 53.698
2.45 --undefined-- 55.780
2.46 --undefined-- 57.222
2.47 --undefined-- 58.222
2.48 --undefined-- 58.481
2.49 --undefined-- 58.659
2.50 --undefined-- 59.704
2.51 --undefined-- 59.839
2.52 --undefined-- 58.205
2.53 --undefined-- 55.562
2.54 272.111 56.004
2.55 270.589 58.130
2.56 274.206 59.147
2.57 --undefined-- 58.926
2.58 --undefined-- 56.549
2.59 --undefined-- 53.000
2.60 --undefined-- 51.508
2.61 --undefined-- 51.599
2.62 --undefined-- 52.411
2.63 --undefined-- 53.080
2.64 --undefined-- 52.764
2.65 --undefined-- 51.600
2.66 --undefined-- 49.557
2.67 --undefined-- 46.741
2.68 --undefined-- 42.822
2.69 --undefined-- 36.959
2.70 --undefined-- 30.400
2.71 --undefined-- 25.301
2.72 --undefined-- 23.382
2.73 --undefined-- 24.997
2.74 --undefined-- 34.264
2.75 --undefined-- 43.222
2.76 --undefined-- 48.990
2.77 --undefined-- 57.181
2.78 --undefined-- 64.585
2.79 99.283 68.822
2.80 98.389 70.609
2.81 215.873 70.925
2.82 215.032 70.078
2.83 218.614 68.774
2.84 249.308 69.634
2.85 266.459 71.206
2.86 283.194 71.771
2.87 --undefined-- 71.687
2.88 155.703 71.118
2.89 162.780 70.228
2.90 167.677 69.511
2.91 170.209 68.781
2.92 173.688 67.797
2.93 173.670 66.133
2.94 171.210 62.964
2.95 169.258 57.947
2.96 --undefined-- 57.501
2.97 --undefined-- 64.712
2.98 275.930 69.286
2.99 265.853 71.240
3.00 237.972 71.921
3.01 222.271 72.696
3.02 214.628 73.116
3.03 --undefined-- 72.583
3.04 185.448 72.112
3.05 182.559 72.330
3.06 180.426 72.419
3.07 178.402 71.767
3.08 176.693 70.659
3.09 174.194 69.629
3.10 172.705 68.662
3.11 172.073 67.457
3.12 172.537 66.135
3.13 173.917 64.977
3.14 173.186 64.319
3.15 171.108 63.927
3.16 168.098 63.574
3.17 165.116 63.495
3.18 162.976 63.537
3.19 161.458 63.062
3.20 161.066 61.883
3.21 163.627 60.344
3.22 161.570 58.817
3.23 144.094 58.548
3.24 148.656 59.644
3.25 149.818 60.596
3.26 151.320 61.458
3.27 155.759 62.173
3.28 157.900 62.742
3.29 159.663 63.291
3.30 160.488 63.445
3.31 160.247 62.914
3.32 158.980 61.570
3.33 150.236 59.288
3.34 143.982 56.884
3.35 295.446 56.427
3.36 297.191 59.807
3.37 --undefined-- 66.148
3.38 226.058 71.051
3.39 229.388 73.409
3.40 230.454 73.763
3.41 233.044 73.207
3.42 235.612 72.839
3.43 238.487 72.514
3.44 241.706 71.803
3.45 241.802 70.781
3.46 242.757 69.408
3.47 246.442 67.843
3.48 250.771 66.322
3.49 258.615 64.843
3.50 264.229 64.276
3.51 260.329 65.094
3.52 258.552 66.126
3.53 256.104 67.231
3.54 248.843 68.938
3.55 244.958 70.621
3.56 241.127 71.280
3.57 233.812 70.352
3.58 225.095 67.839
3.59 216.155 64.683
3.60 209.460 64.594
3.61 206.212 67.645
3.62 204.291 70.369
3.63 201.819 72.110
3.64 201.093 72.922
3.65 198.353 72.935
3.66 189.320 72.369
3.67 182.345 70.970
3.68 179.883 68.156
3.69 176.529 63.661
3.70 170.177 57.891
3.71 --undefined-- 51.661
3.72 --undefined-- 51.408
3.73 --undefined-- 56.979
3.74 --undefined-- 59.667
3.75 --undefined-- 59.778
3.76 --undefined-- 58.676
3.77 --undefined-- 57.793
3.78 --undefined-- 57.787
3.79 --undefined-- 59.115
3.80 --undefined-- 61.128
3.81 --undefined-- 63.055
3.82 263.328 65.639
3.83 270.193 68.225
3.84 273.302 69.418
3.85 268.722 69.095
3.86 257.833 68.452
3.87 253.019 68.555
3.88 249.187 69.030
3.89 245.025 69.294
3.90 242.103 69.271
3.91 241.976 69.123
3.92 240.730 68.810
3.93 236.578 68.004
3.94 232.667 66.613
3.95 226.115 64.653
3.96 214.403 63.421
3.97 208.562 65.271
3.98 205.610 69.091
3.99 202.068 72.164
4.00 197.877 73.148
4.01 183.203 72.440
4.02 173.481 71.576
4.03 166.737 71.081
4.04 162.817 70.301
4.05 159.381 68.621
4.06 156.729 65.946
4.07 154.137 62.627
4.08 151.225 58.634
4.09 --undefined-- 53.524
4.10 --undefined-- 47.556
4.11 --undefined-- 42.445
4.12 --undefined-- 36.209
4.13 --undefined-- 28.555
4.14 --undefined-- 25.221
4.15 --undefined-- 27.171
4.16 --undefined-- 28.818
4.17 --undefined-- 27.858
4.18 --undefined-- 24.981
4.19 --undefined-- 38.722
4.20 --undefined-- 54.739
4.21 --undefined-- 63.441
4.22 --undefined-- 66.858
4.23 --undefined-- 66.000
4.24 --undefined-- 64.878
4.25 118.966 67.888
4.26 118.255 69.893
4.27 116.879 70.052
4.28 115.858 69.072
4.29 116.319 67.409
4.30 116.684 64.468
4.31 132.278 60.358
4.32 142.125 59.905
4.33 148.560 61.297
4.34 153.644 61.667
4.35 162.258 61.569
4.36 173.767 61.644
4.37 181.534 61.788
4.38 186.638 61.670
4.39 191.334 61.463
4.40 195.514 61.661
4.41 199.184 62.182
4.42 203.775 64.521
4.43 202.152 67.825
4.44 200.809 69.529
4.45 200.661 69.893
4.46 199.880 69.779
4.47 196.984 69.621
4.48 194.373 69.502
4.49 191.237 69.289
4.50 188.755 68.687
4.51 184.644 67.488
4.52 179.120 66.007
4.53 174.306 64.097
4.54 166.822 61.242
4.55 160.329 57.505
4.56 --undefined-- 56.180
4.57 --undefined-- 61.370
4.58 160.939 65.744
4.59 158.878 68.356
4.60 155.971 69.723
4.61 152.709 69.873
4.62 151.109 68.361
4.63 149.671 64.397
4.64 --undefined-- 56.922
4.65 --undefined-- 46.248
4.66 --undefined-- 37.735
4.67 --undefined-- 32.081
4.68 --undefined-- 28.894
4.69 --undefined-- 27.654
4.70 --undefined-- 26.734
4.71 --undefined-- 26.236
4.72 --undefined-- 26.369
4.73 --undefined-- 26.503
4.74 --undefined-- 25.754
4.75 --undefined-- 25.072
4.76 --undefined-- 25.211
4.77 --undefined-- 26.430
4.78 --undefined-- 32.933
4.79 --undefined-- 38.056
4.80 --undefined-- 39.164
4.81 --undefined-- 36.485
4.82 --undefined-- 31.085
4.83 --undefined-- 26.260
4.84 --undefined-- 24.945
4.85 --undefined-- 25.856
4.86 --undefined-- 27.354
4.87 --undefined-- 30.448
4.88 --undefined-- 38.355
4.89 --undefined-- 45.674
4.90 --undefined-- 51.697
4.91 --undefined-- 55.627
4.92 --undefined-- 57.355
4.93 --undefined-- 57.164
4.94 --undefined-- 55.282
4.95 --undefined-- 53.560
4.96 --undefined-- 53.544
4.97 --undefined-- 54.000
4.98 --undefined-- 54.280
4.99 --undefined-- 55.129
5.00 --undefined-- 56.268
5.01 --undefined-- 56.034
5.02 --undefined-- 53.843
5.03 --undefined-- 51.808
5.04 --undefined-- 54.133
5.05 237.581 59.015
5.06 216.508 63.784
5.07 209.093 67.790
5.08 207.135 70.267
5.09 204.986 70.946
5.10 203.498 70.514
5.11 202.399 69.872
5.12 202.881 69.454
5.13 200.740 69.317
5.14 199.580 69.134
5.15 200.877 68.952
5.16 202.359 68.988
5.17 203.742 68.968
5.18 201.266 69.099
5.19 200.267 69.641
5.20 200.543 69.721
5.21 200.325 68.989
5.22 200.557 67.930
5.23 201.354 67.044
5.24 200.562 66.551
5.25 199.588 66.585
5.26 199.227 66.838
5.27 198.144 66.905
5.28 193.972 66.667
5.29 190.134 66.128
5.30 187.507 65.547
5.31 184.935 64.825
5.32 178.047 64.605
5.33 172.642 66.959
5.34 164.226 70.061
5.35 163.048 72.184
5.36 162.895 72.956
5.37 164.157 72.439
5.38 165.717 70.856
5.39 162.805 69.242
5.40 163.666 68.993
5.41 183.365 69.630
5.42 186.449 70.004
5.43 195.459 69.635
5.44 204.434 68.436
5.45 207.816 65.865
5.46 213.737 61.740
5.47 216.911 --undefined--
5.48 218.333 --undefined--
5.49 --undefined-- --undefined--
5.50 --undefined-- --undefined--
