Time Pitch Intensity
0.01 --undefined-- --undefined--
0.02 173.273 --undefined--
0.03 171.828 --undefined--
0.04 159.016 --undefined--
0.05 151.152 70.776
0.06 145.257 70.970
0.07 141.636 70.940
0.08 138.861 70.698
0.09 136.620 70.546
0.10 134.832 70.401
0.11 133.424 70.226
0.12 133.621 69.838
0.13 133.508 69.081
0.14 132.065 68.265
0.15 130.571 66.622
0.16 130.373 62.792
0.17 --undefined-- 56.102
0.18 --undefined-- 50.528
0.19 --undefined-- 53.589
0.20 --undefined-- 57.732
0.21 --undefined-- 58.684
0.22 --undefined-- 56.934
0.23 --undefined-- 55.476
0.24 156.613 55.401
0.25 160.006 55.751
0.26 171.577 57.253
0.27 175.275 60.252
0.28 --undefined-- 63.271
0.29 128.040 65.119
0.30 125.008 65.756
0.31 123.157 65.206
0.32 120.585 63.158
0.33 --undefined-- 59.350
0.34 --undefined-- 53.868
0.35 --undefined-- 50.418
0.36 --undefined-- 53.501
0.37 --undefined-- 55.312
0.38 --undefined-- 54.202
0.39 --undefined-- 51.420
0.40 --undefined-- 53.148
0.41 157.575 58.067
0.42 155.132 61.110
0.43 149.244 62.908
0.44 131.369 64.623
0.45 124.718 65.854
0.46 119.070 66.302
0.47 117.349 65.689
0.48 117.659 63.321
0.49 --undefined-- 59.020
0.50 --undefined-- 55.603
0.51 --undefined-- 56.311
0.52 --undefined-- 58.101
0.53 --undefined-- 60.831
0.54 --undefined-- 63.682
0.55 197.595 65.813
0.56 190.467 68.164
0.57 188.435 69.880
0.58 191.988 70.343
0.59 195.942 70.166
0.60 195.309 69.732
0.61 190.130 68.847
0.62 181.476 67.388
0.63 175.747 64.904
0.64 171.890 60.829
0.65 --undefined-- 55.332
0.66 --undefined-- 51.248
0.67 --undefined-- 50.222
0.68 --undefined-- 49.841
0.69 --undefined-- 49.717
0.70 --undefined-- 51.223
0.71 --undefined-- 57.459
0.72 228.543 63.566
0.73 224.639 66.551
0.74 218.829 66.529
0.75 --undefined-- 64.130
0.76 --undefined-- 61.533
0.77 --undefined-- 60.153
0.78 104.553 58.121
0.79 106.517 56.294
0.80 --undefined-- 55.185
0.81 --undefined-- 52.887
0.82 --undefined-- 49.673
0.83 --undefined-- 47.613
0.84 --undefined-- 46.459
0.85 --undefined-- 45.511
0.86 --undefined-- 45.476
0.87 --undefined-- 47.875
0.88 --undefined-- 50.478
0.89 --undefined-- 56.582
0.90 --undefined-- 64.505
0.91 --undefined-- 69.300
0.92 144.009 71.611
0.93 142.864 72.392
0.94 142.631 71.969
0.95 140.750 70.801
0.96 140.297 69.987
0.97 140.333 69.730
0.98 141.222 69.052
0.99 144.915 67.672
1.00 145.867 65.983
1.01 147.245 63.558
1.02 149.709 60.310
1.03 150.553 57.701
1.04 151.767 56.369
1.05 164.120 57.042
1.06 168.942 60.407
1.07 157.861 64.904
1.08 151.710 68.952
1.09 148.248 71.035
1.10 138.972 71.167
1.11 --undefined-- 70.595
1.12 --undefined-- 69.921
1.13 --undefined-- 68.555
1.14 --undefined-- 66.594
1.15 --undefined-- 65.073
1.16 --undefined-- 64.318
1.17 103.382 63.637
1.18 105.131 61.586
1.19 --undefined-- 58.180
1.20 --undefined-- 56.173
1.21 --undefined-- 57.434
1.22 --undefined-- 57.820
1.23 --undefined-- 55.700
1.24 --undefined-- 51.205
1.25 --undefined-- 49.105
1.26 --undefined-- 53.316
1.27 --undefined-- 59.158
1.28 134.297 63.909
1.29 135.908 66.520
1.30 141.382 67.859
1.31 137.989 68.217
1.32 134.444 67.289
1.33 132.014 65.158
1.34 130.534 61.784
1.35 --undefined-- 56.969
1.36 --undefined-- 51.200
1.37 --undefined-- 48.505
1.38 --undefined-- 56.091
1.39 --undefined-- 62.911
1.40 --undefined-- 66.110
1.41 --undefined-- 66.127
1.42 --undefined-- 63.700
1.43 --undefined-- 61.145
1.44 --undefined-- 62.311
1.45 --undefined-- 65.386
1.46 199.159 68.610
1.47 187.948 71.481
1.48 188.625 72.826
1.49 191.451 72.922
1.50 193.922 72.612
1.51 194.327 71.989
1.52 191.059 70.722
1.53 189.976 68.517
1.54 200.620 65.650
1.55 209.363 63.039
1.56 211.498 62.234
1.57 216.461 64.217
1.58 219.039 65.779
1.59 220.088 66.964
1.60 202.518 69.235
1.61 189.074 70.904
1.62 173.115 71.268
1.63 161.560 70.984
1.64 154.564 70.908
1.65 149.291 71.382
1.66 145.128 71.439
1.67 141.935 70.051
1.68 140.239 66.947
1.69 137.932 63.128
1.70 137.903 61.119
1.71 137.724 60.272
1.72 136.738 59.198
1.73 136.428 57.914
1.74 134.897 56.431
1.75 132.320 54.939
1.76 132.940 53.342
1.77 --undefined-- 51.374
1.78 --undefined-- 51.415
1.79 --undefined-- 52.426
1.80 --undefined-- 52.487
1.81 --undefined-- 51.246
1.82 --undefined-- 47.851
1.83 --undefined-- 44.516
1.84 --undefined-- 44.733
1.85 --undefined-- 48.419
1.86 --undefined-- 54.040
1.87 --undefined-- 62.205
1.88 --undefined-- 67.902
1.89 186.996 70.579
1.90 190.068 70.892
1.91 213.018 70.051
1.92 214.587 69.737
1.93 207.477 69.974
1.94 198.513 69.942
1.95 190.200 69.143
1.96 183.656 66.520
1.97 --undefined-- 61.068
1.98 --undefined-- 52.647
1.99 --undefined-- 46.868
2.00 --undefined-- 46.914
2.01 --undefined-- 46.989
2.02 --undefined-- 49.955
2.03 --undefined-- 56.026
2.04 --undefined-- 60.374
2.05 164.574 62.293
2.06 165.982 62.879
2.07 163.041 63.415
2.08 163.423 64.411
2.09 166.090 65.279
2.10 167.698 66.237
2.11 165.985 67.654
2.12 148.715 69.068
2.13 142.723 70.107
2.14 143.419 70.866
2.15 145.194 70.974
2.16 148.499 69.844
2.17 148.633 67.038
2.18 146.051 61.996
2.19 148.733 55.224
2.20 148.234 51.387
2.21 --undefined-- 49.330
2.22 --undefined-- 47.936
2.23 --undefined-- 56.353
2.24 --undefined-- 64.109
2.25 --undefined-- 68.030
2.26 --undefined-- 70.233
2.27 --undefined-- 72.758
2.28 215.254 74.387
2.29 215.147 74.743
2.30 218.324 74.323
2.31 222.775 73.737
2.32 225.261 73.456
2.33 225.692 73.179
2.34 225.145 72.546
2.35 224.648 71.520
2.36 223.465 70.224
2.37 221.770 69.061
2.38 223.472 68.371
2.39 231.995 67.690
2.40 243.214 66.080
2.41 243.427 63.113
2.42 229.005 59.593
2.43 --undefined-- 57.085
2.44 --undefined-- 55.680
2.45 --undefined-- 54.959
2.46 --undefined-- 56.030
2.47 --undefined-- 58.305
2.48 --undefined-- 64.629
2.49 239.958 70.223
2.50 228.389 72.932
2.51 215.421 73.636
2.52 207.328 73.484
2.53 202.675 73.319
2.54 199.485 73.479
2.55 197.532 73.489
2.56 197.871 72.759
2.57 198.672 70.642
2.58 197.538 66.835
2.59 195.154 62.294
2.60 196.130 58.456
2.61 201.641 54.964
2.62 --undefined-- 51.983
2.63 --undefined-- 50.766
2.64 --undefined-- 51.117
2.65 --undefined-- 51.385
2.66 --undefined-- 52.908
2.67 --undefined-- 60.503
2.68 --undefined-- 67.300
2.69 --undefined-- 71.099
2.70 --undefined-- 72.683
2.71 --undefined-- 72.682
2.72 --undefined-- 71.573
2.73 --undefined-- 70.126
2.74 --undefined-- 69.312
2.75 74.793 68.811
2.76 --undefined-- 68.048
2.77 --undefined-- 67.285
2.78 142.919 66.721
2.79 147.196 66.092
2.80 150.677 65.214
2.81 156.063 64.371
2.82 161.595 64.488
2.83 166.810 64.911
2.84 171.979 64.841
2.85 178.255 65.696
2.86 185.574 68.582
2.87 183.175 70.586
2.88 180.974 71.028
2.89 180.390 70.832
2.90 178.609 69.940
2.91 174.938 67.258
2.92 --undefined-- 61.777
2.93 --undefined-- 54.067
2.94 --undefined-- 56.799
2.95 --undefined-- 61.784
2.96 --undefined-- 62.990
2.97 --undefined-- 62.143
2.98 --undefined-- 64.961
2.99 166.618 68.125
3.00 158.934 69.136
3.01 153.858 68.716
3.02 150.319 67.444
3.03 146.525 64.780
3.04 --undefined-- 59.738
3.05 --undefined-- 52.736
3.06 --undefined-- 51.089
3.07 --undefined-- 53.136
3.08 --undefined-- 57.135
3.09 --undefined-- 62.687
3.10 143.803 66.735
3.11 141.507 68.807
3.12 139.469 69.732
3.13 136.625 70.507
3.14 132.760 71.054
3.15 128.471 70.788
3.16 128.755 69.438
3.17 131.694 67.425
3.18 --undefined-- 65.626
3.19 --undefined-- 64.188
3.20 --undefined-- 62.513
3.21 --undefined-- 59.204
3.22 --undefined-- 53.501
3.23 --undefined-- 47.137
3.24 --undefined-- 45.546
3.25 --undefined-- 49.024
3.26 --undefined-- 52.797
3.27 --undefined-- 55.898
3.28 --undefined-- 57.640
3.29 --undefined-- 58.315
3.30 --undefined-- 59.948
3.31 --undefined-- 61.795
3.32 --undefined-- 62.642
3.33 --undefined-- 62.925
3.34 --undefined-- 62.222
3.35 --undefined-- 61.778
3.36 170.080 65.141
3.37 161.921 67.851
3.38 159.263 68.694
3.39 158.016 68.603
3.40 155.283 68.176
3.41 151.986 67.849
3.42 150.498 68.029
3.43 150.309 68.944
3.44 152.064 69.846
3.45 156.015 69.250
3.46 168.409 66.737
3.47 189.973 64.413
3.48 194.337 64.614
3.49 174.830 67.107
3.50 169.499 69.651
3.51 164.164 71.005
3.52 160.832 71.338
3.53 161.647 71.137
3.54 163.403 70.916
3.55 163.398 70.490
3.56 164.202 69.441
3.57 165.139 68.733
3.58 163.498 68.959
3.59 162.242 68.301
3.60 163.413 65.454
3.61 164.966 60.004
3.62 --undefined-- 52.777
3.63 --undefined-- 52.327
3.64 --undefined-- 56.374
3.65 --undefined-- 58.195
3.66 --undefined-- 62.863
3.67 167.615 68.455
3.68 165.521 70.879
3.69 153.967 70.509
3.70 146.520 68.477
3.71 141.953 65.431
3.72 148.476 62.514
3.73 154.020 62.928
3.74 152.575 63.951
3.75 153.486 64.275
3.76 156.453 64.718
3.77 158.070 65.506
3.78 161.440 66.215
3.79 167.076 66.364
3.80 171.818 65.797
3.81 174.404 64.679
3.82 174.575 63.337
3.83 173.948 61.754
3.84 175.036 59.534
3.85 173.483 56.950
3.86 169.819 55.347
3.87 166.772 56.221
3.88 160.940 58.940
3.89 159.467 61.298
3.90 155.424 65.717
3.91 157.262 70.775
3.92 153.249 73.506
3.93 147.979 74.004
3.94 144.253 73.019
3.95 141.015 71.417
3.96 138.623 69.570
3.97 136.540 67.232
3.98 133.133 64.178
3.99 129.901 60.370
4.00 129.187 57.362
4.01 129.416 57.132
4.02 128.525 57.570
4.03 129.732 57.936
4.04 132.146 58.649
4.05 134.596 59.387
4.06 137.565 59.783
4.07 142.900 59.990
4.08 149.286 60.239
4.09 155.671 60.461
4.10 163.296 60.611
4.11 171.554 60.326
4.12 172.219 59.112
4.13 175.336 56.917
4.14 --undefined-- 55.119
4.15 --undefined-- 55.901
4.16 --undefined-- 55.990
4.17 --undefined-- 54.725
4.18 --undefined-- 55.525
4.19 --undefined-- 56.637
4.20 --undefined-- 56.847
4.21 --undefined-- 60.646
4.22 --undefined-- 66.849
4.23 --undefined-- 70.732
4.24 --undefined-- 71.751
4.25 --undefined-- 70.621
4.26 --undefined-- 68.819
4.27 97.832 67.758
4.28 98.677 66.343
4.29 --undefined-- 64.187
4.30 --undefined-- 62.669
4.31 --undefined-- 61.257
4.32 --undefined-- 59.716
4.33 --undefined-- 58.218
4.34 151.556 56.919
4.35 154.793 58.543
4.36 157.674 62.560
4.37 158.309 65.760
4.38 157.293 67.252
4.39 152.964 67.257
4.40 149.645 66.565
4.41 146.674 65.282
4.42 144.099 62.301
4.43 --undefined-- 56.449
4.44 --undefined-- 48.878
4.45 --undefined-- 48.577
4.46 --undefined-- 54.258
4.47 --undefined-- 58.404
4.48 --undefined-- 59.636
4.49 --undefined-- 61.132
4.50 --undefined-- 64.569
4.51 137.843 66.794
4.52 133.652 68.296
4.53 129.865 69.516
4.54 126.632 70.039
4.55 123.965 69.663
4.56 --undefined-- 68.049
4.57 --undefined-- 65.254
4.58 --undefined-- 62.216
4.59 --undefined-- 58.741
4.60 --undefined-- 55.991
4.61 --undefined-- 55.187
4.62 --undefined-- 53.610
4.63 --undefined-- 51.929
4.64 --undefined-- 50.195
4.65 --undefined-- 48.042
4.66 --undefined-- 46.236
4.67 --undefined-- 46.541
4.68 --undefined-- 48.437
4.69 --undefined-- 50.327
4.70 --undefined-- 55.499
4.71 --undefined-- 61.687
4.72 --undefined-- 64.168
4.73 --undefined-- 63.652
4.74 --undefined-- 62.950
4.75 --undefined-- 62.679
4.76 --undefined-- 61.171
4.77 --undefined-- 58.439
4.78 --undefined-- 55.031
4.79 --undefined-- 53.432
4.80 --undefined-- 56.380
4.81 --undefined-- 59.334
4.82 --undefined-- 64.401
4.83 --undefined-- 69.380
4.84 --undefined-- 71.279
4.85 --undefined-- 70.259
4.86 125.919 67.735
4.87 123.572 65.159
4.88 121.309 62.449
4.89 122.857 58.816
4.90 123.011 54.736
4.91 --undefined-- 50.601
4.92 --undefined-- 46.007
4.93 --undefined-- 42.693
4.94 --undefined-- 40.819
4.95 --undefined-- 39.588
4.96 --undefined-- 39.792
4.97 --undefined-- 41.887
4.98 --undefined-- 43.424
4.99 --undefined-- 44.216
5.00 --undefined-- 44.627
5.01 --undefined-- --undefined--
5.02 --undefined-- --undefined--
5.03 --undefined-- --undefined--
5.04 --undefined-- --undefined--
