Time Pitch Intensity
0.01 --undefined-- --undefined--
0.02 81.043 --undefined--
0.03 --undefined-- --undefined--
0.04 --undefined-- --undefined--
0.05 --undefined-- 63.321
0.06 --undefined-- 58.787
0.07 --undefined-- 53.619
0.08 --undefined-- 50.203
0.09 --undefined-- 47.583
0.10 --undefined-- 44.396
0.11 --undefined-- 41.498
0.12 --undefined-- 40.566
0.13 --undefined-- 40.881
0.14 --undefined-- 41.718
0.15 --undefined-- 47.576
0.16 --undefined-- 59.123
0.17 --undefined-- 67.253
0.18 --undefined-- 71.447
0.19 --undefined-- 72.654
0.20 77.915 71.837
0.21 77.101 70.357
0.22 --undefined-- 68.959
0.23 --undefined-- 67.462
0.24 --undefined-- 66.105
0.25 --undefined-- 65.139
0.26 --undefined-- 64.100
0.27 --undefined-- 61.991
0.28 75.579 59.148
0.29 77.540 57.020
0.30 78.145 55.851
0.31 81.146 56.359
0.32 82.459 58.411
0.33 83.304 60.240
0.34 86.212 61.285
0.35 87.479 61.862
0.36 88.938 62.407
0.37 90.477 63.297
0.38 91.445 64.742
0.39 93.045 66.159
0.40 92.873 67.101
0.41 92.038 67.792
0.42 91.364 68.186
0.43 89.796 68.035
0.44 88.600 67.451
0.45 88.607 66.399
0.46 88.892 64.976
0.47 90.064 64.473
0.48 91.093 65.714
0.49 90.630 67.307
0.50 89.626 68.219
0.51 88.557 68.100
0.52 88.564 66.685
0.53 87.935 63.749
0.54 --undefined-- 59.073
0.55 --undefined-- 52.864
0.56 --undefined-- 47.041
0.57 --undefined-- 44.070
0.58 --undefined-- 42.487
0.59 --undefined-- 43.190
0.60 --undefined-- 43.991
0.61 --undefined-- 44.308
0.62 --undefined-- 45.085
0.63 --undefined-- 45.764
0.64 --undefined-- 46.165
0.65 76.866 46.930
0.66 75.964 52.249
0.67 --undefined-- 60.572
0.68 --undefined-- 66.413
0.69 --undefined-- 69.583
0.70 --undefined-- 70.131
0.71 --undefined-- 69.153
0.72 --undefined-- 68.476
0.73 --undefined-- 68.454
0.74 75.893 68.769
0.75 76.845 69.055
0.76 77.817 68.996
0.77 79.500 68.809
0.78 83.036 68.771
0.79 --undefined-- 68.771
0.80 --undefined-- 68.286
0.81 --undefined-- 66.617
0.82 --undefined-- 62.908
0.83 --undefined-- 56.361
0.84 --undefined-- 47.711
0.85 --undefined-- 41.884
0.86 --undefined-- 45.708
0.87 --undefined-- 56.509
0.88 --undefined-- 65.284
0.89 --undefined-- 70.413
0.90 93.301 72.357
0.91 78.941 71.930
0.92 --undefined-- 69.655
0.93 --undefined-- 65.172
0.94 --undefined-- 58.230
0.95 --undefined-- 49.924
0.96 --undefined-- 41.758
0.97 --undefined-- 38.368
0.98 --undefined-- 37.464
0.99 --undefined-- 35.483
1.00 --undefined-- 33.212
1.01 --undefined-- 34.330
1.02 --undefined-- 38.054
1.03 --undefined-- 44.550
1.04 --undefined-- 51.558
1.05 86.690 57.203
1.06 83.623 61.430
1.07 77.712 64.215
1.08 --undefined-- 64.988
1.09 --undefined-- 63.362
1.10 --undefined-- 59.480
1.11 --undefined-- 52.993
1.12 --undefined-- 43.876
1.13 --undefined-- 37.412
1.14 --undefined-- 36.208
1.15 --undefined-- 37.107
1.16 --undefined-- 37.391
1.17 --undefined-- 38.774
1.18 --undefined-- 41.877
1.19 --undefined-- 48.766
1.20 --undefined-- 56.193
1.21 91.800 61.407
1.22 87.968 65.297
1.23 84.858 68.723
1.24 82.724 70.995
1.25 80.969 71.473
1.26 80.470 70.988
1.27 78.841 70.720
1.28 78.270 70.571
1.29 78.364 70.311
1.30 78.349 70.182
1.31 78.119 70.073
1.32 78.331 69.718
1.33 79.350 69.260
1.34 80.827 68.738
1.35 80.860 68.096
1.36 81.757 67.738
1.37 82.651 67.840
1.38 82.441 67.685
1.39 81.746 66.870
1.40 81.903 65.441
1.41 81.828 63.449
1.42 81.812 60.643
1.43 --undefined-- 56.351
1.44 --undefined-- 50.758
1.45 --undefined-- 47.300
1.46 --undefined-- 45.562
1.47 --undefined-- 44.314
1.48 --undefined-- 43.364
1.49 --undefined-- 42.899
1.50 --undefined-- 43.224
1.51 --undefined-- 43.634
1.52 --undefined-- 43.546
1.53 --undefined-- 43.198
1.54 --undefined-- 43.278
1.55 --undefined-- 47.118
1.56 --undefined-- 52.588
1.57 --undefined-- 56.220
1.58 92.418 58.759
1.59 90.010 61.545
1.60 89.599 65.265
1.61 93.543 69.494
1.62 93.463 72.411
1.63 95.664 73.516
1.64 93.513 73.793
1.65 88.622 73.990
1.66 86.693 73.795
1.67 83.212 73.166
1.68 81.488 72.036
1.69 78.385 70.504
1.70 78.821 68.405
1.71 --undefined-- 65.364
1.72 --undefined-- 60.906
1.73 --undefined-- 54.288
1.74 --undefined-- 48.456
1.75 --undefined-- 44.577
1.76 --undefined-- 39.586
1.77 --undefined-- 36.781
1.78 --undefined-- 37.546
1.79 --undefined-- 38.183
1.80 --undefined-- 37.761
1.81 --undefined-- 40.831
1.82 --undefined-- 45.927
1.83 --undefined-- 50.112
1.84 --undefined-- 52.116
1.85 --undefined-- 51.902
1.86 --undefined-- 50.399
1.87 --undefined-- 48.730
1.88 --undefined-- 47.166
1.89 --undefined-- 45.833
1.90 --undefined-- 47.203
1.91 --undefined-- 47.661
1.92 --undefined-- 47.732
1.93 --undefined-- 49.480
1.94 --undefined-- 50.927
1.95 --undefined-- 51.198
1.96 --undefined-- 51.910
1.97 --undefined-- 52.865
1.98 --undefined-- 53.097
1.99 --undefined-- 52.898
2.00 --undefined-- 52.645
2.01 --undefined-- 53.553
2.02 --undefined-- 56.583
2.03 89.442 61.212
2.04 88.299 65.924
2.05 86.622 69.362
2.06 85.443 71.000
2.07 84.696 71.116
2.08 84.048 70.582
2.09 83.052 69.672
2.10 82.736 68.396
2.11 82.277 67.489
2.12 81.539 66.976
2.13 80.481 66.629
2.14 80.132 66.198
2.15 79.764 65.054
2.16 79.481 62.779
2.17 78.662 59.223
2.18 76.470 54.141
2.19 --undefined-- 48.110
2.20 --undefined-- 43.007
2.21 --undefined-- 39.402
2.22 --undefined-- 37.929
2.23 --undefined-- 38.464
2.24 --undefined-- 39.905
2.25 --undefined-- 40.147
2.26 --undefined-- 39.539
2.27 --undefined-- 40.023
2.28 --undefined-- 41.773
2.29 --undefined-- 44.936
2.30 --undefined-- 48.426
2.31 --undefined-- 51.348
2.32 --undefined-- 55.735
2.33 --undefined-- 62.332
2.34 91.367 67.522
2.35 85.734 70.322
2.36 83.720 71.074
2.37 82.290 70.794
2.38 82.049 70.214
2.39 79.272 69.016
2.40 --undefined-- 66.582
2.41 --undefined-- 62.178
2.42 --undefined-- 56.514
2.43 --undefined-- 52.825
2.44 --undefined-- 49.643
2.45 --undefined-- 47.586
2.46 --undefined-- 50.883
2.47 --undefined-- 54.295
2.48 75.824 57.056
2.49 214.028 60.488
2.50 211.314 64.322
2.51 211.291 67.631
2.52 208.100 69.642
2.53 212.622 69.489
2.54 218.987 68.253
2.55 219.477 68.519
2.56 217.773 67.388
2.57 227.397 64.387
2.58 228.008 63.979
2.59 227.255 63.065
2.60 --undefined-- 62.218
2.61 84.678 65.029
2.62 85.037 67.872
2.63 84.071 69.427
2.64 86.130 70.302
2.65 87.869 71.295
2.66 88.760 71.756
2.67 92.734 71.428
2.68 95.921 70.616
2.69 98.873 69.895
2.70 99.745 69.527
2.71 100.460 69.067
2.72 102.319 68.264
2.73 105.450 67.128
2.74 106.407 65.601
2.75 105.815 62.950
2.76 106.393 58.386
2.77 111.492 53.789
2.78 110.964 52.785
2.79 107.314 53.443
2.80 102.860 54.040
2.81 97.222 54.594
2.82 --undefined-- 59.562
2.83 --undefined-- 66.662
2.84 84.326 70.970
2.85 83.938 72.631
2.86 81.330 72.446
2.87 80.604 71.708
2.88 80.729 71.191
2.89 80.844 70.576
2.90 80.959 69.422
2.91 81.754 67.378
2.92 --undefined-- 64.408
2.93 --undefined-- 60.532
2.94 --undefined-- 54.800
2.95 --undefined-- 46.258
2.96 --undefined-- 38.629
2.97 --undefined-- 37.293
2.98 --undefined-- 37.648
2.99 --undefined-- 38.783
3.00 --undefined-- 42.646
3.01 --undefined-- 46.704
3.02 --undefined-- 48.865
3.03 --undefined-- 50.365
3.04 --undefined-- 51.362
3.05 --undefined-- 50.496
3.06 --undefined-- 47.785
3.07 --undefined-- 45.090
3.08 --undefined-- 43.358
3.09 --undefined-- 45.539
3.10 --undefined-- 54.342
3.11 --undefined-- 62.827
3.12 --undefined-- 68.656
3.13 85.237 71.723
3.14 83.999 72.520
3.15 83.179 72.052
3.16 80.512 71.157
3.17 79.526 69.814
3.18 75.470 67.410
3.19 --undefined-- 63.337
3.20 --undefined-- 56.923
3.21 --undefined-- 48.685
3.22 --undefined-- 42.449
3.23 --undefined-- 39.259
3.24 --undefined-- 38.013
3.25 --undefined-- 37.042
3.26 --undefined-- 35.566
3.27 --undefined-- 36.338
3.28 --undefined-- 39.565
3.29 --undefined-- 45.676
3.30 95.386 52.868
3.31 92.086 59.090
3.32 90.416 63.917
3.33 89.190 67.358
3.34 88.597 69.591
3.35 89.260 70.604
3.36 89.947 70.315
3.37 90.532 68.689
3.38 90.306 65.567
3.39 89.055 60.893
3.40 87.960 54.938
3.41 --undefined-- 48.137
3.42 --undefined-- 41.409
3.43 --undefined-- 37.237
3.44 --undefined-- 40.205
3.45 --undefined-- 47.609
3.46 --undefined-- 54.630
3.47 --undefined-- 60.236
3.48 --undefined-- 64.550
3.49 83.411 67.431
3.50 78.980 69.109
3.51 78.473 69.537
3.52 77.261 68.177
3.53 --undefined-- 64.903
3.54 --undefined-- 59.564
3.55 --undefined-- 52.192
3.56 --undefined-- 44.998
3.57 --undefined-- 40.403
3.58 --undefined-- 38.661
3.59 --undefined-- 37.481
3.60 --undefined-- 35.741
3.61 --undefined-- 35.421
3.62 --undefined-- 35.932
3.63 --undefined-- 35.422
3.64 --undefined-- 34.696
3.65 --undefined-- 35.500
3.66 --undefined-- 38.443
3.67 --undefined-- 42.476
3.68 --undefined-- 47.020
3.69 --undefined-- 51.725
3.70 --undefined-- 56.552
3.71 --undefined-- 60.842
3.72 90.050 64.044
3.73 90.620 66.029
3.74 90.856 66.827
3.75 89.323 66.912
3.76 87.560 66.976
3.77 86.590 67.685
3.78 87.033 68.725
3.79 --undefined-- 68.700
3.80 --undefined-- 68.019
3.81 --undefined-- 67.365
3.82 --undefined-- 65.495
3.83 --undefined-- 63.864
3.84 89.674 64.855
3.85 86.434 66.247
3.86 81.990 67.456
3.87 80.581 68.986
3.88 81.154 70.535
3.89 82.090 71.392
3.90 84.993 71.843
3.91 86.982 72.109
3.92 89.449 71.752
3.93 94.035 70.493
3.94 --undefined-- 68.421
3.95 --undefined-- 65.474
3.96 --undefined-- 60.912
3.97 --undefined-- 53.646
3.98 --undefined-- 44.208
3.99 --undefined-- 38.413
4.00 --undefined-- 37.953
4.01 --undefined-- 36.960
4.02 --undefined-- 34.778
4.03 --undefined-- 34.616
4.04 --undefined-- 36.899
4.05 --undefined-- 38.279
4.06 --undefined-- 37.930
4.07 --undefined-- 37.253
4.08 --undefined-- 36.757
4.09 --undefined-- 36.239
4.10 --undefined-- 36.901
4.11 --undefined-- 38.518
4.12 --undefined-- 39.450
4.13 --undefined-- 39.237
4.14 --undefined-- 38.652
4.15 --undefined-- 38.210
4.16 --undefined-- 37.620
4.17 --undefined-- 37.925
4.18 --undefined-- 39.878
4.19 --undefined-- 41.238
4.20 --undefined-- 40.893
4.21 --undefined-- 40.009
4.22 --undefined-- 39.178
4.23 --undefined-- 38.351
4.24 --undefined-- 38.198
4.25 --undefined-- 38.880
4.26 --undefined-- 39.449
4.27 --undefined-- 39.927
4.28 --undefined-- 40.324
4.29 --undefined-- 39.664
4.30 --undefined-- 38.681
4.31 --undefined-- 38.478
4.32 --undefined-- 37.673
4.33 --undefined-- 36.287
4.34 --undefined-- 35.874
4.35 --undefined-- 35.116
4.36 --undefined-- 33.793
4.37 --undefined-- 34.973
4.38 --undefined-- 36.731
4.39 --undefined-- 38.481
4.40 --undefined-- 43.809
4.41 --undefined-- 50.592
4.42 128.779 56.866
4.43 128.910 62.305
4.44 132.526 66.337
4.45 136.082 68.697
4.46 139.057 69.136
4.47 139.897 67.783
4.48 --undefined-- 65.159
4.49 --undefined-- 61.536
4.50 --undefined-- 57.801
4.51 --undefined-- 55.627
4.52 --undefined-- 53.175
4.53 --undefined-- 49.694
4.54 --undefined-- 47.699
4.55 --undefined-- 56.854
4.56 --undefined-- 65.104
4.57 --undefined-- 69.925
4.58 145.046 72.749
4.59 141.339 74.523
4.60 139.559 75.423
4.61 139.190 75.321
4.62 139.371 74.613
4.63 140.146 73.722
4.64 140.980 72.596
4.65 140.875 71.288
4.66 140.218 70.129
4.67 139.280 69.421
4.68 137.225 68.760
4.69 132.742 67.845
4.70 127.259 66.767
4.71 120.694 65.722
4.72 111.480 66.305
4.73 105.258 69.234
4.74 101.489 71.914
4.75 96.172 73.512
4.76 92.371 74.120
4.77 85.262 73.908
4.78 78.528 72.658
4.79 79.791 70.275
4.80 80.366 68.439
4.81 79.178 68.194
4.82 79.243 68.938
4.83 76.354 69.176
4.84 76.451 68.652
4.85 78.980 68.806
4.86 79.114 69.205
4.87 81.029 69.487
4.88 84.776 70.068
4.89 87.755 70.891
4.90 92.470 71.615
4.91 96.961 72.041
4.92 101.674 72.342
4.93 107.341 72.757
4.94 111.231 73.185
4.95 115.308 73.201
4.96 119.163 72.902
4.97 121.891 72.345
4.98 120.762 70.443
4.99 118.686 66.039
5.00 --undefined-- 58.555
5.01 --undefined-- 48.560
5.02 --undefined-- 39.650
5.03 --undefined-- 34.656
5.04 --undefined-- 34.704
5.05 --undefined-- 35.307
5.06 --undefined-- 35.918
5.07 --undefined-- 36.757
5.08 --undefined-- 40.441
5.09 --undefined-- 47.372
5.10 --undefined-- 54.638
5.11 108.448 61.071
5.12 103.671 65.906
5.13 99.827 68.764
5.14 97.112 69.643
5.15 94.184 68.402
5.16 90.467 64.916
5.17 --undefined-- 59.223
5.18 --undefined-- 52.467
5.19 --undefined-- 46.849
5.20 --undefined-- 41.193
5.21 --undefined-- 37.997
5.22 --undefined-- 38.959
5.23 --undefined-- 39.639
5.24 --undefined-- 39.374
5.25 --undefined-- 38.660
5.26 --undefined-- 37.101
5.27 --undefined-- 36.706
5.28 --undefined-- 39.233
5.29 --undefined-- 42.456
5.30 --undefined-- 49.184
5.31 --undefined-- 57.881
5.32 99.112 64.675
5.33 96.095 69.291
5.34 94.339 71.756
5.35 92.768 72.356
5.36 90.519 71.619
5.37 89.785 70.347
5.38 88.181 69.260
5.39 89.079 68.911
5.40 87.076 68.814
5.41 83.468 68.372
5.42 81.808 67.670
5.43 81.362 66.829
5.44 81.380 67.028
5.45 82.143 68.289
5.46 81.708 69.179
5.47 79.334 69.369
5.48 78.578 69.379
5.49 77.294 69.449
5.50 75.427 69.164
5.51 88.031 68.276
5.52 86.413 67.233
5.53 86.901 66.489
5.54 84.701 65.159
5.55 84.485 62.545
5.56 --undefined-- 58.958
5.57 --undefined-- 54.903
5.58 --undefined-- 50.368
5.59 --undefined-- 47.476
5.60 --undefined-- 46.738
5.61 --undefined-- 47.183
5.62 --undefined-- 48.844
5.63 --undefined-- 51.431
5.64 --undefined-- 53.025
5.65 --undefined-- 53.482
5.66 --undefined-- 59.396
5.67 --undefined-- 65.935
5.68 103.212 69.865
5.69 102.300 71.331
5.70 100.559 71.380
5.71 99.251 71.162
5.72 99.930 70.810
5.73 101.435 69.974
5.74 102.766 68.667
5.75 104.603 67.225
5.76 105.571 65.940
5.77 104.658 64.221
5.78 104.309 61.545
5.79 105.301 57.891
5.80 108.663 53.184
5.81 112.356 49.053
5.82 116.208 47.674
5.83 --undefined-- 46.546
5.84 --undefined-- 44.980
5.85 --undefined-- 43.394
5.86 --undefined-- 41.667
5.87 --undefined-- 40.903
5.88 --undefined-- 42.255
5.89 --undefined-- 43.289
5.90 --undefined-- 43.200
5.91 --undefined-- 42.764
5.92 --undefined-- 45.745
5.93 --undefined-- 56.035
5.94 110.141 64.111
5.95 110.728 69.206
5.96 96.521 71.802
5.97 87.938 72.397
5.98 81.574 71.244
5.99 82.013 69.137
6.00 --undefined-- 67.643
6.01 --undefined-- 66.356
6.02 --undefined-- 64.054
6.03 --undefined-- 60.412
6.04 --undefined-- 56.953
6.05 --undefined-- 53.310
6.06 --undefined-- 48.320
6.07 --undefined-- 45.335
6.08 --undefined-- 47.349
6.09 97.733 52.597
6.10 95.538 58.255
6.11 95.235 63.573
6.12 96.330 67.909
6.13 96.944 70.645
6.14 96.769 71.751
6.15 96.906 71.739
6.16 97.521 71.613
6.17 98.183 71.766
6.18 98.721 72.130
6.19 99.520 72.564
6.20 99.781 --undefined--
6.21 98.752 --undefined--
6.22 --undefined-- --undefined--
6.23 --undefined-- --undefined--
