Time Pitch Intensity
0.01 --undefined-- --undefined--
0.02 125.470 --undefined--
0.03 127.549 --undefined--
0.04 --undefined-- --undefined--
0.05 --undefined-- 62.877
0.06 --undefined-- 68.944
0.07 --undefined-- 72.081
0.08 102.664 72.891
0.09 96.633 72.360
0.10 97.891 71.695
0.11 100.911 71.524
0.12 104.884 71.629
0.13 108.000 71.845
0.14 109.895 72.099
0.15 111.656 72.144
0.16 115.142 71.866
0.17 122.265 71.928
0.18 130.627 73.100
0.19 135.662 74.480
0.20 137.673 75.196
0.21 138.616 75.120
0.22 138.773 74.221
0.23 137.083 72.302
0.24 135.043 69.429
0.25 132.198 66.293
0.26 131.595 63.985
0.27 134.852 63.231
0.28 137.077 64.390
0.29 139.409 68.118
0.30 144.548 72.318
0.31 137.213 74.516
0.32 130.105 74.869
0.33 124.471 75.276
0.34 122.220 76.144
0.35 119.623 76.239
0.36 116.786 75.402
0.37 114.517 74.520
0.38 113.461 74.211
0.39 111.725 74.053
0.40 111.003 74.096
0.41 111.254 74.383
0.42 111.382 74.696
0.43 111.385 74.951
0.44 110.788 75.080
0.45 109.923 75.124
0.46 109.587 75.223
0.47 109.108 75.368
0.48 107.501 75.208
0.49 106.307 74.572
0.50 106.993 74.020
0.51 107.827 74.038
0.52 106.189 74.142
0.53 105.857 73.746
0.54 103.431 72.992
0.55 106.084 72.752
0.56 106.864 73.084
0.57 107.727 73.556
0.58 109.342 74.116
0.59 111.957 74.621
0.60 114.079 74.669
0.61 114.051 73.892
0.62 113.678 72.208
0.63 113.624 70.450
0.64 120.944 70.997
0.65 122.270 72.473
0.66 121.581 73.003
0.67 116.142 72.769
0.68 114.020 72.396
0.69 109.156 72.292
0.70 105.557 72.359
0.71 103.569 72.178
0.72 102.482 71.187
0.73 97.447 69.442
0.74 101.308 68.868
0.75 103.542 69.800
0.76 105.023 70.778
0.77 106.812 71.453
0.78 108.087 71.598
0.79 109.036 71.023
0.80 109.350 69.677
0.81 109.836 67.481
0.82 110.429 64.572
0.83 113.702 61.010
0.84 109.512 56.139
0.85 --undefined-- 50.795
0.86 --undefined-- 51.926
0.87 --undefined-- 61.856
0.88 160.341 70.021
0.89 157.443 74.592
0.90 149.134 76.091
0.91 144.001 75.772
0.92 142.018 75.171
0.93 141.587 74.733
0.94 141.139 74.119
0.95 140.949 73.558
0.96 141.748 73.624
0.97 142.670 74.160
0.98 143.211 74.668
0.99 143.591 75.089
1.00 143.879 75.497
1.01 144.102 75.832
1.02 144.709 76.060
1.03 145.995 76.265
1.04 146.377 76.501
1.05 146.072 76.492
1.06 148.643 75.753
1.07 148.701 73.862
1.08 144.071 70.554
1.09 143.143 65.925
1.10 143.160 60.258
1.11 150.768 56.896
1.12 152.223 61.866
1.13 159.461 69.497
1.14 166.268 74.504
1.15 158.676 76.872
1.16 154.029 77.516
1.17 151.102 77.430
1.18 146.919 77.224
1.19 144.733 77.011
1.20 143.281 76.520
1.21 142.448 75.403
1.22 141.050 73.348
1.23 138.499 70.082
1.24 133.346 65.896
1.25 131.421 62.315
1.26 131.834 60.804
1.27 131.304 65.178
1.28 142.115 71.078
1.29 133.651 74.384
1.30 120.244 75.344
1.31 113.329 74.831
1.32 107.577 73.820
1.33 104.871 73.053
1.34 104.934 72.523
1.35 105.563 72.233
1.36 106.097 71.995
1.37 105.383 70.928
1.38 94.208 68.352
1.39 101.163 64.898
1.40 102.692 61.699
1.41 106.801 58.297
1.42 104.203 53.874
1.43 --undefined-- 50.466
1.44 --undefined-- 56.872
1.45 --undefined-- 63.947
1.46 --undefined-- 68.638
1.47 111.769 71.513
1.48 109.267 73.009
1.49 109.564 73.679
1.50 111.156 74.132
1.51 114.934 74.556
1.52 118.224 74.869
1.53 123.597 75.266
1.54 130.953 76.029
1.55 136.526 76.927
1.56 140.171 77.626
1.57 144.103 78.006
1.58 147.927 78.073
1.59 151.242 77.731
1.60 156.516 76.608
1.61 158.678 74.098
1.62 151.053 69.697
1.63 147.769 63.761
1.64 154.426 58.752
1.65 157.604 57.254
1.66 154.934 56.306
1.67 153.358 54.372
1.68 --undefined-- 53.363
1.69 --undefined-- 57.810
1.70 --undefined-- 65.720
1.71 129.934 71.422
1.72 125.201 74.612
1.73 120.392 75.804
1.74 118.154 75.838
1.75 118.884 75.480
1.76 120.168 75.137
1.77 123.553 75.523
1.78 125.022 76.412
1.79 125.163 76.439
1.80 123.801 75.691
1.81 122.515 74.732
1.82 117.507 73.648
1.83 116.295 72.633
1.84 112.827 71.490
1.85 107.959 69.965
1.86 106.649 67.991
1.87 101.757 65.934
1.88 106.326 63.882
1.89 110.186 60.929
1.90 117.503 56.409
1.91 --undefined-- 50.929
1.92 --undefined-- 48.228
1.93 --undefined-- 48.258
1.94 --undefined-- 48.283
1.95 --undefined-- 48.399
1.96 --undefined-- 48.523
1.97 --undefined-- 49.214
1.98 --undefined-- 50.412
1.99 --undefined-- 51.128
2.00 --undefined-- 51.220
2.01 --undefined-- 51.029
2.02 --undefined-- 50.983
2.03 --undefined-- 51.087
2.04 --undefined-- 50.890
2.05 --undefined-- 50.467
2.06 --undefined-- 50.545
2.07 --undefined-- 50.875
2.08 --undefined-- 51.199
2.09 --undefined-- 51.433
2.10 --undefined-- 50.822
2.11 --undefined-- 49.444
2.12 --undefined-- 48.272
2.13 --undefined-- 46.883
2.14 --undefined-- 44.529
2.15 --undefined-- 41.941
2.16 --undefined-- 39.778
2.17 --undefined-- 39.354
2.18 --undefined-- 40.884
2.19 --undefined-- 42.170
2.20 --undefined-- 45.594
2.21 --undefined-- 50.580
2.22 --undefined-- 54.837
2.23 --undefined-- 62.655
2.24 --undefined-- 71.084
2.25 --undefined-- 76.153
2.26 161.548 78.358
2.27 162.547 78.557
2.28 168.010 77.282
2.29 188.800 75.679
2.30 193.451 74.808
2.31 200.546 73.899
2.32 203.184 73.220
2.33 205.242 71.659
2.34 203.618 68.544
2.35 183.500 66.435
2.36 167.730 66.106
2.37 157.976 66.567
2.38 149.467 67.448
2.39 142.917 68.517
2.40 138.241 69.308
2.41 133.193 69.672
2.42 127.237 70.216
2.43 123.616 71.148
2.44 119.849 71.916
2.45 116.975 72.514
2.46 115.018 73.058
2.47 113.362 73.444
2.48 111.466 73.689
2.49 111.438 73.808
2.50 111.868 73.707
2.51 112.117 73.302
2.52 113.224 72.527
2.53 --undefined-- 71.695
2.54 --undefined-- 71.081
2.55 113.050 70.189
2.56 99.736 68.830
2.57 98.793 67.213
2.58 99.051 66.129
2.59 109.193 67.214
2.60 119.636 69.830
2.61 127.988 72.259
2.62 131.695 73.955
2.63 131.156 75.179
2.64 133.043 76.042
2.65 139.431 76.549
2.66 147.880 76.703
2.67 159.699 76.459
2.68 173.841 76.203
2.69 187.014 76.164
2.70 193.353 76.044
2.71 207.719 76.328
2.72 212.832 76.949
2.73 217.448 76.681
2.74 221.329 75.303
2.75 215.787 73.227
2.76 209.556 71.148
2.77 204.680 69.371
2.78 199.443 67.901
2.79 193.752 67.791
2.80 193.852 69.390
2.81 194.306 71.316
2.82 190.865 72.814
2.83 187.456 73.933
2.84 183.977 74.903
2.85 180.337 75.652
2.86 173.547 76.175
2.87 166.746 76.686
2.88 162.395 77.211
2.89 158.615 77.624
2.90 156.926 77.828
2.91 156.633 77.885
2.92 156.154 78.005
2.93 155.670 78.230
2.94 154.853 78.376
2.95 153.358 78.182
2.96 151.672 77.319
2.97 148.953 75.393
2.98 145.161 72.128
2.99 142.894 67.746
3.00 136.278 62.861
3.01 132.710 58.053
3.02 143.834 54.145
3.03 --undefined-- 50.599
3.04 --undefined-- 47.841
3.05 --undefined-- 48.555
3.06 --undefined-- 50.977
3.07 --undefined-- 57.149
3.08 --undefined-- 66.699
3.09 --undefined-- 73.023
3.10 --undefined-- 75.795
3.11 132.427 75.900
3.12 125.332 74.746
3.13 118.868 73.661
3.14 115.102 72.963
3.15 114.372 72.661
3.16 115.784 72.867
3.17 117.738 73.571
3.18 119.436 74.422
3.19 120.520 75.157
3.20 121.099 75.488
3.21 122.804 75.288
3.22 124.589 74.962
3.23 124.417 74.931
3.24 123.928 75.076
3.25 123.814 75.125
3.26 123.004 74.735
3.27 120.665 73.282
3.28 116.454 70.276
3.29 116.979 66.266
3.30 124.229 63.233
3.31 124.397 60.925
3.32 123.390 57.811
3.33 --undefined-- 53.445
3.34 --undefined-- 49.354
3.35 --undefined-- 50.687
3.36 --undefined-- 57.093
3.37 --undefined-- 65.910
3.38 --undefined-- 71.773
3.39 109.943 74.363
3.40 109.463 74.618
3.41 105.929 74.022
3.42 105.875 73.954
3.43 107.905 74.438
3.44 110.321 74.962
3.45 115.117 75.400
3.46 121.459 75.916
3.47 130.061 76.822
3.48 135.189 77.968
3.49 140.828 78.696
3.50 148.713 78.480
3.51 161.478 77.439
3.52 178.613 76.582
3.53 191.519 76.631
3.54 197.598 77.169
3.55 202.739 77.670
3.56 205.531 77.737
3.57 203.477 76.916
3.58 196.593 75.035
3.59 187.205 72.326
3.60 179.522 68.736
3.61 182.320 63.504
3.62 --undefined-- 57.055
3.63 --undefined-- 52.918
3.64 --undefined-- 50.898
3.65 --undefined-- 50.888
3.66 --undefined-- 51.809
3.67 --undefined-- 52.015
3.68 --undefined-- 52.950
3.69 --undefined-- 54.571
3.70 --undefined-- 56.600
3.71 --undefined-- 62.573
3.72 --undefined-- 68.790
3.73 --undefined-- 72.507
3.74 107.024 74.151
3.75 103.758 74.621
3.76 101.706 74.655
3.77 101.368 74.643
3.78 100.342 74.651
3.79 100.400 74.679
3.80 99.997 74.630
3.81 99.070 74.452
3.82 98.944 74.220
3.83 98.882 74.019
3.84 98.839 73.617
3.85 99.310 72.325
3.86 97.266 69.447
3.87 92.913 65.447
3.88 94.928 62.259
3.89 115.042 60.406
3.90 110.846 58.493
3.91 108.203 57.350
3.92 --undefined-- 59.041
3.93 --undefined-- 60.604
3.94 121.450 61.599
3.95 113.449 62.663
3.96 110.314 64.324
3.97 122.697 67.266
3.98 131.206 70.236
3.99 131.263 71.981
4.00 128.677 72.413
4.01 126.269 72.174
4.02 122.983 71.760
4.03 120.445 71.433
4.04 120.751 71.457
4.05 121.585 71.829
4.06 122.614 72.531
4.07 124.126 73.546
4.08 125.055 74.477
4.09 125.950 74.916
4.10 126.499 74.982
4.11 127.749 75.186
4.12 128.888 75.631
4.13 130.257 76.042
4.14 130.903 76.265
4.15 131.352 76.267
4.16 131.249 75.953
4.17 127.533 75.085
4.18 124.861 73.129
4.19 123.389 69.985
4.20 125.343 66.359
4.21 126.632 63.011
4.22 129.996 59.836
4.23 127.873 57.759
4.24 --undefined-- 57.356
4.25 --undefined-- 57.389
4.26 --undefined-- 58.580
4.27 --undefined-- 59.559
4.28 --undefined-- 60.400
4.29 --undefined-- 64.578
4.30 133.242 69.440
4.31 124.555 72.557
4.32 121.863 74.220
4.33 122.024 75.211
4.34 121.796 75.819
4.35 121.561 76.218
4.36 121.884 76.543
4.37 122.456 76.803
4.38 122.802 76.931
4.39 122.938 76.920
4.40 123.764 76.849
4.41 125.449 76.693
4.42 126.070 76.240
4.43 121.134 75.697
4.44 --undefined-- 75.147
4.45 --undefined-- 73.682
4.46 --undefined-- 71.054
4.47 --undefined-- 67.840
4.48 --undefined-- 64.550
4.49 --undefined-- 64.982
4.50 --undefined-- 67.837
4.51 --undefined-- 69.613
4.52 --undefined-- 71.348
4.53 120.074 73.230
4.54 121.276 74.242
4.55 121.172 74.304
4.56 120.645 74.223
4.57 120.026 74.438
4.58 119.746 74.869
4.59 119.691 75.311
4.60 119.698 75.522
4.61 120.267 75.528
4.62 121.203 75.528
4.63 122.779 75.720
4.64 124.150 76.147
4.65 124.574 76.296
4.66 123.702 75.243
4.67 118.371 72.284
4.68 129.526 67.968
4.69 130.634 64.697
4.70 131.406 61.605
4.71 134.167 58.215
4.72 --undefined-- 58.591
4.73 --undefined-- 64.945
4.74 --undefined-- 72.136
4.75 --undefined-- 76.148
4.76 156.931 77.159
4.77 148.767 76.465
4.78 145.222 75.743
4.79 142.692 75.480
4.80 141.522 75.166
4.81 141.111 74.754
4.82 142.439 74.911
4.83 143.771 75.722
4.84 143.837 76.513
4.85 142.748 76.825
4.86 140.930 76.601
4.87 138.879 75.924
4.88 136.517 74.662
4.89 133.586 72.567
4.90 132.076 69.908
4.91 134.305 67.267
4.92 136.787 64.873
4.93 136.649 61.944
4.94 135.366 57.870
4.95 --undefined-- 52.610
4.96 --undefined-- 48.072
4.97 --undefined-- 47.554
4.98 --undefined-- 50.711
4.99 --undefined-- 61.037
5.00 --undefined-- 69.887
5.01 153.794 74.734
5.02 153.038 76.305
5.03 142.699 75.754
5.04 139.155 --undefined--
5.05 136.996 --undefined--
5.06 --undefined-- --undefined--
5.07 --undefined-- --undefined--
