Time Pitch Intensity
0.01 --undefined-- --undefined--
0.02 108.330 --undefined--
0.03 109.472 --undefined--
0.04 108.025 --undefined--
0.05 104.632 61.973
0.06 107.924 62.245
0.07 137.214 65.921
0.08 136.663 68.983
0.09 135.767 70.783
0.10 134.279 71.944
0.11 131.855 72.782
0.12 131.389 73.341
0.13 131.433 73.731
0.14 131.456 73.897
0.15 132.078 73.871
0.16 131.871 73.635
0.17 131.906 73.057
0.18 132.224 72.045
0.19 132.637 70.378
0.20 131.864 67.851
0.21 --undefined-- 64.833
0.22 --undefined-- 61.535
0.23 --undefined-- 56.977
0.24 --undefined-- 49.450
0.25 --undefined-- 40.296
0.26 --undefined-- 37.102
0.27 --undefined-- 36.487
0.28 --undefined-- 36.471
0.29 --undefined-- 35.548
0.30 --undefined-- 32.754
0.31 --undefined-- 30.558
0.32 --undefined-- 32.405
0.33 --undefined-- 34.901
0.34 --undefined-- 36.624
0.35 --undefined-- 37.997
0.36 --undefined-- 39.037
0.37 --undefined-- 38.215
0.38 --undefined-- 35.562
0.39 --undefined-- 34.500
0.40 --undefined-- 34.738
0.41 --undefined-- 34.737
0.42 --undefined-- 37.076
0.43 --undefined-- 39.446
0.44 --undefined-- 39.880
0.45 --undefined-- 38.118
0.46 --undefined-- 34.905
0.47 --undefined-- 34.178
0.48 --undefined-- 35.659
0.49 --undefined-- 35.526
0.50 --undefined-- 34.797
0.51 --undefined-- 35.251
0.52 --undefined-- 34.536
0.53 --undefined-- 33.596
0.54 --undefined-- 34.689
0.55 --undefined-- 35.933
0.56 --undefined-- 36.402
0.57 --undefined-- 35.832
0.58 --undefined-- 35.027
0.59 --undefined-- 34.437
0.60 --undefined-- 35.494
0.61 --undefined-- 36.825
0.62 --undefined-- 36.589
0.63 --undefined-- 34.928
0.64 --undefined-- 33.455
0.65 --undefined-- 35.061
0.66 --undefined-- 36.050
0.67 --undefined-- 35.277
0.68 --undefined-- 33.997
0.69 --undefined-- 32.443
0.70 --undefined-- 31.377
0.71 --undefined-- 31.310
0.72 --undefined-- 32.176
0.73 --undefined-- 34.359
0.74 --undefined-- 35.343
0.75 --undefined-- 34.771
0.76 --undefined-- 33.847
0.77 --undefined-- 33.114
0.78 --undefined-- 34.183
0.79 --undefined-- 35.981
0.80 --undefined-- 36.516
0.81 --undefined-- 35.704
0.82 --undefined-- 34.981
0.83 --undefined-- 34.732
0.84 --undefined-- 34.682
0.85 --undefined-- 34.075
0.86 --undefined-- 33.199
0.87 --undefined-- 34.964
0.88 --undefined-- 37.686
0.89 --undefined-- 38.257
0.90 --undefined-- 37.441
0.91 --undefined-- 37.476
0.92 --undefined-- 37.572
0.93 --undefined-- 36.767
0.94 --undefined-- 34.942
0.95 --undefined-- 34.254
0.96 --undefined-- 36.997
0.97 --undefined-- 39.272
0.98 --undefined-- 39.347
0.99 --undefined-- 37.891
1.00 --undefined-- 37.009
1.01 --undefined-- 39.462
1.02 --undefined-- 41.632
1.03 --undefined-- 40.697
1.04 --undefined-- 38.262
1.05 --undefined-- 36.744
1.06 --undefined-- 36.104
1.07 --undefined-- 36.338
1.08 --undefined-- 36.035
1.09 --undefined-- 35.860
1.10 --undefined-- 36.904
1.11 --undefined-- 37.119
1.12 --undefined-- 38.163
1.13 --undefined-- 39.112
1.14 --undefined-- 39.007
1.15 --undefined-- 39.545
1.16 --undefined-- 40.748
1.17 --undefined-- 41.253
1.18 --undefined-- 41.130
1.19 --undefined-- 41.374
1.20 --undefined-- 41.984
1.21 --undefined-- 41.931
1.22 --undefined-- 41.537
1.23 --undefined-- 41.609
1.24 --undefined-- 41.638
1.25 --undefined-- 41.448
1.26 --undefined-- 41.354
1.27 --undefined-- 41.336
1.28 --undefined-- 40.828
1.29 --undefined-- 40.045
1.30 --undefined-- 39.521
1.31 --undefined-- 39.601
1.32 --undefined-- 39.818
1.33 --undefined-- 39.304
1.34 --undefined-- 38.585
1.35 --undefined-- 37.799
1.36 --undefined-- 36.613
1.37 --undefined-- 35.143
1.38 --undefined-- 35.392
1.39 --undefined-- 36.671
1.40 --undefined-- 38.397
1.41 --undefined-- 41.005
1.42 --undefined-- 43.878
1.43 --undefined-- 47.712
1.44 --undefined-- 51.412
1.45 --undefined-- 54.289
1.46 --undefined-- 56.844
1.47 --undefined-- 60.709
1.48 185.455 66.582
1.49 194.328 71.032
1.50 192.870 73.423
1.51 189.473 74.522
1.52 189.587 75.190
1.53 191.396 75.840
1.54 192.833 76.256
1.55 192.120 76.197
1.56 189.959 75.931
1.57 189.135 75.182
1.58 187.095 72.874
1.59 182.028 68.087
1.60 --undefined-- 60.283
1.61 --undefined-- 50.880
1.62 --undefined-- 53.426
1.63 --undefined-- 57.906
1.64 --undefined-- 60.171
1.65 --undefined-- 61.020
1.66 --undefined-- 60.885
1.67 --undefined-- 60.886
1.68 --undefined-- 62.500
1.69 --undefined-- 64.524
1.70 --undefined-- 66.091
1.71 --undefined-- 67.184
1.72 127.205 68.270
1.73 128.481 69.432
1.74 129.069 70.248
1.75 130.827 70.559
1.76 129.117 70.280
1.77 129.260 69.420
1.78 128.482 68.464
1.79 125.248 67.844
1.80 119.071 67.447
1.81 116.804 67.407
1.82 112.482 67.475
1.83 124.034 67.293
1.84 127.171 67.171
1.85 128.637 67.079
1.86 123.159 66.948
1.87 120.452 66.794
1.88 121.520 66.497
1.89 121.698 66.237
1.90 121.114 66.745
1.91 124.913 68.318
1.92 130.518 70.461
1.93 137.334 71.977
1.94 138.702 72.342
1.95 138.567 72.650
1.96 136.480 73.438
1.97 136.124 74.121
1.98 136.909 74.706
1.99 138.425 75.415
2.00 139.678 76.044
2.01 138.708 76.119
2.02 138.315 75.647
2.03 137.451 74.947
2.04 137.115 73.867
2.05 135.437 72.696
2.06 135.793 72.813
2.07 137.940 74.285
2.08 137.890 75.937
2.09 139.171 77.175
2.10 139.070 77.604
2.11 138.957 77.607
2.12 139.466 77.827
2.13 140.546 78.216
2.14 141.792 78.525
2.15 141.861 78.516
2.16 142.495 78.288
2.17 143.118 78.020
2.18 143.436 77.695
2.19 144.169 77.240
2.20 145.146 76.790
2.21 145.900 76.433
2.22 146.122 75.900
2.23 146.299 75.136
2.24 147.182 74.234
2.25 146.547 72.904
2.26 146.617 70.886
2.27 --undefined-- 68.323
2.28 --undefined-- 64.814
2.29 --undefined-- 60.298
2.30 234.045 57.116
2.31 234.419 55.748
2.32 235.867 53.927
2.33 --undefined-- 50.375
2.34 --undefined-- 44.226
2.35 --undefined-- 37.839
2.36 --undefined-- 37.404
2.37 --undefined-- 39.080
2.38 --undefined-- 39.313
2.39 --undefined-- 38.450
2.40 --undefined-- 36.884
2.41 --undefined-- 37.054
2.42 --undefined-- 38.909
2.43 --undefined-- 39.929
2.44 --undefined-- 39.319
2.45 --undefined-- 37.571
2.46 --undefined-- 35.160
2.47 --undefined-- 33.790
2.48 --undefined-- 35.007
2.49 --undefined-- 36.060
2.50 --undefined-- 36.572
2.51 --undefined-- 36.496
2.52 --undefined-- 36.451
2.53 --undefined-- 36.252
2.54 --undefined-- 34.813
2.55 --undefined-- 34.228
2.56 --undefined-- 35.532
2.57 --undefined-- 36.082
2.58 --undefined-- 35.985
2.59 --undefined-- 36.006
2.60 --undefined-- 35.513
2.61 --undefined-- 34.700
2.62 --undefined-- 33.647
2.63 --undefined-- 32.906
2.64 --undefined-- 34.319
2.65 --undefined-- 35.932
2.66 --undefined-- 36.775
2.67 --undefined-- 36.686
2.68 --undefined-- 35.875
2.69 --undefined-- 35.604
2.70 --undefined-- 36.045
2.71 --undefined-- 37.083
2.72 --undefined-- 45.009
2.73 --undefined-- 57.997
2.74 --undefined-- 66.746
2.75 212.039 72.311
2.76 212.806 75.736
2.77 214.938 77.520
2.78 215.200 77.560
2.79 214.937 75.478
2.80 214.546 70.940
2.81 162.296 63.980
2.82 --undefined-- 57.831
2.83 280.635 57.153
2.84 259.791 57.592
2.85 244.598 58.124
2.86 224.212 59.733
2.87 212.808 64.193
2.88 183.508 69.833
2.89 177.937 73.842
2.90 173.780 75.951
2.91 163.520 76.664
2.92 158.172 76.507
2.93 154.978 75.866
2.94 154.226 75.222
2.95 154.216 74.834
2.96 153.589 74.664
2.97 152.909 74.615
2.98 151.939 74.730
2.99 150.492 75.040
3.00 148.569 75.359
3.01 147.295 75.491
3.02 146.753 75.340
3.03 146.082 74.954
3.04 145.358 74.699
3.05 144.213 75.198
3.06 149.086 75.944
3.07 150.811 76.285
3.08 153.335 76.284
3.09 157.057 76.118
3.10 160.419 75.767
3.11 163.017 75.031
3.12 167.618 74.306
3.13 174.874 74.265
3.14 188.919 74.881
3.15 194.579 76.076
3.16 199.569 77.729
3.17 202.381 79.292
3.18 201.640 79.968
3.19 198.063 79.116
3.20 192.519 76.385
3.21 --undefined-- 72.028
3.22 --undefined-- 66.935
3.23 --undefined-- 63.323
3.24 --undefined-- 66.695
3.25 177.327 72.010
3.26 173.646 75.879
3.27 167.479 78.135
3.28 159.928 79.005
3.29 154.144 78.968
3.30 149.923 78.156
3.31 146.768 75.947
3.32 143.992 71.647
3.33 135.938 64.957
3.34 --undefined-- 56.675
3.35 --undefined-- 49.177
3.36 --undefined-- 43.981
3.37 --undefined-- 41.681
3.38 --undefined-- 42.881
3.39 --undefined-- 51.059
3.40 --undefined-- 60.041
3.41 159.478 66.638
3.42 155.126 70.925
3.43 153.508 73.513
3.44 149.907 74.929
3.45 144.263 75.553
3.46 141.317 75.721
3.47 139.888 75.733
3.48 139.360 75.650
3.49 136.681 75.101
3.50 135.733 74.059
3.51 140.294 73.443
3.52 138.969 73.179
3.53 137.648 72.356
3.54 133.568 70.791
3.55 126.089 69.345
3.56 123.953 68.833
3.57 122.730 68.757
3.58 123.400 69.253
3.59 130.020 70.776
3.60 134.648 72.376
3.61 135.691 73.374
3.62 139.391 74.338
3.63 144.403 75.550
3.64 144.842 75.831
3.65 138.889 74.482
3.66 134.427 72.880
3.67 139.084 72.912
3.68 137.123 73.477
3.69 135.762 73.905
3.70 136.143 74.430
3.71 128.510 74.852
3.72 124.693 74.787
3.73 122.064 74.426
3.74 122.900 73.534
3.75 123.099 71.846
3.76 123.541 69.815
3.77 124.104 67.484
3.78 121.669 64.327
3.79 --undefined-- 59.785
3.80 --undefined-- 54.366
3.81 --undefined-- 50.831
3.82 --undefined-- 48.274
3.83 --undefined-- 46.574
3.84 --undefined-- 45.874
3.85 --undefined-- 44.948
3.86 --undefined-- 45.582
3.87 --undefined-- 53.727
3.88 --undefined-- 62.356
3.89 158.903 67.539
3.90 144.767 70.135
3.91 140.697 71.327
3.92 133.696 72.074
3.93 132.004 72.671
3.94 131.564 72.946
3.95 131.818 72.775
3.96 132.489 72.153
3.97 132.822 71.031
3.98 130.739 69.406
3.99 121.078 68.191
4.00 128.569 67.281
4.01 131.580 64.760
4.02 --undefined-- 59.590
4.03 --undefined-- 52.724
4.04 --undefined-- 46.752
4.05 --undefined-- 42.523
4.06 --undefined-- 40.959
4.07 --undefined-- 39.540
4.08 --undefined-- 37.887
4.09 --undefined-- 37.237
4.10 --undefined-- 37.521
4.11 --undefined-- 38.280
4.12 --undefined-- 37.991
4.13 --undefined-- 36.784
4.14 --undefined-- 36.779
4.15 --undefined-- 36.724
4.16 --undefined-- 35.513
4.17 --undefined-- 33.907
4.18 --undefined-- 34.199
4.19 --undefined-- 35.500
4.20 --undefined-- 35.683
4.21 --undefined-- 34.488
4.22 --undefined-- 34.136
4.23 --undefined-- 35.786
4.24 --undefined-- 38.325
4.25 --undefined-- 39.387
4.26 --undefined-- 38.008
4.27 --undefined-- 35.207
4.28 --undefined-- 34.322
4.29 --undefined-- 35.461
4.30 --undefined-- 36.834
4.31 --undefined-- 39.003
4.32 --undefined-- 42.784
4.33 --undefined-- 48.246
4.34 --undefined-- 58.829
4.35 --undefined-- 67.567
4.36 159.613 72.632
4.37 159.611 74.976
4.38 157.205 75.653
4.39 155.702 75.737
4.40 155.505 75.758
4.41 156.092 75.688
4.42 155.985 75.528
4.43 156.006 75.475
4.44 156.231 75.612
4.45 156.657 75.848
4.46 157.338 76.104
4.47 157.359 76.163
4.48 150.261 75.643
4.49 151.288 74.452
4.50 151.387 73.111
4.51 149.586 71.997
4.52 149.838 71.093
4.53 143.574 70.604
4.54 138.572 70.907
4.55 138.932 71.984
4.56 139.146 73.027
4.57 134.921 73.325
4.58 130.099 72.810
4.59 120.778 71.658
4.60 118.157 70.522
4.61 118.018 69.849
4.62 114.799 69.601
4.63 117.434 70.332
4.64 120.607 71.286
4.65 121.769 71.769
4.66 122.087 71.899
4.67 121.410 71.734
4.68 120.577 71.085
4.69 117.181 69.529
4.70 109.982 66.897
4.71 --undefined-- 63.116
4.72 --undefined-- 57.777
4.73 --undefined-- 53.619
4.74 --undefined-- 56.928
4.75 --undefined-- 59.159
4.76 --undefined-- 58.462
4.77 --undefined-- 56.062
4.78 --undefined-- 53.911
4.79 --undefined-- 56.085
4.80 --undefined-- 61.939
4.81 135.238 66.258
4.82 134.833 68.158
4.83 131.563 68.565
4.84 132.492 68.615
4.85 132.700 68.993
4.86 133.502 69.867
4.87 139.019 70.837
4.88 145.414 71.573
4.89 148.427 72.137
4.90 152.158 71.869
4.91 158.053 70.388
4.92 162.370 68.515
4.93 156.894 67.212
4.94 156.445 66.363
4.95 152.681 65.785
4.96 148.500 65.784
4.97 147.885 66.655
4.98 146.110 68.370
4.99 145.372 70.579
5.00 149.331 72.602
5.01 143.251 73.929
5.02 142.280 74.364
5.03 141.454 73.987
5.04 140.735 73.053
5.05 139.744 71.863
5.06 138.520 70.644
5.07 136.649 69.090
5.08 142.853 66.397
5.09 139.173 62.690
5.10 138.150 58.943
5.11 --undefined-- 55.363
5.12 --undefined-- 51.163
5.13 --undefined-- 45.501
5.14 --undefined-- 39.971
5.15 --undefined-- 38.255
5.16 --undefined-- 37.701
5.17 --undefined-- 36.640
5.18 --undefined-- 35.377
5.19 --undefined-- 35.818
5.20 --undefined-- 36.547
5.21 --undefined-- 35.652
5.22 --undefined-- 35.132
5.23 --undefined-- 35.224
5.24 --undefined-- 35.658
5.25 --undefined-- 35.284
5.26 --undefined-- 33.685
5.27 --undefined-- 34.474
5.28 --undefined-- 36.441
5.29 --undefined-- 36.692
5.30 --undefined-- 35.654
5.31 --undefined-- 34.142
5.32 --undefined-- 33.102
5.33 --undefined-- 32.931
5.34 --undefined-- 38.557
5.35 --undefined-- 51.580
5.36 --undefined-- 60.267
5.37 167.284 65.629
5.38 162.665 68.924
5.39 170.035 71.673
5.40 171.567 74.091
5.41 171.483 75.368
5.42 170.099 75.516
5.43 168.586 75.158
5.44 167.493 74.407
5.45 166.995 73.184
5.46 160.335 71.777
5.47 158.614 70.233
5.48 158.060 68.743
5.49 151.215 67.865
5.50 144.054 67.876
5.51 138.993 68.148
5.52 134.966 68.226
5.53 132.784 68.162
5.54 130.336 68.226
5.55 126.739 68.519
5.56 124.836 69.176
5.57 124.557 70.163
5.58 124.265 71.205
5.59 127.023 71.657
5.60 128.608 70.791
5.61 113.477 69.037
5.62 112.146 67.888
5.63 105.113 67.065
5.64 101.453 65.974
5.65 99.058 65.201
5.66 106.678 64.858
5.67 110.430 64.516
5.68 121.607 64.616
5.69 128.333 65.840
5.70 141.511 67.869
5.71 144.221 70.110
5.72 143.424 71.903
5.73 142.413 72.947
5.74 142.549 73.303
5.75 143.092 73.233
5.76 142.582 72.976
5.77 142.784 72.722
5.78 144.610 72.971
5.79 144.713 73.458
5.80 140.039 73.279
5.81 141.616 72.298
5.82 140.048 71.138
5.83 138.812 70.257
5.84 138.032 69.554
5.85 137.974 68.885
5.86 137.446 67.998
5.87 136.729 66.258
5.88 135.034 62.908
5.89 --undefined-- 57.284
5.90 --undefined-- 50.473
5.91 --undefined-- 44.042
5.92 --undefined-- 38.450
5.93 --undefined-- 36.308
5.94 --undefined-- 37.254
5.95 --undefined-- 40.197
5.96 --undefined-- 50.803
5.97 --undefined-- 61.771
5.98 --undefined-- 68.825
5.99 --undefined-- 72.793
6.00 --undefined-- 74.484
6.01 139.907 74.634
6.02 136.965 74.165
6.03 136.616 73.953
6.04 139.422 74.036
6.05 142.009 74.152
6.06 143.889 74.074
6.07 145.340 73.838
6.08 145.707 73.499
6.09 140.401 72.805
6.10 140.211 71.835
6.11 139.386 70.744
6.12 137.489 69.234
6.13 133.116 67.474
6.14 128.337 66.201
6.15 124.425 66.354
6.16 122.683 67.644
6.17 123.219 69.007
6.18 123.033 69.821
6.19 117.877 70.030
6.20 113.251 69.850
6.21 109.930 68.817
6.22 103.790 66.531
6.23 99.623 64.328
6.24 105.371 64.533
6.25 109.435 66.003
6.26 114.980 66.919
6.27 110.404 67.154
6.28 112.332 67.443
6.29 112.400 67.921
6.30 116.830 68.350
6.31 117.631 68.573
6.32 117.153 68.566
6.33 116.696 68.638
6.34 119.112 69.158
6.35 119.421 69.785
6.36 118.423 69.895
6.37 116.921 69.559
6.38 115.315 69.047
6.39 113.103 68.675
6.40 113.736 68.788
6.41 114.531 69.139
6.42 114.459 69.346
6.43 114.749 69.290
6.44 116.114 69.008
6.45 116.684 68.290
6.46 115.733 66.631
6.47 112.629 63.339
6.48 102.588 58.144
6.49 --undefined-- 51.607
6.50 --undefined-- 46.906
6.51 --undefined-- 47.307
6.52 --undefined-- 54.831
6.53 --undefined-- 63.566
6.54 170.434 68.877
6.55 149.425 71.236
6.56 140.057 71.997
6.57 133.125 72.280
6.58 130.572 72.267
6.59 130.678 72.119
6.60 132.064 72.117
6.61 133.192 72.266
6.62 134.186 72.537
6.63 135.699 72.934
6.64 135.477 72.931
6.65 134.636 71.629
6.66 130.598 68.375
6.67 125.610 63.103
6.68 --undefined-- 56.674
6.69 --undefined-- 53.041
6.70 --undefined-- 52.565
6.71 --undefined-- 52.776
6.72 --undefined-- 54.061
6.73 --undefined-- 62.268
6.74 207.149 69.555
6.75 194.722 73.616
6.76 187.206 75.218
6.77 184.295 75.457
6.78 183.340 75.583
6.79 183.693 75.805
6.80 185.188 75.885
6.81 186.799 75.892
6.82 188.552 75.787
6.83 189.647 75.428
6.84 189.098 74.927
6.85 188.627 74.474
6.86 189.152 73.992
6.87 190.460 73.379
6.88 191.031 72.637
6.89 190.120 71.843
6.90 187.723 71.041
6.91 186.051 70.087
6.92 183.589 68.814
6.93 182.848 67.212
6.94 189.050 65.688
6.95 207.114 64.341
6.96 215.625 62.358
6.97 --undefined-- 58.018
6.98 --undefined-- 50.407
6.99 --undefined-- 42.532
7.00 --undefined-- 42.378
7.01 --undefined-- 41.856
7.02 --undefined-- 39.274
7.03 --undefined-- 37.473
7.04 --undefined-- 36.723
7.05 --undefined-- 36.780
7.06 --undefined-- 36.367
7.07 --undefined-- 35.464
7.08 --undefined-- 35.452
7.09 --undefined-- 36.185
7.10 --undefined-- 37.607
7.11 --undefined-- 38.974
7.12 --undefined-- 39.728
7.13 --undefined-- 39.800
7.14 --undefined-- 39.458
7.15 --undefined-- 39.255
7.16 --undefined-- 39.979
7.17 --undefined-- 40.339
7.18 --undefined-- 39.868
7.19 --undefined-- 40.150
7.20 --undefined-- 40.487
7.21 --undefined-- 40.089
7.22 --undefined-- 40.153
7.23 --undefined-- 40.282
7.24 --undefined-- 39.214
7.25 --undefined-- 38.168
7.26 --undefined-- 38.329
7.27 --undefined-- 39.225
7.28 --undefined-- 38.814
7.29 --undefined-- 37.313
7.30 --undefined-- 47.683
7.31 --undefined-- 59.339
7.32 --undefined-- 66.522
7.33 132.494 70.750
7.34 137.071 73.147
7.35 134.968 74.413
7.36 134.518 74.911
7.37 134.069 74.973
7.38 133.133 --undefined--
7.39 131.589 --undefined--
7.40 --undefined-- --undefined--
7.41 --undefined-- --undefined--
