Time Pitch Intensity
0.01 --undefined-- --undefined--
0.02 222.288 --undefined--
0.03 229.230 --undefined--
0.04 235.225 --undefined--
0.05 238.971 71.879
0.06 241.532 71.887
0.07 241.787 71.874
0.08 240.112 71.877
0.09 236.785 71.834
0.10 232.528 71.666
0.11 227.941 71.314
0.12 223.247 70.815
0.13 217.443 70.345
0.14 212.864 70.183
0.15 208.415 70.031
0.16 203.427 69.515
0.17 197.587 68.780
0.18 192.475 68.313
0.19 185.980 67.939
0.20 180.583 67.405
0.21 175.108 66.924
0.22 163.822 66.269
0.23 154.735 65.123
0.24 141.823 63.147
0.25 140.800 60.279
0.26 --undefined-- 57.476
0.27 --undefined-- 55.769
0.28 --undefined-- 53.986
0.29 --undefined-- 51.549
0.30 --undefined-- 52.824
0.31 --undefined-- 56.254
0.32 --undefined-- 59.437
0.33 172.227 61.366
0.34 175.475 62.176
0.35 179.817 62.730
0.36 182.814 63.113
0.37 182.700 63.614
0.38 182.344 64.737
0.39 181.010 66.065
0.40 181.268 67.201
0.41 180.744 68.223
0.42 178.311 68.920
0.43 174.680 69.104
0.44 170.731 68.818
0.45 169.876 68.287
0.46 170.609 67.771
0.47 171.640 67.350
0.48 173.702 67.021
0.49 175.252 66.739
0.50 176.157 66.299
0.51 177.344 65.263
0.52 171.682 63.197
0.53 162.728 59.590
0.54 167.100 54.459
0.55 --undefined-- 51.480
0.56 --undefined-- 58.816
0.57 --undefined-- 65.594
0.58 177.145 69.637
0.59 180.068 71.441
0.60 186.287 71.694
0.61 198.302 71.231
0.62 209.023 70.326
0.63 215.191 68.710
0.64 222.160 66.384
0.65 227.777 63.474
0.66 221.791 60.063
0.67 218.647 56.042
0.68 --undefined-- 53.897
0.69 --undefined-- 57.372
0.70 --undefined-- 64.140
0.71 231.068 68.866
0.72 226.418 71.026
0.73 220.165 71.645
0.74 214.247 71.637
0.75 209.488 71.355
0.76 204.428 71.018
0.77 199.744 70.865
0.78 195.581 70.973
0.79 192.615 71.197
0.80 190.244 71.285
0.81 188.928 71.242
0.82 187.704 71.237
0.83 186.802 71.312
0.84 186.357 71.315
0.85 186.385 71.286
0.86 186.416 71.355
0.87 186.656 71.486
0.88 187.280 71.530
0.89 187.363 71.484
0.90 187.005 71.407
0.91 187.251 71.359
0.92 187.381 71.379
0.93 187.228 71.390
0.94 187.365 71.408
0.95 187.872 71.444
0.96 187.978 71.442
0.97 186.616 71.078
0.98 184.559 69.860
0.99 --undefined-- 68.338
1.00 112.350 67.485
1.01 112.685 66.925
1.02 101.881 66.446
1.03 103.545 66.171
1.04 104.934 66.158
1.05 114.748 66.405
1.06 119.522 66.758
1.07 129.608 67.194
1.08 138.224 67.693
1.09 148.176 67.910
1.10 148.385 67.755
1.11 146.985 67.350
1.12 144.063 66.812
1.13 141.537 66.369
1.14 138.992 66.108
1.15 138.298 65.868
1.16 140.194 65.692
1.17 142.789 65.686
1.18 143.164 65.739
1.19 142.101 65.737
1.20 141.123 65.839
1.21 140.948 66.128
1.22 142.071 66.564
1.23 143.405 67.064
1.24 144.194 67.486
1.25 144.372 67.780
1.26 143.615 67.880
1.27 142.352 67.863
1.28 140.841 67.882
1.29 138.415 67.759
1.30 135.687 67.434
1.31 132.719 67.419
1.32 130.949 67.590
1.33 130.967 67.391
1.34 130.723 66.850
1.35 131.511 65.985
1.36 141.441 65.231
1.37 151.101 64.874
1.38 155.359 64.835
1.39 156.441 65.183
1.40 157.171 65.856
1.41 156.702 66.762
1.42 155.857 67.888
1.43 152.681 69.134
1.44 --undefined-- 69.867
1.45 --undefined-- 69.272
1.46 --undefined-- 67.168
1.47 125.784 65.051
1.48 128.408 64.705
1.49 130.774 65.297
1.50 134.418 66.012
1.51 137.812 66.839
1.52 140.486 67.940
1.53 141.554 69.129
1.54 146.841 70.238
1.55 148.386 70.693
1.56 154.009 70.473
1.57 165.488 70.396
1.58 171.650 70.319
1.59 176.301 69.888
1.60 182.427 69.511
1.61 190.800 69.496
1.62 202.613 69.770
1.63 210.905 69.998
1.64 217.451 70.042
1.65 222.722 70.008
1.66 226.768 69.880
1.67 230.555 69.702
1.68 234.897 69.618
1.69 239.401 69.619
1.70 245.216 69.625
1.71 250.417 69.662
1.72 254.362 69.592
1.73 259.636 69.321
1.74 261.683 69.087
1.75 260.633 68.953
1.76 253.615 68.504
1.77 238.500 67.695
1.78 237.086 66.213
1.79 238.200 62.881
1.80 245.691 56.839
1.81 --undefined-- 48.219
1.82 --undefined-- 41.821
1.83 --undefined-- 41.940
1.84 --undefined-- 43.564
1.85 --undefined-- 44.242
1.86 --undefined-- 44.146
1.87 --undefined-- 43.740
1.88 --undefined-- 43.586
1.89 --undefined-- 43.190
1.90 --undefined-- 42.347
1.91 --undefined-- 41.784
1.92 --undefined-- 41.331
1.93 --undefined-- 40.515
1.94 --undefined-- 40.080
1.95 --undefined-- 41.128
1.96 --undefined-- 48.267
1.97 --undefined-- 55.621
1.98 --undefined-- 59.896
1.99 --undefined-- 62.203
2.00 162.267 63.714
2.01 167.203 64.784
2.02 169.156 65.468
2.03 167.465 65.979
2.04 166.733 66.488
2.05 167.414 67.084
2.06 169.389 67.736
2.07 176.393 68.219
2.08 186.032 68.493
2.09 200.218 68.815
2.10 206.360 69.236
2.11 211.516 69.693
2.12 213.587 70.306
2.13 217.279 71.064
2.14 223.956 71.740
2.15 228.949 71.666
2.16 230.717 70.359
2.17 234.271 69.069
2.18 238.582 69.586
2.19 239.419 70.917
2.20 239.189 71.865
2.21 237.005 72.050
2.22 233.780 71.748
2.23 227.619 71.485
2.24 222.674 71.200
2.25 219.139 70.946
2.26 217.980 71.021
2.27 217.130 71.149
2.28 215.172 71.092
2.29 211.903 70.982
2.30 208.119 70.981
2.31 203.430 70.841
2.32 198.464 70.527
2.33 193.072 70.291
2.34 189.275 69.889
2.35 186.202 68.989
2.36 182.503 67.826
2.37 179.547 66.735
2.38 176.315 65.104
2.39 165.586 62.148
2.40 165.798 58.181
2.41 176.216 54.678
2.42 186.651 55.870
2.43 189.821 61.524
2.44 194.120 66.053
2.45 196.203 68.219
2.46 194.421 67.962
2.47 191.673 65.835
2.48 201.291 64.178
2.49 208.444 64.534
2.50 209.314 65.775
2.51 216.161 67.861
2.52 223.628 69.976
2.53 227.009 71.031
2.54 228.121 71.043
2.55 224.326 70.605
2.56 218.454 70.245
2.57 212.448 70.056
2.58 205.889 69.873
2.59 198.798 69.485
2.60 191.656 68.936
2.61 185.437 68.369
2.62 180.956 68.139
2.63 176.062 68.359
2.64 170.240 68.469
2.65 165.873 68.466
2.66 160.722 68.511
2.67 156.053 68.392
2.68 152.355 68.048
2.69 149.068 67.620
2.70 148.614 67.314
2.71 147.560 66.885
2.72 145.399 65.458
2.73 140.306 62.427
2.74 --undefined-- 58.523
2.75 --undefined-- 54.427
2.76 --undefined-- 50.322
2.77 --undefined-- 55.645
2.78 --undefined-- 63.967
2.79 195.365 68.880
2.80 193.028 70.760
2.81 194.196 70.882
2.82 206.958 70.917
2.83 213.827 71.027
2.84 217.144 70.689
2.85 218.929 70.055
2.86 218.803 69.620
2.87 216.234 69.448
2.88 212.050 69.314
2.89 204.546 69.184
2.90 195.172 69.091
2.91 185.602 68.963
2.92 175.077 68.919
2.93 165.954 69.009
2.94 155.019 68.996
2.95 148.748 68.886
2.96 145.808 68.533
2.97 148.361 67.808
2.98 151.485 66.555
2.99 153.621 64.418
3.00 157.852 61.291
3.01 152.353 57.764
3.02 --undefined-- 56.118
3.03 --undefined-- 57.435
3.04 --undefined-- 59.247
3.05 --undefined-- 59.770
3.06 --undefined-- 58.429
3.07 --undefined-- 56.132
3.08 --undefined-- 61.475
3.09 215.901 67.981
3.10 213.576 71.392
3.11 210.170 72.553
3.12 209.468 72.654
3.13 211.445 72.559
3.14 213.659 72.325
3.15 215.508 71.737
3.16 216.846 70.840
3.17 218.219 70.224
3.18 220.000 70.132
3.19 219.083 69.807
3.20 216.740 68.840
3.21 215.651 67.530
3.22 214.457 66.749
3.23 213.538 66.844
3.24 214.485 67.089
3.25 217.651 66.575
3.26 215.694 64.672
3.27 204.129 61.463
3.28 199.880 57.467
3.29 202.682 52.174
3.30 --undefined-- 45.311
3.31 --undefined-- 45.075
3.32 --undefined-- 54.350
3.33 --undefined-- 62.930
3.34 191.107 67.715
3.35 182.149 69.709
3.36 173.067 70.415
3.37 171.332 70.633
3.38 171.404 70.476
3.39 173.348 70.108
3.40 176.806 69.364
3.41 181.158 68.418
3.42 184.758 67.835
3.43 187.951 67.735
3.44 190.552 67.857
3.45 192.948 67.947
3.46 195.188 67.978
3.47 197.286 68.159
3.48 198.139 68.605
3.49 197.627 69.114
3.50 195.988 69.396
3.51 193.602 69.315
3.52 190.461 68.934
3.53 187.625 68.647
3.54 185.135 68.838
3.55 181.959 69.065
3.56 178.722 68.709
3.57 176.200 67.779
3.58 172.881 67.339
3.59 170.725 68.072
3.60 164.443 68.945
3.61 153.951 69.229
3.62 144.813 68.713
3.63 137.585 68.082
3.64 142.294 68.129
3.65 147.185 68.543
3.66 154.119 69.104
3.67 159.679 69.284
3.68 173.460 68.942
3.69 178.304 68.274
3.70 184.932 67.082
3.71 183.767 65.111
3.72 181.005 62.069
3.73 183.036 57.431
3.74 185.440 50.416
3.75 179.311 42.959
3.76 --undefined-- 41.069
3.77 --undefined-- 42.049
3.78 --undefined-- 44.456
3.79 --undefined-- 53.643
3.80 --undefined-- 61.552
3.81 186.324 65.958
3.82 185.462 68.011
3.83 190.422 68.852
3.84 194.104 69.116
3.85 196.699 68.824
3.86 199.468 67.619
3.87 199.920 65.106
3.88 195.319 60.853
3.89 --undefined-- 54.235
3.90 --undefined-- 44.871
3.91 --undefined-- 45.025
3.92 --undefined-- 53.639
3.93 --undefined-- 58.370
3.94 --undefined-- 59.515
3.95 --undefined-- 58.575
3.96 --undefined-- 60.640
3.97 192.099 65.080
3.98 193.157 67.790
3.99 181.521 68.683
4.00 158.759 68.315
4.01 145.188 67.138
4.02 132.499 65.382
4.03 125.726 62.896
4.04 121.497 59.329
4.05 --undefined-- 54.314
4.06 --undefined-- 47.901
4.07 --undefined-- 48.397
4.08 --undefined-- 58.048
4.09 --undefined-- 64.395
4.10 148.298 67.312
4.11 149.229 67.823
4.12 148.168 67.448
4.13 147.390 66.970
4.14 146.395 65.495
4.15 143.728 61.970
4.16 146.287 55.933
4.17 --undefined-- 47.856
4.18 --undefined-- 41.440
4.19 --undefined-- 38.586
4.20 --undefined-- 35.964
4.21 --undefined-- 44.765
4.22 --undefined-- 57.448
4.23 --undefined-- 65.822
4.24 --undefined-- 70.328
4.25 170.868 71.793
4.26 165.440 71.188
4.27 158.326 69.927
4.28 158.219 69.106
4.29 157.875 68.594
4.30 156.150 68.065
4.31 153.851 67.324
4.32 151.098 66.518
4.33 147.292 65.832
4.34 142.958 65.299
4.35 141.012 65.049
4.36 140.340 65.136
4.37 140.459 65.361
4.38 141.034 65.554
4.39 140.783 65.665
4.40 140.757 65.760
4.41 141.146 65.836
4.42 141.479 65.854
4.43 142.350 65.821
4.44 143.596 65.772
4.45 143.854 65.642
4.46 143.591 65.437
4.47 142.656 65.314
4.48 140.531 65.294
4.49 138.299 65.333
4.50 136.375 65.345
4.51 135.285 65.274
4.52 134.957 65.099
4.53 134.761 64.860
4.54 134.372 64.650
4.55 132.925 64.446
4.56 131.475 64.197
4.57 131.375 63.987
4.58 132.815 63.950
4.59 135.024 64.198
4.60 136.878 64.732
4.61 140.082 65.302
4.62 144.747 65.616
4.63 146.149 65.590
4.64 145.592 65.078
4.65 143.984 63.952
4.66 142.683 62.497
4.67 142.887 61.268
4.68 146.197 60.973
4.69 150.424 62.085
4.70 154.837 64.095
4.71 156.016 66.214
4.72 156.626 67.994
4.73 156.862 69.012
4.74 156.648 69.181
4.75 156.949 68.909
4.76 159.975 68.643
4.77 165.078 68.751
4.78 168.272 68.966
4.79 169.411 69.017
4.80 170.189 69.412
4.81 169.549 70.216
4.82 165.980 70.508
4.83 162.920 70.335
4.84 160.443 70.088
4.85 159.392 69.844
4.86 160.806 69.603
4.87 164.896 69.346
4.88 169.324 69.128
4.89 171.884 68.845
4.90 173.678 68.276
4.91 174.199 67.637
4.92 173.183 67.295
4.93 171.172 67.152
4.94 169.208 66.929
4.95 168.728 66.510
4.96 168.469 66.041
4.97 169.509 65.598
4.98 175.222 65.122
4.99 180.701 64.776
5.00 182.312 65.043
5.01 183.721 65.958
5.02 180.694 66.973
5.03 174.065 67.990
5.04 163.571 --undefined--
5.05 158.532 --undefined--
5.06 --undefined-- --undefined--
5.07 --undefined-- --undefined--
