Time Pitch Intensity
0.01 --undefined-- --undefined--
0.02 --undefined-- --undefined--
0.03 --undefined-- --undefined--
0.04 --undefined-- --undefined--
0.05 --undefined-- 60.826
0.06 --undefined-- 67.351
0.07 --undefined-- 72.767
0.08 120.928 75.481
0.09 111.404 75.851
0.10 102.511 75.065
0.11 98.475 74.027
0.12 96.319 72.828
0.13 97.283 71.795
0.14 100.925 71.429
0.15 104.655 71.376
0.16 109.183 71.468
0.17 112.967 71.774
0.18 114.085 71.218
0.19 111.053 68.852
0.20 119.739 65.155
0.21 123.286 61.853
0.22 118.889 62.424
0.23 163.236 69.931
0.24 155.302 75.669
0.25 152.657 78.504
0.26 148.100 79.162
0.27 141.590 78.662
0.28 139.455 78.017
0.29 138.907 77.469
0.30 139.115 76.589
0.31 138.524 74.713
0.32 128.942 71.203
0.33 --undefined-- 66.082
0.34 --undefined-- 60.240
0.35 --undefined-- 55.183
0.36 --undefined-- 51.756
0.37 --undefined-- 49.876
0.38 --undefined-- 48.841
0.39 --undefined-- 47.604
0.40 --undefined-- 46.623
0.41 --undefined-- 45.647
0.42 --undefined-- 45.678
0.43 --undefined-- 47.192
0.44 --undefined-- 48.642
0.45 --undefined-- 49.676
0.46 --undefined-- 50.260
0.47 --undefined-- 50.669
0.48 --undefined-- 51.049
0.49 --undefined-- 51.549
0.50 --undefined-- 52.391
0.51 --undefined-- 52.804
0.52 --undefined-- 52.942
0.53 --undefined-- 53.315
0.54 --undefined-- 53.856
0.55 --undefined-- 54.412
0.56 --undefined-- 54.741
0.57 --undefined-- 54.878
0.58 --undefined-- 54.451
0.59 --undefined-- 53.765
0.60 --undefined-- 54.174
0.61 --undefined-- 54.384
0.62 --undefined-- 53.507
0.63 --undefined-- 52.549
0.64 --undefined-- 51.074
0.65 --undefined-- 48.965
0.66 --undefined-- 47.930
0.67 --undefined-- 53.862
0.68 --undefined-- 62.966
0.69 244.202 68.605
0.70 252.193 71.559
0.71 263.383 73.059
0.72 269.174 73.824
0.73 268.774 73.737
0.74 255.073 72.594
0.75 232.262 70.931
0.76 216.184 69.444
0.77 217.757 69.262
0.78 --undefined-- 70.906
0.79 --undefined-- 73.508
0.80 223.020 77.207
0.81 221.376 79.450
0.82 191.746 79.763
0.83 168.710 79.291
0.84 159.590 78.953
0.85 151.747 78.811
0.86 145.066 78.589
0.87 138.784 77.933
0.88 132.874 76.468
0.89 125.355 73.829
0.90 126.616 70.479
0.91 133.945 68.048
0.92 134.438 66.549
0.93 138.980 66.904
0.94 167.583 70.706
0.95 177.768 74.071
0.96 183.341 75.319
0.97 188.754 75.015
0.98 196.559 74.396
0.99 203.964 74.241
1.00 214.014 74.505
1.01 219.887 74.784
1.02 228.649 74.673
1.03 234.974 73.497
1.04 231.069 71.022
1.05 218.034 67.435
1.06 207.934 62.657
1.07 --undefined-- 56.470
1.08 --undefined-- 51.643
1.09 --undefined-- 53.078
1.10 --undefined-- 60.855
1.11 --undefined-- 68.629
1.12 210.463 72.868
1.13 200.958 74.164
1.14 188.232 73.732
1.15 181.304 73.151
1.16 176.296 73.077
1.17 173.176 72.443
1.18 167.820 70.143
1.19 146.790 66.112
1.20 141.278 61.058
1.21 --undefined-- 55.333
1.22 --undefined-- 54.138
1.23 --undefined-- 62.788
1.24 --undefined-- 69.879
1.25 166.140 73.720
1.26 163.839 75.014
1.27 159.530 74.335
1.28 152.373 72.380
1.29 152.367 70.341
1.30 154.554 68.877
1.31 151.734 67.400
1.32 146.962 64.969
1.33 143.391 60.700
1.34 --undefined-- 54.500
1.35 --undefined-- 54.063
1.36 --undefined-- 63.564
1.37 185.891 71.858
1.38 175.978 76.842
1.39 169.203 79.043
1.40 162.998 79.299
1.41 156.541 78.488
1.42 153.859 77.069
1.43 148.218 75.396
1.44 152.522 74.319
1.45 153.399 74.060
1.46 153.459 74.054
1.47 153.426 74.023
1.48 152.261 73.948
1.49 149.110 73.459
1.50 143.584 71.826
1.51 137.893 68.490
1.52 138.296 62.959
1.53 --undefined-- 55.140
1.54 --undefined-- 49.798
1.55 --undefined-- 51.113
1.56 --undefined-- 53.876
1.57 --undefined-- 60.784
1.58 --undefined-- 67.281
1.59 135.284 71.391
1.60 133.960 73.833
1.61 134.311 75.400
1.62 136.707 76.466
1.63 141.646 77.308
1.64 148.589 78.135
1.65 155.331 78.844
1.66 163.249 79.336
1.67 170.907 79.619
1.68 176.887 79.171
1.69 179.969 77.169
1.70 173.893 73.346
1.71 169.911 68.834
1.72 164.975 65.724
1.73 169.427 69.658
1.74 170.456 75.233
1.75 166.097 78.293
1.76 156.606 79.367
1.77 145.936 79.303
1.78 136.975 78.871
1.79 132.028 78.715
1.80 129.756 78.820
1.81 129.094 79.060
1.82 129.553 79.233
1.83 131.867 79.113
1.84 134.101 78.775
1.85 132.234 78.338
1.86 127.768 77.381
1.87 121.494 75.675
1.88 132.782 74.353
1.89 129.179 74.059
1.90 127.147 74.058
1.91 124.728 74.123
1.92 122.181 74.192
1.93 119.431 74.214
1.94 123.922 74.587
1.95 113.215 75.101
1.96 110.286 75.061
1.97 107.871 74.729
1.98 106.943 74.562
1.99 107.956 74.496
2.00 111.254 74.555
2.01 114.479 74.986
2.02 117.761 75.684
2.03 122.511 76.390
2.04 128.561 77.026
2.05 133.913 77.650
2.06 136.436 77.992
2.07 137.934 77.277
2.08 137.548 74.963
2.09 140.387 71.303
2.10 143.064 66.815
2.11 --undefined-- 62.816
2.12 --undefined-- 63.838
2.13 --undefined-- 69.452
2.14 --undefined-- 74.825
2.15 169.530 77.656
2.16 165.231 78.385
2.17 155.651 77.904
2.18 149.383 77.003
2.19 146.887 76.045
2.20 146.517 75.192
2.21 147.444 74.741
2.22 148.336 74.763
2.23 150.417 75.024
2.24 152.391 75.424
2.25 153.182 75.720
2.26 153.808 75.602
2.27 153.366 74.973
2.28 150.290 73.544
2.29 145.237 70.799
2.30 140.333 66.418
2.31 141.287 61.049
2.32 --undefined-- 63.341
2.33 --undefined-- 71.100
2.34 139.458 75.657
2.35 138.836 77.194
2.36 123.736 76.822
2.37 117.247 76.046
2.38 113.876 75.315
2.39 109.589 74.321
2.40 107.605 73.540
2.41 110.300 73.435
2.42 110.384 73.456
2.43 109.685 73.265
2.44 108.704 72.810
2.45 107.185 71.627
2.46 103.323 69.134
2.47 100.618 65.464
2.48 105.906 61.898
2.49 105.044 59.839
2.50 --undefined-- 61.883
2.51 --undefined-- 67.262
2.52 134.639 71.088
2.53 128.677 72.188
2.54 126.508 71.037
2.55 128.890 69.139
2.56 131.614 68.728
2.57 136.638 71.662
2.58 139.608 75.558
2.59 138.178 77.888
2.60 134.646 78.502
2.61 127.672 78.331
2.62 124.144 78.331
2.63 121.708 78.268
2.64 118.389 77.408
2.65 113.795 74.828
2.66 103.432 70.044
2.67 105.342 64.465
2.68 105.626 59.885
2.69 --undefined-- 55.101
2.70 --undefined-- 50.799
2.71 --undefined-- 56.228
2.72 --undefined-- 65.409
2.73 --undefined-- 71.078
2.74 109.834 73.821
2.75 109.540 74.820
2.76 110.255 75.332
2.77 113.876 75.964
2.78 118.198 76.733
2.79 124.073 77.687
2.80 128.840 78.648
2.81 131.505 79.349
2.82 133.124 79.728
2.83 134.442 79.723
2.84 135.239 79.256
2.85 136.173 78.399
2.86 136.466 77.608
2.87 133.957 77.543
2.88 130.513 78.098
2.89 126.432 78.511
2.90 122.829 78.458
2.91 119.660 77.992
2.92 117.602 77.126
2.93 113.919 75.935
2.94 109.842 74.549
2.95 108.796 73.091
2.96 108.635 71.971
2.97 108.553 71.464
2.98 109.165 71.266
2.99 109.278 70.775
3.00 108.034 69.380
3.01 105.237 66.497
3.02 105.084 61.791
3.03 --undefined-- 56.636
3.04 --undefined-- 58.236
3.05 --undefined-- 61.550
3.06 --undefined-- 62.521
3.07 --undefined-- 62.059
3.08 --undefined-- 61.360
3.09 --undefined-- 63.688
3.10 106.699 67.441
3.11 104.563 69.763
3.12 104.421 70.761
3.13 108.287 71.118
3.14 104.927 70.803
3.15 102.512 69.752
3.16 94.508 68.447
3.17 96.147 67.308
3.18 --undefined-- 66.675
3.19 --undefined-- 66.405
3.20 --undefined-- 66.215
3.21 --undefined-- 65.276
3.22 98.363 64.804
3.23 100.093 65.964
3.24 103.949 67.296
3.25 107.368 68.478
3.26 110.453 69.525
3.27 112.142 70.270
3.28 112.938 70.724
3.29 114.832 71.317
3.30 115.553 72.254
3.31 114.158 73.183
3.32 112.980 73.678
3.33 111.451 73.694
3.34 110.293 73.601
3.35 110.016 73.590
3.36 110.143 73.509
3.37 110.556 73.297
3.38 110.746 73.116
3.39 111.096 72.988
3.40 111.417 72.699
3.41 111.281 72.283
3.42 112.391 72.123
3.43 113.801 72.389
3.44 114.415 72.763
3.45 114.658 73.008
3.46 114.445 73.096
3.47 114.141 72.822
3.48 112.719 71.719
3.49 110.230 69.447
3.50 108.823 66.263
3.51 113.045 62.682
3.52 115.960 58.249
3.53 119.805 53.382
3.54 120.148 51.908
3.55 --undefined-- 54.461
3.56 --undefined-- 60.765
3.57 177.702 69.604
3.58 166.664 75.608
3.59 156.456 78.746
3.60 152.952 80.016
3.61 150.030 80.306
3.62 149.217 80.051
3.63 149.967 79.258
3.64 148.027 78.059
3.65 145.044 76.690
3.66 142.020 75.353
3.67 140.179 74.440
3.68 138.488 74.031
3.69 134.274 74.141
3.70 129.697 74.623
3.71 125.547 74.607
3.72 120.593 73.908
3.73 116.056 72.994
3.74 113.827 72.096
3.75 112.619 71.454
3.76 111.502 71.202
3.77 111.465 71.202
3.78 111.412 71.290
3.79 111.387 71.643
3.80 112.372 72.232
3.81 112.422 72.727
3.82 114.488 73.454
3.83 119.372 74.589
3.84 122.858 75.649
3.85 125.950 76.487
3.86 129.593 77.225
3.87 134.163 77.830
3.88 141.069 78.219
3.89 141.813 78.390
3.90 141.410 78.367
3.91 142.717 78.338
3.92 144.298 78.444
3.93 146.135 78.694
3.94 147.478 78.984
3.95 147.950 79.212
3.96 148.431 79.412
3.97 149.185 79.576
3.98 150.718 79.445
3.99 150.538 78.306
4.00 148.991 75.389
4.01 149.620 70.345
4.02 151.626 63.551
4.03 151.323 58.541
4.04 150.119 56.739
4.05 --undefined-- 56.332
4.06 --undefined-- 58.397
4.07 --undefined-- 66.813
4.08 213.318 73.860
4.09 210.179 77.321
4.10 203.223 77.931
4.11 195.950 77.192
4.12 194.190 76.400
4.13 193.432 75.737
4.14 189.691 75.132
4.15 195.772 74.941
4.16 198.538 75.108
4.17 197.983 75.252
4.18 196.949 75.410
4.19 195.750 75.658
4.20 194.787 75.986
4.21 193.858 76.317
4.22 192.328 76.442
4.23 189.270 75.949
4.24 181.223 74.354
4.25 170.050 71.382
4.26 156.543 67.203
4.27 --undefined-- 62.975
4.28 --undefined-- 61.518
4.29 --undefined-- 62.666
4.30 --undefined-- 63.535
4.31 --undefined-- 64.119
4.32 --undefined-- 65.348
4.33 --undefined-- 66.265
4.34 --undefined-- 66.161
4.35 --undefined-- 69.003
4.36 139.554 73.986
4.37 135.261 77.224
4.38 131.834 78.889
4.39 129.965 79.693
4.40 130.022 80.067
4.41 131.290 80.206
4.42 131.868 79.736
4.43 129.447 78.110
4.44 131.184 76.113
4.45 135.802 75.453
4.46 133.510 75.447
4.47 131.680 75.401
4.48 129.019 75.574
4.49 126.323 75.896
4.50 124.765 76.107
4.51 123.017 76.099
4.52 118.181 76.066
4.53 115.664 76.185
4.54 113.764 76.118
4.55 113.219 75.883
4.56 114.049 75.855
4.57 115.396 76.091
4.58 116.503 76.367
4.59 120.213 76.280
4.60 122.485 75.096
4.61 120.598 72.383
4.62 122.971 68.676
4.63 127.560 65.425
4.64 127.466 66.086
4.65 148.116 71.659
4.66 148.249 75.839
4.67 143.470 77.713
4.68 138.255 78.142
4.69 134.913 78.096
4.70 132.115 77.836
4.71 128.030 76.763
4.72 123.659 74.098
4.73 118.204 69.504
4.74 121.754 63.937
4.75 128.060 59.678
4.76 129.681 57.399
4.77 130.579 57.726
4.78 126.193 63.005
4.79 146.833 69.770
4.80 146.403 74.481
4.81 143.060 76.770
4.82 139.278 76.966
4.83 136.431 75.971
4.84 131.332 74.641
4.85 --undefined-- 73.065
4.86 --undefined-- 71.087
4.87 93.809 69.689
4.88 --undefined-- 69.907
4.89 --undefined-- 71.301
4.90 --undefined-- 72.699
4.91 130.749 74.057
4.92 137.249 75.489
4.93 141.454 76.619
4.94 139.878 77.245
4.95 136.330 77.437
4.96 133.679 77.451
4.97 132.247 77.573
4.98 132.046 77.780
4.99 132.771 77.964
5.00 134.595 78.268
5.01 137.007 78.514
5.02 137.595 77.751
5.03 132.918 --undefined--
5.04 136.363 --undefined--
5.05 --undefined-- --undefined--
5.06 --undefined-- --undefined--
