Time Pitch Intensity
0.01 --undefined-- --undefined--
0.02 167.296 --undefined--
0.03 163.648 --undefined--
0.04 160.585 --undefined--
0.05 159.530 67.235
0.06 161.879 64.445
0.07 161.895 63.122
0.08 162.891 63.135
0.09 163.561 62.709
0.10 162.727 61.116
0.11 161.831 57.980
0.12 --undefined-- 53.149
0.13 --undefined-- 48.188
0.14 --undefined-- 46.987
0.15 --undefined-- 51.350
0.16 --undefined-- 57.041
0.17 --undefined-- 60.445
0.18 --undefined-- 63.180
0.19 --undefined-- 67.184
0.20 172.070 69.815
0.21 165.809 70.625
0.22 159.690 70.567
0.23 153.673 69.946
0.24 150.180 68.748
0.25 148.068 66.917
0.26 147.058 64.584
0.27 147.793 62.410
0.28 148.910 61.718
0.29 149.363 62.661
0.30 148.233 63.925
0.31 147.064 65.027
0.32 147.071 65.842
0.33 147.226 65.958
0.34 147.711 65.268
0.35 146.939 63.538
0.36 147.142 61.383
0.37 149.159 60.525
0.38 149.296 59.586
0.39 151.532 57.012
0.40 --undefined-- 52.654
0.41 --undefined-- 47.084
0.42 --undefined-- 42.530
0.43 --undefined-- 41.632
0.44 --undefined-- 41.670
0.45 --undefined-- 40.822
0.46 --undefined-- 41.673
0.47 --undefined-- 43.829
0.48 --undefined-- 45.617
0.49 --undefined-- 46.754
0.50 --undefined-- 47.576
0.51 --undefined-- 48.290
0.52 --undefined-- 48.494
0.53 --undefined-- 48.900
0.54 --undefined-- 50.070
0.55 --undefined-- 51.177
0.56 --undefined-- 52.003
0.57 --undefined-- 52.690
0.58 --undefined-- 53.253
0.59 --undefined-- 53.491
0.60 --undefined-- 53.613
0.61 --undefined-- 53.569
0.62 --undefined-- 53.740
0.63 --undefined-- 54.544
0.64 --undefined-- 54.702
0.65 --undefined-- 54.328
0.66 --undefined-- 53.342
0.67 --undefined-- 52.444
0.68 --undefined-- 52.652
0.69 --undefined-- 53.165
0.70 --undefined-- 53.354
0.71 --undefined-- 53.303
0.72 --undefined-- 52.874
0.73 --undefined-- 52.366
0.74 --undefined-- 51.322
0.75 --undefined-- 49.441
0.76 --undefined-- 48.135
0.77 --undefined-- 46.966
0.78 --undefined-- 45.121
0.79 --undefined-- 44.665
0.80 --undefined-- 45.208
0.81 --undefined-- 43.953
0.82 --undefined-- 40.898
0.83 --undefined-- 38.651
0.84 --undefined-- 43.467
0.85 --undefined-- 53.170
0.86 --undefined-- 58.714
0.87 --undefined-- 62.030
0.88 --undefined-- 67.423
0.89 --undefined-- 71.598
0.90 --undefined-- 72.939
0.91 212.570 71.662
0.92 213.865 67.651
0.93 221.088 62.630
0.94 225.188 61.945
0.95 229.140 62.877
0.96 231.295 63.189
0.97 236.317 62.745
0.98 240.704 62.588
0.99 247.095 63.160
1.00 253.713 63.831
1.01 261.712 64.391
1.02 268.144 64.396
1.03 273.914 63.711
1.04 277.186 62.336
1.05 276.597 59.709
1.06 --undefined-- 55.336
1.07 --undefined-- 50.668
1.08 --undefined-- 48.114
1.09 --undefined-- 45.651
1.10 --undefined-- 42.119
1.11 --undefined-- 40.186
1.12 --undefined-- 40.517
1.13 --undefined-- 40.997
1.14 --undefined-- 40.527
1.15 --undefined-- 39.085
1.16 --undefined-- 44.518
1.17 --undefined-- 59.313
1.18 --undefined-- 68.978
1.19 --undefined-- 73.837
1.20 --undefined-- 74.695
1.21 156.767 72.200
1.22 155.354 67.041
1.23 142.450 59.741
1.24 144.175 52.827
1.25 --undefined-- 49.765
1.26 --undefined-- 47.144
1.27 --undefined-- 45.481
1.28 --undefined-- 45.580
1.29 --undefined-- 50.951
1.30 --undefined-- 56.809
1.31 --undefined-- 59.661
1.32 --undefined-- 62.978
1.33 168.094 67.408
1.34 166.995 70.404
1.35 168.550 71.565
1.36 168.246 71.224
1.37 164.506 69.917
1.38 159.664 68.466
1.39 157.744 67.545
1.40 154.961 66.528
1.41 151.825 64.694
1.42 151.023 62.302
1.43 299.059 62.085
1.44 292.305 62.785
1.45 280.422 62.637
1.46 265.482 63.768
1.47 268.728 67.080
1.48 266.211 70.980
1.49 261.660 73.873
1.50 256.756 74.688
1.51 245.220 73.261
1.52 226.949 70.732
1.53 217.079 69.237
1.54 209.166 68.551
1.55 201.276 67.827
1.56 196.657 66.830
1.57 193.870 64.688
1.58 187.201 60.822
1.59 --undefined-- 55.957
1.60 --undefined-- 51.692
1.61 --undefined-- 47.495
1.62 --undefined-- 44.442
1.63 --undefined-- 44.638
1.64 --undefined-- 45.371
1.65 --undefined-- 44.506
1.66 --undefined-- 42.624
1.67 --undefined-- 41.748
1.68 --undefined-- 41.750
1.69 --undefined-- 40.868
1.70 --undefined-- 41.974
1.71 --undefined-- 46.537
1.72 --undefined-- 49.562
1.73 --undefined-- 49.815
1.74 --undefined-- 47.511
1.75 --undefined-- 44.085
1.76 --undefined-- 42.417
1.77 --undefined-- 41.970
1.78 --undefined-- 41.432
1.79 --undefined-- 40.369
1.80 --undefined-- 39.340
1.81 --undefined-- 39.069
1.82 --undefined-- 39.294
1.83 --undefined-- 39.933
1.84 --undefined-- 44.873
1.85 --undefined-- 51.286
1.86 --undefined-- 60.139
1.87 --undefined-- 67.985
1.88 180.964 72.157
1.89 176.528 73.236
1.90 160.255 72.473
1.91 151.796 71.613
1.92 147.635 71.108
1.93 144.428 70.428
1.94 142.146 69.994
1.95 142.628 70.119
1.96 141.712 70.050
1.97 141.943 69.434
1.98 143.724 68.253
1.99 147.900 66.059
2.00 161.847 63.077
2.01 177.642 61.917
2.02 184.622 62.544
2.03 194.844 63.151
2.04 200.711 63.649
2.05 205.210 64.281
2.06 210.472 65.656
2.07 217.031 68.280
2.08 220.373 70.622
2.09 219.917 71.726
2.10 218.072 71.839
2.11 213.855 71.033
2.12 210.164 69.262
2.13 208.821 66.799
2.14 210.978 64.473
2.15 --undefined-- 63.380
2.16 --undefined-- 63.561
2.17 --undefined-- 64.020
2.18 --undefined-- 64.252
2.19 --undefined-- 64.697
2.20 --undefined-- 67.162
2.21 --undefined-- 70.087
2.22 --undefined-- 71.237
2.23 152.528 71.337
2.24 146.345 71.196
2.25 141.998 69.540
2.26 137.854 65.128
2.27 --undefined-- 57.391
2.28 --undefined-- 49.461
2.29 --undefined-- 49.587
2.30 --undefined-- 51.379
2.31 --undefined-- 55.321
2.32 --undefined-- 60.233
2.33 --undefined-- 62.529
2.34 --undefined-- 61.886
2.35 --undefined-- 60.064
2.36 --undefined-- 62.601
2.37 --undefined-- 66.283
2.38 162.239 68.069
2.39 155.028 68.509
2.40 150.836 68.833
2.41 147.848 69.520
2.42 145.502 70.181
2.43 143.027 70.375
2.44 140.533 69.751
2.45 138.109 68.144
2.46 136.255 65.544
2.47 133.685 62.134
2.48 134.382 58.748
2.49 136.083 56.547
2.50 134.996 55.385
2.51 135.571 53.374
2.52 --undefined-- 50.035
2.53 --undefined-- 46.581
2.54 --undefined-- 45.700
2.55 --undefined-- 50.646
2.56 --undefined-- 54.164
2.57 --undefined-- 55.093
2.58 --undefined-- 55.026
2.59 --undefined-- 54.035
2.60 --undefined-- 54.337
2.61 --undefined-- 56.482
2.62 --undefined-- 60.867
2.63 --undefined-- 65.727
2.64 157.333 68.912
2.65 151.111 70.241
2.66 144.629 70.827
2.67 142.407 71.300
2.68 139.373 71.223
2.69 137.349 70.965
2.70 135.849 70.662
2.71 133.370 70.340
2.72 129.653 69.676
2.73 125.412 67.792
2.74 --undefined-- 64.816
2.75 --undefined-- 61.858
2.76 --undefined-- 59.134
2.77 --undefined-- 57.893
2.78 --undefined-- 57.414
2.79 --undefined-- 56.044
2.80 --undefined-- 54.787
2.81 120.412 54.811
2.82 122.871 54.701
2.83 122.305 54.043
2.84 122.521 52.992
2.85 --undefined-- 51.559
2.86 --undefined-- 49.830
2.87 --undefined-- 48.238
2.88 --undefined-- 47.610
2.89 --undefined-- 47.689
2.90 --undefined-- 49.754
2.91 --undefined-- 54.843
2.92 --undefined-- 60.955
2.93 --undefined-- 65.554
2.94 --undefined-- 68.186
2.95 254.724 69.418
2.96 266.653 69.590
2.97 276.832 69.040
2.98 289.399 68.135
2.99 292.660 66.688
3.00 295.724 64.597
3.01 297.697 61.457
3.02 --undefined-- 55.891
3.03 --undefined-- 47.834
3.04 --undefined-- 43.975
3.05 --undefined-- 43.132
3.06 --undefined-- 42.052
3.07 --undefined-- 41.223
3.08 --undefined-- 40.677
3.09 --undefined-- 39.651
3.10 --undefined-- 39.025
3.11 --undefined-- 38.769
3.12 --undefined-- 38.673
3.13 --undefined-- 40.126
3.14 --undefined-- 42.269
3.15 --undefined-- 44.007
3.16 --undefined-- 45.022
3.17 --undefined-- 45.675
3.18 --undefined-- 46.074
3.19 --undefined-- 46.363
3.20 --undefined-- 46.744
3.21 --undefined-- 47.380
3.22 --undefined-- 47.869
3.23 --undefined-- 47.385
3.24 --undefined-- 47.402
3.25 --undefined-- 48.545
3.26 --undefined-- 48.732
3.27 --undefined-- 48.641
3.28 --undefined-- 49.156
3.29 --undefined-- 49.438
3.30 --undefined-- 49.728
3.31 --undefined-- 50.302
3.32 --undefined-- 50.667
3.33 --undefined-- 50.604
3.34 --undefined-- 50.086
3.35 --undefined-- 49.876
3.36 --undefined-- 50.583
3.37 --undefined-- 51.523
3.38 --undefined-- 51.949
3.39 --undefined-- 52.619
3.40 --undefined-- 53.761
3.41 --undefined-- 53.922
3.42 --undefined-- 53.395
3.43 --undefined-- 53.149
3.44 --undefined-- 52.324
3.45 --undefined-- 51.095
3.46 --undefined-- 50.320
3.47 --undefined-- 49.731
3.48 --undefined-- 48.798
3.49 --undefined-- 47.698
3.50 --undefined-- 46.649
3.51 --undefined-- 45.832
3.52 --undefined-- 45.287
3.53 --undefined-- 43.899
3.54 --undefined-- 41.857
3.55 --undefined-- 40.821
3.56 --undefined-- 40.173
3.57 --undefined-- 39.212
3.58 --undefined-- 38.788
3.59 --undefined-- 39.521
3.60 --undefined-- 39.956
3.61 --undefined-- 39.520
3.62 --undefined-- 39.823
3.63 --undefined-- 43.945
3.64 --undefined-- 49.996
3.65 --undefined-- 55.666
3.66 182.775 59.491
3.67 192.720 61.550
3.68 189.347 62.802
3.69 188.612 63.452
3.70 188.471 63.464
3.71 188.518 63.091
3.72 187.878 62.143
3.73 186.525 60.022
3.74 178.411 56.051
3.75 --undefined-- 50.674
3.76 --undefined-- 47.634
3.77 --undefined-- 49.465
3.78 --undefined-- 52.623
3.79 --undefined-- 55.933
3.80 --undefined-- 58.334
3.81 --undefined-- 59.364
3.82 --undefined-- 60.286
3.83 --undefined-- 61.901
3.84 215.285 64.149
3.85 218.173 67.142
3.86 225.492 70.195
3.87 228.543 72.603
3.88 229.255 73.625
3.89 234.546 73.638
3.90 242.421 73.675
3.91 249.689 74.111
3.92 255.677 74.287
3.93 260.972 73.129
3.94 267.709 70.040
3.95 277.333 65.990
3.96 291.987 64.422
3.97 151.774 64.832
3.98 152.714 65.133
3.99 151.164 65.018
4.00 147.912 64.226
4.01 141.604 62.626
4.02 136.258 60.211
4.03 140.683 57.596
4.04 134.393 56.910
4.05 189.812 56.696
4.06 170.438 55.689
4.07 154.883 54.853
4.08 146.051 54.180
4.09 137.128 53.212
4.10 129.543 53.006
4.11 124.485 53.173
4.12 125.473 52.636
4.13 --undefined-- 51.210
4.14 --undefined-- 48.977
4.15 --undefined-- 48.275
4.16 --undefined-- 54.356
4.17 --undefined-- 59.454
4.18 --undefined-- 62.401
4.19 --undefined-- 66.644
4.20 --undefined-- 70.509
4.21 199.267 72.067
4.22 201.284 72.186
4.23 206.597 71.858
4.24 212.486 71.201
4.25 217.983 70.048
4.26 227.239 68.918
4.27 234.286 68.803
4.28 236.684 69.555
4.29 237.261 70.158
4.30 240.660 69.957
4.31 243.071 68.372
4.32 240.935 65.241
4.33 236.087 62.766
4.34 239.599 63.259
4.35 246.855 66.588
4.36 241.540 70.108
4.37 236.005 71.744
4.38 232.943 71.216
4.39 231.464 68.348
4.40 226.512 63.147
4.41 225.171 60.553
4.42 --undefined-- 65.536
4.43 --undefined-- 68.644
4.44 209.285 70.489
4.45 203.100 71.925
4.46 197.939 71.693
4.47 193.729 69.169
4.48 186.085 64.380
4.49 --undefined-- 58.776
4.50 --undefined-- 56.449
4.51 --undefined-- 56.490
4.52 --undefined-- 56.921
4.53 --undefined-- 56.560
4.54 --undefined-- 58.147
4.55 --undefined-- 64.649
4.56 --undefined-- 69.638
4.57 147.703 71.791
4.58 143.543 72.042
4.59 134.560 71.395
4.60 126.051 70.476
4.61 123.913 69.312
4.62 122.302 67.586
4.63 120.385 65.081
4.64 121.874 62.186
4.65 120.616 60.192
4.66 120.794 59.150
4.67 122.466 58.586
4.68 122.045 57.359
4.69 121.661 55.292
4.70 119.684 52.518
4.71 --undefined-- 51.345
4.72 --undefined-- 56.351
4.73 --undefined-- 59.791
4.74 --undefined-- 63.105
4.75 161.659 67.770
4.76 159.101 70.670
4.77 155.879 71.735
4.78 154.809 71.915
4.79 155.244 71.601
4.80 157.198 71.018
4.81 159.640 70.560
4.82 163.294 70.086
4.83 168.891 69.331
4.84 176.217 69.151
4.85 182.283 69.988
4.86 187.831 71.065
4.87 193.338 71.876
4.88 197.245 72.260
4.89 200.427 72.492
4.90 203.605 72.829
4.91 204.942 72.958
4.92 204.663 72.233
4.93 206.028 70.375
4.94 206.217 68.234
4.95 203.145 65.699
4.96 201.266 61.004
4.97 --undefined-- 53.741
4.98 --undefined-- 49.032
4.99 --undefined-- 47.340
5.00 --undefined-- 45.096
5.01 --undefined-- 43.348
5.02 --undefined-- 42.838
5.03 --undefined-- 43.159
5.04 --undefined-- 43.485
5.05 --undefined-- 46.118
5.06 --undefined-- 53.041
5.07 --undefined-- 57.237
5.08 --undefined-- 61.361
5.09 276.805 66.854
5.10 273.107 69.935
5.11 270.465 69.863
5.12 265.188 66.874
5.13 262.715 61.077
5.14 --undefined-- 52.787
5.15 --undefined-- 45.422
5.16 --undefined-- 41.929
5.17 --undefined-- 41.588
5.18 --undefined-- 41.264
5.19 --undefined-- 46.533
5.20 --undefined-- 58.066
5.21 --undefined-- 64.578
5.22 --undefined-- 67.495
5.23 203.259 70.512
5.24 200.040 73.379
5.25 195.740 74.074
5.26 192.561 73.103
5.27 192.921 71.544
5.28 194.295 69.609
5.29 195.770 67.507
5.30 197.339 66.051
5.31 199.920 65.567
5.32 202.373 65.524
5.33 203.732 65.864
5.34 204.053 66.956
5.35 204.177 68.821
5.36 203.834 70.968
5.37 203.119 72.340
5.38 200.446 72.311
5.39 193.558 71.188
5.40 185.966 69.846
5.41 173.333 69.025
5.42 165.187 68.758
5.43 159.632 68.173
5.44 154.483 67.503
5.45 151.141 67.285
5.46 148.875 --undefined--
5.47 147.067 --undefined--
5.48 --undefined-- --undefined--
5.49 --undefined-- --undefined--
