Time Pitch Intensity
0.01 --undefined-- --undefined--
0.02 159.101 --undefined--
0.03 159.574 --undefined--
0.04 160.012 --undefined--
0.05 159.714 74.722
0.06 158.137 73.687
0.07 153.700 72.800
0.08 159.499 73.385
0.09 162.714 74.564
0.10 165.769 75.598
0.11 169.313 76.235
0.12 174.140 76.272
0.13 182.141 76.076
0.14 184.414 76.312
0.15 186.261 76.654
0.16 187.799 76.656
0.17 189.437 76.560
0.18 191.000 76.566
0.19 192.564 76.645
0.20 193.959 76.664
0.21 195.707 76.544
0.22 197.130 76.252
0.23 199.286 75.829
0.24 201.743 75.424
0.25 203.311 75.053
0.26 204.431 74.674
0.27 205.500 74.126
0.28 207.596 73.256
0.29 209.226 71.997
0.30 214.390 70.298
0.31 223.873 68.323
0.32 227.267 66.717
0.33 217.799 65.963
0.34 218.969 65.776
0.35 198.953 66.052
0.36 196.764 66.542
0.37 189.283 67.066
0.38 186.926 67.971
0.39 181.396 69.558
0.40 177.384 71.687
0.41 174.918 73.677
0.42 172.373 74.852
0.43 168.777 75.201
0.44 166.938 75.218
0.45 166.686 75.069
0.46 167.733 74.751
0.47 170.335 74.765
0.48 172.652 74.768
0.49 179.315 73.940
0.50 183.907 72.701
0.51 187.315 71.410
0.52 191.010 68.883
0.53 193.444 64.192
0.54 186.962 57.688
0.55 --undefined-- 50.996
0.56 --undefined-- 47.840
0.57 --undefined-- 50.213
0.58 --undefined-- 57.795
0.59 --undefined-- 63.813
0.60 --undefined-- 68.770
0.61 246.368 72.335
0.62 239.861 73.713
0.63 236.311 73.999
0.64 237.914 74.604
0.65 239.604 75.361
0.66 239.594 75.795
0.67 239.833 75.789
0.68 239.068 75.560
0.69 238.716 75.403
0.70 238.218 75.129
0.71 237.726 74.040
0.72 236.434 71.094
0.73 230.978 65.584
0.74 236.115 58.806
0.75 244.661 54.347
0.76 --undefined-- 52.259
0.77 --undefined-- 53.195
0.78 --undefined-- 55.394
0.79 --undefined-- 57.276
0.80 --undefined-- 60.064
0.81 220.247 65.570
0.82 219.437 69.994
0.83 216.998 72.333
0.84 210.365 72.935
0.85 206.163 71.813
0.86 192.254 68.751
0.87 177.120 63.766
0.88 175.505 57.653
0.89 --undefined-- 55.971
0.90 --undefined-- 63.439
0.91 --undefined-- 70.171
0.92 197.067 73.989
0.93 196.679 75.314
0.94 192.289 75.132
0.95 190.049 74.318
0.96 192.465 73.291
0.97 199.959 72.144
0.98 199.927 70.999
0.99 194.535 69.762
1.00 186.600 68.162
1.01 178.256 66.755
1.02 175.014 67.460
1.03 178.590 69.622
1.04 178.656 71.190
1.05 175.294 71.572
1.06 167.452 70.897
1.07 161.006 69.820
1.08 154.919 68.864
1.09 150.321 68.619
1.10 149.597 68.916
1.11 148.707 68.706
1.12 151.550 68.061
1.13 152.110 67.344
1.14 147.101 65.806
1.15 141.668 62.802
1.16 152.143 59.928
1.17 168.699 64.689
1.18 171.708 70.526
1.19 168.611 73.707
1.20 166.214 74.792
1.21 162.612 74.593
1.22 159.975 73.659
1.23 158.299 72.422
1.24 159.515 71.720
1.25 162.686 71.833
1.26 163.555 72.062
1.27 164.942 72.072
1.28 164.694 71.943
1.29 164.555 72.004
1.30 166.692 72.697
1.31 167.947 73.902
1.32 167.194 74.778
1.33 166.946 75.126
1.34 167.499 75.160
1.35 168.411 74.953
1.36 170.983 74.731
1.37 174.051 74.690
1.38 178.199 74.581
1.39 183.638 74.292
1.40 186.532 73.924
1.41 187.913 73.204
1.42 187.186 72.183
1.43 190.411 71.705
1.44 192.551 71.770
1.45 194.373 72.000
1.46 193.907 72.374
1.47 192.468 72.725
1.48 191.371 72.897
1.49 190.862 73.161
1.50 189.701 73.687
1.51 186.214 73.955
1.52 184.057 73.992
1.53 181.168 74.141
1.54 178.766 74.337
1.55 177.336 74.355
1.56 175.341 74.064
1.57 172.631 73.348
1.58 168.559 72.233
1.59 167.142 71.229
1.60 168.798 70.419
1.61 169.491 69.397
1.62 170.468 68.358
1.63 171.547 68.641
1.64 198.456 71.879
1.65 205.476 74.804
1.66 207.372 75.837
1.67 207.324 75.814
1.68 207.212 75.654
1.69 208.519 75.359
1.70 209.075 74.533
1.71 209.114 72.730
1.72 216.142 69.523
1.73 215.839 64.394
1.74 209.794 56.980
1.75 --undefined-- 51.013
1.76 --undefined-- 51.798
1.77 --undefined-- 53.434
1.78 --undefined-- 54.300
1.79 --undefined-- 54.436
1.80 --undefined-- 55.064
1.81 --undefined-- 55.934
1.82 --undefined-- 55.721
1.83 --undefined-- 55.225
1.84 --undefined-- 55.333
1.85 --undefined-- 55.189
1.86 --undefined-- 54.629
1.87 --undefined-- 54.284
1.88 --undefined-- 53.989
1.89 --undefined-- 53.475
1.90 --undefined-- 52.808
1.91 --undefined-- 52.256
1.92 --undefined-- 51.931
1.93 --undefined-- 52.171
1.94 --undefined-- 51.648
1.95 --undefined-- 49.070
1.96 --undefined-- 45.006
1.97 --undefined-- 45.676
1.98 --undefined-- 51.078
1.99 --undefined-- 60.753
2.00 193.588 68.091
2.01 197.796 72.471
2.02 201.320 74.815
2.03 204.205 76.013
2.04 205.704 76.231
2.05 206.856 74.935
2.06 204.028 72.023
2.07 191.669 68.568
2.08 185.765 64.715
2.09 201.866 59.454
2.10 199.766 57.628
2.11 --undefined-- 66.171
2.12 --undefined-- 73.446
2.13 155.332 77.100
2.14 155.146 77.924
2.15 155.710 77.326
2.16 157.108 76.539
2.17 157.737 75.725
2.18 157.986 74.900
2.19 157.607 74.119
2.20 156.855 73.393
2.21 156.368 73.073
2.22 154.543 73.162
2.23 151.241 73.400
2.24 295.129 73.762
2.25 285.790 73.958
2.26 273.605 74.053
2.27 263.766 74.344
2.28 251.983 74.678
2.29 239.611 74.818
2.30 222.283 74.772
2.31 211.331 75.125
2.32 205.565 75.788
2.33 202.074 76.043
2.34 198.470 75.877
2.35 195.008 75.834
2.36 194.965 75.986
2.37 198.094 76.122
2.38 204.565 76.211
2.39 215.737 76.301
2.40 226.146 76.186
2.41 238.332 75.678
2.42 252.092 74.970
2.43 262.536 74.261
2.44 273.021 73.693
2.45 279.625 73.152
2.46 280.308 71.541
2.47 275.184 67.526
2.48 --undefined-- 60.213
2.49 --undefined-- 51.118
2.50 --undefined-- 48.424
2.51 --undefined-- 47.632
2.52 --undefined-- 46.022
2.53 --undefined-- 43.765
2.54 --undefined-- 43.348
2.55 --undefined-- 50.914
2.56 --undefined-- 60.566
2.57 --undefined-- 68.046
2.58 251.328 72.568
2.59 234.452 74.662
2.60 223.134 75.467
2.61 214.691 75.887
2.62 209.303 76.275
2.63 204.549 76.504
2.64 201.099 76.510
2.65 199.564 76.480
2.66 198.379 76.496
2.67 197.218 76.466
2.68 196.664 76.286
2.69 195.425 76.113
2.70 194.815 76.084
2.71 194.798 76.106
2.72 194.690 76.115
2.73 194.866 76.130
2.74 195.568 76.091
2.75 196.665 76.043
2.76 197.304 76.124
2.77 198.036 76.233
2.78 198.472 76.235
2.79 197.919 76.053
2.80 198.195 75.508
2.81 199.661 74.497
2.82 198.849 73.130
2.83 194.380 71.437
2.84 188.321 69.404
2.85 --undefined-- 67.602
2.86 --undefined-- 66.345
2.87 --undefined-- 64.638
2.88 --undefined-- 62.156
2.89 --undefined-- 59.448
2.90 --undefined-- 58.643
2.91 --undefined-- 59.724
2.92 --undefined-- 61.665
2.93 162.133 63.845
2.94 176.248 65.668
2.95 176.755 66.979
2.96 171.000 68.046
2.97 166.295 68.904
2.98 163.926 69.543
2.99 163.294 70.107
3.00 162.771 70.707
3.01 163.219 71.381
3.02 162.837 71.989
3.03 162.630 72.461
3.04 162.542 72.764
3.05 162.035 72.838
3.06 161.154 72.664
3.07 160.253 72.355
3.08 159.557 72.071
3.09 158.572 71.788
3.10 158.426 71.466
3.11 158.164 71.239
3.12 157.716 71.134
3.13 156.787 70.859
3.14 156.550 70.316
3.15 156.613 69.736
3.16 156.556 69.191
3.17 157.119 68.760
3.18 157.326 68.556
3.19 158.434 68.378
3.20 159.432 68.262
3.21 160.309 68.250
3.22 160.597 68.324
3.23 161.462 68.486
3.24 162.074 68.500
3.25 162.158 68.419
3.26 162.559 68.346
3.27 162.890 68.292
3.28 162.750 68.173
3.29 162.560 67.819
3.30 160.031 67.183
3.31 156.086 65.925
3.32 157.142 63.871
3.33 158.135 61.135
3.34 159.298 57.505
3.35 155.455 53.812
3.36 --undefined-- 53.316
3.37 --undefined-- 59.944
3.38 --undefined-- 67.412
3.39 242.088 72.671
3.40 229.990 75.194
3.41 229.665 75.899
3.42 229.881 75.922
3.43 229.950 75.706
3.44 230.694 75.475
3.45 232.537 75.333
3.46 235.165 75.332
3.47 237.317 75.596
3.48 238.713 75.851
3.49 239.472 75.825
3.50 240.703 75.498
3.51 241.917 75.133
3.52 243.679 75.007
3.53 246.058 75.034
3.54 247.965 74.958
3.55 249.225 74.482
3.56 250.046 73.712
3.57 251.219 72.736
3.58 252.350 71.390
3.59 252.065 69.474
3.60 252.432 66.750
3.61 250.822 63.600
3.62 246.897 60.654
3.63 236.529 58.215
3.64 234.711 56.718
3.65 233.521 56.666
3.66 232.204 57.532
3.67 248.038 59.818
3.68 250.055 63.519
3.69 253.462 66.911
3.70 252.922 69.588
3.71 251.429 71.602
3.72 250.455 72.957
3.73 249.867 73.759
3.74 249.735 74.138
3.75 249.919 74.145
3.76 250.240 73.878
3.77 250.755 73.549
3.78 251.512 73.367
3.79 252.243 73.322
3.80 252.415 73.272
3.81 252.052 73.182
3.82 251.977 73.094
3.83 251.847 72.967
3.84 251.234 72.819
3.85 250.450 72.709
3.86 249.958 72.619
3.87 249.700 72.546
3.88 249.435 72.462
3.89 247.486 72.133
3.90 243.418 71.181
3.91 236.625 69.334
3.92 233.094 66.279
3.93 239.309 61.663
3.94 --undefined-- 59.066
3.95 --undefined-- 63.684
3.96 --undefined-- 69.307
3.97 258.118 73.698
3.98 259.091 76.246
3.99 260.130 77.087
4.00 260.475 76.762
4.01 259.319 76.124
4.02 259.221 75.640
4.03 259.192 74.960
4.04 258.508 73.874
4.05 257.212 72.256
4.06 253.267 70.487
4.07 256.986 69.791
4.08 257.554 69.675
4.09 257.968 69.558
4.10 257.724 69.503
4.11 256.815 69.440
4.12 255.483 69.214
4.13 252.385 68.681
4.14 246.715 67.727
4.15 237.323 66.339
4.16 230.471 64.554
4.17 --undefined-- 62.571
4.18 --undefined-- 59.780
4.19 --undefined-- 55.002
4.20 --undefined-- 48.599
4.21 --undefined-- 44.281
4.22 --undefined-- 42.555
4.23 --undefined-- 47.061
4.24 --undefined-- 56.069
4.25 --undefined-- 61.368
4.26 --undefined-- 62.797
4.27 --undefined-- 61.775
4.28 --undefined-- 63.460
4.29 261.226 67.403
4.30 264.013 70.045
4.31 265.325 71.626
4.32 265.065 73.092
4.33 263.823 74.985
4.34 262.497 76.680
4.35 257.631 77.651
4.36 252.281 77.693
4.37 250.521 76.797
4.38 250.333 75.226
4.39 249.999 73.664
4.40 249.702 72.713
4.41 249.070 72.256
4.42 248.884 72.033
4.43 248.496 71.826
4.44 248.956 71.582
4.45 248.465 71.238
4.46 245.818 70.831
4.47 244.059 70.487
4.48 241.978 69.831
4.49 238.719 68.255
4.50 236.686 65.566
4.51 239.903 62.070
4.52 252.867 59.116
4.53 252.246 57.864
4.54 --undefined-- 56.361
4.55 --undefined-- 54.188
4.56 --undefined-- 52.654
4.57 --undefined-- 52.823
4.58 --undefined-- 53.311
4.59 --undefined-- 53.070
4.60 --undefined-- 53.475
4.61 --undefined-- 58.241
4.62 259.947 65.435
4.63 257.572 70.093
4.64 255.650 72.589
4.65 255.882 73.748
4.66 254.881 74.173
4.67 252.840 74.272
4.68 251.141 74.376
4.69 250.007 74.474
4.70 249.166 74.462
4.71 247.701 74.326
4.72 245.205 73.812
4.73 241.436 72.113
4.74 235.490 68.285
4.75 230.319 61.927
4.76 247.153 55.128
4.77 --undefined-- 51.995
4.78 --undefined-- 50.546
4.79 --undefined-- 49.659
4.80 --undefined-- 49.193
4.81 --undefined-- 49.270
4.82 --undefined-- 49.921
4.83 --undefined-- 54.415
4.84 --undefined-- 63.964
4.85 277.119 70.759
4.86 264.065 74.036
4.87 260.382 75.069
4.88 256.858 75.106
4.89 250.950 74.779
4.90 244.151 74.381
4.91 240.814 74.289
4.92 240.987 74.489
4.93 241.183 74.735
4.94 240.134 75.004
4.95 238.097 75.210
4.96 235.800 75.336
4.97 233.919 75.367
4.98 233.905 75.196
4.99 234.667 74.541
5.00 233.870 73.033
5.01 235.491 71.598
5.02 236.120 71.421
5.03 236.687 71.751
5.04 238.279 72.074
5.05 239.644 --undefined--
5.06 240.298 --undefined--
5.07 --undefined-- --undefined--
5.08 --undefined-- --undefined--
