Time Pitch Intensity
0.01 --undefined-- --undefined--
0.02 200.546 --undefined--
0.03 188.624 --undefined--
0.04 183.522 --undefined--
0.05 180.498 67.278
0.06 176.637 67.258
0.07 172.883 67.431
0.08 168.715 67.852
0.09 164.717 68.371
0.10 161.360 68.811
0.11 157.702 69.087
0.12 156.502 69.080
0.13 156.380 68.738
0.14 156.322 68.404
0.15 157.127 68.419
0.16 158.663 68.667
0.17 160.037 68.769
0.18 164.206 68.461
0.19 166.950 67.754
0.20 167.920 66.890
0.21 170.744 66.231
0.22 166.646 65.529
0.23 163.494 64.312
0.24 156.791 62.814
0.25 151.890 62.032
0.26 151.473 62.541
0.27 154.361 63.972
0.28 160.649 65.594
0.29 164.354 67.071
0.30 158.181 68.198
0.31 145.938 68.536
0.32 131.718 67.880
0.33 127.208 66.811
0.34 124.723 66.229
0.35 122.542 66.025
0.36 120.357 65.861
0.37 119.898 65.529
0.38 121.240 65.184
0.39 119.011 65.234
0.40 118.799 65.472
0.41 120.586 65.983
0.42 121.934 66.892
0.43 123.938 67.680
0.44 126.396 68.078
0.45 128.325 68.111
0.46 132.236 67.937
0.47 132.132 68.154
0.48 131.722 68.529
0.49 131.818 68.401
0.50 132.671 68.347
0.51 132.006 68.557
0.52 132.938 68.596
0.53 134.196 68.532
0.54 134.958 68.293
0.55 136.477 67.779
0.56 137.216 67.101
0.57 137.334 66.480
0.58 133.189 65.923
0.59 125.248 65.179
0.60 121.482 64.161
0.61 125.011 63.355
0.62 122.326 63.337
0.63 120.358 64.111
0.64 118.737 65.209
0.65 121.537 66.261
0.66 127.203 67.057
0.67 131.643 67.620
0.68 136.390 68.362
0.69 141.347 69.406
0.70 145.186 70.203
0.71 148.434 70.775
0.72 150.879 71.355
0.73 154.735 71.837
0.74 158.175 72.083
0.75 160.198 72.088
0.76 161.444 71.848
0.77 171.995 71.403
0.78 178.439 70.971
0.79 177.314 70.562
0.80 172.883 69.890
0.81 166.779 68.791
0.82 166.438 67.922
0.83 165.303 68.436
0.84 155.048 69.548
0.85 147.714 69.991
0.86 142.183 69.304
0.87 137.861 67.262
0.88 130.811 63.798
0.89 130.850 59.261
0.90 141.572 54.664
0.91 --undefined-- 49.374
0.92 --undefined-- 44.223
0.93 --undefined-- 44.352
0.94 --undefined-- 46.148
0.95 --undefined-- 49.013
0.96 --undefined-- 55.184
0.97 --undefined-- 61.937
0.98 --undefined-- 66.387
0.99 --undefined-- 68.406
1.00 132.717 68.788
1.01 127.765 68.835
1.02 124.366 68.778
1.03 121.335 68.107
1.04 117.725 66.726
1.05 112.591 65.023
1.06 112.942 64.240
1.07 113.844 64.469
1.08 115.624 65.007
1.09 117.132 65.444
1.10 118.209 65.404
1.11 119.549 65.158
1.12 118.863 65.070
1.13 118.329 65.041
1.14 117.716 64.941
1.15 115.011 64.738
1.16 114.389 64.556
1.17 111.615 64.322
1.18 107.625 63.776
1.19 104.041 63.181
1.20 100.802 62.980
1.21 92.397 62.869
1.22 87.866 62.481
1.23 85.543 61.857
1.24 86.028 61.211
1.25 88.047 60.943
1.26 90.602 60.863
1.27 92.744 60.729
1.28 94.602 60.726
1.29 96.659 60.869
1.30 98.261 61.009
1.31 98.866 61.045
1.32 99.216 61.134
1.33 99.349 61.492
1.34 99.205 62.081
1.35 98.778 62.607
1.36 98.201 62.856
1.37 96.942 62.800
1.38 97.160 62.813
1.39 100.071 63.050
1.40 101.622 63.053
1.41 102.317 62.511
1.42 102.725 61.817
1.43 99.764 61.260
1.44 99.681 60.751
1.45 99.184 60.045
1.46 99.024 59.328
1.47 98.696 59.072
1.48 99.307 59.669
1.49 97.039 60.738
1.50 98.313 61.171
1.51 100.164 60.901
1.52 99.131 60.318
1.53 104.011 60.196
1.54 104.854 60.629
1.55 107.048 61.219
1.56 107.966 61.792
1.57 110.318 62.345
1.58 113.171 63.205
1.59 115.525 64.153
1.60 116.301 64.678
1.61 116.907 64.836
1.62 118.281 64.955
1.63 120.136 65.182
1.64 120.423 65.185
1.65 120.395 64.848
1.66 120.636 64.166
1.67 120.838 63.072
1.68 120.430 61.650
1.69 122.442 60.192
1.70 127.005 59.799
1.71 131.533 61.297
1.72 131.551 63.374
1.73 127.288 64.689
1.74 122.512 65.037
1.75 119.000 65.017
1.76 118.251 64.976
1.77 118.538 64.922
1.78 118.031 64.573
1.79 114.734 63.097
1.80 112.447 59.784
1.81 111.686 54.291
1.82 --undefined-- 46.811
1.83 --undefined-- 40.888
1.84 --undefined-- 39.403
1.85 --undefined-- 37.446
1.86 --undefined-- 35.314
1.87 --undefined-- 35.669
1.88 --undefined-- 37.340
1.89 --undefined-- 38.788
1.90 --undefined-- 39.374
1.91 --undefined-- 39.453
1.92 --undefined-- 44.423
1.93 --undefined-- 52.494
1.94 --undefined-- 57.566
1.95 103.112 60.071
1.96 96.666 60.969
1.97 92.687 60.639
1.98 88.478 58.983
1.99 86.137 56.300
2.00 83.933 53.740
2.01 --undefined-- 51.836
2.02 118.194 49.935
2.03 --undefined-- 46.827
2.04 --undefined-- 44.213
2.05 --undefined-- 48.175
2.06 --undefined-- 55.114
2.07 137.042 59.952
2.08 126.920 62.106
2.09 121.788 62.537
2.10 118.193 62.533
2.11 116.878 62.687
2.12 113.182 62.619
2.13 112.388 62.122
2.14 112.135 61.598
2.15 112.180 61.450
2.16 113.562 61.508
2.17 114.667 61.583
2.18 115.468 61.577
2.19 115.177 61.542
2.20 115.383 61.772
2.21 117.537 62.312
2.22 120.665 62.969
2.23 122.478 63.662
2.24 124.305 64.301
2.25 126.957 64.779
2.26 130.966 64.900
2.27 134.259 64.761
2.28 137.080 64.869
2.29 140.237 65.190
2.30 143.519 65.403
2.31 147.557 65.586
2.32 151.446 66.097
2.33 152.399 66.815
2.34 151.524 67.213
2.35 153.314 66.902
2.36 154.758 65.978
2.37 152.436 64.982
2.38 150.801 64.112
2.39 148.899 63.304
2.40 145.397 62.646
2.41 142.469 62.385
2.42 139.952 62.958
2.43 138.014 63.977
2.44 132.758 64.493
2.45 123.476 64.329
2.46 118.651 63.575
2.47 114.125 61.649
2.48 99.691 58.183
2.49 91.857 54.410
2.50 92.218 51.301
2.51 --undefined-- 47.889
2.52 --undefined-- 44.218
2.53 --undefined-- 40.736
2.54 --undefined-- 37.957
2.55 --undefined-- 36.215
2.56 --undefined-- 35.112
2.57 --undefined-- 36.873
2.58 --undefined-- 39.838
2.59 --undefined-- 47.413
2.60 --undefined-- 56.658
2.61 --undefined-- 62.810
2.62 151.978 66.158
2.63 149.630 67.495
2.64 147.580 67.818
2.65 146.162 67.817
2.66 146.038 67.610
2.67 146.481 67.278
2.68 147.212 66.965
2.69 148.546 66.749
2.70 149.727 66.649
2.71 150.642 66.676
2.72 151.375 66.724
2.73 152.705 66.634
2.74 154.733 66.557
2.75 154.718 66.892
2.76 152.940 67.397
2.77 153.809 67.851
2.78 154.928 68.441
2.79 155.324 68.923
2.80 155.692 68.973
2.81 155.552 68.380
2.82 151.728 66.996
2.83 152.885 64.701
2.84 145.622 61.459
2.85 150.727 57.879
2.86 159.885 54.745
2.87 164.328 51.762
2.88 --undefined-- 48.131
2.89 --undefined-- 44.511
2.90 --undefined-- 46.195
2.91 --undefined-- 53.923
2.92 --undefined-- 60.154
2.93 --undefined-- 63.982
2.94 133.397 65.835
2.95 128.080 66.434
2.96 125.076 66.512
2.97 122.029 66.003
2.98 118.790 65.061
2.99 117.438 64.542
3.00 116.787 64.743
3.01 --undefined-- 64.953
3.02 216.034 63.949
3.03 220.574 61.414
3.04 223.117 59.283
3.05 221.626 56.740
3.06 --undefined-- 50.774
3.07 --undefined-- 42.071
3.08 --undefined-- 39.118
3.09 --undefined-- 38.605
3.10 --undefined-- 37.174
3.11 --undefined-- 35.098
3.12 --undefined-- 34.069
3.13 --undefined-- 35.913
3.14 --undefined-- 37.913
3.15 --undefined-- 39.036
3.16 --undefined-- 45.346
3.17 --undefined-- 53.829
3.18 122.246 59.081
3.19 117.137 61.727
3.20 111.533 62.869
3.21 112.530 63.284
3.22 112.868 63.205
3.23 106.943 62.746
3.24 102.863 62.123
3.25 97.219 61.402
3.26 94.728 60.677
3.27 88.111 60.178
3.28 86.162 59.987
3.29 86.852 60.087
3.30 90.297 60.562
3.31 97.291 61.354
3.32 101.607 62.421
3.33 103.965 63.403
3.34 106.254 64.086
3.35 109.541 64.430
3.36 112.427 64.619
3.37 109.761 64.793
3.38 109.007 64.818
3.39 106.778 64.664
3.40 104.590 64.499
3.41 104.650 64.384
3.42 105.362 63.860
3.43 104.729 62.106
3.44 93.747 58.722
3.45 --undefined-- 54.293
3.46 --undefined-- 49.536
3.47 --undefined-- 44.536
3.48 --undefined-- 40.111
3.49 --undefined-- 38.942
3.50 --undefined-- 41.960
3.51 --undefined-- 44.313
3.52 --undefined-- 43.323
3.53 --undefined-- 43.782
3.54 --undefined-- 47.994
3.55 --undefined-- 49.467
3.56 --undefined-- 48.446
3.57 --undefined-- 50.336
3.58 --undefined-- 57.185
3.59 --undefined-- 62.838
3.60 127.425 65.964
3.61 120.983 67.434
3.62 119.338 68.096
3.63 121.802 68.073
3.64 122.707 67.619
3.65 120.384 67.085
3.66 120.455 66.773
3.67 123.748 67.174
3.68 128.852 68.150
3.69 133.845 68.912
3.70 136.392 68.933
3.71 139.514 68.241
3.72 147.936 67.726
3.73 155.723 68.133
3.74 155.650 69.041
3.75 141.731 69.914
3.76 129.521 70.446
3.77 121.101 70.365
3.78 111.606 69.369
3.79 105.944 67.683
3.80 99.856 66.241
3.81 95.022 65.002
3.82 91.258 63.607
3.83 87.940 62.620
3.84 75.519 61.880
3.85 --undefined-- 60.437
3.86 --undefined-- 57.561
3.87 --undefined-- 52.973
3.88 --undefined-- 47.016
3.89 --undefined-- 42.166
3.90 --undefined-- 40.564
3.91 --undefined-- 39.194
3.92 --undefined-- 39.368
3.93 --undefined-- 41.137
3.94 --undefined-- 43.004
3.95 --undefined-- 44.240
3.96 --undefined-- 44.567
3.97 --undefined-- 44.131
3.98 --undefined-- 43.553
3.99 --undefined-- 44.025
4.00 --undefined-- 44.818
4.01 --undefined-- 45.429
4.02 --undefined-- 45.965
4.03 --undefined-- 45.884
4.04 --undefined-- 45.000
4.05 --undefined-- 44.039
4.06 --undefined-- 43.403
4.07 --undefined-- 45.494
4.08 --undefined-- 51.685
4.09 218.160 56.082
4.10 216.969 56.855
4.11 212.317 53.767
4.12 --undefined-- 47.212
4.13 --undefined-- 40.933
4.14 --undefined-- 38.902
4.15 --undefined-- 38.353
4.16 --undefined-- 42.267
4.17 --undefined-- 47.921
4.18 --undefined-- 56.457
4.19 --undefined-- 64.186
4.20 179.421 68.303
4.21 180.453 69.588
4.22 180.691 69.530
4.23 179.227 69.301
4.24 176.691 68.693
4.25 173.399 66.925
4.26 293.056 63.217
4.27 261.116 57.185
4.28 --undefined-- 49.586
4.29 --undefined-- 44.534
4.30 --undefined-- 44.008
4.31 --undefined-- 43.415
4.32 --undefined-- 43.162
4.33 --undefined-- 53.727
4.34 --undefined-- 63.770
4.35 285.241 69.732
4.36 271.323 72.222
4.37 248.625 72.516
4.38 239.996 72.066
4.39 231.962 71.583
4.40 227.146 71.259
4.41 227.163 71.399
4.42 230.059 71.778
4.43 232.916 71.771
4.44 234.997 71.219
4.45 235.185 70.510
4.46 234.580 70.202
4.47 234.673 70.386
4.48 235.287 70.671
4.49 235.191 70.307
4.50 233.071 69.147
4.51 231.884 67.216
4.52 224.117 64.033
4.53 217.121 59.981
4.54 212.429 55.159
4.55 --undefined-- 48.973
4.56 --undefined-- 44.328
4.57 --undefined-- 43.166
4.58 --undefined-- 41.547
4.59 --undefined-- 39.854
4.60 --undefined-- 46.714
4.61 --undefined-- 53.579
4.62 --undefined-- 58.262
4.63 297.686 63.721
4.64 283.691 68.299
4.65 277.868 70.922
4.66 276.281 72.439
4.67 275.023 73.366
4.68 274.454 73.473
4.69 272.349 72.405
4.70 269.415 69.957
4.71 266.289 65.618
4.72 264.787 59.199
4.73 269.490 52.055
4.74 267.513 47.733
4.75 --undefined-- 45.956
4.76 --undefined-- 44.178
4.77 --undefined-- 42.146
4.78 --undefined-- 39.949
4.79 --undefined-- 38.169
4.80 --undefined-- 36.980
4.81 --undefined-- 37.828
4.82 --undefined-- 45.098
4.83 --undefined-- 56.265
4.84 --undefined-- 64.516
4.85 --undefined-- 69.189
4.86 --undefined-- 70.422
4.87 --undefined-- 68.996
4.88 --undefined-- 66.221
4.89 110.471 63.651
4.90 118.262 61.564
4.91 122.422 59.481
4.92 129.310 58.408
4.93 129.569 57.292
4.94 --undefined-- 55.571
4.95 --undefined-- 53.247
4.96 --undefined-- 49.397
4.97 --undefined-- 44.763
4.98 --undefined-- 41.196
4.99 --undefined-- 39.011
5.00 --undefined-- 40.889
5.01 --undefined-- 44.106
5.02 --undefined-- 44.004
5.03 --undefined-- 40.373
5.04 --undefined-- 34.889
5.05 --undefined-- 31.988
5.06 --undefined-- 33.815
5.07 --undefined-- 36.881
5.08 --undefined-- 38.838
5.09 --undefined-- 39.054
5.10 --undefined-- 37.781
5.11 --undefined-- 35.811
5.12 --undefined-- 35.221
5.13 --undefined-- 38.189
5.14 --undefined-- 41.072
5.15 --undefined-- 41.973
5.16 --undefined-- 41.605
5.17 --undefined-- 41.149
5.18 --undefined-- 41.437
5.19 --undefined-- 41.964
5.20 --undefined-- 41.788
5.21 --undefined-- 41.211
5.22 --undefined-- 40.178
5.23 --undefined-- 39.035
5.24 --undefined-- 38.091
5.25 --undefined-- 36.219
5.26 --undefined-- 33.833
5.27 --undefined-- 34.147
5.28 --undefined-- 37.818
5.29 --undefined-- 49.628
5.30 --undefined-- 58.975
5.31 174.473 64.375
5.32 173.499 66.652
5.33 175.861 67.141
5.34 177.258 67.194
5.35 180.432 67.639
5.36 184.403 68.555
5.37 189.933 69.610
5.38 196.886 70.596
5.39 204.367 71.661
5.40 209.998 72.642
5.41 214.328 72.851
5.42 218.196 72.057
5.43 218.280 70.684
5.44 216.688 69.390
5.45 217.007 68.974
5.46 221.350 70.063
5.47 228.074 72.123
5.48 231.613 74.224
5.49 233.218 75.515
5.50 232.252 75.738
5.51 231.555 75.173
5.52 231.387 74.181
5.53 230.101 72.997
5.54 229.662 71.820
5.55 229.769 70.783
5.56 227.563 69.817
5.57 222.842 68.891
5.58 217.293 68.024
5.59 212.936 67.540
5.60 210.137 67.803
5.61 209.552 68.625
5.62 207.980 69.570
5.63 203.697 70.291
5.64 198.099 70.614
5.65 180.842 70.555
5.66 168.909 70.757
5.67 160.694 71.630
5.68 153.762 72.236
5.69 150.425 71.599
5.70 147.413 69.678
5.71 141.470 66.701
5.72 148.241 63.372
5.73 157.764 --undefined--
5.74 158.469 --undefined--
5.75 --undefined-- --undefined--
5.76 --undefined-- --undefined--
