Time Pitch Intensity
0.01 --undefined-- --undefined--
0.02 173.893 --undefined--
0.03 174.627 --undefined--
0.04 175.715 --undefined--
0.05 174.838 77.652
0.06 170.444 76.784
0.07 162.666 74.274
0.08 160.773 69.362
0.09 169.960 62.953
0.10 168.595 59.868
0.11 169.233 59.839
0.12 --undefined-- 60.497
0.13 --undefined-- 63.413
0.14 --undefined-- 71.214
0.15 --undefined-- 76.729
0.16 186.113 78.959
0.17 182.603 78.788
0.18 174.577 78.122
0.19 168.759 78.126
0.20 159.744 78.124
0.21 153.486 77.573
0.22 137.891 76.658
0.23 131.046 76.049
0.24 126.125 76.008
0.25 121.919 76.244
0.26 115.110 76.368
0.27 110.795 76.388
0.28 108.638 76.375
0.29 103.540 76.190
0.30 103.661 75.889
0.31 105.457 75.579
0.32 105.554 75.387
0.33 105.739 75.286
0.34 105.266 74.719
0.35 102.227 72.775
0.36 95.637 68.670
0.37 109.266 62.688
0.38 --undefined-- 61.259
0.39 --undefined-- 67.465
0.40 --undefined-- 73.430
0.41 --undefined-- 76.961
0.42 133.021 78.111
0.43 133.605 78.105
0.44 133.060 77.794
0.45 132.212 77.004
0.46 130.539 75.340
0.47 129.763 72.130
0.48 130.374 66.625
0.49 131.872 58.796
0.50 --undefined-- 53.408
0.51 --undefined-- 52.491
0.52 --undefined-- 51.889
0.53 --undefined-- 51.900
0.54 --undefined-- 54.189
0.55 --undefined-- 58.077
0.56 --undefined-- 61.721
0.57 --undefined-- 67.721
0.58 --undefined-- 73.621
0.59 131.583 76.880
0.60 121.085 78.116
0.61 116.253 78.323
0.62 109.331 78.038
0.63 106.719 77.851
0.64 107.507 78.014
0.65 110.799 78.044
0.66 114.614 77.805
0.67 120.150 77.634
0.68 125.114 77.689
0.69 127.628 77.679
0.70 129.724 77.358
0.71 130.760 76.456
0.72 129.350 74.246
0.73 128.517 70.132
0.74 149.984 64.370
0.75 124.962 58.929
0.76 124.650 58.587
0.77 --undefined-- 63.268
0.78 --undefined-- 71.211
0.79 --undefined-- 76.365
0.80 166.562 78.303
0.81 165.457 78.247
0.82 164.533 77.634
0.83 159.276 76.680
0.84 151.506 74.358
0.85 --undefined-- 69.752
0.86 --undefined-- 63.092
0.87 --undefined-- 60.622
0.88 121.233 66.081
0.89 115.980 70.648
0.90 150.264 74.062
0.91 163.647 76.538
0.92 163.129 77.808
0.93 159.075 78.212
0.94 157.197 78.470
0.95 157.295 78.667
0.96 157.516 78.545
0.97 151.482 77.739
0.98 150.861 75.919
0.99 150.502 73.657
1.00 154.393 72.257
1.01 155.377 71.707
1.02 156.789 71.759
1.03 158.976 72.421
1.04 163.532 73.587
1.05 169.114 75.161
1.06 175.537 76.853
1.07 181.047 78.309
1.08 183.619 79.404
1.09 184.947 80.072
1.10 186.701 80.383
1.11 186.602 80.500
1.12 185.081 80.395
1.13 183.784 80.135
1.14 182.886 79.847
1.15 183.025 79.531
1.16 183.957 79.214
1.17 184.545 78.772
1.18 183.108 77.822
1.19 179.099 75.786
1.20 170.984 72.386
1.21 163.431 68.276
1.22 173.022 63.633
1.23 --undefined-- 57.964
1.24 --undefined-- 60.809
1.25 --undefined-- 66.289
1.26 --undefined-- 68.620
1.27 --undefined-- 67.843
1.28 --undefined-- 65.361
1.29 --undefined-- 64.599
1.30 --undefined-- 67.090
1.31 139.160 70.772
1.32 139.391 73.599
1.33 126.606 75.394
1.34 113.249 76.615
1.35 102.956 77.412
1.36 98.946 77.665
1.37 96.881 77.339
1.38 97.571 76.544
1.39 98.417 75.658
1.40 98.244 74.975
1.41 99.238 74.240
1.42 99.107 73.149
1.43 98.174 71.623
1.44 97.251 69.695
1.45 98.967 67.260
1.46 104.666 63.759
1.47 111.881 58.709
1.48 --undefined-- 53.970
1.49 --undefined-- 52.405
1.50 --undefined-- 52.858
1.51 --undefined-- 56.762
1.52 --undefined-- 65.548
1.53 --undefined-- 72.204
1.54 142.762 75.393
1.55 126.282 75.829
1.56 120.413 74.882
1.57 118.870 74.032
1.58 118.416 73.065
1.59 116.147 71.102
1.60 114.328 67.712
1.61 112.243 62.645
1.62 120.798 56.609
1.63 --undefined-- 51.809
1.64 --undefined-- 51.379
1.65 --undefined-- 58.128
1.66 --undefined-- 65.096
1.67 --undefined-- 71.448
1.68 137.344 75.761
1.69 131.819 77.740
1.70 126.476 78.056
1.71 123.011 77.417
1.72 120.111 75.823
1.73 120.595 72.761
1.74 120.524 68.041
1.75 117.491 62.520
1.76 123.928 58.104
1.77 123.509 54.237
1.78 --undefined-- 50.328
1.79 --undefined-- 50.915
1.80 --undefined-- 57.715
1.81 --undefined-- 61.806
1.82 --undefined-- 62.929
1.83 --undefined-- 63.768
1.84 140.709 67.267
1.85 139.324 70.772
1.86 129.411 72.704
1.87 115.229 73.430
1.88 101.489 73.582
1.89 95.375 73.343
1.90 89.945 72.876
1.91 89.691 72.954
1.92 92.649 73.676
1.93 95.280 74.294
1.94 97.076 74.653
1.95 98.772 74.971
1.96 98.763 75.304
1.97 99.412 75.533
1.98 99.558 75.496
1.99 99.872 75.096
2.00 101.367 74.055
2.01 99.902 71.668
2.02 100.014 67.476
2.03 103.795 61.859
2.04 103.501 55.868
2.05 --undefined-- 51.925
2.06 --undefined-- 55.721
2.07 --undefined-- 65.377
2.08 --undefined-- 71.523
2.09 --undefined-- 74.484
2.10 108.439 75.855
2.11 107.762 76.920
2.12 108.427 77.679
2.13 110.023 77.968
2.14 111.109 77.963
2.15 112.605 77.909
2.16 115.452 77.975
2.17 119.819 77.890
2.18 121.033 76.636
2.19 126.106 73.157
2.20 --undefined-- 66.966
2.21 --undefined-- 58.670
2.22 --undefined-- 52.824
2.23 --undefined-- 52.144
2.24 --undefined-- 52.489
2.25 --undefined-- 52.741
2.26 --undefined-- 52.500
2.27 --undefined-- 55.393
2.28 --undefined-- 65.322
2.29 215.451 72.442
2.30 201.399 76.412
2.31 203.942 78.380
2.32 202.679 79.299
2.33 202.704 79.673
2.34 203.939 79.652
2.35 202.786 79.172
2.36 198.303 78.101
2.37 194.882 76.251
2.38 197.964 73.461
2.39 201.743 69.714
2.40 200.256 65.012
2.41 200.766 60.524
2.42 197.338 64.407
2.43 --undefined-- 72.101
2.44 196.931 76.587
2.45 196.069 77.995
2.46 193.419 76.903
2.47 189.295 73.554
2.48 167.701 67.646
2.49 --undefined-- 59.083
2.50 --undefined-- 53.663
2.51 --undefined-- 58.578
2.52 --undefined-- 64.524
2.53 --undefined-- 70.057
2.54 --undefined-- 75.380
2.55 167.415 78.262
2.56 158.992 78.900
2.57 148.411 78.622
2.58 145.399 78.199
2.59 143.695 77.596
2.60 144.730 76.852
2.61 143.839 76.373
2.62 152.633 77.344
2.63 156.288 78.740
2.64 157.232 79.168
2.65 157.417 78.924
2.66 157.552 78.616
2.67 157.296 78.360
2.68 157.308 78.142
2.69 157.656 77.871
2.70 156.353 77.027
2.71 152.016 74.691
2.72 149.852 69.969
2.73 158.213 62.443
2.74 159.366 55.906
2.75 161.901 55.145
2.76 163.261 56.169
2.77 --undefined-- 58.157
2.78 --undefined-- 59.759
2.79 --undefined-- 59.577
2.80 --undefined-- 57.679
2.81 --undefined-- 54.495
2.82 --undefined-- 51.579
2.83 --undefined-- 54.733
2.84 --undefined-- 59.668
2.85 --undefined-- 66.634
2.86 --undefined-- 73.515
2.87 169.719 77.312
2.88 167.804 78.475
2.89 164.799 78.387
2.90 161.903 78.104
2.91 159.758 77.646
2.92 158.267 76.925
2.93 157.464 76.370
2.94 158.909 76.533
2.95 160.059 77.083
2.96 159.947 77.438
2.97 158.466 77.495
2.98 156.951 77.290
2.99 155.696 76.606
3.00 152.393 74.747
3.01 147.362 71.213
3.02 158.689 66.394
3.03 159.745 61.001
3.04 --undefined-- 64.130
3.05 --undefined-- 71.954
3.06 --undefined-- 76.288
3.07 138.827 77.654
3.08 127.669 77.685
3.09 122.306 78.082
3.10 120.593 78.664
3.11 120.055 78.824
3.12 119.493 78.631
3.13 117.814 78.146
3.14 115.821 77.161
3.15 114.861 75.472
3.16 114.115 72.870
3.17 108.390 69.497
3.18 105.828 66.278
3.19 114.633 62.907
3.20 115.373 57.971
3.21 --undefined-- 52.057
3.22 --undefined-- 51.702
3.23 --undefined-- 59.760
3.24 --undefined-- 64.598
3.25 --undefined-- 65.382
3.26 --undefined-- 62.856
3.27 --undefined-- 59.950
3.28 --undefined-- 61.576
3.29 132.661 66.238
3.30 136.212 70.616
3.31 137.154 73.454
3.32 120.198 74.869
3.33 99.709 75.814
3.34 97.339 76.721
3.35 96.215 77.089
3.36 96.252 77.080
3.37 98.488 77.333
3.38 103.293 77.695
3.39 107.550 77.873
3.40 112.012 78.013
3.41 115.329 77.924
3.42 114.468 77.097
3.43 111.989 75.159
3.44 108.938 72.083
3.45 112.775 68.143
3.46 111.813 63.231
3.47 111.846 57.732
3.48 --undefined-- 56.392
3.49 --undefined-- 59.971
3.50 --undefined-- 63.906
3.51 --undefined-- 69.625
3.52 --undefined-- 74.958
3.53 130.667 77.796
3.54 124.863 78.631
3.55 121.783 78.277
3.56 117.181 76.774
3.57 109.736 73.690
3.58 96.653 69.194
3.59 116.026 63.978
3.60 120.195 57.598
3.61 --undefined-- 51.708
3.62 --undefined-- 50.726
3.63 --undefined-- 52.940
3.64 --undefined-- 55.651
3.65 --undefined-- 57.012
3.66 --undefined-- 59.045
3.67 --undefined-- 66.936
3.68 163.464 73.599
3.69 148.765 77.535
3.70 145.603 79.476
3.71 145.403 80.081
3.72 143.692 79.958
3.73 141.898 79.492
3.74 140.654 78.594
3.75 137.116 77.530
3.76 139.268 76.650
3.77 144.367 75.341
3.78 147.286 73.513
3.79 150.543 72.379
3.80 147.730 72.463
3.81 139.580 73.772
3.82 119.951 75.627
3.83 103.336 77.142
3.84 102.765 77.988
3.85 103.490 78.195
3.86 104.441 78.085
3.87 104.103 77.824
3.88 104.042 77.404
3.89 104.482 77.191
3.90 106.000 77.562
3.91 107.685 78.269
3.92 109.682 78.853
3.93 110.796 79.061
3.94 111.162 79.201
3.95 111.449 79.448
3.96 111.077 79.490
3.97 109.513 79.192
3.98 105.188 78.560
3.99 102.784 77.597
4.00 100.686 76.216
4.01 98.571 74.308
4.02 98.210 71.667
4.03 102.782 68.087
4.04 103.033 63.105
4.05 --undefined-- 56.278
4.06 --undefined-- 51.859
4.07 --undefined-- 51.235
4.08 --undefined-- 51.065
4.09 --undefined-- 51.976
4.10 --undefined-- 53.331
4.11 --undefined-- 54.605
4.12 --undefined-- 54.787
4.13 --undefined-- 53.932
4.14 --undefined-- 53.113
4.15 --undefined-- 52.532
4.16 --undefined-- 51.835
4.17 --undefined-- 51.476
4.18 --undefined-- 51.544
4.19 --undefined-- 50.665
4.20 --undefined-- 49.540
4.21 --undefined-- 49.170
4.22 --undefined-- 48.917
4.23 --undefined-- 47.790
4.24 --undefined-- 45.197
4.25 --undefined-- 42.980
4.26 --undefined-- 42.998
4.27 --undefined-- 43.469
4.28 --undefined-- 43.473
4.29 --undefined-- 51.608
4.30 --undefined-- 62.613
4.31 --undefined-- 69.651
4.32 85.416 73.304
4.33 83.926 74.777
4.34 82.478 75.481
4.35 80.484 76.203
4.36 158.180 76.306
4.37 156.480 75.320
4.38 154.011 73.314
4.39 153.111 70.693
4.40 157.926 69.151
4.41 165.870 72.809
4.42 161.273 77.024
4.43 160.298 78.839
4.44 157.055 78.787
4.45 152.758 78.238
4.46 148.608 78.049
4.47 144.701 78.085
4.48 143.353 78.045
4.49 142.821 78.080
4.50 142.713 78.434
4.51 142.872 78.944
4.52 142.768 79.152
4.53 140.646 78.830
4.54 138.190 78.314
4.55 136.738 78.128
4.56 136.077 78.339
4.57 135.932 78.695
4.58 136.001 78.935
4.59 135.769 78.668
4.60 134.290 77.509
4.61 129.112 75.790
4.62 128.621 74.890
4.63 131.247 75.919
4.64 138.226 77.992
4.65 138.874 79.235
4.66 139.225 79.467
4.67 139.658 79.457
4.68 139.498 79.480
4.69 139.224 79.472
4.70 137.979 79.454
4.71 137.051 79.401
4.72 136.561 79.294
4.73 136.136 79.209
4.74 135.729 79.240
4.75 134.458 79.251
4.76 132.390 79.014
4.77 128.615 78.316
4.78 125.235 76.778
4.79 120.010 73.988
4.80 119.998 70.550
4.81 140.062 70.255
4.82 150.234 73.913
4.83 140.993 76.843
4.84 129.054 78.141
4.85 123.058 78.428
4.86 119.890 78.086
4.87 114.349 77.266
4.88 111.404 76.638
4.89 109.435 76.377
4.90 107.727 75.648
4.91 105.043 73.587
4.92 100.120 69.667
4.93 --undefined-- 63.920
4.94 --undefined-- 57.130
4.95 --undefined-- 49.484
4.96 --undefined-- 47.608
4.97 --undefined-- 54.900
4.98 --undefined-- 62.585
4.99 --undefined-- 69.274
5.00 --undefined-- 74.393
5.01 154.710 76.957
5.02 147.093 77.491
5.03 144.230 77.242
5.04 142.581 76.431
5.05 137.811 75.026
5.06 140.772 74.724
5.07 144.766 --undefined--
5.08 146.058 --undefined--
5.09 --undefined-- --undefined--
5.10 --undefined-- --undefined--
