Time Pitch Intensity
0.01 --undefined-- --undefined--
0.02 --undefined-- --undefined--
0.03 --undefined-- --undefined--
0.04 --undefined-- --undefined--
0.05 --undefined-- 47.756
0.06 --undefined-- 48.106
0.07 --undefined-- 50.099
0.08 --undefined-- 51.004
0.09 --undefined-- 53.749
0.10 --undefined-- 55.573
0.11 --undefined-- 53.570
0.12 --undefined-- 48.021
0.13 --undefined-- 48.544
0.14 --undefined-- 54.770
0.15 --undefined-- 58.858
0.16 --undefined-- 62.217
0.17 152.444 65.698
0.18 153.439 67.975
0.19 154.616 69.178
0.20 155.564 69.880
0.21 155.870 70.246
0.22 154.723 70.286
0.23 153.332 70.163
0.24 151.195 69.878
0.25 297.061 68.807
0.26 287.178 66.131
0.27 266.450 61.633
0.28 --undefined-- 58.481
0.29 --undefined-- 58.035
0.30 --undefined-- 56.004
0.31 --undefined-- 55.125
0.32 --undefined-- 56.851
0.33 255.918 60.634
0.34 229.984 64.847
0.35 212.157 66.730
0.36 201.862 66.999
0.37 192.858 67.722
0.38 191.081 68.916
0.39 189.807 69.917
0.40 189.554 70.803
0.41 189.882 71.569
0.42 191.378 72.288
0.43 192.686 72.956
0.44 193.574 73.191
0.45 194.398 72.900
0.46 194.448 72.070
0.47 192.910 70.228
0.48 187.975 66.815
0.49 186.754 61.445
0.50 --undefined-- 55.576
0.51 --undefined-- 55.892
0.52 --undefined-- 57.704
0.53 --undefined-- 57.594
0.54 --undefined-- 58.191
0.55 --undefined-- 59.515
0.56 236.240 61.737
0.57 217.384 65.317
0.58 208.250 68.278
0.59 205.068 70.315
0.60 203.193 71.171
0.61 201.699 70.567
0.62 201.477 68.779
0.63 201.173 67.135
0.64 203.640 66.229
0.65 206.206 65.417
0.66 206.484 65.329
0.67 206.876 65.792
0.68 204.617 65.789
0.69 203.154 65.357
0.70 200.584 64.989
0.71 198.324 64.470
0.72 194.938 63.135
0.73 188.149 60.773
0.74 --undefined-- 58.002
0.75 --undefined-- 54.518
0.76 --undefined-- 51.544
0.77 --undefined-- 51.331
0.78 --undefined-- 55.155
0.79 --undefined-- 61.628
0.80 208.886 66.359
0.81 207.055 68.717
0.82 207.277 68.958
0.83 209.567 67.602
0.84 222.670 65.984
0.85 225.869 65.547
0.86 238.366 65.583
0.87 242.498 65.058
0.88 246.824 63.425
0.89 248.378 60.779
0.90 236.269 57.528
0.91 249.981 55.316
0.92 250.376 55.193
0.93 --undefined-- 55.726
0.94 --undefined-- 55.360
0.95 --undefined-- 54.329
0.96 --undefined-- 54.423
0.97 --undefined-- 57.621
0.98 242.625 60.559
0.99 241.142 61.524
1.00 237.495 61.357
1.01 231.858 60.954
1.02 227.000 60.769
1.03 235.221 61.874
1.04 232.740 64.214
1.05 207.866 66.204
1.06 202.063 67.491
1.07 209.168 67.761
1.08 224.644 67.267
1.09 226.119 67.113
1.10 229.012 67.605
1.11 231.300 68.374
1.12 231.928 69.478
1.13 230.912 71.350
1.14 228.288 73.003
1.15 224.621 73.101
1.16 215.628 71.460
1.17 208.543 69.599
1.18 202.738 68.484
1.19 198.475 67.634
1.20 198.546 67.171
1.21 197.744 66.860
1.22 196.910 66.781
1.23 195.722 66.769
1.24 196.473 66.836
1.25 198.518 66.866
1.26 201.630 66.703
1.27 208.720 66.654
1.28 217.294 66.882
1.29 223.910 67.353
1.30 233.389 67.911
1.31 242.888 68.604
1.32 251.407 69.347
1.33 256.741 69.987
1.34 259.611 70.105
1.35 263.242 69.110
1.36 265.199 67.006
1.37 265.997 64.557
1.38 270.322 62.743
1.39 272.409 61.225
1.40 269.690 59.815
1.41 262.749 58.697
1.42 --undefined-- 57.627
1.43 --undefined-- 57.282
1.44 94.646 57.880
1.45 94.871 59.136
1.46 95.895 60.639
1.47 200.146 61.469
1.48 209.733 61.615
1.49 218.874 61.768
1.50 227.177 62.078
1.51 256.517 62.629
1.52 257.672 63.167
1.53 252.094 63.439
1.54 243.028 63.617
1.55 230.668 64.100
1.56 203.229 64.911
1.57 198.992 65.934
1.58 198.517 66.563
1.59 198.209 66.860
1.60 196.315 68.314
1.61 193.498 70.107
1.62 193.536 70.866
1.63 194.668 70.659
1.64 195.501 70.138
1.65 195.981 69.860
1.66 195.111 69.934
1.67 195.043 70.017
1.68 197.318 69.658
1.69 203.269 68.783
1.70 208.872 67.966
1.71 215.580 67.833
1.72 220.730 68.295
1.73 226.701 68.596
1.74 232.227 68.324
1.75 235.376 67.637
1.76 236.166 66.429
1.77 230.909 64.272
1.78 225.063 63.336
1.79 240.204 66.350
1.80 238.914 69.304
1.81 233.720 70.846
1.82 228.981 71.676
1.83 227.200 72.215
1.84 230.216 71.981
1.85 239.048 70.649
1.86 244.133 68.758
1.87 248.788 68.110
1.88 236.126 69.173
1.89 211.846 70.279
1.90 207.882 70.803
1.91 205.870 70.714
1.92 204.756 70.322
1.93 204.808 69.934
1.94 205.291 69.491
1.95 205.301 68.873
1.96 203.776 68.063
1.97 201.501 67.108
1.98 198.844 65.697
1.99 188.864 63.436
2.00 189.883 60.912
2.01 201.386 59.321
2.02 201.944 57.012
2.03 --undefined-- 52.470
2.04 --undefined-- 48.959
2.05 --undefined-- 50.700
2.06 --undefined-- 53.537
2.07 --undefined-- 55.683
2.08 --undefined-- 55.550
2.09 --undefined-- 52.807
2.10 --undefined-- 49.945
2.11 --undefined-- 49.149
2.12 --undefined-- 49.654
2.13 --undefined-- 53.455
2.14 254.828 59.024
2.15 229.171 63.761
2.16 216.677 66.794
2.17 210.438 68.248
2.18 206.364 68.408
2.19 202.015 67.812
2.20 199.805 67.349
2.21 198.171 67.280
2.22 197.279 67.471
2.23 196.878 67.750
2.24 196.521 67.933
2.25 196.983 67.975
2.26 198.262 67.786
2.27 200.450 67.265
2.28 202.675 66.447
2.29 203.322 65.649
2.30 203.354 65.017
2.31 201.190 63.973
2.32 195.652 61.494
2.33 194.638 57.323
2.34 --undefined-- 53.522
2.35 --undefined-- 50.594
2.36 --undefined-- 48.560
2.37 --undefined-- 51.138
2.38 --undefined-- 53.571
2.39 250.474 56.503
2.40 233.309 60.534
2.41 220.224 63.860
2.42 209.888 66.351
2.43 203.660 67.976
2.44 198.830 68.714
2.45 196.108 69.187
2.46 194.889 69.922
2.47 194.763 70.783
2.48 195.301 71.375
2.49 195.835 71.434
2.50 195.879 70.836
2.51 194.566 69.585
2.52 192.182 67.577
2.53 190.907 64.445
2.54 193.869 60.679
2.55 192.935 57.621
2.56 191.625 55.437
2.57 --undefined-- 54.666
2.58 --undefined-- 53.642
2.59 --undefined-- 55.757
2.60 --undefined-- 59.679
2.61 --undefined-- 60.922
2.62 --undefined-- 59.362
2.63 --undefined-- 57.032
2.64 --undefined-- 56.479
2.65 258.506 60.149
2.66 253.580 64.994
2.67 253.820 67.970
2.68 254.821 69.430
2.69 257.497 70.393
2.70 258.791 71.307
2.71 259.972 71.909
2.72 259.327 72.005
2.73 259.818 71.380
2.74 263.767 69.843
2.75 264.319 68.070
2.76 263.053 67.011
2.77 260.373 66.419
2.78 257.644 65.391
2.79 237.107 63.337
2.80 232.305 60.280
2.81 258.830 55.780
2.82 --undefined-- 50.221
2.83 --undefined-- 48.929
2.84 --undefined-- 50.493
2.85 --undefined-- 52.109
2.86 --undefined-- 53.425
2.87 --undefined-- 53.733
2.88 --undefined-- 54.300
2.89 --undefined-- 58.486
2.90 276.346 62.553
2.91 265.752 64.455
2.92 265.090 64.897
2.93 265.391 64.879
2.94 266.386 64.868
2.95 267.855 64.882
2.96 270.097 65.079
2.97 272.054 65.319
2.98 272.813 65.060
2.99 270.270 63.824
3.00 264.274 61.273
3.01 259.277 58.048
3.02 --undefined-- 57.564
3.03 --undefined-- 58.551
3.04 --undefined-- 57.084
3.05 --undefined-- 53.529
3.06 --undefined-- 53.307
3.07 --undefined-- 55.038
3.08 --undefined-- 55.483
3.09 288.723 56.714
3.10 265.711 57.805
3.11 271.328 56.457
3.12 271.636 55.225
3.13 272.379 57.104
3.14 243.609 58.583
3.15 220.137 60.463
3.16 233.096 63.277
3.17 236.589 65.062
3.18 231.218 65.206
3.19 228.029 63.879
3.20 236.479 62.133
3.21 236.664 61.546
3.22 235.371 62.083
3.23 115.846 62.184
3.24 108.611 61.936
3.25 101.637 62.228
3.26 98.488 62.994
3.27 97.200 63.865
3.28 94.694 64.624
3.29 92.056 65.017
3.30 183.140 64.926
3.31 181.032 64.442
3.32 175.929 63.648
3.33 176.041 62.967
3.34 175.807 62.467
3.35 176.609 62.331
3.36 177.899 62.291
3.37 177.747 61.733
3.38 175.655 60.273
3.39 174.133 57.760
3.40 172.640 54.498
3.41 --undefined-- 51.713
3.42 --undefined-- 52.092
3.43 --undefined-- 54.436
3.44 --undefined-- 55.111
3.45 --undefined-- 55.191
3.46 --undefined-- 56.928
3.47 --undefined-- 57.265
3.48 --undefined-- 54.790
3.49 --undefined-- 50.806
3.50 --undefined-- 49.746
3.51 --undefined-- 51.113
3.52 --undefined-- 53.315
3.53 --undefined-- 54.591
3.54 --undefined-- 54.398
3.55 --undefined-- 53.616
3.56 --undefined-- 51.918
3.57 --undefined-- 48.645
3.58 --undefined-- 48.998
3.59 --undefined-- 51.704
3.60 --undefined-- 51.423
3.61 --undefined-- 49.142
3.62 --undefined-- 49.702
3.63 --undefined-- 52.792
3.64 --undefined-- 55.441
3.65 --undefined-- 55.812
3.66 --undefined-- 54.323
3.67 --undefined-- 51.721
3.68 --undefined-- 47.733
3.69 --undefined-- 47.917
3.70 --undefined-- 50.537
3.71 --undefined-- 50.787
3.72 --undefined-- 50.407
3.73 --undefined-- 50.701
3.74 --undefined-- 49.288
3.75 --undefined-- 48.920
3.76 --undefined-- 53.649
3.77 --undefined-- 57.053
3.78 254.109 60.063
3.79 241.563 64.453
3.80 221.509 67.835
3.81 220.325 69.862
3.82 222.932 71.152
3.83 225.020 72.072
3.84 225.136 72.704
3.85 224.828 72.990
3.86 224.844 73.119
3.87 224.497 73.276
3.88 224.337 73.399
3.89 224.564 73.471
3.90 223.699 73.486
3.91 221.487 73.168
3.92 222.112 72.361
3.93 221.294 71.445
3.94 218.988 70.696
3.95 217.014 70.176
3.96 216.374 69.900
3.97 215.251 69.710
3.98 214.434 69.455
3.99 214.943 69.229
4.00 214.783 68.844
4.01 213.838 67.454
4.02 211.517 64.108
4.03 210.187 58.185
4.04 211.157 52.454
4.05 216.921 55.163
4.06 217.781 58.497
4.07 218.122 59.024
4.08 277.725 57.212
4.09 274.226 55.081
4.10 --undefined-- 54.621
4.11 --undefined-- 56.687
4.12 261.138 61.818
4.13 235.951 65.515
4.14 208.351 67.491
4.15 201.494 68.366
4.16 196.237 68.551
4.17 189.598 68.449
4.18 187.158 68.317
4.19 185.817 68.125
4.20 184.557 67.819
4.21 184.418 67.486
4.22 185.231 67.333
4.23 185.611 67.213
4.24 185.317 67.038
4.25 186.159 67.128
4.26 187.597 67.419
4.27 189.147 67.453
4.28 191.851 67.125
4.29 194.513 66.560
4.30 196.947 65.728
4.31 197.344 64.296
4.32 194.939 61.769
4.33 195.166 58.154
4.34 198.647 55.823
4.35 --undefined-- 55.607
4.36 --undefined-- 53.808
4.37 --undefined-- 50.640
4.38 --undefined-- 50.938
4.39 --undefined-- 53.785
4.40 --undefined-- 56.156
4.41 --undefined-- 57.180
4.42 284.582 57.510
4.43 252.820 61.015
4.44 241.608 64.953
4.45 222.422 67.558
4.46 216.898 69.202
4.47 210.878 70.067
4.48 206.215 70.069
4.49 203.756 69.524
4.50 203.405 69.168
4.51 204.643 69.077
4.52 206.870 69.079
4.53 208.429 68.961
4.54 209.481 68.365
4.55 210.326 67.362
4.56 210.570 66.076
4.57 210.632 64.617
4.58 209.607 62.751
4.59 208.293 59.951
4.60 210.001 56.556
4.61 209.948 53.982
4.62 --undefined-- 53.659
4.63 --undefined-- 55.180
4.64 --undefined-- 56.272
4.65 --undefined-- 57.892
4.66 --undefined-- 61.794
4.67 212.833 65.452
4.68 204.976 67.574
4.69 198.662 68.442
4.70 194.634 68.946
4.71 193.255 69.468
4.72 193.079 69.789
4.73 193.694 69.832
4.74 194.575 69.895
4.75 194.823 70.037
4.76 194.822 70.189
4.77 194.768 70.595
4.78 195.058 71.235
4.79 194.439 71.585
4.80 193.084 71.498
4.81 192.367 71.062
4.82 192.746 70.166
4.83 193.934 69.006
4.84 195.733 68.006
4.85 197.327 67.217
4.86 195.182 66.423
4.87 192.134 64.947
4.88 190.866 61.927
4.89 192.100 57.253
4.90 191.225 54.237
4.91 212.383 55.462
4.92 224.324 59.070
4.93 218.376 62.331
4.94 218.700 --undefined--
4.95 223.209 --undefined--
4.96 --undefined-- --undefined--
4.97 --undefined-- --undefined--
