Time Pitch Intensity
0.01 --undefined-- --undefined--
0.02 113.393 --undefined--
0.03 114.926 --undefined--
0.04 117.555 --undefined--
0.05 121.499 71.088
0.06 126.947 71.848
0.07 131.994 72.506
0.08 134.536 72.173
0.09 133.756 70.116
0.10 128.612 65.889
0.11 125.498 59.593
0.12 --undefined-- 52.587
0.13 --undefined-- 48.290
0.14 --undefined-- 50.155
0.15 --undefined-- 60.519
0.16 --undefined-- 68.531
0.17 191.690 73.224
0.18 177.669 75.663
0.19 172.026 76.877
0.20 168.021 77.092
0.21 167.824 76.229
0.22 170.662 74.520
0.23 171.096 72.523
0.24 168.960 70.927
0.25 167.148 69.229
0.26 160.192 66.718
0.27 164.054 63.390
0.28 --undefined-- 59.703
0.29 --undefined-- 55.643
0.30 --undefined-- 49.675
0.31 --undefined-- 43.439
0.32 --undefined-- 41.067
0.33 --undefined-- 40.682
0.34 --undefined-- 39.421
0.35 --undefined-- 37.993
0.36 --undefined-- 38.270
0.37 --undefined-- 37.955
0.38 --undefined-- 36.712
0.39 --undefined-- 36.211
0.40 --undefined-- 37.992
0.41 --undefined-- 38.767
0.42 --undefined-- 36.368
0.43 --undefined-- 31.883
0.44 --undefined-- 32.700
0.45 --undefined-- 36.878
0.46 --undefined-- 38.495
0.47 --undefined-- 37.188
0.48 --undefined-- 35.005
0.49 --undefined-- 35.544
0.50 --undefined-- 37.664
0.51 --undefined-- 39.358
0.52 --undefined-- 39.177
0.53 --undefined-- 37.256
0.54 --undefined-- 35.781
0.55 --undefined-- 37.152
0.56 --undefined-- 38.684
0.57 --undefined-- 38.917
0.58 --undefined-- 39.553
0.59 --undefined-- 39.775
0.60 --undefined-- 40.199
0.61 --undefined-- 41.084
0.62 --undefined-- 40.210
0.63 --undefined-- 38.927
0.64 --undefined-- 40.322
0.65 --undefined-- 41.821
0.66 --undefined-- 42.085
0.67 --undefined-- 41.708
0.68 --undefined-- 41.804
0.69 --undefined-- 42.723
0.70 --undefined-- 43.345
0.71 --undefined-- 43.276
0.72 --undefined-- 42.856
0.73 --undefined-- 42.400
0.74 --undefined-- 42.230
0.75 --undefined-- 41.897
0.76 --undefined-- 41.819
0.77 --undefined-- 41.758
0.78 --undefined-- 41.528
0.79 --undefined-- 41.783
0.80 --undefined-- 41.440
0.81 --undefined-- 40.843
0.82 --undefined-- 41.513
0.83 --undefined-- 42.185
0.84 --undefined-- 42.144
0.85 --undefined-- 41.932
0.86 --undefined-- 42.085
0.87 --undefined-- 42.107
0.88 --undefined-- 41.418
0.89 --undefined-- 40.222
0.90 --undefined-- 39.497
0.91 --undefined-- 39.316
0.92 --undefined-- 39.552
0.93 --undefined-- 40.073
0.94 --undefined-- 40.067
0.95 --undefined-- 40.282
0.96 --undefined-- 40.980
0.97 --undefined-- 40.854
0.98 --undefined-- 39.096
0.99 --undefined-- 36.296
1.00 --undefined-- 35.440
1.01 --undefined-- 37.824
1.02 --undefined-- 40.795
1.03 --undefined-- 41.011
1.04 --undefined-- 39.220
1.05 --undefined-- 37.840
1.06 --undefined-- 38.058
1.07 --undefined-- 39.365
1.08 --undefined-- 40.729
1.09 --undefined-- 51.137
1.10 --undefined-- 60.435
1.11 170.050 65.860
1.12 163.270 68.534
1.13 163.070 69.748
1.14 163.437 70.865
1.15 167.143 73.090
1.16 172.120 75.705
1.17 174.230 77.496
1.18 175.498 78.423
1.19 177.147 78.488
1.20 177.867 77.818
1.21 178.441 77.159
1.22 177.878 76.908
1.23 176.683 76.375
1.24 174.197 74.385
1.25 161.005 70.008
1.26 143.605 63.224
1.27 160.871 56.669
1.28 --undefined-- 51.666
1.29 --undefined-- 51.666
1.30 --undefined-- 61.004
1.31 204.278 68.297
1.32 189.201 72.986
1.33 180.989 75.737
1.34 175.079 77.078
1.35 171.287 77.374
1.36 168.948 77.006
1.37 167.079 75.930
1.38 165.668 73.359
1.39 152.576 68.598
1.40 148.897 62.925
1.41 148.646 59.035
1.42 --undefined-- 56.641
1.43 --undefined-- 55.502
1.44 --undefined-- 54.142
1.45 --undefined-- 53.771
1.46 --undefined-- 59.418
1.47 142.850 66.341
1.48 135.333 70.355
1.49 128.143 71.674
1.50 116.689 71.223
1.51 108.275 70.498
1.52 102.999 70.073
1.53 100.272 69.447
1.54 98.791 68.237
1.55 97.390 66.030
1.56 96.349 62.779
1.57 96.765 59.802
1.58 99.349 58.237
1.59 98.687 56.791
1.60 95.274 54.731
1.61 97.004 54.352
1.62 110.942 58.447
1.63 110.519 63.293
1.64 114.386 66.881
1.65 117.413 69.209
1.66 115.115 70.670
1.67 114.593 71.561
1.68 116.216 72.111
1.69 119.346 72.185
1.70 120.059 71.147
1.71 123.679 69.333
1.72 132.267 68.152
1.73 135.064 66.867
1.74 135.855 64.500
1.75 133.123 61.043
1.76 140.458 56.634
1.77 --undefined-- 50.973
1.78 --undefined-- 44.425
1.79 --undefined-- 44.842
1.80 --undefined-- 55.162
1.81 --undefined-- 64.475
1.82 --undefined-- 70.672
1.83 --undefined-- 73.989
1.84 152.029 75.288
1.85 143.879 75.627
1.86 141.339 75.439
1.87 139.873 74.840
1.88 139.429 74.357
1.89 139.508 74.310
1.90 139.894 74.721
1.91 140.793 75.495
1.92 142.262 76.323
1.93 144.066 77.082
1.94 145.040 77.571
1.95 146.262 77.447
1.96 146.216 76.377
1.97 146.504 74.117
1.98 144.475 70.472
1.99 142.975 65.381
2.00 143.425 59.492
2.01 --undefined-- 53.324
2.02 --undefined-- 47.754
2.03 --undefined-- 52.966
2.04 --undefined-- 59.050
2.05 --undefined-- 61.248
2.06 --undefined-- 60.099
2.07 --undefined-- 56.783
2.08 --undefined-- 53.776
2.09 --undefined-- 57.310
2.10 --undefined-- 65.761
2.11 144.244 71.218
2.12 141.407 73.784
2.13 135.837 74.269
2.14 130.449 73.774
2.15 125.712 73.630
2.16 123.959 74.176
2.17 123.625 74.679
2.18 124.857 74.667
2.19 125.422 74.039
2.20 125.430 72.737
2.21 124.594 70.768
2.22 120.258 68.475
2.23 114.892 65.972
2.24 115.297 62.457
2.25 --undefined-- 56.973
2.26 --undefined-- 49.848
2.27 --undefined-- 45.118
2.28 --undefined-- 42.805
2.29 --undefined-- 40.531
2.30 --undefined-- 38.310
2.31 --undefined-- 37.822
2.32 --undefined-- 39.067
2.33 --undefined-- 40.166
2.34 --undefined-- 39.511
2.35 --undefined-- 37.485
2.36 --undefined-- 36.286
2.37 --undefined-- 36.921
2.38 --undefined-- 37.722
2.39 --undefined-- 38.712
2.40 --undefined-- 39.620
2.41 --undefined-- 39.429
2.42 --undefined-- 38.920
2.43 --undefined-- 38.837
2.44 --undefined-- 37.539
2.45 --undefined-- 35.525
2.46 --undefined-- 35.303
2.47 --undefined-- 35.959
2.48 --undefined-- 36.931
2.49 --undefined-- 36.907
2.50 --undefined-- 35.803
2.51 --undefined-- 36.123
2.52 --undefined-- 37.948
2.53 --undefined-- 39.098
2.54 --undefined-- 39.044
2.55 --undefined-- 37.737
2.56 --undefined-- 35.149
2.57 --undefined-- 33.545
2.58 --undefined-- 38.117
2.59 --undefined-- 49.116
2.60 --undefined-- 57.585
2.61 --undefined-- 61.825
2.62 --undefined-- 62.121
2.63 --undefined-- 60.472
2.64 171.476 65.626
2.65 178.806 71.526
2.66 174.421 74.969
2.67 167.480 76.774
2.68 164.997 77.679
2.69 167.017 78.155
2.70 169.685 78.355
2.71 173.877 77.917
2.72 179.537 77.008
2.73 179.515 76.357
2.74 177.519 75.936
2.75 175.334 75.219
2.76 171.519 73.905
2.77 167.696 71.688
2.78 --undefined-- 68.157
2.79 --undefined-- 63.896
2.80 --undefined-- 61.078
2.81 --undefined-- 59.820
2.82 138.839 58.859
2.83 132.037 58.338
2.84 108.975 58.229
2.85 118.171 58.445
2.86 122.350 58.524
2.87 112.043 59.026
2.88 101.324 60.450
2.89 90.544 62.502
2.90 115.507 64.524
2.91 113.071 66.198
2.92 113.961 67.296
2.93 113.068 67.844
2.94 113.967 68.225
2.95 114.519 68.509
2.96 115.282 68.636
2.97 115.521 68.678
2.98 115.362 68.773
2.99 115.279 68.935
3.00 115.692 69.155
3.01 116.760 69.396
3.02 118.422 69.584
3.03 121.408 69.624
3.04 119.287 69.253
3.05 114.882 68.222
3.06 101.013 66.815
3.07 102.325 66.492
3.08 103.867 67.199
3.09 115.080 68.022
3.10 117.389 68.738
3.11 116.872 69.371
3.12 118.987 70.720
3.13 119.923 72.859
3.14 122.592 74.696
3.15 125.907 75.614
3.16 128.900 75.709
3.17 133.660 75.639
3.18 145.849 75.623
3.19 154.805 75.141
3.20 171.924 74.672
3.21 177.604 74.556
3.22 179.015 73.540
3.23 187.518 71.498
3.24 185.838 70.074
3.25 179.499 69.976
3.26 177.531 70.601
3.27 174.337 71.625
3.28 170.206 72.944
3.29 165.134 74.359
3.30 160.746 75.619
3.31 157.108 76.528
3.32 153.949 76.821
3.33 149.680 76.272
3.34 144.462 74.610
3.35 138.723 71.270
3.36 134.850 65.649
3.37 --undefined-- 57.858
3.38 --undefined-- 50.496
3.39 --undefined-- 47.464
3.40 --undefined-- 49.781
3.41 --undefined-- 53.265
3.42 --undefined-- 56.163
3.43 --undefined-- 60.142
3.44 --undefined-- 66.460
3.45 159.865 71.133
3.46 151.307 73.395
3.47 143.374 73.828
3.48 140.089 73.224
3.49 138.381 72.405
3.50 136.048 71.371
3.51 130.779 69.469
3.52 131.968 67.541
3.53 132.194 67.430
3.54 131.553 67.980
3.55 132.678 68.161
3.56 132.421 67.964
3.57 129.641 67.557
3.58 128.132 67.317
3.59 127.835 67.850
3.60 133.373 69.382
3.61 133.892 71.243
3.62 133.435 72.714
3.63 131.331 73.450
3.64 126.956 73.416
3.65 121.365 73.104
3.66 119.022 72.886
3.67 117.009 72.692
3.68 115.692 72.172
3.69 113.331 70.822
3.70 --undefined-- 68.073
3.71 --undefined-- 63.267
3.72 --undefined-- 57.159
3.73 --undefined-- 52.205
3.74 --undefined-- 45.711
3.75 --undefined-- 39.961
3.76 --undefined-- 41.561
3.77 --undefined-- 42.660
3.78 --undefined-- 41.985
3.79 --undefined-- 43.034
3.80 --undefined-- 45.340
3.81 --undefined-- 45.205
3.82 --undefined-- 42.131
3.83 --undefined-- 38.462
3.84 --undefined-- 37.992
3.85 --undefined-- 38.712
3.86 --undefined-- 38.064
3.87 --undefined-- 35.985
3.88 --undefined-- 35.924
3.89 --undefined-- 37.606
3.90 --undefined-- 37.752
3.91 --undefined-- 37.326
3.92 --undefined-- 37.601
3.93 --undefined-- 37.855
3.94 --undefined-- 38.023
3.95 --undefined-- 42.852
3.96 --undefined-- 52.839
3.97 --undefined-- 58.440
3.98 --undefined-- 59.779
3.99 --undefined-- 58.008
4.00 --undefined-- 55.775
4.01 --undefined-- 58.678
4.02 190.278 65.895
4.03 197.530 71.651
4.04 194.070 74.915
4.05 187.891 76.167
4.06 182.570 76.078
4.07 181.994 75.500
4.08 183.152 74.406
4.09 181.723 72.437
4.10 181.952 70.923
4.11 181.847 70.830
4.12 181.639 70.891
4.13 182.008 70.726
4.14 181.981 70.315
4.15 180.700 69.490
4.16 176.607 67.879
4.17 169.034 65.154
4.18 163.826 61.277
4.19 179.492 56.794
4.20 --undefined-- 52.570
4.21 --undefined-- 55.574
4.22 --undefined-- 64.354
4.23 215.863 70.754
4.24 197.777 74.716
4.25 189.848 76.742
4.26 178.931 77.393
4.27 174.711 77.574
4.28 --undefined-- 77.499
4.29 83.014 77.110
4.30 82.762 76.620
4.31 83.417 76.101
4.32 83.961 75.605
4.33 171.099 75.029
4.34 174.118 74.514
4.35 174.713 74.208
4.36 173.354 73.930
4.37 171.812 73.361
4.38 170.720 72.229
4.39 170.956 69.740
4.40 --undefined-- 64.876
4.41 --undefined-- 57.086
4.42 --undefined-- 48.555
4.43 --undefined-- 48.406
4.44 --undefined-- 54.556
4.45 --undefined-- 57.402
4.46 --undefined-- 56.603
4.47 --undefined-- 53.751
4.48 --undefined-- 52.476
4.49 --undefined-- 52.487
4.50 --undefined-- 52.003
4.51 --undefined-- 53.041
4.52 --undefined-- 60.480
4.53 --undefined-- 66.505
4.54 144.886 69.246
4.55 136.984 69.405
4.56 123.809 68.394
4.57 115.504 67.638
4.58 116.363 66.027
4.59 122.759 62.292
4.60 122.479 57.143
4.61 --undefined-- 52.108
4.62 --undefined-- 46.477
4.63 --undefined-- 45.019
4.64 --undefined-- 52.441
4.65 --undefined-- 59.509
4.66 --undefined-- 64.019
4.67 --undefined-- 67.204
4.68 129.150 69.769
4.69 128.012 71.544
4.70 125.786 72.263
4.71 121.353 72.096
4.72 117.078 72.026
4.73 115.518 72.104
4.74 113.681 71.509
4.75 112.501 70.295
4.76 112.585 69.021
4.77 113.129 67.645
4.78 112.015 65.478
4.79 106.932 62.182
4.80 101.093 58.674
4.81 106.023 58.065
4.82 114.524 62.759
4.83 132.069 67.609
4.84 133.496 70.864
4.85 133.413 72.810
4.86 131.369 73.401
4.87 128.320 73.325
4.88 127.382 73.359
4.89 126.454 73.013
4.90 123.961 71.549
4.91 119.893 68.600
4.92 113.891 63.758
4.93 --undefined-- 56.563
4.94 --undefined-- 49.829
4.95 --undefined-- 47.240
4.96 --undefined-- 46.305
4.97 --undefined-- 44.585
4.98 --undefined-- 42.550
4.99 --undefined-- 42.295
5.00 --undefined-- 43.136
5.01 --undefined-- 44.650
5.02 --undefined-- 50.992
5.03 --undefined-- 58.849
5.04 128.331 63.622
5.05 106.325 65.809
5.06 100.986 66.654
5.07 98.874 66.830
5.08 99.299 66.911
5.09 102.694 67.688
5.10 107.479 69.092
5.11 112.494 70.746
5.12 117.030 72.511
5.13 121.400 73.744
5.14 126.387 74.233
5.15 134.394 74.697
5.16 140.001 74.887
5.17 141.365 73.575
5.18 140.073 69.918
5.19 --undefined-- 63.515
5.20 --undefined-- 54.430
5.21 --undefined-- 49.647
5.22 --undefined-- 53.211
5.23 --undefined-- 56.523
5.24 --undefined-- 58.477
5.25 --undefined-- 58.820
5.26 --undefined-- 60.113
5.27 181.396 65.574
5.28 177.639 69.806
5.29 173.324 71.939
5.30 168.957 72.698
5.31 161.567 73.007
5.32 159.033 73.836
5.33 157.592 74.887
5.34 156.680 75.561
5.35 156.252 75.760
5.36 --undefined-- 75.476
5.37 78.269 74.949
5.38 78.122 74.433
5.39 78.332 73.859
5.40 78.486 73.258
5.41 78.733 72.767
5.42 78.884 72.344
5.43 78.696 71.737
5.44 77.676 70.880
5.45 77.959 69.845
5.46 78.423 68.186
5.47 77.653 65.237
5.48 74.967 62.219
5.49 --undefined-- 59.981
5.50 --undefined-- 56.405
5.51 --undefined-- 50.889
5.52 --undefined-- 43.896
5.53 --undefined-- 38.213
5.54 --undefined-- 37.884
5.55 --undefined-- 38.736
5.56 --undefined-- 40.662
5.57 --undefined-- 42.073
5.58 --undefined-- 46.259
5.59 --undefined-- 52.160
5.60 --undefined-- 56.114
5.61 --undefined-- 57.184
5.62 --undefined-- 55.807
5.63 --undefined-- 58.255
5.64 140.974 63.068
5.65 121.068 65.404
5.66 117.275 66.232
5.67 116.607 66.444
5.68 112.878 65.939
5.69 108.889 64.972
5.70 107.030 64.719
5.71 112.375 66.184
5.72 114.591 67.857
5.73 111.773 68.132
5.74 106.364 67.085
5.75 104.118 65.889
5.76 101.592 65.078
5.77 100.836 64.397
5.78 100.422 63.823
5.79 100.664 63.179
5.80 95.845 62.154
5.81 100.968 61.290
5.82 101.834 61.158
5.83 103.411 61.344
5.84 105.322 61.536
5.85 107.897 62.166
5.86 111.544 63.619
5.87 117.333 65.730
5.88 126.415 68.325
5.89 --undefined-- 70.914
5.90 --undefined-- 72.348
5.91 --undefined-- 72.305
5.92 --undefined-- 70.783
5.93 --undefined-- 67.626
5.94 --undefined-- 63.369
5.95 --undefined-- 58.182
5.96 --undefined-- 50.992
5.97 --undefined-- 46.241
5.98 --undefined-- 49.366
5.99 108.979 51.728
6.00 101.386 53.593
6.01 --undefined-- 56.360
6.02 --undefined-- 59.740
6.03 126.081 63.180
6.04 122.215 65.707
6.05 121.986 67.106
6.06 --undefined-- 66.891
6.07 --undefined-- 64.238
6.08 --undefined-- 59.007
6.09 --undefined-- 52.360
6.10 --undefined-- 46.264
6.11 --undefined-- 43.608
6.12 --undefined-- 45.291
6.13 --undefined-- 53.780
6.14 --undefined-- 60.177
6.15 --undefined-- 63.727
6.16 115.599 65.813
6.17 122.001 67.353
6.18 123.827 68.502
6.19 118.014 69.207
6.20 117.355 69.726
6.21 116.612 70.080
6.22 116.338 70.146
6.23 117.342 70.214
6.24 118.170 70.684
6.25 122.014 71.337
6.26 126.308 --undefined--
6.27 128.831 --undefined--
6.28 --undefined-- --undefined--
6.29 --undefined-- --undefined--
