Time Pitch Intensity
0.01 --undefined-- --undefined--
0.02 --undefined-- --undefined--
0.03 187.198 --undefined--
0.04 183.346 --undefined--
0.05 176.583 73.312
0.06 171.580 73.888
0.07 166.858 73.345
0.08 155.811 71.564
0.09 148.262 68.488
0.10 139.060 63.916
0.11 --undefined-- 57.860
0.12 --undefined-- 50.811
0.13 --undefined-- 45.323
0.14 --undefined-- 42.711
0.15 --undefined-- 40.256
0.16 --undefined-- 41.102
0.17 --undefined-- 48.135
0.18 --undefined-- 56.287
0.19 --undefined-- 63.391
0.20 157.508 69.073
0.21 148.693 72.834
0.22 143.517 74.686
0.23 135.414 75.146
0.24 129.873 75.273
0.25 128.830 75.220
0.26 126.822 74.483
0.27 125.459 73.674
0.28 126.013 73.599
0.29 128.248 74.208
0.30 132.702 75.509
0.31 137.777 77.273
0.32 141.868 78.995
0.33 147.019 80.216
0.34 152.371 80.535
0.35 159.846 79.996
0.36 169.383 79.620
0.37 177.483 79.933
0.38 186.209 80.490
0.39 193.529 81.229
0.40 197.428 81.524
0.41 198.955 80.468
0.42 198.342 77.493
0.43 --undefined-- 72.879
0.44 --undefined-- 67.853
0.45 --undefined-- 62.589
0.46 --undefined-- 56.451
0.47 --undefined-- 48.637
0.48 --undefined-- 42.964
0.49 --undefined-- 40.715
0.50 --undefined-- 39.140
0.51 --undefined-- 37.642
0.52 --undefined-- 36.965
0.53 --undefined-- 36.789
0.54 --undefined-- 36.818
0.55 --undefined-- 37.361
0.56 --undefined-- 37.139
0.57 --undefined-- 36.773
0.58 --undefined-- 37.218
0.59 --undefined-- 37.274
0.60 --undefined-- 36.482
0.61 --undefined-- 36.153
0.62 --undefined-- 36.452
0.63 --undefined-- 47.338
0.64 --undefined-- 58.083
0.65 170.955 65.171
0.66 168.248 69.905
0.67 172.582 73.410
0.68 177.516 75.961
0.69 179.219 77.386
0.70 179.636 77.688
0.71 179.289 77.318
0.72 178.572 76.806
0.73 177.260 76.361
0.74 174.511 75.992
0.75 170.609 75.665
0.76 166.287 75.259
0.77 162.844 74.697
0.78 159.371 74.136
0.79 153.460 74.416
0.80 147.738 75.084
0.81 141.366 74.671
0.82 125.710 73.510
0.83 121.473 72.118
0.84 118.553 70.487
0.85 115.641 69.085
0.86 113.438 68.363
0.87 111.432 68.015
0.88 109.196 67.591
0.89 106.432 66.701
0.90 101.543 64.499
0.91 100.009 60.982
0.92 103.229 58.039
0.93 --undefined-- 56.398
0.94 --undefined-- 55.479
0.95 --undefined-- 54.714
0.96 --undefined-- 53.651
0.97 --undefined-- 52.100
0.98 --undefined-- 49.078
0.99 --undefined-- 44.497
1.00 --undefined-- 43.357
1.01 --undefined-- 55.451
1.02 --undefined-- 65.710
1.03 --undefined-- 72.110
1.04 189.028 75.195
1.05 186.352 76.041
1.06 188.242 75.837
1.07 190.048 75.516
1.08 192.793 75.428
1.09 195.631 75.831
1.10 197.080 76.599
1.11 197.574 77.240
1.12 199.070 77.293
1.13 200.736 76.119
1.14 199.049 72.932
1.15 180.116 67.769
1.16 176.730 63.811
1.17 187.728 64.930
1.18 215.203 68.870
1.19 206.022 71.760
1.20 203.295 73.161
1.21 199.587 73.558
1.22 197.243 73.065
1.23 193.637 71.527
1.24 186.699 68.609
1.25 172.110 63.998
1.26 --undefined-- 57.592
1.27 --undefined-- 49.613
1.28 --undefined-- 42.202
1.29 --undefined-- 39.775
1.30 --undefined-- 41.701
1.31 --undefined-- 49.829
1.32 --undefined-- 57.129
1.33 --undefined-- 60.604
1.34 --undefined-- 60.693
1.35 --undefined-- 59.218
1.36 --undefined-- 58.718
1.37 --undefined-- 57.863
1.38 --undefined-- 55.891
1.39 --undefined-- 53.616
1.40 --undefined-- 53.343
1.41 --undefined-- 59.466
1.42 199.402 65.594
1.43 172.404 69.185
1.44 170.879 71.160
1.45 171.700 72.318
1.46 89.053 73.189
1.47 88.503 74.045
1.48 87.469 74.767
1.49 171.398 75.344
1.50 166.647 75.840
1.51 160.460 76.168
1.52 151.392 76.175
1.53 143.240 75.984
1.54 135.355 75.634
1.55 130.051 74.903
1.56 124.253 73.895
1.57 118.275 72.610
1.58 113.730 70.603
1.59 103.569 67.768
1.60 96.535 64.940
1.61 87.028 62.570
1.62 85.722 60.679
1.63 --undefined-- 59.171
1.64 --undefined-- 56.629
1.65 --undefined-- 53.329
1.66 --undefined-- 50.879
1.67 --undefined-- 48.418
1.68 --undefined-- 45.188
1.69 --undefined-- 41.315
1.70 --undefined-- 41.438
1.71 --undefined-- 42.925
1.72 --undefined-- 42.927
1.73 --undefined-- 41.886
1.74 --undefined-- 40.420
1.75 --undefined-- 38.488
1.76 --undefined-- 35.856
1.77 --undefined-- 35.232
1.78 --undefined-- 36.224
1.79 --undefined-- 36.200
1.80 --undefined-- 36.401
1.81 --undefined-- 37.772
1.82 --undefined-- 39.840
1.83 --undefined-- 43.081
1.84 --undefined-- 47.314
1.85 --undefined-- 53.160
1.86 --undefined-- 61.204
1.87 186.582 67.844
1.88 179.678 72.006
1.89 174.843 74.262
1.90 169.160 75.592
1.91 164.146 76.724
1.92 162.639 77.104
1.93 162.240 75.987
1.94 161.253 73.529
1.95 159.023 70.748
1.96 155.523 68.683
1.97 149.982 67.608
1.98 144.841 66.726
1.99 138.162 64.630
2.00 133.279 61.795
2.01 151.047 61.455
2.02 151.062 62.328
2.03 138.465 65.855
2.04 139.774 69.783
2.05 133.774 71.586
2.06 128.335 71.685
2.07 124.039 70.977
2.08 115.673 70.070
2.09 111.414 69.155
2.10 108.996 68.227
2.11 110.663 67.817
2.12 111.609 68.142
2.13 112.641 68.541
2.14 111.939 68.357
2.15 119.402 68.040
2.16 123.223 68.193
2.17 125.190 68.750
2.18 126.562 69.520
2.19 127.380 70.143
2.20 128.945 70.563
2.21 133.671 71.616
2.22 134.602 73.093
2.23 133.708 73.859
2.24 132.691 73.737
2.25 132.063 73.184
2.26 133.087 72.845
2.27 134.568 72.814
2.28 136.897 73.051
2.29 139.002 73.396
2.30 140.411 73.658
2.31 140.801 73.708
2.32 140.666 73.487
2.33 139.840 72.923
2.34 138.076 71.603
2.35 131.024 69.814
2.36 130.095 68.809
2.37 126.739 68.483
2.38 118.881 69.071
2.39 --undefined-- 70.094
2.40 --undefined-- 69.948
2.41 99.908 68.615
2.42 98.939 66.914
2.43 99.822 64.838
2.44 100.656 62.369
2.45 112.760 59.394
2.46 --undefined-- 54.624
2.47 --undefined-- 47.223
2.48 --undefined-- 41.315
2.49 --undefined-- 42.554
2.50 --undefined-- 46.730
2.51 --undefined-- 50.496
2.52 --undefined-- 53.724
2.53 --undefined-- 57.187
2.54 210.919 60.164
2.55 210.728 61.011
2.56 158.222 61.851
2.57 148.449 65.981
2.58 148.420 69.217
2.59 144.150 70.896
2.60 139.736 71.837
2.61 139.593 72.457
2.62 140.877 73.036
2.63 141.817 73.647
2.64 142.373 74.276
2.65 143.533 74.861
2.66 144.845 75.256
2.67 145.886 75.395
2.68 146.681 75.408
2.69 147.153 75.275
2.70 147.709 74.574
2.71 147.076 72.913
2.72 196.678 70.570
2.73 193.198 67.469
2.74 195.292 62.909
2.75 --undefined-- 56.813
2.76 --undefined-- 50.081
2.77 --undefined-- 44.834
2.78 --undefined-- 40.098
2.79 --undefined-- 37.059
2.80 --undefined-- 36.164
2.81 --undefined-- 37.538
2.82 --undefined-- 39.257
2.83 --undefined-- 39.881
2.84 --undefined-- 40.810
2.85 --undefined-- 40.348
2.86 --undefined-- 38.612
2.87 --undefined-- 38.736
2.88 --undefined-- 39.627
2.89 --undefined-- 40.682
2.90 --undefined-- 40.856
2.91 --undefined-- 40.300
2.92 --undefined-- 38.717
2.93 --undefined-- 35.711
2.94 --undefined-- 34.284
2.95 --undefined-- 36.428
2.96 --undefined-- 37.733
2.97 --undefined-- 37.207
2.98 --undefined-- 37.302
2.99 --undefined-- 38.692
3.00 --undefined-- 38.969
3.01 --undefined-- 38.070
3.02 --undefined-- 37.639
3.03 --undefined-- 38.045
3.04 --undefined-- 38.961
3.05 --undefined-- 38.825
3.06 --undefined-- 38.837
3.07 --undefined-- 39.793
3.08 --undefined-- 38.831
3.09 --undefined-- 36.587
3.10 --undefined-- 36.314
3.11 --undefined-- 36.996
3.12 --undefined-- 36.814
3.13 --undefined-- 35.672
3.14 --undefined-- 34.922
3.15 --undefined-- 35.572
3.16 --undefined-- 37.396
3.17 --undefined-- 38.559
3.18 --undefined-- 39.103
3.19 --undefined-- 39.745
3.20 --undefined-- 39.189
3.21 --undefined-- 37.014
3.22 --undefined-- 35.423
3.23 --undefined-- 36.946
3.24 --undefined-- 39.730
3.25 --undefined-- 41.625
3.26 --undefined-- 42.123
3.27 --undefined-- 42.044
3.28 --undefined-- 42.030
3.29 --undefined-- 42.104
3.30 --undefined-- 42.562
3.31 --undefined-- 42.945
3.32 --undefined-- 43.200
3.33 --undefined-- 43.995
3.34 --undefined-- 45.269
3.35 --undefined-- 45.840
3.36 --undefined-- 45.164
3.37 --undefined-- 43.994
3.38 --undefined-- 43.341
3.39 --undefined-- 43.281
3.40 --undefined-- 43.482
3.41 --undefined-- 42.810
3.42 --undefined-- 41.146
3.43 --undefined-- 39.334
3.44 --undefined-- 38.480
3.45 --undefined-- 39.458
3.46 --undefined-- 41.108
3.47 --undefined-- 41.002
3.48 --undefined-- 38.852
3.49 --undefined-- 37.855
3.50 --undefined-- 37.921
3.51 --undefined-- 36.222
3.52 --undefined-- 34.379
3.53 --undefined-- 36.298
3.54 --undefined-- 45.381
3.55 --undefined-- 55.999
3.56 --undefined-- 64.086
3.57 146.005 69.619
3.58 149.611 73.153
3.59 153.544 75.235
3.60 157.593 76.385
3.61 164.293 77.065
3.62 172.114 77.640
3.63 179.130 78.078
3.64 182.546 77.563
3.65 184.663 75.277
3.66 200.751 72.210
3.67 203.300 70.825
3.68 205.635 70.786
3.69 204.999 71.218
3.70 202.119 72.822
3.71 198.751 75.566
3.72 187.992 77.587
3.73 169.635 78.840
3.74 162.241 79.773
3.75 154.110 79.799
3.76 144.952 78.709
3.77 135.619 76.879
3.78 126.222 74.808
3.79 121.260 73.380
3.80 118.468 72.977
3.81 117.106 72.815
3.82 116.186 72.103
3.83 113.917 70.602
3.84 109.740 68.714
3.85 107.263 67.215
3.86 104.570 66.205
3.87 101.950 65.310
3.88 100.753 64.512
3.89 100.572 63.759
3.90 99.162 63.159
3.91 98.656 62.915
3.92 101.346 62.670
3.93 102.050 62.456
3.94 103.668 62.510
3.95 --undefined-- 61.815
3.96 --undefined-- 60.374
3.97 --undefined-- 58.712
3.98 --undefined-- 55.612
3.99 --undefined-- 49.705
4.00 --undefined-- 43.680
4.01 --undefined-- 49.288
4.02 172.344 56.658
4.03 171.250 64.078
4.04 179.184 69.756
4.05 175.820 73.029
4.06 173.436 74.245
4.07 173.428 74.016
4.08 173.355 72.381
4.09 169.028 68.824
4.10 150.556 63.385
4.11 147.975 58.714
4.12 150.658 56.863
4.13 148.452 58.132
4.14 148.348 63.889
4.15 147.751 68.888
4.16 145.387 71.547
4.17 138.531 72.355
4.18 130.852 72.071
4.19 125.481 71.040
4.20 123.206 69.396
4.21 123.399 67.690
4.22 124.084 66.687
4.23 123.655 66.432
4.24 121.965 66.410
4.25 120.233 65.922
4.26 117.048 64.144
4.27 109.285 60.608
4.28 --undefined-- 55.652
4.29 --undefined-- 50.828
4.30 --undefined-- 47.670
4.31 --undefined-- 45.209
4.32 --undefined-- 43.804
4.33 --undefined-- 43.352
4.34 --undefined-- 43.706
4.35 --undefined-- 46.903
4.36 --undefined-- 55.826
4.37 150.035 62.682
4.38 130.560 66.343
4.39 127.996 67.968
4.40 124.237 68.567
4.41 122.574 68.871
4.42 121.832 69.164
4.43 121.795 69.446
4.44 121.936 69.623
4.45 122.025 69.746
4.46 121.894 69.957
4.47 121.281 70.208
4.48 120.929 70.352
4.49 121.094 70.321
4.50 121.054 70.135
4.51 119.337 69.851
4.52 118.807 69.464
4.53 116.289 68.979
4.54 114.959 68.228
4.55 109.986 66.755
4.56 --undefined-- 64.378
4.57 --undefined-- 62.015
4.58 --undefined-- 59.461
4.59 --undefined-- 54.950
4.60 --undefined-- 47.752
4.61 --undefined-- 42.595
4.62 --undefined-- 41.120
4.63 --undefined-- 39.893
4.64 --undefined-- 38.810
4.65 --undefined-- 38.170
4.66 --undefined-- 38.041
4.67 --undefined-- 38.068
4.68 --undefined-- 37.412
4.69 --undefined-- 38.055
4.70 --undefined-- 38.964
4.71 --undefined-- 38.353
4.72 --undefined-- 36.775
4.73 --undefined-- 36.123
4.74 --undefined-- 37.419
4.75 --undefined-- 38.333
4.76 --undefined-- 38.606
4.77 --undefined-- 39.416
4.78 --undefined-- 40.045
4.79 --undefined-- 39.244
4.80 --undefined-- 37.027
4.81 --undefined-- 36.700
4.82 --undefined-- 42.294
4.83 --undefined-- 52.178
4.84 127.412 58.892
4.85 124.754 62.455
4.86 121.791 63.791
4.87 120.315 64.389
4.88 117.370 65.503
4.89 122.853 67.751
4.90 125.041 69.741
4.91 122.700 70.368
4.92 120.280 70.301
4.93 118.045 70.380
4.94 115.624 70.210
4.95 114.466 69.706
4.96 114.687 69.764
4.97 117.830 70.707
4.98 117.217 71.495
4.99 119.361 71.548
5.00 125.337 71.611
5.01 128.642 72.172
5.02 134.675 72.460
5.03 135.422 72.390
5.04 137.467 72.546
5.05 142.125 73.024
5.06 143.679 73.576
5.07 146.282 73.878
5.08 150.473 73.595
5.09 156.410 72.542
5.10 159.164 71.113
5.11 158.669 69.924
5.12 154.299 68.266
5.13 150.229 64.989
5.14 --undefined-- 59.050
5.15 --undefined-- 50.949
5.16 --undefined-- 45.266
5.17 --undefined-- 43.064
5.18 --undefined-- 41.140
5.19 --undefined-- 38.874
5.20 --undefined-- 38.581
5.21 --undefined-- 40.410
5.22 --undefined-- 41.571
5.23 --undefined-- 41.613
5.24 --undefined-- 40.976
5.25 --undefined-- 39.550
5.26 --undefined-- 37.891
5.27 --undefined-- 39.148
5.28 --undefined-- 45.276
5.29 --undefined-- 52.234
5.30 --undefined-- 56.174
5.31 --undefined-- 57.101
5.32 --undefined-- 56.335
5.33 --undefined-- 55.935
5.34 --undefined-- 55.948
5.35 --undefined-- 58.958
5.36 149.409 64.292
5.37 135.598 67.714
5.38 131.247 68.909
5.39 126.889 68.385
5.40 117.773 67.194
5.41 118.169 66.544
5.42 117.391 66.292
5.43 117.471 66.228
5.44 117.613 66.293
5.45 118.500 66.815
5.46 125.169 68.500
5.47 124.328 70.476
5.48 123.181 71.434
5.49 120.286 71.199
5.50 117.331 70.216
5.51 117.012 69.283
5.52 117.444 68.750
5.53 116.444 68.523
5.54 115.937 68.377
5.55 116.003 68.005
5.56 116.400 67.470
5.57 116.340 66.993
5.58 115.635 66.424
5.59 116.851 65.976
5.60 117.708 65.715
5.61 116.895 65.361
5.62 114.594 64.737
5.63 111.094 63.904
5.64 107.487 63.332
5.65 106.165 64.279
5.66 118.387 66.638
5.67 120.385 68.740
5.68 119.797 70.414
5.69 118.254 71.747
5.70 117.040 72.508
5.71 116.833 72.787
5.72 118.179 72.974
5.73 119.894 73.087
5.74 123.616 73.052
5.75 128.343 73.352
5.76 132.955 74.490
5.77 135.773 75.913
5.78 137.709 77.051
5.79 140.171 77.865
5.80 143.702 78.661
5.81 147.568 79.438
5.82 148.736 79.531
5.83 147.012 78.327
5.84 141.418 75.564
5.85 119.563 71.519
5.86 119.575 67.437
5.87 119.225 62.446
5.88 --undefined-- 55.292
5.89 --undefined-- 47.109
5.90 --undefined-- 41.822
5.91 --undefined-- 40.602
5.92 --undefined-- 40.648
5.93 --undefined-- 40.239
5.94 --undefined-- 39.717
5.95 --undefined-- 38.880
5.96 --undefined-- 39.264
5.97 --undefined-- 41.149
5.98 --undefined-- 41.417
5.99 --undefined-- 40.081
6.00 --undefined-- 38.221
6.01 --undefined-- 36.622
6.02 --undefined-- 36.332
6.03 --undefined-- 42.490
6.04 --undefined-- 55.550
6.05 --undefined-- 65.709
6.06 --undefined-- 71.760
6.07 198.181 74.749
6.08 194.548 76.003
6.09 193.722 76.518
6.10 193.158 76.624
6.11 190.152 76.421
6.12 183.841 75.947
6.13 175.345 75.123
6.14 165.550 73.458
6.15 154.514 70.647
6.16 146.076 66.816
6.17 129.426 62.151
6.18 --undefined-- 56.846
6.19 --undefined-- 52.613
6.20 --undefined-- 51.400
6.21 --undefined-- 57.331
6.22 144.149 63.950
6.23 140.009 67.937
6.24 129.633 69.975
6.25 125.353 71.007
6.26 123.142 71.393
6.27 124.661 71.468
6.28 129.993 72.188
6.29 136.624 73.315
6.30 144.769 73.827
6.31 153.215 73.860
6.32 157.950 74.144
6.33 160.381 74.788
6.34 159.707 75.490
6.35 157.179 75.452
6.36 150.215 73.944
6.37 141.310 71.255
6.38 133.506 68.310
6.39 120.646 66.360
6.40 134.887 67.005
6.41 141.900 --undefined--
6.42 144.769 --undefined--
6.43 --undefined-- --undefined--
6.44 --undefined-- --undefined--
