Time Pitch Intensity
0.01 --undefined-- --undefined--
0.02 156.484 --undefined--
0.03 156.821 --undefined--
0.04 165.413 --undefined--
0.05 163.454 78.065
0.06 162.449 79.127
0.07 161.435 79.147
0.08 158.874 78.472
0.09 155.166 76.810
0.10 149.385 73.939
0.11 148.829 69.764
0.12 162.156 63.660
0.13 160.638 56.477
0.14 158.253 54.636
0.15 158.472 56.702
0.16 --undefined-- 63.985
0.17 230.992 71.952
0.18 217.866 76.357
0.19 214.336 78.019
0.20 214.333 78.289
0.21 210.400 78.078
0.22 201.424 77.667
0.23 188.386 76.939
0.24 176.788 75.232
0.25 162.835 71.911
0.26 155.583 67.125
0.27 177.001 63.259
0.28 177.670 62.950
0.29 177.811 68.546
0.30 152.639 74.252
0.31 140.576 77.066
0.32 131.032 77.704
0.33 120.751 77.394
0.34 114.930 77.184
0.35 115.678 77.135
0.36 117.185 77.080
0.37 117.947 77.053
0.38 117.809 77.105
0.39 130.122 77.732
0.40 137.298 78.514
0.41 142.003 78.764
0.42 149.709 78.800
0.43 156.933 78.270
0.44 161.683 76.274
0.45 160.664 72.734
0.46 164.774 68.601
0.47 171.046 63.964
0.48 --undefined-- 58.192
0.49 --undefined-- 56.127
0.50 --undefined-- 63.786
0.51 --undefined-- 71.821
0.52 171.493 76.520
0.53 172.620 78.397
0.54 165.646 78.781
0.55 159.224 78.802
0.56 153.216 78.659
0.57 146.645 78.391
0.58 142.340 78.015
0.59 138.849 77.417
0.60 136.641 76.750
0.61 136.341 75.895
0.62 134.325 73.908
0.63 126.178 70.215
0.64 135.037 66.900
0.65 143.560 70.413
0.66 146.629 75.728
0.67 145.783 78.355
0.68 139.735 78.718
0.69 130.933 78.317
0.70 127.384 78.143
0.71 126.746 77.992
0.72 127.507 77.602
0.73 128.682 76.900
0.74 126.658 75.374
0.75 119.849 72.206
0.76 112.451 67.142
0.77 --undefined-- 61.433
0.78 --undefined-- 57.158
0.79 --undefined-- 54.405
0.80 --undefined-- 54.985
0.81 --undefined-- 61.526
0.82 --undefined-- 68.089
0.83 --undefined-- 74.068
0.84 150.297 77.759
0.85 142.945 79.119
0.86 137.837 79.271
0.87 135.868 79.223
0.88 135.227 79.170
0.89 135.577 79.121
0.90 136.022 79.086
0.91 136.615 79.081
0.92 136.988 79.124
0.93 136.963 78.995
0.94 136.372 78.623
0.95 137.863 78.267
0.96 142.649 78.345
0.97 146.056 78.799
0.98 149.386 79.120
0.99 150.625 79.444
1.00 150.687 79.831
1.01 151.499 80.004
1.02 151.618 79.885
1.03 150.575 79.631
1.04 149.770 79.287
1.05 149.262 78.604
1.06 150.665 77.871
1.07 151.163 77.077
1.08 146.311 75.210
1.09 147.113 72.052
1.10 153.849 68.879
1.11 164.269 68.550
1.12 184.664 72.591
1.13 185.846 75.996
1.14 184.136 77.363
1.15 181.758 77.374
1.16 180.002 76.768
1.17 178.515 75.199
1.18 174.300 71.509
1.19 170.752 64.742
1.20 --undefined-- 55.577
1.21 --undefined-- 51.174
1.22 --undefined-- 50.854
1.23 --undefined-- 51.575
1.24 --undefined-- 51.627
1.25 --undefined-- 49.167
1.26 --undefined-- 45.394
1.27 --undefined-- 42.610
1.28 --undefined-- 46.381
1.29 --undefined-- 57.464
1.30 --undefined-- 64.275
1.31 --undefined-- 68.052
1.32 --undefined-- 72.462
1.33 163.094 76.559
1.34 160.463 78.727
1.35 156.857 79.276
1.36 150.555 78.939
1.37 144.216 78.635
1.38 140.669 78.771
1.39 138.130 78.984
1.40 135.200 79.046
1.41 133.014 78.932
1.42 132.352 78.793
1.43 132.833 78.750
1.44 134.217 78.751
1.45 133.849 78.601
1.46 131.923 78.102
1.47 128.912 77.088
1.48 125.542 75.422
1.49 123.995 72.910
1.50 122.063 69.099
1.51 127.305 63.919
1.52 135.458 58.472
1.53 --undefined-- 53.600
1.54 --undefined-- 48.718
1.55 --undefined-- 52.443
1.56 --undefined-- 59.820
1.57 --undefined-- 65.818
1.58 --undefined-- 72.004
1.59 149.632 76.122
1.60 137.700 77.623
1.61 131.879 77.794
1.62 129.252 77.972
1.63 127.816 78.152
1.64 127.135 78.162
1.65 127.173 78.211
1.66 127.193 78.289
1.67 127.517 78.274
1.68 127.594 78.291
1.69 126.960 78.415
1.70 126.483 78.514
1.71 125.940 78.392
1.72 124.532 77.829
1.73 122.057 76.563
1.74 121.885 74.058
1.75 124.366 69.571
1.76 --undefined-- 63.072
1.77 --undefined-- 56.863
1.78 --undefined-- 54.684
1.79 --undefined-- 54.294
1.80 --undefined-- 56.838
1.81 --undefined-- 66.612
1.82 --undefined-- 73.722
1.83 142.502 77.151
1.84 128.382 77.886
1.85 122.746 76.937
1.86 118.008 74.516
1.87 101.653 70.321
1.88 99.707 64.874
1.89 --undefined-- 61.009
1.90 --undefined-- 68.180
1.91 --undefined-- 74.772
1.92 139.219 77.815
1.93 130.874 78.416
1.94 129.192 78.120
1.95 128.731 78.048
1.96 128.793 78.016
1.97 129.903 77.460
1.98 130.481 76.303
1.99 129.578 74.362
2.00 132.284 71.087
2.01 137.331 66.247
2.02 --undefined-- 61.865
2.03 --undefined-- 60.947
2.04 --undefined-- 61.587
2.05 --undefined-- 61.913
2.06 --undefined-- 63.045
2.07 --undefined-- 64.511
2.08 --undefined-- 64.706
2.09 --undefined-- 64.856
2.10 --undefined-- 70.312
2.11 153.357 75.656
2.12 149.329 77.744
2.13 135.292 77.816
2.14 133.309 77.909
2.15 131.326 78.307
2.16 128.406 78.484
2.17 127.160 78.408
2.18 126.999 78.248
2.19 126.818 78.148
2.20 126.766 77.892
2.21 126.769 76.987
2.22 121.564 74.802
2.23 115.566 70.755
2.24 120.128 64.956
2.25 --undefined-- 59.794
2.26 --undefined-- 59.601
2.27 --undefined-- 63.701
2.28 --undefined-- 70.381
2.29 --undefined-- 75.657
2.30 135.702 77.981
2.31 129.063 78.318
2.32 126.579 78.361
2.33 126.629 78.539
2.34 126.720 78.347
2.35 127.199 77.832
2.36 126.388 77.315
2.37 125.046 76.993
2.38 124.373 76.702
2.39 123.407 76.110
2.40 122.547 75.588
2.41 126.289 75.806
2.42 126.303 76.234
2.43 125.864 76.500
2.44 125.601 76.627
2.45 123.965 76.619
2.46 124.479 76.679
2.47 119.707 76.854
2.48 117.286 76.721
2.49 115.249 75.972
2.50 113.034 74.607
2.51 111.890 72.411
2.52 108.634 68.686
2.53 112.175 62.905
2.54 --undefined-- 55.633
2.55 --undefined-- 49.736
2.56 --undefined-- 49.182
2.57 --undefined-- 53.613
2.58 --undefined-- 55.594
2.59 --undefined-- 54.292
2.60 --undefined-- 60.500
2.61 153.008 68.954
2.62 143.325 73.624
2.63 122.458 75.579
2.64 118.842 76.334
2.65 118.512 76.866
2.66 118.157 76.934
2.67 117.884 75.741
2.68 111.874 72.789
2.69 117.634 69.105
2.70 129.570 66.719
2.71 133.193 65.915
2.72 136.751 67.650
2.73 137.032 70.901
2.74 134.539 74.128
2.75 133.216 76.499
2.76 125.343 77.711
2.77 122.861 78.022
2.78 121.765 77.876
2.79 123.209 77.779
2.80 126.868 77.642
2.81 128.834 77.058
2.82 131.488 76.219
2.83 139.240 75.789
2.84 146.763 75.409
2.85 152.331 73.446
2.86 160.406 68.931
2.87 --undefined-- 63.448
2.88 --undefined-- 60.278
2.89 --undefined-- 60.028
2.90 --undefined-- 62.905
2.91 --undefined-- 64.744
2.92 --undefined-- 64.796
2.93 --undefined-- 64.359
2.94 --undefined-- 65.184
2.95 --undefined-- 67.014
2.96 --undefined-- 69.169
2.97 183.853 73.776
2.98 187.987 78.122
2.99 187.804 79.940
3.00 184.907 79.774
3.01 180.660 78.944
3.02 177.712 78.607
3.03 178.886 79.020
3.04 179.195 79.505
3.05 178.244 79.740
3.06 177.623 79.859
3.07 176.527 80.004
3.08 175.657 80.137
3.09 175.389 80.117
3.10 175.452 79.909
3.11 175.782 79.588
3.12 176.206 79.269
3.13 176.387 79.071
3.14 175.990 79.038
3.15 174.505 79.120
3.16 172.049 79.138
3.17 168.744 78.802
3.18 160.854 77.804
3.19 151.631 76.100
3.20 141.265 74.769
3.21 135.915 75.227
3.22 122.217 76.000
3.23 106.293 76.268
3.24 101.714 76.501
3.25 98.702 76.758
3.26 96.738 76.925
3.27 98.467 77.209
3.28 100.330 77.414
3.29 100.840 77.135
3.30 98.558 76.686
3.31 98.638 76.804
3.32 102.299 77.305
3.33 104.273 77.782
3.34 107.267 78.221
3.35 115.296 78.647
3.36 116.929 79.019
3.37 118.753 79.269
3.38 120.785 79.267
3.39 122.639 78.948
3.40 123.091 78.541
3.41 121.474 78.016
3.42 118.359 76.971
3.43 116.492 75.212
3.44 104.241 72.753
3.45 107.718 69.127
3.46 117.911 63.650
3.47 120.395 57.207
3.48 --undefined-- 53.821
3.49 --undefined-- 53.862
3.50 --undefined-- 55.930
3.51 --undefined-- 58.188
3.52 --undefined-- 59.449
3.53 --undefined-- 59.589
3.54 --undefined-- 59.008
3.55 --undefined-- 58.434
3.56 --undefined-- 58.437
3.57 --undefined-- 58.729
3.58 --undefined-- 58.727
3.59 --undefined-- 58.329
3.60 --undefined-- 57.713
3.61 --undefined-- 56.722
3.62 --undefined-- 56.132
3.63 --undefined-- 56.112
3.64 --undefined-- 55.593
3.65 --undefined-- 55.622
3.66 182.457 58.321
3.67 165.764 61.400
3.68 164.418 63.277
3.69 166.360 64.193
3.70 159.487 63.844
3.71 149.496 61.176
3.72 --undefined-- 55.766
3.73 --undefined-- 50.017
3.74 --undefined-- 49.357
3.75 --undefined-- 52.088
3.76 --undefined-- 63.326
3.77 201.242 72.067
3.78 194.795 76.843
3.79 190.811 78.780
3.80 194.318 79.125
3.81 199.977 78.978
3.82 203.385 78.778
3.83 204.899 78.425
3.84 202.104 77.980
3.85 200.286 78.189
3.86 202.058 78.953
3.87 201.335 79.520
3.88 200.254 79.731
3.89 198.781 79.671
3.90 196.714 79.477
3.91 194.010 79.224
3.92 191.399 78.880
3.93 189.990 78.413
3.94 188.329 77.862
3.95 185.709 77.412
3.96 180.292 77.478
3.97 171.912 78.124
3.98 165.855 78.875
3.99 159.603 79.527
4.00 154.598 79.690
4.01 145.923 79.303
4.02 138.311 78.951
4.03 133.465 78.867
4.04 131.074 79.017
4.05 129.603 79.119
4.06 130.504 78.686
4.07 131.567 78.063
4.08 132.700 77.975
4.09 133.185 78.046
4.10 134.912 77.622
4.11 134.528 76.754
4.12 133.556 75.682
4.13 133.926 74.493
4.14 134.098 73.241
4.15 135.656 73.235
4.16 151.995 75.551
4.17 151.756 77.575
4.18 152.155 78.411
4.19 153.042 78.604
4.20 154.534 78.555
4.21 155.758 78.401
4.22 156.490 78.167
4.23 157.076 77.879
4.24 158.283 77.612
4.25 159.976 76.771
4.26 155.637 74.260
4.27 151.681 69.979
4.28 159.188 65.028
4.29 160.139 60.002
4.30 160.971 62.026
4.31 --undefined-- 70.691
4.32 157.591 75.913
4.33 155.369 77.818
4.34 139.958 77.947
4.35 134.872 78.065
4.36 127.981 78.322
4.37 123.683 78.462
4.38 121.232 78.573
4.39 118.809 78.484
4.40 115.811 77.808
4.41 113.350 76.211
4.42 113.449 73.314
4.43 106.330 68.574
4.44 111.623 62.261
4.45 116.244 56.025
4.46 116.926 53.119
4.47 116.753 52.325
4.48 --undefined-- 52.015
4.49 --undefined-- 52.542
4.50 --undefined-- 55.143
4.51 --undefined-- 58.036
4.52 --undefined-- 59.678
4.53 --undefined-- 60.653
4.54 --undefined-- 61.774
4.55 --undefined-- 62.582
4.56 --undefined-- 62.882
4.57 --undefined-- 62.433
4.58 --undefined-- 60.984
4.59 --undefined-- 59.259
4.60 --undefined-- 64.319
4.61 --undefined-- 71.134
4.62 155.524 74.989
4.63 151.161 76.835
4.64 148.411 77.961
4.65 147.932 78.764
4.66 147.478 79.249
4.67 147.005 79.402
4.68 146.253 79.164
4.69 145.261 78.312
4.70 144.458 76.524
4.71 142.165 73.565
4.72 147.264 69.323
4.73 --undefined-- 65.410
4.74 --undefined-- 66.437
4.75 --undefined-- 69.270
4.76 --undefined-- 71.402
4.77 --undefined-- 74.690
4.78 --undefined-- 77.934
4.79 178.448 78.897
4.80 175.528 78.328
4.81 173.231 77.613
4.82 171.688 77.294
4.83 170.567 77.339
4.84 170.302 77.402
4.85 169.915 77.260
4.86 168.806 77.131
4.87 167.967 77.378
4.88 167.017 77.941
4.89 165.349 78.450
4.90 163.142 78.555
4.91 160.596 77.749
4.92 156.270 75.586
4.93 151.526 72.947
4.94 154.760 73.947
4.95 154.591 76.855
4.96 153.478 78.495
4.97 152.089 78.536
4.98 145.095 77.873
4.99 142.549 77.592
5.00 143.342 77.727
5.01 144.397 78.038
5.02 147.318 78.358
5.03 147.180 --undefined--
5.04 144.751 --undefined--
5.05 --undefined-- --undefined--
5.06 --undefined-- --undefined--
