Time Pitch Intensity
0.01 --undefined-- --undefined--
0.02 78.496 --undefined--
0.03 78.695 --undefined--
0.04 79.272 --undefined--
0.05 80.173 64.227
0.06 79.789 62.353
0.07 --undefined-- 58.216
0.08 --undefined-- 51.467
0.09 --undefined-- 42.322
0.10 --undefined-- 40.709
0.11 --undefined-- 53.149
0.12 --undefined-- 62.374
0.13 --undefined-- 68.323
0.14 --undefined-- 71.497
0.15 --undefined-- 71.807
0.16 --undefined-- 68.799
0.17 --undefined-- 63.549
0.18 109.284 62.995
0.19 108.825 63.279
0.20 102.679 61.937
0.21 100.459 60.002
0.22 98.936 58.424
0.23 99.091 57.361
0.24 95.638 56.018
0.25 94.483 53.979
0.26 93.717 52.056
0.27 93.113 53.019
0.28 91.622 55.882
0.29 90.547 58.169
0.30 89.692 60.671
0.31 89.440 63.386
0.32 86.328 65.128
0.33 85.044 66.068
0.34 83.862 66.647
0.35 82.946 66.657
0.36 81.885 66.416
0.37 80.628 65.722
0.38 79.328 64.143
0.39 94.343 62.207
0.40 95.196 60.256
0.41 79.372 57.920
0.42 79.091 56.206
0.43 --undefined-- 56.372
0.44 --undefined-- 58.073
0.45 --undefined-- 60.445
0.46 --undefined-- 62.747
0.47 --undefined-- 64.652
0.48 --undefined-- 66.901
0.49 97.580 69.536
0.50 96.306 71.367
0.51 94.438 71.824
0.52 92.385 70.845
0.53 91.817 69.026
0.54 90.145 67.222
0.55 89.086 65.472
0.56 86.309 64.138
0.57 86.589 63.024
0.58 87.252 61.084
0.59 88.924 57.705
0.60 --undefined-- 52.590
0.61 --undefined-- 45.666
0.62 --undefined-- 40.304
0.63 --undefined-- 44.872
0.64 --undefined-- 51.248
0.65 --undefined-- 57.049
0.66 --undefined-- 61.625
0.67 --undefined-- 64.597
0.68 --undefined-- 66.350
0.69 --undefined-- 68.021
0.70 --undefined-- 69.227
0.71 --undefined-- 69.452
0.72 --undefined-- 69.508
0.73 --undefined-- 69.074
0.74 --undefined-- 66.995
0.75 --undefined-- 63.048
0.76 --undefined-- 59.848
0.77 86.893 62.063
0.78 86.918 64.454
0.79 83.218 65.398
0.80 78.590 65.571
0.81 78.885 65.276
0.82 77.399 64.563
0.83 77.706 63.371
0.84 78.018 61.922
0.85 81.248 61.844
0.86 85.962 63.604
0.87 86.990 64.759
0.88 87.385 64.830
0.89 87.757 65.095
0.90 87.333 65.231
0.91 86.778 64.636
0.92 85.862 63.696
0.93 84.629 62.721
0.94 84.285 61.693
0.95 --undefined-- 60.322
0.96 --undefined-- 57.710
0.97 --undefined-- 52.776
0.98 --undefined-- 45.631
0.99 --undefined-- 48.386
1.00 --undefined-- 54.052
1.01 --undefined-- 56.250
1.02 --undefined-- 56.168
1.03 --undefined-- 58.561
1.04 --undefined-- 62.356
1.05 83.578 64.163
1.06 80.587 64.312
1.07 79.533 63.518
1.08 78.062 62.733
1.09 77.128 62.252
1.10 75.986 61.818
1.11 74.730 61.395
1.12 74.882 61.239
1.13 74.957 61.301
1.14 86.491 61.139
1.15 85.599 60.694
1.16 85.730 60.185
1.17 86.364 59.610
1.18 83.378 58.500
1.19 82.527 56.317
1.20 --undefined-- 52.933
1.21 --undefined-- 48.330
1.22 --undefined-- 42.324
1.23 --undefined-- 36.953
1.24 --undefined-- 35.351
1.25 --undefined-- 35.525
1.26 --undefined-- 35.551
1.27 --undefined-- 34.248
1.28 --undefined-- 32.826
1.29 --undefined-- 33.259
1.30 --undefined-- 34.615
1.31 --undefined-- 36.213
1.32 --undefined-- 42.639
1.33 --undefined-- 48.958
1.34 --undefined-- 51.125
1.35 --undefined-- 49.400
1.36 --undefined-- 45.857
1.37 --undefined-- 44.471
1.38 --undefined-- 44.208
1.39 --undefined-- 44.440
1.40 --undefined-- 45.161
1.41 --undefined-- 45.118
1.42 --undefined-- 44.614
1.43 --undefined-- 44.301
1.44 --undefined-- 43.180
1.45 --undefined-- 40.432
1.46 --undefined-- 37.395
1.47 --undefined-- 35.895
1.48 --undefined-- 34.979
1.49 --undefined-- 33.690
1.50 --undefined-- 32.015
1.51 --undefined-- 30.699
1.52 --undefined-- 30.310
1.53 --undefined-- 31.297
1.54 --undefined-- 33.599
1.55 --undefined-- 34.671
1.56 --undefined-- 37.453
1.57 --undefined-- 44.382
1.58 --undefined-- 50.738
1.59 --undefined-- 56.984
1.60 --undefined-- 61.429
1.61 --undefined-- 63.305
1.62 --undefined-- 63.078
1.63 --undefined-- 62.457
1.64 --undefined-- 61.772
1.65 --undefined-- 58.619
1.66 --undefined-- 52.192
1.67 --undefined-- 47.517
1.68 --undefined-- 47.706
1.69 --undefined-- 48.688
1.70 --undefined-- 48.982
1.71 --undefined-- 47.779
1.72 --undefined-- 45.740
1.73 --undefined-- 51.700
1.74 --undefined-- 58.558
1.75 --undefined-- 62.097
1.76 --undefined-- 64.757
1.77 94.365 67.179
1.78 88.734 68.422
1.79 88.232 68.630
1.80 88.278 68.363
1.81 88.256 67.921
1.82 88.062 66.972
1.83 86.130 64.934
1.84 --undefined-- 63.222
1.85 --undefined-- 64.128
1.86 --undefined-- 62.921
1.87 --undefined-- 57.805
1.88 --undefined-- 53.672
1.89 --undefined-- 59.403
1.90 --undefined-- 64.650
1.91 90.865 67.189
1.92 89.993 67.995
1.93 89.863 68.250
1.94 89.935 68.117
1.95 89.821 67.038
1.96 89.164 64.867
1.97 --undefined-- 61.196
1.98 --undefined-- 55.203
1.99 --undefined-- 50.339
2.00 94.936 51.297
2.01 93.081 52.125
2.02 91.379 52.444
2.03 88.851 52.820
2.04 88.752 56.423
2.05 --undefined-- 62.075
2.06 --undefined-- 65.339
2.07 --undefined-- 66.056
2.08 --undefined-- 65.166
2.09 --undefined-- 63.052
2.10 --undefined-- 59.095
2.11 --undefined-- 52.700
2.12 --undefined-- 47.076
2.13 --undefined-- 45.921
2.14 --undefined-- 45.532
2.15 --undefined-- 45.569
2.16 --undefined-- 46.430
2.17 --undefined-- 46.240
2.18 --undefined-- 43.527
2.19 --undefined-- 41.667
2.20 --undefined-- 50.936
2.21 --undefined-- 57.819
2.22 --undefined-- 60.592
2.23 --undefined-- 60.872
2.24 --undefined-- 60.347
2.25 --undefined-- 59.793
2.26 --undefined-- 61.059
2.27 --undefined-- 62.646
2.28 --undefined-- 62.595
2.29 --undefined-- 61.667
2.30 --undefined-- 61.421
2.31 --undefined-- 61.526
2.32 --undefined-- 61.712
2.33 --undefined-- 60.844
2.34 --undefined-- 58.552
2.35 --undefined-- 57.899
2.36 --undefined-- 57.653
2.37 --undefined-- 55.991
2.38 --undefined-- 54.363
2.39 --undefined-- 52.554
2.40 --undefined-- 49.382
2.41 --undefined-- 44.999
2.42 --undefined-- 41.631
2.43 --undefined-- 39.468
2.44 --undefined-- 45.168
2.45 --undefined-- 53.938
2.46 --undefined-- 58.753
2.47 --undefined-- 61.174
2.48 --undefined-- 63.019
2.49 --undefined-- 63.601
2.50 --undefined-- 63.051
2.51 --undefined-- 62.428
2.52 --undefined-- 61.806
2.53 --undefined-- 60.811
2.54 --undefined-- 59.256
2.55 --undefined-- 56.671
2.56 --undefined-- 53.520
2.57 --undefined-- 49.673
2.58 --undefined-- 44.209
2.59 --undefined-- 39.480
2.60 --undefined-- 37.991
2.61 --undefined-- 37.378
2.62 --undefined-- 36.581
2.63 --undefined-- 36.731
2.64 --undefined-- 38.557
2.65 --undefined-- 40.740
2.66 --undefined-- 42.695
2.67 --undefined-- 44.314
2.68 --undefined-- 45.144
2.69 --undefined-- 46.022
2.70 --undefined-- 46.831
2.71 --undefined-- 46.868
2.72 --undefined-- 46.972
2.73 --undefined-- 47.424
2.74 --undefined-- 47.473
2.75 --undefined-- 47.192
2.76 --undefined-- 47.179
2.77 --undefined-- 47.046
2.78 --undefined-- 46.717
2.79 --undefined-- 47.082
2.80 --undefined-- 48.275
2.81 --undefined-- 49.253
2.82 --undefined-- 52.163
2.83 --undefined-- 56.528
2.84 --undefined-- 58.359
2.85 --undefined-- 57.919
2.86 --undefined-- 58.203
2.87 --undefined-- 58.584
2.88 --undefined-- 57.268
2.89 --undefined-- 55.444
2.90 --undefined-- 54.902
2.91 --undefined-- 54.606
2.92 --undefined-- 54.227
2.93 --undefined-- 54.649
2.94 --undefined-- 54.922
2.95 --undefined-- 54.103
2.96 --undefined-- 52.655
2.97 --undefined-- 52.003
2.98 --undefined-- 52.510
2.99 --undefined-- 53.057
3.00 --undefined-- 53.458
3.01 --undefined-- 52.923
3.02 --undefined-- 51.143
3.03 --undefined-- 49.501
3.04 --undefined-- 48.753
3.05 --undefined-- 48.897
3.06 --undefined-- 49.440
3.07 --undefined-- 49.694
3.08 --undefined-- 49.340
3.09 --undefined-- 49.153
3.10 --undefined-- 49.414
3.11 --undefined-- 49.041
3.12 --undefined-- 47.389
3.13 --undefined-- 44.948
3.14 --undefined-- 42.386
3.15 --undefined-- 39.318
3.16 --undefined-- 37.369
3.17 --undefined-- 39.049
3.18 --undefined-- 42.005
3.19 --undefined-- 47.279
3.20 --undefined-- 53.681
3.21 162.644 58.738
3.22 155.512 61.788
3.23 158.343 62.953
3.24 158.626 62.714
3.25 158.826 61.629
3.26 156.772 62.582
3.27 --undefined-- 67.678
3.28 --undefined-- 71.427
3.29 --undefined-- 72.490
3.30 --undefined-- 72.996
3.31 --undefined-- 74.913
3.32 --undefined-- 75.066
3.33 --undefined-- 72.757
3.34 --undefined-- 73.176
3.35 160.787 76.616
3.36 159.842 78.570
3.37 161.048 78.912
3.38 162.576 78.154
3.39 163.050 76.729
3.40 163.298 74.707
3.41 164.433 72.075
3.42 166.411 69.622
3.43 166.123 68.708
3.44 164.302 69.408
3.45 162.060 70.792
3.46 159.478 72.047
3.47 157.083 72.777
3.48 155.307 73.056
3.49 153.649 73.409
3.50 150.916 74.176
3.51 147.451 74.477
3.52 142.099 73.422
3.53 135.788 71.377
3.54 131.619 70.250
3.55 129.956 70.800
3.56 129.397 71.518
3.57 128.880 72.104
3.58 129.102 72.801
3.59 130.134 73.641
3.60 132.302 74.573
3.61 133.579 75.473
3.62 135.078 76.192
3.63 135.773 76.616
3.64 134.850 76.440
3.65 133.287 74.899
3.66 131.973 71.094
3.67 --undefined-- 64.234
3.68 --undefined-- 53.787
3.69 --undefined-- 44.391
3.70 --undefined-- 41.628
3.71 --undefined-- 45.149
3.72 --undefined-- 56.284
3.73 --undefined-- 65.966
3.74 --undefined-- 72.563
3.75 --undefined-- 76.095
3.76 --undefined-- 76.983
3.77 --undefined-- 75.197
3.78 --undefined-- 70.076
3.79 --undefined-- 60.583
3.80 --undefined-- 47.368
3.81 --undefined-- 42.488
3.82 --undefined-- 45.529
3.83 --undefined-- 55.950
3.84 --undefined-- 63.591
3.85 --undefined-- 69.312
3.86 --undefined-- 73.356
3.87 97.958 75.342
3.88 97.084 75.662
3.89 95.683 74.882
3.90 94.866 73.180
3.91 --undefined-- 70.141
3.92 --undefined-- 65.304
3.93 --undefined-- 61.733
3.94 --undefined-- 62.733
3.95 --undefined-- 63.643
3.96 --undefined-- 63.207
3.97 --undefined-- 63.139
3.98 --undefined-- 64.597
3.99 --undefined-- 66.407
4.00 99.583 68.201
4.01 99.010 69.815
4.02 99.153 71.269
4.03 99.266 72.368
4.04 102.661 72.916
4.05 103.868 72.956
4.06 104.458 72.600
4.07 106.458 72.003
4.08 106.772 71.319
4.09 107.148 70.739
4.10 110.317 70.363
4.11 111.678 69.871
4.12 113.530 69.149
4.13 114.996 68.794
4.14 115.519 68.896
4.15 115.918 68.841
4.16 116.739 68.423
4.17 117.450 67.776
4.18 118.439 66.909
4.19 119.413 66.386
4.20 120.276 66.507
4.21 120.577 66.878
4.22 121.338 67.179
4.23 122.173 67.081
4.24 122.624 66.170
4.25 122.371 64.174
4.26 120.926 61.178
4.27 115.647 57.693
4.28 114.824 54.632
4.29 --undefined-- 54.005
4.30 --undefined-- 56.999
4.31 --undefined-- 61.103
4.32 --undefined-- 64.333
4.33 --undefined-- 65.846
4.34 --undefined-- 65.736
4.35 109.394 65.735
4.36 108.073 66.847
4.37 105.540 68.115
4.38 105.203 69.061
4.39 100.965 69.498
4.40 97.456 69.416
4.41 94.987 69.459
4.42 91.399 69.434
4.43 87.571 69.013
4.44 83.722 68.608
4.45 80.776 68.356
4.46 80.691 68.425
4.47 78.242 68.251
4.48 77.095 67.914
4.49 78.030 68.111
4.50 77.545 68.176
4.51 77.028 67.474
4.52 77.187 65.783
4.53 77.274 62.756
4.54 --undefined-- 58.342
4.55 --undefined-- 52.837
4.56 --undefined-- 45.679
4.57 --undefined-- 40.119
4.58 --undefined-- 39.141
4.59 --undefined-- 38.675
4.60 --undefined-- 47.114
4.61 --undefined-- 59.590
4.62 --undefined-- 67.964
4.63 --undefined-- 72.805
4.64 --undefined-- 74.465
4.65 --undefined-- 72.890
4.66 --undefined-- 68.363
4.67 --undefined-- 61.776
4.68 --undefined-- 56.248
4.69 --undefined-- 55.105
4.70 --undefined-- 53.905
4.71 --undefined-- 52.335
4.72 --undefined-- 51.311
4.73 --undefined-- 50.205
4.74 --undefined-- 48.448
4.75 --undefined-- 46.751
4.76 --undefined-- 45.545
4.77 --undefined-- 43.838
4.78 --undefined-- 42.725
4.79 --undefined-- 42.833
4.80 --undefined-- 42.599
4.81 --undefined-- 41.888
4.82 --undefined-- 41.027
4.83 --undefined-- 39.808
4.84 --undefined-- 38.369
4.85 --undefined-- 36.544
4.86 --undefined-- 34.750
4.87 --undefined-- 34.853
4.88 --undefined-- 35.050
4.89 --undefined-- 34.639
4.90 --undefined-- 35.363
4.91 --undefined-- 35.888
4.92 --undefined-- 35.319
4.93 --undefined-- 35.209
4.94 --undefined-- 35.365
4.95 --undefined-- 35.004
4.96 --undefined-- 34.509
4.97 --undefined-- 34.253
4.98 --undefined-- 34.233
4.99 --undefined-- 34.677
5.00 --undefined-- 35.408
5.01 --undefined-- 37.068
5.02 --undefined-- 40.948
5.03 --undefined-- 48.169
5.04 --undefined-- 56.839
5.05 --undefined-- 63.225
5.06 125.997 67.239
5.07 126.709 69.081
5.08 126.513 69.161
5.09 126.247 67.933
5.10 126.606 65.861
5.11 126.325 63.142
5.12 125.878 60.129
5.13 124.863 58.346
5.14 124.611 57.417
5.15 123.291 56.665
5.16 --undefined-- 57.343
5.17 --undefined-- 58.311
5.18 --undefined-- 59.795
5.19 --undefined-- 62.898
5.20 --undefined-- 64.644
5.21 --undefined-- 63.370
5.22 --undefined-- 59.823
5.23 --undefined-- 56.666
5.24 --undefined-- 54.880
5.25 --undefined-- 51.232
5.26 --undefined-- 43.980
5.27 --undefined-- 41.414
5.28 --undefined-- 52.517
5.29 --undefined-- 61.388
5.30 --undefined-- 65.477
5.31 --undefined-- 65.333
5.32 --undefined-- 64.219
5.33 109.778 68.282
5.34 109.737 71.413
5.35 102.568 72.414
5.36 99.761 72.219
5.37 97.094 71.616
5.38 95.091 70.647
5.39 94.325 69.335
5.40 92.342 68.092
5.41 91.984 67.318
5.42 89.422 66.805
5.43 88.134 65.711
5.44 89.013 63.878
5.45 88.238 61.709
5.46 87.406 58.450
5.47 --undefined-- 53.868
5.48 --undefined-- 55.727
5.49 --undefined-- 60.887
5.50 --undefined-- 64.492
5.51 --undefined-- 66.188
5.52 --undefined-- 65.701
5.53 --undefined-- 64.431
5.54 --undefined-- 62.644
5.55 --undefined-- 59.339
5.56 --undefined-- 55.500
5.57 --undefined-- 53.236
5.58 --undefined-- 50.966
5.59 --undefined-- 48.378
5.60 --undefined-- 47.410
5.61 --undefined-- 47.044
5.62 --undefined-- 46.779
5.63 --undefined-- 46.777
5.64 --undefined-- 46.574
5.65 --undefined-- 47.118
5.66 --undefined-- 50.093
5.67 --undefined-- 52.951
5.68 --undefined-- 52.720
5.69 --undefined-- --undefined--
5.70 --undefined-- --undefined--
5.71 --undefined-- --undefined--
5.72 --undefined-- --undefined--
