Time Pitch Intensity
0.01 --undefined-- --undefined--
0.02 266.307 --undefined--
0.03 254.321 --undefined--
0.04 274.136 --undefined--
0.05 --undefined-- 49.103
0.06 --undefined-- 48.708
0.07 --undefined-- 49.570
0.08 --undefined-- 50.989
0.09 --undefined-- 52.929
0.10 --undefined-- 54.621
0.11 --undefined-- 56.302
0.12 --undefined-- 58.316
0.13 --undefined-- 63.269
0.14 177.585 67.886
0.15 180.604 70.196
0.16 184.533 71.047
0.17 187.086 71.395
0.18 188.567 71.437
0.19 189.161 71.179
0.20 188.997 70.592
0.21 188.557 70.150
0.22 193.415 70.417
0.23 195.653 70.545
0.24 196.774 70.082
0.25 195.320 69.326
0.26 192.761 68.393
0.27 188.754 67.226
0.28 182.297 65.638
0.29 167.460 64.231
0.30 167.221 64.604
0.31 168.706 65.759
0.32 167.357 66.959
0.33 --undefined-- 68.654
0.34 --undefined-- 70.809
0.35 --undefined-- 71.976
0.36 208.476 71.186
0.37 204.820 68.518
0.38 206.364 64.575
0.39 208.166 60.763
0.40 208.342 58.116
0.41 203.173 56.311
0.42 199.186 55.411
0.43 199.668 54.361
0.44 --undefined-- 52.335
0.45 --undefined-- 50.050
0.46 --undefined-- 48.509
0.47 --undefined-- 49.241
0.48 --undefined-- 49.536
0.49 --undefined-- 48.966
0.50 --undefined-- 51.312
0.51 --undefined-- 54.350
0.52 --undefined-- 56.119
0.53 --undefined-- 56.883
0.54 --undefined-- 60.578
0.55 160.312 65.879
0.56 158.436 69.150
0.57 157.619 70.915
0.58 156.516 72.086
0.59 156.066 72.924
0.60 156.967 73.471
0.61 158.667 73.753
0.62 159.970 73.574
0.63 160.846 72.981
0.64 160.970 71.921
0.65 160.696 70.120
0.66 159.204 68.227
0.67 160.437 67.641
0.68 161.998 67.612
0.69 161.723 67.316
0.70 161.319 67.091
0.71 160.659 66.740
0.72 157.439 65.982
0.73 152.016 64.708
0.74 148.036 62.591
0.75 147.814 59.705
0.76 --undefined-- 58.291
0.77 --undefined-- 58.533
0.78 --undefined-- 58.106
0.79 --undefined-- 57.033
0.80 --undefined-- 57.738
0.81 254.893 60.234
0.82 266.453 62.989
0.83 247.148 65.157
0.84 209.532 66.473
0.85 197.927 67.040
0.86 195.057 67.277
0.87 205.885 67.570
0.88 209.220 68.051
0.89 214.626 68.087
0.90 221.000 66.887
0.91 240.049 65.036
0.92 244.021 63.833
0.93 250.473 63.445
0.94 257.712 63.572
0.95 264.001 64.050
0.96 286.164 64.846
0.97 294.893 65.260
0.98 294.079 64.473
0.99 287.527 62.331
1.00 275.395 59.240
1.01 260.770 56.895
1.02 --undefined-- 58.540
1.03 --undefined-- 62.011
1.04 --undefined-- 66.785
1.05 --undefined-- 70.967
1.06 --undefined-- 72.194
1.07 --undefined-- 70.932
1.08 --undefined-- 70.422
1.09 --undefined-- 71.036
1.10 --undefined-- 69.338
1.11 --undefined-- 64.457
1.12 --undefined-- 59.703
1.13 --undefined-- 61.925
1.14 --undefined-- 64.926
1.15 --undefined-- 65.934
1.16 --undefined-- 65.336
1.17 234.689 64.032
1.18 232.847 62.961
1.19 219.248 63.870
1.20 210.321 66.430
1.21 203.325 68.563
1.22 197.690 69.355
1.23 189.692 69.733
1.24 183.744 70.353
1.25 180.358 70.385
1.26 180.240 69.575
1.27 180.957 68.673
1.28 180.759 68.245
1.29 179.705 68.061
1.30 179.507 68.222
1.31 178.784 68.777
1.32 178.155 69.466
1.33 176.044 69.758
1.34 173.442 69.398
1.35 171.379 68.331
1.36 171.899 66.968
1.37 173.952 66.313
1.38 175.400 66.454
1.39 175.916 66.690
1.40 177.375 66.632
1.41 179.191 66.450
1.42 180.560 66.560
1.43 182.631 66.826
1.44 184.098 67.096
1.45 185.198 67.358
1.46 186.424 67.638
1.47 186.619 67.845
1.48 186.952 67.953
1.49 187.276 68.079
1.50 186.933 68.158
1.51 185.853 67.975
1.52 185.236 67.247
1.53 181.732 65.832
1.54 178.955 65.007
1.55 180.287 66.139
1.56 180.099 67.896
1.57 179.470 69.438
1.58 178.553 70.584
1.59 177.625 71.372
1.60 177.330 71.936
1.61 176.949 72.415
1.62 176.935 72.840
1.63 176.868 72.918
1.64 176.717 72.519
1.65 176.979 71.828
1.66 175.331 70.888
1.67 174.853 69.878
1.68 174.536 68.698
1.69 175.078 67.421
1.70 176.128 66.948
1.71 178.355 66.966
1.72 180.093 66.647
1.73 181.408 66.143
1.74 182.888 65.777
1.75 184.501 65.226
1.76 185.176 63.302
1.77 --undefined-- 59.123
1.78 --undefined-- 53.876
1.79 --undefined-- 51.960
1.80 --undefined-- 51.626
1.81 --undefined-- 53.860
1.82 --undefined-- 60.392
1.83 --undefined-- 65.782
1.84 --undefined-- 68.552
1.85 182.961 69.455
1.86 178.437 69.604
1.87 176.653 69.813
1.88 176.797 70.003
1.89 178.229 69.656
1.90 180.666 68.422
1.91 185.177 67.097
1.92 186.305 66.796
1.93 186.128 66.929
1.94 185.218 67.071
1.95 184.515 67.068
1.96 184.130 66.830
1.97 184.584 66.349
1.98 185.592 65.529
1.99 186.762 63.759
2.00 186.778 60.401
2.01 185.012 56.414
2.02 --undefined-- 55.084
2.03 --undefined-- 53.837
2.04 --undefined-- 51.660
2.05 --undefined-- 56.304
2.06 --undefined-- 61.408
2.07 215.364 63.882
2.08 210.266 65.008
2.09 205.258 65.977
2.10 202.584 66.570
2.11 201.106 66.430
2.12 201.282 66.011
2.13 204.578 66.076
2.14 208.673 66.630
2.15 213.142 67.382
2.16 218.306 67.880
2.17 222.488 67.883
2.18 228.887 67.756
2.19 235.371 68.249
2.20 242.414 70.037
2.21 251.596 72.575
2.22 258.361 74.619
2.23 263.260 75.400
2.24 268.750 75.119
2.25 274.511 74.445
2.26 278.029 73.300
2.27 279.185 70.963
2.28 276.447 67.091
2.29 270.533 62.397
2.30 273.173 58.334
2.31 274.977 56.083
2.32 --undefined-- 55.333
2.33 --undefined-- 54.382
2.34 --undefined-- 52.015
2.35 --undefined-- 50.471
2.36 --undefined-- 49.320
2.37 --undefined-- 48.357
2.38 --undefined-- 50.070
2.39 --undefined-- 52.288
2.40 --undefined-- 53.734
2.41 --undefined-- 54.980
2.42 --undefined-- 56.063
2.43 285.932 55.990
2.44 286.752 56.547
2.45 292.651 57.710
2.46 292.907 56.430
2.47 --undefined-- 53.201
2.48 --undefined-- 52.252
2.49 --undefined-- 53.047
2.50 --undefined-- 54.742
2.51 --undefined-- 56.028
2.52 --undefined-- 55.079
2.53 --undefined-- 52.403
2.54 --undefined-- 51.141
2.55 --undefined-- 50.505
2.56 --undefined-- 49.089
2.57 --undefined-- 50.325
2.58 --undefined-- 50.924
2.59 --undefined-- 50.265
2.60 --undefined-- 51.746
2.61 --undefined-- 51.655
2.62 --undefined-- 49.088
2.63 --undefined-- 47.958
2.64 --undefined-- 49.218
2.65 --undefined-- 55.145
2.66 295.763 62.624
2.67 277.781 67.219
2.68 274.608 69.250
2.69 273.354 69.789
2.70 272.379 69.702
2.71 271.978 69.247
2.72 271.772 68.688
2.73 271.009 68.357
2.74 270.800 68.165
2.75 271.148 67.984
2.76 271.530 67.923
2.77 272.512 68.132
2.78 274.206 68.362
2.79 274.404 68.193
2.80 273.046 67.698
2.81 273.097 67.683
2.82 278.751 68.522
2.83 278.503 69.113
2.84 275.886 68.541
2.85 271.743 66.184
2.86 261.862 61.530
2.87 253.375 55.406
2.88 286.085 52.058
2.89 294.054 51.647
2.90 --undefined-- 52.158
2.91 --undefined-- 52.680
2.92 --undefined-- 51.656
2.93 --undefined-- 51.347
2.94 --undefined-- 56.572
2.95 213.248 62.764
2.96 204.126 67.229
2.97 200.885 69.863
2.98 195.429 70.926
2.99 190.007 70.918
3.00 187.441 70.652
3.01 185.888 70.591
3.02 184.402 70.332
3.03 183.235 69.694
3.04 182.536 68.901
3.05 180.789 67.996
3.06 177.584 67.059
3.07 173.447 66.438
3.08 170.272 66.170
3.09 167.585 65.848
3.10 165.864 65.606
3.11 167.780 65.877
3.12 170.336 66.399
3.13 174.123 66.807
3.14 175.709 66.963
3.15 176.739 67.125
3.16 177.786 67.376
3.17 178.384 67.382
3.18 179.816 67.196
3.19 180.667 67.075
3.20 181.712 67.304
3.21 182.209 67.701
3.22 182.284 67.713
3.23 182.059 67.296
3.24 181.779 67.062
3.25 181.949 67.676
3.26 181.229 68.479
3.27 178.317 69.327
3.28 176.624 70.576
3.29 174.905 71.446
3.30 174.236 71.550
3.31 173.238 71.070
3.32 173.445 70.283
3.33 173.483 69.326
3.34 173.770 68.705
3.35 175.009 68.709
3.36 177.397 68.326
3.37 181.765 66.947
3.38 182.300 64.657
3.39 179.618 61.095
3.40 183.182 56.298
3.41 183.788 52.666
3.42 --undefined-- 52.141
3.43 --undefined-- 52.713
3.44 --undefined-- 53.564
3.45 --undefined-- 53.970
3.46 --undefined-- 52.495
3.47 --undefined-- 51.956
3.48 252.434 54.923
3.49 286.578 59.160
3.50 251.740 62.763
3.51 243.976 65.128
3.52 240.832 66.675
3.53 238.355 67.737
3.54 237.135 68.329
3.55 237.718 68.287
3.56 238.926 67.238
3.57 239.535 65.218
3.58 238.361 63.351
3.59 236.525 62.409
3.60 236.035 62.445
3.61 238.517 63.288
3.62 240.592 63.991
3.63 237.421 64.118
3.64 236.284 63.752
3.65 235.714 63.067
3.66 233.271 61.958
3.67 228.659 59.831
3.68 223.865 56.321
3.69 234.817 52.598
3.70 --undefined-- 50.666
3.71 --undefined-- 50.023
3.72 --undefined-- 53.871
3.73 --undefined-- 58.601
3.74 215.390 61.471
3.75 201.608 62.975
3.76 193.679 63.924
3.77 184.342 64.303
3.78 178.996 64.301
3.79 177.355 64.091
3.80 176.850 63.782
3.81 179.178 63.726
3.82 179.406 63.841
3.83 178.789 63.845
3.84 177.529 63.530
3.85 176.022 62.903
3.86 174.415 62.462
3.87 170.962 62.815
3.88 169.944 63.701
3.89 170.452 64.435
3.90 169.946 64.534
3.91 170.077 64.123
3.92 172.539 63.846
3.93 173.155 63.494
3.94 171.068 61.838
3.95 163.167 58.178
3.96 --undefined-- 53.410
3.97 --undefined-- 51.104
3.98 --undefined-- 52.276
3.99 --undefined-- 54.003
4.00 --undefined-- 56.109
4.01 --undefined-- 59.306
4.02 192.060 62.784
4.03 189.777 65.114
4.04 183.882 66.554
4.05 180.239 67.843
4.06 176.820 68.818
4.07 172.134 69.108
4.08 166.329 68.915
4.09 --undefined-- 68.463
4.10 --undefined-- 67.410
4.11 --undefined-- 64.837
4.12 --undefined-- 61.418
4.13 --undefined-- 59.385
4.14 --undefined-- 57.587
4.15 --undefined-- 56.703
4.16 --undefined-- 57.015
4.17 --undefined-- 58.069
4.18 --undefined-- 59.120
4.19 182.471 59.850
4.20 181.627 61.069
4.21 179.146 63.347
4.22 181.972 66.026
4.23 185.152 67.632
4.24 180.039 68.276
4.25 180.877 69.139
4.26 178.932 69.776
4.27 175.054 70.113
4.28 173.685 70.897
4.29 172.957 71.569
4.30 171.959 71.469
4.31 170.314 70.607
4.32 168.919 69.390
4.33 166.161 67.954
4.34 164.214 65.917
4.35 162.947 63.832
4.36 162.975 63.231
4.37 163.731 63.503
4.38 168.969 64.219
4.39 172.640 64.862
4.40 172.329 64.792
4.41 172.219 63.818
4.42 173.463 62.186
4.43 175.716 60.487
4.44 --undefined-- 58.754
4.45 --undefined-- 55.864
4.46 --undefined-- 52.677
4.47 --undefined-- 52.835
4.48 --undefined-- 52.174
4.49 --undefined-- 48.964
4.50 --undefined-- 46.625
4.51 --undefined-- 46.250
4.52 --undefined-- 46.392
4.53 --undefined-- 46.265
4.54 --undefined-- 45.025
4.55 --undefined-- 44.252
4.56 --undefined-- 44.166
4.57 --undefined-- 46.623
4.58 --undefined-- 49.874
4.59 --undefined-- 49.935
4.60 --undefined-- 47.015
4.61 --undefined-- 46.300
4.62 --undefined-- 48.456
4.63 --undefined-- 50.523
4.64 --undefined-- 52.548
4.65 287.159 54.736
4.66 286.825 55.284
4.67 --undefined-- 53.358
4.68 --undefined-- 51.384
4.69 --undefined-- 50.890
4.70 --undefined-- 50.759
4.71 --undefined-- 52.607
4.72 --undefined-- 54.491
4.73 267.953 54.551
4.74 265.745 54.087
4.75 270.134 55.303
4.76 270.200 54.918
4.77 --undefined-- 51.689
4.78 --undefined-- 48.155
4.79 --undefined-- 46.477
4.80 --undefined-- 45.697
4.81 --undefined-- 45.795
4.82 --undefined-- 47.788
4.83 --undefined-- 49.720
4.84 --undefined-- 49.960
4.85 --undefined-- 48.623
4.86 --undefined-- 47.657
4.87 --undefined-- 48.949
4.88 --undefined-- 55.246
4.89 264.813 64.178
4.90 255.313 70.271
4.91 253.675 73.788
4.92 253.687 75.480
4.93 253.603 75.897
4.94 252.119 74.955
4.95 250.278 72.174
4.96 248.043 68.130
4.97 242.844 66.849
4.98 244.988 68.333
4.99 240.697 69.654
5.00 230.513 69.867
5.01 219.035 69.344
5.02 207.277 --undefined--
5.03 199.114 --undefined--
5.04 --undefined-- --undefined--
5.05 --undefined-- --undefined--
