Time Pitch Intensity
0.01 --undefined-- --undefined--
0.02 --undefined-- --undefined--
0.03 --undefined-- --undefined--
0.04 --undefined-- --undefined--
0.05 --undefined-- 58.592
0.06 --undefined-- 59.193
0.07 --undefined-- 60.214
0.08 110.717 61.074
0.09 115.107 62.010
0.10 118.320 62.266
0.11 122.338 61.719
0.12 125.747 60.494
0.13 129.840 58.747
0.14 132.383 57.816
0.15 135.993 60.663
0.16 137.830 65.298
0.17 138.207 68.255
0.18 139.336 69.713
0.19 139.662 70.592
0.20 138.948 71.282
0.21 137.249 71.890
0.22 133.405 72.638
0.23 125.872 73.057
0.24 --undefined-- 72.197
0.25 --undefined-- 69.120
0.26 --undefined-- 63.344
0.27 --undefined-- 56.851
0.28 --undefined-- 54.408
0.29 --undefined-- 52.887
0.30 --undefined-- 51.114
0.31 --undefined-- 50.222
0.32 --undefined-- 51.454
0.33 --undefined-- 55.959
0.34 158.086 59.678
0.35 159.539 61.588
0.36 160.766 61.934
0.37 124.253 60.469
0.38 --undefined-- 56.679
0.39 --undefined-- 52.132
0.40 --undefined-- 55.256
0.41 --undefined-- 58.690
0.42 --undefined-- 61.727
0.43 134.353 65.707
0.44 130.581 68.454
0.45 131.193 69.490
0.46 132.717 69.395
0.47 134.304 68.889
0.48 132.867 67.937
0.49 --undefined-- 65.118
0.50 --undefined-- 59.243
0.51 --undefined-- 54.439
0.52 --undefined-- 58.093
0.53 --undefined-- 59.370
0.54 --undefined-- 58.108
0.55 --undefined-- 59.205
0.56 --undefined-- 63.679
0.57 --undefined-- 66.157
0.58 110.621 66.089
0.59 108.970 63.663
0.60 112.587 59.269
0.61 113.718 55.066
0.62 117.051 53.515
0.63 125.409 53.090
0.64 126.875 52.804
0.65 129.690 54.186
0.66 --undefined-- 57.559
0.67 --undefined-- 58.986
0.68 --undefined-- 57.364
0.69 129.376 56.506
0.70 132.529 62.746
0.71 134.074 68.660
0.72 131.532 71.662
0.73 126.188 72.167
0.74 120.320 71.299
0.75 116.404 70.359
0.76 111.010 69.360
0.77 108.454 67.456
0.78 107.185 64.784
0.79 107.842 62.868
0.80 108.363 62.478
0.81 112.332 62.279
0.82 114.520 61.946
0.83 116.733 61.776
0.84 118.312 61.314
0.85 116.148 59.818
0.86 122.019 59.069
0.87 124.187 60.496
0.88 129.368 63.833
0.89 138.167 67.784
0.90 140.076 70.244
0.91 140.369 70.941
0.92 141.806 70.653
0.93 142.128 70.726
0.94 143.482 71.090
0.95 145.137 71.179
0.96 146.354 71.080
0.97 147.136 71.238
0.98 147.916 71.703
0.99 148.787 71.939
1.00 148.959 71.875
1.01 148.641 71.766
1.02 148.414 71.518
1.03 148.063 71.148
1.04 147.738 70.691
1.05 147.809 70.102
1.06 147.810 69.529
1.07 147.237 68.929
1.08 146.689 67.931
1.09 146.433 66.747
1.10 146.211 65.963
1.11 146.334 65.692
1.12 146.431 65.697
1.13 146.977 65.191
1.14 147.342 63.258
1.15 145.433 59.603
1.16 146.096 54.789
1.17 --undefined-- 50.519
1.18 --undefined-- 48.282
1.19 --undefined-- 46.804
1.20 --undefined-- 45.127
1.21 --undefined-- 44.097
1.22 --undefined-- 43.281
1.23 --undefined-- 41.623
1.24 --undefined-- 39.766
1.25 --undefined-- 38.747
1.26 --undefined-- 39.758
1.27 --undefined-- 41.532
1.28 --undefined-- 42.188
1.29 --undefined-- 41.615
1.30 --undefined-- 41.153
1.31 --undefined-- 41.828
1.32 --undefined-- 43.531
1.33 --undefined-- 45.417
1.34 --undefined-- 47.064
1.35 --undefined-- 48.378
1.36 --undefined-- 48.537
1.37 --undefined-- 47.318
1.38 --undefined-- 47.180
1.39 --undefined-- 50.766
1.40 --undefined-- 54.887
1.41 --undefined-- 57.796
1.42 --undefined-- 59.747
1.43 --undefined-- 64.631
1.44 --undefined-- 70.530
1.45 190.506 73.365
1.46 190.147 73.656
1.47 190.884 73.137
1.48 191.507 72.745
1.49 193.509 72.073
1.50 194.507 70.801
1.51 186.603 69.536
1.52 182.846 68.954
1.53 180.195 68.442
1.54 171.300 67.938
1.55 162.123 67.839
1.56 154.986 67.826
1.57 148.464 67.818
1.58 135.702 67.764
1.59 133.828 67.334
1.60 129.147 66.326
1.61 124.131 64.374
1.62 117.959 60.777
1.63 --undefined-- 55.295
1.64 --undefined-- 49.481
1.65 --undefined-- 46.709
1.66 --undefined-- 46.170
1.67 --undefined-- 47.036
1.68 --undefined-- 47.061
1.69 --undefined-- 45.421
1.70 --undefined-- 43.112
1.71 --undefined-- 47.226
1.72 --undefined-- 58.688
1.73 --undefined-- 66.673
1.74 --undefined-- 70.884
1.75 --undefined-- 71.850
1.76 --undefined-- 69.980
1.77 --undefined-- 66.236
1.78 --undefined-- 64.531
1.79 --undefined-- 67.753
1.80 --undefined-- 71.137
1.81 --undefined-- 72.293
1.82 --undefined-- 71.289
1.83 122.097 69.498
1.84 122.451 68.608
1.85 120.767 67.652
1.86 --undefined-- 65.000
1.87 --undefined-- 60.264
1.88 --undefined-- 54.416
1.89 --undefined-- 50.738
1.90 --undefined-- 49.052
1.91 --undefined-- 47.272
1.92 --undefined-- 45.651
1.93 --undefined-- 45.028
1.94 --undefined-- 49.149
1.95 --undefined-- 56.592
1.96 --undefined-- 61.849
1.97 126.041 64.889
1.98 126.016 66.948
1.99 126.211 68.291
2.00 125.661 68.489
2.01 124.756 67.277
2.02 123.237 65.250
2.03 122.007 63.172
2.04 --undefined-- 60.136
2.05 --undefined-- 55.692
2.06 --undefined-- 52.460
2.07 --undefined-- 52.168
2.08 --undefined-- 53.716
2.09 --undefined-- 54.830
2.10 --undefined-- 54.912
2.11 --undefined-- 56.270
2.12 --undefined-- 60.978
2.13 --undefined-- 64.528
2.14 --undefined-- 66.021
2.15 119.562 66.039
2.16 118.542 64.363
2.17 117.831 61.059
2.18 --undefined-- 56.924
2.19 --undefined-- 54.311
2.20 --undefined-- 54.794
2.21 --undefined-- 54.805
2.22 --undefined-- 55.682
2.23 --undefined-- 58.868
2.24 116.046 62.175
2.25 117.473 64.636
2.26 117.786 65.866
2.27 118.681 65.678
2.28 118.687 64.483
2.29 112.952 63.930
2.30 111.617 63.885
2.31 110.479 62.974
2.32 109.630 61.266
2.33 109.195 59.840
2.34 108.346 59.173
2.35 107.658 58.334
2.36 106.891 57.139
2.37 106.491 56.533
2.38 105.642 55.901
2.39 105.720 54.779
2.40 106.375 53.939
2.41 106.612 53.907
2.42 106.918 54.267
2.43 106.895 54.030
2.44 107.309 53.214
2.45 107.023 52.293
2.46 105.734 51.440
2.47 105.809 50.412
2.48 --undefined-- 49.093
2.49 --undefined-- 47.996
2.50 --undefined-- 47.508
2.51 --undefined-- 47.036
2.52 --undefined-- 45.791
2.53 --undefined-- 43.350
2.54 --undefined-- 40.656
2.55 --undefined-- 40.657
2.56 --undefined-- 47.958
2.57 --undefined-- 56.159
2.58 --undefined-- 61.839
2.59 --undefined-- 65.049
2.60 --undefined-- 66.524
2.61 --undefined-- 66.477
2.62 --undefined-- 65.111
2.63 --undefined-- 63.065
2.64 --undefined-- 59.963
2.65 --undefined-- 55.098
2.66 --undefined-- 51.185
2.67 --undefined-- 49.945
2.68 --undefined-- 47.906
2.69 --undefined-- 50.306
2.70 --undefined-- 54.627
2.71 --undefined-- 56.435
2.72 --undefined-- 57.116
2.73 110.755 57.926
2.74 111.383 58.241
2.75 111.312 57.931
2.76 107.570 57.626
2.77 107.389 57.703
2.78 111.603 57.567
2.79 110.627 56.629
2.80 110.024 55.284
2.81 109.778 54.320
2.82 109.962 54.224
2.83 111.286 54.645
2.84 112.828 55.572
2.85 115.913 56.996
2.86 120.085 58.437
2.87 120.427 58.736
2.88 123.543 56.720
2.89 --undefined-- 52.416
2.90 --undefined-- 52.984
2.91 --undefined-- 57.289
2.92 --undefined-- 61.717
2.93 --undefined-- 66.346
2.94 --undefined-- 68.882
2.95 --undefined-- 69.628
2.96 --undefined-- 69.432
2.97 --undefined-- 68.322
2.98 --undefined-- 66.324
2.99 --undefined-- 63.241
3.00 --undefined-- 58.634
3.01 --undefined-- 52.644
3.02 --undefined-- 47.304
3.03 --undefined-- 45.606
3.04 --undefined-- 49.003
3.05 --undefined-- 54.431
3.06 --undefined-- 60.379
3.07 --undefined-- 64.963
3.08 110.682 67.129
3.09 109.895 67.454
3.10 107.600 66.892
3.11 107.100 65.908
3.12 106.712 64.277
3.13 --undefined-- 62.139
3.14 --undefined-- 60.018
3.15 --undefined-- 56.554
3.16 --undefined-- 50.936
3.17 --undefined-- 46.758
3.18 --undefined-- 44.408
3.19 --undefined-- 45.178
3.20 --undefined-- 52.022
3.21 --undefined-- 58.607
3.22 --undefined-- 63.360
3.23 --undefined-- 64.989
3.24 --undefined-- 63.060
3.25 --undefined-- 57.611
3.26 --undefined-- 50.218
3.27 --undefined-- 46.485
3.28 --undefined-- 45.466
3.29 --undefined-- 46.825
3.30 --undefined-- 50.514
3.31 --undefined-- 53.921
3.32 --undefined-- 58.601
3.33 --undefined-- 62.941
3.34 150.651 65.265
3.35 151.946 66.215
3.36 154.641 66.790
3.37 157.389 67.799
3.38 158.470 69.568
3.39 157.872 70.723
3.40 157.846 69.712
3.41 158.941 65.587
3.42 --undefined-- 57.667
3.43 --undefined-- 47.751
3.44 --undefined-- 45.024
3.45 --undefined-- 48.066
3.46 --undefined-- 51.528
3.47 --undefined-- 55.919
3.48 --undefined-- 62.775
3.49 --undefined-- 67.076
3.50 --undefined-- 68.735
3.51 137.943 68.842
3.52 135.198 68.388
3.53 130.608 68.433
3.54 129.614 69.014
3.55 128.664 69.323
3.56 127.910 69.170
3.57 127.552 68.808
3.58 127.896 68.967
3.59 129.677 69.610
3.60 132.401 70.176
3.61 135.467 70.843
3.62 137.710 71.517
3.63 137.690 71.453
3.64 135.839 69.713
3.65 136.948 65.273
3.66 112.418 57.770
3.67 111.224 51.397
3.68 --undefined-- 49.462
3.69 --undefined-- 49.307
3.70 --undefined-- 55.119
3.71 --undefined-- 61.658
3.72 139.438 65.709
3.73 136.290 67.436
3.74 133.739 67.318
3.75 131.114 65.745
3.76 127.093 63.706
3.77 126.767 62.756
3.78 126.744 62.361
3.79 126.377 61.185
3.80 --undefined-- 58.361
3.81 --undefined-- 53.774
3.82 --undefined-- 51.656
3.83 --undefined-- 54.719
3.84 --undefined-- 56.505
3.85 --undefined-- 57.478
3.86 --undefined-- 63.719
3.87 --undefined-- 68.933
3.88 --undefined-- 70.668
3.89 --undefined-- 69.557
3.90 123.358 66.806
3.91 122.024 63.873
3.92 --undefined-- 60.705
3.93 --undefined-- 56.403
3.94 --undefined-- 51.949
3.95 --undefined-- 52.727
3.96 --undefined-- 54.544
3.97 --undefined-- 53.884
3.98 --undefined-- 54.147
3.99 --undefined-- 57.053
4.00 --undefined-- 60.469
4.01 --undefined-- 64.484
4.02 126.857 66.897
4.03 126.428 67.108
4.04 118.367 66.108
4.05 115.492 64.494
4.06 114.329 62.233
4.07 109.666 59.520
4.08 --undefined-- 56.255
4.09 --undefined-- 51.824
4.10 --undefined-- 46.750
4.11 --undefined-- 44.224
4.12 --undefined-- 42.983
4.13 --undefined-- 41.763
4.14 --undefined-- 41.262
4.15 --undefined-- 41.975
4.16 --undefined-- 42.620
4.17 --undefined-- 41.924
4.18 --undefined-- 40.790
4.19 --undefined-- 40.507
4.20 --undefined-- 40.185
4.21 --undefined-- 39.666
4.22 --undefined-- 40.029
4.23 --undefined-- 41.550
4.24 --undefined-- 44.033
4.25 --undefined-- 50.651
4.26 --undefined-- 59.575
4.27 --undefined-- 65.324
4.28 --undefined-- 66.891
4.29 --undefined-- 64.287
4.30 --undefined-- 62.940
4.31 --undefined-- 68.280
4.32 --undefined-- 70.813
4.33 142.839 70.940
4.34 142.336 70.513
4.35 144.563 70.000
4.36 144.013 69.515
4.37 144.201 68.932
4.38 144.893 67.798
4.39 145.484 66.217
4.40 145.846 64.145
4.41 145.100 60.941
4.42 142.661 56.630
4.43 140.496 52.795
4.44 137.639 52.284
4.45 132.899 53.157
4.46 121.878 53.858
4.47 121.074 54.435
4.48 114.651 55.001
4.49 106.462 55.630
4.50 106.177 56.364
4.51 107.127 56.886
4.52 107.681 56.693
4.53 109.783 54.981
4.54 --undefined-- 50.891
4.55 --undefined-- 47.450
4.56 --undefined-- 53.623
4.57 --undefined-- 57.499
4.58 --undefined-- 57.361
4.59 --undefined-- 55.774
4.60 --undefined-- 58.577
4.61 --undefined-- 60.605
4.62 --undefined-- 60.238
4.63 --undefined-- 58.515
4.64 --undefined-- 55.672
4.65 --undefined-- 52.214
4.66 --undefined-- 49.055
4.67 --undefined-- 45.587
4.68 --undefined-- 42.928
4.69 --undefined-- 41.725
4.70 --undefined-- 40.380
4.71 --undefined-- 40.190
4.72 --undefined-- 40.399
4.73 --undefined-- 42.594
4.74 --undefined-- 47.800
4.75 --undefined-- 52.766
4.76 --undefined-- 57.089
4.77 --undefined-- 60.258
4.78 --undefined-- 61.748
4.79 --undefined-- 62.123
4.80 --undefined-- 61.842
4.81 --undefined-- 60.446
4.82 --undefined-- 58.129
4.83 --undefined-- 54.851
4.84 --undefined-- 50.383
4.85 --undefined-- 47.793
4.86 --undefined-- 49.626
4.87 --undefined-- 51.594
4.88 --undefined-- 51.589
4.89 --undefined-- 50.865
4.90 --undefined-- 51.450
4.91 --undefined-- 51.872
4.92 --undefined-- 51.175
4.93 --undefined-- 50.458
4.94 --undefined-- 50.582
4.95 104.010 51.232
4.96 103.794 51.507
4.97 106.229 51.370
4.98 107.127 51.628
4.99 107.898 53.465
5.00 111.685 56.199
5.01 116.416 57.689
5.02 116.309 57.916
5.03 116.882 57.354
5.04 117.772 55.116
5.05 --undefined-- 50.900
5.06 --undefined-- 50.889
5.07 --undefined-- 54.938
5.08 --undefined-- 57.717
5.09 --undefined-- 60.789
5.10 --undefined-- 64.525
5.11 --undefined-- 66.321
5.12 --undefined-- 65.871
5.13 --undefined-- 64.522
5.14 --undefined-- 63.450
5.15 --undefined-- 61.404
5.16 --undefined-- 56.779
5.17 --undefined-- 49.862
5.18 --undefined-- 43.762
5.19 --undefined-- 42.466
5.20 --undefined-- 46.115
5.21 --undefined-- 49.488
5.22 --undefined-- 54.162
5.23 --undefined-- 58.826
5.24 --undefined-- 60.897
5.25 --undefined-- 60.811
5.26 100.354 --undefined--
5.27 99.846 --undefined--
5.28 --undefined-- --undefined--
5.29 --undefined-- --undefined--
