Time Pitch Intensity
0.01 --undefined-- --undefined--
0.02 117.589 --undefined--
0.03 118.542 --undefined--
0.04 117.920 --undefined--
0.05 123.134 74.637
0.06 132.728 76.876
0.07 138.061 77.811
0.08 138.441 77.620
0.09 --undefined-- 76.675
0.10 --undefined-- 74.932
0.11 --undefined-- 72.237
0.12 --undefined-- 70.558
0.13 --undefined-- 70.599
0.14 --undefined-- 69.282
0.15 --undefined-- 69.312
0.16 --undefined-- 71.631
0.17 --undefined-- 73.383
0.18 133.507 74.874
0.19 134.971 76.185
0.20 140.140 77.057
0.21 140.740 77.265
0.22 135.501 76.988
0.23 134.610 76.751
0.24 134.276 76.665
0.25 133.888 76.469
0.26 134.641 76.066
0.27 135.916 75.753
0.28 136.315 75.433
0.29 133.649 74.626
0.30 127.361 74.102
0.31 125.947 74.668
0.32 125.121 75.681
0.33 126.121 76.512
0.34 126.315 76.940
0.35 122.933 77.176
0.36 120.606 76.695
0.37 121.600 74.366
0.38 97.670 69.857
0.39 123.464 64.881
0.40 123.720 60.551
0.41 124.305 56.834
0.42 128.209 54.419
0.43 122.765 53.055
0.44 123.778 52.438
0.45 125.164 50.756
0.46 --undefined-- 47.773
0.47 --undefined-- 45.278
0.48 --undefined-- 45.152
0.49 --undefined-- 45.429
0.50 --undefined-- 44.808
0.51 --undefined-- 51.195
0.52 --undefined-- 63.507
0.53 --undefined-- 71.440
0.54 --undefined-- 75.410
0.55 --undefined-- 76.291
0.56 130.049 75.571
0.57 129.426 75.153
0.58 128.982 75.232
0.59 129.984 75.328
0.60 131.254 75.244
0.61 129.500 74.546
0.62 127.107 72.456
0.63 --undefined-- 68.097
0.64 --undefined-- 61.574
0.65 128.852 56.422
0.66 128.222 54.330
0.67 129.654 51.550
0.68 --undefined-- 48.056
0.69 --undefined-- 47.498
0.70 --undefined-- 47.930
0.71 --undefined-- 47.191
0.72 --undefined-- 46.355
0.73 --undefined-- 55.147
0.74 --undefined-- 65.550
0.75 --undefined-- 71.054
0.76 --undefined-- 72.912
0.77 --undefined-- 74.147
0.78 145.303 76.127
0.79 138.144 77.037
0.80 134.917 77.053
0.81 132.863 76.912
0.82 131.534 76.596
0.83 129.658 75.463
0.84 126.247 72.662
0.85 122.479 67.575
0.86 129.697 60.746
0.87 130.100 56.392
0.88 128.194 55.143
0.89 129.164 53.215
0.90 --undefined-- 49.985
0.91 --undefined-- 47.692
0.92 --undefined-- 53.874
0.93 --undefined-- 62.215
0.94 --undefined-- 68.168
0.95 --undefined-- 72.780
0.96 --undefined-- 75.580
0.97 --undefined-- 76.346
0.98 99.474 76.085
0.99 94.282 75.471
1.00 93.292 74.321
1.01 92.273 72.885
1.02 91.395 71.464
1.03 89.070 71.361
1.04 103.236 73.271
1.05 103.573 75.135
1.06 104.445 76.221
1.07 108.639 76.696
1.08 116.019 76.789
1.09 123.111 76.565
1.10 131.604 76.176
1.11 141.739 76.075
1.12 148.423 76.386
1.13 152.730 76.611
1.14 158.359 76.742
1.15 161.048 76.993
1.16 162.347 77.229
1.17 162.787 77.270
1.18 161.258 77.055
1.19 158.667 76.754
1.20 157.134 76.501
1.21 157.181 76.060
1.22 154.315 75.489
1.23 151.895 75.394
1.24 148.155 76.118
1.25 142.977 77.242
1.26 137.612 78.048
1.27 133.097 78.074
1.28 121.761 77.396
1.29 114.512 76.571
1.30 99.973 76.118
1.31 96.313 76.028
1.32 95.477 76.016
1.33 97.073 75.856
1.34 97.625 75.254
1.35 94.655 74.303
1.36 97.459 74.277
1.37 105.487 75.329
1.38 106.897 76.052
1.39 108.409 76.185
1.40 112.668 76.105
1.41 116.984 76.025
1.42 121.813 76.019
1.43 133.036 76.260
1.44 135.494 76.566
1.45 138.007 76.813
1.46 139.329 76.970
1.47 141.225 76.867
1.48 143.974 76.422
1.49 145.490 75.543
1.50 144.843 73.952
1.51 142.971 71.107
1.52 145.090 66.268
1.53 144.296 59.551
1.54 143.116 54.726
1.55 --undefined-- 54.686
1.56 --undefined-- 57.320
1.57 --undefined-- 59.683
1.58 --undefined-- 61.442
1.59 --undefined-- 62.639
1.60 --undefined-- 62.294
1.61 --undefined-- 60.738
1.62 --undefined-- 59.481
1.63 --undefined-- 58.690
1.64 --undefined-- 58.016
1.65 --undefined-- 57.743
1.66 --undefined-- 57.764
1.67 --undefined-- 57.756
1.68 --undefined-- 57.148
1.69 --undefined-- 56.256
1.70 --undefined-- 55.514
1.71 --undefined-- 54.615
1.72 --undefined-- 53.540
1.73 --undefined-- 52.094
1.74 --undefined-- 50.494
1.75 --undefined-- 48.470
1.76 --undefined-- 45.752
1.77 --undefined-- 44.312
1.78 --undefined-- 49.454
1.79 --undefined-- 55.550
1.80 --undefined-- 63.440
1.81 --undefined-- 70.754
1.82 173.596 74.798
1.83 158.921 76.130
1.84 156.469 76.138
1.85 155.427 75.892
1.86 154.834 75.941
1.87 154.494 76.165
1.88 151.016 75.607
1.89 147.630 73.612
1.90 141.462 69.683
1.91 111.208 63.618
1.92 151.655 57.683
1.93 154.038 55.698
1.94 152.876 56.002
1.95 152.402 58.481
1.96 --undefined-- 66.737
1.97 --undefined-- 73.135
1.98 --undefined-- 76.013
1.99 167.743 76.404
2.00 161.620 75.682
2.01 151.816 74.755
2.02 147.939 74.515
2.03 146.309 74.988
2.04 146.532 75.422
2.05 146.501 75.413
2.06 146.111 74.916
2.07 146.015 74.369
2.08 146.293 74.446
2.09 147.935 74.989
2.10 149.025 75.238
2.11 149.456 75.432
2.12 149.574 75.866
2.13 148.126 76.042
2.14 147.312 75.471
2.15 144.647 73.754
2.16 142.466 71.057
2.17 142.620 67.746
2.18 148.677 63.468
2.19 151.340 59.498
2.20 --undefined-- 58.860
2.21 --undefined-- 59.395
2.22 --undefined-- 60.687
2.23 --undefined-- 61.563
2.24 --undefined-- 61.369
2.25 --undefined-- 64.791
2.26 --undefined-- 71.705
2.27 145.570 75.911
2.28 137.057 77.368
2.29 133.077 77.345
2.30 131.944 77.052
2.31 130.989 76.743
2.32 129.439 75.996
2.33 124.294 74.943
2.34 130.393 75.334
2.35 143.560 76.903
2.36 151.239 77.853
2.37 158.831 77.871
2.38 166.306 77.580
2.39 171.190 77.385
2.40 174.049 76.697
2.41 174.354 74.788
2.42 171.339 72.156
2.43 173.764 72.149
2.44 175.172 74.801
2.45 172.872 76.635
2.46 170.399 77.098
2.47 164.998 77.316
2.48 153.749 77.554
2.49 145.377 77.215
2.50 140.766 76.539
2.51 136.982 75.739
2.52 133.042 74.655
2.53 125.408 72.877
2.54 121.014 69.803
2.55 --undefined-- 65.108
2.56 --undefined-- 60.992
2.57 --undefined-- 60.025
2.58 --undefined-- 59.525
2.59 --undefined-- 58.883
2.60 --undefined-- 58.887
2.61 --undefined-- 59.924
2.62 --undefined-- 61.358
2.63 --undefined-- 67.227
2.64 --undefined-- 73.307
2.65 --undefined-- 76.162
2.66 118.453 76.438
2.67 99.916 75.833
2.68 95.938 75.675
2.69 98.046 75.857
2.70 100.325 76.027
2.71 103.535 76.086
2.72 108.066 76.191
2.73 115.930 76.431
2.74 122.144 76.401
2.75 130.861 76.183
2.76 144.022 76.346
2.77 151.479 76.743
2.78 160.390 76.507
2.79 162.561 74.710
2.80 157.401 70.830
2.81 154.449 65.038
2.82 --undefined-- 61.093
2.83 --undefined-- 62.625
2.84 --undefined-- 64.035
2.85 --undefined-- 64.813
2.86 --undefined-- 66.762
2.87 --undefined-- 70.877
2.88 147.376 74.144
2.89 147.939 76.042
2.90 146.453 76.849
2.91 134.651 76.750
2.92 120.235 76.355
2.93 107.150 75.857
2.94 105.192 75.374
2.95 99.472 75.152
2.96 99.263 75.064
2.97 99.461 74.793
2.98 99.593 74.320
2.99 99.828 73.928
3.00 100.743 73.916
3.01 102.463 74.429
3.02 102.600 75.151
3.03 103.528 75.677
3.04 103.484 75.742
3.05 104.027 75.518
3.06 105.684 75.704
3.07 108.786 76.405
3.08 112.072 76.723
3.09 113.005 76.434
3.10 114.483 76.308
3.11 121.941 77.012
3.12 122.726 77.852
3.13 122.548 78.086
3.14 122.431 77.916
3.15 122.402 77.265
3.16 120.770 75.460
3.17 119.771 72.554
3.18 121.530 71.595
3.19 126.893 73.070
3.20 126.359 74.071
3.21 126.086 74.374
3.22 126.444 74.485
3.23 127.410 74.551
3.24 128.347 74.558
3.25 129.171 74.621
3.26 132.056 74.870
3.27 132.288 75.217
3.28 132.113 75.520
3.29 131.395 75.922
3.30 129.698 76.239
3.31 126.759 76.051
3.32 122.379 75.430
3.33 118.668 75.015
3.34 115.198 75.093
3.35 112.728 75.291
3.36 111.065 75.401
3.37 110.963 75.337
3.38 110.931 74.698
3.39 109.661 72.927
3.40 103.693 69.941
3.41 113.556 66.158
3.42 114.047 61.796
3.43 113.641 57.633
3.44 116.672 54.823
3.45 113.756 53.519
3.46 111.977 58.167
3.47 --undefined-- 67.290
3.48 --undefined-- 73.357
3.49 139.403 76.006
3.50 137.081 76.285
3.51 133.489 75.828
3.52 131.988 75.691
3.53 132.356 75.740
3.54 133.743 75.753
3.55 135.979 75.942
3.56 137.449 76.281
3.57 138.076 76.371
3.58 138.908 75.902
3.59 138.626 74.605
3.60 135.443 72.306
3.61 134.947 68.985
3.62 --undefined-- 65.390
3.63 --undefined-- 63.566
3.64 --undefined-- 63.984
3.65 --undefined-- 64.682
3.66 --undefined-- 64.277
3.67 --undefined-- 63.857
3.68 --undefined-- 64.103
3.69 --undefined-- 64.197
3.70 --undefined-- 64.258
3.71 --undefined-- 64.547
3.72 --undefined-- 64.016
3.73 --undefined-- 62.725
3.74 --undefined-- 63.298
3.75 --undefined-- 69.638
3.76 168.145 74.887
3.77 155.229 77.289
3.78 149.709 77.828
3.79 148.545 77.565
3.80 148.094 76.771
3.81 145.112 74.828
3.82 93.634 70.992
3.83 91.013 65.972
3.84 --undefined-- 62.567
3.85 149.743 61.051
3.86 143.814 63.320
3.87 139.134 66.104
3.88 104.899 68.079
3.89 110.541 70.244
3.90 112.526 73.137
3.91 104.680 75.543
3.92 104.291 76.511
3.93 100.606 76.719
3.94 97.280 76.759
3.95 93.915 76.467
3.96 90.957 75.823
3.97 90.789 75.079
3.98 93.203 74.474
3.99 97.648 74.683
4.00 98.519 75.426
4.01 98.193 75.729
4.02 98.734 75.101
4.03 98.420 73.176
4.04 99.100 69.931
4.05 --undefined-- 65.267
4.06 --undefined-- 60.191
4.07 --undefined-- 57.886
4.08 --undefined-- 57.636
4.09 --undefined-- 58.191
4.10 --undefined-- 58.648
4.11 --undefined-- 58.642
4.12 --undefined-- 58.951
4.13 --undefined-- 59.636
4.14 --undefined-- 60.463
4.15 --undefined-- 62.225
4.16 --undefined-- 67.261
4.17 --undefined-- 72.865
4.18 188.976 75.588
4.19 178.848 75.876
4.20 171.373 75.691
4.21 166.951 75.661
4.22 165.081 75.672
4.23 165.572 75.922
4.24 165.520 76.311
4.25 165.168 76.624
4.26 165.111 76.762
4.27 165.159 76.901
4.28 166.318 77.328
4.29 167.273 77.871
4.30 168.699 78.082
4.31 170.438 77.839
4.32 171.262 77.403
4.33 172.562 77.002
4.34 174.696 76.796
4.35 176.107 76.935
4.36 176.949 77.268
4.37 177.253 77.483
4.38 176.947 77.433
4.39 175.492 76.949
4.40 173.842 75.482
4.41 170.204 72.213
4.42 166.216 66.942
4.43 171.682 60.983
4.44 174.243 57.661
4.45 174.376 58.995
4.46 --undefined-- 65.024
4.47 --undefined-- 69.419
4.48 --undefined-- 71.429
4.49 --undefined-- 71.264
4.50 --undefined-- 69.029
4.51 --undefined-- 67.778
4.52 189.394 72.228
4.53 183.202 75.763
4.54 177.323 76.609
4.55 174.441 76.208
4.56 170.820 76.181
4.57 169.094 76.420
4.58 168.576 76.566
4.59 167.674 76.911
4.60 167.423 77.506
4.61 168.168 78.005
4.62 167.957 78.269
4.63 165.508 78.398
4.64 164.642 78.466
4.65 166.202 78.356
4.66 169.324 77.892
4.67 174.964 77.213
4.68 179.373 76.800
4.69 177.409 76.620
4.70 173.997 76.405
4.71 170.115 76.233
4.72 165.506 75.907
4.73 158.601 74.742
4.74 155.281 72.308
4.75 152.211 68.629
4.76 159.165 64.121
4.77 168.533 60.469
4.78 169.716 59.057
4.79 169.175 58.835
4.80 --undefined-- 58.968
4.81 --undefined-- 59.055
4.82 --undefined-- 58.988
4.83 --undefined-- 59.009
4.84 --undefined-- 59.311
4.85 --undefined-- 59.615
4.86 --undefined-- 58.940
4.87 --undefined-- 57.757
4.88 --undefined-- 57.041
4.89 --undefined-- 56.624
4.90 --undefined-- 56.081
4.91 --undefined-- 55.352
4.92 --undefined-- 54.623
4.93 --undefined-- 53.856
4.94 --undefined-- 53.411
4.95 --undefined-- 52.344
4.96 --undefined-- 49.593
4.97 --undefined-- 45.851
4.98 --undefined-- 44.178
4.99 --undefined-- 46.370
5.00 --undefined-- 48.761
5.01 --undefined-- 49.786
5.02 --undefined-- 52.998
5.03 --undefined-- 57.971
5.04 --undefined-- 62.199
5.05 --undefined-- 67.670
5.06 155.930 73.273
5.07 154.648 76.054
5.08 129.846 76.301
5.09 123.385 --undefined--
5.10 122.107 --undefined--
5.11 --undefined-- --undefined--
5.12 --undefined-- --undefined--
