Time Pitch Intensity
0.01 --undefined-- --undefined--
0.02 174.337 --undefined--
0.03 179.017 --undefined--
0.04 184.592 --undefined--
0.05 178.503 72.766
0.06 177.510 73.813
0.07 176.475 74.606
0.08 175.117 74.940
0.09 174.606 74.829
0.10 174.816 74.120
0.11 173.400 73.227
0.12 168.450 73.326
0.13 169.448 74.191
0.14 167.474 74.665
0.15 163.944 74.534
0.16 159.813 73.764
0.17 153.974 72.161
0.18 143.598 69.756
0.19 134.134 67.471
0.20 129.480 66.354
0.21 121.100 66.430
0.22 118.875 67.219
0.23 115.295 67.893
0.24 112.598 68.035
0.25 108.660 67.687
0.26 106.074 67.147
0.27 103.383 66.695
0.28 103.171 66.461
0.29 105.093 66.452
0.30 105.154 66.485
0.31 105.568 66.422
0.32 106.584 66.117
0.33 108.139 65.257
0.34 105.465 63.441
0.35 102.637 59.994
0.36 --undefined-- 54.231
0.37 --undefined-- 48.018
0.38 --undefined-- 46.653
0.39 --undefined-- 46.812
0.40 --undefined-- 47.996
0.41 --undefined-- 52.350
0.42 --undefined-- 61.709
0.43 180.491 68.830
0.44 174.132 72.756
0.45 164.362 74.435
0.46 160.099 74.564
0.47 151.038 73.287
0.48 --undefined-- 71.344
0.49 --undefined-- 68.812
0.50 --undefined-- 65.558
0.51 --undefined-- 64.201
0.52 --undefined-- 64.891
0.53 76.545 66.654
0.54 77.833 68.616
0.55 141.876 70.001
0.56 146.833 71.112
0.57 143.732 72.211
0.58 138.658 72.701
0.59 135.957 72.484
0.60 134.613 72.266
0.61 133.732 72.288
0.62 132.135 72.531
0.63 130.831 72.876
0.64 129.818 72.843
0.65 129.557 72.252
0.66 128.687 71.784
0.67 128.670 71.998
0.68 130.606 72.341
0.69 129.430 72.235
0.70 128.581 71.768
0.71 127.193 71.233
0.72 127.226 70.603
0.73 127.439 69.608
0.74 127.370 68.115
0.75 124.284 66.237
0.76 120.166 64.216
0.77 --undefined-- 62.211
0.78 --undefined-- 59.357
0.79 --undefined-- 55.363
0.80 --undefined-- 52.031
0.81 --undefined-- 48.662
0.82 --undefined-- 44.283
0.83 --undefined-- 38.731
0.84 --undefined-- 35.188
0.85 --undefined-- 36.464
0.86 --undefined-- 38.139
0.87 --undefined-- 37.617
0.88 --undefined-- 35.345
0.89 --undefined-- 33.600
0.90 --undefined-- 33.409
0.91 --undefined-- 34.291
0.92 --undefined-- 35.128
0.93 --undefined-- 37.067
0.94 --undefined-- 38.965
0.95 --undefined-- 38.888
0.96 --undefined-- 37.111
0.97 --undefined-- 35.721
0.98 --undefined-- 35.542
0.99 --undefined-- 34.991
1.00 --undefined-- 35.156
1.01 --undefined-- 36.264
1.02 --undefined-- 37.544
1.03 --undefined-- 38.321
1.04 --undefined-- 37.404
1.05 --undefined-- 36.129
1.06 --undefined-- 37.311
1.07 --undefined-- 38.008
1.08 --undefined-- 38.075
1.09 --undefined-- 38.373
1.10 --undefined-- 37.880
1.11 --undefined-- 37.298
1.12 --undefined-- 38.528
1.13 --undefined-- 40.461
1.14 --undefined-- 41.672
1.15 --undefined-- 41.650
1.16 --undefined-- 40.955
1.17 --undefined-- 40.629
1.18 --undefined-- 41.037
1.19 --undefined-- 41.545
1.20 --undefined-- 41.829
1.21 --undefined-- 41.764
1.22 --undefined-- 41.419
1.23 --undefined-- 41.445
1.24 --undefined-- 41.225
1.25 --undefined-- 39.911
1.26 --undefined-- 38.497
1.27 --undefined-- 37.949
1.28 --undefined-- 37.411
1.29 --undefined-- 36.139
1.30 --undefined-- 34.356
1.31 --undefined-- 36.768
1.32 --undefined-- 41.939
1.33 --undefined-- 44.453
1.34 --undefined-- 43.320
1.35 --undefined-- 39.043
1.36 --undefined-- 39.960
1.37 --undefined-- 48.021
1.38 --undefined-- 54.568
1.39 --undefined-- 57.347
1.40 --undefined-- 56.717
1.41 --undefined-- 57.434
1.42 --undefined-- 65.071
1.43 175.982 70.907
1.44 168.113 73.837
1.45 158.848 74.842
1.46 157.914 74.967
1.47 160.918 74.871
1.48 163.853 75.235
1.49 162.763 75.943
1.50 160.679 76.072
1.51 156.984 75.011
1.52 147.909 72.600
1.53 135.853 68.821
1.54 126.531 63.617
1.55 --undefined-- 58.583
1.56 --undefined-- 57.139
1.57 --undefined-- 62.736
1.58 194.985 69.818
1.59 189.645 74.420
1.60 185.504 76.811
1.61 180.908 77.786
1.62 179.864 78.304
1.63 179.134 78.715
1.64 179.182 78.733
1.65 180.051 78.533
1.66 180.089 78.177
1.67 179.034 77.205
1.68 176.220 75.145
1.69 168.205 72.117
1.70 141.068 69.022
1.71 --undefined-- 65.718
1.72 --undefined-- 61.158
1.73 --undefined-- 58.214
1.74 --undefined-- 57.265
1.75 --undefined-- 54.518
1.76 --undefined-- 49.852
1.77 --undefined-- 43.620
1.78 --undefined-- 39.970
1.79 --undefined-- 39.635
1.80 --undefined-- 38.596
1.81 --undefined-- 38.084
1.82 --undefined-- 38.833
1.83 --undefined-- 39.613
1.84 --undefined-- 39.125
1.85 --undefined-- 37.087
1.86 --undefined-- 35.524
1.87 --undefined-- 36.153
1.88 --undefined-- 37.614
1.89 --undefined-- 39.433
1.90 --undefined-- 40.174
1.91 --undefined-- 39.620
1.92 --undefined-- 37.401
1.93 --undefined-- 35.366
1.94 --undefined-- 35.087
1.95 --undefined-- 36.047
1.96 --undefined-- 38.730
1.97 --undefined-- 39.822
1.98 --undefined-- 38.455
1.99 --undefined-- 38.482
2.00 --undefined-- 50.049
2.01 --undefined-- 58.752
2.02 --undefined-- 64.031
2.03 --undefined-- 67.332
2.04 147.578 69.759
2.05 146.278 71.738
2.06 148.606 73.177
2.07 150.270 74.214
2.08 152.244 74.989
2.09 156.546 75.437
2.10 160.088 75.265
2.11 163.088 74.034
2.12 156.169 71.469
2.13 147.025 67.808
2.14 137.253 63.688
2.15 --undefined-- 62.226
2.16 --undefined-- 67.182
2.17 209.153 72.648
2.18 208.373 76.747
2.19 214.552 79.482
2.20 221.654 81.204
2.21 227.879 82.187
2.22 234.379 82.314
2.23 239.661 81.382
2.24 240.470 79.310
2.25 237.158 75.644
2.26 232.922 69.426
2.27 237.986 60.283
2.28 --undefined-- 53.542
2.29 --undefined-- 55.725
2.30 --undefined-- 62.817
2.31 222.007 69.748
2.32 204.939 73.871
2.33 190.945 75.431
2.34 177.079 75.398
2.35 166.239 75.065
2.36 159.699 75.156
2.37 155.465 75.688
2.38 153.086 76.277
2.39 150.729 76.464
2.40 148.792 75.893
2.41 146.067 73.996
2.42 135.425 70.183
2.43 129.560 64.207
2.44 --undefined-- 56.382
2.45 --undefined-- 48.911
2.46 --undefined-- 45.605
2.47 --undefined-- 45.386
2.48 --undefined-- 48.412
2.49 --undefined-- 52.602
2.50 --undefined-- 55.456
2.51 --undefined-- 62.430
2.52 227.450 69.838
2.53 215.910 74.161
2.54 202.773 76.119
2.55 197.419 76.706
2.56 194.673 76.520
2.57 194.125 76.326
2.58 194.010 76.451
2.59 193.862 76.320
2.60 193.861 75.923
2.61 195.193 75.394
2.62 196.814 74.656
2.63 198.345 73.884
2.64 200.360 73.423
2.65 202.846 73.339
2.66 203.873 73.466
2.67 200.938 73.725
2.68 196.009 74.153
2.69 192.176 74.406
2.70 187.032 74.402
2.71 181.705 74.285
2.72 174.344 74.187
2.73 165.965 74.223
2.74 156.201 74.261
2.75 149.194 74.257
2.76 143.283 74.220
2.77 138.697 74.079
2.78 138.254 73.673
2.79 138.171 72.481
2.80 133.382 69.748
2.81 115.722 65.036
2.82 116.026 60.563
2.83 149.357 64.944
2.84 149.253 71.065
2.85 151.457 74.904
2.86 146.244 76.833
2.87 143.514 77.617
2.88 140.801 77.373
2.89 134.339 76.023
2.90 130.762 73.616
2.91 125.605 69.609
2.92 112.333 63.305
2.93 --undefined-- 55.136
2.94 --undefined-- 48.794
2.95 --undefined-- 46.849
2.96 --undefined-- 47.164
2.97 --undefined-- 52.103
2.98 --undefined-- 60.480
2.99 --undefined-- 66.307
3.00 137.260 68.736
3.01 115.780 68.623
3.02 105.933 67.638
3.03 102.026 67.512
3.04 104.970 68.055
3.05 109.657 68.469
3.06 110.574 68.725
3.07 110.472 68.896
3.08 109.595 68.829
3.09 108.382 68.319
3.10 107.992 67.006
3.11 106.076 64.171
3.12 99.153 59.111
3.13 --undefined-- 52.126
3.14 --undefined-- 45.093
3.15 --undefined-- 43.916
3.16 --undefined-- 52.251
3.17 --undefined-- 60.142
3.18 154.485 66.224
3.19 135.713 70.099
3.20 130.657 72.158
3.21 129.092 73.267
3.22 131.466 74.349
3.23 136.741 75.426
3.24 136.773 75.973
3.25 141.740 75.871
3.26 151.706 75.369
3.27 154.649 74.563
3.28 157.327 73.225
3.29 156.309 70.923
3.30 151.657 67.213
3.31 146.373 62.002
3.32 146.744 56.291
3.33 --undefined-- 53.360
3.34 --undefined-- 56.502
3.35 --undefined-- 64.614
3.36 --undefined-- 70.605
3.37 158.177 73.354
3.38 142.191 73.744
3.39 125.948 73.065
3.40 123.205 72.175
3.41 119.697 71.408
3.42 117.145 70.811
3.43 114.398 70.143
3.44 114.003 69.411
3.45 113.457 68.857
3.46 113.842 68.896
3.47 115.951 69.619
3.48 115.844 70.127
3.49 115.758 70.156
3.50 115.460 70.000
3.51 115.691 69.571
3.52 114.649 68.394
3.53 111.931 65.678
3.54 98.993 60.683
3.55 --undefined-- 53.394
3.56 --undefined-- 46.564
3.57 --undefined-- 45.792
3.58 --undefined-- 50.389
3.59 --undefined-- 59.763
3.60 --undefined-- 67.154
3.61 179.173 71.208
3.62 170.752 72.731
3.63 165.391 72.754
3.64 164.464 72.382
3.65 167.776 72.380
3.66 170.385 72.939
3.67 172.163 73.775
3.68 171.696 74.274
3.69 171.380 74.131
3.70 171.526 73.570
3.71 172.245 72.973
3.72 172.222 72.244
3.73 170.758 71.129
3.74 167.162 69.648
3.75 84.694 68.307
3.76 82.374 67.389
3.77 79.863 65.860
3.78 --undefined-- 62.734
3.79 --undefined-- 57.583
3.80 --undefined-- 51.267
3.81 --undefined-- 45.709
3.82 --undefined-- 40.786
3.83 --undefined-- 38.608
3.84 --undefined-- 37.317
3.85 --undefined-- 37.029
3.86 --undefined-- 37.227
3.87 --undefined-- 36.763
3.88 --undefined-- 35.886
3.89 --undefined-- 35.182
3.90 --undefined-- 36.815
3.91 --undefined-- 38.154
3.92 --undefined-- 37.221
3.93 --undefined-- 36.025
3.94 --undefined-- 35.443
3.95 --undefined-- 34.662
3.96 --undefined-- 35.229
3.97 --undefined-- 35.815
3.98 --undefined-- 38.676
3.99 --undefined-- 41.551
4.00 --undefined-- 41.797
4.01 --undefined-- 40.095
4.02 --undefined-- 37.177
4.03 --undefined-- 33.181
4.04 --undefined-- 32.372
4.05 --undefined-- 34.814
4.06 --undefined-- 37.654
4.07 --undefined-- 47.089
4.08 --undefined-- 58.212
4.09 --undefined-- 65.782
4.10 144.604 70.163
4.11 136.426 72.144
4.12 130.518 72.526
4.13 127.630 72.153
4.14 126.453 71.933
4.15 126.311 72.223
4.16 128.086 72.710
4.17 128.817 72.894
4.18 129.544 72.544
4.19 130.274 71.998
4.20 129.232 71.771
4.21 124.185 71.912
4.22 123.722 71.885
4.23 124.008 71.359
4.24 124.291 69.918
4.25 118.913 66.751
4.26 112.266 61.929
4.27 114.923 57.346
4.28 122.838 55.142
4.29 125.737 56.416
4.30 130.323 61.179
4.31 131.790 66.164
4.32 125.621 69.075
4.33 121.602 70.299
4.34 120.471 70.930
4.35 120.734 71.349
4.36 121.191 71.355
4.37 122.495 71.212
4.38 122.810 70.907
4.39 120.236 69.724
4.40 115.390 67.068
4.41 112.586 62.669
4.42 --undefined-- 56.888
4.43 --undefined-- 51.170
4.44 --undefined-- 48.754
4.45 --undefined-- 53.140
4.46 --undefined-- 62.007
4.47 162.067 68.055
4.48 136.089 71.225
4.49 132.458 72.490
4.50 128.493 72.790
4.51 126.980 72.824
4.52 126.334 72.751
4.53 126.046 72.396
4.54 126.273 71.819
4.55 126.570 71.096
4.56 123.911 70.646
4.57 126.266 71.146
4.58 127.300 71.747
4.59 126.164 71.864
4.60 126.409 71.838
4.61 127.246 71.815
4.62 128.367 71.665
4.63 128.158 71.151
4.64 126.081 69.999
4.65 127.958 68.072
4.66 263.758 64.765
4.67 274.699 59.643
4.68 --undefined-- 53.333
4.69 --undefined-- 47.018
4.70 --undefined-- 42.627
4.71 --undefined-- 39.975
4.72 --undefined-- 39.277
4.73 --undefined-- 40.123
4.74 --undefined-- 41.336
4.75 --undefined-- 41.580
4.76 --undefined-- 42.984
4.77 --undefined-- 47.813
4.78 --undefined-- 51.435
4.79 --undefined-- 52.474
4.80 --undefined-- 52.197
4.81 --undefined-- 52.962
4.82 --undefined-- 54.927
4.83 --undefined-- 57.552
4.84 --undefined-- 62.033
4.85 147.547 66.260
4.86 135.285 68.404
4.87 127.300 69.145
4.88 125.498 69.541
4.89 126.260 70.079
4.90 125.704 70.846
4.91 126.090 71.276
4.92 127.487 70.395
4.93 121.509 67.457
4.94 112.112 62.626
4.95 107.174 57.041
4.96 --undefined-- 51.193
4.97 --undefined-- 46.789
4.98 --undefined-- 49.225
4.99 --undefined-- 59.548
5.00 179.327 67.925
5.01 165.781 72.839
5.02 143.760 75.294
5.03 141.770 76.129
5.04 135.824 75.612
5.05 130.683 74.086
5.06 123.110 73.031
5.07 122.797 73.882
5.08 126.991 75.156
5.09 128.317 75.711
5.10 129.415 75.623
5.11 130.435 75.280
5.12 130.966 74.828
5.13 128.621 73.874
5.14 121.701 71.779
5.15 114.315 68.243
5.16 111.423 62.963
5.17 --undefined-- 56.036
5.18 --undefined-- 49.805
5.19 --undefined-- 48.031
5.20 --undefined-- 47.264
5.21 --undefined-- 46.648
5.22 --undefined-- 51.592
5.23 --undefined-- 59.635
5.24 --undefined-- 64.798
5.25 122.483 67.494
5.26 118.839 68.651
5.27 115.014 69.048
5.28 114.476 69.268
5.29 117.668 69.705
5.30 121.743 70.386
5.31 125.982 70.998
5.32 132.600 71.447
5.33 137.213 72.076
5.34 138.319 72.947
5.35 137.985 73.399
5.36 138.475 72.964
5.37 140.323 72.417
5.38 146.275 72.628
5.39 152.420 73.008
5.40 155.180 73.203
5.41 156.267 74.022
5.42 161.157 74.973
5.43 153.760 74.874
5.44 152.655 73.929
5.45 150.516 72.931
5.46 149.170 71.767
5.47 147.496 69.118
5.48 141.043 63.903
5.49 --undefined-- 55.869
5.50 --undefined-- 48.145
5.51 --undefined-- 44.940
5.52 --undefined-- 43.842
5.53 --undefined-- 47.080
5.54 --undefined-- 55.957
5.55 --undefined-- 64.272
5.56 145.435 69.151
5.57 124.540 70.907
5.58 122.016 71.014
5.59 118.991 71.247
5.60 117.232 71.670
5.61 114.388 71.361
5.62 113.713 70.420
5.63 117.532 69.673
5.64 123.419 69.417
5.65 130.826 69.583
5.66 133.500 69.693
5.67 135.280 69.190
5.68 135.924 67.071
5.69 126.863 62.444
5.70 --undefined-- 55.034
5.71 --undefined-- 46.747
5.72 --undefined-- 49.273
5.73 --undefined-- 55.489
5.74 --undefined-- 58.866
5.75 --undefined-- 59.804
5.76 --undefined-- 59.022
5.77 --undefined-- 58.085
5.78 --undefined-- 58.820
5.79 169.714 62.476
5.80 172.813 67.245
5.81 170.795 69.475
5.82 150.722 68.836
5.83 148.354 65.785
5.84 137.504 61.020
5.85 --undefined-- 55.027
5.86 --undefined-- 51.321
5.87 --undefined-- 51.648
5.88 --undefined-- 50.837
5.89 --undefined-- 49.150
5.90 --undefined-- 48.049
5.91 --undefined-- 48.172
5.92 --undefined-- 48.656
5.93 --undefined-- 48.679
5.94 --undefined-- 51.916
5.95 --undefined-- 60.838
5.96 150.909 66.908
5.97 136.186 69.715
5.98 128.131 69.934
5.99 120.422 68.586
6.00 109.960 66.536
6.01 101.747 64.346
6.02 97.479 --undefined--
6.03 98.122 --undefined--
6.04 --undefined-- --undefined--
6.05 --undefined-- --undefined--
