Time Pitch Intensity
0.01 --undefined-- --undefined--
0.02 183.029 --undefined--
0.03 181.847 --undefined--
0.04 182.556 --undefined--
0.05 183.433 70.308
0.06 185.011 69.371
0.07 188.971 67.571
0.08 191.293 65.335
0.09 189.017 62.346
0.10 186.720 58.094
0.11 189.683 55.642
0.12 189.759 55.084
0.13 187.613 53.088
0.14 --undefined-- 51.079
0.15 --undefined-- 50.138
0.16 --undefined-- 49.942
0.17 --undefined-- 51.994
0.18 --undefined-- 52.557
0.19 --undefined-- 51.743
0.20 260.441 54.769
0.21 248.754 60.290
0.22 244.930 64.204
0.23 241.366 66.721
0.24 242.188 68.402
0.25 243.215 69.374
0.26 244.520 69.668
0.27 244.759 69.464
0.28 244.161 69.357
0.29 244.393 69.746
0.30 242.866 70.559
0.31 240.096 71.856
0.32 237.845 73.388
0.33 237.458 74.428
0.34 240.043 74.383
0.35 243.046 73.075
0.36 242.090 71.248
0.37 236.670 70.293
0.38 231.414 69.797
0.39 228.302 67.887
0.40 229.952 63.944
0.41 237.884 59.194
0.42 232.894 54.898
0.43 235.457 50.559
0.44 --undefined-- 46.780
0.45 --undefined-- 46.843
0.46 --undefined-- 50.457
0.47 248.851 54.200
0.48 248.806 56.091
0.49 249.817 55.691
0.50 291.887 54.553
0.51 290.489 54.179
0.52 287.787 55.162
0.53 289.762 55.667
0.54 268.983 53.845
0.55 289.571 51.933
0.56 287.861 53.991
0.57 287.948 55.514
0.58 287.792 55.330
0.59 --undefined-- 55.609
0.60 --undefined-- 55.379
0.61 --undefined-- 53.027
0.62 --undefined-- 51.409
0.63 --undefined-- 52.345
0.64 --undefined-- 54.777
0.65 --undefined-- 58.029
0.66 --undefined-- 58.520
0.67 --undefined-- 55.555
0.68 --undefined-- 51.981
0.69 271.774 54.739
0.70 270.760 58.234
0.71 237.144 62.866
0.72 232.201 66.727
0.73 229.538 68.692
0.74 229.921 69.466
0.75 230.895 69.508
0.76 231.003 68.972
0.77 230.351 68.103
0.78 230.154 67.246
0.79 231.757 66.948
0.80 232.265 66.819
0.81 231.892 66.426
0.82 232.315 65.801
0.83 233.156 65.274
0.84 234.935 64.900
0.85 236.071 64.648
0.86 236.190 64.608
0.87 236.122 64.697
0.88 234.268 64.437
0.89 232.526 63.421
0.90 227.348 61.484
0.91 218.577 59.060
0.92 --undefined-- 56.938
0.93 --undefined-- 54.302
0.94 --undefined-- 52.622
0.95 --undefined-- 51.409
0.96 --undefined-- 50.313
0.97 --undefined-- 56.117
0.98 208.616 61.694
0.99 207.093 64.755
1.00 209.628 65.701
1.01 224.424 65.309
1.02 228.173 64.650
1.03 244.170 64.061
1.04 253.777 63.762
1.05 263.782 63.765
1.06 267.933 63.265
1.07 275.351 62.128
1.08 281.524 60.374
1.09 286.270 57.435
1.10 287.844 53.211
1.11 --undefined-- 49.403
1.12 --undefined-- 48.709
1.13 --undefined-- 49.393
1.14 --undefined-- 49.025
1.15 --undefined-- 49.586
1.16 --undefined-- 51.466
1.17 --undefined-- 50.644
1.18 --undefined-- 47.496
1.19 --undefined-- 47.656
1.20 --undefined-- 53.530
1.21 --undefined-- 58.432
1.22 --undefined-- 60.817
1.23 --undefined-- 61.027
1.24 144.476 59.339
1.25 143.607 57.091
1.26 148.382 56.452
1.27 149.245 56.955
1.28 150.442 57.430
1.29 151.233 57.807
1.30 152.161 57.838
1.31 153.918 57.869
1.32 155.186 57.909
1.33 155.624 57.839
1.34 157.734 58.419
1.35 157.130 59.418
1.36 155.604 59.668
1.37 156.238 59.473
1.38 155.871 59.700
1.39 156.253 59.214
1.40 151.542 57.745
1.41 150.596 55.868
1.42 155.569 53.768
1.43 --undefined-- 54.424
1.44 --undefined-- 55.971
1.45 --undefined-- 57.636
1.46 --undefined-- 61.724
1.47 --undefined-- 64.504
1.48 179.365 65.347
1.49 175.073 65.427
1.50 172.607 65.238
1.51 170.297 65.009
1.52 168.815 64.628
1.53 167.188 63.973
1.54 167.205 63.563
1.55 167.631 63.641
1.56 168.812 63.460
1.57 170.298 62.694
1.58 171.422 61.936
1.59 172.289 61.497
1.60 174.297 61.500
1.61 175.822 61.839
1.62 175.519 61.676
1.63 175.629 60.580
1.64 176.329 58.815
1.65 178.073 56.862
1.66 --undefined-- 56.006
1.67 --undefined-- 56.306
1.68 --undefined-- 56.767
1.69 --undefined-- 57.407
1.70 --undefined-- 58.146
1.71 --undefined-- 59.030
1.72 --undefined-- 59.108
1.73 --undefined-- 57.759
1.74 235.715 58.053
1.75 227.492 60.841
1.76 223.837 62.877
1.77 224.534 64.095
1.78 226.348 64.841
1.79 229.101 65.285
1.80 231.557 65.252
1.81 233.362 64.860
1.82 235.430 64.799
1.83 237.119 65.109
1.84 237.976 65.068
1.85 238.003 64.590
1.86 235.337 64.179
1.87 232.482 64.045
1.88 228.944 63.853
1.89 223.593 63.353
1.90 217.371 62.929
1.91 210.258 63.163
1.92 195.843 64.714
1.93 180.588 67.040
1.94 170.532 68.316
1.95 158.129 68.387
1.96 155.118 68.033
1.97 155.349 67.237
1.98 154.811 65.508
1.99 154.071 62.464
2.00 154.854 58.297
2.01 154.954 54.704
2.02 155.117 52.545
2.03 153.718 50.448
2.04 --undefined-- 49.049
2.05 --undefined-- 48.321
2.06 --undefined-- 47.868
2.07 --undefined-- 48.157
2.08 --undefined-- 48.575
2.09 --undefined-- 47.666
2.10 --undefined-- 46.356
2.11 --undefined-- 47.414
2.12 --undefined-- 48.294
2.13 --undefined-- 48.818
2.14 --undefined-- 49.365
2.15 --undefined-- 50.512
2.16 --undefined-- 52.795
2.17 --undefined-- 56.440
2.18 188.611 59.684
2.19 184.312 62.278
2.20 182.225 64.117
2.21 181.639 65.247
2.22 181.293 66.134
2.23 181.748 66.768
2.24 181.752 66.959
2.25 179.931 66.818
2.26 177.642 66.627
2.27 176.206 66.560
2.28 176.312 66.305
2.29 177.691 65.603
2.30 175.677 64.170
2.31 170.773 61.253
2.32 --undefined-- 56.961
2.33 --undefined-- 53.992
2.34 --undefined-- 53.193
2.35 --undefined-- 54.339
2.36 --undefined-- 56.841
2.37 --undefined-- 60.033
2.38 196.426 63.635
2.39 180.431 66.393
2.40 177.409 68.048
2.41 176.713 68.887
2.42 176.799 69.363
2.43 176.898 69.788
2.44 176.923 70.356
2.45 176.016 71.085
2.46 175.068 71.784
2.47 174.693 72.276
2.48 174.134 72.575
2.49 172.985 72.803
2.50 171.500 72.935
2.51 169.943 72.659
2.52 167.960 71.651
2.53 161.296 69.878
2.54 155.894 67.353
2.55 --undefined-- 64.020
2.56 --undefined-- 60.423
2.57 --undefined-- 57.050
2.58 --undefined-- 53.955
2.59 --undefined-- 50.708
2.60 --undefined-- 48.159
2.61 --undefined-- 48.650
2.62 --undefined-- 48.475
2.63 --undefined-- 47.305
2.64 --undefined-- 49.115
2.65 --undefined-- 51.381
2.66 --undefined-- 52.326
2.67 --undefined-- 51.623
2.68 --undefined-- 51.175
2.69 --undefined-- 52.106
2.70 --undefined-- 52.894
2.71 --undefined-- 52.573
2.72 --undefined-- 52.027
2.73 --undefined-- 52.028
2.74 --undefined-- 51.836
2.75 --undefined-- 51.766
2.76 --undefined-- 52.928
2.77 --undefined-- 52.606
2.78 --undefined-- 50.614
2.79 --undefined-- 50.183
2.80 --undefined-- 50.098
2.81 --undefined-- 50.332
2.82 --undefined-- 53.519
2.83 --undefined-- 56.265
2.84 --undefined-- 57.142
2.85 --undefined-- 57.579
2.86 282.778 56.820
2.87 284.509 54.548
2.88 289.792 52.735
2.89 289.195 52.189
2.90 284.055 56.238
2.91 243.878 59.734
2.92 289.117 59.801
2.93 285.509 56.345
2.94 --undefined-- 50.437
2.95 --undefined-- 47.606
2.96 --undefined-- 48.500
2.97 --undefined-- 51.006
2.98 --undefined-- 53.303
2.99 --undefined-- 53.209
3.00 --undefined-- 51.020
3.01 --undefined-- 49.492
3.02 --undefined-- 49.686
3.03 --undefined-- 51.681
3.04 291.203 54.761
3.05 290.688 56.160
3.06 290.664 54.676
3.07 --undefined-- 51.050
3.08 --undefined-- 49.177
3.09 --undefined-- 47.872
3.10 --undefined-- 45.922
3.11 --undefined-- 47.837
3.12 --undefined-- 54.626
3.13 268.956 60.000
3.14 246.595 62.874
3.15 238.956 64.442
3.16 244.479 65.812
3.17 250.196 66.907
3.18 255.006 67.515
3.19 256.476 67.142
3.20 250.742 64.982
3.21 238.900 60.673
3.22 256.390 54.986
3.23 269.407 51.496
3.24 274.349 52.180
3.25 274.859 52.238
3.26 --undefined-- 50.845
3.27 --undefined-- 50.709
3.28 --undefined-- 51.631
3.29 --undefined-- 56.902
3.30 --undefined-- 62.914
3.31 244.736 66.480
3.32 235.851 67.910
3.33 222.150 68.224
3.34 213.938 68.220
3.35 206.199 67.927
3.36 202.318 67.408
3.37 202.107 67.162
3.38 204.151 67.015
3.39 205.382 66.588
3.40 207.282 65.957
3.41 209.115 65.223
3.42 210.302 64.392
3.43 210.691 63.697
3.44 208.421 62.324
3.45 197.221 59.074
3.46 208.816 53.896
3.47 208.680 49.907
3.48 209.673 52.738
3.49 --undefined-- 56.255
3.50 --undefined-- 57.831
3.51 --undefined-- 58.477
3.52 243.691 62.304
3.53 215.548 66.348
3.54 209.091 68.615
3.55 202.810 69.714
3.56 199.527 70.162
3.57 198.835 70.223
3.58 199.774 70.122
3.59 201.963 70.174
3.60 205.185 70.513
3.61 207.891 70.375
3.62 211.124 69.353
3.63 211.764 67.883
3.64 210.625 65.530
3.65 210.854 61.734
3.66 212.021 57.116
3.67 --undefined-- 52.105
3.68 --undefined-- 49.699
3.69 --undefined-- 53.066
3.70 --undefined-- 55.450
3.71 --undefined-- 55.295
3.72 --undefined-- 52.848
3.73 --undefined-- 50.353
3.74 --undefined-- 51.252
3.75 239.820 55.137
3.76 254.481 60.299
3.77 257.190 63.719
3.78 251.043 65.396
3.79 249.802 66.401
3.80 254.874 67.352
3.81 255.785 68.293
3.82 254.870 69.190
3.83 255.060 69.864
3.84 256.927 69.932
3.85 261.362 69.062
3.86 265.575 67.497
3.87 265.282 66.291
3.88 260.939 65.561
3.89 259.624 64.817
3.90 258.288 64.461
3.91 255.105 64.549
3.92 251.687 64.930
3.93 248.236 65.131
3.94 243.940 65.026
3.95 237.824 65.020
3.96 231.420 64.930
3.97 224.034 64.483
3.98 211.906 63.979
3.99 201.895 64.233
4.00 193.223 65.364
4.01 187.810 66.617
4.02 185.243 67.640
4.03 183.556 68.504
4.04 182.310 69.304
4.05 182.210 70.283
4.06 181.715 71.275
4.07 180.643 71.935
4.08 179.384 72.256
4.09 179.004 72.179
4.10 178.786 71.723
4.11 180.190 71.046
4.12 182.448 70.178
4.13 183.881 69.429
4.14 184.667 69.225
4.15 185.719 69.333
4.16 186.404 69.494
4.17 186.244 69.173
4.18 185.628 67.048
4.19 186.336 62.579
4.20 185.540 57.109
4.21 186.442 54.205
4.22 186.813 54.432
4.23 186.646 55.280
4.24 --undefined-- 57.401
4.25 --undefined-- 59.642
4.26 275.710 61.625
4.27 253.375 63.389
4.28 249.933 64.341
4.29 248.662 64.722
4.30 249.284 64.931
4.31 250.306 65.067
4.32 250.719 65.370
4.33 252.701 65.809
4.34 256.808 65.924
4.35 256.977 65.663
4.36 254.525 65.548
4.37 254.342 65.995
4.38 253.704 66.310
4.39 253.062 66.275
4.40 252.875 66.236
4.41 252.701 66.210
4.42 253.190 65.939
4.43 256.248 65.373
4.44 259.301 64.846
4.45 260.227 64.781
4.46 259.879 65.355
4.47 258.662 66.137
4.48 257.391 66.722
4.49 255.283 66.965
4.50 252.533 66.851
4.51 248.873 66.861
4.52 246.324 67.215
4.53 243.062 67.414
4.54 239.913 67.449
4.55 234.294 67.100
4.56 229.746 66.355
4.57 219.409 65.993
4.58 204.358 66.215
4.59 197.271 66.524
4.60 191.302 66.911
4.61 188.267 67.551
4.62 184.135 68.321
4.63 184.876 68.791
4.64 183.109 68.542
4.65 175.867 68.076
4.66 166.491 68.205
4.67 167.913 68.972
4.68 169.535 69.761
4.69 171.964 70.019
4.70 175.924 69.805
4.71 181.421 69.417
4.72 188.232 68.904
4.73 195.566 68.102
4.74 201.218 67.153
4.75 206.156 65.860
4.76 209.716 63.846
4.77 208.977 62.286
4.78 210.000 61.546
4.79 209.185 60.558
4.80 206.207 59.936
4.81 202.376 59.780
4.82 197.634 60.614
4.83 196.789 63.127
4.84 195.434 65.619
4.85 190.188 67.412
4.86 184.980 69.079
4.87 177.070 70.864
4.88 171.753 72.028
4.89 166.347 72.048
4.90 160.474 71.089
4.91 155.077 69.845
4.92 154.086 68.570
4.93 153.973 66.829
4.94 153.524 65.466
4.95 153.798 65.308
4.96 154.981 65.493
4.97 156.809 66.009
4.98 158.605 --undefined--
4.99 162.350 --undefined--
5.00 --undefined-- --undefined--
5.01 --undefined-- --undefined--
