Time Pitch Intensity
0.01 --undefined-- --undefined--
0.02 100.069 --undefined--
0.03 98.206 --undefined--
0.04 98.953 --undefined--
0.05 99.396 66.725
0.06 99.377 66.542
0.07 99.857 66.109
0.08 100.118 65.656
0.09 99.839 64.813
0.10 100.000 63.262
0.11 100.956 61.174
0.12 101.591 58.994
0.13 101.164 56.551
0.14 100.757 53.946
0.15 --undefined-- 51.714
0.16 --undefined-- 49.300
0.17 --undefined-- 46.342
0.18 --undefined-- 43.343
0.19 --undefined-- 40.655
0.20 --undefined-- 39.867
0.21 --undefined-- 41.579
0.22 --undefined-- 43.026
0.23 --undefined-- 47.727
0.24 --undefined-- 55.723
0.25 --undefined-- 61.367
0.26 --undefined-- 65.017
0.27 92.301 67.259
0.28 86.584 68.303
0.29 98.084 68.297
0.30 90.613 67.214
0.31 91.534 65.285
0.32 91.394 62.530
0.33 --undefined-- 58.475
0.34 --undefined-- 53.544
0.35 --undefined-- 50.042
0.36 --undefined-- 48.547
0.37 --undefined-- 47.275
0.38 --undefined-- 46.197
0.39 --undefined-- 45.159
0.40 --undefined-- 45.300
0.41 --undefined-- 51.455
0.42 --undefined-- 57.809
0.43 --undefined-- 61.335
0.44 --undefined-- 62.449
0.45 --undefined-- 61.511
0.46 --undefined-- 58.499
0.47 --undefined-- 53.871
0.48 97.106 51.354
0.49 94.703 51.285
0.50 100.377 51.382
0.51 --undefined-- 50.619
0.52 --undefined-- 49.640
0.53 --undefined-- 51.689
0.54 --undefined-- 54.574
0.55 --undefined-- 55.876
0.56 --undefined-- 57.081
0.57 --undefined-- 58.113
0.58 --undefined-- 58.753
0.59 --undefined-- 58.729
0.60 --undefined-- 57.445
0.61 --undefined-- 55.471
0.62 --undefined-- 53.982
0.63 97.789 54.605
0.64 101.986 56.078
0.65 103.375 59.699
0.66 --undefined-- 63.838
0.67 104.792 66.209
0.68 103.403 67.151
0.69 103.144 67.565
0.70 101.974 67.611
0.71 101.145 67.067
0.72 101.569 65.788
0.73 101.739 63.829
0.74 102.119 61.130
0.75 102.421 57.358
0.76 --undefined-- 52.455
0.77 --undefined-- 47.001
0.78 --undefined-- 42.672
0.79 --undefined-- 41.488
0.80 --undefined-- 40.856
0.81 --undefined-- 39.709
0.82 --undefined-- 39.562
0.83 --undefined-- 39.773
0.84 --undefined-- 39.469
0.85 --undefined-- 39.722
0.86 --undefined-- 40.127
0.87 --undefined-- 39.032
0.88 --undefined-- 36.647
0.89 --undefined-- 36.035
0.90 --undefined-- 37.300
0.91 --undefined-- 39.407
0.92 --undefined-- 45.982
0.93 --undefined-- 51.781
0.94 --undefined-- 55.197
0.95 --undefined-- 57.220
0.96 97.240 58.827
0.97 97.392 60.250
0.98 98.166 60.691
0.99 97.702 59.482
1.00 95.876 56.421
1.01 --undefined-- 52.079
1.02 --undefined-- 49.742
1.03 --undefined-- 52.060
1.04 --undefined-- 55.600
1.05 --undefined-- 57.412
1.06 --undefined-- 57.144
1.07 --undefined-- 56.868
1.08 --undefined-- 58.355
1.09 --undefined-- 62.344
1.10 --undefined-- 66.496
1.11 --undefined-- 69.278
1.12 --undefined-- 70.413
1.13 96.079 69.819
1.14 95.398 67.921
1.15 95.048 65.275
1.16 94.906 62.466
1.17 96.652 60.919
1.18 97.039 60.402
1.19 95.885 59.051
1.20 --undefined-- 55.926
1.21 --undefined-- 50.497
1.22 --undefined-- 43.610
1.23 --undefined-- 40.142
1.24 --undefined-- 41.921
1.25 --undefined-- 52.701
1.26 --undefined-- 61.741
1.27 --undefined-- 66.877
1.28 --undefined-- 68.777
1.29 93.900 68.273
1.30 92.565 66.836
1.31 89.823 65.706
1.32 90.590 64.940
1.33 91.819 64.400
1.34 89.875 63.443
1.35 88.786 61.925
1.36 106.077 60.929
1.37 --undefined-- 60.052
1.38 --undefined-- 57.347
1.39 --undefined-- 52.213
1.40 --undefined-- 45.747
1.41 --undefined-- 40.688
1.42 --undefined-- 38.245
1.43 --undefined-- 39.358
1.44 --undefined-- 41.522
1.45 --undefined-- 44.162
1.46 --undefined-- 46.877
1.47 --undefined-- 48.278
1.48 --undefined-- 48.468
1.49 --undefined-- 48.606
1.50 --undefined-- 50.042
1.51 --undefined-- 55.745
1.52 --undefined-- 62.345
1.53 136.192 66.899
1.54 130.143 69.476
1.55 125.195 70.820
1.56 120.856 71.496
1.57 119.589 71.606
1.58 119.369 71.223
1.59 119.535 70.514
1.60 121.011 69.528
1.61 123.935 68.710
1.62 123.745 68.643
1.63 122.252 68.743
1.64 119.955 68.588
1.65 118.579 68.296
1.66 117.463 68.307
1.67 115.031 69.061
1.68 113.375 69.955
1.69 111.635 70.635
1.70 110.807 71.074
1.71 110.067 70.922
1.72 109.285 69.974
1.73 109.029 67.943
1.74 --undefined-- 64.753
1.75 --undefined-- 60.693
1.76 --undefined-- 56.505
1.77 --undefined-- 54.189
1.78 --undefined-- 53.665
1.79 --undefined-- 53.927
1.80 121.457 56.659
1.81 119.739 60.756
1.82 117.322 64.484
1.83 113.851 67.230
1.84 108.274 68.853
1.85 106.201 69.665
1.86 104.372 70.088
1.87 102.646 70.121
1.88 100.454 69.573
1.89 97.247 68.858
1.90 96.958 68.581
1.91 95.936 68.438
1.92 95.600 67.870
1.93 94.253 66.542
1.94 95.056 64.687
1.95 94.018 63.014
1.96 93.431 61.515
1.97 92.782 59.977
1.98 92.364 58.488
1.99 92.962 57.408
2.00 93.582 57.120
2.01 93.780 57.266
2.02 93.098 56.603
2.03 92.503 54.551
2.04 --undefined-- 50.880
2.05 --undefined-- 45.733
2.06 --undefined-- 41.656
2.07 --undefined-- 40.580
2.08 --undefined-- 39.535
2.09 --undefined-- 38.638
2.10 --undefined-- 38.961
2.11 --undefined-- 38.611
2.12 --undefined-- 37.101
2.13 --undefined-- 37.880
2.14 --undefined-- 40.163
2.15 --undefined-- 40.435
2.16 --undefined-- 39.891
2.17 --undefined-- 39.612
2.18 --undefined-- 38.538
2.19 --undefined-- 37.979
2.20 --undefined-- 37.580
2.21 --undefined-- 38.207
2.22 --undefined-- 39.012
2.23 --undefined-- 39.719
2.24 --undefined-- 44.019
2.25 --undefined-- 48.649
2.26 --undefined-- 52.041
2.27 --undefined-- 54.398
2.28 --undefined-- 55.751
2.29 --undefined-- 56.795
2.30 --undefined-- 58.874
2.31 --undefined-- 64.480
2.32 --undefined-- 69.904
2.33 97.243 72.877
2.34 96.631 73.515
2.35 95.382 72.077
2.36 85.790 69.768
2.37 97.922 69.751
2.38 97.831 71.292
2.39 101.690 72.308
2.40 105.334 72.722
2.41 109.661 72.913
2.42 112.169 73.045
2.43 119.221 73.165
2.44 121.151 72.953
2.45 122.098 71.665
2.46 120.978 68.600
2.47 117.803 63.361
2.48 118.657 56.588
2.49 --undefined-- 50.938
2.50 --undefined-- 49.296
2.51 --undefined-- 52.725
2.52 --undefined-- 61.010
2.53 --undefined-- 67.736
2.54 124.217 71.675
2.55 121.925 73.814
2.56 120.007 74.869
2.57 119.108 75.004
2.58 116.467 74.528
2.59 115.460 73.885
2.60 114.636 72.953
2.61 112.877 70.965
2.62 108.838 66.999
2.63 --undefined-- 60.519
2.64 --undefined-- 52.370
2.65 --undefined-- 47.398
2.66 --undefined-- 44.417
2.67 --undefined-- 40.930
2.68 --undefined-- 39.103
2.69 --undefined-- 40.469
2.70 --undefined-- 43.121
2.71 --undefined-- 47.210
2.72 --undefined-- 56.325
2.73 --undefined-- 64.072
2.74 --undefined-- 68.618
2.75 --undefined-- 70.647
2.76 --undefined-- 71.236
2.77 105.125 71.240
2.78 105.065 70.693
2.79 104.402 69.495
2.80 104.427 67.337
2.81 104.577 63.830
2.82 103.763 60.079
2.83 103.319 58.076
2.84 103.321 57.822
2.85 --undefined-- 60.868
2.86 --undefined-- 65.371
2.87 109.047 68.417
2.88 108.772 70.101
2.89 109.204 70.921
2.90 110.506 71.107
2.91 111.266 70.804
2.92 111.214 70.139
2.93 112.408 69.414
2.94 112.923 68.680
2.95 112.944 67.527
2.96 111.923 65.659
2.97 111.145 62.867
2.98 110.220 58.621
2.99 --undefined-- 52.422
3.00 --undefined-- 45.092
3.01 --undefined-- 40.389
3.02 --undefined-- 38.559
3.03 --undefined-- 37.719
3.04 --undefined-- 38.122
3.05 --undefined-- 37.832
3.06 --undefined-- 37.066
3.07 --undefined-- 37.822
3.08 --undefined-- 37.921
3.09 --undefined-- 38.154
3.10 --undefined-- 47.094
3.11 --undefined-- 59.143
3.12 --undefined-- 66.629
3.13 95.281 70.639
3.14 111.159 72.119
3.15 111.645 71.572
3.16 97.724 69.687
3.17 102.926 67.490
3.18 102.602 65.850
3.19 104.275 65.393
3.20 103.719 65.960
3.21 102.624 66.857
3.22 101.214 67.532
3.23 100.351 67.675
3.24 99.356 66.640
3.25 99.188 64.192
3.26 100.201 61.143
3.27 100.461 57.516
3.28 --undefined-- 52.125
3.29 --undefined-- 45.439
3.30 --undefined-- 44.874
3.31 --undefined-- 51.644
3.32 --undefined-- 55.188
3.33 --undefined-- 54.866
3.34 --undefined-- 53.017
3.35 --undefined-- 53.118
3.36 --undefined-- 53.074
3.37 --undefined-- 52.337
3.38 --undefined-- 54.720
3.39 --undefined-- 60.721
3.40 --undefined-- 65.328
3.41 112.075 68.374
3.42 110.093 70.526
3.43 107.968 71.908
3.44 107.179 72.375
3.45 106.347 72.078
3.46 105.217 71.507
3.47 104.422 70.835
3.48 104.347 69.811
3.49 105.157 68.503
3.50 106.287 66.823
3.51 106.676 64.513
3.52 101.213 61.605
3.53 101.694 57.740
3.54 --undefined-- 52.501
3.55 --undefined-- 46.809
3.56 --undefined-- 44.163
3.57 --undefined-- 43.120
3.58 --undefined-- 41.051
3.59 --undefined-- 39.922
3.60 --undefined-- 41.462
3.61 --undefined-- 47.312
3.62 --undefined-- 56.182
3.63 --undefined-- 62.068
3.64 --undefined-- 64.162
3.65 --undefined-- 62.497
3.66 --undefined-- 57.162
3.67 --undefined-- 48.913
3.68 --undefined-- 42.092
3.69 --undefined-- 39.022
3.70 --undefined-- 36.520
3.71 --undefined-- 37.032
3.72 --undefined-- 38.447
3.73 --undefined-- 39.718
3.74 --undefined-- 41.853
3.75 --undefined-- 44.433
3.76 --undefined-- 47.678
3.77 --undefined-- 54.397
3.78 --undefined-- 60.236
3.79 --undefined-- 63.064
3.80 121.708 63.277
3.81 122.851 62.096
3.82 125.312 61.427
3.83 126.690 61.509
3.84 128.116 61.489
3.85 128.835 61.597
3.86 128.974 62.104
3.87 128.381 63.287
3.88 127.104 64.830
3.89 123.977 65.902
3.90 120.125 66.726
3.91 116.742 67.766
3.92 114.404 68.648
3.93 109.036 68.503
3.94 107.900 67.046
3.95 103.987 64.904
3.96 101.708 62.270
3.97 --undefined-- 58.457
3.98 --undefined-- 53.199
3.99 --undefined-- 48.103
4.00 --undefined-- 45.567
4.01 --undefined-- 51.065
4.02 --undefined-- 58.739
4.03 --undefined-- 63.776
4.04 102.694 65.983
4.05 101.862 66.022
4.06 99.293 64.751
4.07 98.328 63.239
4.08 97.996 61.903
4.09 97.659 61.291
4.10 97.290 62.302
4.11 --undefined-- 63.948
4.12 93.614 64.612
4.13 96.884 64.182
4.14 100.585 63.150
4.15 --undefined-- 61.353
4.16 --undefined-- 59.613
4.17 --undefined-- 58.723
4.18 --undefined-- 56.750
4.19 --undefined-- 55.962
4.20 --undefined-- 55.397
4.21 --undefined-- 53.549
4.22 --undefined-- 50.885
4.23 --undefined-- 47.745
4.24 --undefined-- 47.253
4.25 --undefined-- 45.747
4.26 --undefined-- 42.044
4.27 --undefined-- 40.761
4.28 --undefined-- 41.752
4.29 --undefined-- 42.081
4.30 --undefined-- 42.977
4.31 --undefined-- 45.270
4.32 --undefined-- 47.482
4.33 --undefined-- 48.267
4.34 --undefined-- 48.411
4.35 --undefined-- 50.323
4.36 101.515 53.805
4.37 99.821 56.850
4.38 --undefined-- 58.371
4.39 --undefined-- 57.981
4.40 --undefined-- 56.360
4.41 --undefined-- 55.728
4.42 --undefined-- 55.147
4.43 --undefined-- 53.779
4.44 --undefined-- 52.609
4.45 --undefined-- 51.336
4.46 --undefined-- 50.050
4.47 --undefined-- 49.588
4.48 --undefined-- 50.044
4.49 --undefined-- 49.347
4.50 --undefined-- 47.976
4.51 --undefined-- 47.510
4.52 --undefined-- 46.424
4.53 --undefined-- 45.824
4.54 --undefined-- 44.862
4.55 --undefined-- 44.963
4.56 --undefined-- 45.545
4.57 --undefined-- 43.735
4.58 --undefined-- 43.019
4.59 --undefined-- 44.455
4.60 --undefined-- 44.074
4.61 --undefined-- 42.099
4.62 --undefined-- 39.669
4.63 --undefined-- 37.712
4.64 --undefined-- 36.862
4.65 --undefined-- 36.823
4.66 --undefined-- 37.591
4.67 --undefined-- 43.652
4.68 --undefined-- 54.232
4.69 --undefined-- 60.980
4.70 --undefined-- 64.576
4.71 --undefined-- 67.055
4.72 --undefined-- 68.989
4.73 --undefined-- 69.505
4.74 102.593 68.961
4.75 104.124 67.767
4.76 107.448 66.145
4.77 108.651 64.734
4.78 109.704 64.340
4.79 110.430 65.238
4.80 111.220 66.719
4.81 110.667 68.386
4.82 108.333 69.572
4.83 107.440 69.649
4.84 107.973 68.078
4.85 --undefined-- 64.630
4.86 --undefined-- 60.368
4.87 --undefined-- 56.224
4.88 --undefined-- 52.744
4.89 --undefined-- 52.336
4.90 116.785 55.432
4.91 116.564 59.781
4.92 116.018 63.437
4.93 115.342 66.285
4.94 113.685 68.220
4.95 108.698 68.989
4.96 105.718 68.716
4.97 105.556 67.836
4.98 104.721 66.772
4.99 104.123 66.110
5.00 104.169 65.771
5.01 103.479 65.310
5.02 102.781 64.865
5.03 101.225 64.543
5.04 101.001 64.202
5.05 98.944 63.965
5.06 97.364 63.943
5.07 96.535 63.897
5.08 97.498 63.609
5.09 98.515 63.101
5.10 99.083 62.319
5.11 99.412 61.429
5.12 98.138 60.950
5.13 99.551 60.778
5.14 98.293 60.505
5.15 98.832 59.640
5.16 97.827 57.834
5.17 98.119 55.658
5.18 97.578 53.691
5.19 --undefined-- 52.096
5.20 --undefined-- 49.878
5.21 --undefined-- 45.926
5.22 --undefined-- 43.709
5.23 --undefined-- 45.862
5.24 --undefined-- 48.296
5.25 --undefined-- 51.597
5.26 --undefined-- 56.827
5.27 --undefined-- 61.379
5.28 --undefined-- 63.687
5.29 86.567 64.098
5.30 86.103 63.219
5.31 85.528 61.658
5.32 85.976 60.379
5.33 88.597 59.816
5.34 90.100 59.968
5.35 88.308 60.568
5.36 88.347 60.905
5.37 89.545 61.113
5.38 89.762 61.658
5.39 88.921 62.513
5.40 --undefined-- 63.169
5.41 93.330 63.672
5.42 93.725 64.593
5.43 95.781 64.933
5.44 98.914 64.014
5.45 99.309 62.154
5.46 102.268 59.813
5.47 105.548 57.516
5.48 102.934 56.028
5.49 100.407 55.623
5.50 102.850 57.653
5.51 106.285 61.334
5.52 106.149 64.533
5.53 --undefined-- 67.109
5.54 --undefined-- 68.799
5.55 --undefined-- 68.955
5.56 87.437 67.643
5.57 88.513 66.447
5.58 88.041 66.004
5.59 89.819 65.126
5.60 90.019 63.777
5.61 91.840 63.149
5.62 94.249 63.879
5.63 96.538 64.687
5.64 96.989 --undefined--
5.65 97.635 --undefined--
5.66 --undefined-- --undefined--
5.67 --undefined-- --undefined--
