Time Pitch Intensity
0.01 --undefined-- --undefined--
0.02 --undefined-- --undefined--
0.03 --undefined-- --undefined--
0.04 --undefined-- --undefined--
0.05 --undefined-- 55.528
0.06 174.195 64.513
0.07 178.715 70.025
0.08 185.595 72.871
0.09 194.152 74.109
0.10 201.932 74.654
0.11 208.679 74.717
0.12 211.420 74.012
0.13 206.636 72.387
0.14 195.467 70.763
0.15 184.950 69.800
0.16 180.204 69.279
0.17 187.185 72.355
0.18 191.889 77.070
0.19 187.943 79.655
0.20 175.821 80.386
0.21 167.112 80.384
0.22 161.517 80.380
0.23 156.837 80.284
0.24 154.738 79.785
0.25 156.291 79.163
0.26 156.942 78.711
0.27 155.960 77.598
0.28 148.571 74.956
0.29 155.074 71.494
0.30 151.268 69.351
0.31 149.964 71.405
0.32 159.627 75.987
0.33 150.803 78.808
0.34 144.733 79.593
0.35 137.260 78.958
0.36 132.057 78.177
0.37 131.011 78.267
0.38 131.446 78.639
0.39 132.450 78.382
0.40 132.261 77.318
0.41 137.368 76.682
0.42 142.978 77.427
0.43 144.064 78.357
0.44 146.455 78.994
0.45 150.723 79.291
0.46 153.371 79.279
0.47 155.566 79.310
0.48 158.862 79.668
0.49 161.314 79.950
0.50 163.801 79.926
0.51 166.313 79.819
0.52 167.854 79.764
0.53 169.892 79.698
0.54 172.250 79.639
0.55 174.281 79.674
0.56 175.525 79.813
0.57 175.667 80.091
0.58 174.377 80.485
0.59 170.651 80.385
0.60 166.007 79.018
0.61 160.482 76.119
0.62 163.866 72.322
0.63 163.961 68.519
0.64 154.174 64.416
0.65 152.922 59.784
0.66 165.997 57.017
0.67 165.563 58.272
0.68 --undefined-- 60.750
0.69 --undefined-- 65.663
0.70 --undefined-- 72.447
0.71 151.912 76.826
0.72 150.078 78.541
0.73 142.030 78.202
0.74 134.327 76.779
0.75 129.205 75.287
0.76 124.907 73.873
0.77 123.071 72.442
0.78 123.734 71.814
0.79 124.118 71.896
0.80 124.239 71.784
0.81 124.694 71.489
0.82 125.583 71.316
0.83 127.094 71.337
0.84 128.752 71.431
0.85 129.332 71.439
0.86 128.084 71.180
0.87 126.017 70.561
0.88 125.460 69.355
0.89 122.891 66.933
0.90 123.770 62.811
0.91 126.080 57.258
0.92 --undefined-- 52.371
0.93 --undefined-- 50.131
0.94 --undefined-- 47.694
0.95 --undefined-- 44.720
0.96 --undefined-- 44.229
0.97 --undefined-- 46.425
0.98 --undefined-- 56.547
0.99 --undefined-- 67.153
1.00 154.894 73.568
1.01 153.422 76.463
1.02 147.023 77.101
1.03 141.120 77.165
1.04 139.696 77.419
1.05 138.044 77.531
1.06 136.552 77.558
1.07 135.806 77.592
1.08 135.870 77.584
1.09 136.117 77.464
1.10 136.410 77.160
1.11 137.418 76.566
1.12 138.597 75.342
1.13 138.808 73.607
1.14 139.188 72.639
1.15 140.054 72.681
1.16 140.127 72.899
1.17 140.047 73.124
1.18 140.203 73.395
1.19 140.830 73.673
1.20 141.118 73.906
1.21 141.022 74.083
1.22 141.020 74.212
1.23 140.828 74.259
1.24 140.152 74.174
1.25 139.547 73.900
1.26 138.667 73.174
1.27 135.086 71.628
1.28 129.449 69.440
1.29 127.852 67.223
1.30 128.310 64.975
1.31 130.552 62.559
1.32 --undefined-- 61.551
1.33 --undefined-- 64.476
1.34 --undefined-- 70.403
1.35 137.552 74.797
1.36 126.282 76.834
1.37 123.363 77.301
1.38 118.584 76.721
1.39 116.861 75.699
1.40 118.952 75.185
1.41 122.447 75.464
1.42 126.163 76.041
1.43 129.481 76.291
1.44 134.856 76.155
1.45 141.097 76.137
1.46 148.657 76.441
1.47 153.998 76.854
1.48 158.926 77.325
1.49 163.239 77.896
1.50 168.118 78.587
1.51 171.500 79.244
1.52 172.594 79.431
1.53 171.850 78.567
1.54 170.250 76.349
1.55 163.241 72.947
1.56 167.448 69.287
1.57 167.454 65.612
1.58 170.958 60.771
1.59 171.622 55.468
1.60 166.011 55.576
1.61 164.823 58.705
1.62 --undefined-- 62.173
1.63 --undefined-- 64.020
1.64 --undefined-- 64.093
1.65 --undefined-- 68.504
1.66 --undefined-- 74.722
1.67 177.469 78.032
1.68 176.409 79.196
1.69 174.303 79.607
1.70 173.120 79.934
1.71 172.046 80.002
1.72 169.974 79.486
1.73 167.610 78.348
1.74 166.224 77.197
1.75 165.982 76.610
1.76 166.690 76.135
1.77 166.846 75.360
1.78 166.548 74.513
1.79 168.041 73.980
1.80 169.705 73.886
1.81 171.252 74.060
1.82 172.873 74.562
1.83 173.073 75.345
1.84 172.839 76.084
1.85 173.749 76.762
1.86 174.101 77.420
1.87 172.385 77.883
1.88 171.038 78.159
1.89 170.509 78.370
1.90 170.147 78.480
1.91 170.107 78.549
1.92 170.209 78.653
1.93 170.134 78.692
1.94 169.270 78.243
1.95 162.369 76.358
1.96 157.731 72.365
1.97 162.402 67.004
1.98 155.504 62.045
1.99 155.536 58.319
2.00 161.389 56.269
2.01 164.219 56.154
2.02 --undefined-- 64.413
2.03 --undefined-- 72.329
2.04 150.546 76.528
2.05 144.607 77.733
2.06 133.804 77.308
2.07 131.730 77.033
2.08 132.286 77.446
2.09 132.864 78.027
2.10 132.902 78.121
2.11 130.058 77.253
2.12 126.956 75.425
2.13 126.884 73.787
2.14 137.170 74.294
2.15 142.467 76.309
2.16 146.037 78.281
2.17 148.922 79.460
2.18 151.462 79.877
2.19 153.408 80.000
2.20 155.161 79.932
2.21 157.525 79.554
2.22 158.796 78.689
2.23 157.359 76.703
2.24 146.981 73.048
2.25 152.912 69.768
2.26 157.430 72.224
2.27 161.935 76.395
2.28 157.430 78.808
2.29 154.642 79.760
2.30 149.855 80.006
2.31 145.128 79.931
2.32 140.076 79.560
2.33 136.342 78.958
2.34 132.562 78.294
2.35 128.790 77.660
2.36 127.439 76.756
2.37 125.169 75.149
2.38 125.225 73.326
2.39 126.187 72.584
2.40 130.078 74.060
2.41 133.548 76.491
2.42 134.874 78.089
2.43 134.508 78.554
2.44 131.565 78.231
2.45 130.008 77.417
2.46 128.121 75.902
2.47 124.406 73.470
2.48 126.365 71.299
2.49 131.998 71.068
2.50 132.583 71.623
2.51 132.710 71.921
2.52 132.334 71.893
2.53 131.833 71.656
2.54 130.840 71.314
2.55 129.007 70.974
2.56 126.919 70.782
2.57 125.101 70.957
2.58 123.535 71.775
2.59 121.209 73.256
2.60 120.361 74.688
2.61 119.512 75.265
2.62 114.980 75.062
2.63 111.925 74.695
2.64 108.684 74.282
2.65 107.890 73.732
2.66 107.219 73.307
2.67 106.121 73.113
2.68 105.510 72.996
2.69 105.536 72.997
2.70 106.241 73.180
2.71 107.554 73.464
2.72 107.235 73.755
2.73 106.721 73.920
2.74 105.242 73.450
2.75 108.045 71.945
2.76 --undefined-- 70.325
2.77 125.616 71.582
2.78 122.550 73.855
2.79 122.222 74.941
2.80 122.956 75.274
2.81 123.024 75.287
2.82 122.074 75.121
2.83 120.485 74.917
2.84 119.655 74.699
2.85 119.007 74.398
2.86 119.122 74.125
2.87 118.164 73.946
2.88 117.068 73.842
2.89 119.445 73.823
2.90 119.169 73.366
2.91 114.535 71.815
2.92 112.757 69.352
2.93 107.907 66.503
2.94 106.619 63.983
2.95 106.490 62.259
2.96 106.302 62.346
2.97 121.416 65.869
2.98 113.128 69.118
2.99 109.070 70.902
3.00 105.472 71.862
3.01 104.171 72.189
3.02 103.643 71.790
3.03 105.351 71.725
3.04 108.453 72.526
3.05 113.855 73.556
3.06 119.261 74.497
3.07 126.601 75.251
3.08 136.879 76.149
3.09 146.219 77.309
3.10 155.159 78.289
3.11 164.148 78.815
3.12 170.083 78.425
3.13 169.986 76.116
3.14 163.088 71.084
3.15 172.109 64.834
3.16 --undefined-- 68.164
3.17 212.629 74.028
3.18 205.965 76.829
3.19 202.019 77.279
3.20 195.662 76.394
3.21 187.704 74.622
3.22 178.092 72.066
3.23 170.392 68.894
3.24 167.216 65.812
3.25 165.238 64.311
3.26 161.459 64.076
3.27 156.539 64.199
3.28 146.068 64.235
3.29 140.804 64.209
3.30 134.430 64.035
3.31 127.285 64.319
3.32 124.479 65.575
3.33 121.211 66.716
3.34 118.745 67.580
3.35 117.144 68.691
3.36 117.208 70.330
3.37 117.155 72.241
3.38 117.429 73.931
3.39 117.826 75.130
3.40 118.084 75.787
3.41 118.827 76.031
3.42 120.530 76.035
3.43 121.042 75.772
3.44 121.164 75.186
3.45 121.651 74.646
3.46 123.749 74.859
3.47 128.548 75.869
3.48 132.193 76.734
3.49 129.856 76.964
3.50 126.544 77.060
3.51 125.310 77.354
3.52 124.120 77.642
3.53 122.713 77.759
3.54 120.947 77.234
3.55 118.010 75.458
3.56 108.690 72.105
3.57 --undefined-- 67.625
3.58 --undefined-- 65.133
3.59 --undefined-- 66.135
3.60 --undefined-- 67.869
3.61 --undefined-- 68.955
3.62 --undefined-- 68.078
3.63 --undefined-- 66.212
3.64 --undefined-- 67.558
3.65 --undefined-- 72.933
3.66 141.283 76.793
3.67 133.754 78.328
3.68 130.473 78.477
3.69 125.429 78.067
3.70 121.968 77.652
3.71 121.387 77.437
3.72 121.227 77.213
3.73 121.392 76.942
3.74 121.485 76.635
3.75 121.262 76.013
3.76 121.203 74.810
3.77 121.208 73.307
3.78 122.999 72.436
3.79 124.048 72.495
3.80 123.346 72.755
3.81 121.532 72.879
3.82 119.258 72.730
3.83 116.940 71.860
3.84 110.026 69.764
3.85 101.537 66.709
3.86 102.966 63.208
3.87 103.921 60.221
3.88 --undefined-- 63.047
3.89 --undefined-- 67.286
3.90 --undefined-- 69.379
3.91 --undefined-- 70.097
3.92 --undefined-- 72.051
3.93 --undefined-- 74.647
3.94 --undefined-- 76.513
3.95 124.359 77.445
3.96 129.058 77.919
3.97 131.525 78.528
3.98 136.578 79.278
3.99 143.563 79.983
4.00 152.982 80.480
4.01 160.515 80.206
4.02 170.249 78.517
4.03 174.539 75.457
4.04 177.262 72.197
4.05 174.991 69.178
4.06 168.200 65.458
4.07 --undefined-- 60.655
4.08 --undefined-- 56.011
4.09 --undefined-- 53.280
4.10 --undefined-- 50.429
4.11 --undefined-- 47.300
4.12 --undefined-- 45.520
4.13 --undefined-- 47.672
4.14 --undefined-- 53.973
4.15 --undefined-- 60.363
4.16 130.586 63.833
4.17 131.765 63.966
4.18 125.313 60.879
4.19 --undefined-- 55.594
4.20 --undefined-- 51.524
4.21 --undefined-- 50.565
4.22 --undefined-- 50.826
4.23 --undefined-- 51.514
4.24 --undefined-- 52.262
4.25 --undefined-- 52.955
4.26 --undefined-- 53.516
4.27 --undefined-- 53.945
4.28 --undefined-- 54.791
4.29 --undefined-- 55.724
4.30 --undefined-- 55.736
4.31 --undefined-- 55.371
4.32 --undefined-- 55.172
4.33 --undefined-- 54.852
4.34 --undefined-- 54.688
4.35 --undefined-- 54.653
4.36 --undefined-- 55.014
4.37 --undefined-- 55.697
4.38 --undefined-- 56.171
4.39 --undefined-- 55.823
4.40 --undefined-- 54.428
4.41 --undefined-- 51.776
4.42 --undefined-- 48.235
4.43 --undefined-- 46.212
4.44 --undefined-- 48.228
4.45 --undefined-- 59.408
4.46 218.243 67.101
4.47 216.735 71.145
4.48 224.655 72.771
4.49 234.898 73.282
4.50 242.506 73.543
4.51 245.328 73.836
4.52 243.276 74.417
4.53 238.962 75.504
4.54 236.102 77.397
4.55 244.224 79.543
4.56 245.669 80.738
4.57 241.051 80.833
4.58 231.073 80.555
4.59 220.803 80.375
4.60 211.904 80.740
4.61 208.519 81.464
4.62 203.597 81.843
4.63 194.897 81.657
4.64 191.319 81.335
4.65 190.432 81.166
4.66 189.638 80.653
4.67 189.200 79.462
4.68 197.289 78.180
4.69 210.959 77.663
4.70 216.399 77.069
4.71 219.910 75.936
4.72 227.219 75.373
4.73 228.912 75.334
4.74 224.934 74.726
4.75 213.906 73.324
4.76 201.503 71.001
4.77 188.479 67.336
4.78 188.999 66.932
4.79 203.007 73.359
4.80 205.022 77.674
4.81 198.560 79.708
4.82 190.147 80.480
4.83 184.158 80.827
4.84 181.134 80.772
4.85 177.745 80.157
4.86 174.928 79.105
4.87 168.792 77.304
4.88 159.767 74.074
4.89 164.041 70.353
4.90 158.477 70.254
4.91 159.870 74.697
4.92 156.126 78.391
4.93 150.030 80.029
4.94 142.645 80.075
4.95 135.298 79.314
4.96 129.932 78.520
4.97 126.737 77.818
4.98 124.726 76.034
4.99 115.789 72.149
5.00 125.405 66.682
5.01 128.877 61.689
5.02 --undefined-- 56.613
5.03 --undefined-- --undefined--
5.04 --undefined-- --undefined--
5.05 --undefined-- --undefined--
5.06 --undefined-- --undefined--
