Time Pitch Intensity
0.01 --undefined-- --undefined--
0.02 138.470 --undefined--
0.03 144.271 --undefined--
0.04 170.099 --undefined--
0.05 177.918 65.970
0.06 188.912 68.194
0.07 197.058 70.000
0.08 205.356 70.874
0.09 211.380 70.774
0.10 212.595 70.251
0.11 213.726 69.674
0.12 213.427 69.091
0.13 212.171 68.523
0.14 211.323 67.814
0.15 208.909 66.827
0.16 197.520 65.681
0.17 186.215 64.838
0.18 181.787 64.581
0.19 182.416 65.168
0.20 190.143 66.670
0.21 188.760 68.019
0.22 177.211 68.691
0.23 166.743 69.081
0.24 159.930 69.217
0.25 154.957 68.608
0.26 152.254 67.538
0.27 153.158 66.797
0.28 156.790 66.403
0.29 165.651 65.917
0.30 172.350 64.338
0.31 170.307 60.477
0.32 --undefined-- 53.904
0.33 --undefined-- 47.874
0.34 --undefined-- 46.493
0.35 --undefined-- 46.909
0.36 --undefined-- 51.158
0.37 --undefined-- 58.521
0.38 280.408 62.815
0.39 279.513 63.236
0.40 --undefined-- 60.505
0.41 --undefined-- 56.297
0.42 --undefined-- 54.280
0.43 --undefined-- 54.962
0.44 --undefined-- 55.253
0.45 --undefined-- 55.014
0.46 --undefined-- 57.205
0.47 208.873 61.992
0.48 188.820 64.879
0.49 163.574 65.624
0.50 151.268 65.180
0.51 142.818 64.383
0.52 132.198 64.215
0.53 143.313 63.895
0.54 149.599 62.444
0.55 148.489 61.029
0.56 143.112 61.745
0.57 137.796 62.945
0.58 125.809 63.730
0.59 124.554 64.431
0.60 123.022 64.793
0.61 122.326 65.215
0.62 139.735 65.947
0.63 144.802 65.997
0.64 151.129 64.925
0.65 156.133 62.877
0.66 150.567 59.962
0.67 --undefined-- 55.752
0.68 --undefined-- 51.179
0.69 --undefined-- 48.944
0.70 --undefined-- 47.299
0.71 --undefined-- 45.299
0.72 --undefined-- 43.273
0.73 --undefined-- 40.300
0.74 --undefined-- 37.353
0.75 --undefined-- 37.806
0.76 --undefined-- 39.613
0.77 --undefined-- 40.756
0.78 --undefined-- 40.843
0.79 --undefined-- 39.364
0.80 --undefined-- 36.221
0.81 --undefined-- 34.249
0.82 --undefined-- 37.191
0.83 --undefined-- 41.106
0.84 --undefined-- 46.186
0.85 --undefined-- 57.181
0.86 233.356 65.301
0.87 214.009 69.756
0.88 193.687 71.762
0.89 190.336 72.602
0.90 186.456 72.832
0.91 184.404 72.681
0.92 185.059 72.274
0.93 186.626 71.613
0.94 191.618 70.853
0.95 195.260 69.812
0.96 193.278 68.255
0.97 188.924 66.274
0.98 179.835 64.290
0.99 180.543 62.855
1.00 168.948 62.523
1.01 170.104 62.858
1.02 180.924 63.565
1.03 184.763 65.454
1.04 198.947 67.701
1.05 205.394 69.434
1.06 202.408 70.723
1.07 197.592 71.731
1.08 182.802 72.459
1.09 170.838 72.779
1.10 165.043 72.628
1.11 163.987 72.301
1.12 163.848 72.090
1.13 163.986 72.204
1.14 164.548 72.536
1.15 165.864 72.737
1.16 167.977 72.571
1.17 170.372 72.096
1.18 172.082 71.520
1.19 173.370 70.816
1.20 172.161 69.854
1.21 169.245 68.836
1.22 168.835 68.095
1.23 169.017 67.724
1.24 169.087 67.817
1.25 169.581 68.394
1.26 168.940 69.192
1.27 167.233 70.125
1.28 166.119 71.140
1.29 163.196 71.929
1.30 160.191 72.434
1.31 158.447 72.444
1.32 157.070 72.040
1.33 156.197 71.761
1.34 155.795 71.767
1.35 155.656 71.931
1.36 155.935 72.098
1.37 156.797 72.173
1.38 158.014 72.026
1.39 158.030 71.698
1.40 157.774 71.613
1.41 157.586 71.741
1.42 156.696 71.731
1.43 154.971 71.432
1.44 152.939 70.595
1.45 151.320 68.845
1.46 150.934 65.984
1.47 169.160 62.137
1.48 157.368 57.113
1.49 --undefined-- 50.718
1.50 --undefined-- 45.373
1.51 --undefined-- 43.833
1.52 --undefined-- 44.426
1.53 --undefined-- 44.689
1.54 --undefined-- 44.054
1.55 --undefined-- 43.307
1.56 --undefined-- 43.746
1.57 --undefined-- 44.333
1.58 --undefined-- 43.646
1.59 --undefined-- 41.598
1.60 --undefined-- 39.656
1.61 --undefined-- 39.602
1.62 --undefined-- 40.662
1.63 --undefined-- 40.910
1.64 --undefined-- 39.295
1.65 --undefined-- 36.270
1.66 --undefined-- 35.616
1.67 --undefined-- 36.495
1.68 --undefined-- 37.048
1.69 --undefined-- 36.942
1.70 --undefined-- 35.375
1.71 --undefined-- 33.168
1.72 --undefined-- 33.902
1.73 --undefined-- 37.172
1.74 --undefined-- 43.416
1.75 --undefined-- 53.500
1.76 --undefined-- 60.592
1.77 158.004 64.806
1.78 155.030 67.229
1.79 154.697 68.837
1.80 154.697 69.980
1.81 156.196 70.677
1.82 158.266 71.110
1.83 159.773 71.414
1.84 160.648 71.607
1.85 160.146 71.615
1.86 160.377 71.262
1.87 165.413 70.597
1.88 168.825 69.291
1.89 169.759 67.020
1.90 161.979 64.005
1.91 153.638 60.751
1.92 148.142 57.381
1.93 154.504 53.457
1.94 --undefined-- 48.945
1.95 --undefined-- 45.814
1.96 --undefined-- 47.512
1.97 --undefined-- 56.398
1.98 195.707 63.591
1.99 177.544 67.932
2.00 171.453 70.439
2.01 165.011 71.796
2.02 156.811 72.248
2.03 150.379 72.161
2.04 149.485 72.150
2.05 151.346 72.552
2.06 153.626 73.182
2.07 155.973 73.732
2.08 158.594 73.904
2.09 161.875 73.729
2.10 170.177 73.616
2.11 176.759 73.130
2.12 189.212 72.342
2.13 202.251 72.834
2.14 216.744 74.133
2.15 219.261 74.565
2.16 231.823 73.736
2.17 231.945 72.324
2.18 229.936 71.195
2.19 226.966 70.365
2.20 223.642 69.617
2.21 222.532 68.920
2.22 222.526 68.302
2.23 221.787 67.971
2.24 220.248 68.137
2.25 216.661 68.949
2.26 210.130 70.349
2.27 202.925 71.783
2.28 194.405 72.644
2.29 188.582 72.742
2.30 185.589 72.285
2.31 183.976 71.676
2.32 184.220 71.421
2.33 188.096 72.157
2.34 195.377 73.210
2.35 198.782 73.664
2.36 200.841 73.720
2.37 204.725 73.635
2.38 204.712 73.241
2.39 200.133 72.719
2.40 200.898 72.481
2.41 203.747 72.561
2.42 205.460 72.729
2.43 206.644 72.699
2.44 206.562 72.475
2.45 203.784 72.207
2.46 201.735 71.901
2.47 198.916 71.185
2.48 187.927 69.471
2.49 182.628 66.663
2.50 193.524 63.557
2.51 197.092 60.522
2.52 209.992 57.424
2.53 217.420 53.763
2.54 --undefined-- 49.467
2.55 --undefined-- 53.866
2.56 --undefined-- 61.963
2.57 --undefined-- 67.124
2.58 --undefined-- 69.865
2.59 168.077 71.200
2.60 159.402 71.943
2.61 144.055 72.278
2.62 138.448 72.030
2.63 136.366 70.875
2.64 136.739 69.282
2.65 139.857 68.299
2.66 143.137 67.568
2.67 147.788 66.500
2.68 148.675 65.153
2.69 148.544 64.236
2.70 148.554 64.463
2.71 152.658 65.605
2.72 153.010 66.961
2.73 153.075 68.011
2.74 155.634 68.819
2.75 155.331 69.641
2.76 146.012 70.126
2.77 131.185 69.847
2.78 124.387 69.068
2.79 121.116 68.359
2.80 120.344 68.130
2.81 119.570 68.237
2.82 119.269 68.227
2.83 119.977 68.232
2.84 121.029 68.606
2.85 122.171 69.115
2.86 123.264 69.604
2.87 124.460 70.069
2.88 125.227 70.433
2.89 125.992 70.662
2.90 126.335 70.777
2.91 126.289 70.821
2.92 126.312 70.788
2.93 126.621 70.645
2.94 126.879 70.355
2.95 126.065 69.919
2.96 122.822 69.393
2.97 --undefined-- 68.792
2.98 --undefined-- 67.561
2.99 82.130 64.819
3.00 --undefined-- 60.724
3.01 126.413 57.560
3.02 122.834 56.537
3.03 121.070 55.669
3.04 115.090 56.033
3.05 115.539 57.741
3.06 128.249 60.430
3.07 147.790 62.861
3.08 158.441 64.626
3.09 187.572 66.941
3.10 192.972 69.252
3.11 193.583 70.419
3.12 196.552 70.696
3.13 201.384 70.859
3.14 204.556 71.268
3.15 208.252 71.580
3.16 214.188 71.229
3.17 214.659 69.960
3.18 214.631 67.913
3.19 211.544 65.370
3.20 208.756 62.355
3.21 206.049 59.108
3.22 210.636 57.229
3.23 221.181 58.317
3.24 221.694 61.712
3.25 212.356 65.164
3.26 199.161 67.300
3.27 184.620 68.431
3.28 174.940 69.057
3.29 165.749 69.542
3.30 157.504 69.964
3.31 148.527 69.923
3.32 144.849 69.775
3.33 142.776 69.864
3.34 141.771 69.858
3.35 141.223 69.497
3.36 140.812 68.861
3.37 140.238 68.296
3.38 139.679 67.985
3.39 138.622 67.941
3.40 137.292 68.057
3.41 136.122 68.227
3.42 135.576 68.505
3.43 135.529 68.810
3.44 135.853 68.985
3.45 136.598 69.105
3.46 136.726 69.368
3.47 135.765 69.690
3.48 134.613 69.891
3.49 133.209 70.017
3.50 132.137 70.189
3.51 131.372 70.312
3.52 130.324 70.199
3.53 129.478 69.962
3.54 130.430 69.926
3.55 132.165 69.957
3.56 133.196 69.709
3.57 132.464 69.124
3.58 129.082 68.222
3.59 --undefined-- 66.972
3.60 --undefined-- 64.810
3.61 --undefined-- 61.024
3.62 --undefined-- 56.453
3.63 --undefined-- 53.639
3.64 --undefined-- 51.129
3.65 --undefined-- 46.254
3.66 --undefined-- 41.860
3.67 --undefined-- 41.283
3.68 --undefined-- 43.197
3.69 --undefined-- 51.354
3.70 --undefined-- 57.906
3.71 114.003 61.791
3.72 123.433 64.158
3.73 123.957 65.726
3.74 123.278 66.621
3.75 121.358 67.009
3.76 120.799 66.926
3.77 121.059 66.002
3.78 118.705 63.996
3.79 111.002 61.454
3.80 153.808 58.759
3.81 162.982 56.067
3.82 170.144 54.202
3.83 171.113 52.946
3.84 175.275 54.695
3.85 --undefined-- 61.565
3.86 --undefined-- 66.540
3.87 135.099 68.957
3.88 132.030 69.771
3.89 128.979 69.759
3.90 124.455 69.241
3.91 121.643 68.448
3.92 121.244 67.529
3.93 120.991 66.729
3.94 122.791 66.640
3.95 123.723 66.869
3.96 121.736 66.974
3.97 118.151 66.964
3.98 114.540 66.812
3.99 114.411 66.619
4.00 109.900 66.578
4.01 107.758 66.769
4.02 106.199 66.854
4.03 103.546 66.728
4.04 100.082 66.453
4.05 96.604 66.081
4.06 95.858 65.761
4.07 97.608 65.522
4.08 100.664 65.353
4.09 104.490 65.159
4.10 107.347 64.502
4.11 109.766 62.531
4.12 111.250 58.469
4.13 --undefined-- 52.239
4.14 --undefined-- 47.559
4.15 --undefined-- 48.598
4.16 --undefined-- 49.529
4.17 --undefined-- 50.086
4.18 --undefined-- 55.954
4.19 214.118 62.666
4.20 192.982 66.256
4.21 188.676 67.553
4.22 186.001 67.956
4.23 183.612 68.248
4.24 180.690 68.557
4.25 179.103 68.809
4.26 178.715 68.833
4.27 177.935 68.641
4.28 178.003 68.413
4.29 179.420 68.089
4.30 179.949 67.715
4.31 181.041 67.561
4.32 182.443 67.657
4.33 181.864 67.764
4.34 181.176 67.713
4.35 179.856 67.703
4.36 178.921 67.908
4.37 178.626 68.184
4.38 178.806 68.387
4.39 178.182 68.385
4.40 176.493 68.125
4.41 174.608 67.722
4.42 173.873 67.316
4.43 171.171 66.367
4.44 164.617 64.146
4.45 179.916 60.962
4.46 183.920 57.882
4.47 190.533 55.232
4.48 197.245 53.397
4.49 197.042 51.621
4.50 --undefined-- 48.624
4.51 --undefined-- 51.854
4.52 --undefined-- 60.128
4.53 --undefined-- 65.168
4.54 --undefined-- 67.630
4.55 --undefined-- 68.767
4.56 131.362 69.558
4.57 123.328 70.224
4.58 121.246 70.674
4.59 121.134 70.700
4.60 121.353 69.919
4.61 121.360 68.533
4.62 125.297 67.234
4.63 135.391 66.456
4.64 137.299 66.438
4.65 141.245 67.024
4.66 142.566 67.692
4.67 139.372 68.298
4.68 131.287 68.870
4.69 124.040 69.104
4.70 117.803 68.662
4.71 114.418 67.664
4.72 110.882 67.083
4.73 108.757 67.284
4.74 107.186 67.415
4.75 104.280 66.941
4.76 100.714 65.995
4.77 97.030 64.568
4.78 83.666 62.148
4.79 --undefined-- 58.330
4.80 --undefined-- 52.845
4.81 --undefined-- 46.241
4.82 --undefined-- 42.372
4.83 --undefined-- 41.139
4.84 --undefined-- 40.742
4.85 --undefined-- 41.612
4.86 --undefined-- 43.892
4.87 --undefined-- 45.504
4.88 --undefined-- 45.753
4.89 --undefined-- 44.954
4.90 --undefined-- 43.867
4.91 --undefined-- 43.285
4.92 --undefined-- 43.255
4.93 --undefined-- 43.203
4.94 --undefined-- 42.424
4.95 --undefined-- 40.721
4.96 --undefined-- 39.636
4.97 --undefined-- 40.339
4.98 --undefined-- 40.752
4.99 --undefined-- 39.628
5.00 --undefined-- 37.925
5.01 --undefined-- 36.593
5.02 --undefined-- 38.898
5.03 --undefined-- 49.021
5.04 --undefined-- 56.194
5.05 --undefined-- 59.661
5.06 --undefined-- 61.702
5.07 151.792 64.241
5.08 147.715 66.062
5.09 142.624 66.670
5.10 146.083 67.229
5.11 152.650 68.593
5.12 149.902 69.945
5.13 146.927 70.676
5.14 144.933 70.918
5.15 143.314 70.817
5.16 141.426 70.476
5.17 138.656 70.046
5.18 133.751 69.859
5.19 130.834 70.183
5.20 129.057 70.591
5.21 127.408 70.741
5.22 126.759 70.814
5.23 124.930 70.884
5.24 122.799 70.921
5.25 120.744 70.687
5.26 119.296 70.102
5.27 121.320 69.790
5.28 122.280 70.023
5.29 122.702 70.419
5.30 124.375 70.817
5.31 125.501 71.109
5.32 126.499 71.222
5.33 126.529 71.133
5.34 124.600 70.583
5.35 121.982 68.976
5.36 119.539 65.766
5.37 119.616 60.802
5.38 122.847 54.812
5.39 --undefined-- 48.195
5.40 --undefined-- 43.323
5.41 --undefined-- 42.436
5.42 --undefined-- 42.359
5.43 --undefined-- 41.414
5.44 --undefined-- 40.247
5.45 --undefined-- 41.026
5.46 --undefined-- --undefined--
5.47 --undefined-- --undefined--
5.48 --undefined-- --undefined--
5.49 --undefined-- --undefined--
