Time Pitch Intensity
0.01 --undefined-- --undefined--
0.02 156.533 --undefined--
0.03 154.430 --undefined--
0.04 152.714 --undefined--
0.05 150.543 70.671
0.06 150.478 69.694
0.07 153.274 69.365
0.08 154.108 69.511
0.09 156.162 69.859
0.10 157.954 70.375
0.11 158.884 70.906
0.12 159.759 71.182
0.13 160.179 71.324
0.14 160.679 71.460
0.15 161.054 71.546
0.16 161.204 71.565
0.17 160.847 71.324
0.18 159.042 70.696
0.19 155.308 69.560
0.20 150.048 67.498
0.21 152.735 64.527
0.22 162.636 60.758
0.23 --undefined-- 55.421
0.24 --undefined-- 50.051
0.25 --undefined-- 48.363
0.26 --undefined-- 59.252
0.27 --undefined-- 68.886
0.28 --undefined-- 74.025
0.29 183.194 75.767
0.30 178.682 75.593
0.31 173.570 75.120
0.32 171.699 74.835
0.33 172.987 74.552
0.34 175.297 73.959
0.35 174.893 72.285
0.36 172.694 68.759
0.37 172.231 63.262
0.38 176.714 57.819
0.39 175.834 54.562
0.40 --undefined-- 50.845
0.41 --undefined-- 46.736
0.42 --undefined-- 45.151
0.43 --undefined-- 43.275
0.44 --undefined-- 40.740
0.45 --undefined-- 40.366
0.46 --undefined-- 41.452
0.47 --undefined-- 43.382
0.48 --undefined-- 53.414
0.49 --undefined-- 64.629
0.50 --undefined-- 71.637
0.51 208.517 75.009
0.52 199.835 75.860
0.53 196.432 75.767
0.54 194.023 75.777
0.55 193.527 75.917
0.56 194.287 75.962
0.57 194.608 75.884
0.58 195.096 75.819
0.59 195.251 75.820
0.60 194.789 75.815
0.61 194.770 75.739
0.62 194.868 75.488
0.63 196.647 74.964
0.64 200.183 74.289
0.65 200.888 73.770
0.66 202.322 73.279
0.67 203.591 72.736
0.68 210.958 72.686
0.69 213.813 72.782
0.70 218.977 72.681
0.71 227.428 73.254
0.72 230.404 74.563
0.73 233.899 75.396
0.74 237.498 75.545
0.75 240.510 75.426
0.76 243.377 75.319
0.77 245.556 75.560
0.78 248.147 75.978
0.79 253.676 75.974
0.80 264.147 75.293
0.81 274.848 74.225
0.82 277.300 73.202
0.83 277.866 72.093
0.84 278.500 70.564
0.85 270.169 69.036
0.86 260.097 68.473
0.87 257.955 68.399
0.88 255.524 67.926
0.89 245.747 67.532
0.90 238.807 67.914
0.91 234.316 68.754
0.92 231.995 69.639
0.93 229.283 70.660
0.94 225.045 71.982
0.95 218.608 73.468
0.96 209.421 74.673
0.97 199.942 75.432
0.98 190.114 75.902
0.99 184.403 76.244
1.00 181.252 76.457
1.01 177.715 76.527
1.02 173.061 76.381
1.03 170.101 75.845
1.04 168.265 75.026
1.05 167.935 74.305
1.06 168.646 73.625
1.07 168.820 72.797
1.08 169.443 72.157
1.09 172.690 72.062
1.10 176.108 72.407
1.11 179.917 73.191
1.12 185.132 74.268
1.13 191.478 75.205
1.14 197.625 75.720
1.15 199.575 75.786
1.16 201.564 75.632
1.17 204.021 75.571
1.18 206.524 75.563
1.19 209.443 75.464
1.20 212.437 75.303
1.21 215.287 75.041
1.22 216.683 74.697
1.23 217.492 74.217
1.24 218.845 73.367
1.25 222.787 72.176
1.26 235.367 71.014
1.27 241.582 70.449
1.28 239.850 70.282
1.29 236.982 70.278
1.30 232.026 70.740
1.31 227.238 71.517
1.32 218.862 72.217
1.33 203.550 73.122
1.34 192.957 74.060
1.35 189.096 74.449
1.36 185.378 74.636
1.37 184.934 74.968
1.38 186.257 75.134
1.39 188.959 75.154
1.40 191.436 75.303
1.41 194.036 75.526
1.42 197.036 75.642
1.43 200.308 75.619
1.44 204.703 75.630
1.45 209.538 75.179
1.46 214.341 73.725
1.47 219.842 71.300
1.48 223.163 67.285
1.49 211.632 60.716
1.50 --undefined-- 52.670
1.51 --undefined-- 48.044
1.52 --undefined-- 44.990
1.53 --undefined-- 42.190
1.54 --undefined-- 41.228
1.55 --undefined-- 41.478
1.56 --undefined-- 41.496
1.57 --undefined-- 40.638
1.58 --undefined-- 41.029
1.59 --undefined-- 50.423
1.60 --undefined-- 58.661
1.61 --undefined-- 64.394
1.62 --undefined-- 69.385
1.63 187.645 73.037
1.64 187.703 74.964
1.65 186.190 75.692
1.66 183.286 75.878
1.67 181.159 76.020
1.68 179.866 76.354
1.69 179.034 76.724
1.70 178.488 76.971
1.71 178.496 77.149
1.72 178.608 77.316
1.73 177.817 77.446
1.74 177.543 77.494
1.75 177.422 77.412
1.76 177.788 77.155
1.77 178.521 76.845
1.78 178.623 76.683
1.79 178.978 76.602
1.80 178.984 76.359
1.81 178.173 75.704
1.82 172.594 74.501
1.83 --undefined-- 72.531
1.84 --undefined-- 69.918
1.85 --undefined-- 67.102
1.86 --undefined-- 62.973
1.87 --undefined-- 57.035
1.88 --undefined-- 53.692
1.89 --undefined-- 50.518
1.90 --undefined-- 45.570
1.91 --undefined-- 49.821
1.92 --undefined-- 58.054
1.93 --undefined-- 63.646
1.94 --undefined-- 67.841
1.95 179.058 71.065
1.96 188.559 73.275
1.97 186.540 74.674
1.98 183.699 75.122
1.99 175.841 74.729
2.00 172.130 74.484
2.01 169.877 74.607
2.02 167.016 74.459
2.03 162.531 73.475
2.04 157.590 71.148
2.05 164.528 68.634
2.06 158.730 68.577
2.07 157.843 69.263
2.08 159.016 69.549
2.09 159.651 69.633
2.10 160.868 69.720
2.11 161.779 69.872
2.12 162.073 69.834
2.13 161.294 69.096
2.14 158.044 67.308
2.15 154.764 64.512
2.16 154.035 62.623
2.17 --undefined-- 67.603
2.18 --undefined-- 73.060
2.19 186.832 75.619
2.20 184.649 76.052
2.21 181.199 76.014
2.22 178.904 76.379
2.23 177.936 76.664
2.24 177.799 76.476
2.25 177.982 75.778
2.26 177.672 74.866
2.27 177.380 74.147
2.28 176.379 73.755
2.29 174.439 73.488
2.30 172.604 72.802
2.31 169.036 70.946
2.32 162.174 67.090
2.33 156.019 61.044
2.34 166.523 55.225
2.35 173.125 52.587
2.36 --undefined-- 50.580
2.37 --undefined-- 47.924
2.38 --undefined-- 48.626
2.39 --undefined-- 53.184
2.40 --undefined-- 56.913
2.41 --undefined-- 58.890
2.42 --undefined-- 60.692
2.43 172.949 65.531
2.44 169.128 70.068
2.45 168.990 72.739
2.46 170.688 73.987
2.47 173.348 74.164
2.48 180.008 73.517
2.49 189.345 72.862
2.50 198.754 72.630
2.51 208.522 72.749
2.52 220.605 73.107
2.53 227.738 73.219
2.54 233.127 73.335
2.55 235.787 73.706
2.56 236.992 73.937
2.57 235.716 73.982
2.58 231.625 73.992
2.59 228.813 73.827
2.60 224.404 73.468
2.61 218.735 73.332
2.62 214.049 73.640
2.63 207.464 74.037
2.64 203.184 74.284
2.65 196.616 74.440
2.66 192.636 74.596
2.67 187.436 74.641
2.68 184.204 74.494
2.69 182.500 74.264
2.70 181.240 74.004
2.71 178.701 73.758
2.72 174.062 73.344
2.73 169.508 72.932
2.74 166.957 73.618
2.75 169.912 75.496
2.76 175.887 76.963
2.77 183.567 77.199
2.78 181.710 76.413
2.79 170.385 75.549
2.80 166.996 74.991
2.81 163.769 74.453
2.82 162.252 74.069
2.83 161.118 73.738
2.84 160.318 72.871
2.85 158.185 71.150
2.86 158.805 69.963
2.87 160.223 70.155
2.88 161.171 70.581
2.89 161.233 70.809
2.90 161.789 70.977
2.91 162.009 71.213
2.92 162.630 71.335
2.93 163.148 71.384
2.94 163.627 71.469
2.95 164.279 71.623
2.96 164.373 71.700
2.97 163.406 71.655
2.98 162.432 71.825
2.99 163.946 72.959
3.00 159.938 75.037
3.01 157.784 76.479
3.02 156.620 77.010
3.03 155.825 77.220
3.04 155.890 77.262
3.05 157.759 77.048
3.06 160.289 76.648
3.07 161.792 76.334
3.08 161.353 76.331
3.09 160.093 76.592
3.10 159.897 76.800
3.11 160.095 76.491
3.12 158.573 75.343
3.13 151.962 73.463
3.14 --undefined-- 71.258
3.15 --undefined-- 68.688
3.16 --undefined-- 65.226
3.17 --undefined-- 60.831
3.18 --undefined-- 55.632
3.19 --undefined-- 50.706
3.20 --undefined-- 48.224
3.21 --undefined-- 49.076
3.22 --undefined-- 51.119
3.23 --undefined-- 51.559
3.24 --undefined-- 50.772
3.25 --undefined-- 50.333
3.26 --undefined-- 50.456
3.27 --undefined-- 50.391
3.28 --undefined-- 49.825
3.29 --undefined-- 49.892
3.30 --undefined-- 50.979
3.31 --undefined-- 51.683
3.32 --undefined-- 51.729
3.33 --undefined-- 51.370
3.34 --undefined-- 50.831
3.35 --undefined-- 50.846
3.36 --undefined-- 51.117
3.37 --undefined-- 51.059
3.38 --undefined-- 51.391
3.39 --undefined-- 52.213
3.40 --undefined-- 52.333
3.41 --undefined-- 51.982
3.42 --undefined-- 51.759
3.43 --undefined-- 50.813
3.44 --undefined-- 49.329
3.45 --undefined-- 48.346
3.46 --undefined-- 47.785
3.47 --undefined-- 46.369
3.48 --undefined-- 44.203
3.49 --undefined-- 42.959
3.50 --undefined-- 43.728
3.51 --undefined-- 48.506
3.52 --undefined-- 59.909
3.53 193.685 68.784
3.54 179.678 74.049
3.55 180.122 76.610
3.56 182.925 77.303
3.57 191.171 76.950
3.58 192.311 76.544
3.59 191.738 76.429
3.60 185.351 75.667
3.61 177.158 73.183
3.62 162.911 68.640
3.63 167.059 63.885
3.64 223.175 67.503
3.65 224.810 73.488
3.66 216.768 76.449
3.67 213.123 77.259
3.68 213.885 77.258
3.69 215.882 77.116
3.70 217.806 76.942
3.71 219.454 76.793
3.72 219.095 76.637
3.73 218.206 76.297
3.74 218.638 75.660
3.75 220.919 74.743
3.76 226.012 73.326
3.77 233.333 70.945
3.78 233.707 67.145
3.79 213.860 61.949
3.80 217.480 56.759
3.81 --undefined-- 52.002
3.82 --undefined-- 48.504
3.83 --undefined-- 53.759
3.84 --undefined-- 58.789
3.85 --undefined-- 61.073
3.86 --undefined-- 61.344
3.87 --undefined-- 63.416
3.88 254.592 68.568
3.89 257.716 72.187
3.90 255.008 74.070
3.91 251.416 75.162
3.92 245.912 75.647
3.93 239.019 75.324
3.94 231.518 74.149
3.95 222.035 71.951
3.96 212.292 68.578
3.97 203.424 64.697
3.98 198.591 61.194
3.99 188.610 57.024
4.00 --undefined-- 51.687
4.01 --undefined-- 47.082
4.02 --undefined-- 44.466
4.03 --undefined-- 42.674
4.04 --undefined-- 41.762
4.05 --undefined-- 41.908
4.06 --undefined-- 42.093
4.07 --undefined-- 41.753
4.08 --undefined-- 40.682
4.09 --undefined-- 45.718
4.10 --undefined-- 58.555
4.11 --undefined-- 68.053
4.12 178.711 73.826
4.13 176.502 76.493
4.14 174.020 77.076
4.15 171.324 76.927
4.16 171.616 77.077
4.17 173.214 77.393
4.18 175.183 77.375
4.19 178.394 76.696
4.20 183.815 75.752
4.21 189.815 75.610
4.22 194.747 76.128
4.23 200.183 76.307
4.24 210.718 75.559
4.25 224.651 74.080
4.26 232.533 73.044
4.27 235.514 73.111
4.28 238.019 73.576
4.29 240.682 74.099
4.30 241.638 74.649
4.31 242.584 75.053
4.32 243.596 75.239
4.33 244.185 75.220
4.34 245.164 75.052
4.35 246.009 74.858
4.36 247.814 74.695
4.37 251.161 74.479
4.38 253.646 74.075
4.39 255.668 73.630
4.40 255.582 73.287
4.41 253.896 72.968
4.42 255.282 73.079
4.43 258.144 73.718
4.44 259.331 74.414
4.45 259.408 74.971
4.46 258.736 75.272
4.47 256.917 75.281
4.48 256.699 75.214
4.49 256.996 75.244
4.50 257.599 75.199
4.51 258.347 74.925
4.52 259.867 74.402
4.53 261.214 73.615
4.54 261.959 72.670
4.55 263.096 71.719
4.56 265.245 70.814
4.57 267.163 70.173
4.58 269.391 69.580
4.59 270.592 68.791
4.60 272.053 67.749
4.61 273.860 66.300
4.62 273.178 64.335
4.63 268.014 62.151
4.64 263.122 60.217
4.65 --undefined-- 59.169
4.66 --undefined-- 58.623
4.67 --undefined-- 59.042
4.68 --undefined-- 60.058
4.69 262.569 61.528
4.70 263.382 64.136
4.71 287.300 66.535
4.72 281.479 68.370
4.73 279.625 69.955
4.74 280.045 71.431
4.75 278.198 72.861
4.76 277.521 74.132
4.77 276.644 74.755
4.78 274.947 74.207
4.79 272.772 72.361
4.80 268.198 69.495
4.81 257.668 65.574
4.82 225.394 60.384
4.83 --undefined-- 53.707
4.84 --undefined-- 48.418
4.85 --undefined-- 46.771
4.86 --undefined-- 45.977
4.87 --undefined-- 48.459
4.88 --undefined-- 56.771
4.89 --undefined-- 63.418
4.90 --undefined-- 69.152
4.91 236.610 73.546
4.92 223.832 75.501
4.93 213.103 75.816
4.94 203.860 75.958
4.95 199.771 76.395
4.96 195.646 76.703
4.97 191.826 76.750
4.98 188.804 76.716
4.99 186.606 76.754
5.00 185.000 76.650
5.01 183.804 76.202
5.02 182.631 75.405
5.03 181.626 74.433
5.04 180.167 73.740
5.05 178.814 73.379
5.06 177.952 72.728
5.07 179.521 71.337
5.08 177.541 69.503
5.09 170.877 68.392
5.10 168.107 68.708
5.11 169.443 70.381
5.12 174.980 72.696
5.13 181.509 74.297
5.14 173.791 74.788
5.15 164.912 74.755
5.16 158.895 74.582
5.17 153.627 74.138
5.18 150.075 73.388
5.19 148.789 71.839
5.20 146.626 68.848
5.21 143.228 66.157
5.22 145.531 66.329
5.23 147.699 67.268
5.24 149.245 67.845
5.25 150.740 68.214
5.26 151.813 68.517
5.27 152.818 68.673
5.28 153.997 68.911
5.29 154.559 69.349
5.30 155.141 69.625
5.31 155.075 69.706
5.32 154.477 69.755
5.33 153.869 --undefined--
5.34 153.290 --undefined--
5.35 --undefined-- --undefined--
5.36 --undefined-- --undefined--
