Time Pitch Intensity
0.01 --undefined-- --undefined--
0.02 --undefined-- --undefined--
0.03 --undefined-- --undefined--
0.04 --undefined-- --undefined--
0.05 --undefined-- 42.415
0.06 --undefined-- 41.130
0.07 --undefined-- 40.291
0.08 --undefined-- 41.158
0.09 --undefined-- 43.832
0.10 --undefined-- 45.584
0.11 --undefined-- 44.606
0.12 --undefined-- 41.210
0.13 --undefined-- 37.973
0.14 --undefined-- 36.880
0.15 --undefined-- 37.029
0.16 --undefined-- 37.030
0.17 --undefined-- 37.316
0.18 --undefined-- 38.418
0.19 --undefined-- 39.181
0.20 --undefined-- 39.254
0.21 --undefined-- 39.687
0.22 --undefined-- 41.104
0.23 --undefined-- 42.343
0.24 --undefined-- 43.083
0.25 --undefined-- 44.142
0.26 --undefined-- 48.051
0.27 --undefined-- 58.154
0.28 162.771 66.776
0.29 154.827 71.913
0.30 147.133 74.359
0.31 140.108 75.194
0.32 140.312 75.920
0.33 140.490 76.541
0.34 143.903 76.499
0.35 142.015 76.175
0.36 140.286 75.953
0.37 138.965 75.729
0.38 138.035 75.367
0.39 137.181 74.701
0.40 135.552 73.449
0.41 133.589 71.223
0.42 128.038 67.693
0.43 116.254 62.900
0.44 --undefined-- 57.229
0.45 --undefined-- 51.027
0.46 --undefined-- 48.156
0.47 --undefined-- 54.499
0.48 --undefined-- 59.251
0.49 --undefined-- 61.018
0.50 --undefined-- 60.667
0.51 --undefined-- 59.709
0.52 --undefined-- 59.349
0.53 --undefined-- 59.557
0.54 --undefined-- 59.384
0.55 --undefined-- 62.673
0.56 --undefined-- 67.485
0.57 --undefined-- 70.020
0.58 --undefined-- 70.572
0.59 --undefined-- 70.312
0.60 --undefined-- 69.685
0.61 --undefined-- 68.860
0.62 93.722 68.365
0.63 94.202 67.823
0.64 95.812 67.959
0.65 96.387 68.695
0.66 96.542 69.424
0.67 98.316 70.057
0.68 99.175 70.264
0.69 100.901 70.026
0.70 102.959 69.694
0.71 103.532 69.384
0.72 102.767 68.838
0.73 102.201 67.899
0.74 99.737 66.515
0.75 95.391 64.868
0.76 104.660 63.328
0.77 --undefined-- 60.837
0.78 --undefined-- 56.437
0.79 --undefined-- 52.348
0.80 --undefined-- 48.333
0.81 --undefined-- 43.008
0.82 --undefined-- 39.856
0.83 --undefined-- 39.239
0.84 --undefined-- 39.417
0.85 --undefined-- 39.391
0.86 --undefined-- 39.400
0.87 --undefined-- 38.863
0.88 --undefined-- 37.995
0.89 --undefined-- 38.053
0.90 --undefined-- 37.969
0.91 --undefined-- 37.427
0.92 --undefined-- 38.162
0.93 --undefined-- 37.885
0.94 --undefined-- 36.187
0.95 --undefined-- 36.053
0.96 --undefined-- 36.777
0.97 --undefined-- 37.503
0.98 --undefined-- 37.163
0.99 --undefined-- 36.085
1.00 --undefined-- 37.165
1.01 --undefined-- 39.949
1.02 --undefined-- 41.517
1.03 --undefined-- 42.331
1.04 --undefined-- 43.575
1.05 --undefined-- 45.277
1.06 --undefined-- 47.248
1.07 --undefined-- 51.303
1.08 --undefined-- 60.450
1.09 160.809 68.462
1.10 159.867 73.342
1.11 139.466 75.688
1.12 133.234 76.379
1.13 129.980 76.148
1.14 127.570 75.142
1.15 126.824 72.935
1.16 --undefined-- 68.825
1.17 --undefined-- 62.077
1.18 --undefined-- 52.683
1.19 --undefined-- 45.031
1.20 --undefined-- 43.474
1.21 --undefined-- 49.827
1.22 --undefined-- 57.811
1.23 --undefined-- 64.736
1.24 --undefined-- 70.776
1.25 155.596 74.749
1.26 150.629 77.088
1.27 149.295 78.509
1.28 150.299 79.236
1.29 150.900 79.131
1.30 150.633 78.320
1.31 149.759 77.123
1.32 146.241 75.703
1.33 147.416 74.904
1.34 152.586 74.820
1.35 152.616 74.714
1.36 150.836 74.391
1.37 146.668 73.500
1.38 142.320 71.371
1.39 136.876 67.210
1.40 --undefined-- 60.764
1.41 --undefined-- 59.636
1.42 --undefined-- 62.792
1.43 --undefined-- 62.585
1.44 --undefined-- 59.597
1.45 --undefined-- 56.463
1.46 --undefined-- 54.185
1.47 --undefined-- 55.709
1.48 123.615 60.680
1.49 124.309 64.159
1.50 103.245 65.916
1.51 102.392 66.582
1.52 98.555 66.274
1.53 97.272 65.752
1.54 99.840 66.288
1.55 102.610 67.407
1.56 106.515 68.327
1.57 108.981 69.173
1.58 110.857 69.992
1.59 111.619 70.367
1.60 112.476 70.286
1.61 113.639 69.815
1.62 114.370 69.099
1.63 114.263 68.869
1.64 119.559 69.067
1.65 121.152 69.098
1.66 124.833 68.923
1.67 128.303 68.495
1.68 128.453 67.589
1.69 125.918 65.854
1.70 118.116 63.094
1.71 117.611 59.217
1.72 --undefined-- 53.958
1.73 --undefined-- 49.544
1.74 --undefined-- 47.691
1.75 --undefined-- 45.234
1.76 --undefined-- 41.929
1.77 --undefined-- 40.647
1.78 --undefined-- 40.021
1.79 --undefined-- 39.350
1.80 --undefined-- 39.701
1.81 --undefined-- 39.682
1.82 --undefined-- 40.040
1.83 --undefined-- 40.331
1.84 --undefined-- 39.173
1.85 --undefined-- 37.645
1.86 --undefined-- 37.130
1.87 --undefined-- 36.252
1.88 --undefined-- 34.943
1.89 --undefined-- 35.452
1.90 --undefined-- 37.560
1.91 --undefined-- 38.352
1.92 --undefined-- 37.468
1.93 --undefined-- 36.696
1.94 --undefined-- 36.475
1.95 --undefined-- 35.051
1.96 --undefined-- 34.321
1.97 --undefined-- 35.475
1.98 --undefined-- 35.901
1.99 --undefined-- 35.520
2.00 --undefined-- 35.860
2.01 --undefined-- 38.117
2.02 --undefined-- 39.992
2.03 --undefined-- 45.739
2.04 --undefined-- 56.780
2.05 --undefined-- 63.671
2.06 --undefined-- 67.499
2.07 180.458 70.205
2.08 175.765 72.837
2.09 177.815 74.767
2.10 181.677 75.373
2.11 184.961 75.124
2.12 190.804 75.240
2.13 191.105 75.837
2.14 190.366 76.234
2.15 189.691 76.384
2.16 186.523 76.430
2.17 182.031 76.300
2.18 177.189 75.679
2.19 169.062 74.452
2.20 160.204 73.217
2.21 156.196 73.435
2.22 155.898 75.140
2.23 150.616 76.814
2.24 149.848 77.469
2.25 146.990 76.804
2.26 141.259 74.884
2.27 130.266 71.828
2.28 123.518 68.089
2.29 --undefined-- 64.487
2.30 --undefined-- 61.346
2.31 --undefined-- 59.916
2.32 --undefined-- 60.482
2.33 --undefined-- 61.969
2.34 118.278 64.470
2.35 124.237 67.945
2.36 125.843 71.099
2.37 129.590 73.343
2.38 128.964 74.603
2.39 124.901 75.044
2.40 121.749 74.982
2.41 114.027 74.478
2.42 111.488 73.649
2.43 110.929 72.592
2.44 112.861 72.006
2.45 113.824 72.212
2.46 115.374 72.766
2.47 116.534 73.319
2.48 116.131 73.682
2.49 115.910 73.857
2.50 115.788 73.805
2.51 115.993 73.382
2.52 114.378 72.182
2.53 110.971 69.593
2.54 94.423 65.032
2.55 91.297 58.831
2.56 --undefined-- 53.883
2.57 --undefined-- 50.810
2.58 --undefined-- 48.214
2.59 --undefined-- 46.442
2.60 --undefined-- 45.937
2.61 --undefined-- 52.099
2.62 --undefined-- 62.476
2.63 --undefined-- 69.512
2.64 --undefined-- 73.162
2.65 130.351 74.545
2.66 125.372 74.844
2.67 122.248 74.432
2.68 120.123 73.347
2.69 122.014 72.291
2.70 123.744 72.043
2.71 124.123 72.325
2.72 123.569 72.550
2.73 121.020 72.045
2.74 118.107 70.349
2.75 115.283 67.904
2.76 114.118 67.026
2.77 114.193 69.081
2.78 112.092 70.745
2.79 110.493 71.091
2.80 106.773 70.941
2.81 106.356 70.914
2.82 107.706 71.214
2.83 112.538 71.854
2.84 121.376 72.584
2.85 127.072 72.877
2.86 130.830 72.741
2.87 137.688 73.035
2.88 141.044 73.679
2.89 143.153 73.989
2.90 144.022 74.209
2.91 146.281 75.322
2.92 151.631 77.366
2.93 149.010 78.829
2.94 148.671 79.332
2.95 151.358 79.581
2.96 155.613 79.734
2.97 163.309 79.502
2.98 168.242 78.765
2.99 169.134 77.040
3.00 167.001 73.663
3.01 --undefined-- 68.837
3.02 --undefined-- 64.427
3.03 --undefined-- 59.624
3.04 --undefined-- 53.134
3.05 --undefined-- 49.085
3.06 --undefined-- 44.964
3.07 --undefined-- 40.671
3.08 --undefined-- 38.989
3.09 --undefined-- 38.913
3.10 --undefined-- 38.755
3.11 --undefined-- 37.033
3.12 --undefined-- 35.543
3.13 --undefined-- 35.758
3.14 --undefined-- 36.697
3.15 --undefined-- 37.442
3.16 --undefined-- 37.374
3.17 --undefined-- 35.978
3.18 --undefined-- 34.776
3.19 --undefined-- 34.516
3.20 --undefined-- 34.537
3.21 --undefined-- 34.766
3.22 --undefined-- 35.425
3.23 --undefined-- 36.639
3.24 --undefined-- 37.828
3.25 --undefined-- 38.205
3.26 --undefined-- 36.987
3.27 --undefined-- 35.455
3.28 --undefined-- 36.161
3.29 --undefined-- 36.464
3.30 --undefined-- 35.834
3.31 --undefined-- 36.700
3.32 --undefined-- 38.092
3.33 --undefined-- 38.295
3.34 --undefined-- 38.441
3.35 --undefined-- 39.391
3.36 --undefined-- 40.418
3.37 --undefined-- 40.652
3.38 --undefined-- 39.326
3.39 --undefined-- 38.020
3.40 --undefined-- 38.696
3.41 --undefined-- 39.127
3.42 --undefined-- 38.523
3.43 --undefined-- 37.654
3.44 --undefined-- 37.794
3.45 --undefined-- 37.930
3.46 --undefined-- 39.298
3.47 --undefined-- 41.525
3.48 --undefined-- 41.884
3.49 --undefined-- 40.142
3.50 --undefined-- 38.735
3.51 --undefined-- 40.258
3.52 --undefined-- 42.499
3.53 --undefined-- 45.631
3.54 --undefined-- 49.782
3.55 --undefined-- 53.118
3.56 --undefined-- 55.010
3.57 --undefined-- 58.106
3.58 --undefined-- 65.347
3.59 --undefined-- 70.733
3.60 125.542 73.502
3.61 125.046 74.409
3.62 119.751 74.211
3.63 117.565 73.927
3.64 116.543 73.931
3.65 115.118 73.686
3.66 113.303 73.119
3.67 112.626 72.632
3.68 112.748 72.450
3.69 113.233 72.451
3.70 111.712 72.419
3.71 112.236 72.374
3.72 111.739 72.122
3.73 109.444 71.522
3.74 107.577 71.244
3.75 111.106 71.878
3.76 116.220 72.718
3.77 117.952 72.983
3.78 116.364 72.379
3.79 111.687 70.527
3.80 108.036 66.904
3.81 102.612 61.027
3.82 --undefined-- 52.944
3.83 --undefined-- 49.514
3.84 --undefined-- 58.290
3.85 --undefined-- 65.239
3.86 169.359 70.919
3.87 163.367 74.963
3.88 159.189 77.103
3.89 153.649 77.930
3.90 151.044 78.169
3.91 150.103 78.254
3.92 149.359 78.407
3.93 148.328 78.676
3.94 147.088 78.908
3.95 145.810 79.017
3.96 144.913 78.981
3.97 144.779 78.868
3.98 145.332 78.815
3.99 146.140 78.737
4.00 147.665 78.472
4.01 149.106 78.038
4.02 150.156 77.564
4.03 150.897 77.096
4.04 151.370 76.665
4.05 151.923 76.218
4.06 152.953 75.509
4.07 153.967 74.526
4.08 152.863 73.372
4.09 150.192 71.661
4.10 145.841 69.227
4.11 144.698 66.815
4.12 147.844 64.346
4.13 --undefined-- 61.349
4.14 --undefined-- 57.479
4.15 --undefined-- 51.823
4.16 --undefined-- 45.285
4.17 --undefined-- 44.435
4.18 --undefined-- 45.013
4.19 --undefined-- 42.727
4.20 --undefined-- 39.726
4.21 --undefined-- 38.263
4.22 --undefined-- 36.867
4.23 --undefined-- 36.615
4.24 --undefined-- 37.017
4.25 --undefined-- 36.562
4.26 --undefined-- 36.495
4.27 --undefined-- 36.639
4.28 --undefined-- 35.649
4.29 --undefined-- 34.552
4.30 --undefined-- 36.681
4.31 --undefined-- 39.012
4.32 --undefined-- 38.921
4.33 --undefined-- 37.269
4.34 --undefined-- 36.916
4.35 --undefined-- 38.766
4.36 --undefined-- 40.578
4.37 --undefined-- 42.053
4.38 --undefined-- 43.514
4.39 --undefined-- 45.416
4.40 --undefined-- 48.442
4.41 --undefined-- 53.662
4.42 --undefined-- 61.256
4.43 --undefined-- 67.664
4.44 146.136 71.666
4.45 134.921 73.857
4.46 130.261 74.743
4.47 127.470 74.824
4.48 124.627 74.366
4.49 122.234 72.670
4.50 --undefined-- 68.742
4.51 --undefined-- 61.932
4.52 --undefined-- 52.704
4.53 --undefined-- 47.426
4.54 --undefined-- 49.437
4.55 --undefined-- 54.596
4.56 --undefined-- 57.421
4.57 --undefined-- 57.491
4.58 --undefined-- 56.738
4.59 --undefined-- 60.826
4.60 141.715 66.545
4.61 121.196 69.919
4.62 117.243 71.731
4.63 115.211 72.774
4.64 115.047 73.132
4.65 117.772 72.721
4.66 120.653 71.673
4.67 119.781 69.600
4.68 114.724 65.932
4.69 115.894 61.248
4.70 --undefined-- 56.087
4.71 --undefined-- 50.605
4.72 --undefined-- 46.094
4.73 --undefined-- 48.708
4.74 --undefined-- 58.608
4.75 --undefined-- 66.692
4.76 --undefined-- 72.121
4.77 151.130 75.119
4.78 145.512 76.287
4.79 140.514 76.708
4.80 139.111 77.251
4.81 139.101 77.759
4.82 140.064 77.942
4.83 141.162 77.807
4.84 141.313 77.507
4.85 141.203 77.300
4.86 141.029 77.286
4.87 141.296 77.358
4.88 141.553 77.390
4.89 141.911 77.398
4.90 141.982 77.343
4.91 142.506 76.933
4.92 142.569 75.952
4.93 142.139 74.298
4.94 142.163 72.206
4.95 141.915 70.134
4.96 139.477 68.162
4.97 138.279 65.741
4.98 121.473 62.799
4.99 --undefined-- 59.316
5.00 --undefined-- 53.752
5.01 --undefined-- 45.331
5.02 --undefined-- 40.582
5.03 --undefined-- 39.866
5.04 --undefined-- 39.340
5.05 --undefined-- 39.013
5.06 --undefined-- 38.108
5.07 --undefined-- 36.969
5.08 --undefined-- 36.882
5.09 --undefined-- 38.286
5.10 --undefined-- 40.582
5.11 --undefined-- 47.068
5.12 --undefined-- 53.481
5.13 --undefined-- 56.583
5.14 --undefined-- 57.319
5.15 --undefined-- 57.593
5.16 --undefined-- 58.936
5.17 --undefined-- 61.958
5.18 --undefined-- 65.012
5.19 109.879 66.462
5.20 107.494 66.943
5.21 105.739 66.984
5.22 103.715 66.930
5.23 102.570 67.005
5.24 104.313 67.079
5.25 101.829 66.769
5.26 100.220 66.079
5.27 98.162 65.358
5.28 95.784 64.770
5.29 97.105 64.630
5.30 98.378 64.895
5.31 100.689 64.869
5.32 103.641 63.625
5.33 100.990 60.347
5.34 --undefined-- 54.731
5.35 --undefined-- 47.627
5.36 --undefined-- 42.371
5.37 --undefined-- 40.793
5.38 --undefined-- 41.821
5.39 --undefined-- 47.773
5.40 --undefined-- 56.759
5.41 --undefined-- 62.570
5.42 119.818 65.153
5.43 100.895 65.323
5.44 101.383 64.179
5.45 92.195 63.004
5.46 89.067 62.435
5.47 90.117 62.549
5.48 89.795 62.958
5.49 90.635 63.617
5.50 93.955 64.619
5.51 96.721 65.601
5.52 99.112 66.299
5.53 101.134 66.342
5.54 101.249 65.266
5.55 102.555 62.814
5.56 103.687 58.742
5.57 --undefined-- 53.355
5.58 --undefined-- 47.556
5.59 --undefined-- 45.574
5.60 --undefined-- 55.620
5.61 --undefined-- 65.229
5.62 150.901 71.134
5.63 142.799 74.312
5.64 136.066 75.876
5.65 131.072 76.653
5.66 130.885 77.270
5.67 130.530 77.738
5.68 130.297 77.971
5.69 130.169 77.836
5.70 129.819 77.242
5.71 129.778 76.342
5.72 130.680 75.303
5.73 130.248 73.964
5.74 129.005 71.890
5.75 126.891 68.876
5.76 125.330 65.126
5.77 --undefined-- 61.358
5.78 --undefined-- 57.946
5.79 --undefined-- 54.583
5.80 --undefined-- 51.325
5.81 --undefined-- 50.835
5.82 --undefined-- 50.829
5.83 --undefined-- 49.602
5.84 --undefined-- 50.403
5.85 --undefined-- 50.561
5.86 --undefined-- 48.638
5.87 --undefined-- 45.101
5.88 --undefined-- 40.304
5.89 --undefined-- 36.410
5.90 --undefined-- 35.363
5.91 --undefined-- 36.109
5.92 --undefined-- 37.440
5.93 --undefined-- 38.033
5.94 --undefined-- 38.461
5.95 --undefined-- 38.478
5.96 --undefined-- 37.099
5.97 --undefined-- 35.136
5.98 --undefined-- 34.819
5.99 --undefined-- 34.795
6.00 --undefined-- 34.916
6.01 --undefined-- 36.620
6.02 --undefined-- 37.985
6.03 --undefined-- 37.823
6.04 --undefined-- 37.632
6.05 --undefined-- 38.000
6.06 --undefined-- 37.472
6.07 --undefined-- 36.030
6.08 --undefined-- 35.021
6.09 --undefined-- 35.001
6.10 --undefined-- 33.880
6.11 --undefined-- 34.045
6.12 --undefined-- 35.958
6.13 --undefined-- 36.248
6.14 --undefined-- 36.481
6.15 --undefined-- 36.921
6.16 --undefined-- 36.885
6.17 --undefined-- 37.164
6.18 --undefined-- 37.460
6.19 --undefined-- 37.555
6.20 --undefined-- 37.151
6.21 --undefined-- 36.920
6.22 --undefined-- 38.508
6.23 --undefined-- 40.002
6.24 --undefined-- 39.480
6.25 --undefined-- 36.907
6.26 --undefined-- 34.437
6.27 --undefined-- 35.081
6.28 --undefined-- 35.554
6.29 --undefined-- 35.104
6.30 --undefined-- 35.924
6.31 --undefined-- 36.767
6.32 --undefined-- 37.500
6.33 --undefined-- 37.819
6.34 --undefined-- 36.972
6.35 --undefined-- 35.698
6.36 --undefined-- 36.745
6.37 --undefined-- 40.178
6.38 --undefined-- 44.749
6.39 --undefined-- 53.655
6.40 --undefined-- 63.945
6.41 --undefined-- 70.598
6.42 147.395 74.229
6.43 140.849 76.089
6.44 138.918 77.063
6.45 139.920 77.616
6.46 143.103 77.927
6.47 143.847 78.059
6.48 143.055 77.657
6.49 143.005 76.572
6.50 142.391 75.829
6.51 145.288 76.317
6.52 147.571 76.848
6.53 147.973 76.773
6.54 151.098 76.124
6.55 150.791 75.104
6.56 142.219 74.386
6.57 138.073 73.727
6.58 133.100 72.344
6.59 132.035 70.741
6.60 134.833 70.378
6.61 143.307 71.580
6.62 149.767 73.220
6.63 148.465 74.525
6.64 143.713 75.110
6.65 140.476 75.035
6.66 139.129 74.626
6.67 142.949 74.074
6.68 142.064 73.570
6.69 143.253 73.504
6.70 144.381 73.930
6.71 144.934 74.233
6.72 145.158 74.148
6.73 144.824 73.880
6.74 144.808 73.639
6.75 144.502 73.247
6.76 143.647 72.295
6.77 141.074 70.395
6.78 134.342 67.355
6.79 --undefined-- 64.098
6.80 --undefined-- 60.889
6.81 --undefined-- 55.460
6.82 --undefined-- 47.714
6.83 --undefined-- 42.844
6.84 --undefined-- 41.883
6.85 --undefined-- 42.367
6.86 --undefined-- 41.762
6.87 --undefined-- 40.942
6.88 --undefined-- 41.243
6.89 --undefined-- 41.333
6.90 --undefined-- 40.447
6.91 --undefined-- 38.861
6.92 --undefined-- 36.916
6.93 --undefined-- 34.753
6.94 --undefined-- 33.049
6.95 --undefined-- 31.385
6.96 --undefined-- 32.309
6.97 --undefined-- 36.126
6.98 --undefined-- 38.367
6.99 --undefined-- 38.353
7.00 --undefined-- 39.187
7.01 --undefined-- 51.402
7.02 --undefined-- 60.556
7.03 --undefined-- 66.008
7.04 --undefined-- 69.576
7.05 140.427 72.329
7.06 145.987 74.570
7.07 148.113 76.436
7.08 150.985 77.798
7.09 155.052 78.203
7.10 162.194 77.607
7.11 170.976 76.602
7.12 173.966 74.700
7.13 170.608 70.865
7.14 161.769 64.907
7.15 163.910 58.249
7.16 --undefined-- 51.086
7.17 --undefined-- 45.618
7.18 --undefined-- 42.859
7.19 --undefined-- 40.082
7.20 --undefined-- --undefined--
7.21 --undefined-- --undefined--
7.22 --undefined-- --undefined--
7.23 --undefined-- --undefined--
