Time Pitch Intensity
0.01 --undefined-- --undefined--
0.02 104.203 --undefined--
0.03 108.726 --undefined--
0.04 111.428 --undefined--
0.05 114.468 64.983
0.06 116.220 65.451
0.07 117.776 65.827
0.08 117.859 66.318
0.09 116.832 66.645
0.10 115.269 66.016
0.11 112.391 63.716
0.12 109.161 59.321
0.13 --undefined-- 52.889
0.14 --undefined-- 46.858
0.15 --undefined-- 44.802
0.16 --undefined-- 44.533
0.17 --undefined-- 44.344
0.18 --undefined-- 44.622
0.19 --undefined-- 50.131
0.20 --undefined-- 57.385
0.21 --undefined-- 62.352
0.22 130.979 65.311
0.23 130.229 66.849
0.24 130.289 67.412
0.25 131.937 67.522
0.26 132.299 67.390
0.27 132.213 66.775
0.28 128.133 65.417
0.29 123.525 63.150
0.30 114.439 60.209
0.31 111.041 57.180
0.32 105.365 53.776
0.33 161.016 51.642
0.34 162.232 55.604
0.35 150.896 61.664
0.36 138.016 65.488
0.37 135.700 66.911
0.38 132.822 66.731
0.39 127.511 66.298
0.40 125.814 66.337
0.41 123.285 66.454
0.42 122.501 66.398
0.43 121.633 66.253
0.44 121.302 66.127
0.45 122.413 65.831
0.46 125.779 65.462
0.47 127.550 65.324
0.48 128.991 65.706
0.49 131.195 66.512
0.50 136.254 67.628
0.51 134.387 69.187
0.52 135.066 70.446
0.53 136.368 70.967
0.54 138.939 70.661
0.55 140.307 69.916
0.56 141.837 69.052
0.57 142.564 67.889
0.58 143.685 66.193
0.59 145.176 63.942
0.60 149.256 61.252
0.61 155.460 58.221
0.62 169.416 54.860
0.63 142.769 50.640
0.64 --undefined-- 46.547
0.65 --undefined-- 43.885
0.66 --undefined-- 41.163
0.67 --undefined-- 39.929
0.68 --undefined-- 41.428
0.69 --undefined-- 43.528
0.70 --undefined-- 44.935
0.71 --undefined-- 45.351
0.72 --undefined-- 45.844
0.73 --undefined-- 46.365
0.74 --undefined-- 46.200
0.75 --undefined-- 46.269
0.76 --undefined-- 46.424
0.77 --undefined-- 45.871
0.78 --undefined-- 44.872
0.79 --undefined-- 44.185
0.80 --undefined-- 43.439
0.81 --undefined-- 42.215
0.82 --undefined-- 40.712
0.83 --undefined-- 39.353
0.84 --undefined-- 38.178
0.85 --undefined-- 36.048
0.86 --undefined-- 33.408
0.87 --undefined-- 32.719
0.88 --undefined-- 34.710
0.89 --undefined-- 37.749
0.90 --undefined-- 41.467
0.91 --undefined-- 45.628
0.92 --undefined-- 49.011
0.93 --undefined-- 51.839
0.94 --undefined-- 56.531
0.95 168.821 63.280
0.96 170.043 68.427
0.97 167.857 70.970
0.98 151.950 71.298
0.99 134.434 70.430
1.00 133.846 69.319
1.01 128.423 68.409
1.02 127.670 68.245
1.03 123.870 68.163
1.04 121.956 67.425
1.05 118.773 66.840
1.06 116.950 66.151
1.07 112.873 64.232
1.08 111.370 61.087
1.09 --undefined-- 57.311
1.10 --undefined-- 52.768
1.11 --undefined-- 48.687
1.12 --undefined-- 46.643
1.13 --undefined-- 44.639
1.14 --undefined-- 43.073
1.15 --undefined-- 43.179
1.16 --undefined-- 47.509
1.17 --undefined-- 56.529
1.18 192.270 63.614
1.19 174.686 67.782
1.20 172.800 70.074
1.21 170.906 71.406
1.22 169.244 72.071
1.23 167.595 72.159
1.24 164.636 71.662
1.25 160.127 70.772
1.26 157.171 70.383
1.27 154.944 70.525
1.28 152.774 70.634
1.29 151.652 70.654
1.30 151.319 70.169
1.31 149.848 68.928
1.32 145.387 67.349
1.33 142.805 66.227
1.34 140.257 65.653
1.35 135.152 65.218
1.36 131.109 64.917
1.37 127.544 64.730
1.38 124.426 64.513
1.39 122.617 64.345
1.40 121.074 64.326
1.41 119.889 64.355
1.42 119.439 64.415
1.43 119.189 64.706
1.44 117.997 65.291
1.45 117.232 65.819
1.46 116.280 66.146
1.47 114.738 66.558
1.48 113.671 66.734
1.49 111.927 66.678
1.50 109.246 66.693
1.51 107.506 66.742
1.52 106.682 66.789
1.53 105.718 66.745
1.54 104.736 66.615
1.55 103.878 66.322
1.56 103.094 65.704
1.57 102.477 65.030
1.58 103.569 64.902
1.59 103.942 65.133
1.60 104.616 65.279
1.61 107.261 65.181
1.62 101.163 64.647
1.63 84.666 63.557
1.64 --undefined-- 61.509
1.65 --undefined-- 57.410
1.66 --undefined-- 53.496
1.67 --undefined-- 53.596
1.68 --undefined-- 53.142
1.69 --undefined-- 54.877
1.70 --undefined-- 56.790
1.71 --undefined-- 58.760
1.72 103.595 61.445
1.73 109.934 63.948
1.74 110.808 65.786
1.75 110.058 66.633
1.76 105.717 66.666
1.77 104.732 66.495
1.78 103.689 66.244
1.79 103.019 65.911
1.80 102.579 65.500
1.81 102.784 64.946
1.82 103.086 63.954
1.83 102.780 61.821
1.84 97.043 58.026
1.85 --undefined-- 53.042
1.86 --undefined-- 48.637
1.87 --undefined-- 46.076
1.88 --undefined-- 43.827
1.89 --undefined-- 40.143
1.90 --undefined-- 36.856
1.91 --undefined-- 36.383
1.92 --undefined-- 40.942
1.93 --undefined-- 47.012
1.94 --undefined-- 53.906
1.95 --undefined-- 62.366
1.96 --undefined-- 67.715
1.97 184.028 70.070
1.98 177.365 70.614
1.99 172.996 69.967
2.00 169.520 67.807
2.01 147.337 64.124
2.02 155.027 59.858
2.03 173.084 54.992
2.04 173.139 50.298
2.05 171.230 48.406
2.06 169.899 46.919
2.07 --undefined-- 43.965
2.08 --undefined-- 40.198
2.09 --undefined-- 38.006
2.10 --undefined-- 36.881
2.11 --undefined-- 35.887
2.12 --undefined-- 34.800
2.13 --undefined-- 34.754
2.14 --undefined-- 35.375
2.15 --undefined-- 40.720
2.16 --undefined-- 53.015
2.17 --undefined-- 61.733
2.18 --undefined-- 66.919
2.19 149.132 69.372
2.20 145.044 69.687
2.21 138.453 68.567
2.22 128.566 67.207
2.23 120.549 66.354
2.24 118.538 65.927
2.25 119.442 65.918
2.26 119.349 65.989
2.27 119.074 66.085
2.28 117.558 66.338
2.29 116.406 66.450
2.30 116.207 66.285
2.31 115.717 66.113
2.32 116.292 66.149
2.33 117.358 66.221
2.34 118.855 66.011
2.35 119.977 65.380
2.36 120.480 64.837
2.37 119.130 64.974
2.38 118.265 65.358
2.39 118.195 65.547
2.40 117.706 65.503
2.41 117.854 65.320
2.42 117.159 65.231
2.43 121.410 65.433
2.44 118.498 65.677
2.45 118.566 65.575
2.46 118.471 65.217
2.47 116.334 64.979
2.48 113.141 65.090
2.49 102.921 64.913
2.50 96.712 64.314
2.51 88.131 63.643
2.52 80.158 63.193
2.53 75.119 62.718
2.54 74.631 62.250
2.55 81.500 61.943
2.56 74.453 61.588
2.57 79.841 61.338
2.58 87.124 61.260
2.59 87.647 61.064
2.60 89.399 60.693
2.61 89.564 60.259
2.62 90.514 59.689
2.63 89.394 59.024
2.64 90.587 58.733
2.65 98.217 58.962
2.66 98.723 59.316
2.67 100.725 59.798
2.68 101.355 60.185
2.69 101.184 60.092
2.70 101.034 59.418
2.71 101.017 58.304
2.72 99.421 57.403
2.73 98.192 57.629
2.74 97.692 59.247
2.75 98.445 61.299
2.76 99.926 62.867
2.77 103.859 64.011
2.78 106.568 65.029
2.79 108.632 65.871
2.80 110.945 66.388
2.81 115.687 66.468
2.82 128.085 66.241
2.83 136.076 66.263
2.84 139.450 66.268
2.85 146.984 65.732
2.86 149.597 64.504
2.87 155.678 62.188
2.88 164.155 58.314
2.89 --undefined-- 52.494
2.90 --undefined-- 45.958
2.91 --undefined-- 43.658
2.92 --undefined-- 41.688
2.93 --undefined-- 38.774
2.94 --undefined-- 39.143
2.95 --undefined-- 43.130
2.96 --undefined-- 46.611
2.97 --undefined-- 49.980
2.98 --undefined-- 59.219
2.99 --undefined-- 66.056
3.00 278.062 69.325
3.01 276.732 69.828
3.02 276.206 68.418
3.03 274.072 66.266
3.04 277.917 64.088
3.05 280.415 61.037
3.06 279.532 56.409
3.07 --undefined-- 50.125
3.08 --undefined-- 43.790
3.09 --undefined-- 41.019
3.10 --undefined-- 39.583
3.11 --undefined-- 40.217
3.12 --undefined-- 50.615
3.13 --undefined-- 60.835
3.14 --undefined-- 67.494
3.15 234.209 71.235
3.16 222.885 72.776
3.17 212.623 72.798
3.18 202.451 72.013
3.19 192.622 71.007
3.20 186.062 70.158
3.21 182.377 69.688
3.22 178.392 69.789
3.23 175.338 70.528
3.24 173.245 71.316
3.25 170.611 71.596
3.26 166.698 71.223
3.27 161.776 70.436
3.28 157.330 69.935
3.29 154.582 69.884
3.30 145.916 69.601
3.31 138.358 68.873
3.32 131.958 67.725
3.33 121.465 66.655
3.34 115.268 66.172
3.35 109.647 66.073
3.36 104.909 65.783
3.37 101.068 65.090
3.38 98.752 64.385
3.39 99.403 63.968
3.40 102.081 63.936
3.41 104.909 64.115
3.42 106.387 64.278
3.43 109.114 64.574
3.44 110.716 65.012
3.45 111.528 65.314
3.46 111.962 65.327
3.47 111.656 64.983
3.48 111.024 64.284
3.49 110.845 63.476
3.50 112.362 62.942
3.51 116.202 62.887
3.52 121.763 63.332
3.53 129.840 64.571
3.54 137.390 66.508
3.55 146.609 68.286
3.56 154.594 69.320
3.57 162.199 69.540
3.58 166.857 69.454
3.59 171.551 69.756
3.60 179.196 70.404
3.61 183.672 70.777
3.62 188.921 70.788
3.63 193.081 70.624
3.64 199.047 70.429
3.65 200.916 70.268
3.66 201.078 69.953
3.67 199.197 69.287
3.68 190.314 68.413
3.69 184.451 67.480
3.70 175.970 67.145
3.71 169.920 68.018
3.72 164.274 68.753
3.73 156.270 68.702
3.74 145.730 68.405
3.75 136.780 68.112
3.76 128.928 67.856
3.77 124.368 67.755
3.78 123.985 67.861
3.79 125.911 67.932
3.80 130.119 67.573
3.81 134.358 66.848
3.82 135.387 65.745
3.83 134.550 63.944
3.84 133.344 61.145
3.85 133.034 56.707
3.86 --undefined-- 50.690
3.87 --undefined-- 45.203
3.88 --undefined-- 41.968
3.89 --undefined-- 43.120
3.90 --undefined-- 52.290
3.91 --undefined-- 60.163
3.92 156.575 64.900
3.93 144.164 66.910
3.94 130.371 66.868
3.95 122.852 66.339
3.96 118.216 66.682
3.97 116.775 67.283
3.98 117.259 67.197
3.99 120.979 66.418
4.00 126.941 65.526
4.01 131.266 64.803
4.02 133.335 63.667
4.03 133.341 60.730
4.04 --undefined-- 55.479
4.05 --undefined-- 49.611
4.06 --undefined-- 47.243
4.07 --undefined-- 46.142
4.08 --undefined-- 44.421
4.09 --undefined-- 41.987
4.10 --undefined-- 40.173
4.11 --undefined-- 40.076
4.12 --undefined-- 41.271
4.13 --undefined-- 42.356
4.14 --undefined-- 42.480
4.15 --undefined-- 41.806
4.16 --undefined-- 41.824
4.17 --undefined-- 45.222
4.18 --undefined-- 50.467
4.19 --undefined-- 54.349
4.20 --undefined-- 57.147
4.21 --undefined-- 59.182
4.22 96.503 60.685
4.23 91.878 61.592
4.24 86.799 61.746
4.25 83.776 61.166
4.26 78.439 59.744
4.27 76.668 58.396
4.28 82.659 58.838
4.29 87.221 60.311
4.30 93.329 61.649
4.31 99.720 62.652
4.32 103.807 63.640
4.33 111.197 64.684
4.34 119.462 65.820
4.35 125.121 66.992
4.36 130.323 67.886
4.37 136.140 68.222
4.38 137.320 67.647
4.39 136.878 66.048
4.40 136.395 63.529
4.41 136.942 59.646
4.42 164.948 54.369
4.43 --undefined-- 48.211
4.44 --undefined-- 44.164
4.45 --undefined-- 44.323
4.46 --undefined-- 44.535
4.47 --undefined-- 44.503
4.48 --undefined-- 45.172
4.49 --undefined-- 46.193
4.50 --undefined-- 46.645
4.51 --undefined-- 46.979
4.52 --undefined-- 47.280
4.53 --undefined-- 47.278
4.54 --undefined-- 47.521
4.55 --undefined-- 47.715
4.56 --undefined-- 47.403
4.57 --undefined-- 47.022
4.58 --undefined-- 46.008
4.59 --undefined-- 43.982
4.60 --undefined-- 41.766
4.61 --undefined-- 39.660
4.62 --undefined-- 37.363
4.63 --undefined-- 35.765
4.64 --undefined-- 35.394
4.65 --undefined-- 36.419
4.66 --undefined-- 37.112
4.67 --undefined-- 39.065
4.68 --undefined-- 42.933
4.69 --undefined-- 49.216
4.70 --undefined-- 58.944
4.71 161.668 66.496
4.72 158.347 71.010
4.73 149.550 73.051
4.74 146.114 73.361
4.75 146.146 73.063
4.76 150.631 73.222
4.77 152.174 73.603
4.78 153.999 73.193
4.79 158.004 71.667
4.80 157.903 69.780
4.81 157.377 68.549
4.82 156.911 68.595
4.83 155.782 69.822
4.84 153.579 71.039
4.85 148.173 71.242
4.86 141.690 70.661
4.87 131.177 69.781
4.88 128.016 68.684
4.89 120.003 67.891
4.90 108.846 67.515
4.91 106.640 66.949
4.92 105.039 66.538
4.93 106.669 66.459
4.94 110.211 66.327
4.95 114.696 66.379
4.96 116.653 66.342
4.97 116.439 65.979
4.98 114.121 65.491
4.99 112.369 64.692
5.00 111.653 63.646
5.01 111.389 62.840
5.02 112.423 62.609
5.03 114.632 63.035
5.04 117.240 63.870
5.05 119.749 64.582
5.06 122.522 64.902
5.07 122.949 65.053
5.08 123.990 65.313
5.09 125.674 65.645
5.10 128.277 66.287
5.11 129.703 67.185
5.12 130.962 67.718
5.13 131.678 67.315
5.14 130.616 65.440
5.15 124.321 62.185
5.16 123.755 58.681
5.17 127.895 54.657
5.18 130.718 49.101
5.19 --undefined-- 44.806
5.20 --undefined-- 42.492
5.21 --undefined-- 41.491
5.22 --undefined-- 47.930
5.23 --undefined-- 57.944
5.24 --undefined-- 64.635
5.25 --undefined-- 67.939
5.26 --undefined-- 68.622
5.27 --undefined-- 67.791
5.28 133.144 66.642
5.29 131.682 66.128
5.30 127.763 66.341
5.31 124.127 66.593
5.32 121.809 66.455
5.33 119.512 66.109
5.34 118.760 65.648
5.35 118.764 65.154
5.36 119.650 65.050
5.37 120.602 65.485
5.38 121.547 66.149
5.39 121.362 66.756
5.40 121.104 66.698
5.41 121.880 --undefined--
5.42 119.751 --undefined--
5.43 --undefined-- --undefined--
5.44 --undefined-- --undefined--
