Time Pitch Intensity
0.01 --undefined-- --undefined--
0.02 --undefined-- --undefined--
0.03 --undefined-- --undefined--
0.04 --undefined-- --undefined--
0.05 182.547 77.279
0.06 179.051 78.143
0.07 175.780 77.922
0.08 173.101 77.465
0.09 170.379 77.382
0.10 168.014 77.673
0.11 167.150 78.108
0.12 166.452 78.567
0.13 166.952 78.739
0.14 169.477 78.509
0.15 169.559 78.147
0.16 168.802 77.609
0.17 167.245 76.185
0.18 161.277 73.442
0.19 160.160 69.880
0.20 152.518 66.296
0.21 148.826 63.832
0.22 147.663 62.987
0.23 147.319 63.931
0.24 --undefined-- 65.074
0.25 --undefined-- 66.104
0.26 --undefined-- 70.910
0.27 136.706 74.609
0.28 129.935 75.446
0.29 119.151 74.264
0.30 111.708 72.194
0.31 108.085 70.337
0.32 107.840 69.285
0.33 112.099 69.130
0.34 117.140 69.319
0.35 123.678 69.487
0.36 130.162 69.994
0.37 137.700 71.020
0.38 145.130 72.186
0.39 151.257 73.071
0.40 155.140 73.625
0.41 157.314 74.183
0.42 156.506 74.980
0.43 152.937 75.815
0.44 147.262 76.494
0.45 141.038 76.995
0.46 136.756 77.554
0.47 129.876 78.195
0.48 125.586 78.673
0.49 121.968 78.815
0.50 119.736 78.520
0.51 120.166 77.874
0.52 120.951 77.240
0.53 122.114 76.849
0.54 125.096 76.574
0.55 127.990 76.127
0.56 127.855 75.012
0.57 121.024 73.200
0.58 --undefined-- 71.387
0.59 --undefined-- 69.651
0.60 --undefined-- 68.125
0.61 --undefined-- 67.412
0.62 --undefined-- 67.454
0.63 --undefined-- 67.639
0.64 --undefined-- 67.816
0.65 110.002 68.432
0.66 111.801 69.632
0.67 117.068 70.946
0.68 118.238 72.069
0.69 118.868 72.988
0.70 118.577 73.548
0.71 117.239 73.890
0.72 116.356 74.188
0.73 115.183 74.459
0.74 114.054 74.852
0.75 113.661 74.955
0.76 111.470 73.575
0.77 101.070 70.131
0.78 111.445 65.832
0.79 111.577 61.878
0.80 112.732 57.293
0.81 --undefined-- 52.976
0.82 --undefined-- 57.339
0.83 --undefined-- 64.789
0.84 116.978 69.744
0.85 109.797 72.177
0.86 107.728 73.140
0.87 108.448 73.794
0.88 111.164 74.543
0.89 115.642 75.218
0.90 119.562 75.647
0.91 122.614 75.956
0.92 126.049 76.295
0.93 128.960 76.571
0.94 132.095 76.723
0.95 136.459 76.888
0.96 141.255 77.154
0.97 146.116 77.440
0.98 149.483 77.513
0.99 149.667 76.526
1.00 146.576 73.624
1.01 150.512 69.343
1.02 151.015 65.429
1.03 149.182 61.806
1.04 145.270 63.466
1.05 --undefined-- 70.855
1.06 175.390 75.494
1.07 167.670 77.309
1.08 161.043 77.175
1.09 156.832 75.545
1.10 158.144 72.182
1.11 140.333 66.712
1.12 162.806 59.807
1.13 160.197 54.736
1.14 --undefined-- 51.638
1.15 --undefined-- 49.739
1.16 --undefined-- 51.212
1.17 --undefined-- 59.649
1.18 --undefined-- 67.928
1.19 --undefined-- 72.834
1.20 144.651 74.624
1.21 142.639 73.555
1.22 133.610 69.814
1.23 139.003 64.582
1.24 143.041 59.805
1.25 --undefined-- 56.148
1.26 --undefined-- 59.899
1.27 151.404 65.635
1.28 149.705 69.114
1.29 135.659 70.069
1.30 133.771 69.472
1.31 133.995 70.027
1.32 137.388 72.804
1.33 138.895 75.292
1.34 138.877 76.494
1.35 135.890 76.719
1.36 133.500 76.818
1.37 131.447 77.250
1.38 130.590 77.936
1.39 130.226 78.568
1.40 130.088 78.911
1.41 130.970 79.127
1.42 132.907 79.247
1.43 131.301 78.498
1.44 128.777 75.858
1.45 117.994 70.821
1.46 115.115 68.092
1.47 134.298 72.938
1.48 128.394 76.338
1.49 123.014 77.394
1.50 117.364 77.068
1.51 115.755 76.589
1.52 114.541 76.385
1.53 114.198 76.421
1.54 115.741 76.493
1.55 118.301 76.408
1.56 121.634 76.423
1.57 125.255 76.818
1.58 128.641 77.523
1.59 134.261 78.464
1.60 140.191 79.413
1.61 147.335 80.051
1.62 156.548 80.166
1.63 161.284 79.997
1.64 163.929 80.078
1.65 170.362 80.155
1.66 173.411 79.605
1.67 173.676 78.203
1.68 171.988 75.591
1.69 171.757 71.002
1.70 169.597 63.839
1.71 170.932 55.841
1.72 171.557 52.772
1.73 167.114 51.418
1.74 --undefined-- 51.169
1.75 --undefined-- 52.276
1.76 --undefined-- 53.375
1.77 --undefined-- 53.582
1.78 --undefined-- 53.365
1.79 --undefined-- 54.026
1.80 --undefined-- 55.015
1.81 --undefined-- 55.488
1.82 --undefined-- 55.354
1.83 --undefined-- 55.089
1.84 --undefined-- 55.352
1.85 --undefined-- 55.125
1.86 --undefined-- 54.055
1.87 --undefined-- 52.839
1.88 --undefined-- 51.591
1.89 --undefined-- 50.266
1.90 --undefined-- 48.518
1.91 --undefined-- 46.599
1.92 --undefined-- 46.876
1.93 --undefined-- 48.042
1.94 --undefined-- 46.633
1.95 --undefined-- 44.394
1.96 --undefined-- 48.406
1.97 --undefined-- 56.182
1.98 --undefined-- 62.582
1.99 --undefined-- 65.563
2.00 --undefined-- 66.672
2.01 --undefined-- 71.394
2.02 136.878 75.523
2.03 133.122 76.986
2.04 133.995 76.871
2.05 134.346 76.535
2.06 133.999 76.401
2.07 133.809 76.360
2.08 137.191 76.308
2.09 140.518 76.299
2.10 141.115 76.421
2.11 141.298 76.554
2.12 142.352 76.580
2.13 144.725 76.605
2.14 147.313 76.903
2.15 149.046 77.430
2.16 150.738 77.823
2.17 152.208 77.976
2.18 152.548 77.914
2.19 153.723 77.549
2.20 155.395 76.958
2.21 156.127 76.772
2.22 158.137 77.896
2.23 159.799 79.475
2.24 160.905 80.127
2.25 161.690 80.064
2.26 161.784 79.960
2.27 162.127 79.698
2.28 161.108 79.192
2.29 159.624 78.634
2.30 158.673 78.044
2.31 157.955 77.389
2.32 158.070 76.662
2.33 158.564 75.820
2.34 157.396 74.865
2.35 157.530 74.127
2.36 157.087 74.044
2.37 156.063 74.276
2.38 155.551 74.486
2.39 154.523 74.628
2.40 152.897 74.442
2.41 151.163 73.651
2.42 148.876 72.020
2.43 146.853 69.109
2.44 151.511 64.520
2.45 154.941 59.680
2.46 --undefined-- 59.255
2.47 --undefined-- 61.538
2.48 --undefined-- 62.970
2.49 --undefined-- 64.164
2.50 --undefined-- 69.506
2.51 132.846 74.320
2.52 127.628 76.410
2.53 122.063 76.379
2.54 120.361 75.327
2.55 113.291 74.121
2.56 109.024 73.068
2.57 103.573 72.194
2.58 103.679 71.445
2.59 104.657 70.802
2.60 105.670 70.194
2.61 106.564 69.540
2.62 107.810 69.059
2.63 110.236 69.259
2.64 112.394 69.908
2.65 115.580 70.483
2.66 119.388 70.903
2.67 122.264 71.555
2.68 126.726 72.832
2.69 129.548 74.413
2.70 129.344 75.585
2.71 128.950 76.169
2.72 128.967 76.384
2.73 125.518 76.221
2.74 124.959 75.626
2.75 123.776 74.839
2.76 124.209 74.208
2.77 124.236 73.779
2.78 124.453 73.367
2.79 123.875 72.825
2.80 122.633 71.960
2.81 122.604 71.125
2.82 123.593 71.061
2.83 124.157 71.487
2.84 124.838 71.826
2.85 125.319 71.869
2.86 124.452 71.741
2.87 125.036 71.491
2.88 125.846 70.734
2.89 124.501 69.442
2.90 125.343 69.736
2.91 143.128 73.605
2.92 150.309 77.213
2.93 144.722 78.748
2.94 140.847 78.592
2.95 138.032 77.848
2.96 135.248 77.634
2.97 131.858 77.736
2.98 126.482 77.531
2.99 121.525 76.937
3.00 117.780 75.937
3.01 112.210 74.633
3.02 105.151 73.255
3.03 102.220 71.471
3.04 99.518 68.722
3.05 103.627 65.112
3.06 101.084 60.678
3.07 --undefined-- 55.085
3.08 --undefined-- 50.707
3.09 --undefined-- 49.430
3.10 --undefined-- 48.368
3.11 --undefined-- 47.357
3.12 --undefined-- 49.527
3.13 --undefined-- 51.658
3.14 --undefined-- 52.129
3.15 --undefined-- 52.081
3.16 --undefined-- 51.769
3.17 --undefined-- 51.373
3.18 --undefined-- 51.838
3.19 --undefined-- 52.877
3.20 --undefined-- 53.243
3.21 --undefined-- 53.466
3.22 --undefined-- 54.070
3.23 --undefined-- 54.087
3.24 --undefined-- 54.338
3.25 --undefined-- 55.414
3.26 --undefined-- 55.720
3.27 --undefined-- 54.694
3.28 --undefined-- 52.287
3.29 --undefined-- 48.194
3.30 --undefined-- 44.306
3.31 --undefined-- 43.302
3.32 --undefined-- 44.873
3.33 --undefined-- 55.004
3.34 203.703 64.237
3.35 193.575 69.836
3.36 198.873 72.811
3.37 204.836 74.268
3.38 210.720 74.977
3.39 216.357 75.298
3.40 219.917 75.634
3.41 220.243 76.003
3.42 217.307 75.719
3.43 204.636 74.413
3.44 188.026 72.374
3.45 172.377 69.798
3.46 180.059 67.193
3.47 178.943 68.550
3.48 173.090 74.007
3.49 168.118 77.949
3.50 165.934 79.880
3.51 162.033 80.730
3.52 156.738 81.016
3.53 152.664 80.906
3.54 150.325 80.657
3.55 147.746 80.391
3.56 147.181 79.984
3.57 150.881 79.713
3.58 151.152 79.964
3.59 149.545 80.398
3.60 147.272 80.045
3.61 145.292 78.007
3.62 145.437 74.251
3.63 147.097 70.267
3.64 145.865 66.691
3.65 147.288 63.116
3.66 147.251 62.036
3.67 --undefined-- 63.528
3.68 --undefined-- 69.013
3.69 --undefined-- 75.012
3.70 155.413 78.056
3.71 148.065 78.429
3.72 135.845 77.126
3.73 132.901 75.291
3.74 130.818 73.888
3.75 130.827 73.323
3.76 131.038 73.263
3.77 130.383 73.335
3.78 130.354 73.506
3.79 130.221 73.709
3.80 129.662 73.916
3.81 128.732 74.057
3.82 128.194 74.053
3.83 128.153 73.901
3.84 128.594 73.635
3.85 129.604 73.350
3.86 130.353 73.112
3.87 130.215 72.876
3.88 129.314 72.521
3.89 128.548 72.105
3.90 127.756 72.191
3.91 129.372 73.183
3.92 131.348 74.864
3.93 128.886 76.601
3.94 129.730 77.573
3.95 128.197 77.734
3.96 125.871 77.371
3.97 123.981 76.288
3.98 122.196 75.203
3.99 122.978 74.866
4.00 122.967 74.711
4.01 123.388 74.687
4.02 123.500 74.694
4.03 124.152 74.633
4.04 125.636 74.738
4.05 127.136 75.164
4.06 130.251 75.954
4.07 131.108 76.576
4.08 135.654 76.905
4.09 139.540 77.272
4.10 146.203 77.954
4.11 149.796 78.744
4.12 153.183 79.318
4.13 159.586 79.581
4.14 171.731 79.684
4.15 176.195 79.427
4.16 179.553 78.839
4.17 181.977 78.446
4.18 183.899 78.084
4.19 183.158 77.256
4.20 176.792 75.978
4.21 162.804 74.677
4.22 155.344 73.104
4.23 --undefined-- 70.655
4.24 79.365 68.151
4.25 86.544 67.490
4.26 101.861 68.481
4.27 120.789 69.975
4.28 138.806 71.709
4.29 143.044 73.694
4.30 147.040 75.441
4.31 149.155 76.568
4.32 149.063 77.246
4.33 148.397 77.779
4.34 147.421 78.230
4.35 146.391 78.606
4.36 147.228 78.852
4.37 149.246 78.788
4.38 151.875 78.088
4.39 153.074 76.249
4.40 148.677 73.029
4.41 149.231 68.773
4.42 151.789 64.035
4.43 151.102 59.623
4.44 152.192 58.920
4.45 --undefined-- 63.754
4.46 --undefined-- 71.220
4.47 187.153 75.973
4.48 185.369 77.919
4.49 182.024 78.151
4.50 179.029 77.699
4.51 177.146 76.988
4.52 176.513 76.371
4.53 176.063 76.228
4.54 173.273 76.259
4.55 169.390 76.110
4.56 166.777 75.814
4.57 164.415 75.061
4.58 159.829 73.016
4.59 156.823 69.659
4.60 152.046 67.417
4.61 158.065 70.627
4.62 156.027 74.849
4.63 151.602 77.195
4.64 142.191 77.742
4.65 125.707 77.260
4.66 118.925 76.544
4.67 115.235 75.330
4.68 111.264 72.732
4.69 110.837 68.264
4.70 97.615 61.849
4.71 108.257 55.811
4.72 113.434 54.245
4.73 119.269 54.071
4.74 --undefined-- 56.387
4.75 --undefined-- 64.498
4.76 --undefined-- 71.238
4.77 137.177 75.007
4.78 133.384 76.532
4.79 130.297 76.727
4.80 128.512 76.524
4.81 128.574 76.391
4.82 128.381 76.101
4.83 126.924 75.473
4.84 125.277 74.473
4.85 123.678 72.577
4.86 121.108 69.389
4.87 124.659 64.955
4.88 125.487 59.886
4.89 --undefined-- 59.619
4.90 --undefined-- 67.530
4.91 --undefined-- 73.772
4.92 130.721 76.628
4.93 125.437 76.891
4.94 114.774 76.002
4.95 111.826 75.174
4.96 111.281 74.636
4.97 110.571 74.374
4.98 110.348 74.262
4.99 110.012 73.949
5.00 110.906 72.617
5.01 106.277 69.488
5.02 108.883 66.131
5.03 113.362 68.433
5.04 131.310 73.084
5.05 128.274 --undefined--
5.06 124.363 --undefined--
5.07 --undefined-- --undefined--
5.08 --undefined-- --undefined--
