Time Pitch Intensity
0.01 --undefined-- --undefined--
0.02 202.530 --undefined--
0.03 204.728 --undefined--
0.04 201.549 --undefined--
0.05 --undefined-- 57.958
0.06 --undefined-- 62.268
0.07 203.810 66.815
0.08 197.427 70.335
0.09 183.580 72.060
0.10 176.678 72.371
0.11 181.906 71.988
0.12 187.977 70.839
0.13 197.209 68.746
0.14 199.328 65.844
0.15 199.904 61.272
0.16 --undefined-- 54.526
0.17 --undefined-- 51.336
0.18 --undefined-- 52.197
0.19 --undefined-- 53.447
0.20 --undefined-- 55.267
0.21 --undefined-- 56.715
0.22 --undefined-- 59.873
0.23 --undefined-- 66.271
0.24 --undefined-- 70.819
0.25 --undefined-- 72.531
0.26 --undefined-- 72.172
0.27 132.933 70.520
0.28 126.337 67.993
0.29 122.724 65.096
0.30 121.124 62.252
0.31 121.112 59.235
0.32 --undefined-- 55.821
0.33 --undefined-- 52.391
0.34 --undefined-- 50.335
0.35 --undefined-- 49.008
0.36 --undefined-- 47.311
0.37 --undefined-- 48.053
0.38 --undefined-- 51.390
0.39 --undefined-- 55.719
0.40 --undefined-- 59.236
0.41 128.918 60.842
0.42 130.794 61.362
0.43 131.159 61.834
0.44 131.536 62.394
0.45 131.649 62.861
0.46 132.298 62.965
0.47 132.621 62.245
0.48 131.102 60.059
0.49 --undefined-- 56.061
0.50 --undefined-- 51.934
0.51 --undefined-- 49.704
0.52 --undefined-- 49.393
0.53 --undefined-- 51.171
0.54 --undefined-- 52.897
0.55 --undefined-- 55.993
0.56 --undefined-- 60.326
0.57 --undefined-- 63.110
0.58 142.633 64.565
0.59 138.332 65.999
0.60 137.626 67.685
0.61 136.499 68.791
0.62 136.704 69.032
0.63 137.197 68.877
0.64 138.715 68.586
0.65 141.626 68.031
0.66 146.521 67.077
0.67 152.446 65.797
0.68 159.134 64.857
0.69 166.311 64.890
0.70 171.446 65.426
0.71 176.547 65.581
0.72 180.198 65.210
0.73 177.753 64.648
0.74 173.226 63.811
0.75 166.047 63.160
0.76 160.525 63.260
0.77 152.574 63.369
0.78 142.272 63.452
0.79 136.210 63.058
0.80 134.583 60.751
0.81 --undefined-- 55.878
0.82 --undefined-- 51.677
0.83 --undefined-- 53.327
0.84 --undefined-- 58.244
0.85 --undefined-- 60.791
0.86 --undefined-- 60.069
0.87 --undefined-- 59.094
0.88 --undefined-- 60.132
0.89 --undefined-- 60.504
0.90 --undefined-- 60.754
0.91 --undefined-- 61.413
0.92 --undefined-- 63.445
0.93 --undefined-- 66.763
0.94 127.639 68.721
0.95 122.799 69.333
0.96 122.110 68.915
0.97 132.913 67.918
0.98 138.812 67.420
0.99 143.376 66.510
1.00 143.796 63.641
1.01 --undefined-- 58.158
1.02 --undefined-- 50.506
1.03 --undefined-- 45.480
1.04 --undefined-- 45.737
1.05 --undefined-- 52.200
1.06 --undefined-- 58.348
1.07 --undefined-- 62.749
1.08 --undefined-- 66.238
1.09 --undefined-- 68.332
1.10 --undefined-- 68.403
1.11 --undefined-- 66.462
1.12 --undefined-- 63.953
1.13 --undefined-- 62.764
1.14 --undefined-- 63.484
1.15 --undefined-- 65.174
1.16 --undefined-- 66.389
1.17 --undefined-- 66.234
1.18 --undefined-- 64.956
1.19 --undefined-- 63.462
1.20 --undefined-- 62.053
1.21 --undefined-- 60.681
1.22 --undefined-- 59.008
1.23 --undefined-- 56.209
1.24 --undefined-- 50.928
1.25 --undefined-- 46.229
1.26 --undefined-- 46.204
1.27 --undefined-- 44.715
1.28 --undefined-- 41.487
1.29 --undefined-- 39.160
1.30 --undefined-- 38.142
1.31 --undefined-- 37.945
1.32 --undefined-- 39.013
1.33 --undefined-- 40.173
1.34 --undefined-- 41.502
1.35 --undefined-- 43.063
1.36 --undefined-- 44.423
1.37 --undefined-- 44.903
1.38 --undefined-- 44.723
1.39 --undefined-- 44.693
1.40 --undefined-- 44.858
1.41 --undefined-- 45.095
1.42 --undefined-- 45.301
1.43 --undefined-- 45.377
1.44 --undefined-- 45.399
1.45 --undefined-- 45.549
1.46 --undefined-- 45.311
1.47 --undefined-- 44.976
1.48 --undefined-- 45.198
1.49 --undefined-- 45.600
1.50 --undefined-- 45.931
1.51 --undefined-- 45.822
1.52 --undefined-- 45.548
1.53 --undefined-- 45.338
1.54 --undefined-- 44.718
1.55 --undefined-- 43.913
1.56 --undefined-- 43.317
1.57 --undefined-- 43.115
1.58 --undefined-- 43.199
1.59 --undefined-- 42.517
1.60 --undefined-- 40.350
1.61 --undefined-- 37.755
1.62 --undefined-- 36.745
1.63 --undefined-- 37.024
1.64 --undefined-- 37.943
1.65 --undefined-- 38.725
1.66 --undefined-- 44.057
1.67 --undefined-- 52.496
1.68 --undefined-- 58.313
1.69 --undefined-- 64.453
1.70 233.941 69.882
1.71 236.574 72.855
1.72 241.347 73.828
1.73 242.993 72.940
1.74 250.817 70.038
1.75 264.349 67.726
1.76 274.510 68.279
1.77 283.689 68.522
1.78 293.845 67.776
1.79 156.226 67.015
1.80 162.166 66.990
1.81 164.871 67.020
1.82 164.623 66.772
1.83 161.553 66.079
1.84 157.656 64.916
1.85 154.494 63.298
1.86 153.496 60.194
1.87 --undefined-- 54.939
1.88 --undefined-- 51.030
1.89 --undefined-- 50.299
1.90 --undefined-- 49.896
1.91 --undefined-- 50.159
1.92 --undefined-- 49.181
1.93 --undefined-- 49.358
1.94 --undefined-- 50.737
1.95 --undefined-- 49.979
1.96 --undefined-- 46.577
1.97 --undefined-- 42.003
1.98 --undefined-- 40.451
1.99 --undefined-- 39.829
2.00 --undefined-- 39.227
2.01 --undefined-- 39.027
2.02 --undefined-- 38.410
2.03 --undefined-- 43.626
2.04 --undefined-- 58.323
2.05 --undefined-- 68.287
2.06 --undefined-- 73.327
2.07 --undefined-- 74.261
2.08 --undefined-- 71.663
2.09 290.714 66.241
2.10 290.990 58.901
2.11 --undefined-- 50.815
2.12 --undefined-- 46.771
2.13 --undefined-- 46.136
2.14 --undefined-- 45.018
2.15 --undefined-- 44.021
2.16 --undefined-- 43.653
2.17 --undefined-- 45.041
2.18 --undefined-- 51.765
2.19 --undefined-- 59.241
2.20 --undefined-- 65.250
2.21 --undefined-- 68.480
2.22 --undefined-- 69.207
2.23 294.728 68.915
2.24 289.957 68.978
2.25 287.465 68.932
2.26 282.811 68.402
2.27 277.350 68.285
2.28 273.570 68.549
2.29 269.330 68.323
2.30 264.079 67.530
2.31 263.052 68.235
2.32 264.670 71.377
2.33 258.631 73.669
2.34 245.995 74.313
2.35 230.368 73.890
2.36 220.201 72.269
2.37 209.075 68.645
2.38 195.380 62.634
2.39 --undefined-- 56.141
2.40 --undefined-- 54.968
2.41 --undefined-- 54.996
2.42 --undefined-- 54.419
2.43 --undefined-- 56.059
2.44 --undefined-- 63.730
2.45 --undefined-- 70.033
2.46 --undefined-- 72.993
2.47 --undefined-- 73.540
2.48 141.983 73.242
2.49 136.938 72.843
2.50 132.677 71.734
2.51 128.988 70.101
2.52 124.744 68.481
2.53 120.311 66.760
2.54 118.824 64.858
2.55 117.589 62.764
2.56 117.252 60.764
2.57 116.172 59.678
2.58 115.949 59.711
2.59 115.410 59.830
2.60 114.380 58.823
2.61 114.595 56.547
2.62 115.917 53.295
2.63 --undefined-- 49.363
2.64 --undefined-- 48.337
2.65 --undefined-- 54.137
2.66 --undefined-- 58.508
2.67 --undefined-- 62.316
2.68 160.426 67.079
2.69 158.845 70.009
2.70 154.918 70.173
2.71 --undefined-- 67.349
2.72 --undefined-- 62.892
2.73 150.192 63.639
2.74 154.733 65.995
2.75 158.105 67.537
2.76 159.636 68.464
2.77 159.722 68.714
2.78 159.589 68.107
2.79 159.714 66.146
2.80 159.636 62.798
2.81 160.243 60.051
2.82 161.488 58.799
2.83 166.127 58.739
2.84 194.603 63.695
2.85 192.186 68.262
2.86 190.201 70.550
2.87 191.770 71.489
2.88 193.966 71.666
2.89 192.732 70.694
2.90 188.993 68.122
2.91 182.200 63.775
2.92 --undefined-- 57.666
2.93 --undefined-- 50.205
2.94 --undefined-- 44.561
2.95 --undefined-- 43.393
2.96 --undefined-- 46.248
2.97 --undefined-- 48.949
2.98 --undefined-- 50.784
2.99 --undefined-- 53.129
3.00 --undefined-- 55.624
3.01 --undefined-- 56.852
3.02 --undefined-- 56.913
3.03 --undefined-- 57.320
3.04 --undefined-- 58.231
3.05 --undefined-- 59.429
3.06 --undefined-- 60.180
3.07 --undefined-- 59.805
3.08 --undefined-- 58.914
3.09 --undefined-- 59.487
3.10 189.821 62.160
3.11 184.691 63.353
3.12 184.979 61.623
3.13 --undefined-- 58.040
3.14 171.167 55.963
3.15 167.444 53.784
3.16 --undefined-- 51.594
3.17 --undefined-- 55.569
3.18 --undefined-- 60.512
3.19 --undefined-- 63.374
3.20 --undefined-- 67.242
3.21 243.257 72.432
3.22 240.044 75.388
3.23 234.296 76.110
3.24 226.515 75.329
3.25 221.414 73.060
3.26 222.955 69.590
3.27 228.963 68.977
3.28 221.386 70.089
3.29 218.403 69.663
3.30 216.037 67.672
3.31 218.834 65.014
3.32 222.267 62.747
3.33 220.356 61.708
3.34 --undefined-- 61.526
3.35 --undefined-- 62.057
3.36 --undefined-- 62.888
3.37 --undefined-- 63.760
3.38 --undefined-- 65.585
3.39 --undefined-- 68.763
3.40 --undefined-- 71.488
3.41 --undefined-- 72.343
3.42 149.924 71.647
3.43 143.378 70.593
3.44 138.055 69.910
3.45 134.747 69.026
3.46 133.104 67.505
3.47 131.303 66.236
3.48 129.243 65.681
3.49 127.708 64.999
3.50 126.867 63.755
3.51 126.441 62.111
3.52 126.687 60.643
3.53 126.588 59.704
3.54 126.314 59.179
3.55 126.180 58.444
3.56 125.423 57.332
3.57 125.602 56.539
3.58 125.613 56.431
3.59 125.606 56.387
3.60 125.343 55.743
3.61 125.022 54.481
3.62 --undefined-- 53.438
3.63 --undefined-- 53.320
3.64 --undefined-- 53.543
3.65 --undefined-- 52.790
3.66 --undefined-- 52.310
3.67 --undefined-- 51.699
3.68 --undefined-- 48.672
3.69 --undefined-- 50.449
3.70 --undefined-- 55.502
3.71 --undefined-- 56.607
3.72 --undefined-- 53.512
3.73 --undefined-- 46.712
3.74 --undefined-- 41.265
3.75 --undefined-- 39.917
3.76 --undefined-- 38.572
3.77 --undefined-- 38.714
3.78 --undefined-- 42.703
3.79 --undefined-- 53.401
3.80 --undefined-- 61.617
3.81 --undefined-- 66.045
3.82 --undefined-- 67.471
3.83 138.728 67.693
3.84 137.973 67.766
3.85 137.251 67.387
3.86 134.900 67.076
3.87 133.234 67.348
3.88 131.887 67.736
3.89 130.698 67.655
3.90 130.410 67.286
3.91 130.990 66.811
3.92 130.470 65.481
3.93 126.648 62.374
3.94 --undefined-- 56.922
3.95 --undefined-- 49.661
3.96 --undefined-- 48.022
3.97 --undefined-- 54.610
3.98 --undefined-- 59.894
3.99 --undefined-- 62.746
4.00 --undefined-- 63.121
4.01 --undefined-- 60.804
4.02 --undefined-- 57.975
4.03 --undefined-- 59.229
4.04 --undefined-- 63.986
4.05 165.007 69.080
4.06 163.503 71.857
4.07 162.065 72.194
4.08 161.050 71.190
4.09 159.247 69.604
4.10 155.393 67.038
4.11 150.677 63.566
4.12 151.424 61.050
4.13 150.830 60.333
4.14 147.994 60.074
4.15 145.932 59.372
4.16 --undefined-- 58.552
4.17 --undefined-- 58.946
4.18 --undefined-- 59.649
4.19 --undefined-- 60.739
4.20 --undefined-- 62.781
4.21 143.151 64.259
4.22 140.543 64.529
4.23 138.716 64.006
4.24 136.274 63.536
4.25 134.195 63.495
4.26 132.190 63.603
4.27 130.691 63.620
4.28 129.371 63.261
4.29 127.781 62.560
4.30 126.841 61.755
4.31 125.930 60.745
4.32 126.180 59.606
4.33 126.308 58.732
4.34 127.051 58.416
4.35 127.718 58.194
4.36 127.191 57.985
4.37 127.312 58.220
4.38 127.586 58.917
4.39 127.844 59.838
4.40 127.698 60.816
4.41 128.353 61.478
4.42 128.119 61.269
4.43 132.405 60.293
4.44 --undefined-- 60.178
4.45 --undefined-- 61.265
4.46 104.086 62.408
4.47 81.299 63.592
4.48 75.581 63.610
4.49 --undefined-- 62.402
4.50 --undefined-- 61.115
4.51 253.492 61.992
4.52 255.363 63.923
4.53 259.555 64.269
4.54 257.640 64.778
4.55 262.098 65.683
4.56 273.276 65.738
4.57 270.794 65.564
4.58 269.344 65.027
4.59 129.052 64.324
4.60 127.872 65.019
4.61 126.397 66.364
4.62 124.887 66.512
4.63 123.309 64.547
4.64 122.217 59.741
4.65 --undefined-- 51.878
4.66 --undefined-- 44.888
4.67 --undefined-- 44.537
4.68 --undefined-- 44.026
4.69 --undefined-- 46.793
4.70 --undefined-- 53.491
4.71 --undefined-- 58.414
4.72 --undefined-- 61.824
4.73 --undefined-- 66.299
4.74 --undefined-- 70.199
4.75 166.277 72.110
4.76 160.297 72.584
4.77 156.853 72.395
4.78 155.234 71.843
4.79 154.059 70.566
4.80 153.212 68.154
4.81 152.597 64.451
4.82 --undefined-- 59.334
4.83 --undefined-- 52.261
4.84 --undefined-- 46.722
4.85 --undefined-- 48.036
4.86 --undefined-- 57.117
4.87 --undefined-- 64.077
4.88 --undefined-- 67.732
4.89 --undefined-- 69.316
4.90 190.503 69.126
4.91 186.920 69.690
4.92 178.958 71.830
4.93 176.356 73.106
4.94 174.367 73.158
4.95 170.937 72.517
4.96 167.062 71.541
4.97 163.953 70.050
4.98 160.021 67.810
4.99 158.035 65.563
5.00 157.083 63.715
5.01 157.760 61.795
5.02 160.267 59.293
5.03 156.372 55.763
5.04 161.362 54.193
5.05 160.567 55.723
5.06 162.477 57.454
5.07 161.496 60.381
5.08 146.110 65.342
5.09 141.345 68.846
5.10 135.324 70.051
5.11 131.531 69.220
5.12 --undefined-- 67.566
5.13 --undefined-- 65.392
5.14 --undefined-- 62.260
5.15 --undefined-- 59.612
5.16 --undefined-- 57.887
5.17 --undefined-- 56.498
5.18 --undefined-- 54.961
5.19 --undefined-- 52.712
5.20 --undefined-- 49.347
5.21 --undefined-- 47.273
5.22 --undefined-- 46.422
5.23 --undefined-- 45.556
5.24 --undefined-- 43.954
5.25 --undefined-- 40.937
5.26 --undefined-- 39.200
5.27 --undefined-- 39.109
5.28 --undefined-- 39.246
5.29 --undefined-- 42.433
5.30 --undefined-- --undefined--
5.31 --undefined-- --undefined--
5.32 --undefined-- --undefined--
5.33 --undefined-- --undefined--
