Time Pitch Intensity
0.01 --undefined-- --undefined--
0.02 126.140 --undefined--
0.03 125.720 --undefined--
0.04 126.103 --undefined--
0.05 126.390 67.251
0.06 126.312 67.030
0.07 124.755 66.874
0.08 121.489 67.456
0.09 129.239 68.301
0.10 128.902 68.706
0.11 126.198 68.827
0.12 122.322 68.453
0.13 120.147 67.635
0.14 117.931 66.549
0.15 118.368 65.483
0.16 123.250 65.029
0.17 127.386 65.345
0.18 127.791 66.057
0.19 126.873 66.565
0.20 128.241 66.722
0.21 128.772 66.930
0.22 129.347 67.249
0.23 130.102 67.527
0.24 132.020 67.953
0.25 134.715 68.306
0.26 133.770 67.713
0.27 129.826 65.235
0.28 128.425 60.375
0.29 128.569 53.738
0.30 --undefined-- 47.933
0.31 --undefined-- 44.658
0.32 --undefined-- 43.820
0.33 --undefined-- 47.922
0.34 --undefined-- 56.971
0.35 --undefined-- 63.593
0.36 --undefined-- 67.117
0.37 --undefined-- 68.378
0.38 --undefined-- 68.585
0.39 --undefined-- 68.836
0.40 --undefined-- 69.007
0.41 120.200 68.721
0.42 120.471 68.155
0.43 121.605 67.486
0.44 123.096 66.921
0.45 123.533 66.668
0.46 123.436 66.603
0.47 125.503 66.773
0.48 130.251 67.065
0.49 132.640 67.552
0.50 130.545 67.826
0.51 127.195 67.326
0.52 127.190 67.174
0.53 129.536 67.969
0.54 135.736 68.724
0.55 137.691 68.804
0.56 133.442 68.288
0.57 129.428 67.869
0.58 129.607 67.759
0.59 130.575 66.922
0.60 127.428 65.110
0.61 129.218 62.171
0.62 129.942 57.273
0.63 130.280 51.988
0.64 --undefined-- 48.562
0.65 --undefined-- 50.078
0.66 --undefined-- 54.889
0.67 --undefined-- 57.753
0.68 87.144 60.036
0.69 87.027 62.376
0.70 101.792 64.042
0.71 108.287 65.000
0.72 117.547 65.949
0.73 120.408 66.800
0.74 120.210 67.294
0.75 118.746 67.638
0.76 117.847 67.777
0.77 117.544 67.712
0.78 117.104 67.611
0.79 116.719 67.651
0.80 116.907 67.675
0.81 117.997 67.385
0.82 115.802 66.755
0.83 115.805 66.013
0.84 119.015 65.183
0.85 123.560 64.350
0.86 124.475 64.274
0.87 123.997 64.921
0.88 122.418 65.722
0.89 121.203 66.675
0.90 118.349 67.488
0.91 117.765 68.032
0.92 118.428 68.400
0.93 --undefined-- 68.684
0.94 --undefined-- 69.178
0.95 --undefined-- 69.960
0.96 --undefined-- 70.592
0.97 --undefined-- 71.111
0.98 --undefined-- 71.433
0.99 --undefined-- 72.329
1.00 208.939 73.743
1.01 207.184 74.527
1.02 204.607 75.176
1.03 205.516 75.403
1.04 206.829 74.916
1.05 206.173 74.331
1.06 205.707 73.921
1.07 205.507 73.604
1.08 205.442 73.354
1.09 204.983 73.141
1.10 203.942 72.906
1.11 201.773 72.608
1.12 199.087 72.213
1.13 196.302 71.782
1.14 192.618 71.381
1.15 189.045 71.128
1.16 186.355 70.986
1.17 184.261 70.792
1.18 182.322 70.502
1.19 179.776 70.203
1.20 177.479 69.925
1.21 175.102 69.569
1.22 172.865 69.130
1.23 170.891 68.607
1.24 167.735 67.903
1.25 162.795 67.100
1.26 156.073 66.436
1.27 150.336 65.578
1.28 145.693 63.972
1.29 --undefined-- 62.141
1.30 --undefined-- 60.104
1.31 --undefined-- 56.659
1.32 198.863 55.209
1.33 198.375 57.221
1.34 193.045 57.742
1.35 190.997 56.305
1.36 187.369 53.325
1.37 184.523 48.932
1.38 --undefined-- 43.651
1.39 --undefined-- 39.918
1.40 --undefined-- 39.044
1.41 --undefined-- 38.198
1.42 --undefined-- 36.125
1.43 --undefined-- 32.931
1.44 --undefined-- 30.183
1.45 --undefined-- 30.398
1.46 --undefined-- 32.446
1.47 --undefined-- 33.860
1.48 --undefined-- 33.267
1.49 --undefined-- 31.685
1.50 --undefined-- 31.363
1.51 --undefined-- 33.198
1.52 --undefined-- 35.632
1.53 --undefined-- 36.520
1.54 --undefined-- 34.670
1.55 --undefined-- 30.974
1.56 --undefined-- 32.777
1.57 --undefined-- 41.808
1.58 --undefined-- 50.481
1.59 140.329 57.519
1.60 140.342 62.977
1.61 146.895 66.890
1.62 154.712 69.284
1.63 156.514 70.612
1.64 156.097 71.919
1.65 163.654 73.288
1.66 169.050 74.066
1.67 172.870 74.240
1.68 176.481 73.978
1.69 178.689 73.563
1.70 178.651 73.294
1.71 178.550 73.085
1.72 179.128 72.555
1.73 174.162 71.609
1.74 167.641 71.052
1.75 161.745 71.008
1.76 156.459 70.825
1.77 149.604 70.439
1.78 142.723 69.901
1.79 137.498 69.245
1.80 134.421 68.115
1.81 133.493 65.898
1.82 124.496 62.647
1.83 123.504 59.251
1.84 119.768 55.344
1.85 --undefined-- 50.354
1.86 --undefined-- 46.252
1.87 --undefined-- 43.608
1.88 --undefined-- 41.932
1.89 --undefined-- 41.683
1.90 --undefined-- 43.650
1.91 --undefined-- 51.892
1.92 --undefined-- 61.316
1.93 --undefined-- 66.968
1.94 177.603 69.543
1.95 166.636 70.496
1.96 163.240 70.932
1.97 162.149 71.145
1.98 161.614 71.255
1.99 160.594 70.967
2.00 158.892 70.161
2.01 157.261 69.458
2.02 156.294 69.396
2.03 153.899 69.510
2.04 151.845 69.300
2.05 154.639 68.600
2.06 156.809 67.618
2.07 156.622 66.650
2.08 155.514 65.761
2.09 153.958 65.038
2.10 153.771 64.822
2.11 153.907 65.238
2.12 153.009 65.990
2.13 148.583 66.756
2.14 143.904 67.228
2.15 131.905 66.942
2.16 123.826 66.091
2.17 121.919 65.397
2.18 120.314 64.989
2.19 118.761 64.748
2.20 117.249 64.684
2.21 116.891 64.731
2.22 118.187 65.011
2.23 120.786 65.416
2.24 126.841 66.015
2.25 133.221 67.238
2.26 136.840 68.896
2.27 140.500 70.372
2.28 141.914 71.169
2.29 143.138 71.429
2.30 143.428 71.491
2.31 142.433 71.259
2.32 141.379 70.701
2.33 139.419 70.073
2.34 137.433 69.329
2.35 133.366 68.163
2.36 130.524 66.766
2.37 115.816 65.051
2.38 116.785 62.633
2.39 --undefined-- 58.826
2.40 --undefined-- 53.179
2.41 --undefined-- 48.833
2.42 --undefined-- 47.183
2.43 --undefined-- 46.445
2.44 --undefined-- 48.452
2.45 --undefined-- 49.555
2.46 --undefined-- 49.774
2.47 --undefined-- 50.193
2.48 --undefined-- 50.287
2.49 271.802 52.375
2.50 269.920 53.985
2.51 231.890 54.123
2.52 281.413 55.339
2.53 281.817 55.801
2.54 --undefined-- 55.204
2.55 --undefined-- 55.531
2.56 246.700 54.770
2.57 275.817 52.888
2.58 --undefined-- 50.750
2.59 --undefined-- 46.525
2.60 --undefined-- 39.795
2.61 --undefined-- 32.800
2.62 --undefined-- 29.978
2.63 --undefined-- 30.708
2.64 --undefined-- 31.145
2.65 --undefined-- 30.730
2.66 --undefined-- 34.585
2.67 --undefined-- 37.961
2.68 --undefined-- 37.777
2.69 --undefined-- 34.458
2.70 --undefined-- 30.757
2.71 --undefined-- 29.776
2.72 --undefined-- 30.737
2.73 --undefined-- 31.745
2.74 --undefined-- 32.361
2.75 --undefined-- 33.790
2.76 --undefined-- 35.718
2.77 --undefined-- 38.090
2.78 --undefined-- 40.083
2.79 --undefined-- 46.575
2.80 --undefined-- 58.086
2.81 --undefined-- 66.221
2.82 199.865 70.649
2.83 199.590 72.144
2.84 198.387 71.767
2.85 196.059 70.955
2.86 193.516 70.682
2.87 190.099 70.692
2.88 186.867 70.352
2.89 183.455 69.713
2.90 177.000 70.334
2.91 171.683 72.370
2.92 167.032 73.445
2.93 161.588 72.907
2.94 154.754 71.958
2.95 149.187 71.356
2.96 145.433 71.044
2.97 144.246 71.218
2.98 143.913 71.750
2.99 144.564 72.379
3.00 146.113 72.718
3.01 150.359 72.588
3.02 157.544 72.290
3.03 164.627 72.418
3.04 167.356 72.887
3.05 174.931 72.937
3.06 169.345 72.684
3.07 171.458 72.402
3.08 173.344 71.686
3.09 175.633 70.517
3.10 178.360 69.284
3.11 184.202 68.247
3.12 180.950 67.199
3.13 177.430 66.201
3.14 175.132 65.484
3.15 174.361 65.001
3.16 174.328 65.077
3.17 186.087 66.375
3.18 197.173 68.439
3.19 196.501 70.244
3.20 181.996 71.245
3.21 172.307 71.469
3.22 166.396 71.229
3.23 164.715 70.814
3.24 164.374 70.666
3.25 164.569 70.828
3.26 165.930 70.921
3.27 168.355 71.275
3.28 171.524 71.552
3.29 171.359 70.827
3.30 172.608 68.626
3.31 171.203 64.758
3.32 172.419 59.557
3.33 174.901 54.565
3.34 168.432 50.791
3.35 167.651 47.821
3.36 --undefined-- 51.210
3.37 --undefined-- 60.705
3.38 --undefined-- 66.917
3.39 173.151 70.334
3.40 161.897 72.212
3.41 153.849 72.593
3.42 142.406 71.608
3.43 137.193 70.731
3.44 134.113 70.748
3.45 133.337 71.165
3.46 133.399 71.484
3.47 133.938 71.260
3.48 137.776 70.219
3.49 135.228 68.115
3.50 132.380 64.679
3.51 139.228 60.129
3.52 140.401 54.957
3.53 --undefined-- 49.106
3.54 --undefined-- 44.313
3.55 --undefined-- 43.536
3.56 --undefined-- 43.529
3.57 --undefined-- 42.093
3.58 --undefined-- 40.993
3.59 --undefined-- 45.612
3.60 --undefined-- 54.269
3.61 --undefined-- 60.647
3.62 167.984 65.040
3.63 167.372 68.254
3.64 167.470 70.466
3.65 168.264 71.849
3.66 168.464 72.698
3.67 167.328 72.721
3.68 164.385 71.495
3.69 164.959 69.790
3.70 165.755 68.968
3.71 160.836 68.477
3.72 158.418 67.693
3.73 155.974 67.170
3.74 153.419 67.275
3.75 150.828 67.934
3.76 139.996 68.876
3.77 129.970 69.281
3.78 120.920 68.823
3.79 113.530 68.150
3.80 110.608 67.679
3.81 108.135 67.070
3.82 106.711 66.341
3.83 107.725 65.811
3.84 112.382 65.887
3.85 116.901 66.628
3.86 121.123 67.464
3.87 126.848 68.234
3.88 129.990 68.975
3.89 133.398 69.525
3.90 136.056 69.828
3.91 141.032 70.212
3.92 141.736 70.684
3.93 143.316 70.810
3.94 144.220 70.303
3.95 144.624 69.399
3.96 143.813 68.619
3.97 142.353 68.156
3.98 141.154 68.015
3.99 141.056 68.109
4.00 141.775 68.301
4.01 143.297 68.449
4.02 147.303 68.403
4.03 153.202 68.146
4.04 154.949 67.705
4.05 155.113 66.663
4.06 153.876 65.232
4.07 155.786 65.177
4.08 159.398 65.942
4.09 160.496 66.093
4.10 158.195 65.405
4.11 154.342 63.798
4.12 149.408 61.234
4.13 147.044 57.989
4.14 151.571 54.081
4.15 --undefined-- 50.495
4.16 --undefined-- 54.132
4.17 196.191 60.905
4.18 186.867 65.491
4.19 170.290 68.073
4.20 166.535 69.361
4.21 161.925 69.774
4.22 156.042 69.856
4.23 154.911 69.771
4.24 153.044 69.464
4.25 152.510 69.162
4.26 152.441 69.153
4.27 152.475 69.363
4.28 152.571 69.488
4.29 152.911 69.301
4.30 153.545 68.673
4.31 154.575 67.548
4.32 153.938 66.599
4.33 156.206 66.916
4.34 158.790 67.725
4.35 160.583 68.167
4.36 162.045 68.418
4.37 163.326 68.651
4.38 161.513 68.782
4.39 157.418 68.961
4.40 154.854 69.232
4.41 151.895 69.378
4.42 148.647 69.412
4.43 146.546 69.393
4.44 144.399 69.038
4.45 143.508 68.027
4.46 143.224 66.163
4.47 143.041 63.350
4.48 142.527 59.211
4.49 143.834 53.403
4.50 --undefined-- 46.898
4.51 --undefined-- 43.233
4.52 --undefined-- 42.027
4.53 --undefined-- 40.216
4.54 --undefined-- 38.015
4.55 --undefined-- 37.485
4.56 --undefined-- 37.354
4.57 --undefined-- 38.524
4.58 --undefined-- 48.228
4.59 --undefined-- 56.712
4.60 143.955 62.240
4.61 139.092 65.615
4.62 135.252 67.771
4.63 131.960 68.855
4.64 127.373 68.975
4.65 125.329 68.800
4.66 124.643 68.912
4.67 125.069 68.969
4.68 125.772 68.506
4.69 130.335 67.877
4.70 133.713 67.549
4.71 136.195 67.419
4.72 135.522 67.642
4.73 129.854 68.165
4.74 124.742 68.686
4.75 122.875 68.732
4.76 119.375 68.230
4.77 119.439 67.829
4.78 119.516 67.563
4.79 118.509 66.963
4.80 117.482 65.815
4.81 114.492 63.778
4.82 115.150 60.656
4.83 113.615 56.256
4.84 117.658 50.888
4.85 --undefined-- 46.438
4.86 --undefined-- 45.881
4.87 --undefined-- 47.173
4.88 --undefined-- 48.753
4.89 --undefined-- 50.431
4.90 --undefined-- 52.441
4.91 --undefined-- 53.620
4.92 --undefined-- 53.493
4.93 --undefined-- 53.729
4.94 --undefined-- 58.422
4.95 139.656 63.617
4.96 132.385 66.484
4.97 120.109 67.575
4.98 116.292 67.887
4.99 120.447 67.917
5.00 123.093 67.677
5.01 126.489 67.465
5.02 128.742 67.641
5.03 132.446 67.963
5.04 133.671 67.987
5.05 136.676 67.774
5.06 138.913 67.811
5.07 140.330 68.283
5.08 139.403 68.803
5.09 137.895 68.926
5.10 132.746 68.688
5.11 130.032 68.585
5.12 126.699 68.716
5.13 121.119 68.610
5.14 116.074 68.050
5.15 112.181 67.179
5.16 110.906 66.482
5.17 109.294 65.889
5.18 108.761 65.309
5.19 108.513 65.098
5.20 109.377 65.099
5.21 110.116 65.136
5.22 109.731 65.558
5.23 113.164 66.477
5.24 115.675 67.246
5.25 117.121 67.653
5.26 119.137 68.037
5.27 118.511 68.578
5.28 117.393 68.994
5.29 116.012 69.004
5.30 113.265 68.588
5.31 110.597 67.971
5.32 109.990 67.480
5.33 108.895 66.914
5.34 102.326 65.675
5.35 91.131 63.343
5.36 --undefined-- 59.569
5.37 --undefined-- 53.767
5.38 --undefined-- 48.573
5.39 --undefined-- 46.992
5.40 --undefined-- 45.666
5.41 --undefined-- 43.971
5.42 --undefined-- 42.391
5.43 --undefined-- 40.873
5.44 --undefined-- 38.825
5.45 --undefined-- 37.175
5.46 --undefined-- 38.408
5.47 --undefined-- 40.056
5.48 --undefined-- 38.955
5.49 --undefined-- 36.084
5.50 --undefined-- 33.754
5.51 --undefined-- 32.963
5.52 --undefined-- 34.414
5.53 --undefined-- 35.569
5.54 --undefined-- 36.351
5.55 --undefined-- 37.800
5.56 --undefined-- --undefined--
5.57 --undefined-- --undefined--
5.58 --undefined-- --undefined--
5.59 --undefined-- --undefined--
