Time Pitch Intensity
0.01 --undefined-- --undefined--
0.02 110.430 --undefined--
0.03 135.741 --undefined--
0.04 132.190 --undefined--
0.05 128.450 69.422
0.06 123.593 69.721
0.07 123.192 69.586
0.08 122.838 69.352
0.09 123.282 69.230
0.10 125.328 69.214
0.11 126.262 69.336
0.12 127.054 69.600
0.13 127.764 69.852
0.14 128.530 69.947
0.15 129.686 70.004
0.16 131.696 69.998
0.17 133.667 69.479
0.18 129.989 67.760
0.19 124.459 64.522
0.20 123.703 60.078
0.21 122.851 55.859
0.22 134.290 54.777
0.23 149.549 58.500
0.24 159.423 63.090
0.25 165.521 65.999
0.26 171.462 67.762
0.27 163.923 69.305
0.28 155.321 71.009
0.29 142.137 72.207
0.30 139.090 72.678
0.31 138.595 72.839
0.32 138.323 72.861
0.33 137.782 72.731
0.34 137.481 72.553
0.35 137.371 72.317
0.36 136.833 71.746
0.37 135.209 70.328
0.38 127.400 67.957
0.39 130.764 66.355
0.40 129.750 66.657
0.41 130.164 67.920
0.42 130.584 69.391
0.43 128.321 70.190
0.44 122.419 70.209
0.45 116.658 70.030
0.46 109.592 69.922
0.47 107.727 69.478
0.48 100.753 68.427
0.49 96.790 67.017
0.50 94.169 65.581
0.51 92.925 64.352
0.52 91.932 63.776
0.53 91.009 63.581
0.54 86.893 62.657
0.55 83.689 61.024
0.56 89.065 60.091
0.57 90.009 60.294
0.58 96.978 61.721
0.59 100.078 63.374
0.60 104.988 64.071
0.61 111.012 63.736
0.62 110.481 62.157
0.63 108.712 59.345
0.64 130.805 57.729
0.65 148.522 57.809
0.66 139.109 57.018
0.67 133.463 56.861
0.68 --undefined-- 61.850
0.69 152.486 66.319
0.70 126.206 67.957
0.71 120.826 67.529
0.72 118.257 66.672
0.73 121.979 66.671
0.74 124.689 67.090
0.75 125.400 67.435
0.76 124.126 67.695
0.77 125.455 67.987
0.78 125.343 68.236
0.79 121.894 68.271
0.80 119.623 68.121
0.81 118.957 67.914
0.82 120.223 67.309
0.83 119.358 65.575
0.84 114.414 62.334
0.85 115.318 57.838
0.86 --undefined-- 52.275
0.87 --undefined-- 46.297
0.88 --undefined-- 43.827
0.89 --undefined-- 47.535
0.90 --undefined-- 57.170
0.91 161.118 64.440
0.92 153.074 68.683
0.93 144.694 70.781
0.94 145.136 71.739
0.95 145.911 72.310
0.96 145.102 72.900
0.97 142.616 73.150
0.98 133.773 72.831
0.99 128.439 72.086
1.00 122.843 70.680
1.01 121.296 68.874
1.02 119.432 66.616
1.03 114.157 63.167
1.04 111.847 58.316
1.05 --undefined-- 53.559
1.06 --undefined-- 53.908
1.07 103.905 55.827
1.08 99.532 57.428
1.09 108.297 62.548
1.10 188.928 68.413
1.11 180.418 72.014
1.12 174.151 73.946
1.13 173.947 75.209
1.14 174.867 75.965
1.15 175.278 75.987
1.16 177.451 75.446
1.17 179.768 74.569
1.18 181.431 73.310
1.19 182.640 72.016
1.20 182.517 71.156
1.21 180.733 70.630
1.22 179.839 70.128
1.23 179.665 69.372
1.24 180.112 68.345
1.25 180.995 67.135
1.26 192.543 65.463
1.27 197.000 62.620
1.28 189.389 57.653
1.29 --undefined-- 49.857
1.30 --undefined-- 40.258
1.31 --undefined-- 35.945
1.32 --undefined-- 35.571
1.33 --undefined-- 34.296
1.34 --undefined-- 35.707
1.35 --undefined-- 48.151
1.36 --undefined-- 60.319
1.37 246.171 68.514
1.38 221.009 73.596
1.39 205.586 76.300
1.40 200.202 77.207
1.41 200.846 76.890
1.42 204.954 75.718
1.43 209.981 74.195
1.44 211.738 73.033
1.45 212.818 72.169
1.46 212.093 71.386
1.47 208.355 70.558
1.48 204.569 69.510
1.49 199.887 68.411
1.50 195.898 67.531
1.51 195.313 66.951
1.52 196.727 66.689
1.53 199.724 66.616
1.54 200.006 66.357
1.55 197.826 65.689
1.56 195.395 64.375
1.57 192.929 62.255
1.58 193.685 59.694
1.59 210.445 59.193
1.60 227.881 62.895
1.61 222.213 66.922
1.62 207.992 70.103
1.63 200.901 72.270
1.64 195.051 73.256
1.65 192.664 73.222
1.66 193.065 72.529
1.67 193.668 71.465
1.68 191.576 70.291
1.69 188.303 69.008
1.70 180.047 67.383
1.71 168.488 65.699
1.72 161.286 64.389
1.73 153.459 63.639
1.74 149.478 63.791
1.75 144.900 65.001
1.76 140.508 66.889
1.77 138.585 68.807
1.78 136.697 70.057
1.79 131.877 70.276
1.80 127.111 69.722
1.81 124.556 68.997
1.82 122.649 68.355
1.83 120.587 67.696
1.84 118.653 66.775
1.85 116.188 64.846
1.86 109.519 61.211
1.87 111.203 56.207
1.88 --undefined-- 51.041
1.89 --undefined-- 45.564
1.90 --undefined-- 40.603
1.91 --undefined-- 37.787
1.92 --undefined-- 39.079
1.93 --undefined-- 42.642
1.94 --undefined-- 48.108
1.95 --undefined-- 57.929
1.96 168.379 64.890
1.97 146.902 68.471
1.98 126.834 69.412
1.99 118.955 68.263
2.00 110.642 65.260
2.01 105.887 60.696
2.02 118.107 55.945
2.03 118.896 51.832
2.04 --undefined-- 47.577
2.05 --undefined-- 43.240
2.06 --undefined-- 41.203
2.07 --undefined-- 43.311
2.08 --undefined-- 53.095
2.09 --undefined-- 61.663
2.10 --undefined-- 66.462
2.11 133.834 68.301
2.12 111.145 68.313
2.13 104.776 67.801
2.14 102.256 67.573
2.15 99.797 67.628
2.16 97.974 67.688
2.17 96.990 67.375
2.18 96.205 66.468
2.19 95.432 65.307
2.20 94.876 64.255
2.21 98.494 63.335
2.22 104.241 62.978
2.23 110.429 63.295
2.24 112.738 63.301
2.25 113.048 62.847
2.26 121.307 64.145
2.27 131.432 67.142
2.28 132.228 69.201
2.29 133.096 70.110
2.30 134.762 70.591
2.31 136.059 70.762
2.32 134.395 70.141
2.33 130.976 68.086
2.34 122.250 64.039
2.35 123.110 58.224
2.36 --undefined-- 52.141
2.37 --undefined-- 48.943
2.38 --undefined-- 54.697
2.39 --undefined-- 62.383
2.40 161.502 68.006
2.41 146.122 71.044
2.42 136.471 71.998
2.43 121.890 71.958
2.44 120.688 71.798
2.45 118.165 71.476
2.46 115.535 70.909
2.47 112.999 70.256
2.48 111.314 69.736
2.49 110.223 69.350
2.50 110.345 68.917
2.51 111.298 68.511
2.52 114.262 68.272
2.53 115.568 67.985
2.54 116.400 66.985
2.55 116.582 64.200
2.56 106.002 59.066
2.57 --undefined-- 52.289
2.58 --undefined-- 44.280
2.59 --undefined-- 37.997
2.60 --undefined-- 37.961
2.61 --undefined-- 37.309
2.62 --undefined-- 38.180
2.63 --undefined-- 40.995
2.64 --undefined-- 43.455
2.65 --undefined-- 50.568
2.66 163.354 59.075
2.67 155.808 64.744
2.68 136.734 67.986
2.69 123.152 69.600
2.70 120.442 70.167
2.71 119.425 69.776
2.72 116.644 68.008
2.73 109.193 64.721
2.74 112.282 61.050
2.75 117.321 58.035
2.76 114.841 54.859
2.77 --undefined-- 52.588
2.78 --undefined-- 54.752
2.79 --undefined-- 60.407
2.80 185.303 66.218
2.81 170.320 69.491
2.82 159.638 70.442
2.83 158.677 69.999
2.84 158.541 68.871
2.85 156.750 67.546
2.86 158.181 67.346
2.87 164.761 68.434
2.88 167.550 69.327
2.89 167.559 69.532
2.90 167.758 69.209
2.91 169.014 68.697
2.92 170.728 68.383
2.93 171.425 68.410
2.94 170.884 68.547
2.95 169.903 68.530
2.96 167.644 68.261
2.97 163.890 67.719
2.98 158.529 66.708
2.99 154.804 64.833
3.00 158.165 61.985
3.01 158.322 58.950
3.02 157.910 55.916
3.03 --undefined-- 51.304
3.04 --undefined-- 45.482
3.05 --undefined-- 47.705
3.06 --undefined-- 53.342
3.07 --undefined-- 59.974
3.08 --undefined-- 65.041
3.09 --undefined-- 67.285
3.10 109.786 67.541
3.11 110.545 67.013
3.12 106.212 66.605
3.13 105.373 66.655
3.14 105.661 66.536
3.15 106.339 65.897
3.16 108.285 65.072
3.17 107.279 64.654
3.18 115.135 65.465
3.19 120.368 66.795
3.20 123.707 67.497
3.21 124.467 67.591
3.22 123.104 67.355
3.23 121.231 67.023
3.24 119.395 66.858
3.25 116.662 66.773
3.26 111.901 66.330
3.27 108.956 65.344
3.28 99.633 63.791
3.29 91.115 61.800
3.30 81.848 59.527
3.31 --undefined-- 57.141
3.32 --undefined-- 54.974
3.33 --undefined-- 54.092
3.34 --undefined-- 54.705
3.35 --undefined-- 54.208
3.36 89.301 52.802
3.37 81.853 52.598
3.38 106.833 54.108
3.39 104.365 55.269
3.40 97.578 56.349
3.41 97.775 57.492
3.42 111.492 57.552
3.43 109.376 56.232
3.44 103.361 53.711
3.45 110.736 52.811
3.46 139.031 56.588
3.47 128.931 60.176
3.48 121.281 61.842
3.49 115.997 62.215
3.50 111.085 61.856
3.51 108.704 61.403
3.52 108.304 61.198
3.53 107.907 60.827
3.54 110.281 60.258
3.55 113.313 59.602
3.56 116.877 58.852
3.57 117.137 57.908
3.58 119.084 57.512
3.59 123.730 58.015
3.60 121.347 58.663
3.61 124.073 59.422
3.62 123.882 60.261
3.63 123.852 60.984
3.64 124.659 61.818
3.65 125.555 63.779
3.66 127.606 66.529
3.67 123.701 68.107
3.68 119.692 67.998
3.69 116.397 66.510
3.70 112.083 63.548
3.71 82.442 58.785
3.72 --undefined-- 52.705
3.73 --undefined-- 46.398
3.74 --undefined-- 41.691
3.75 --undefined-- 39.342
3.76 --undefined-- 37.988
3.77 --undefined-- 39.945
3.78 --undefined-- 40.679
3.79 --undefined-- 39.126
3.80 --undefined-- 38.209
3.81 --undefined-- 38.447
3.82 --undefined-- 40.017
3.83 --undefined-- 47.500
3.84 140.497 54.806
3.85 135.680 60.097
3.86 128.389 62.958
3.87 117.811 63.736
3.88 106.534 63.401
3.89 101.128 62.752
3.90 97.482 62.206
3.91 95.578 61.785
3.92 96.158 60.995
3.93 95.333 59.767
3.94 93.971 58.272
3.95 89.806 56.461
3.96 86.319 55.175
3.97 87.630 55.141
3.98 92.993 55.480
3.99 93.085 55.573
4.00 87.866 55.529
4.01 98.166 55.557
4.02 93.813 54.867
4.03 97.867 53.216
4.04 95.880 50.852
4.05 --undefined-- 47.375
4.06 --undefined-- 43.631
4.07 --undefined-- 43.115
4.08 --undefined-- 45.615
4.09 --undefined-- 48.062
4.10 --undefined-- 51.945
4.11 137.758 56.899
4.12 118.144 59.986
4.13 108.476 61.370
4.14 106.697 62.110
4.15 106.494 62.351
4.16 105.376 61.804
4.17 104.426 60.424
4.18 103.589 58.296
4.19 100.668 55.646
4.20 97.470 52.268
4.21 --undefined-- 48.407
4.22 --undefined-- 46.381
4.23 --undefined-- 47.698
4.24 --undefined-- 50.608
4.25 --undefined-- 53.825
4.26 103.077 56.459
4.27 104.095 57.681
4.28 93.283 57.850
4.29 92.223 58.061
4.30 93.931 58.240
4.31 95.195 58.363
4.32 95.883 59.102
4.33 98.944 60.083
4.34 98.516 60.693
4.35 97.212 60.624
4.36 98.581 60.017
4.37 102.638 59.777
4.38 104.533 60.588
4.39 104.746 61.849
4.40 106.572 62.453
4.41 110.154 61.851
4.42 109.703 60.018
4.43 107.128 57.364
4.44 98.659 54.198
4.45 --undefined-- 49.529
4.46 --undefined-- 43.414
4.47 --undefined-- 40.128
4.48 --undefined-- 40.401
4.49 --undefined-- 42.263
4.50 --undefined-- 44.256
4.51 --undefined-- 44.927
4.52 --undefined-- 44.276
4.53 --undefined-- 43.383
4.54 --undefined-- 43.077
4.55 --undefined-- 42.803
4.56 --undefined-- 41.852
4.57 --undefined-- 40.646
4.58 --undefined-- 39.875
4.59 --undefined-- 39.484
4.60 --undefined-- 39.624
4.61 --undefined-- 39.834
4.62 --undefined-- 39.664
4.63 --undefined-- 38.954
4.64 --undefined-- 38.377
4.65 --undefined-- 38.542
4.66 --undefined-- 39.115
4.67 --undefined-- 39.444
4.68 --undefined-- 39.435
4.69 --undefined-- 39.026
4.70 --undefined-- 37.963
4.71 --undefined-- 38.288
4.72 --undefined-- 39.955
4.73 --undefined-- 40.289
4.74 --undefined-- 41.832
4.75 --undefined-- 49.633
4.76 --undefined-- 57.995
4.77 171.370 64.212
4.78 157.915 68.232
4.79 143.618 70.755
4.80 141.716 72.199
4.81 142.174 72.571
4.82 141.462 71.936
4.83 148.432 71.676
4.84 158.559 72.243
4.85 169.345 72.682
4.86 178.533 72.918
4.87 185.574 72.980
4.88 192.859 72.725
4.89 198.862 72.032
4.90 204.371 71.045
4.91 206.794 70.119
4.92 204.134 68.927
4.93 196.490 66.738
4.94 186.275 63.740
4.95 178.620 60.650
4.96 178.003 59.879
4.97 --undefined-- 63.527
4.98 233.163 67.882
4.99 201.515 70.588
5.00 176.142 71.299
5.01 165.263 70.771
5.02 160.885 70.115
5.03 160.810 69.812
5.04 164.978 69.760
5.05 170.570 69.781
5.06 176.567 69.820
5.07 182.161 70.060
5.08 189.017 70.375
5.09 193.430 70.372
5.10 198.275 70.039
5.11 202.372 69.700
5.12 203.258 69.495
5.13 202.304 69.208
5.14 200.240 68.748
5.15 196.427 68.252
5.16 191.665 67.868
5.17 186.778 67.920
5.18 181.452 68.324
5.19 174.206 68.563
5.20 168.434 68.477
5.21 163.723 68.300
5.22 160.306 68.754
5.23 158.768 70.202
5.24 156.906 71.707
5.25 154.862 72.583
5.26 148.605 72.680
5.27 139.845 71.984
5.28 131.368 70.817
5.29 124.707 69.830
5.30 122.027 69.165
5.31 115.056 68.728
5.32 114.134 68.652
5.33 113.705 68.494
5.34 111.906 68.273
5.35 107.613 68.213
5.36 104.032 68.143
5.37 101.758 67.965
5.38 101.038 67.409
5.39 100.952 66.021
5.40 96.413 --undefined--
5.41 92.134 --undefined--
5.42 --undefined-- --undefined--
5.43 --undefined-- --undefined--
