Time Pitch Intensity
0.01 --undefined-- --undefined--
0.02 111.892 --undefined--
0.03 117.206 --undefined--
0.04 119.867 --undefined--
0.05 116.147 78.075
0.06 113.270 79.155
0.07 113.228 79.803
0.08 114.719 80.114
0.09 113.647 79.757
0.10 112.130 78.385
0.11 105.980 75.911
0.12 103.985 72.245
0.13 131.583 67.225
0.14 139.751 61.777
0.15 --undefined-- 55.602
0.16 --undefined-- 47.412
0.17 --undefined-- 42.962
0.18 --undefined-- 43.388
0.19 --undefined-- 43.710
0.20 --undefined-- 43.619
0.21 --undefined-- 42.643
0.22 --undefined-- 41.736
0.23 --undefined-- 42.083
0.24 --undefined-- 42.177
0.25 --undefined-- 41.806
0.26 --undefined-- 42.070
0.27 --undefined-- 41.738
0.28 --undefined-- 40.581
0.29 --undefined-- 39.440
0.30 --undefined-- 38.398
0.31 --undefined-- 37.592
0.32 --undefined-- 37.450
0.33 --undefined-- 37.439
0.34 --undefined-- 38.095
0.35 --undefined-- 39.359
0.36 --undefined-- 39.483
0.37 --undefined-- 39.705
0.38 --undefined-- 41.517
0.39 --undefined-- 42.266
0.40 --undefined-- 41.603
0.41 --undefined-- 40.595
0.42 --undefined-- 39.312
0.43 --undefined-- 37.939
0.44 --undefined-- 38.007
0.45 --undefined-- 39.871
0.46 --undefined-- 41.204
0.47 --undefined-- 44.645
0.48 --undefined-- 50.813
0.49 --undefined-- 55.983
0.50 --undefined-- 63.202
0.51 --undefined-- 69.950
0.52 148.057 73.642
0.53 130.100 75.388
0.54 128.249 76.640
0.55 127.974 77.524
0.56 130.215 77.998
0.57 132.168 78.391
0.58 133.535 78.692
0.59 133.476 78.816
0.60 130.500 78.877
0.61 127.719 78.839
0.62 128.362 78.609
0.63 124.310 78.302
0.64 122.602 77.991
0.65 119.728 77.428
0.66 117.110 76.705
0.67 117.442 76.177
0.68 118.184 75.763
0.69 117.677 75.390
0.70 116.615 75.138
0.71 115.677 74.999
0.72 116.570 74.997
0.73 117.323 75.059
0.74 117.460 75.142
0.75 116.574 75.265
0.76 115.423 75.395
0.77 114.882 75.517
0.78 114.362 75.540
0.79 114.113 75.560
0.80 114.390 75.678
0.81 115.143 75.826
0.82 116.638 75.932
0.83 117.247 75.969
0.84 118.504 75.814
0.85 117.743 75.354
0.86 115.850 74.733
0.87 113.581 73.910
0.88 111.035 72.707
0.89 107.886 71.464
0.90 105.712 70.702
0.91 106.491 70.337
0.92 107.357 70.392
0.93 109.842 70.891
0.94 113.729 71.764
0.95 110.050 72.934
0.96 104.757 73.963
0.97 102.656 74.556
0.98 100.733 74.823
0.99 99.046 74.815
1.00 98.986 74.421
1.01 99.779 73.786
1.02 100.740 73.055
1.03 100.913 71.871
1.04 98.378 69.607
1.05 93.997 66.019
1.06 96.060 61.783
1.07 --undefined-- 59.158
1.08 --undefined-- 59.904
1.09 147.269 65.004
1.10 144.984 69.960
1.11 112.306 72.628
1.12 102.403 73.560
1.13 100.389 73.686
1.14 100.205 73.653
1.15 99.914 73.590
1.16 102.203 73.493
1.17 106.213 73.561
1.18 105.873 73.715
1.19 107.871 73.489
1.20 107.720 72.839
1.21 106.712 72.347
1.22 108.139 72.607
1.23 112.230 73.468
1.24 114.147 74.254
1.25 115.745 74.439
1.26 113.834 73.438
1.27 109.059 70.652
1.28 110.727 66.197
1.29 131.137 61.423
1.30 --undefined-- 57.165
1.31 --undefined-- 53.049
1.32 --undefined-- 52.030
1.33 --undefined-- 59.001
1.34 --undefined-- 67.217
1.35 189.427 73.657
1.36 177.974 77.744
1.37 170.863 80.002
1.38 165.525 80.773
1.39 162.846 80.059
1.40 158.133 77.638
1.41 145.568 73.583
1.42 --undefined-- 69.319
1.43 --undefined-- 66.080
1.44 174.059 64.737
1.45 166.443 68.043
1.46 169.261 72.039
1.47 170.924 74.524
1.48 171.231 76.132
1.49 162.243 78.029
1.50 153.771 79.442
1.51 151.664 79.946
1.52 155.100 80.366
1.53 157.837 80.836
1.54 160.661 80.811
1.55 164.400 79.882
1.56 167.182 77.908
1.57 170.876 74.841
1.58 158.736 71.000
1.59 153.695 66.669
1.60 153.382 61.852
1.61 --undefined-- 57.067
1.62 --undefined-- 54.866
1.63 --undefined-- 61.172
1.64 --undefined-- 70.198
1.65 --undefined-- 75.787
1.66 165.790 78.613
1.67 153.977 79.914
1.68 142.797 80.339
1.69 142.285 80.254
1.70 142.886 80.002
1.71 144.258 79.558
1.72 144.154 78.685
1.73 142.343 77.080
1.74 141.378 74.497
1.75 132.866 70.615
1.76 101.691 64.827
1.77 --undefined-- 56.960
1.78 --undefined-- 50.739
1.79 --undefined-- 48.884
1.80 --undefined-- 48.937
1.81 --undefined-- 49.543
1.82 --undefined-- 50.174
1.83 --undefined-- 50.725
1.84 --undefined-- 50.802
1.85 --undefined-- 50.531
1.86 --undefined-- 50.479
1.87 --undefined-- 50.006
1.88 --undefined-- 48.113
1.89 --undefined-- 46.787
1.90 --undefined-- 47.929
1.91 --undefined-- 49.379
1.92 --undefined-- 50.438
1.93 --undefined-- 51.170
1.94 --undefined-- 53.203
1.95 --undefined-- 57.251
1.96 94.334 60.334
1.97 --undefined-- 64.078
1.98 191.907 71.002
1.99 177.576 76.066
2.00 156.786 78.685
2.01 150.986 79.746
2.02 143.547 79.594
2.03 138.581 78.300
2.04 135.876 76.115
2.05 136.949 73.782
2.06 140.201 73.092
2.07 148.636 74.847
2.08 153.545 77.372
2.09 155.793 79.273
2.10 155.183 80.017
2.11 155.334 79.767
2.12 159.563 78.903
2.13 162.595 77.258
2.14 --undefined-- 74.271
2.15 --undefined-- 69.685
2.16 --undefined-- 63.892
2.17 --undefined-- 57.713
2.18 --undefined-- 52.929
2.19 --undefined-- 51.517
2.20 --undefined-- 51.059
2.21 --undefined-- 53.370
2.22 --undefined-- 61.110
2.23 --undefined-- 66.523
2.24 144.087 69.159
2.25 135.334 70.417
2.26 129.787 71.765
2.27 130.778 73.530
2.28 125.118 74.690
2.29 121.755 75.091
2.30 123.000 75.366
2.31 124.340 75.608
2.32 124.547 75.639
2.33 124.528 75.374
2.34 127.415 74.930
2.35 133.768 74.423
2.36 142.578 73.747
2.37 150.307 72.961
2.38 155.133 72.394
2.39 159.071 71.993
2.40 167.599 71.526
2.41 178.755 71.449
2.42 188.424 73.124
2.43 203.299 75.844
2.44 208.558 77.574
2.45 214.880 78.096
2.46 220.374 78.118
2.47 225.304 78.182
2.48 228.931 78.172
2.49 232.767 77.806
2.50 236.778 77.390
2.51 238.164 77.284
2.52 240.539 77.275
2.53 240.737 76.969
2.54 238.104 76.487
2.55 235.215 76.223
2.56 232.417 76.093
2.57 226.943 75.491
2.58 217.230 73.986
2.59 207.126 71.494
2.60 198.530 68.132
2.61 195.041 65.870
2.62 213.799 67.816
2.63 213.650 71.014
2.64 203.164 73.332
2.65 185.852 74.261
2.66 171.189 73.907
2.67 165.324 73.115
2.68 165.791 73.071
2.69 169.744 73.715
2.70 173.016 74.248
2.71 174.833 74.463
2.72 174.585 74.446
2.73 172.798 74.229
2.74 169.685 73.626
2.75 166.130 72.426
2.76 158.161 70.673
2.77 150.164 68.575
2.78 156.406 65.553
2.79 --undefined-- 60.588
2.80 --undefined-- 54.387
2.81 --undefined-- 51.417
2.82 --undefined-- 51.031
2.83 --undefined-- 51.601
2.84 --undefined-- 57.211
2.85 --undefined-- 65.195
2.86 178.216 70.791
2.87 165.116 74.225
2.88 158.643 76.271
2.89 158.108 77.581
2.90 161.521 78.602
2.91 165.734 79.390
2.92 171.447 80.001
2.93 177.096 80.402
2.94 182.761 80.277
2.95 189.254 79.455
2.96 194.796 78.371
2.97 195.833 77.512
2.98 195.562 76.495
2.99 194.465 75.171
3.00 189.979 74.198
3.01 186.382 74.013
3.02 184.217 74.228
3.03 182.643 74.482
3.04 181.069 74.799
3.05 179.448 75.253
3.06 179.265 75.600
3.07 180.092 75.514
3.08 185.912 75.173
3.09 190.816 74.987
3.10 195.663 75.004
3.11 199.872 74.883
3.12 206.770 74.966
3.13 211.112 75.665
3.14 213.736 76.397
3.15 216.212 76.794
3.16 219.495 76.906
3.17 223.517 76.739
3.18 223.656 75.911
3.19 214.136 73.952
3.20 203.334 70.993
3.21 193.675 67.182
3.22 --undefined-- 62.024
3.23 --undefined-- 56.061
3.24 --undefined-- 50.705
3.25 --undefined-- 47.111
3.26 --undefined-- 47.683
3.27 --undefined-- 51.549
3.28 --undefined-- 58.764
3.29 --undefined-- 65.625
3.30 --undefined-- 71.966
3.31 223.037 76.008
3.32 218.100 77.096
3.33 218.737 75.827
3.34 228.891 74.833
3.35 216.440 75.252
3.36 176.060 76.758
3.37 166.972 79.084
3.38 158.547 80.310
3.39 155.032 80.454
3.40 153.181 80.284
3.41 151.669 79.976
3.42 149.878 79.314
3.43 149.955 78.701
3.44 152.154 78.719
3.45 153.745 78.994
3.46 153.922 78.922
3.47 152.888 78.080
3.48 151.015 76.271
3.49 149.996 73.881
3.50 149.960 72.266
3.51 149.703 71.938
3.52 146.854 72.135
3.53 147.523 72.881
3.54 152.689 74.104
3.55 153.488 75.300
3.56 153.821 76.291
3.57 153.759 77.094
3.58 154.770 77.749
3.59 156.972 78.375
3.60 157.351 78.945
3.61 156.756 79.398
3.62 154.226 79.616
3.63 150.988 79.635
3.64 150.847 79.663
3.65 146.442 79.535
3.66 144.801 79.394
3.67 145.474 79.614
3.68 146.445 79.763
3.69 147.309 79.523
3.70 146.767 79.146
3.71 146.059 78.899
3.72 145.777 78.828
3.73 145.811 78.885
3.74 145.630 78.954
3.75 144.938 78.943
3.76 144.871 78.832
3.77 144.920 78.617
3.78 145.148 78.213
3.79 144.137 77.393
3.80 143.704 75.902
3.81 139.505 73.554
3.82 127.227 70.049
3.83 103.624 64.984
3.84 --undefined-- 58.533
3.85 --undefined-- 52.016
3.86 --undefined-- 47.695
3.87 --undefined-- 45.996
3.88 --undefined-- 44.305
3.89 --undefined-- 42.404
3.90 --undefined-- 42.976
3.91 --undefined-- 44.624
3.92 --undefined-- 44.170
3.93 --undefined-- 41.061
3.94 --undefined-- 43.619
3.95 --undefined-- 51.673
3.96 117.402 56.430
3.97 111.363 58.370
3.98 99.756 63.691
3.99 252.016 72.735
4.00 232.632 78.865
4.01 217.990 81.910
4.02 211.103 82.409
4.03 205.488 80.390
4.04 175.829 76.158
4.05 171.950 71.704
4.06 174.851 69.623
4.07 173.411 71.119
4.08 182.644 75.108
4.09 174.780 78.249
4.10 165.198 80.174
4.11 156.042 81.228
4.12 149.337 81.687
4.13 144.843 81.556
4.14 142.713 80.856
4.15 140.835 79.895
4.16 139.435 79.035
4.17 136.954 78.399
4.18 133.312 77.783
4.19 130.599 76.937
4.20 129.101 76.049
4.21 128.721 75.499
4.22 128.553 75.052
4.23 127.162 74.615
4.24 126.476 74.506
4.25 127.969 74.524
4.26 128.619 74.267
4.27 128.632 73.475
4.28 127.056 71.735
4.29 121.410 68.562
4.30 117.877 64.456
4.31 146.088 64.119
4.32 145.420 69.491
4.33 142.452 73.606
4.34 130.634 75.314
4.35 120.886 75.623
4.36 113.140 75.506
4.37 109.424 75.005
4.38 106.237 73.980
4.39 101.513 72.863
4.40 101.316 72.151
4.41 100.054 71.516
4.42 98.694 71.144
4.43 99.498 71.374
4.44 100.942 71.823
4.45 101.292 72.058
4.46 101.584 72.063
4.47 102.930 71.810
4.48 103.220 71.163
4.49 101.567 70.067
4.50 99.344 68.467
4.51 97.735 66.354
4.52 96.759 65.655
4.53 120.447 68.999
4.54 116.676 72.093
4.55 109.424 73.415
4.56 103.805 73.760
4.57 102.352 73.909
4.58 100.616 73.989
4.59 100.513 73.935
4.60 100.013 73.863
4.61 99.937 74.030
4.62 98.998 74.249
4.63 99.348 74.218
4.64 99.578 73.874
4.65 100.506 73.572
4.66 103.688 73.724
4.67 108.058 74.032
4.68 110.035 73.856
4.69 112.512 72.879
4.70 111.502 70.796
4.71 106.090 67.292
4.72 114.579 63.155
4.73 126.583 60.971
4.74 --undefined-- 61.549
4.75 --undefined-- 62.939
4.76 --undefined-- 63.491
4.77 --undefined-- 63.116
4.78 --undefined-- 67.888
4.79 182.428 73.756
4.80 182.110 76.745
4.81 181.756 77.535
4.82 181.981 77.301
4.83 184.945 77.184
4.84 186.169 77.413
4.85 189.793 77.687
4.86 194.003 77.871
4.87 196.134 77.879
4.88 196.400 77.549
4.89 195.349 76.666
4.90 191.129 75.164
4.91 187.753 73.992
4.92 188.354 73.956
4.93 188.297 74.445
4.94 186.037 74.901
4.95 181.342 75.135
4.96 174.356 75.593
4.97 168.525 76.467
4.98 164.624 77.344
4.99 159.052 78.112
5.00 154.114 78.744
5.01 149.480 78.916
5.02 145.154 78.425
5.03 141.216 77.377
5.04 137.510 76.056
5.05 134.992 74.709
5.06 130.918 73.597
5.07 125.580 72.885
5.08 120.600 72.484
5.09 117.661 72.190
5.10 114.864 71.988
5.11 114.013 72.523
5.12 113.208 73.842
5.13 113.104 75.300
5.14 114.016 76.437
5.15 114.169 76.913
5.16 112.914 76.808
5.17 112.809 76.590
5.18 115.335 76.564
5.19 118.324 76.606
5.20 122.365 76.522
5.21 124.452 76.234
5.22 126.252 75.937
5.23 132.199 75.756
5.24 138.626 75.524
5.25 143.732 75.293
5.26 146.779 75.140
5.27 149.573 75.136
5.28 150.142 75.252
5.29 148.174 74.901
5.30 143.323 73.654
5.31 135.536 71.592
5.32 132.136 70.289
5.33 154.643 72.671
5.34 158.223 75.898
5.35 152.088 77.753
5.36 144.237 --undefined--
5.37 137.796 --undefined--
5.38 --undefined-- --undefined--
5.39 --undefined-- --undefined--
