Time Pitch Intensity
0.01 --undefined-- --undefined--
0.02 108.839 --undefined--
0.03 103.930 --undefined--
0.04 103.743 --undefined--
0.05 103.563 69.477
0.06 103.282 70.249
0.07 103.286 70.930
0.08 104.706 70.961
0.09 105.008 70.772
0.10 105.911 70.667
0.11 111.122 70.704
0.12 112.414 70.728
0.13 116.408 70.223
0.14 123.360 69.142
0.15 124.873 67.841
0.16 124.849 65.641
0.17 121.978 61.662
0.18 114.601 55.930
0.19 --undefined-- 50.337
0.20 --undefined-- 46.685
0.21 --undefined-- 44.182
0.22 --undefined-- 41.432
0.23 --undefined-- 37.954
0.24 --undefined-- 36.140
0.25 --undefined-- 37.805
0.26 --undefined-- 49.914
0.27 --undefined-- 60.595
0.28 --undefined-- 66.078
0.29 --undefined-- 67.519
0.30 --undefined-- 67.506
0.31 --undefined-- 68.783
0.32 --undefined-- 69.535
0.33 100.437 69.660
0.34 99.083 70.344
0.35 100.477 71.149
0.36 99.075 71.422
0.37 96.828 71.251
0.38 96.015 70.793
0.39 94.026 70.003
0.40 95.316 69.425
0.41 95.582 69.572
0.42 95.617 69.937
0.43 95.306 70.145
0.44 95.230 70.130
0.45 95.501 69.923
0.46 95.403 69.791
0.47 95.513 69.857
0.48 95.841 69.884
0.49 96.029 69.849
0.50 96.303 70.024
0.51 98.003 70.111
0.52 98.283 69.856
0.53 96.968 69.709
0.54 97.551 69.509
0.55 98.141 69.072
0.56 97.635 68.179
0.57 98.180 66.330
0.58 --undefined-- 63.205
0.59 --undefined-- 59.067
0.60 --undefined-- 56.098
0.61 --undefined-- 54.243
0.62 --undefined-- 51.877
0.63 --undefined-- 50.426
0.64 --undefined-- 49.580
0.65 --undefined-- 48.789
0.66 --undefined-- 48.299
0.67 --undefined-- 47.840
0.68 --undefined-- 46.670
0.69 --undefined-- 45.557
0.70 --undefined-- 45.729
0.71 --undefined-- 46.137
0.72 --undefined-- 46.197
0.73 --undefined-- 47.728
0.74 --undefined-- 51.588
0.75 109.302 55.349
0.76 107.172 57.546
0.77 106.755 58.686
0.78 106.856 59.717
0.79 107.236 60.408
0.80 108.589 60.504
0.81 109.775 60.046
0.82 111.270 59.742
0.83 115.978 60.381
0.84 121.298 61.588
0.85 125.254 63.337
0.86 128.233 65.228
0.87 131.247 66.615
0.88 132.911 67.245
0.89 135.203 66.961
0.90 135.323 66.082
0.91 135.317 65.685
0.92 134.763 65.681
0.93 131.189 65.220
0.94 128.431 63.470
0.95 124.908 59.624
0.96 --undefined-- 54.348
0.97 --undefined-- 53.863
0.98 --undefined-- 56.349
0.99 --undefined-- 57.352
1.00 --undefined-- 56.856
1.01 --undefined-- 55.739
1.02 --undefined-- 55.781
1.03 --undefined-- 57.981
1.04 --undefined-- 60.659
1.05 271.252 62.050
1.06 272.220 61.630
1.07 272.080 59.761
1.08 --undefined-- 58.967
1.09 108.878 61.593
1.10 107.151 64.570
1.11 104.363 65.990
1.12 100.260 66.169
1.13 96.055 66.085
1.14 98.728 65.684
1.15 98.346 65.181
1.16 94.910 64.568
1.17 94.433 63.961
1.18 96.739 62.867
1.19 96.198 60.589
1.20 93.502 56.931
1.21 --undefined-- 52.175
1.22 --undefined-- 46.912
1.23 --undefined-- 43.502
1.24 --undefined-- 52.615
1.25 --undefined-- 61.288
1.26 --undefined-- 66.148
1.27 --undefined-- 67.722
1.28 --undefined-- 66.526
1.29 --undefined-- 63.305
1.30 --undefined-- 60.487
1.31 --undefined-- 62.415
1.32 87.210 65.698
1.33 87.930 67.639
1.34 88.838 68.005
1.35 91.540 67.572
1.36 90.956 67.506
1.37 91.718 67.812
1.38 93.898 68.242
1.39 97.851 69.021
1.40 99.772 69.266
1.41 103.604 68.780
1.42 106.415 68.312
1.43 110.671 67.727
1.44 115.311 66.710
1.45 117.172 65.119
1.46 118.185 62.328
1.47 --undefined-- 57.698
1.48 --undefined-- 51.374
1.49 --undefined-- 46.386
1.50 --undefined-- 53.135
1.51 --undefined-- 61.999
1.52 --undefined-- 66.205
1.53 --undefined-- 66.225
1.54 --undefined-- 62.780
1.55 --undefined-- 60.727
1.56 --undefined-- 64.270
1.57 --undefined-- 67.180
1.58 101.962 68.429
1.59 100.659 68.460
1.60 99.521 67.989
1.61 96.217 67.829
1.62 95.933 68.330
1.63 96.212 68.734
1.64 94.812 68.004
1.65 93.302 67.244
1.66 94.483 66.965
1.67 91.129 66.798
1.68 94.888 66.820
1.69 92.736 66.889
1.70 94.002 67.070
1.71 94.569 66.714
1.72 93.917 65.938
1.73 93.210 65.143
1.74 89.874 64.285
1.75 90.741 63.480
1.76 88.332 62.569
1.77 89.332 60.608
1.78 88.909 57.328
1.79 87.649 54.255
1.80 87.643 52.689
1.81 87.469 52.411
1.82 89.927 53.450
1.83 93.203 54.870
1.84 92.844 55.566
1.85 --undefined-- 55.537
1.86 100.611 55.762
1.87 101.444 56.710
1.88 104.507 57.372
1.89 106.111 57.421
1.90 107.805 57.548
1.91 107.739 57.710
1.92 103.995 58.041
1.93 101.906 59.679
1.94 101.205 62.656
1.95 --undefined-- 65.400
1.96 --undefined-- 66.849
1.97 --undefined-- 66.823
1.98 --undefined-- 65.964
1.99 --undefined-- 64.643
2.00 --undefined-- 61.454
2.01 --undefined-- 55.797
2.02 --undefined-- 53.516
2.03 91.426 54.438
2.04 94.175 54.558
2.05 96.649 54.166
2.06 101.721 53.885
2.07 102.876 54.420
2.08 106.099 54.973
2.09 105.835 54.294
2.10 --undefined-- 54.922
2.11 --undefined-- 60.228
2.12 --undefined-- 64.855
2.13 --undefined-- 66.739
2.14 --undefined-- 65.543
2.15 --undefined-- 63.261
2.16 --undefined-- 64.453
2.17 --undefined-- 65.839
2.18 --undefined-- 66.051
2.19 --undefined-- 65.170
2.20 --undefined-- 64.288
2.21 --undefined-- 63.916
2.22 --undefined-- 62.114
2.23 --undefined-- 60.262
2.24 --undefined-- 58.134
2.25 --undefined-- 54.570
2.26 --undefined-- 51.618
2.27 --undefined-- 47.689
2.28 --undefined-- 41.418
2.29 --undefined-- 37.086
2.30 --undefined-- 42.954
2.31 --undefined-- 50.230
2.32 --undefined-- 56.216
2.33 --undefined-- 61.776
2.34 --undefined-- 65.446
2.35 --undefined-- 66.878
2.36 --undefined-- 66.729
2.37 --undefined-- 65.760
2.38 --undefined-- 65.421
2.39 --undefined-- 66.013
2.40 --undefined-- 64.642
2.41 --undefined-- 61.014
2.42 --undefined-- 56.890
2.43 --undefined-- 55.812
2.44 --undefined-- 56.222
2.45 --undefined-- 55.002
2.46 --undefined-- 53.046
2.47 --undefined-- 54.109
2.48 --undefined-- 55.822
2.49 --undefined-- 56.313
2.50 --undefined-- 55.070
2.51 --undefined-- 52.807
2.52 --undefined-- 52.338
2.53 --undefined-- 52.021
2.54 --undefined-- 52.755
2.55 --undefined-- 56.257
2.56 --undefined-- 59.988
2.57 --undefined-- 63.275
2.58 --undefined-- 64.791
2.59 --undefined-- 64.818
2.60 --undefined-- 64.774
2.61 --undefined-- 63.050
2.62 --undefined-- 59.163
2.63 --undefined-- 56.695
2.64 --undefined-- 57.742
2.65 --undefined-- 61.494
2.66 --undefined-- 65.707
2.67 --undefined-- 67.631
2.68 --undefined-- 66.589
2.69 --undefined-- 63.892
2.70 --undefined-- 61.660
2.71 --undefined-- 59.529
2.72 --undefined-- 57.995
2.73 --undefined-- 55.033
2.74 --undefined-- 49.754
2.75 --undefined-- 45.325
2.76 --undefined-- 49.981
2.77 --undefined-- 60.387
2.78 --undefined-- 67.270
2.79 122.297 71.288
2.80 126.313 73.601
2.81 129.463 75.200
2.82 128.156 76.484
2.83 127.477 77.338
2.84 126.614 77.798
2.85 126.565 77.994
2.86 126.732 78.038
2.87 126.028 78.030
2.88 125.310 77.947
2.89 125.088 77.736
2.90 125.272 77.426
2.91 125.365 77.086
2.92 125.549 76.747
2.93 125.259 76.452
2.94 124.568 76.251
2.95 123.854 76.126
2.96 123.158 76.039
2.97 122.429 75.936
2.98 121.523 75.829
2.99 120.815 75.765
3.00 120.421 75.680
3.01 119.911 75.572
3.02 119.019 75.503
3.03 117.960 75.451
3.04 116.791 75.416
3.05 115.449 75.402
3.06 114.456 75.380
3.07 113.631 75.369
3.08 112.855 75.368
3.09 111.984 75.316
3.10 110.835 75.176
3.11 109.760 74.976
3.12 109.066 74.714
3.13 108.015 74.334
3.14 106.879 73.904
3.15 105.529 73.520
3.16 104.679 73.139
3.17 103.449 72.633
3.18 102.475 72.047
3.19 101.682 71.615
3.20 101.267 71.443
3.21 101.099 71.443
3.22 101.154 71.495
3.23 98.742 71.558
3.24 99.976 71.499
3.25 99.722 71.168
3.26 96.978 70.682
3.27 96.485 70.217
3.28 94.120 70.053
3.29 94.125 70.296
3.30 94.280 70.434
3.31 93.498 70.228
3.32 92.182 69.693
3.33 90.899 68.934
3.34 89.184 68.327
3.35 88.371 68.050
3.36 87.554 67.866
3.37 86.086 67.605
3.38 84.972 67.392
3.39 84.256 67.325
3.40 82.977 67.169
3.41 82.408 66.876
3.42 82.591 66.707
3.43 82.778 66.605
3.44 82.402 66.482
3.45 83.429 66.423
3.46 83.885 66.362
3.47 84.004 66.224
3.48 83.508 65.904
3.49 81.877 65.082
3.50 81.284 63.911
3.51 81.763 62.965
3.52 83.410 62.367
3.53 85.127 61.837
3.54 89.983 61.302
3.55 96.884 60.604
3.56 96.241 59.343
3.57 95.235 57.552
3.58 95.571 55.033
3.59 --undefined-- 51.199
3.60 --undefined-- 46.052
3.61 --undefined-- 40.942
3.62 --undefined-- 38.049
3.63 --undefined-- 36.391
3.64 --undefined-- 35.102
3.65 --undefined-- 36.256
3.66 --undefined-- 38.364
3.67 --undefined-- 38.498
3.68 --undefined-- 37.159
3.69 --undefined-- 35.387
3.70 --undefined-- 33.975
3.71 --undefined-- 34.185
3.72 --undefined-- 34.959
3.73 --undefined-- 36.615
3.74 --undefined-- 37.946
3.75 --undefined-- 38.017
3.76 --undefined-- 37.588
3.77 --undefined-- 38.339
3.78 --undefined-- 39.673
3.79 --undefined-- 39.617
3.80 --undefined-- 38.341
3.81 --undefined-- 37.403
3.82 --undefined-- 37.264
3.83 --undefined-- 38.040
3.84 --undefined-- 38.580
3.85 --undefined-- 43.793
3.86 --undefined-- 53.372
3.87 --undefined-- 61.102
3.88 --undefined-- 66.239
3.89 --undefined-- 69.261
3.90 --undefined-- 70.482
3.91 96.112 70.453
3.92 96.601 71.133
3.93 101.050 72.510
3.94 101.506 73.362
3.95 101.452 73.641
3.96 100.362 73.198
3.97 98.804 72.037
3.98 98.712 71.238
3.99 99.278 71.343
4.00 100.236 71.118
4.01 101.529 70.193
4.02 101.769 68.641
4.03 --undefined-- 65.731
4.04 --undefined-- 60.393
4.05 --undefined-- 52.308
4.06 --undefined-- 47.602
4.07 --undefined-- 47.709
4.08 --undefined-- 51.387
4.09 --undefined-- 59.596
4.10 --undefined-- 66.391
4.11 --undefined-- 69.985
4.12 --undefined-- 71.037
4.13 111.352 70.590
4.14 111.183 70.145
4.15 111.426 70.407
4.16 111.062 70.431
4.17 110.282 69.492
4.18 110.280 67.450
4.19 112.137 64.477
4.20 --undefined-- 60.002
4.21 --undefined-- 53.750
4.22 --undefined-- 50.442
4.23 --undefined-- 54.489
4.24 --undefined-- 61.195
4.25 127.660 66.177
4.26 134.667 68.758
4.27 134.823 68.889
4.28 134.776 66.603
4.29 138.574 63.139
4.30 146.631 62.038
4.31 149.642 62.488
4.32 151.507 62.798
4.33 150.674 62.704
4.34 148.579 61.685
4.35 140.161 60.231
4.36 136.265 64.070
4.37 142.067 69.054
4.38 142.992 71.600
4.39 130.138 72.572
4.40 119.679 72.602
4.41 111.094 72.106
4.42 108.580 71.187
4.43 104.086 69.669
4.44 104.041 67.046
4.45 --undefined-- 62.178
4.46 --undefined-- 54.757
4.47 --undefined-- 48.207
4.48 --undefined-- 45.402
4.49 --undefined-- 44.290
4.50 --undefined-- 43.645
4.51 --undefined-- 42.274
4.52 --undefined-- 40.690
4.53 --undefined-- 39.813
4.54 --undefined-- 39.794
4.55 --undefined-- 40.811
4.56 --undefined-- 53.415
4.57 --undefined-- 65.607
4.58 --undefined-- 72.678
4.59 --undefined-- 75.881
4.60 159.528 76.371
4.61 158.591 75.486
4.62 159.910 74.818
4.63 160.195 74.831
4.64 160.418 74.991
4.65 162.087 74.998
4.66 163.306 74.742
4.67 164.878 74.488
4.68 167.353 74.597
4.69 168.899 74.811
4.70 169.935 74.697
4.71 169.690 74.230
4.72 167.687 73.146
4.73 164.225 71.112
4.74 162.556 69.062
4.75 157.439 68.071
4.76 152.036 67.718
4.77 145.335 68.623
4.78 --undefined-- 71.007
4.79 --undefined-- 72.792
4.80 --undefined-- 73.110
4.81 --undefined-- 72.087
4.82 --undefined-- 69.848
4.83 --undefined-- 66.561
4.84 --undefined-- 62.315
4.85 --undefined-- 57.740
4.86 --undefined-- 55.017
4.87 --undefined-- 54.119
4.88 --undefined-- 52.465
4.89 --undefined-- 50.262
4.90 --undefined-- 49.663
4.91 --undefined-- 48.502
4.92 --undefined-- 46.070
4.93 --undefined-- 46.268
4.94 --undefined-- 50.232
4.95 --undefined-- 53.540
4.96 --undefined-- 55.940
4.97 --undefined-- 61.126
4.98 --undefined-- 67.305
4.99 --undefined-- 71.178
5.00 112.606 72.890
5.01 111.012 73.125
5.02 109.113 72.606
5.03 107.126 72.022
5.04 107.259 71.555
5.05 108.703 70.941
5.06 109.184 69.564
5.07 109.115 66.710
5.08 108.770 61.708
5.09 --undefined-- 54.858
5.10 --undefined-- 49.116
5.11 --undefined-- 48.854
5.12 --undefined-- 56.420
5.13 --undefined-- 64.405
5.14 156.956 69.545
5.15 156.427 71.759
5.16 158.120 72.041
5.17 160.662 71.599
5.18 162.455 71.108
5.19 163.415 70.397
5.20 162.058 68.672
5.21 159.574 65.079
5.22 --undefined-- 59.627
5.23 --undefined-- 55.683
5.24 --undefined-- 56.556
5.25 --undefined-- 62.919
5.26 123.637 68.330
5.27 122.284 71.078
5.28 118.801 71.390
5.29 115.712 69.371
5.30 --undefined-- 64.903
5.31 --undefined-- 57.440
5.32 --undefined-- 48.326
5.33 --undefined-- 42.455
5.34 --undefined-- 40.116
5.35 --undefined-- 38.461
5.36 --undefined-- 35.972
5.37 --undefined-- 32.812
5.38 --undefined-- 31.603
5.39 --undefined-- --undefined--
5.40 --undefined-- --undefined--
5.41 --undefined-- --undefined--
5.42 --undefined-- --undefined--
