Time Pitch Intensity
0.01 --undefined-- --undefined--
0.02 181.577 --undefined--
0.03 189.646 --undefined--
0.04 196.130 --undefined--
0.05 200.151 81.169
0.06 203.457 80.483
0.07 202.067 79.563
0.08 197.639 78.311
0.09 191.482 75.927
0.10 185.150 72.018
0.11 --undefined-- 68.410
0.12 84.534 66.313
0.13 83.945 63.832
0.14 --undefined-- 60.822
0.15 --undefined-- 58.008
0.16 --undefined-- 54.437
0.17 --undefined-- 48.693
0.18 --undefined-- 42.667
0.19 --undefined-- 40.035
0.20 --undefined-- 37.953
0.21 --undefined-- 35.459
0.22 --undefined-- 34.345
0.23 --undefined-- 35.721
0.24 --undefined-- 37.174
0.25 --undefined-- 36.848
0.26 --undefined-- 36.569
0.27 --undefined-- 37.511
0.28 --undefined-- 37.059
0.29 --undefined-- 35.747
0.30 --undefined-- 36.213
0.31 --undefined-- 38.480
0.32 --undefined-- 42.371
0.33 --undefined-- 49.511
0.34 --undefined-- 59.822
0.35 170.939 67.705
0.36 167.879 72.353
0.37 153.939 74.732
0.38 149.195 76.181
0.39 145.521 76.917
0.40 142.490 75.959
0.41 139.870 72.362
0.42 111.999 65.820
0.43 --undefined-- 57.953
0.44 --undefined-- 52.057
0.45 --undefined-- 50.790
0.46 --undefined-- 59.837
0.47 --undefined-- 68.028
0.48 149.417 72.708
0.49 141.582 74.628
0.50 135.135 74.961
0.51 131.215 74.819
0.52 129.438 74.489
0.53 128.405 74.237
0.54 128.473 74.284
0.55 128.765 74.362
0.56 129.025 73.867
0.57 125.480 72.286
0.58 123.095 70.317
0.59 124.049 69.280
0.60 123.074 68.902
0.61 122.709 68.750
0.62 121.676 68.643
0.63 121.233 68.547
0.64 121.641 68.660
0.65 126.490 69.658
0.66 119.537 71.917
0.67 114.671 73.888
0.68 113.236 74.282
0.69 110.651 73.327
0.70 108.142 71.946
0.71 108.150 71.207
0.72 110.479 71.586
0.73 114.302 72.760
0.74 116.921 73.698
0.75 119.124 73.573
0.76 123.342 72.257
0.77 128.535 70.086
0.78 131.854 68.059
0.79 135.810 67.489
0.80 137.125 67.851
0.81 138.303 68.295
0.82 139.282 68.704
0.83 137.622 69.058
0.84 133.851 69.208
0.85 131.555 69.915
0.86 132.067 72.007
0.87 127.949 73.845
0.88 123.774 74.266
0.89 118.365 73.691
0.90 114.759 72.435
0.91 111.589 70.157
0.92 102.378 67.349
0.93 99.675 65.617
0.94 99.138 64.801
0.95 99.299 64.183
0.96 101.598 63.547
0.97 105.528 63.012
0.98 108.972 62.627
0.99 110.465 61.850
1.00 110.747 59.980
1.01 107.668 56.497
1.02 --undefined-- 51.708
1.03 --undefined-- 47.706
1.04 --undefined-- 45.203
1.05 --undefined-- 44.430
1.06 --undefined-- 44.450
1.07 --undefined-- 45.006
1.08 --undefined-- 52.536
1.09 --undefined-- 63.914
1.10 --undefined-- 71.106
1.11 173.255 74.670
1.12 168.187 75.583
1.13 164.991 74.735
1.14 164.728 72.932
1.15 166.423 71.632
1.16 165.414 71.606
1.17 164.558 71.760
1.18 163.713 71.780
1.19 164.263 71.936
1.20 166.901 72.251
1.21 170.569 72.620
1.22 173.526 73.063
1.23 173.735 73.381
1.24 170.258 73.064
1.25 163.796 71.670
1.26 154.839 68.833
1.27 145.394 64.253
1.28 --undefined-- 58.729
1.29 --undefined-- 57.257
1.30 --undefined-- 59.238
1.31 --undefined-- 60.941
1.32 --undefined-- 62.511
1.33 --undefined-- 63.217
1.34 --undefined-- 62.382
1.35 --undefined-- 61.069
1.36 --undefined-- 60.386
1.37 --undefined-- 60.504
1.38 --undefined-- 64.534
1.39 136.954 68.205
1.40 129.791 69.492
1.41 120.230 69.185
1.42 113.857 68.559
1.43 112.030 68.163
1.44 110.470 67.778
1.45 109.672 67.438
1.46 109.834 67.243
1.47 108.901 67.007
1.48 106.517 66.233
1.49 104.616 65.172
1.50 107.768 64.800
1.51 108.775 64.600
1.52 108.867 64.103
1.53 107.425 63.371
1.54 107.318 62.356
1.55 96.779 60.738
1.56 --undefined-- 58.381
1.57 --undefined-- 54.602
1.58 --undefined-- 48.161
1.59 --undefined-- 41.395
1.60 --undefined-- 39.897
1.61 --undefined-- 39.359
1.62 --undefined-- 38.409
1.63 --undefined-- 35.958
1.64 --undefined-- 34.294
1.65 --undefined-- 35.679
1.66 --undefined-- 37.103
1.67 --undefined-- 37.593
1.68 --undefined-- 37.688
1.69 --undefined-- 39.536
1.70 --undefined-- 40.996
1.71 --undefined-- 40.171
1.72 --undefined-- 38.313
1.73 --undefined-- 38.220
1.74 --undefined-- 38.248
1.75 --undefined-- 37.052
1.76 --undefined-- 37.889
1.77 --undefined-- 39.513
1.78 --undefined-- 39.666
1.79 --undefined-- 39.139
1.80 --undefined-- 38.699
1.81 --undefined-- 37.996
1.82 --undefined-- 37.109
1.83 --undefined-- 36.834
1.84 --undefined-- 37.438
1.85 --undefined-- 38.135
1.86 --undefined-- 37.227
1.87 --undefined-- 37.227
1.88 --undefined-- 38.500
1.89 --undefined-- 38.298
1.90 --undefined-- 37.566
1.91 --undefined-- 38.383
1.92 --undefined-- 39.719
1.93 --undefined-- 40.066
1.94 --undefined-- 39.293
1.95 --undefined-- 38.564
1.96 --undefined-- 39.131
1.97 --undefined-- 39.878
1.98 --undefined-- 39.572
1.99 --undefined-- 38.145
2.00 --undefined-- 36.428
2.01 --undefined-- 35.950
2.02 --undefined-- 40.692
2.03 --undefined-- 44.582
2.04 --undefined-- 44.759
2.05 --undefined-- 41.843
2.06 --undefined-- 39.364
2.07 --undefined-- 39.359
2.08 --undefined-- 39.684
2.09 --undefined-- 38.941
2.10 --undefined-- 38.887
2.11 --undefined-- 39.757
2.12 --undefined-- 40.277
2.13 --undefined-- 41.342
2.14 --undefined-- 42.904
2.15 --undefined-- 44.039
2.16 --undefined-- 44.569
2.17 --undefined-- 44.738
2.18 --undefined-- 44.517
2.19 --undefined-- 44.780
2.20 --undefined-- 45.266
2.21 --undefined-- 44.663
2.22 --undefined-- 43.499
2.23 --undefined-- 42.843
2.24 --undefined-- 42.831
2.25 --undefined-- 42.926
2.26 --undefined-- 42.306
2.27 --undefined-- 41.834
2.28 --undefined-- 42.194
2.29 --undefined-- 42.419
2.30 --undefined-- 42.966
2.31 --undefined-- 43.009
2.32 --undefined-- 41.406
2.33 --undefined-- 40.308
2.34 --undefined-- 40.815
2.35 --undefined-- 40.673
2.36 --undefined-- 39.742
2.37 --undefined-- 38.893
2.38 --undefined-- 38.489
2.39 --undefined-- 39.089
2.40 --undefined-- 40.395
2.41 --undefined-- 40.377
2.42 --undefined-- 38.820
2.43 --undefined-- 37.682
2.44 --undefined-- 38.259
2.45 --undefined-- 38.792
2.46 --undefined-- 38.140
2.47 --undefined-- 37.554
2.48 --undefined-- 38.379
2.49 --undefined-- 39.117
2.50 --undefined-- 40.016
2.51 --undefined-- 41.979
2.52 --undefined-- 44.788
2.53 --undefined-- 54.186
2.54 --undefined-- 62.124
2.55 --undefined-- 67.338
2.56 133.116 70.913
2.57 134.691 73.484
2.58 136.878 75.517
2.59 138.809 77.140
2.60 139.738 78.189
2.61 145.309 78.767
2.62 147.454 78.618
2.63 151.777 77.536
2.64 158.627 76.197
2.65 172.546 75.592
2.66 174.660 76.264
2.67 174.216 77.035
2.68 173.046 77.119
2.69 170.176 76.553
2.70 164.854 76.385
2.71 161.432 77.039
2.72 151.587 77.137
2.73 145.449 76.208
2.74 131.251 74.783
2.75 128.936 73.513
2.76 123.149 72.715
2.77 120.116 71.925
2.78 117.618 70.729
2.79 114.868 69.704
2.80 114.297 69.149
2.81 114.412 68.567
2.82 114.048 67.801
2.83 113.729 66.969
2.84 113.372 65.814
2.85 112.519 63.786
2.86 108.484 60.565
2.87 111.592 56.232
2.88 --undefined-- 51.335
2.89 --undefined-- 46.779
2.90 --undefined-- 52.550
2.91 --undefined-- 62.858
2.92 201.256 70.525
2.93 194.401 75.213
2.94 189.070 77.351
2.95 184.648 77.528
2.96 181.756 76.171
2.97 177.873 73.125
2.98 142.976 67.778
2.99 --undefined-- 60.173
3.00 --undefined-- 52.528
3.01 --undefined-- 46.875
3.02 --undefined-- 46.453
3.03 --undefined-- 49.622
3.04 --undefined-- 53.595
3.05 --undefined-- 60.665
3.06 174.811 67.937
3.07 163.809 72.541
3.08 160.237 74.752
3.09 152.087 75.275
3.10 139.825 74.685
3.11 135.216 73.671
3.12 131.746 72.864
3.13 129.294 72.128
3.14 124.166 71.036
3.15 118.641 68.959
3.16 112.831 65.255
3.17 --undefined-- 59.498
3.18 --undefined-- 52.582
3.19 --undefined-- 49.801
3.20 --undefined-- 47.786
3.21 --undefined-- 44.499
3.22 --undefined-- 43.467
3.23 --undefined-- 42.427
3.24 --undefined-- 40.053
3.25 --undefined-- 38.896
3.26 --undefined-- 38.485
3.27 --undefined-- 37.715
3.28 --undefined-- 37.603
3.29 --undefined-- 37.866
3.30 --undefined-- 39.507
3.31 --undefined-- 49.590
3.32 --undefined-- 57.768
3.33 --undefined-- 62.200
3.34 --undefined-- 66.236
3.35 180.613 71.157
3.36 175.347 74.840
3.37 172.892 77.170
3.38 171.771 78.497
3.39 171.297 79.205
3.40 171.316 79.609
3.41 171.885 79.797
3.42 171.967 79.771
3.43 171.626 79.484
3.44 171.233 78.936
3.45 171.125 78.275
3.46 171.677 77.787
3.47 171.596 77.630
3.48 170.587 77.396
3.49 172.621 76.507
3.50 175.917 75.624
3.51 170.909 75.220
3.52 171.319 74.057
3.53 174.909 71.722
3.54 171.981 69.027
3.55 165.519 66.366
3.56 154.529 63.478
3.57 --undefined-- 60.795
3.58 --undefined-- 58.285
3.59 --undefined-- 55.763
3.60 --undefined-- 54.702
3.61 --undefined-- 55.280
3.62 --undefined-- 57.049
3.63 --undefined-- 59.348
3.64 129.939 61.094
3.65 135.186 62.514
3.66 135.276 63.814
3.67 134.054 64.774
3.68 132.934 65.273
3.69 131.601 65.320
3.70 129.377 65.221
3.71 126.494 65.203
3.72 125.240 65.225
3.73 125.122 65.181
3.74 125.596 65.099
3.75 125.216 65.101
3.76 125.050 65.133
3.77 124.774 65.199
3.78 124.416 65.502
3.79 124.230 66.377
3.80 124.307 67.788
3.81 124.887 69.726
3.82 128.783 71.488
3.83 127.917 72.060
3.84 117.184 71.670
3.85 113.889 70.672
3.86 109.090 68.862
3.87 106.234 66.854
3.88 105.701 65.635
3.89 102.380 64.512
3.90 98.404 63.077
3.91 100.085 62.312
3.92 102.174 62.943
3.93 110.393 64.286
3.94 113.389 65.136
3.95 116.530 64.951
3.96 119.903 63.437
3.97 117.328 60.253
3.98 --undefined-- 55.295
3.99 --undefined-- 50.143
4.00 --undefined-- 47.351
4.01 --undefined-- 45.778
4.02 --undefined-- 45.922
4.03 --undefined-- 50.610
4.04 --undefined-- 59.258
4.05 145.243 65.429
4.06 136.924 68.626
4.07 130.651 69.994
4.08 126.045 70.963
4.09 124.963 72.087
4.10 126.948 73.144
4.11 130.490 74.035
4.12 136.495 74.934
4.13 142.242 75.997
4.14 146.125 76.818
4.15 150.630 76.617
4.16 157.868 75.536
4.17 165.402 74.223
4.18 169.708 72.832
4.19 167.606 71.906
4.20 165.430 71.875
4.21 160.963 73.010
4.22 156.826 74.963
4.23 149.869 76.634
4.24 143.546 77.325
4.25 136.707 77.242
4.26 132.200 77.192
4.27 128.446 76.845
4.28 127.189 75.657
4.29 123.933 73.980
4.30 119.066 72.720
4.31 116.258 71.950
4.32 114.650 71.091
4.33 110.517 70.355
4.34 111.175 70.312
4.35 111.815 70.422
4.36 112.941 69.840
4.37 113.748 68.990
4.38 114.778 68.638
4.39 115.018 68.497
4.40 112.882 68.146
4.41 112.972 67.467
4.42 111.730 66.448
4.43 108.289 64.923
4.44 112.025 62.866
4.45 --undefined-- 59.716
4.46 --undefined-- 55.328
4.47 --undefined-- 50.422
4.48 --undefined-- 44.851
4.49 --undefined-- 41.146
4.50 --undefined-- 40.162
4.51 --undefined-- 39.902
4.52 --undefined-- 38.884
4.53 --undefined-- 39.730
4.54 --undefined-- 40.554
4.55 --undefined-- 39.970
4.56 --undefined-- 38.903
4.57 --undefined-- 37.795
4.58 --undefined-- 38.549
4.59 --undefined-- 40.344
4.60 --undefined-- 41.388
4.61 --undefined-- 40.996
4.62 --undefined-- 40.504
4.63 --undefined-- 41.410
4.64 --undefined-- 42.085
4.65 --undefined-- 41.005
4.66 --undefined-- 39.001
4.67 --undefined-- 37.360
4.68 --undefined-- 37.004
4.69 --undefined-- 37.659
4.70 --undefined-- 38.377
4.71 --undefined-- 38.713
4.72 --undefined-- 39.283
4.73 --undefined-- 41.875
4.74 --undefined-- 44.386
4.75 --undefined-- 44.555
4.76 --undefined-- 42.911
4.77 --undefined-- 43.220
4.78 --undefined-- 46.133
4.79 --undefined-- 48.559
4.80 --undefined-- 52.930
4.81 --undefined-- 60.505
4.82 155.662 66.376
4.83 140.138 70.048
4.84 139.083 72.419
4.85 139.905 74.377
4.86 140.299 75.686
4.87 147.608 76.223
4.88 152.638 76.364
4.89 166.887 76.614
4.90 174.304 77.451
4.91 178.131 77.559
4.92 179.105 75.604
4.93 173.191 70.863
4.94 172.154 63.336
4.95 --undefined-- 53.888
4.96 --undefined-- 48.152
4.97 --undefined-- 47.772
4.98 --undefined-- 46.835
4.99 --undefined-- 45.347
5.00 --undefined-- 45.219
5.01 --undefined-- 53.068
5.02 --undefined-- 64.189
5.03 223.139 71.598
5.04 201.797 75.620
5.05 186.778 77.483
5.06 179.928 78.282
5.07 180.459 78.186
5.08 182.768 77.980
5.09 182.702 78.915
5.10 180.625 80.093
5.11 179.537 80.096
5.12 183.640 78.638
5.13 187.341 76.590
5.14 181.852 74.764
5.15 173.452 72.510
5.16 156.699 69.007
5.17 153.678 64.304
5.18 --undefined-- 59.551
5.19 --undefined-- 58.178
5.20 --undefined-- 57.678
5.21 --undefined-- 55.273
5.22 --undefined-- 50.843
5.23 --undefined-- 45.127
5.24 --undefined-- 41.856
5.25 --undefined-- 41.785
5.26 --undefined-- 45.174
5.27 --undefined-- 57.020
5.28 --undefined-- 66.116
5.29 195.971 72.548
5.30 184.144 76.957
5.31 176.871 79.815
5.32 171.536 81.199
5.33 167.232 81.338
5.34 163.038 80.682
5.35 158.285 79.704
5.36 152.695 78.281
5.37 147.792 75.663
5.38 141.980 71.204
5.39 121.074 64.637
5.40 --undefined-- 57.594
5.41 --undefined-- 51.533
5.42 --undefined-- 46.807
5.43 --undefined-- 43.682
5.44 --undefined-- 44.262
5.45 --undefined-- 47.852
5.46 --undefined-- 49.714
5.47 --undefined-- 48.035
5.48 --undefined-- 43.395
5.49 --undefined-- 39.964
5.50 --undefined-- 39.038
5.51 --undefined-- 38.892
5.52 --undefined-- 39.551
5.53 --undefined-- 40.674
5.54 --undefined-- 41.007
5.55 --undefined-- 40.048
5.56 --undefined-- 40.412
5.57 --undefined-- 42.593
5.58 --undefined-- 43.912
5.59 --undefined-- 44.866
5.60 --undefined-- 47.728
5.61 --undefined-- 51.965
5.62 --undefined-- 55.935
5.63 --undefined-- 59.035
5.64 --undefined-- 61.383
5.65 --undefined-- 62.551
5.66 --undefined-- 62.077
5.67 --undefined-- 61.674
5.68 196.122 67.383
5.69 192.141 72.474
5.70 180.861 74.271
5.71 169.700 72.964
5.72 150.211 69.883
5.73 --undefined-- 67.589
5.74 --undefined-- 65.049
5.75 --undefined-- 62.051
5.76 155.589 63.941
5.77 152.747 67.638
5.78 158.647 71.108
5.79 155.313 74.191
5.80 147.361 76.073
5.81 141.791 76.668
5.82 137.084 76.440
5.83 134.321 75.591
5.84 132.027 74.342
5.85 --undefined-- 72.697
5.86 --undefined-- 69.991
5.87 --undefined-- 65.776
5.88 --undefined-- 60.386
5.89 --undefined-- 54.834
5.90 --undefined-- 55.084
5.91 101.125 57.836
5.92 --undefined-- 60.229
5.93 123.898 62.009
5.94 125.172 63.474
5.95 125.864 65.074
5.96 128.322 67.056
5.97 127.434 69.135
5.98 117.613 70.583
5.99 115.795 71.136
6.00 115.805 71.170
6.01 116.303 71.418
6.02 117.970 72.075
6.03 120.075 72.733
6.04 121.659 72.954
6.05 123.685 72.584
6.06 126.965 71.920
6.07 133.774 71.826
6.08 141.677 72.466
6.09 145.357 73.032
6.10 147.614 73.333
6.11 148.650 73.373
6.12 148.016 73.075
6.13 146.170 72.503
6.14 144.881 71.714
6.15 140.750 71.216
6.16 139.297 71.739
6.17 138.305 72.814
6.18 137.072 73.674
6.19 135.811 74.077
6.20 134.417 74.183
6.21 133.188 74.222
6.22 132.139 74.379
6.23 131.903 74.619
6.24 130.869 74.348
6.25 127.802 72.527
6.26 117.400 68.296
6.27 104.937 61.783
6.28 --undefined-- 54.898
6.29 --undefined-- 48.425
6.30 --undefined-- 43.517
6.31 --undefined-- 39.426
6.32 --undefined-- 37.716
6.33 --undefined-- 38.179
6.34 --undefined-- 39.274
6.35 --undefined-- 41.419
6.36 --undefined-- 41.974
6.37 --undefined-- 40.898
6.38 --undefined-- 41.293
6.39 --undefined-- 42.143
6.40 --undefined-- 41.685
6.41 --undefined-- 41.077
6.42 --undefined-- 40.583
6.43 --undefined-- 40.519
6.44 --undefined-- 41.295
6.45 --undefined-- 41.843
6.46 --undefined-- 42.630
6.47 --undefined-- 43.261
6.48 --undefined-- 42.808
6.49 --undefined-- 41.729
6.50 --undefined-- 40.749
6.51 --undefined-- 40.854
6.52 --undefined-- 41.288
6.53 --undefined-- 40.547
6.54 --undefined-- 40.664
6.55 --undefined-- 42.267
6.56 --undefined-- 42.312
6.57 --undefined-- 41.261
6.58 --undefined-- 41.692
6.59 --undefined-- 42.257
6.60 --undefined-- 41.676
6.61 --undefined-- 41.204
6.62 --undefined-- 41.743
6.63 --undefined-- 42.905
6.64 --undefined-- --undefined--
6.65 --undefined-- --undefined--
6.66 --undefined-- --undefined--
6.67 --undefined-- --undefined--
