Time Pitch Intensity
0.01 --undefined-- --undefined--
0.02 184.311 --undefined--
0.03 185.160 --undefined--
0.04 186.089 --undefined--
0.05 187.646 67.620
0.06 190.362 66.797
0.07 193.774 66.091
0.08 197.166 65.381
0.09 201.265 64.659
0.10 206.646 64.065
0.11 210.475 63.432
0.12 214.038 63.178
0.13 239.505 63.936
0.14 250.227 64.787
0.15 262.938 65.449
0.16 279.508 66.370
0.17 299.443 67.588
0.18 156.219 68.329
0.19 162.998 68.348
0.20 168.115 68.128
0.21 171.524 68.052
0.22 173.475 67.935
0.23 173.306 67.538
0.24 172.188 66.807
0.25 170.384 66.146
0.26 167.358 66.002
0.27 164.095 66.414
0.28 160.819 66.854
0.29 156.730 66.646
0.30 299.006 66.129
0.31 288.246 66.088
0.32 271.037 66.239
0.33 259.839 66.561
0.34 250.576 66.853
0.35 247.257 66.190
0.36 243.876 64.087
0.37 239.249 60.849
0.38 245.365 56.959
0.39 247.930 52.751
0.40 --undefined-- 51.148
0.41 --undefined-- 53.932
0.42 --undefined-- 54.795
0.43 --undefined-- 53.363
0.44 --undefined-- 53.801
0.45 --undefined-- 54.192
0.46 --undefined-- 53.977
0.47 226.394 57.177
0.48 216.287 60.342
0.49 187.864 62.461
0.50 179.022 64.372
0.51 171.433 65.862
0.52 169.001 66.386
0.53 172.431 66.295
0.54 174.796 66.313
0.55 174.984 66.418
0.56 175.804 66.268
0.57 176.806 65.826
0.58 179.277 65.091
0.59 183.466 64.259
0.60 189.316 63.679
0.61 194.604 63.156
0.62 198.807 62.251
0.63 206.340 61.340
0.64 234.452 61.752
0.65 243.991 62.879
0.66 253.268 63.612
0.67 262.284 63.958
0.68 267.659 64.016
0.69 272.031 64.164
0.70 278.526 64.781
0.71 283.367 65.476
0.72 283.247 65.163
0.73 276.654 62.978
0.74 272.520 58.462
0.75 --undefined-- 51.607
0.76 --undefined-- 44.850
0.77 --undefined-- 46.109
0.78 --undefined-- 51.510
0.79 --undefined-- 54.160
0.80 --undefined-- 56.404
0.81 --undefined-- 60.577
0.82 223.396 63.267
0.83 217.585 64.230
0.84 213.251 64.545
0.85 210.138 64.705
0.86 207.263 64.796
0.87 204.213 64.956
0.88 201.207 65.278
0.89 196.889 65.672
0.90 192.444 66.283
0.91 188.849 67.111
0.92 186.611 67.694
0.93 185.532 67.891
0.94 185.612 68.149
0.95 185.067 68.583
0.96 183.942 68.871
0.97 183.516 68.955
0.98 184.315 68.900
0.99 185.548 68.659
1.00 187.072 68.190
1.01 188.150 67.417
1.02 189.348 66.221
1.03 190.141 64.538
1.04 188.066 62.138
1.05 185.088 58.560
1.06 187.441 54.013
1.07 --undefined-- 49.797
1.08 --undefined-- 47.427
1.09 --undefined-- 47.160
1.10 --undefined-- 46.564
1.11 --undefined-- 44.747
1.12 --undefined-- 46.119
1.13 --undefined-- 47.750
1.14 --undefined-- 48.540
1.15 --undefined-- 53.631
1.16 --undefined-- 59.217
1.17 --undefined-- 63.984
1.18 250.121 67.762
1.19 252.792 70.122
1.20 256.232 71.225
1.21 259.874 71.265
1.22 261.471 69.988
1.23 259.166 67.330
1.24 261.475 65.022
1.25 270.894 64.897
1.26 272.598 64.781
1.27 270.704 63.902
1.28 271.102 62.868
1.29 270.352 62.199
1.30 269.257 61.598
1.31 267.075 60.835
1.32 265.798 60.193
1.33 264.778 59.731
1.34 264.487 59.430
1.35 264.060 59.243
1.36 263.529 58.948
1.37 262.755 58.702
1.38 260.129 58.640
1.39 257.655 58.850
1.40 255.411 59.430
1.41 252.975 60.210
1.42 249.741 61.349
1.43 247.383 62.363
1.44 239.405 62.392
1.45 215.307 62.572
1.46 208.163 63.615
1.47 --undefined-- 64.283
1.48 --undefined-- 64.704
1.49 --undefined-- 65.310
1.50 --undefined-- 65.162
1.51 --undefined-- 63.374
1.52 --undefined-- 60.650
1.53 --undefined-- 58.228
1.54 --undefined-- 56.159
1.55 --undefined-- 53.875
1.56 --undefined-- 51.453
1.57 --undefined-- 52.794
1.58 --undefined-- 54.449
1.59 157.641 54.621
1.60 155.063 54.456
1.61 --undefined-- 53.684
1.62 --undefined-- 52.547
1.63 --undefined-- 50.833
1.64 --undefined-- 46.814
1.65 --undefined-- 42.872
1.66 --undefined-- 44.260
1.67 --undefined-- 45.995
1.68 --undefined-- 46.844
1.69 --undefined-- 47.187
1.70 --undefined-- 48.238
1.71 --undefined-- 49.758
1.72 --undefined-- 50.860
1.73 --undefined-- 54.600
1.74 --undefined-- 59.065
1.75 181.361 61.708
1.76 176.840 62.823
1.77 173.031 63.272
1.78 169.886 63.540
1.79 168.783 63.768
1.80 168.633 63.974
1.81 168.543 64.174
1.82 168.214 64.317
1.83 167.945 64.462
1.84 168.598 64.550
1.85 170.116 64.359
1.86 170.566 63.864
1.87 170.043 63.345
1.88 169.813 62.614
1.89 171.713 61.287
1.90 172.306 59.025
1.91 --undefined-- 55.255
1.92 --undefined-- 51.253
1.93 --undefined-- 51.972
1.94 --undefined-- 54.503
1.95 --undefined-- 55.037
1.96 178.859 55.057
1.97 178.338 56.026
1.98 181.580 57.558
1.99 193.155 58.708
2.00 169.752 59.052
2.01 163.913 59.218
2.02 152.052 59.335
2.03 144.715 59.539
2.04 141.131 59.496
2.05 139.417 58.960
2.06 139.345 58.346
2.07 138.782 57.952
2.08 138.599 57.925
2.09 138.324 57.611
2.10 138.045 56.561
2.11 137.247 55.109
2.12 136.773 54.024
2.13 --undefined-- 53.256
2.14 --undefined-- 52.289
2.15 --undefined-- 52.041
2.16 155.983 52.264
2.17 159.861 52.262
2.18 154.447 51.766
2.19 --undefined-- 50.588
2.20 --undefined-- 50.494
2.21 178.648 54.673
2.22 176.276 59.430
2.23 173.827 62.747
2.24 171.591 64.765
2.25 170.400 65.607
2.26 170.113 65.416
2.27 171.212 65.058
2.28 173.428 65.821
2.29 175.111 67.608
2.30 177.390 69.482
2.31 177.376 71.079
2.32 177.129 72.276
2.33 177.490 72.796
2.34 178.102 72.806
2.35 178.876 72.548
2.36 179.707 72.147
2.37 179.943 71.738
2.38 179.667 71.519
2.39 177.632 71.456
2.40 172.530 71.304
2.41 --undefined-- 70.583
2.42 --undefined-- 68.498
2.43 --undefined-- 64.688
2.44 --undefined-- 60.135
2.45 --undefined-- 55.545
2.46 --undefined-- 52.115
2.47 --undefined-- 52.024
2.48 --undefined-- 52.788
2.49 --undefined-- 53.881
2.50 --undefined-- 54.257
2.51 --undefined-- 53.517
2.52 --undefined-- 53.020
2.53 --undefined-- 53.578
2.54 --undefined-- 52.657
2.55 --undefined-- 50.016
2.56 --undefined-- 48.883
2.57 --undefined-- 50.879
2.58 --undefined-- 54.914
2.59 --undefined-- 56.214
2.60 --undefined-- 53.903
2.61 --undefined-- 49.283
2.62 --undefined-- 49.561
2.63 --undefined-- 52.022
2.64 --undefined-- 51.901
2.65 --undefined-- 51.486
2.66 --undefined-- 51.922
2.67 --undefined-- 50.048
2.68 --undefined-- 47.369
2.69 --undefined-- 50.158
2.70 --undefined-- 52.535
2.71 --undefined-- 53.077
2.72 --undefined-- 54.603
2.73 --undefined-- 55.116
2.74 --undefined-- 52.466
2.75 --undefined-- 49.322
2.76 --undefined-- 52.505
2.77 --undefined-- 54.440
2.78 --undefined-- 53.123
2.79 --undefined-- 51.063
2.80 --undefined-- 51.682
2.81 --undefined-- 51.873
2.82 --undefined-- 51.580
2.83 --undefined-- 51.048
2.84 --undefined-- 51.447
2.85 --undefined-- 53.303
2.86 --undefined-- 54.462
2.87 --undefined-- 53.857
2.88 --undefined-- 51.633
2.89 --undefined-- 49.487
2.90 --undefined-- 48.389
2.91 --undefined-- 49.173
2.92 --undefined-- 50.588
2.93 --undefined-- 50.728
2.94 --undefined-- 51.338
2.95 --undefined-- 52.189
2.96 --undefined-- 50.956
2.97 --undefined-- 48.370
2.98 --undefined-- 47.401
2.99 --undefined-- 47.171
3.00 --undefined-- 48.801
3.01 --undefined-- 50.483
3.02 --undefined-- 49.609
3.03 --undefined-- 46.911
3.04 --undefined-- 47.550
3.05 --undefined-- 49.915
3.06 --undefined-- 52.442
3.07 --undefined-- 54.339
3.08 --undefined-- 54.580
3.09 --undefined-- 56.549
3.10 --undefined-- 60.315
3.11 227.622 63.278
3.12 230.820 65.642
3.13 234.094 67.674
3.14 237.182 69.432
3.15 240.927 70.660
3.16 245.858 71.134
3.17 250.412 70.864
3.18 252.970 69.931
3.19 257.617 68.599
3.20 265.152 67.163
3.21 256.059 65.698
3.22 250.414 64.267
3.23 249.991 63.420
3.24 286.405 64.224
3.25 283.248 66.197
3.26 288.355 68.167
3.27 153.976 69.545
3.28 153.736 70.293
3.29 154.568 70.736
3.30 156.804 70.851
3.31 159.497 70.242
3.32 172.328 69.581
3.33 180.726 69.998
3.34 187.264 71.216
3.35 188.755 71.964
3.36 187.682 70.871
3.37 186.482 67.260
3.38 187.990 61.675
3.39 188.873 56.550
3.40 --undefined-- 52.087
3.41 --undefined-- 48.082
3.42 --undefined-- 46.664
3.43 --undefined-- 47.949
3.44 --undefined-- 48.220
3.45 --undefined-- 49.234
3.46 --undefined-- 53.994
3.47 --undefined-- 60.656
3.48 --undefined-- 64.364
3.49 --undefined-- 66.291
3.50 202.410 68.964
3.51 205.907 71.725
3.52 207.248 73.958
3.53 206.785 75.291
3.54 206.700 75.130
3.55 206.948 73.535
3.56 206.266 72.095
3.57 208.999 71.749
3.58 211.103 71.292
3.59 212.078 70.639
3.60 211.417 70.322
3.61 209.903 70.510
3.62 207.245 71.096
3.63 203.139 71.998
3.64 198.372 72.917
3.65 192.685 73.214
3.66 185.259 72.475
3.67 179.480 70.810
3.68 --undefined-- 68.512
3.69 --undefined-- 66.436
3.70 --undefined-- 65.316
3.71 --undefined-- 65.247
3.72 --undefined-- 64.761
3.73 --undefined-- 63.321
3.74 --undefined-- 62.650
3.75 --undefined-- 62.570
3.76 --undefined-- 62.408
3.77 --undefined-- 62.999
3.78 --undefined-- 64.068
3.79 235.793 65.559
3.80 258.729 67.788
3.81 271.326 69.452
3.82 286.654 69.868
3.83 153.874 69.524
3.84 163.140 68.996
3.85 167.836 68.149
3.86 169.281 66.699
3.87 168.700 64.848
3.88 165.736 63.158
3.89 160.442 61.750
3.90 --undefined-- 60.045
3.91 --undefined-- 57.979
3.92 --undefined-- 56.177
3.93 --undefined-- 55.239
3.94 --undefined-- 54.896
3.95 --undefined-- 54.727
3.96 --undefined-- 56.675
3.97 --undefined-- 60.811
3.98 --undefined-- 64.913
3.99 --undefined-- 68.395
4.00 --undefined-- 70.823
4.01 140.805 71.575
4.02 141.668 70.783
4.03 --undefined-- 69.118
4.04 --undefined-- 66.968
4.05 --undefined-- 64.015
4.06 --undefined-- 61.414
4.07 173.077 61.619
4.08 179.294 62.199
4.09 184.462 62.615
4.10 184.663 63.804
4.11 183.891 64.873
4.12 183.336 65.433
4.13 184.595 65.650
4.14 180.968 65.251
4.15 173.255 64.414
4.16 171.024 63.864
4.17 170.008 63.810
4.18 168.053 63.658
4.19 166.195 63.284
4.20 164.732 63.146
4.21 163.290 63.310
4.22 161.679 63.349
4.23 162.202 63.075
4.24 164.221 62.489
4.25 166.447 61.028
4.26 168.155 57.777
4.27 --undefined-- 52.353
4.28 --undefined-- 48.503
4.29 --undefined-- 50.735
4.30 --undefined-- 53.621
4.31 --undefined-- 54.803
4.32 --undefined-- 53.473
4.33 --undefined-- 50.420
4.34 --undefined-- 47.108
4.35 --undefined-- 44.411
4.36 --undefined-- 44.149
4.37 --undefined-- 45.955
4.38 --undefined-- 47.865
4.39 --undefined-- 48.702
4.40 --undefined-- 49.687
4.41 --undefined-- 52.251
4.42 --undefined-- 58.947
4.43 151.403 64.595
4.44 152.488 67.678
4.45 156.291 69.065
4.46 157.688 69.589
4.47 159.065 69.883
4.48 160.177 70.132
4.49 161.022 70.268
4.50 161.281 70.286
4.51 160.473 70.028
4.52 157.487 69.060
4.53 150.395 66.882
4.54 145.523 63.120
4.55 153.971 57.669
4.56 --undefined-- 50.668
4.57 --undefined-- 46.182
4.58 --undefined-- 47.346
4.59 --undefined-- 48.549
4.60 --undefined-- 49.253
4.61 --undefined-- 51.007
4.62 --undefined-- 51.761
4.63 --undefined-- 51.385
4.64 --undefined-- 51.780
4.65 --undefined-- 53.717
4.66 --undefined-- 57.522
4.67 --undefined-- 61.295
4.68 --undefined-- 63.856
4.69 --undefined-- 65.105
4.70 --undefined-- 64.999
4.71 --undefined-- 63.484
4.72 106.474 62.101
4.73 106.407 61.882
4.74 103.704 61.094
4.75 101.262 60.069
4.76 135.308 59.862
4.77 143.248 59.140
4.78 145.239 56.687
4.79 --undefined-- 52.442
4.80 --undefined-- 47.565
4.81 --undefined-- 44.940
4.82 --undefined-- 46.872
4.83 --undefined-- 50.106
4.84 --undefined-- 51.257
4.85 --undefined-- 54.027
4.86 --undefined-- 60.653
4.87 206.692 65.126
4.88 203.662 67.415
4.89 200.087 68.540
4.90 196.001 69.059
4.91 191.757 69.138
4.92 187.267 68.628
4.93 181.994 67.382
4.94 175.733 65.382
4.95 --undefined-- 62.696
4.96 --undefined-- 60.063
4.97 --undefined-- 57.743
4.98 --undefined-- 54.615
4.99 --undefined-- --undefined--
5.00 --undefined-- --undefined--
5.01 --undefined-- --undefined--
5.02 --undefined-- --undefined--
