Time Pitch Intensity
0.01 --undefined-- --undefined--
0.02 --undefined-- --undefined--
0.03 --undefined-- --undefined--
0.04 --undefined-- --undefined--
0.05 --undefined-- 57.373
0.06 --undefined-- 59.444
0.07 289.760 61.163
0.08 --undefined-- 62.080
0.09 175.619 62.578
0.10 191.659 63.756
0.11 206.452 65.097
0.12 212.328 65.838
0.13 214.128 65.793
0.14 221.139 65.772
0.15 224.258 66.740
0.16 227.013 68.154
0.17 231.914 69.218
0.18 238.198 69.419
0.19 239.885 69.088
0.20 237.024 69.483
0.21 234.627 70.614
0.22 230.708 71.670
0.23 225.808 72.223
0.24 216.398 71.951
0.25 200.168 71.331
0.26 194.053 71.612
0.27 189.102 72.226
0.28 --undefined-- 72.323
0.29 163.266 71.997
0.30 160.483 71.491
0.31 160.042 70.801
0.32 161.258 69.474
0.33 163.220 67.496
0.34 164.404 65.029
0.35 166.713 62.871
0.36 171.817 61.658
0.37 185.855 60.069
0.38 190.588 57.801
0.39 185.857 54.898
0.40 --undefined-- 50.727
0.41 --undefined-- 46.642
0.42 --undefined-- 46.632
0.43 --undefined-- 50.427
0.44 174.339 56.637
0.45 172.010 61.130
0.46 165.997 63.671
0.47 162.466 64.626
0.48 159.263 64.071
0.49 155.638 62.582
0.50 145.769 61.252
0.51 136.842 60.822
0.52 138.862 60.941
0.53 148.389 61.091
0.54 151.645 61.179
0.55 152.041 60.845
0.56 150.945 60.092
0.57 153.463 60.011
0.58 166.784 61.361
0.59 165.514 63.124
0.60 170.875 64.563
0.61 172.577 66.218
0.62 170.801 68.152
0.63 167.519 69.684
0.64 162.809 70.624
0.65 159.462 70.798
0.66 153.485 69.855
0.67 151.162 68.041
0.68 155.720 66.182
0.69 162.139 64.425
0.70 170.343 62.013
0.71 184.610 59.147
0.72 189.097 56.480
0.73 194.167 54.938
0.74 197.173 57.297
0.75 200.917 61.301
0.76 201.599 64.582
0.77 200.388 66.920
0.78 197.462 68.161
0.79 194.074 68.280
0.80 190.102 67.512
0.81 188.601 65.854
0.82 197.882 63.980
0.83 --undefined-- 63.148
0.84 --undefined-- 62.236
0.85 --undefined-- 60.335
0.86 --undefined-- 57.803
0.87 --undefined-- 55.470
0.88 --undefined-- 53.805
0.89 --undefined-- 51.934
0.90 --undefined-- 49.570
0.91 --undefined-- 48.525
0.92 --undefined-- 48.608
0.93 --undefined-- 50.261
0.94 --undefined-- 53.144
0.95 --undefined-- 55.000
0.96 --undefined-- 57.418
0.97 --undefined-- 64.750
0.98 293.916 70.668
0.99 280.662 73.394
1.00 267.878 73.663
1.01 250.038 72.974
1.02 247.639 72.046
1.03 247.711 69.715
1.04 247.981 65.047
1.05 240.209 59.683
1.06 233.136 58.601
1.07 228.930 58.589
1.08 226.481 57.797
1.09 222.664 56.908
1.10 217.205 56.569
1.11 211.128 56.493
1.12 209.835 56.330
1.13 209.605 56.542
1.14 207.759 57.436
1.15 202.654 58.330
1.16 198.414 58.863
1.17 195.756 58.874
1.18 191.674 57.673
1.19 177.648 55.529
1.20 166.821 55.904
1.21 164.212 58.119
1.22 158.384 59.198
1.23 150.318 59.685
1.24 150.715 60.603
1.25 151.333 61.392
1.26 154.194 61.699
1.27 158.231 61.849
1.28 163.364 62.185
1.29 164.983 62.722
1.30 165.041 63.156
1.31 163.191 63.234
1.32 159.978 62.938
1.33 157.628 62.326
1.34 156.857 61.907
1.35 156.597 62.522
1.36 160.341 64.064
1.37 160.883 65.637
1.38 160.542 66.388
1.39 160.439 66.110
1.40 161.205 65.133
1.41 162.903 63.887
1.42 162.229 62.334
1.43 158.217 60.377
1.44 158.910 58.296
1.45 161.654 56.781
1.46 164.437 57.747
1.47 167.205 60.701
1.48 166.243 63.671
1.49 163.867 65.634
1.50 161.972 66.188
1.51 159.578 65.449
1.52 156.558 64.077
1.53 155.796 62.616
1.54 160.084 61.155
1.55 165.057 60.520
1.56 168.684 61.103
1.57 180.019 62.569
1.58 192.662 64.424
1.59 198.343 65.540
1.60 201.470 65.441
1.61 205.388 64.882
1.62 218.346 65.690
1.63 243.555 67.227
1.64 247.609 67.889
1.65 243.442 68.255
1.66 243.060 68.722
1.67 244.227 69.032
1.68 248.130 69.615
1.69 249.450 69.947
1.70 247.804 69.716
1.71 203.118 69.743
1.72 197.961 69.590
1.73 191.698 68.783
1.74 173.866 68.093
1.75 166.698 67.757
1.76 163.764 67.523
1.77 163.201 67.187
1.78 164.764 66.685
1.79 167.789 66.141
1.80 176.716 65.797
1.81 182.141 65.579
1.82 186.815 65.035
1.83 195.908 64.811
1.84 201.608 65.362
1.85 211.248 65.728
1.86 219.929 66.800
1.87 222.081 70.268
1.88 221.504 72.761
1.89 221.159 73.279
1.90 219.000 72.786
1.91 216.514 72.064
1.92 213.371 71.175
1.93 211.681 69.995
1.94 213.929 68.380
1.95 215.657 66.147
1.96 224.282 63.114
1.97 228.119 59.953
1.98 224.227 56.674
1.99 213.380 51.809
2.00 --undefined-- 45.083
2.01 --undefined-- 39.542
2.02 --undefined-- 41.068
2.03 --undefined-- 47.081
2.04 --undefined-- 52.547
2.05 --undefined-- 56.646
2.06 --undefined-- 59.234
2.07 --undefined-- 60.174
2.08 --undefined-- 60.143
2.09 --undefined-- 59.642
2.10 --undefined-- 58.020
2.11 --undefined-- 56.045
2.12 --undefined-- 55.617
2.13 --undefined-- 55.886
2.14 78.842 55.161
2.15 75.264 54.931
2.16 --undefined-- 55.744
2.17 --undefined-- 55.971
2.18 --undefined-- 55.394
2.19 --undefined-- 54.820
2.20 --undefined-- 54.791
2.21 --undefined-- 54.013
2.22 --undefined-- 54.117
2.23 --undefined-- 56.016
2.24 --undefined-- 57.313
2.25 --undefined-- 57.044
2.26 --undefined-- 56.356
2.27 --undefined-- 56.006
2.28 --undefined-- 55.660
2.29 --undefined-- 56.363
2.30 --undefined-- 58.014
2.31 --undefined-- 59.530
2.32 263.186 62.211
2.33 263.241 64.212
2.34 --undefined-- 63.440
2.35 --undefined-- 60.422
2.36 --undefined-- 58.372
2.37 274.064 58.921
2.38 272.595 58.866
2.39 273.513 56.879
2.40 --undefined-- 52.088
2.41 --undefined-- 43.786
2.42 --undefined-- 34.324
2.43 --undefined-- 30.582
2.44 --undefined-- 41.210
2.45 --undefined-- 50.978
2.46 --undefined-- 55.783
2.47 --undefined-- 57.345
2.48 --undefined-- 62.409
2.49 --undefined-- 67.853
2.50 247.127 69.695
2.51 248.374 68.456
2.52 254.689 66.508
2.53 261.325 67.026
2.54 270.369 68.593
2.55 284.028 69.557
2.56 299.875 69.979
2.57 161.471 70.585
2.58 159.554 71.582
2.59 154.509 72.303
2.60 152.579 72.803
2.61 291.238 73.072
2.62 285.631 72.578
2.63 283.382 71.491
2.64 268.611 70.223
2.65 253.765 68.620
2.66 245.324 66.468
2.67 236.017 64.615
2.68 221.729 64.329
2.69 213.450 65.400
2.70 212.440 66.644
2.71 211.529 67.329
2.72 208.167 67.965
2.73 205.736 68.755
2.74 202.640 68.975
2.75 199.953 68.647
2.76 196.734 68.025
2.77 194.538 67.450
2.78 188.328 67.462
2.79 188.518 67.908
2.80 188.508 67.354
2.81 186.281 64.718
2.82 --undefined-- 60.083
2.83 --undefined-- 57.585
2.84 --undefined-- 61.042
2.85 --undefined-- 65.897
2.86 --undefined-- 69.427
2.87 244.706 71.318
2.88 250.027 72.369
2.89 250.601 72.851
2.90 250.782 72.225
2.91 255.297 70.062
2.92 258.190 66.141
2.93 257.369 60.506
2.94 --undefined-- 54.450
2.95 --undefined-- 53.313
2.96 --undefined-- 56.768
2.97 --undefined-- 59.849
2.98 --undefined-- 61.961
2.99 238.444 64.196
3.00 240.665 66.737
3.01 239.022 68.348
3.02 227.200 69.025
3.03 215.826 70.018
3.04 212.735 71.101
3.05 210.615 71.049
3.06 204.325 70.042
3.07 200.247 69.132
3.08 201.401 68.597
3.09 202.980 67.816
3.10 201.498 65.935
3.11 200.438 63.111
3.12 203.838 60.121
3.13 204.203 57.382
3.14 208.334 57.339
3.15 218.484 63.382
3.16 226.227 69.017
3.17 229.291 72.084
3.18 228.921 73.025
3.19 227.601 72.791
3.20 226.825 72.302
3.21 227.349 71.831
3.22 231.118 71.614
3.23 236.462 72.107
3.24 242.046 72.886
3.25 243.704 73.087
3.26 243.468 72.254
3.27 243.531 70.751
3.28 243.610 69.747
3.29 243.220 69.254
3.30 242.800 68.653
3.31 241.744 67.502
3.32 239.676 64.672
3.33 234.298 59.729
3.34 233.288 55.582
3.35 238.015 53.919
3.36 243.403 52.401
3.37 243.585 49.987
3.38 --undefined-- 46.132
3.39 --undefined-- 41.895
3.40 --undefined-- 42.505
3.41 --undefined-- 45.217
3.42 --undefined-- 46.128
3.43 --undefined-- 45.219
3.44 --undefined-- 43.825
3.45 --undefined-- 46.993
3.46 --undefined-- 54.566
3.47 291.155 59.608
3.48 242.335 62.309
3.49 235.251 64.116
3.50 239.634 65.697
3.51 243.103 67.639
3.52 245.222 69.941
3.53 246.032 71.221
3.54 245.863 71.057
3.55 247.551 70.439
3.56 249.869 70.519
3.57 251.571 71.249
3.58 252.618 71.967
3.59 251.611 72.052
3.60 246.696 71.350
3.61 241.767 70.479
3.62 239.469 70.137
3.63 241.412 70.158
3.64 241.865 69.810
3.65 241.153 68.623
3.66 238.880 66.692
3.67 234.544 64.358
3.68 231.897 61.724
3.69 228.023 58.787
3.70 229.796 56.215
3.71 242.479 53.802
3.72 --undefined-- 50.044
3.73 --undefined-- 45.038
3.74 --undefined-- 41.493
3.75 --undefined-- 38.104
3.76 --undefined-- 33.668
3.77 --undefined-- 30.730
3.78 --undefined-- 29.399
3.79 --undefined-- 40.218
3.80 --undefined-- 52.862
3.81 --undefined-- 60.168
3.82 --undefined-- 63.651
3.83 --undefined-- 65.041
3.84 --undefined-- 65.804
3.85 --undefined-- 65.670
3.86 --undefined-- 64.253
3.87 --undefined-- 62.280
3.88 --undefined-- 61.814
3.89 --undefined-- 62.227
3.90 --undefined-- 61.024
3.91 --undefined-- 61.644
3.92 --undefined-- 67.225
3.93 --undefined-- 71.477
3.94 --undefined-- 73.073
3.95 83.167 72.424
3.96 82.554 70.740
3.97 78.490 69.844
3.98 88.061 69.472
3.99 88.189 68.712
4.00 76.577 67.651
4.01 79.016 66.831
4.02 --undefined-- 66.331
4.03 --undefined-- 66.420
4.04 154.717 67.381
4.05 153.123 67.144
4.06 --undefined-- 64.404
4.07 --undefined-- 59.466
4.08 --undefined-- 55.147
4.09 --undefined-- 52.648
4.10 --undefined-- 50.618
4.11 --undefined-- 54.037
4.12 --undefined-- 58.976
4.13 --undefined-- 61.447
4.14 --undefined-- 62.235
4.15 --undefined-- 62.423
4.16 --undefined-- 61.344
4.17 --undefined-- 58.950
4.18 --undefined-- 57.275
4.19 --undefined-- 57.324
4.20 --undefined-- 57.539
4.21 205.508 56.603
4.22 197.079 54.653
4.23 186.342 56.451
4.24 166.200 62.452
4.25 164.909 66.466
4.26 164.645 68.009
4.27 167.950 67.744
4.28 82.729 66.561
4.29 83.360 65.473
4.30 --undefined-- 64.904
4.31 --undefined-- 64.732
4.32 --undefined-- 64.524
4.33 128.939 64.208
4.34 132.598 63.910
4.35 156.657 64.337
4.36 181.204 65.463
4.37 198.235 66.231
4.38 210.204 66.508
4.39 215.953 66.591
4.40 217.775 66.488
4.41 223.502 66.392
4.42 221.755 67.153
4.43 217.560 69.065
4.44 214.138 71.216
4.45 210.730 72.356
4.46 207.481 72.345
4.47 204.555 72.087
4.48 198.426 72.273
4.49 194.121 72.704
4.50 --undefined-- 73.032
4.51 --undefined-- 72.951
4.52 --undefined-- 72.345
4.53 155.624 71.031
4.54 --undefined-- 69.012
4.55 --undefined-- 67.808
4.56 --undefined-- 67.534
4.57 --undefined-- 66.526
4.58 --undefined-- 65.119
4.59 --undefined-- 63.289
4.60 --undefined-- 60.293
4.61 --undefined-- 55.867
4.62 --undefined-- 52.133
4.63 --undefined-- 48.789
4.64 --undefined-- 44.665
4.65 --undefined-- 41.123
4.66 --undefined-- 37.979
4.67 --undefined-- 35.023
4.68 --undefined-- 32.239
4.69 --undefined-- 30.748
4.70 --undefined-- 33.662
4.71 --undefined-- 43.691
4.72 --undefined-- 54.466
4.73 188.112 62.267
4.74 189.170 66.968
4.75 187.434 68.719
4.76 184.489 67.936
4.77 184.378 66.550
4.78 193.055 66.415
4.79 207.593 65.974
4.80 216.040 65.190
4.81 222.694 64.354
4.82 229.577 63.268
4.83 228.306 62.450
4.84 231.013 61.532
4.85 236.951 59.104
4.86 --undefined-- 54.403
4.87 --undefined-- 49.148
4.88 --undefined-- 55.803
4.89 --undefined-- 64.476
4.90 219.750 69.253
4.91 203.144 71.050
4.92 199.770 71.116
4.93 181.187 71.222
4.94 178.543 71.772
4.95 176.885 72.102
4.96 173.078 72.247
4.97 169.260 72.086
4.98 166.494 71.344
4.99 164.888 69.988
5.00 161.864 68.017
5.01 158.446 66.314
5.02 156.702 65.538
5.03 157.497 65.073
5.04 163.445 65.691
5.05 164.278 68.018
5.06 163.544 70.174
5.07 161.888 70.831
5.08 162.965 70.543
5.09 164.063 70.314
5.10 165.448 70.344
5.11 166.783 70.437
5.12 166.636 70.408
5.13 167.289 69.949
5.14 169.303 68.982
5.15 170.211 67.630
5.16 169.381 65.911
5.17 170.216 64.242
5.18 173.069 62.775
5.19 175.570 --undefined--
5.20 180.838 --undefined--
5.21 --undefined-- --undefined--
5.22 --undefined-- --undefined--
