Time Pitch Intensity
0.01 --undefined-- --undefined--
0.02 185.600 --undefined--
0.03 182.969 --undefined--
0.04 178.820 --undefined--
0.05 174.565 70.848
0.06 175.084 70.994
0.07 175.211 72.090
0.08 173.983 72.940
0.09 172.028 73.220
0.10 170.355 73.097
0.11 168.313 72.679
0.12 166.547 71.744
0.13 168.230 69.972
0.14 167.211 67.676
0.15 162.100 65.839
0.16 161.369 65.587
0.17 167.281 67.696
0.18 173.912 71.124
0.19 178.544 73.904
0.20 180.101 75.033
0.21 177.797 74.450
0.22 172.514 73.224
0.23 171.876 72.498
0.24 173.146 72.412
0.25 175.967 72.544
0.26 178.718 72.553
0.27 181.645 72.361
0.28 185.081 71.968
0.29 186.748 71.375
0.30 186.163 70.383
0.31 184.719 68.598
0.32 184.842 65.479
0.33 184.320 60.431
0.34 --undefined-- 52.948
0.35 --undefined-- 45.394
0.36 --undefined-- 43.577
0.37 --undefined-- 42.914
0.38 --undefined-- 42.118
0.39 --undefined-- 41.896
0.40 --undefined-- 42.200
0.41 --undefined-- 45.012
0.42 --undefined-- 55.275
0.43 205.160 63.463
0.44 176.440 68.390
0.45 171.648 71.021
0.46 169.387 72.356
0.47 168.298 73.023
0.48 168.389 73.345
0.49 168.323 73.447
0.50 168.786 73.409
0.51 169.625 73.346
0.52 169.886 73.269
0.53 169.742 73.080
0.54 169.621 72.739
0.55 169.967 72.293
0.56 170.496 71.860
0.57 170.393 71.458
0.58 170.140 71.034
0.59 169.609 70.522
0.60 168.314 69.908
0.61 169.162 69.380
0.62 171.750 69.094
0.63 174.716 68.875
0.64 175.419 68.448
0.65 173.604 67.439
0.66 164.833 65.468
0.67 153.554 62.604
0.68 142.870 60.459
0.69 148.424 60.612
0.70 152.021 62.074
0.71 154.383 64.557
0.72 170.670 67.395
0.73 173.127 69.614
0.74 171.051 70.751
0.75 161.864 70.889
0.76 158.781 70.543
0.77 167.455 70.337
0.78 155.437 70.330
0.79 160.070 70.323
0.80 160.841 70.561
0.81 162.936 71.021
0.82 167.550 71.655
0.83 172.882 72.233
0.84 174.521 72.646
0.85 170.750 72.871
0.86 164.312 72.741
0.87 156.975 72.414
0.88 153.922 72.056
0.89 152.446 71.585
0.90 150.944 71.067
0.91 150.170 70.673
0.92 150.429 70.304
0.93 150.411 69.701
0.94 151.337 69.083
0.95 156.477 68.977
0.96 161.614 69.283
0.97 164.634 69.718
0.98 167.349 70.150
0.99 169.006 70.297
1.00 169.735 70.065
1.01 169.915 69.857
1.02 173.890 70.362
1.03 176.811 71.325
1.04 178.154 72.036
1.05 177.918 72.479
1.06 177.745 72.830
1.07 177.360 73.073
1.08 177.290 73.153
1.09 175.903 73.088
1.10 174.220 72.883
1.11 174.317 72.459
1.12 172.675 71.707
1.13 170.405 70.284
1.14 158.882 67.950
1.15 149.932 65.252
1.16 --undefined-- 64.139
1.17 --undefined-- 64.290
1.18 --undefined-- 63.531
1.19 --undefined-- 63.228
1.20 --undefined-- 63.778
1.21 --undefined-- 65.313
1.22 169.838 68.723
1.23 165.195 71.453
1.24 161.325 72.279
1.25 157.041 71.952
1.26 154.475 71.457
1.27 152.136 70.672
1.28 147.848 68.846
1.29 141.859 65.650
1.30 155.374 62.950
1.31 183.556 65.343
1.32 160.967 68.847
1.33 169.263 70.613
1.34 168.983 70.971
1.35 166.130 70.745
1.36 164.462 70.486
1.37 162.749 70.087
1.38 162.026 69.586
1.39 163.305 69.239
1.40 165.215 69.217
1.41 168.608 69.595
1.42 170.308 70.011
1.43 171.421 70.153
1.44 174.722 70.017
1.45 172.678 69.814
1.46 174.494 70.181
1.47 176.737 71.039
1.48 165.835 71.696
1.49 160.644 72.009
1.50 155.916 72.100
1.51 153.236 72.022
1.52 153.364 71.773
1.53 160.632 71.389
1.54 170.822 70.993
1.55 182.068 70.676
1.56 188.193 70.426
1.57 195.357 70.167
1.58 203.875 69.448
1.59 206.306 67.157
1.60 200.460 62.284
1.61 --undefined-- 54.389
1.62 --undefined-- 47.562
1.63 --undefined-- 48.876
1.64 --undefined-- 51.863
1.65 --undefined-- 53.590
1.66 --undefined-- 57.519
1.67 218.495 64.714
1.68 205.884 69.455
1.69 190.640 71.940
1.70 180.758 73.565
1.71 179.293 74.554
1.72 179.117 74.627
1.73 179.874 74.138
1.74 180.954 73.502
1.75 180.213 72.670
1.76 177.672 71.610
1.77 172.687 70.415
1.78 167.860 69.234
1.79 163.510 68.321
1.80 158.515 67.910
1.81 150.936 67.876
1.82 145.896 68.167
1.83 144.645 68.658
1.84 142.383 68.969
1.85 140.870 69.277
1.86 141.981 69.897
1.87 140.981 70.431
1.88 140.200 70.442
1.89 137.326 69.987
1.90 137.675 69.333
1.91 138.798 68.331
1.92 137.529 66.490
1.93 146.890 63.854
1.94 166.457 60.037
1.95 --undefined-- 53.697
1.96 --undefined-- 45.463
1.97 --undefined-- 41.576
1.98 --undefined-- 41.210
1.99 --undefined-- 43.265
2.00 --undefined-- 46.594
2.01 --undefined-- 52.734
2.02 --undefined-- 61.565
2.03 202.658 68.080
2.04 201.971 71.803
2.05 206.701 73.641
2.06 207.697 74.462
2.07 207.379 74.701
2.08 205.306 74.413
2.09 201.158 73.209
2.10 191.581 71.035
2.11 182.330 69.999
2.12 178.686 71.194
2.13 176.232 72.716
2.14 172.859 73.537
2.15 168.661 73.252
2.16 165.109 72.304
2.17 166.133 71.417
2.18 169.307 70.514
2.19 172.523 69.287
2.20 181.750 67.565
2.21 191.880 64.766
2.22 180.877 59.796
2.23 --undefined-- 51.635
2.24 --undefined-- 41.749
2.25 --undefined-- 41.030
2.26 --undefined-- 43.105
2.27 --undefined-- 44.422
2.28 --undefined-- 45.522
2.29 --undefined-- 46.804
2.30 --undefined-- 47.887
2.31 --undefined-- 48.228
2.32 --undefined-- 48.046
2.33 --undefined-- 47.915
2.34 --undefined-- 48.043
2.35 --undefined-- 48.520
2.36 --undefined-- 49.067
2.37 --undefined-- 49.635
2.38 --undefined-- 49.969
2.39 --undefined-- 49.235
2.40 --undefined-- 48.222
2.41 --undefined-- 47.745
2.42 --undefined-- 47.182
2.43 --undefined-- 47.071
2.44 --undefined-- 47.446
2.45 --undefined-- 46.808
2.46 --undefined-- 45.493
2.47 --undefined-- 44.666
2.48 --undefined-- 43.884
2.49 --undefined-- 43.124
2.50 --undefined-- 42.332
2.51 --undefined-- 41.245
2.52 --undefined-- 41.215
2.53 --undefined-- 41.420
2.54 --undefined-- 40.213
2.55 --undefined-- 38.649
2.56 --undefined-- 37.365
2.57 --undefined-- 35.411
2.58 --undefined-- 34.336
2.59 --undefined-- 34.572
2.60 --undefined-- 34.030
2.61 --undefined-- 33.124
2.62 --undefined-- 33.484
2.63 --undefined-- 33.845
2.64 --undefined-- 33.190
2.65 --undefined-- 32.666
2.66 --undefined-- 32.800
2.67 --undefined-- 32.884
2.68 --undefined-- 33.236
2.69 --undefined-- 32.919
2.70 --undefined-- 31.272
2.71 --undefined-- 30.966
2.72 --undefined-- 32.114
2.73 --undefined-- 38.663
2.74 --undefined-- 50.914
2.75 --undefined-- 61.039
2.76 --undefined-- 70.346
2.77 --undefined-- 77.141
2.78 218.912 80.857
2.79 221.496 81.661
2.80 223.831 79.934
2.81 239.269 77.273
2.82 257.069 76.037
2.83 274.100 75.681
2.84 294.393 75.689
2.85 156.770 75.921
2.86 166.633 75.729
2.87 174.944 74.322
2.88 178.417 70.952
2.89 177.199 64.913
2.90 --undefined-- 56.512
2.91 --undefined-- 54.049
2.92 --undefined-- 53.494
2.93 --undefined-- 48.994
2.94 --undefined-- 41.315
2.95 --undefined-- 35.223
2.96 --undefined-- 32.519
2.97 --undefined-- 32.109
2.98 --undefined-- 31.645
2.99 --undefined-- 30.486
3.00 --undefined-- 29.974
3.01 --undefined-- 30.830
3.02 --undefined-- 32.503
3.03 --undefined-- 36.295
3.04 --undefined-- 39.709
3.05 --undefined-- 39.642
3.06 --undefined-- 36.221
3.07 --undefined-- 33.334
3.08 --undefined-- 33.838
3.09 --undefined-- 34.118
3.10 --undefined-- 33.000
3.11 --undefined-- 31.407
3.12 --undefined-- 31.273
3.13 --undefined-- 31.106
3.14 --undefined-- 30.681
3.15 --undefined-- 31.330
3.16 --undefined-- 32.219
3.17 --undefined-- 32.572
3.18 --undefined-- 33.270
3.19 --undefined-- 35.345
3.20 --undefined-- 46.800
3.21 --undefined-- 58.216
3.22 --undefined-- 66.612
3.23 --undefined-- 73.480
3.24 235.517 78.114
3.25 235.798 80.177
3.26 233.096 80.155
3.27 229.930 79.169
3.28 231.604 78.486
3.29 232.062 78.129
3.30 232.996 77.681
3.31 235.816 77.003
3.32 239.605 76.153
3.33 242.866 75.285
3.34 245.933 74.418
3.35 248.865 73.458
3.36 252.108 72.437
3.37 255.153 71.395
3.38 257.391 70.231
3.39 258.220 68.827
3.40 257.852 66.979
3.41 259.104 64.552
3.42 261.942 63.777
3.43 151.770 67.963
3.44 149.912 71.390
3.45 148.685 72.792
3.46 147.985 73.084
3.47 149.312 73.244
3.48 151.734 73.655
3.49 154.651 74.034
3.50 156.626 74.036
3.51 156.376 73.199
3.52 154.791 71.024
3.53 150.807 67.006
3.54 --undefined-- 60.653
3.55 --undefined-- 51.734
3.56 --undefined-- 42.255
3.57 --undefined-- 40.640
3.58 --undefined-- 41.950
3.59 --undefined-- 43.208
3.60 --undefined-- 50.572
3.61 --undefined-- 63.567
3.62 --undefined-- 71.732
3.63 165.784 75.913
3.64 161.558 77.287
3.65 158.495 77.177
3.66 156.828 76.648
3.67 155.740 75.949
3.68 155.369 75.037
3.69 155.036 73.899
3.70 153.987 72.495
3.71 150.176 71.500
3.72 294.989 71.830
3.73 291.772 72.250
3.74 287.274 72.272
3.75 281.019 72.180
3.76 274.807 71.969
3.77 266.629 71.658
3.78 250.727 71.745
3.79 233.293 72.578
3.80 218.350 73.562
3.81 205.003 74.050
3.82 193.150 73.816
3.83 187.289 73.155
3.84 183.638 72.704
3.85 181.873 72.504
3.86 180.470 72.184
3.87 179.014 71.386
3.88 176.419 69.682
3.89 170.999 67.401
3.90 187.793 69.155
3.91 191.405 72.925
3.92 193.800 74.312
3.93 190.938 73.729
3.94 189.154 73.066
3.95 188.253 72.904
3.96 186.936 72.408
3.97 186.997 71.787
3.98 187.549 71.348
3.99 187.603 70.851
4.00 184.498 70.627
4.01 185.938 71.010
4.02 183.860 71.273
4.03 181.771 71.161
4.04 177.587 70.591
4.05 170.435 69.871
4.06 168.060 70.898
4.07 164.199 72.492
4.08 159.069 72.805
4.09 151.926 72.475
4.10 146.256 72.355
4.11 145.734 72.378
4.12 153.110 72.430
4.13 158.358 72.288
4.14 165.299 72.216
4.15 168.705 72.661
4.16 172.316 73.248
4.17 176.503 73.397
4.18 181.667 72.772
4.19 187.572 71.489
4.20 187.727 70.179
4.21 187.859 69.496
4.22 193.164 70.194
4.23 195.550 71.775
4.24 189.317 72.604
4.25 178.277 72.612
4.26 165.537 72.205
4.27 146.379 71.541
4.28 137.838 71.082
4.29 132.035 70.610
4.30 131.357 69.826
4.31 131.588 69.015
4.32 136.559 68.506
4.33 139.492 68.156
4.34 137.518 67.787
4.35 136.406 67.428
4.36 136.312 67.209
4.37 137.000 67.344
4.38 138.804 67.772
4.39 140.170 68.268
4.40 141.653 68.819
4.41 145.231 69.543
4.42 147.984 70.542
4.43 151.277 71.825
4.44 156.028 72.887
4.45 159.759 73.300
4.46 165.306 73.132
4.47 170.700 72.850
4.48 174.543 72.756
4.49 176.851 72.598
4.50 176.643 72.002
4.51 176.409 71.358
4.52 180.981 71.710
4.53 182.123 72.540
4.54 178.993 72.976
4.55 174.352 73.041
4.56 170.109 72.823
4.57 165.731 72.407
4.58 161.540 71.949
4.59 159.362 71.508
4.60 157.071 71.174
4.61 156.631 71.077
4.62 158.216 71.156
4.63 159.010 71.259
4.64 159.541 71.265
4.65 160.260 71.113
4.66 160.073 70.755
4.67 160.706 70.191
4.68 159.922 69.265
4.69 162.296 67.819
4.70 --undefined-- 65.707
4.71 --undefined-- 62.896
4.72 --undefined-- 58.860
4.73 --undefined-- 52.819
4.74 --undefined-- 47.404
4.75 --undefined-- 45.210
4.76 --undefined-- 43.077
4.77 --undefined-- 42.212
4.78 --undefined-- 42.280
4.79 --undefined-- 42.567
4.80 --undefined-- 43.235
4.81 --undefined-- 44.456
4.82 --undefined-- 45.527
4.83 --undefined-- 46.592
4.84 --undefined-- 47.517
4.85 --undefined-- 52.090
4.86 --undefined-- 63.072
4.87 197.651 70.818
4.88 179.906 75.223
4.89 175.942 77.280
4.90 173.394 77.676
4.91 171.261 77.122
4.92 169.509 76.048
4.93 166.834 74.577
4.94 164.230 73.186
4.95 165.969 72.485
4.96 166.099 72.196
4.97 163.436 71.844
4.98 161.382 71.293
4.99 158.832 70.864
5.00 163.275 71.298
5.01 161.892 72.053
5.02 159.034 72.335
5.03 159.146 72.456
5.04 159.726 72.770
5.05 162.595 73.217
5.06 165.468 73.486
5.07 167.414 73.364
5.08 168.710 72.998
5.09 170.071 72.491
5.10 170.171 71.052
5.11 167.764 67.475
5.12 165.439 61.424
5.13 --undefined-- 55.494
5.14 --undefined-- 51.714
5.15 --undefined-- 57.556
5.16 --undefined-- 66.237
5.17 166.507 71.602
5.18 166.605 74.257
5.19 164.259 74.870
5.20 161.518 74.244
5.21 160.287 72.697
5.22 159.390 71.350
5.23 166.427 71.907
5.24 169.807 72.879
5.25 171.724 73.337
5.26 172.857 73.439
5.27 174.277 73.365
5.28 180.053 72.951
5.29 179.243 71.945
5.30 177.555 70.892
5.31 181.175 70.393
5.32 186.026 70.475
5.33 192.142 70.933
5.34 199.006 71.384
5.35 204.003 71.760
5.36 211.974 71.944
5.37 215.870 71.217
5.38 216.427 68.973
5.39 212.676 65.841
5.40 222.063 66.781
5.41 225.119 70.271
5.42 225.226 72.219
5.43 222.015 72.678
5.44 212.706 72.351
5.45 198.237 71.983
5.46 183.148 --undefined--
5.47 163.664 --undefined--
5.48 --undefined-- --undefined--
5.49 --undefined-- --undefined--
