Time Pitch Intensity
0.01 --undefined-- --undefined--
0.02 --undefined-- --undefined--
0.03 --undefined-- --undefined--
0.04 --undefined-- --undefined--
0.05 123.641 62.487
0.06 120.932 61.874
0.07 120.525 62.636
0.08 119.338 63.067
0.09 121.716 63.278
0.10 125.544 63.497
0.11 129.814 63.739
0.12 133.402 64.199
0.13 136.790 64.934
0.14 139.277 65.696
0.15 141.499 66.120
0.16 142.998 65.766
0.17 143.228 64.152
0.18 141.718 61.332
0.19 139.945 57.463
0.20 --undefined-- 51.756
0.21 --undefined-- 45.046
0.22 --undefined-- 46.906
0.23 --undefined-- 53.305
0.24 --undefined-- 58.912
0.25 122.580 63.273
0.26 122.605 65.941
0.27 116.280 66.594
0.28 111.687 65.540
0.29 109.361 63.273
0.30 104.325 59.368
0.31 --undefined-- 53.285
0.32 --undefined-- 45.462
0.33 --undefined-- 39.483
0.34 --undefined-- 38.013
0.35 --undefined-- 37.878
0.36 --undefined-- 36.642
0.37 --undefined-- 34.014
0.38 --undefined-- 31.750
0.39 --undefined-- 32.201
0.40 --undefined-- 32.468
0.41 --undefined-- 31.830
0.42 --undefined-- 32.234
0.43 --undefined-- 32.596
0.44 --undefined-- 32.585
0.45 --undefined-- 32.840
0.46 --undefined-- 32.331
0.47 --undefined-- 31.752
0.48 --undefined-- 31.987
0.49 --undefined-- 31.801
0.50 --undefined-- 30.667
0.51 --undefined-- 40.780
0.52 --undefined-- 54.104
0.53 --undefined-- 63.629
0.54 --undefined-- 70.415
0.55 196.731 75.134
0.56 214.432 77.919
0.57 219.090 78.468
0.58 223.484 76.650
0.59 227.775 73.369
0.60 230.460 71.477
0.61 232.641 71.222
0.62 231.212 71.681
0.63 227.820 73.554
0.64 226.257 75.790
0.65 224.681 76.810
0.66 218.959 76.596
0.67 211.403 76.906
0.68 209.368 78.342
0.69 205.996 78.963
0.70 199.268 78.530
0.71 193.930 78.053
0.72 191.165 77.868
0.73 189.917 77.409
0.74 189.205 76.126
0.75 185.505 73.635
0.76 179.480 69.882
0.77 171.943 65.469
0.78 166.073 62.226
0.79 163.282 62.201
0.80 162.382 64.661
0.81 161.857 67.659
0.82 161.067 70.186
0.83 161.268 71.881
0.84 164.429 72.687
0.85 164.857 72.907
0.86 165.144 72.882
0.87 164.243 72.196
0.88 161.000 69.958
0.89 156.192 65.210
0.90 --undefined-- 57.508
0.91 --undefined-- 48.737
0.92 --undefined-- 50.416
0.93 --undefined-- 55.525
0.94 --undefined-- 56.856
0.95 --undefined-- 55.229
0.96 --undefined-- 52.837
0.97 --undefined-- 51.971
0.98 --undefined-- 53.135
0.99 --undefined-- 56.329
1.00 --undefined-- 63.450
1.01 --undefined-- 68.518
1.02 --undefined-- 69.697
1.03 130.411 67.309
1.04 123.793 64.776
1.05 127.306 66.162
1.06 128.714 68.182
1.07 134.852 69.226
1.08 152.672 69.212
1.09 156.465 69.704
1.10 166.902 71.312
1.11 173.570 72.675
1.12 182.633 72.967
1.13 187.448 71.803
1.14 188.386 68.947
1.15 186.649 64.195
1.16 --undefined-- 57.502
1.17 --undefined-- 50.862
1.18 --undefined-- 47.637
1.19 --undefined-- 54.933
1.20 --undefined-- 65.635
1.21 --undefined-- 72.376
1.22 --undefined-- 75.878
1.23 --undefined-- 76.986
1.24 --undefined-- 76.460
1.25 --undefined-- 74.811
1.26 124.062 72.297
1.27 123.627 70.526
1.28 127.140 71.160
1.29 130.197 72.640
1.30 133.227 73.572
1.31 139.167 73.775
1.32 146.923 73.368
1.33 159.257 72.639
1.34 168.707 72.261
1.35 176.706 72.231
1.36 185.484 71.659
1.37 188.679 69.783
1.38 --undefined-- 66.728
1.39 --undefined-- 64.363
1.40 --undefined-- 62.777
1.41 --undefined-- 59.685
1.42 --undefined-- 55.711
1.43 --undefined-- 53.301
1.44 --undefined-- 51.655
1.45 --undefined-- 49.014
1.46 --undefined-- 46.212
1.47 --undefined-- 46.113
1.48 --undefined-- 46.669
1.49 --undefined-- 46.542
1.50 --undefined-- 45.955
1.51 --undefined-- 44.504
1.52 --undefined-- 41.676
1.53 --undefined-- 39.029
1.54 --undefined-- 38.616
1.55 --undefined-- 38.312
1.56 --undefined-- 36.534
1.57 --undefined-- 33.070
1.58 --undefined-- 29.045
1.59 --undefined-- 27.238
1.60 --undefined-- 26.901
1.61 --undefined-- 27.201
1.62 --undefined-- 27.848
1.63 --undefined-- 28.520
1.64 --undefined-- 29.990
1.65 --undefined-- 34.873
1.66 --undefined-- 41.776
1.67 --undefined-- 47.185
1.68 --undefined-- 51.069
1.69 --undefined-- 53.460
1.70 --undefined-- 54.303
1.71 --undefined-- 54.371
1.72 --undefined-- 54.636
1.73 118.096 55.430
1.74 117.182 56.538
1.75 116.790 57.739
1.76 117.330 58.978
1.77 120.711 60.120
1.78 124.073 60.794
1.79 127.365 60.945
1.80 128.496 60.777
1.81 129.207 59.731
1.82 --undefined-- 56.973
1.83 --undefined-- 51.940
1.84 --undefined-- 44.324
1.85 --undefined-- 36.823
1.86 --undefined-- 49.510
1.87 --undefined-- 59.919
1.88 --undefined-- 65.243
1.89 --undefined-- 67.136
1.90 --undefined-- 69.620
1.91 207.647 73.397
1.92 204.326 75.883
1.93 198.110 77.743
1.94 197.088 79.402
1.95 196.934 80.127
1.96 196.646 80.016
1.97 195.515 79.903
1.98 193.574 79.887
1.99 192.902 79.588
2.00 194.266 78.788
2.01 193.939 76.986
2.02 192.203 73.752
2.03 188.342 68.781
2.04 --undefined-- 62.385
2.05 --undefined-- 56.821
2.06 --undefined-- 52.951
2.07 --undefined-- 49.056
2.08 --undefined-- 52.996
2.09 --undefined-- 59.592
2.10 --undefined-- 63.329
2.11 169.965 66.026
2.12 169.718 69.462
2.13 170.038 72.533
2.14 171.051 74.360
2.15 169.977 74.808
2.16 168.449 73.873
2.17 166.562 71.223
2.18 --undefined-- 66.106
2.19 --undefined-- 57.923
2.20 --undefined-- 48.649
2.21 --undefined-- 43.648
2.22 --undefined-- 40.047
2.23 --undefined-- 35.939
2.24 --undefined-- 35.482
2.25 --undefined-- 42.227
2.26 --undefined-- 49.183
2.27 --undefined-- 54.868
2.28 144.407 58.450
2.29 145.354 60.210
2.30 142.482 61.129
2.31 135.792 61.870
2.32 131.493 63.443
2.33 --undefined-- 68.086
2.34 --undefined-- 72.533
2.35 --undefined-- 74.260
2.36 112.985 73.703
2.37 114.114 72.807
2.38 117.795 72.456
2.39 118.194 70.893
2.40 117.031 67.378
2.41 --undefined-- 62.006
2.42 --undefined-- 56.261
2.43 --undefined-- 54.736
2.44 104.850 54.874
2.45 101.349 54.722
2.46 103.884 54.612
2.47 103.507 54.994
2.48 104.438 55.463
2.49 103.389 55.438
2.50 105.212 55.366
2.51 106.214 55.776
2.52 107.724 56.436
2.53 109.022 57.342
2.54 110.298 58.275
2.55 110.950 58.915
2.56 111.712 59.308
2.57 113.148 59.773
2.58 114.582 60.126
2.59 115.064 60.131
2.60 115.964 59.711
2.61 116.657 59.031
2.62 118.220 58.448
2.63 121.582 57.758
2.64 122.435 56.381
2.65 --undefined-- 54.195
2.66 --undefined-- 50.965
2.67 --undefined-- 46.890
2.68 --undefined-- 43.181
2.69 --undefined-- 41.169
2.70 --undefined-- 44.338
2.71 --undefined-- 48.956
2.72 --undefined-- 52.268
2.73 --undefined-- 54.903
2.74 --undefined-- 57.063
2.75 --undefined-- 58.158
2.76 --undefined-- 57.831
2.77 --undefined-- 56.956
2.78 --undefined-- 57.348
2.79 --undefined-- 58.090
2.80 --undefined-- 57.828
2.81 --undefined-- 56.862
2.82 --undefined-- 56.219
2.83 --undefined-- 58.515
2.84 --undefined-- 64.024
2.85 120.912 67.806
2.86 125.870 68.798
2.87 125.763 67.769
2.88 120.682 65.949
2.89 115.864 63.647
2.90 110.948 60.592
2.91 107.886 57.084
2.92 106.714 55.542
2.93 105.839 56.328
2.94 105.638 57.345
2.95 105.086 58.046
2.96 105.624 58.435
2.97 107.686 58.727
2.98 110.783 59.328
2.99 113.824 60.196
3.00 118.189 61.077
3.01 123.795 62.071
3.02 128.627 63.064
3.03 137.786 64.272
3.04 141.816 65.619
3.05 146.519 66.504
3.06 151.143 66.938
3.07 156.788 68.026
3.08 162.745 70.369
3.09 165.432 72.447
3.10 166.921 73.532
3.11 167.634 73.642
3.12 167.057 72.702
3.13 163.996 70.403
3.14 158.761 66.697
3.15 150.963 62.178
3.16 139.066 57.288
3.17 --undefined-- 52.267
3.18 --undefined-- 47.460
3.19 --undefined-- 43.045
3.20 --undefined-- 38.886
3.21 --undefined-- 34.169
3.22 --undefined-- 32.466
3.23 --undefined-- 34.695
3.24 --undefined-- 36.697
3.25 --undefined-- 37.475
3.26 --undefined-- 37.505
3.27 --undefined-- 37.790
3.28 --undefined-- 38.343
3.29 --undefined-- 38.246
3.30 --undefined-- 37.915
3.31 --undefined-- 38.411
3.32 --undefined-- 38.558
3.33 --undefined-- 37.237
3.34 --undefined-- 34.615
3.35 --undefined-- 33.486
3.36 --undefined-- 38.681
3.37 --undefined-- 48.997
3.38 --undefined-- 59.126
3.39 --undefined-- 66.162
3.40 --undefined-- 70.669
3.41 135.274 73.096
3.42 133.923 73.506
3.43 133.828 71.820
3.44 131.638 67.771
3.45 --undefined-- 60.947
3.46 --undefined-- 52.659
3.47 --undefined-- 49.860
3.48 --undefined-- 49.566
3.49 --undefined-- 50.056
3.50 --undefined-- 55.319
3.51 --undefined-- 64.951
3.52 200.916 71.909
3.53 197.844 75.613
3.54 196.306 77.002
3.55 194.059 77.321
3.56 192.193 77.219
3.57 191.396 76.263
3.58 193.140 74.071
3.59 193.364 71.335
3.60 190.809 69.535
3.61 188.595 68.922
3.62 185.714 69.075
3.63 178.903 69.238
3.64 177.337 68.283
3.65 166.688 65.521
3.66 --undefined-- 61.941
3.67 --undefined-- 60.469
3.68 --undefined-- 61.426
3.69 --undefined-- 64.437
3.70 --undefined-- 66.817
3.71 --undefined-- 66.491
3.72 --undefined-- 65.494
3.73 --undefined-- 69.648
3.74 --undefined-- 72.857
3.75 --undefined-- 72.919
3.76 --undefined-- 70.138
3.77 --undefined-- 65.702
3.78 --undefined-- 65.552
3.79 --undefined-- 68.432
3.80 --undefined-- 68.272
3.81 --undefined-- 64.797
3.82 --undefined-- 60.462
3.83 --undefined-- 57.589
3.84 --undefined-- 55.191
3.85 --undefined-- 52.472
3.86 --undefined-- 49.730
3.87 --undefined-- 50.501
3.88 --undefined-- 52.574
3.89 --undefined-- 53.257
3.90 --undefined-- 52.745
3.91 --undefined-- 51.591
3.92 --undefined-- 52.046
3.93 --undefined-- 53.132
3.94 --undefined-- 52.397
3.95 --undefined-- 50.799
3.96 --undefined-- 50.525
3.97 --undefined-- 49.424
3.98 --undefined-- 47.634
3.99 --undefined-- 47.898
4.00 --undefined-- 46.332
4.01 --undefined-- 41.412
4.02 --undefined-- 34.964
4.03 --undefined-- 32.172
4.04 --undefined-- 33.441
4.05 --undefined-- 35.416
4.06 --undefined-- 36.699
4.07 --undefined-- 37.056
4.08 --undefined-- 41.949
4.09 --undefined-- 55.424
4.10 --undefined-- 65.225
4.11 188.909 70.672
4.12 187.619 73.108
4.13 188.187 73.916
4.14 189.875 74.376
4.15 190.904 74.960
4.16 191.813 75.131
4.17 195.212 74.075
4.18 197.525 71.713
4.19 196.941 69.290
4.20 194.592 67.774
4.21 192.609 66.949
4.22 192.069 66.813
4.23 190.175 67.336
4.24 186.919 68.071
4.25 184.191 68.441
4.26 176.840 68.012
4.27 171.951 66.450
4.28 --undefined-- 63.731
4.29 --undefined-- 60.354
4.30 --undefined-- 57.993
4.31 --undefined-- 60.115
4.32 --undefined-- 62.678
4.33 --undefined-- 63.363
4.34 --undefined-- 64.423
4.35 --undefined-- 69.322
4.36 --undefined-- 73.538
4.37 --undefined-- 75.016
4.38 --undefined-- 74.078
4.39 --undefined-- 71.447
4.40 --undefined-- 69.140
4.41 103.742 67.997
4.42 102.912 66.185
4.43 --undefined-- 62.984
4.44 --undefined-- 59.955
4.45 --undefined-- 59.368
4.46 --undefined-- 58.779
4.47 --undefined-- 58.865
4.48 --undefined-- 58.974
4.49 --undefined-- 56.443
4.50 --undefined-- 50.793
4.51 --undefined-- 43.202
4.52 --undefined-- 38.004
4.53 --undefined-- 38.606
4.54 --undefined-- 43.631
4.55 --undefined-- 55.990
4.56 184.477 65.898
4.57 175.234 71.662
4.58 173.773 74.134
4.59 172.073 74.046
4.60 170.184 72.636
4.61 169.431 71.858
4.62 170.746 71.937
4.63 171.623 72.245
4.64 171.493 72.672
4.65 170.823 72.938
4.66 169.169 72.943
4.67 168.279 72.739
4.68 167.326 72.229
4.69 164.381 70.999
4.70 159.836 68.270
4.71 149.620 63.601
4.72 --undefined-- 58.266
4.73 --undefined-- 56.739
4.74 --undefined-- 57.364
4.75 --undefined-- 58.312
4.76 --undefined-- 61.207
4.77 --undefined-- 62.807
4.78 --undefined-- 62.123
4.79 --undefined-- 63.709
4.80 --undefined-- 66.773
4.81 --undefined-- 67.890
4.82 --undefined-- 67.666
4.83 --undefined-- 66.767
4.84 --undefined-- 64.599
4.85 --undefined-- 63.208
4.86 --undefined-- 62.751
4.87 --undefined-- 63.344
4.88 --undefined-- 64.140
4.89 --undefined-- 62.780
4.90 --undefined-- 62.047
4.91 --undefined-- 61.262
4.92 --undefined-- 59.852
4.93 --undefined-- 58.403
4.94 --undefined-- 55.220
4.95 --undefined-- 52.568
4.96 --undefined-- 51.746
4.97 --undefined-- 50.250
4.98 --undefined-- 46.718
4.99 --undefined-- 45.308
5.00 --undefined-- 47.418
5.01 --undefined-- 47.845
5.02 --undefined-- 45.649
5.03 --undefined-- 41.367
5.04 --undefined-- 35.845
5.05 --undefined-- 32.614
5.06 --undefined-- 32.610
5.07 --undefined-- 33.640
5.08 --undefined-- 41.343
5.09 --undefined-- 48.193
5.10 --undefined-- 53.042
5.11 --undefined-- 60.255
5.12 --undefined-- 66.953
5.13 169.998 71.241
5.14 165.613 74.060
5.15 161.699 75.587
5.16 158.806 75.707
5.17 156.360 74.786
5.18 154.768 73.969
5.19 152.773 73.910
5.20 149.939 74.095
5.21 146.260 74.459
5.22 140.559 74.801
5.23 136.795 74.328
5.24 129.709 72.318
5.25 122.737 68.909
5.26 115.383 65.942
5.27 --undefined-- 64.823
5.28 --undefined-- 64.351
5.29 --undefined-- 63.269
5.30 --undefined-- 61.858
5.31 --undefined-- 60.257
5.32 97.306 58.571
5.33 80.550 58.129
5.34 85.310 58.366
5.35 82.108 58.565
5.36 81.282 57.792
5.37 --undefined-- 57.790
5.38 --undefined-- 58.355
5.39 --undefined-- 57.720
5.40 --undefined-- 56.802
5.41 --undefined-- 55.830
5.42 --undefined-- 54.597
5.43 --undefined-- 53.199
5.44 --undefined-- 51.018
5.45 --undefined-- 49.230
5.46 --undefined-- 47.136
5.47 --undefined-- 43.195
5.48 --undefined-- 37.407
5.49 --undefined-- 32.806
5.50 --undefined-- 32.205
5.51 --undefined-- 32.947
5.52 --undefined-- 33.908
5.53 --undefined-- 33.908
5.54 --undefined-- 33.700
5.55 --undefined-- 33.969
5.56 --undefined-- 34.072
5.57 --undefined-- 34.967
5.58 --undefined-- 40.418
5.59 --undefined-- 53.046
5.60 --undefined-- 63.887
5.61 --undefined-- 69.627
5.62 --undefined-- 70.870
5.63 --undefined-- 68.176
5.64 --undefined-- 62.359
5.65 --undefined-- 55.049
5.66 --undefined-- 48.525
5.67 --undefined-- 57.303
5.68 --undefined-- 66.200
5.69 --undefined-- 71.494
5.70 --undefined-- 73.898
5.71 --undefined-- 74.180
5.72 --undefined-- 72.681
5.73 --undefined-- 69.296
5.74 132.833 64.307
5.75 143.445 60.725
5.76 148.588 61.456
5.77 153.925 62.802
5.78 158.266 63.904
5.79 160.854 64.466
5.80 161.059 64.061
5.81 158.904 62.152
5.82 152.854 58.259
5.83 --undefined-- 52.417
5.84 --undefined-- 46.129
5.85 --undefined-- 41.433
5.86 --undefined-- 45.390
5.87 --undefined-- 59.258
5.88 --undefined-- 69.384
5.89 --undefined-- 75.411
5.90 --undefined-- 77.836
5.91 --undefined-- 77.735
5.92 118.793 76.383
5.93 117.620 74.656
5.94 117.670 72.858
5.95 116.882 71.243
5.96 115.555 --undefined--
5.97 114.938 --undefined--
5.98 --undefined-- --undefined--
5.99 --undefined-- --undefined--
