Time Pitch Intensity
0.01 --undefined-- --undefined--
0.02 158.038 --undefined--
0.03 151.014 --undefined--
0.04 151.775 --undefined--
0.05 150.455 59.780
0.06 146.546 60.739
0.07 139.426 61.982
0.08 134.894 62.419
0.09 134.473 62.491
0.10 133.131 62.873
0.11 131.196 63.447
0.12 130.693 64.127
0.13 129.986 64.827
0.14 129.180 65.458
0.15 128.617 66.007
0.16 128.566 66.512
0.17 129.019 67.065
0.18 129.603 67.623
0.19 130.104 68.047
0.20 130.879 68.342
0.21 132.464 68.626
0.22 134.151 68.972
0.23 135.919 69.377
0.24 138.057 69.739
0.25 139.922 69.969
0.26 141.558 70.131
0.27 142.728 70.340
0.28 143.308 70.511
0.29 142.613 70.295
0.30 139.875 69.038
0.31 137.201 66.296
0.32 144.952 62.180
0.33 146.774 56.734
0.34 --undefined-- 50.747
0.35 --undefined-- 49.342
0.36 --undefined-- 50.868
0.37 --undefined-- 52.080
0.38 --undefined-- 52.555
0.39 --undefined-- 52.158
0.40 --undefined-- 50.570
0.41 --undefined-- 48.480
0.42 --undefined-- 49.229
0.43 --undefined-- 59.439
0.44 --undefined-- 68.091
0.45 146.381 72.637
0.46 145.463 74.117
0.47 142.112 73.682
0.48 140.233 72.523
0.49 138.428 71.505
0.50 137.747 70.901
0.51 137.550 70.627
0.52 137.442 70.548
0.53 136.928 70.484
0.54 135.791 70.316
0.55 134.193 70.062
0.56 132.727 69.759
0.57 130.750 69.319
0.58 128.312 68.566
0.59 125.895 67.503
0.60 124.342 66.477
0.61 122.711 65.915
0.62 120.740 65.848
0.63 119.469 66.059
0.64 118.064 66.491
0.65 114.093 66.986
0.66 112.258 67.181
0.67 110.422 66.932
0.68 107.422 66.478
0.69 107.039 66.168
0.70 104.611 65.870
0.71 99.133 65.077
0.72 99.917 64.147
0.73 99.531 63.695
0.74 96.945 63.500
0.75 96.465 63.152
0.76 93.504 62.562
0.77 93.031 62.427
0.78 91.830 63.237
0.79 92.595 64.355
0.80 90.068 65.020
0.81 89.153 65.333
0.82 88.226 65.506
0.83 88.313 65.700
0.84 88.598 66.039
0.85 90.220 66.589
0.86 93.278 67.193
0.87 96.481 67.630
0.88 100.097 67.979
0.89 100.826 68.358
0.90 103.992 68.618
0.91 104.391 68.627
0.92 104.105 68.373
0.93 103.333 67.969
0.94 101.175 67.393
0.95 96.857 66.534
0.96 90.172 65.522
0.97 88.048 64.237
0.98 80.838 62.560
0.99 74.567 61.080
1.00 77.310 60.211
1.01 78.638 59.660
1.02 75.964 59.082
1.03 77.561 58.419
1.04 78.184 58.377
1.05 76.344 58.224
1.06 83.843 58.029
1.07 84.859 58.643
1.08 86.235 59.789
1.09 88.144 60.536
1.10 87.494 60.342
1.11 88.129 59.418
1.12 94.153 57.891
1.13 98.037 55.074
1.14 --undefined-- 50.255
1.15 --undefined-- 45.390
1.16 --undefined-- 46.952
1.17 --undefined-- 50.379
1.18 --undefined-- 54.888
1.19 --undefined-- 61.184
1.20 --undefined-- 65.193
1.21 88.516 66.570
1.22 88.659 66.682
1.23 83.676 66.525
1.24 83.529 66.125
1.25 82.221 65.578
1.26 82.010 64.963
1.27 82.267 64.300
1.28 84.456 64.172
1.29 84.414 64.626
1.30 87.159 65.149
1.31 91.216 65.588
1.32 93.355 65.935
1.33 96.684 66.196
1.34 98.782 66.462
1.35 102.031 66.856
1.36 103.508 67.325
1.37 106.592 67.927
1.38 108.108 68.790
1.39 108.443 69.369
1.40 109.322 69.551
1.41 109.203 69.670
1.42 107.459 69.314
1.43 106.072 68.451
1.44 105.432 67.370
1.45 103.559 66.313
1.46 103.179 65.388
1.47 106.855 63.807
1.48 107.177 60.630
1.49 --undefined-- 55.089
1.50 --undefined-- 47.038
1.51 --undefined-- 41.889
1.52 --undefined-- 43.145
1.53 --undefined-- 45.896
1.54 --undefined-- 47.983
1.55 --undefined-- 49.438
1.56 --undefined-- 50.840
1.57 --undefined-- 52.097
1.58 --undefined-- 53.039
1.59 --undefined-- 53.685
1.60 --undefined-- 54.359
1.61 --undefined-- 55.311
1.62 --undefined-- 55.619
1.63 --undefined-- 55.417
1.64 --undefined-- 55.288
1.65 --undefined-- 55.403
1.66 --undefined-- 55.761
1.67 --undefined-- 56.174
1.68 --undefined-- 56.677
1.69 --undefined-- 56.850
1.70 --undefined-- 56.189
1.71 --undefined-- 55.488
1.72 --undefined-- 54.832
1.73 --undefined-- 53.829
1.74 --undefined-- 53.285
1.75 --undefined-- 53.580
1.76 --undefined-- 57.291
1.77 --undefined-- 61.828
1.78 125.419 63.837
1.79 121.617 63.979
1.80 120.029 64.671
1.81 126.105 67.167
1.82 123.366 69.279
1.83 117.963 70.061
1.84 115.568 69.912
1.85 113.683 69.226
1.86 110.862 68.348
1.87 108.936 67.772
1.88 108.212 67.509
1.89 107.711 67.187
1.90 107.165 66.590
1.91 104.875 65.717
1.92 104.336 65.252
1.93 107.167 65.616
1.94 108.035 66.369
1.95 109.708 67.218
1.96 110.168 67.655
1.97 108.459 67.159
1.98 109.959 66.728
1.99 116.251 68.686
2.00 126.970 71.787
2.01 137.027 74.097
2.02 153.609 75.142
2.03 165.343 75.156
2.04 171.019 74.347
2.05 174.813 72.994
2.06 178.267 71.504
2.07 183.802 70.264
2.08 191.510 69.588
2.09 193.976 69.253
2.10 195.233 68.887
2.11 194.294 68.557
2.12 193.097 68.228
2.13 190.828 68.217
2.14 184.044 68.807
2.15 176.280 69.628
2.16 168.861 69.912
2.17 153.833 69.242
2.18 138.395 68.313
2.19 128.628 67.575
2.20 117.381 66.576
2.21 108.992 65.273
2.22 101.973 64.067
2.23 101.982 63.772
2.24 99.669 64.041
2.25 99.236 64.345
2.26 99.442 64.706
2.27 99.593 65.013
2.28 99.989 65.338
2.29 102.459 65.729
2.30 103.452 66.160
2.31 104.358 66.517
2.32 105.754 66.515
2.33 106.742 65.924
2.34 107.597 64.701
2.35 110.282 63.201
2.36 116.922 62.222
2.37 120.499 65.407
2.38 157.274 71.646
2.39 153.420 75.416
2.40 147.124 76.541
2.41 146.827 76.195
2.42 147.271 75.530
2.43 147.961 74.822
2.44 148.371 73.936
2.45 149.652 72.798
2.46 150.696 71.669
2.47 150.844 70.601
2.48 153.454 69.498
2.49 154.429 68.720
2.50 155.076 68.481
2.51 155.152 68.569
2.52 155.249 68.779
2.53 155.822 68.958
2.54 156.282 68.942
2.55 156.707 68.548
2.56 155.331 67.493
2.57 152.374 65.611
2.58 151.557 63.246
2.59 151.728 61.836
2.60 159.665 63.930
2.61 168.323 68.723
2.62 168.741 72.802
2.63 166.407 75.002
2.64 162.544 75.471
2.65 157.869 74.654
2.66 152.522 72.930
2.67 148.946 70.757
2.68 149.265 69.117
2.69 147.651 68.523
2.70 144.913 68.342
2.71 141.732 68.159
2.72 137.988 67.936
2.73 134.274 67.846
2.74 131.869 67.946
2.75 130.280 68.253
2.76 129.101 68.692
2.77 127.447 68.988
2.78 125.886 68.989
2.79 124.386 68.639
2.80 123.074 67.921
2.81 121.276 66.881
2.82 119.842 65.326
2.83 123.188 62.992
2.84 123.162 60.343
2.85 --undefined-- 60.081
2.86 --undefined-- 64.741
2.87 158.580 70.699
2.88 154.500 74.076
2.89 149.634 74.726
2.90 144.560 73.532
2.91 142.424 71.891
2.92 141.702 70.838
2.93 141.536 70.470
2.94 140.815 70.333
2.95 140.284 70.109
2.96 138.991 69.526
2.97 136.333 68.268
2.98 133.612 66.301
2.99 135.136 64.569
3.00 138.950 65.567
3.01 143.612 69.006
3.02 140.600 71.750
3.03 137.624 72.574
3.04 130.406 71.559
3.05 123.188 69.596
3.06 118.939 67.649
3.07 114.198 65.957
3.08 114.409 64.993
3.09 117.069 65.101
3.10 117.283 65.512
3.11 116.243 65.701
3.12 115.074 65.749
3.13 114.819 66.140
3.14 115.932 67.179
3.15 114.257 67.996
3.16 110.106 67.928
3.17 109.745 67.360
3.18 108.476 66.825
3.19 107.052 66.570
3.20 106.159 66.558
3.21 104.311 66.809
3.22 102.699 67.121
3.23 99.986 66.758
3.24 96.668 64.842
3.25 86.822 62.345
3.26 106.098 63.121
3.27 105.559 64.788
3.28 103.406 65.647
3.29 105.290 66.428
3.30 104.752 67.237
3.31 105.387 67.849
3.32 105.306 68.084
3.33 105.801 67.661
3.34 108.124 66.817
3.35 111.904 66.457
3.36 114.887 66.500
3.37 112.250 65.678
3.38 112.891 63.985
3.39 120.144 62.993
3.40 124.874 63.145
3.41 129.625 65.962
3.42 144.980 69.920
3.43 134.723 72.056
3.44 127.461 72.589
3.45 125.394 72.144
3.46 122.804 71.111
3.47 122.385 70.286
3.48 122.004 69.831
3.49 120.130 69.242
3.50 121.153 68.611
3.51 122.558 68.201
3.52 122.957 68.000
3.53 125.038 68.170
3.54 125.085 68.516
3.55 124.512 68.450
3.56 121.784 68.064
3.57 121.576 67.807
3.58 121.131 67.769
3.59 120.824 67.835
3.60 121.494 68.000
3.61 121.590 68.268
3.62 119.290 67.952
3.63 114.878 66.167
3.64 115.425 63.221
3.65 126.277 61.217
3.66 129.061 60.254
3.67 128.271 59.759
3.68 131.554 63.309
3.69 145.038 68.270
3.70 135.144 70.883
3.71 129.510 71.354
3.72 126.807 70.740
3.73 126.174 69.949
3.74 126.992 69.679
3.75 128.895 69.963
3.76 130.241 70.252
3.77 130.273 70.224
3.78 128.994 69.870
3.79 127.927 69.423
3.80 126.825 69.114
3.81 125.988 68.967
3.82 125.456 68.893
3.83 126.543 68.810
3.84 128.390 68.647
3.85 130.030 68.505
3.86 131.415 68.580
3.87 132.548 68.827
3.88 132.806 69.071
3.89 132.507 69.233
3.90 131.964 69.282
3.91 130.996 69.215
3.92 129.586 69.071
3.93 128.172 68.683
3.94 126.563 67.783
3.95 121.655 66.586
3.96 116.043 65.492
3.97 111.267 63.797
3.98 109.873 60.681
3.99 100.350 57.179
4.00 106.764 58.551
4.01 119.486 62.457
4.02 120.599 65.417
4.03 116.603 66.952
4.04 114.051 67.392
4.05 112.443 67.388
4.06 109.850 67.243
4.07 108.901 66.922
4.08 107.672 66.503
4.09 107.715 66.393
4.10 109.506 66.945
4.11 111.853 67.873
4.12 113.724 68.671
4.13 114.516 68.714
4.14 114.415 67.330
4.15 117.793 64.696
4.16 119.065 61.532
4.17 118.785 57.940
4.18 --undefined-- 56.756
4.19 --undefined-- 58.968
4.20 --undefined-- 61.750
4.21 --undefined-- 67.436
4.22 --undefined-- 71.470
4.23 138.348 72.751
4.24 132.834 72.104
4.25 129.783 70.741
4.26 128.296 69.494
4.27 127.392 68.540
4.28 127.220 68.101
4.29 128.327 68.153
4.30 128.111 68.243
4.31 127.546 68.146
4.32 126.726 67.958
4.33 126.208 67.867
4.34 125.477 67.941
4.35 123.831 68.034
4.36 121.199 67.906
4.37 117.928 67.522
4.38 114.184 67.079
4.39 110.307 66.753
4.40 107.975 66.891
4.41 107.509 67.451
4.42 105.708 67.976
4.43 105.364 68.296
4.44 105.229 68.427
4.45 105.464 68.357
4.46 105.154 68.092
4.47 104.540 67.648
4.48 104.005 66.918
4.49 102.542 65.716
4.50 98.458 63.909
4.51 97.436 61.853
4.52 100.570 59.898
4.53 103.688 57.795
4.54 110.065 55.169
4.55 --undefined-- 51.128
4.56 --undefined-- 44.550
4.57 --undefined-- 37.875
4.58 --undefined-- 37.377
4.59 --undefined-- 39.209
4.60 --undefined-- 41.029
4.61 --undefined-- 40.997
4.62 --undefined-- 40.158
4.63 --undefined-- 40.267
4.64 --undefined-- 41.169
4.65 --undefined-- 42.296
4.66 --undefined-- 43.845
4.67 --undefined-- 45.267
4.68 --undefined-- 47.188
4.69 --undefined-- 53.631
4.70 --undefined-- 60.038
4.71 105.001 64.078
4.72 105.539 66.605
4.73 105.674 68.305
4.74 102.834 69.242
4.75 100.940 69.473
4.76 100.372 69.191
4.77 99.844 68.476
4.78 99.941 67.288
4.79 97.602 65.511
4.80 96.060 63.199
4.81 100.048 60.393
4.82 105.990 56.876
4.83 --undefined-- 53.194
4.84 --undefined-- 57.819
4.85 --undefined-- 63.859
4.86 --undefined-- 67.789
4.87 --undefined-- 70.247
4.88 --undefined-- 70.676
4.89 --undefined-- 68.906
4.90 --undefined-- 66.004
4.91 90.851 63.882
4.92 98.925 63.226
4.93 92.064 62.476
4.94 91.574 61.081
4.95 96.100 59.988
4.96 94.537 60.429
4.97 100.821 --undefined--
4.98 101.258 --undefined--
4.99 --undefined-- --undefined--
5.00 --undefined-- --undefined--
