Time Pitch Intensity
0.01 --undefined-- --undefined--
0.02 202.013 --undefined--
0.03 202.272 --undefined--
0.04 202.251 --undefined--
0.05 202.246 73.345
0.06 201.322 73.308
0.07 200.492 73.288
0.08 199.186 73.319
0.09 197.639 73.367
0.10 196.723 73.336
0.11 196.770 73.191
0.12 197.101 72.869
0.13 195.048 72.063
0.14 188.771 70.533
0.15 --undefined-- 68.520
0.16 --undefined-- 66.337
0.17 --undefined-- 63.393
0.18 --undefined-- 59.602
0.19 --undefined-- 57.370
0.20 --undefined-- 55.320
0.21 --undefined-- 51.387
0.22 --undefined-- 52.898
0.23 234.388 56.489
0.24 229.911 61.369
0.25 226.614 65.899
0.26 236.640 68.869
0.27 257.223 70.640
0.28 273.051 71.504
0.29 287.582 71.497
0.30 151.566 71.065
0.31 152.529 70.222
0.32 155.830 68.094
0.33 153.134 65.104
0.34 289.688 63.758
0.35 278.170 64.264
0.36 270.830 64.731
0.37 250.550 66.009
0.38 241.070 69.029
0.39 236.114 71.588
0.40 225.672 72.692
0.41 211.372 72.646
0.42 197.047 72.175
0.43 187.593 71.766
0.44 181.383 71.605
0.45 177.644 71.499
0.46 175.590 71.308
0.47 175.084 71.312
0.48 175.200 71.606
0.49 175.838 72.148
0.50 175.887 72.763
0.51 174.971 73.227
0.52 173.807 73.292
0.53 171.912 72.466
0.54 167.344 70.025
0.55 158.681 65.324
0.56 150.467 57.987
0.57 --undefined-- 48.696
0.58 --undefined-- 43.484
0.59 --undefined-- 43.264
0.60 --undefined-- 45.749
0.61 --undefined-- 56.517
0.62 205.004 64.328
0.63 196.382 68.456
0.64 190.244 69.849
0.65 180.076 69.770
0.66 171.793 69.234
0.67 162.961 68.293
0.68 150.002 66.695
0.69 128.832 64.304
0.70 247.493 60.804
0.71 241.232 56.433
0.72 --undefined-- 51.063
0.73 --undefined-- 43.269
0.74 --undefined-- 43.463
0.75 --undefined-- 51.781
0.76 164.511 57.064
0.77 159.215 60.356
0.78 158.175 62.538
0.79 157.282 63.884
0.80 156.710 64.728
0.81 157.399 65.347
0.82 158.689 65.751
0.83 158.164 65.922
0.84 156.828 66.016
0.85 155.486 66.200
0.86 153.539 66.506
0.87 152.211 66.825
0.88 153.230 67.025
0.89 154.842 67.179
0.90 155.303 67.333
0.91 155.242 67.442
0.92 155.104 67.507
0.93 155.528 67.566
0.94 156.075 67.671
0.95 156.846 67.886
0.96 157.199 68.243
0.97 157.963 68.675
0.98 159.951 69.032
0.99 162.048 69.301
1.00 165.440 69.482
1.01 168.632 69.574
1.02 170.951 69.666
1.03 173.036 69.724
1.04 174.403 69.588
1.05 173.906 69.217
1.06 172.703 68.691
1.07 161.292 67.671
1.08 154.257 65.432
1.09 --undefined-- 61.712
1.10 --undefined-- 56.335
1.11 --undefined-- 48.373
1.12 --undefined-- 38.284
1.13 --undefined-- 32.692
1.14 --undefined-- 31.467
1.15 --undefined-- 33.866
1.16 --undefined-- 35.917
1.17 --undefined-- 35.590
1.18 --undefined-- 34.559
1.19 --undefined-- 34.320
1.20 --undefined-- 33.266
1.21 --undefined-- 31.797
1.22 --undefined-- 32.163
1.23 --undefined-- 32.165
1.24 --undefined-- 30.692
1.25 --undefined-- 29.318
1.26 --undefined-- 31.324
1.27 --undefined-- 34.066
1.28 --undefined-- 35.526
1.29 --undefined-- 35.113
1.30 --undefined-- 35.235
1.31 --undefined-- 38.457
1.32 --undefined-- 41.878
1.33 --undefined-- 45.008
1.34 --undefined-- 47.437
1.35 --undefined-- 52.334
1.36 --undefined-- 61.629
1.37 222.199 68.064
1.38 193.381 71.339
1.39 192.108 72.644
1.40 193.913 72.984
1.41 195.916 72.946
1.42 198.800 72.896
1.43 203.312 72.999
1.44 211.705 73.506
1.45 220.883 74.360
1.46 230.911 75.151
1.47 240.809 75.735
1.48 250.018 76.288
1.49 259.760 76.851
1.50 265.120 76.936
1.51 270.768 76.272
1.52 282.419 75.006
1.53 296.187 73.291
1.54 152.854 71.932
1.55 153.409 71.738
1.56 --undefined-- 72.519
1.57 290.128 73.756
1.58 280.511 74.856
1.59 275.204 75.452
1.60 262.942 75.623
1.61 245.890 75.254
1.62 224.475 73.887
1.63 201.306 72.085
1.64 189.578 70.798
1.65 181.156 69.973
1.66 177.469 69.560
1.67 172.337 69.339
1.68 169.547 69.238
1.69 167.993 68.954
1.70 166.295 67.855
1.71 162.047 65.950
1.72 165.720 65.323
1.73 164.817 66.546
1.74 161.850 67.834
1.75 161.623 68.894
1.76 153.086 69.641
1.77 148.607 69.955
1.78 144.260 70.024
1.79 141.514 70.131
1.80 140.497 70.072
1.81 140.798 69.574
1.82 141.062 68.719
1.83 139.990 67.721
1.84 139.401 66.958
1.85 138.944 66.566
1.86 139.224 66.415
1.87 142.275 66.542
1.88 144.219 66.660
1.89 143.632 66.058
1.90 141.201 64.287
1.91 138.507 61.180
1.92 138.800 56.544
1.93 --undefined-- 50.093
1.94 --undefined-- 43.530
1.95 --undefined-- 41.067
1.96 --undefined-- 40.178
1.97 --undefined-- 40.206
1.98 --undefined-- 41.121
1.99 --undefined-- 45.596
2.00 --undefined-- 56.510
2.01 201.130 64.146
2.02 193.096 67.972
2.03 185.580 69.312
2.04 179.628 69.616
2.05 176.804 69.831
2.06 174.750 69.975
2.07 173.818 69.864
2.08 173.860 69.545
2.09 174.252 69.357
2.10 174.920 69.446
2.11 175.032 69.631
2.12 175.089 69.860
2.13 175.947 70.273
2.14 176.807 70.929
2.15 179.027 71.435
2.16 177.993 71.483
2.17 177.009 71.234
2.18 175.200 70.819
2.19 173.098 70.294
2.20 171.446 69.690
2.21 164.135 68.992
2.22 162.454 68.378
2.23 156.659 67.990
2.24 152.480 67.689
2.25 149.286 67.506
2.26 146.590 67.446
2.27 144.207 67.433
2.28 142.793 67.456
2.29 141.534 67.478
2.30 141.336 67.388
2.31 140.463 67.314
2.32 140.041 67.369
2.33 139.880 67.488
2.34 139.499 67.557
2.35 139.026 67.397
2.36 138.559 67.082
2.37 137.948 66.783
2.38 136.312 66.639
2.39 135.481 66.760
2.40 135.953 66.933
2.41 137.565 66.947
2.42 139.347 66.840
2.43 139.931 66.744
2.44 140.363 66.642
2.45 141.497 66.412
2.46 140.699 66.146
2.47 134.190 65.936
2.48 124.252 64.971
2.49 112.511 62.176
2.50 --undefined-- 57.965
2.51 --undefined-- 53.924
2.52 --undefined-- 50.539
2.53 --undefined-- 49.217
2.54 --undefined-- 47.042
2.55 --undefined-- 41.790
2.56 --undefined-- 33.926
2.57 --undefined-- 29.021
2.58 --undefined-- 26.990
2.59 --undefined-- 27.576
2.60 --undefined-- 34.009
2.61 --undefined-- 41.892
2.62 --undefined-- 48.646
2.63 --undefined-- 53.713
2.64 --undefined-- 56.889
2.65 --undefined-- 61.595
2.66 245.461 68.317
2.67 240.034 72.364
2.68 236.881 73.744
2.69 237.098 73.931
2.70 239.719 74.161
2.71 240.147 74.464
2.72 238.080 74.620
2.73 234.385 74.376
2.74 228.718 73.697
2.75 221.248 73.078
2.76 215.843 73.262
2.77 211.547 73.586
2.78 205.448 73.316
2.79 197.469 72.560
2.80 189.959 71.901
2.81 185.625 71.630
2.82 181.753 71.323
2.83 179.762 70.928
2.84 180.016 70.600
2.85 179.520 69.996
2.86 178.565 68.620
2.87 176.083 65.857
2.88 172.281 60.995
2.89 --undefined-- 53.482
2.90 --undefined-- 44.570
2.91 --undefined-- 42.113
2.92 --undefined-- 42.949
2.93 --undefined-- 46.527
2.94 --undefined-- 56.798
2.95 196.013 64.660
2.96 188.790 68.677
2.97 169.667 69.941
2.98 160.516 69.896
2.99 153.409 69.652
3.00 152.360 69.601
3.01 152.825 69.748
3.02 152.292 69.852
3.03 152.528 69.819
3.04 155.091 69.995
3.05 156.797 70.509
3.06 159.351 70.856
3.07 164.744 70.694
3.08 172.779 70.204
3.09 179.002 69.586
3.10 179.975 68.570
3.11 178.648 66.855
3.12 --undefined-- 64.075
3.13 --undefined-- 59.948
3.14 --undefined-- 54.870
3.15 --undefined-- 48.249
3.16 --undefined-- 42.741
3.17 --undefined-- 51.991
3.18 --undefined-- 59.407
3.19 --undefined-- 64.301
3.20 174.452 67.468
3.21 182.445 69.229
3.22 182.165 70.137
3.23 178.188 70.580
3.24 173.743 70.399
3.25 169.046 69.513
3.26 162.789 68.053
3.27 158.979 66.480
3.28 157.958 65.551
3.29 161.292 65.722
3.30 166.334 66.486
3.31 169.074 66.926
3.32 170.419 66.243
3.33 168.792 63.670
3.34 --undefined-- 58.685
3.35 --undefined-- 50.949
3.36 --undefined-- 40.348
3.37 --undefined-- 34.888
3.38 --undefined-- 38.081
3.39 --undefined-- 43.602
3.40 --undefined-- 53.393
3.41 --undefined-- 62.885
3.42 242.383 68.663
3.43 236.146 71.564
3.44 233.578 72.732
3.45 232.978 73.136
3.46 231.749 73.294
3.47 230.777 73.387
3.48 230.412 73.401
3.49 229.940 73.293
3.50 229.414 73.054
3.51 229.328 72.770
3.52 231.002 72.606
3.53 233.701 72.589
3.54 236.077 72.665
3.55 238.169 72.736
3.56 239.524 72.676
3.57 240.319 72.365
3.58 239.362 71.689
3.59 236.929 70.586
3.60 234.233 69.037
3.61 228.523 67.108
3.62 222.102 64.694
3.63 218.965 61.035
3.64 223.917 55.180
3.65 --undefined-- 47.216
3.66 --undefined-- 42.346
3.67 --undefined-- 41.886
3.68 --undefined-- 43.203
3.69 --undefined-- 47.480
3.70 --undefined-- 56.323
3.71 261.156 65.529
3.72 248.639 71.168
3.73 244.610 73.735
3.74 240.999 74.268
3.75 238.662 73.851
3.76 236.559 73.241
3.77 234.627 72.822
3.78 232.840 72.773
3.79 231.075 72.797
3.80 228.523 72.305
3.81 223.943 70.782
3.82 215.422 67.677
3.83 213.482 62.315
3.84 --undefined-- 54.518
3.85 --undefined-- 48.434
3.86 --undefined-- 49.201
3.87 --undefined-- 58.862
3.88 226.793 66.156
3.89 210.374 69.734
3.90 199.620 70.695
3.91 187.233 70.521
3.92 177.029 70.331
3.93 167.906 70.149
3.94 163.116 69.778
3.95 161.845 69.411
3.96 160.358 69.418
3.97 157.991 69.626
3.98 156.888 69.493
3.99 157.575 68.986
4.00 158.017 68.535
4.01 157.354 68.365
4.02 157.261 68.359
4.03 157.539 68.378
4.04 157.673 68.315
4.05 157.571 68.020
4.06 157.128 67.132
4.07 156.929 65.285
4.08 151.900 62.526
4.09 147.823 59.155
4.10 149.552 55.000
4.11 --undefined-- 49.147
4.12 --undefined-- 40.888
4.13 --undefined-- 34.691
4.14 --undefined-- 33.117
4.15 --undefined-- 32.850
4.16 --undefined-- 36.498
4.17 --undefined-- 43.255
4.18 --undefined-- 50.794
4.19 --undefined-- 56.183
4.20 --undefined-- 59.722
4.21 205.607 64.320
4.22 193.823 68.308
4.23 182.017 70.209
4.24 176.608 70.864
4.25 174.100 71.085
4.26 171.845 71.016
4.27 169.923 70.700
4.28 168.783 70.241
4.29 167.601 69.772
4.30 166.279 69.486
4.31 165.735 69.390
4.32 165.495 69.193
4.33 166.605 68.719
4.34 168.205 67.942
4.35 168.176 66.768
4.36 165.875 65.268
4.37 162.602 63.424
4.38 158.705 60.946
4.39 157.038 57.049
4.40 --undefined-- 51.100
4.41 --undefined-- 43.450
4.42 --undefined-- 38.898
4.43 --undefined-- 38.975
4.44 --undefined-- 40.045
4.45 --undefined-- 41.527
4.46 --undefined-- 43.521
4.47 --undefined-- 50.528
4.48 --undefined-- 60.056
4.49 --undefined-- 65.951
4.50 163.495 68.602
4.51 156.191 69.344
4.52 152.989 69.481
4.53 151.962 69.601
4.54 152.564 69.818
4.55 153.658 70.075
4.56 155.961 70.257
4.57 158.870 70.258
4.58 162.198 69.972
4.59 167.390 69.486
4.60 175.125 69.156
4.61 182.318 69.137
4.62 187.837 69.163
4.63 192.662 68.956
4.64 196.237 68.259
4.65 196.357 66.655
4.66 193.209 63.544
4.67 192.621 58.438
4.68 --undefined-- 50.513
4.69 --undefined-- 41.445
4.70 --undefined-- 39.777
4.71 --undefined-- 41.167
4.72 --undefined-- 42.783
4.73 --undefined-- 50.868
4.74 --undefined-- 61.309
4.75 --undefined-- 67.374
4.76 198.941 69.834
4.77 188.961 70.108
4.78 180.616 69.940
4.79 175.099 70.018
4.80 170.849 69.875
4.81 167.725 69.392
4.82 165.133 68.903
4.83 163.588 68.535
4.84 163.471 68.190
4.85 165.239 67.577
4.86 165.192 66.255
4.87 161.731 63.756
4.88 157.495 59.831
4.89 --undefined-- 53.785
4.90 --undefined-- 45.604
4.91 --undefined-- 41.957
4.92 --undefined-- 43.547
4.93 --undefined-- 45.491
4.94 --undefined-- 48.289
4.95 --undefined-- 50.310
4.96 --undefined-- 50.950
4.97 --undefined-- 50.977
4.98 --undefined-- 54.888
4.99 252.659 63.824
5.00 247.243 69.761
5.01 240.576 72.889
5.02 235.066 74.404
5.03 233.121 75.123
5.04 233.023 75.358
5.05 229.623 75.581
5.06 229.713 76.095
5.07 227.885 76.478
5.08 224.847 76.573
5.09 221.564 76.554
5.10 218.307 76.440
5.11 213.995 76.146
5.12 209.396 75.557
5.13 206.932 74.318
5.14 196.394 72.076
5.15 188.500 70.087
5.16 184.314 69.408
5.17 179.150 68.875
5.18 174.551 68.321
5.19 170.571 67.977
5.20 167.111 67.698
5.21 164.533 67.593
5.22 161.730 67.578
5.23 159.889 67.568
5.24 157.382 67.620
5.25 152.469 67.970
5.26 154.055 68.431
5.27 152.571 68.540
5.28 152.015 68.386
5.29 153.380 68.220
5.30 154.331 68.031
5.31 154.498 67.549
5.32 153.249 --undefined--
5.33 151.567 --undefined--
5.34 --undefined-- --undefined--
5.35 --undefined-- --undefined--
