Time Pitch Intensity
0.01 --undefined-- --undefined--
0.02 149.949 --undefined--
0.03 148.774 --undefined--
0.04 152.496 --undefined--
0.05 154.095 60.288
0.06 153.957 62.963
0.07 137.769 64.913
0.08 133.882 66.253
0.09 118.770 67.306
0.10 119.126 67.952
0.11 118.926 68.123
0.12 116.141 68.288
0.13 114.071 68.328
0.14 114.626 67.549
0.15 116.006 65.821
0.16 111.196 62.913
0.17 108.788 58.875
0.18 109.083 56.180
0.19 --undefined-- 57.727
0.20 --undefined-- 64.476
0.21 154.178 70.196
0.22 149.355 73.681
0.23 147.081 75.347
0.24 143.147 75.585
0.25 141.635 75.144
0.26 142.919 74.346
0.27 143.787 73.003
0.28 141.795 71.386
0.29 140.099 69.662
0.30 139.420 67.676
0.31 138.760 66.002
0.32 137.563 65.368
0.33 136.713 65.731
0.34 133.745 66.642
0.35 132.518 67.736
0.36 131.270 68.693
0.37 130.193 69.306
0.38 129.785 69.530
0.39 129.787 69.466
0.40 129.845 69.240
0.41 129.459 69.015
0.42 127.897 69.096
0.43 128.015 69.164
0.44 128.029 68.225
0.45 120.062 65.702
0.46 111.448 61.753
0.47 111.116 56.543
0.48 --undefined-- 50.886
0.49 --undefined-- 49.229
0.50 --undefined-- 50.877
0.51 --undefined-- 57.235
0.52 --undefined-- 66.237
0.53 184.371 71.986
0.54 176.670 74.804
0.55 166.371 75.867
0.56 161.286 76.431
0.57 160.473 76.764
0.58 160.262 76.285
0.59 160.075 74.734
0.60 157.684 72.357
0.61 152.369 70.394
0.62 161.854 70.163
0.63 161.895 70.249
0.64 153.238 69.028
0.65 145.213 65.815
0.66 --undefined-- 60.054
0.67 --undefined-- 53.013
0.68 --undefined-- 56.247
0.69 --undefined-- 59.939
0.70 --undefined-- 60.554
0.71 --undefined-- 60.196
0.72 151.648 65.022
0.73 157.637 70.288
0.74 146.541 73.073
0.75 140.574 73.901
0.76 134.350 73.525
0.77 129.653 72.786
0.78 129.608 72.495
0.79 130.330 72.777
0.80 131.003 73.196
0.81 131.040 73.202
0.82 130.492 72.393
0.83 125.773 71.168
0.84 122.171 70.451
0.85 120.019 70.396
0.86 123.194 70.735
0.87 138.522 71.379
0.88 138.335 71.837
0.89 134.977 71.829
0.90 133.398 71.891
0.91 128.782 72.151
0.92 127.330 72.203
0.93 125.650 71.940
0.94 122.491 71.319
0.95 120.552 70.126
0.96 118.732 68.323
0.97 120.538 67.013
0.98 119.608 66.121
0.99 --undefined-- 63.724
1.00 --undefined-- 58.815
1.01 --undefined-- 51.519
1.02 --undefined-- 44.884
1.03 --undefined-- 41.938
1.04 --undefined-- 40.048
1.05 --undefined-- 38.216
1.06 --undefined-- 36.478
1.07 --undefined-- 35.125
1.08 --undefined-- 33.929
1.09 --undefined-- 32.581
1.10 --undefined-- 33.169
1.11 --undefined-- 34.010
1.12 --undefined-- 33.765
1.13 --undefined-- 33.856
1.14 --undefined-- 33.646
1.15 --undefined-- 34.528
1.16 --undefined-- 35.979
1.17 --undefined-- 35.837
1.18 --undefined-- 34.877
1.19 --undefined-- 33.161
1.20 --undefined-- 30.885
1.21 --undefined-- 31.680
1.22 --undefined-- 34.860
1.23 --undefined-- 36.318
1.24 --undefined-- 35.881
1.25 --undefined-- 34.204
1.26 --undefined-- 32.900
1.27 --undefined-- 33.341
1.28 --undefined-- 34.413
1.29 --undefined-- 34.902
1.30 --undefined-- 34.419
1.31 --undefined-- 34.245
1.32 --undefined-- 34.556
1.33 --undefined-- 35.271
1.34 --undefined-- 35.986
1.35 --undefined-- 35.610
1.36 --undefined-- 35.464
1.37 --undefined-- 35.742
1.38 --undefined-- 34.726
1.39 --undefined-- 33.140
1.40 --undefined-- 32.770
1.41 --undefined-- 32.921
1.42 --undefined-- 32.232
1.43 --undefined-- 31.880
1.44 --undefined-- 32.837
1.45 --undefined-- 34.651
1.46 --undefined-- 35.159
1.47 --undefined-- 34.105
1.48 --undefined-- 34.051
1.49 --undefined-- 36.034
1.50 --undefined-- 36.903
1.51 --undefined-- 35.447
1.52 --undefined-- 32.910
1.53 --undefined-- 31.762
1.54 --undefined-- 33.150
1.55 --undefined-- 35.036
1.56 --undefined-- 35.868
1.57 --undefined-- 35.866
1.58 --undefined-- 35.182
1.59 --undefined-- 34.528
1.60 --undefined-- 34.484
1.61 --undefined-- 33.867
1.62 --undefined-- 34.770
1.63 --undefined-- 36.949
1.64 --undefined-- 38.346
1.65 --undefined-- 38.174
1.66 --undefined-- 36.587
1.67 --undefined-- 35.505
1.68 --undefined-- 35.158
1.69 --undefined-- 33.876
1.70 --undefined-- 33.384
1.71 --undefined-- 33.485
1.72 --undefined-- 33.353
1.73 --undefined-- 34.407
1.74 --undefined-- 35.633
1.75 --undefined-- 35.903
1.76 --undefined-- 36.492
1.77 --undefined-- 37.137
1.78 --undefined-- 37.049
1.79 --undefined-- 37.335
1.80 --undefined-- 37.443
1.81 --undefined-- 36.426
1.82 --undefined-- 35.993
1.83 --undefined-- 35.689
1.84 --undefined-- 34.768
1.85 --undefined-- 35.136
1.86 --undefined-- 35.301
1.87 --undefined-- 34.163
1.88 --undefined-- 35.204
1.89 --undefined-- 37.803
1.90 --undefined-- 38.652
1.91 --undefined-- 37.431
1.92 --undefined-- 35.666
1.93 --undefined-- 34.802
1.94 --undefined-- 34.683
1.95 --undefined-- 36.110
1.96 --undefined-- 37.394
1.97 --undefined-- 36.857
1.98 --undefined-- 35.331
1.99 --undefined-- 36.506
2.00 --undefined-- 40.651
2.01 --undefined-- 43.085
2.02 --undefined-- 42.084
2.03 --undefined-- 37.862
2.04 --undefined-- 33.651
2.05 --undefined-- 33.264
2.06 --undefined-- 33.750
2.07 --undefined-- 36.076
2.08 --undefined-- 51.629
2.09 --undefined-- 64.629
2.10 --undefined-- 72.703
2.11 --undefined-- 77.216
2.12 199.020 79.452
2.13 202.164 80.594
2.14 205.016 81.187
2.15 206.243 81.320
2.16 206.424 81.153
2.17 211.886 80.499
2.18 217.626 78.763
2.19 216.040 75.288
2.20 184.963 69.481
2.21 194.527 61.702
2.22 --undefined-- 56.399
2.23 --undefined-- 62.178
2.24 292.037 70.894
2.25 259.521 77.022
2.26 242.854 80.500
2.27 231.893 81.678
2.28 229.096 81.317
2.29 229.529 80.645
2.30 228.381 80.378
2.31 225.452 80.273
2.32 223.496 79.691
2.33 223.841 78.570
2.34 222.985 77.248
2.35 217.667 75.436
2.36 205.958 72.539
2.37 197.217 68.652
2.38 209.968 64.365
2.39 235.543 59.944
2.40 --undefined-- 56.895
2.41 --undefined-- 54.565
2.42 --undefined-- 52.017
2.43 --undefined-- 53.708
2.44 --undefined-- 62.518
2.45 166.643 69.380
2.46 153.056 73.290
2.47 144.335 75.024
2.48 140.609 75.415
2.49 139.664 75.369
2.50 141.138 75.512
2.51 143.801 75.822
2.52 146.729 76.039
2.53 151.372 76.095
2.54 158.083 76.037
2.55 164.469 75.842
2.56 167.048 75.203
2.57 167.709 73.687
2.58 162.991 71.021
2.59 153.699 66.882
2.60 --undefined-- 60.840
2.61 --undefined-- 54.736
2.62 --undefined-- 53.944
2.63 --undefined-- 57.816
2.64 225.107 66.308
2.65 221.937 72.605
2.66 206.344 75.852
2.67 189.275 76.819
2.68 185.453 76.773
2.69 183.371 76.766
2.70 180.773 76.932
2.71 179.136 77.091
2.72 179.934 76.861
2.73 182.121 76.058
2.74 184.065 75.002
2.75 186.088 74.411
2.76 186.685 74.470
2.77 183.347 74.668
2.78 178.995 74.717
2.79 173.296 74.627
2.80 169.821 74.423
2.81 163.467 74.106
2.82 156.366 73.722
2.83 150.534 73.292
2.84 145.029 72.784
2.85 140.644 72.395
2.86 135.487 72.324
2.87 134.877 72.404
2.88 133.053 72.395
2.89 132.659 72.305
2.90 132.431 72.211
2.91 131.600 72.071
2.92 130.985 71.303
2.93 128.606 68.858
2.94 107.894 64.102
2.95 --undefined-- 57.576
2.96 --undefined-- 50.955
2.97 --undefined-- 46.210
2.98 --undefined-- 44.173
2.99 --undefined-- 52.517
3.00 --undefined-- 61.418
3.01 --undefined-- 66.711
3.02 130.590 69.129
3.03 127.755 69.805
3.04 125.506 70.008
3.05 123.980 70.334
3.06 123.158 70.595
3.07 122.359 70.564
3.08 119.651 69.867
3.09 116.321 67.773
3.10 --undefined-- 63.436
3.11 --undefined-- 56.618
3.12 --undefined-- 51.015
3.13 --undefined-- 53.420
3.14 --undefined-- 60.069
3.15 153.035 65.641
3.16 130.209 68.724
3.17 128.063 69.772
3.18 123.166 69.635
3.19 121.084 69.268
3.20 117.965 69.282
3.21 116.337 69.535
3.22 115.454 69.501
3.23 114.332 68.886
3.24 113.439 68.011
3.25 113.723 67.489
3.26 115.451 67.449
3.27 117.751 67.640
3.28 119.812 68.017
3.29 121.378 68.524
3.30 122.082 69.045
3.31 123.003 69.494
3.32 124.755 69.797
3.33 129.220 70.016
3.34 135.132 70.269
3.35 141.077 70.646
3.36 143.805 71.037
3.37 148.485 71.371
3.38 154.294 71.351
3.39 159.987 70.502
3.40 163.026 68.849
3.41 163.209 66.754
3.42 --undefined-- 64.561
3.43 --undefined-- 62.158
3.44 --undefined-- 58.707
3.45 --undefined-- 54.783
3.46 --undefined-- 54.493
3.47 --undefined-- 55.631
3.48 --undefined-- 55.889
3.49 134.426 55.880
3.50 123.046 55.076
3.51 --undefined-- 53.189
3.52 --undefined-- 50.375
3.53 --undefined-- 46.999
3.54 --undefined-- 49.053
3.55 --undefined-- 55.894
3.56 --undefined-- 61.271
3.57 179.053 64.695
3.58 176.213 67.166
3.59 179.970 69.656
3.60 185.363 72.300
3.61 191.104 74.897
3.62 192.811 77.139
3.63 191.300 78.724
3.64 189.775 79.560
3.65 188.515 79.809
3.66 187.313 79.738
3.67 187.151 79.618
3.68 188.183 79.579
3.69 188.990 79.560
3.70 189.771 79.452
3.71 190.989 79.107
3.72 192.321 78.325
3.73 191.652 76.744
3.74 184.775 73.914
3.75 173.101 69.523
3.76 173.177 63.367
3.77 --undefined-- 55.992
3.78 --undefined-- 52.251
3.79 --undefined-- 53.466
3.80 --undefined-- 54.236
3.81 --undefined-- 52.211
3.82 --undefined-- 47.665
3.83 --undefined-- 42.529
3.84 --undefined-- 39.248
3.85 --undefined-- 39.610
3.86 --undefined-- 38.953
3.87 --undefined-- 37.271
3.88 --undefined-- 38.012
3.89 --undefined-- 44.675
3.90 --undefined-- 55.721
3.91 --undefined-- 64.625
3.92 193.668 70.005
3.93 181.127 72.748
3.94 179.008 74.139
3.95 179.082 75.173
3.96 180.416 75.938
3.97 181.316 76.260
3.98 181.177 76.216
3.99 181.494 75.987
4.00 183.023 75.690
4.01 186.269 75.335
4.02 190.977 74.980
4.03 193.006 74.773
4.04 191.713 74.398
4.05 188.406 73.170
4.06 179.472 70.622
4.07 167.844 66.659
4.08 166.244 61.084
4.09 --undefined-- 53.778
4.10 --undefined-- 48.108
4.11 --undefined-- 46.963
4.12 --undefined-- 48.375
4.13 --undefined-- 55.296
4.14 --undefined-- 63.763
4.15 166.940 68.850
4.16 144.927 71.009
4.17 137.376 71.271
4.18 127.762 70.684
4.19 122.080 69.969
4.20 117.741 69.252
4.21 114.286 68.401
4.22 113.356 67.630
4.23 110.246 67.038
4.24 112.985 66.464
4.25 112.222 65.819
4.26 111.826 65.117
4.27 109.115 64.337
4.28 107.637 63.637
4.29 108.407 63.023
4.30 106.334 62.100
4.31 111.941 60.542
4.32 --undefined-- 57.719
4.33 --undefined-- 53.050
4.34 --undefined-- 47.998
4.35 --undefined-- 42.476
4.36 --undefined-- 38.022
4.37 --undefined-- 36.912
4.38 --undefined-- 36.165
4.39 --undefined-- 35.634
4.40 --undefined-- 34.754
4.41 --undefined-- 33.951
4.42 --undefined-- 34.448
4.43 --undefined-- 35.160
4.44 --undefined-- 36.344
4.45 --undefined-- 38.882
4.46 --undefined-- 39.676
4.47 --undefined-- 37.111
4.48 --undefined-- 34.628
4.49 --undefined-- 35.804
4.50 --undefined-- 36.638
4.51 --undefined-- 38.284
4.52 --undefined-- 40.740
4.53 --undefined-- 43.267
4.54 --undefined-- 45.795
4.55 --undefined-- 52.419
4.56 --undefined-- 62.959
4.57 222.803 70.494
4.58 216.874 74.994
4.59 214.900 77.161
4.60 214.494 77.910
4.61 215.817 77.954
4.62 216.859 77.599
4.63 214.884 76.913
4.64 213.483 76.105
4.65 205.090 75.594
4.66 204.155 75.663
4.67 200.925 75.680
4.68 196.725 75.332
4.69 191.091 74.748
4.70 183.177 73.913
4.71 173.689 72.958
4.72 160.028 72.657
4.73 150.860 73.783
4.74 147.638 75.084
4.75 142.156 75.052
4.76 135.500 73.487
4.77 121.579 71.570
4.78 117.376 70.409
4.79 114.723 69.326
4.80 112.162 68.053
4.81 109.865 66.817
4.82 110.160 65.956
4.83 113.225 65.601
4.84 114.618 65.530
4.85 118.004 65.466
4.86 115.659 65.302
4.87 120.830 65.295
4.88 119.165 65.774
4.89 125.576 66.551
4.90 129.806 67.133
4.91 137.813 68.122
4.92 152.155 70.120
4.93 155.733 71.855
4.94 162.271 72.526
4.95 167.014 72.651
4.96 170.555 72.760
4.97 172.358 73.045
4.98 174.340 73.503
4.99 175.842 74.154
5.00 176.841 74.767
5.01 176.639 74.923
5.02 173.873 74.501
5.03 171.098 73.036
5.04 164.707 69.576
5.05 142.617 63.578
5.06 --undefined-- 55.165
5.07 --undefined-- 47.550
5.08 --undefined-- 44.340
5.09 --undefined-- 46.041
5.10 --undefined-- 50.896
5.11 --undefined-- 59.374
5.12 --undefined-- 66.734
5.13 --undefined-- 70.765
5.14 --undefined-- 72.258
5.15 130.851 72.140
5.16 126.697 71.366
5.17 124.500 70.510
5.18 123.708 69.744
5.19 120.495 69.797
5.20 124.073 70.527
5.21 124.554 70.946
5.22 124.464 71.000
5.23 124.667 70.809
5.24 123.745 70.173
5.25 120.908 68.648
5.26 116.107 65.626
5.27 114.048 60.576
5.28 --undefined-- 54.805
5.29 --undefined-- 54.755
5.30 --undefined-- 56.738
5.31 --undefined-- 57.145
5.32 --undefined-- 56.664
5.33 --undefined-- 55.883
5.34 --undefined-- 55.438
5.35 --undefined-- 55.958
5.36 --undefined-- 56.190
5.37 --undefined-- 57.615
5.38 138.098 61.465
5.39 127.514 64.362
5.40 122.178 65.872
5.41 121.280 66.850
5.42 121.344 67.549
5.43 123.517 68.254
5.44 128.377 69.192
5.45 132.563 70.367
5.46 137.579 71.451
5.47 145.541 72.158
5.48 153.535 72.509
5.49 159.775 72.383
5.50 163.719 71.570
5.51 166.588 69.916
5.52 165.824 67.791
5.53 159.749 66.740
5.54 153.417 67.140
5.55 148.676 68.229
5.56 143.758 69.580
5.57 140.006 70.640
5.58 138.239 71.173
5.59 132.093 71.121
5.60 128.217 70.635
5.61 127.252 70.271
5.62 127.123 70.219
5.63 128.419 70.246
5.64 129.539 70.396
5.65 130.970 70.681
5.66 132.845 70.941
5.67 134.107 71.069
5.68 136.275 71.020
5.69 138.286 70.876
5.70 140.829 70.802
5.71 143.517 70.646
5.72 145.625 70.059
5.73 147.055 68.685
5.74 --undefined-- 66.120
5.75 --undefined-- 62.698
5.76 --undefined-- 59.389
5.77 --undefined-- 55.002
5.78 --undefined-- 47.801
5.79 --undefined-- 39.719
5.80 --undefined-- 38.790
5.81 --undefined-- 40.243
5.82 --undefined-- 39.354
5.83 --undefined-- 36.754
5.84 --undefined-- 35.659
5.85 --undefined-- 36.851
5.86 --undefined-- 37.594
5.87 --undefined-- 35.942
5.88 --undefined-- 33.470
5.89 --undefined-- 32.758
5.90 --undefined-- 33.416
5.91 --undefined-- 34.377
5.92 --undefined-- 36.776
5.93 --undefined-- 39.614
5.94 --undefined-- 40.083
5.95 --undefined-- 38.035
5.96 --undefined-- 35.810
5.97 --undefined-- 36.069
5.98 --undefined-- 36.562
5.99 --undefined-- 36.096
6.00 --undefined-- 36.060
6.01 --undefined-- 36.628
6.02 --undefined-- 36.822
6.03 --undefined-- 36.575
6.04 --undefined-- 35.110
6.05 --undefined-- 32.624
6.06 --undefined-- 31.099
6.07 --undefined-- 32.791
6.08 --undefined-- 34.672
6.09 --undefined-- 35.440
6.10 --undefined-- 36.204
6.11 --undefined-- 40.254
6.12 --undefined-- 45.402
6.13 --undefined-- 49.577
6.14 --undefined-- 58.518
6.15 --undefined-- 66.009
6.16 161.433 70.747
6.17 150.203 73.506
6.18 148.253 75.020
6.19 148.012 75.578
6.20 149.062 75.183
6.21 148.783 74.405
6.22 148.260 74.456
6.23 147.852 74.526
6.24 141.111 74.158
6.25 140.801 74.735
6.26 145.249 75.837
6.27 152.419 76.386
6.28 156.850 76.547
6.29 159.102 76.519
6.30 157.265 76.212
6.31 154.211 75.507
6.32 148.302 74.372
6.33 141.891 72.272
6.34 136.125 68.345
6.35 124.942 62.394
6.36 115.688 56.699
6.37 --undefined-- 53.153
6.38 --undefined-- 59.658
6.39 --undefined-- 67.695
6.40 --undefined-- 72.246
6.41 151.640 74.240
6.42 143.807 74.718
6.43 138.418 74.399
6.44 134.439 73.666
6.45 132.353 73.086
6.46 131.766 72.555
6.47 130.481 70.889
6.48 117.849 67.000
6.49 111.068 60.516
6.50 --undefined-- 52.595
6.51 --undefined-- 46.120
6.52 --undefined-- 43.949
6.53 --undefined-- 47.448
6.54 --undefined-- --undefined--
6.55 --undefined-- --undefined--
6.56 --undefined-- --undefined--
6.57 --undefined-- --undefined--
