Time Pitch Intensity
0.01 --undefined-- --undefined--
0.02 --undefined-- --undefined--
0.03 --undefined-- --undefined--
0.04 --undefined-- --undefined--
0.05 --undefined-- 41.908
0.06 --undefined-- 41.925
0.07 --undefined-- 40.823
0.08 --undefined-- 39.884
0.09 --undefined-- 39.681
0.10 --undefined-- 39.520
0.11 --undefined-- 40.854
0.12 --undefined-- 44.245
0.13 --undefined-- 45.876
0.14 --undefined-- 44.306
0.15 --undefined-- 40.420
0.16 --undefined-- 36.350
0.17 --undefined-- 37.157
0.18 --undefined-- 47.533
0.19 --undefined-- 55.340
0.20 --undefined-- 58.771
0.21 --undefined-- 58.886
0.22 --undefined-- 58.929
0.23 --undefined-- 62.038
0.24 197.552 67.686
0.25 192.170 71.889
0.26 187.307 74.026
0.27 181.730 74.717
0.28 178.039 74.376
0.29 173.444 73.461
0.30 170.792 72.898
0.31 170.618 72.598
0.32 168.855 72.017
0.33 168.685 71.404
0.34 169.550 70.916
0.35 170.493 70.565
0.36 175.473 70.595
0.37 170.021 70.887
0.38 166.536 71.000
0.39 162.284 70.839
0.40 159.616 70.583
0.41 158.504 70.300
0.42 157.283 70.022
0.43 155.107 69.748
0.44 152.098 69.221
0.45 142.779 68.362
0.46 137.582 67.011
0.47 132.484 64.895
0.48 126.676 62.478
0.49 129.919 60.376
0.50 --undefined-- 58.242
0.51 --undefined-- 55.739
0.52 --undefined-- 55.322
0.53 141.925 55.701
0.54 143.764 53.642
0.55 --undefined-- 48.687
0.56 --undefined-- 41.359
0.57 --undefined-- 37.786
0.58 --undefined-- 40.550
0.59 --undefined-- 45.017
0.60 --undefined-- 50.541
0.61 --undefined-- 57.891
0.62 200.628 66.155
0.63 199.005 71.552
0.64 188.903 73.987
0.65 178.377 74.540
0.66 169.663 74.177
0.67 160.930 73.069
0.68 154.072 71.462
0.69 154.115 70.052
0.70 156.314 68.776
0.71 156.098 66.747
0.72 --undefined-- 63.379
0.73 --undefined-- 59.064
0.74 --undefined-- 56.107
0.75 --undefined-- 53.094
0.76 --undefined-- 47.435
0.77 --undefined-- 42.716
0.78 --undefined-- 41.654
0.79 --undefined-- 40.567
0.80 --undefined-- 42.972
0.81 --undefined-- 53.451
0.82 --undefined-- 61.458
0.83 164.596 65.514
0.84 161.308 66.656
0.85 154.312 66.375
0.86 149.867 65.911
0.87 142.901 65.309
0.88 137.159 64.320
0.89 130.603 63.039
0.90 126.977 61.895
0.91 122.935 60.708
0.92 122.076 58.862
0.93 125.495 56.615
0.94 126.430 54.101
0.95 --undefined-- 51.183
0.96 --undefined-- 48.112
0.97 --undefined-- 43.923
0.98 --undefined-- 39.189
0.99 --undefined-- 35.460
1.00 --undefined-- 33.485
1.01 --undefined-- 34.374
1.02 --undefined-- 37.437
1.03 --undefined-- 44.144
1.04 --undefined-- 49.311
1.05 --undefined-- 52.696
1.06 --undefined-- 55.002
1.07 --undefined-- 56.532
1.08 --undefined-- 58.515
1.09 --undefined-- 61.026
1.10 --undefined-- 63.120
1.11 --undefined-- 64.372
1.12 --undefined-- 64.842
1.13 --undefined-- 67.036
1.14 206.929 69.886
1.15 206.307 71.108
1.16 205.036 71.306
1.17 202.630 71.452
1.18 200.365 71.598
1.19 198.432 71.582
1.20 197.118 71.266
1.21 196.114 70.684
1.22 195.634 70.352
1.23 196.290 70.515
1.24 195.296 70.766
1.25 193.604 70.663
1.26 191.027 70.139
1.27 190.751 69.846
1.28 192.393 69.962
1.29 195.205 70.170
1.30 197.362 70.485
1.31 198.502 70.969
1.32 199.981 71.491
1.33 204.530 71.594
1.34 199.298 70.669
1.35 191.887 68.509
1.36 182.457 65.319
1.37 --undefined-- 62.591
1.38 --undefined-- 61.837
1.39 --undefined-- 61.669
1.40 --undefined-- 61.856
1.41 --undefined-- 61.463
1.42 --undefined-- 60.930
1.43 --undefined-- 62.326
1.44 165.211 64.192
1.45 159.596 65.165
1.46 152.048 65.361
1.47 144.616 65.463
1.48 138.837 65.646
1.49 137.331 65.707
1.50 130.639 65.735
1.51 130.914 65.832
1.52 131.102 65.864
1.53 132.576 65.772
1.54 135.493 65.650
1.55 140.227 65.463
1.56 148.401 65.184
1.57 160.425 64.953
1.58 165.573 64.482
1.59 164.629 62.769
1.60 165.289 59.239
1.61 --undefined-- 53.865
1.62 --undefined-- 48.161
1.63 --undefined-- 48.188
1.64 --undefined-- 53.018
1.65 --undefined-- 57.085
1.66 --undefined-- 60.396
1.67 --undefined-- 66.008
1.68 198.229 70.967
1.69 190.901 73.417
1.70 180.820 74.061
1.71 168.814 74.130
1.72 166.162 74.146
1.73 165.083 73.754
1.74 166.167 72.791
1.75 168.701 71.302
1.76 --undefined-- 69.027
1.77 --undefined-- 65.879
1.78 --undefined-- 62.318
1.79 --undefined-- 57.566
1.80 --undefined-- 50.615
1.81 --undefined-- 44.227
1.82 --undefined-- 39.881
1.83 --undefined-- 36.386
1.84 --undefined-- 33.999
1.85 --undefined-- 31.620
1.86 --undefined-- 29.591
1.87 --undefined-- 29.042
1.88 --undefined-- 28.225
1.89 --undefined-- 27.380
1.90 --undefined-- 27.676
1.91 --undefined-- 28.511
1.92 --undefined-- 28.305
1.93 --undefined-- 25.877
1.94 --undefined-- 22.768
1.95 --undefined-- 23.172
1.96 --undefined-- 24.891
1.97 --undefined-- 25.748
1.98 --undefined-- 26.236
1.99 --undefined-- 25.914
2.00 --undefined-- 25.530
2.01 --undefined-- 25.278
2.02 --undefined-- 24.342
2.03 --undefined-- 23.813
2.04 --undefined-- 24.152
2.05 --undefined-- 24.213
2.06 --undefined-- 25.119
2.07 --undefined-- 25.805
2.08 --undefined-- 24.954
2.09 --undefined-- 24.514
2.10 --undefined-- 24.573
2.11 --undefined-- 23.434
2.12 --undefined-- 22.377
2.13 --undefined-- 22.768
2.14 --undefined-- 23.119
2.15 --undefined-- 22.675
2.16 --undefined-- 21.440
2.17 --undefined-- 21.694
2.18 --undefined-- 22.626
2.19 --undefined-- 22.972
2.20 --undefined-- 25.269
2.21 --undefined-- 29.087
2.22 --undefined-- 31.394
2.23 --undefined-- 32.006
2.24 --undefined-- 31.825
2.25 --undefined-- 31.693
2.26 --undefined-- 31.593
2.27 --undefined-- 31.150
2.28 --undefined-- 30.934
2.29 --undefined-- 30.191
2.30 --undefined-- 29.166
2.31 --undefined-- 28.824
2.32 --undefined-- 28.525
2.33 --undefined-- 28.739
2.34 --undefined-- 28.473
2.35 --undefined-- 26.871
2.36 --undefined-- 25.677
2.37 --undefined-- 25.921
2.38 --undefined-- 26.204
2.39 --undefined-- 26.373
2.40 --undefined-- 26.221
2.41 --undefined-- 25.945
2.42 --undefined-- 29.315
2.43 --undefined-- 34.209
2.44 --undefined-- 38.134
2.45 --undefined-- 40.384
2.46 --undefined-- 41.508
2.47 --undefined-- 43.464
2.48 --undefined-- 47.306
2.49 --undefined-- 54.544
2.50 --undefined-- 63.297
2.51 --undefined-- 68.904
2.52 --undefined-- 71.007
2.53 139.976 70.180
2.54 169.222 67.616
2.55 190.962 65.621
2.56 177.087 65.889
2.57 147.446 67.165
2.58 150.438 68.221
2.59 158.849 69.031
2.60 171.071 70.012
2.61 176.230 71.267
2.62 176.655 72.294
2.63 178.681 72.574
2.64 178.836 71.432
2.65 176.469 68.084
2.66 178.149 62.199
2.67 177.129 55.971
2.68 177.646 54.126
2.69 178.284 54.173
2.70 --undefined-- 56.343
2.71 --undefined-- 62.704
2.72 252.966 69.034
2.73 253.902 72.623
2.74 252.167 73.962
2.75 250.895 74.192
2.76 250.389 74.202
2.77 249.737 74.215
2.78 249.384 74.178
2.79 249.601 74.083
2.80 249.555 74.046
2.81 248.063 74.212
2.82 248.607 74.516
2.83 248.372 74.657
2.84 248.497 74.589
2.85 249.666 74.428
2.86 250.462 74.166
2.87 251.906 73.805
2.88 252.654 73.450
2.89 250.356 73.258
2.90 245.273 73.650
2.91 237.626 74.797
2.92 228.066 75.959
2.93 219.488 76.208
2.94 209.992 75.359
2.95 201.110 74.192
2.96 196.286 73.602
2.97 194.744 73.532
2.98 194.834 73.404
2.99 193.428 72.356
3.00 184.644 69.538
3.01 182.063 64.541
3.02 --undefined-- 57.490
3.03 190.190 51.794
3.04 187.821 53.860
3.05 --undefined-- 59.412
3.06 --undefined-- 62.883
3.07 --undefined-- 64.652
3.08 --undefined-- 66.188
3.09 --undefined-- 67.222
3.10 --undefined-- 67.279
3.11 --undefined-- 66.717
3.12 173.955 66.937
3.13 175.162 68.327
3.14 158.568 69.410
3.15 150.737 69.591
3.16 143.179 69.163
3.17 128.039 68.162
3.18 128.962 66.835
3.19 145.754 66.223
3.20 138.381 66.326
3.21 154.875 66.463
3.22 157.065 66.577
3.23 162.299 66.688
3.24 164.345 66.243
3.25 164.589 64.398
3.26 169.041 60.808
3.27 183.297 55.689
3.28 --undefined-- 49.807
3.29 --undefined-- 45.847
3.30 --undefined-- 46.857
3.31 --undefined-- 51.570
3.32 --undefined-- 59.005
3.33 --undefined-- 66.662
3.34 208.300 71.364
3.35 202.956 73.869
3.36 201.821 75.364
3.37 198.236 75.992
3.38 194.248 75.507
3.39 192.302 74.504
3.40 192.160 73.820
3.41 192.179 73.393
3.42 193.141 73.012
3.43 194.209 72.664
3.44 194.195 72.289
3.45 191.298 71.390
3.46 186.937 68.935
3.47 179.609 63.959
3.48 --undefined-- 56.173
3.49 --undefined-- 49.914
3.50 --undefined-- 49.470
3.51 --undefined-- 48.485
3.52 --undefined-- 48.643
3.53 --undefined-- 55.851
3.54 250.478 63.860
3.55 218.199 68.887
3.56 200.853 71.218
3.57 190.689 71.696
3.58 183.034 70.965
3.59 181.023 69.465
3.60 178.054 68.100
3.61 174.457 67.892
3.62 187.130 68.556
3.63 179.186 69.326
3.64 172.226 69.837
3.65 164.645 70.149
3.66 156.467 70.233
3.67 151.017 70.197
3.68 152.203 70.260
3.69 160.999 70.100
3.70 164.153 68.924
3.71 164.606 65.936
3.72 161.636 60.748
3.73 --undefined-- 53.958
3.74 --undefined-- 49.325
3.75 --undefined-- 47.764
3.76 --undefined-- 45.625
3.77 --undefined-- 46.836
3.78 --undefined-- 53.076
3.79 --undefined-- 57.116
3.80 --undefined-- 59.104
3.81 --undefined-- 60.865
3.82 --undefined-- 62.907
3.83 --undefined-- 64.315
3.84 --undefined-- 64.188
3.85 --undefined-- 66.559
3.86 150.909 71.922
3.87 150.476 74.704
3.88 148.937 74.983
3.89 147.809 74.105
3.90 147.185 73.217
3.91 146.340 72.527
3.92 146.257 72.037
3.93 146.482 71.482
3.94 145.148 70.748
3.95 149.730 70.348
3.96 154.291 70.244
3.97 157.938 70.410
3.98 160.091 70.742
3.99 162.138 70.699
4.00 164.089 70.286
4.01 163.990 69.956
4.02 163.052 69.724
4.03 161.670 69.445
4.04 159.038 69.185
4.05 154.241 69.152
4.06 297.679 69.503
4.07 287.691 69.644
4.08 276.294 68.770
4.09 265.782 66.332
4.10 261.755 61.907
4.11 273.375 57.339
4.12 280.503 62.592
4.13 289.501 68.617
4.14 288.940 72.322
4.15 286.502 74.499
4.16 280.808 76.258
4.17 276.489 77.471
4.18 274.096 77.558
4.19 272.486 76.809
4.20 273.414 76.207
4.21 275.222 76.125
4.22 276.048 76.513
4.23 275.467 77.116
4.24 272.929 77.097
4.25 256.422 76.060
4.26 --undefined-- 74.133
4.27 --undefined-- 71.213
4.28 --undefined-- 67.867
4.29 117.693 64.258
4.30 117.201 60.445
4.31 --undefined-- 56.354
4.32 --undefined-- 51.939
4.33 --undefined-- 49.418
4.34 --undefined-- 48.767
4.35 --undefined-- 47.717
4.36 --undefined-- 46.140
4.37 --undefined-- 45.556
4.38 --undefined-- 46.762
4.39 --undefined-- 47.989
4.40 --undefined-- 49.274
4.41 --undefined-- 51.313
4.42 --undefined-- 51.736
4.43 --undefined-- 50.215
4.44 --undefined-- 47.746
4.45 --undefined-- 44.355
4.46 --undefined-- 40.368
4.47 --undefined-- 36.529
4.48 --undefined-- 32.065
4.49 --undefined-- 31.091
4.50 --undefined-- 33.847
4.51 --undefined-- 36.774
4.52 --undefined-- 39.924
4.53 --undefined-- 42.342
4.54 --undefined-- 42.582
4.55 --undefined-- 41.253
4.56 --undefined-- 40.475
4.57 --undefined-- 40.022
4.58 --undefined-- 39.389
4.59 --undefined-- 38.683
4.60 --undefined-- 38.429
4.61 --undefined-- 38.288
4.62 --undefined-- 37.124
4.63 --undefined-- 35.650
4.64 --undefined-- 35.049
4.65 --undefined-- 34.363
4.66 --undefined-- 33.301
4.67 --undefined-- 32.373
4.68 --undefined-- 32.687
4.69 --undefined-- 33.995
4.70 --undefined-- 34.332
4.71 --undefined-- 33.305
4.72 --undefined-- 38.927
4.73 --undefined-- 48.278
4.74 --undefined-- 53.793
4.75 --undefined-- 56.285
4.76 --undefined-- 57.695
4.77 --undefined-- 59.403
4.78 --undefined-- 60.598
4.79 --undefined-- 61.129
4.80 --undefined-- 61.654
4.81 --undefined-- 61.759
4.82 --undefined-- 62.732
4.83 253.523 67.849
4.84 240.865 71.784
4.85 234.873 73.361
4.86 230.806 73.425
4.87 227.433 72.966
4.88 224.603 72.459
4.89 222.057 72.111
4.90 220.446 72.108
4.91 219.495 72.271
4.92 219.118 72.456
4.93 219.125 72.803
4.94 219.449 73.274
4.95 220.401 73.505
4.96 221.862 73.097
4.97 217.604 72.315
4.98 216.396 71.986
4.99 216.544 72.009
5.00 217.178 71.968
5.01 218.365 71.829
5.02 218.789 71.668
5.03 218.719 71.612
5.04 218.838 71.675
5.05 219.114 71.682
5.06 219.390 71.542
5.07 219.643 71.339
5.08 219.283 71.142
5.09 218.256 70.982
5.10 216.680 70.874
5.11 213.883 70.818
5.12 209.608 70.751
5.13 204.048 70.564
5.14 196.149 70.119
5.15 185.992 69.356
5.16 174.184 68.332
5.17 163.421 67.359
5.18 154.810 66.891
5.19 149.253 67.161
5.20 147.551 67.721
5.21 144.789 67.526
5.22 143.185 66.459
5.23 143.483 65.141
5.24 150.550 64.120
5.25 153.841 63.641
5.26 152.387 64.027
5.27 148.857 65.133
5.28 145.515 66.382
5.29 146.072 67.499
5.30 149.519 68.340
5.31 153.428 68.977
5.32 157.230 69.609
5.33 161.466 70.487
5.34 165.691 71.319
5.35 169.739 71.655
5.36 169.129 71.500
5.37 188.165 71.000
5.38 188.075 69.782
5.39 184.986 67.584
5.40 165.601 64.654
5.41 --undefined-- 61.000
5.42 --undefined-- 56.506
5.43 --undefined-- 51.630
5.44 --undefined-- 47.635
5.45 --undefined-- 43.696
5.46 --undefined-- 40.230
5.47 --undefined-- 37.492
5.48 --undefined-- 34.895
5.49 --undefined-- 33.306
5.50 --undefined-- 32.078
5.51 --undefined-- 32.214
5.52 --undefined-- 36.076
5.53 --undefined-- 39.620
5.54 --undefined-- 41.502
5.55 --undefined-- 42.273
5.56 --undefined-- 42.291
5.57 --undefined-- 41.902
5.58 --undefined-- 41.536
5.59 --undefined-- 41.318
5.60 --undefined-- 41.383
5.61 --undefined-- 41.973
5.62 --undefined-- 42.549
5.63 --undefined-- 42.572
5.64 --undefined-- 42.308
5.65 --undefined-- 41.425
5.66 --undefined-- 39.796
5.67 --undefined-- 38.201
5.68 --undefined-- 36.972
5.69 --undefined-- 35.799
5.70 --undefined-- 34.697
5.71 --undefined-- 34.911
5.72 --undefined-- 36.318
5.73 --undefined-- 37.745
5.74 --undefined-- 45.527
5.75 --undefined-- 52.373
5.76 --undefined-- 55.685
5.77 --undefined-- 56.925
5.78 --undefined-- 57.901
5.79 --undefined-- 60.341
5.80 --undefined-- 67.405
5.81 160.277 72.940
5.82 161.291 75.145
5.83 163.111 74.964
5.84 164.551 73.995
5.85 165.018 73.273
5.86 164.599 72.876
5.87 162.657 72.449
5.88 156.907 72.023
5.89 155.433 72.187
5.90 155.228 72.688
5.91 155.423 73.099
5.92 155.072 73.234
5.93 154.553 73.130
5.94 154.226 72.931
5.95 152.914 72.589
5.96 299.803 72.272
5.97 292.566 72.058
5.98 279.140 72.083
5.99 265.394 72.894
6.00 252.641 73.993
6.01 240.391 74.790
6.02 227.639 75.286
6.03 219.912 75.520
6.04 216.093 75.674
6.05 215.249 75.850
6.06 215.984 75.753
6.07 220.807 75.228
6.08 223.730 74.522
6.09 225.246 74.025
6.10 225.927 73.495
6.11 224.212 71.795
6.12 213.756 67.897
6.13 196.107 61.474
6.14 --undefined-- 53.227
6.15 --undefined-- 47.977
6.16 --undefined-- 49.453
6.17 --undefined-- 60.397
6.18 --undefined-- 68.778
6.19 238.950 73.253
6.20 227.923 75.064
6.21 219.771 75.557
6.22 213.976 75.676
6.23 211.256 75.745
6.24 210.611 75.759
6.25 210.636 75.473
6.26 210.553 75.025
6.27 211.053 74.737
6.28 210.792 74.708
6.29 209.661 74.858
6.30 208.955 74.815
6.31 210.281 74.507
6.32 210.595 74.438
6.33 209.879 74.382
6.34 209.655 73.318
6.35 199.442 70.654
6.36 190.094 67.068
6.37 190.859 63.003
6.38 196.858 57.656
6.39 --undefined-- --undefined--
6.40 --undefined-- --undefined--
6.41 --undefined-- --undefined--
6.42 --undefined-- --undefined--
