Time Pitch Intensity
0.01 --undefined-- --undefined--
0.02 --undefined-- --undefined--
0.03 --undefined-- --undefined--
0.04 --undefined-- --undefined--
0.05 --undefined-- 65.347
0.06 260.514 72.326
0.07 257.821 77.264
0.08 253.357 79.418
0.09 251.739 79.772
0.10 249.604 79.126
0.11 243.426 77.446
0.12 231.486 74.490
0.13 220.802 70.796
0.14 216.491 67.755
0.15 106.522 65.239
0.16 105.125 62.402
0.17 105.899 59.477
0.18 107.488 61.538
0.19 232.870 68.044
0.20 240.983 72.708
0.21 240.282 75.017
0.22 235.014 75.988
0.23 227.141 76.571
0.24 217.156 77.144
0.25 206.306 77.433
0.26 195.652 76.946
0.27 180.876 75.458
0.28 164.260 73.326
0.29 152.532 71.130
0.30 141.864 69.918
0.31 143.678 73.068
0.32 143.011 76.769
0.33 137.129 78.171
0.34 118.046 77.605
0.35 107.087 75.877
0.36 100.064 74.053
0.37 96.707 72.594
0.38 98.808 71.441
0.39 96.961 70.702
0.40 96.796 69.600
0.41 96.563 68.160
0.42 97.019 68.219
0.43 99.097 69.405
0.44 98.265 70.121
0.45 98.806 70.291
0.46 99.435 70.318
0.47 101.670 70.444
0.48 105.861 70.726
0.49 111.704 71.111
0.50 119.410 71.682
0.51 131.773 72.806
0.52 135.593 74.247
0.53 141.432 75.364
0.54 147.306 76.124
0.55 152.435 76.677
0.56 157.109 77.067
0.57 161.761 77.373
0.58 165.000 77.628
0.59 166.004 77.825
0.60 165.171 77.732
0.61 158.871 76.690
0.62 149.758 74.408
0.63 151.996 71.412
0.64 141.710 68.107
0.65 143.797 64.314
0.66 148.685 59.402
0.67 --undefined-- 51.927
0.68 --undefined-- 53.860
0.69 --undefined-- 65.978
0.70 --undefined-- 73.367
0.71 146.171 77.159
0.72 138.962 78.532
0.73 129.090 78.547
0.74 122.246 78.225
0.75 118.283 78.109
0.76 114.746 77.786
0.77 111.664 76.875
0.78 110.921 75.224
0.79 109.400 73.302
0.80 110.631 72.506
0.81 110.094 72.648
0.82 108.343 72.756
0.83 106.296 72.740
0.84 103.940 72.612
0.85 102.087 72.328
0.86 100.081 71.925
0.87 98.584 71.423
0.88 97.204 70.865
0.89 96.506 70.427
0.90 96.717 70.290
0.91 96.858 70.368
0.92 96.927 70.447
0.93 97.399 70.508
0.94 98.094 70.622
0.95 98.814 70.786
0.96 98.926 70.960
0.97 98.572 71.117
0.98 98.230 71.246
0.99 98.151 71.408
1.00 99.478 71.848
1.01 103.586 72.449
1.02 104.345 72.855
1.03 105.761 73.294
1.04 106.771 73.829
1.05 107.212 74.215
1.06 108.182 74.522
1.07 108.787 74.779
1.08 109.693 74.911
1.09 109.737 74.934
1.10 109.020 74.948
1.11 108.942 75.033
1.12 108.066 75.121
1.13 107.088 74.949
1.14 100.117 74.093
1.15 88.921 72.578
1.16 98.096 71.100
1.17 96.981 69.141
1.18 82.160 65.225
1.19 --undefined-- 60.372
1.20 --undefined-- 58.223
1.21 --undefined-- 56.722
1.22 --undefined-- 54.882
1.23 --undefined-- 53.813
1.24 --undefined-- 53.374
1.25 --undefined-- 53.499
1.26 --undefined-- 54.892
1.27 --undefined-- 60.583
1.28 --undefined-- 66.034
1.29 101.237 68.910
1.30 101.252 69.834
1.31 99.293 69.850
1.32 96.430 69.628
1.33 94.154 69.224
1.34 94.321 68.854
1.35 95.777 68.960
1.36 98.391 69.561
1.37 102.844 70.596
1.38 109.319 71.985
1.39 116.188 73.566
1.40 123.659 75.247
1.41 130.619 76.715
1.42 136.854 77.601
1.43 143.858 77.898
1.44 148.318 77.349
1.45 149.146 75.208
1.46 149.313 71.224
1.47 151.481 66.001
1.48 150.815 59.581
1.49 --undefined-- 55.083
1.50 --undefined-- 63.807
1.51 --undefined-- 71.751
1.52 --undefined-- 76.063
1.53 169.214 77.274
1.54 161.261 76.182
1.55 154.742 73.274
1.56 --undefined-- 68.316
1.57 --undefined-- 60.804
1.58 --undefined-- 51.203
1.59 --undefined-- 42.198
1.60 --undefined-- 37.551
1.61 --undefined-- 38.871
1.62 --undefined-- 43.281
1.63 --undefined-- 48.674
1.64 --undefined-- 52.361
1.65 --undefined-- 54.001
1.66 --undefined-- 55.912
1.67 133.010 58.318
1.68 118.139 59.657
1.69 116.415 60.262
1.70 112.687 60.923
1.71 112.587 62.501
1.72 112.916 64.836
1.73 111.764 67.029
1.74 111.021 68.842
1.75 110.730 70.445
1.76 109.986 71.859
1.77 109.265 73.011
1.78 108.623 73.819
1.79 108.444 74.359
1.80 108.556 74.750
1.81 108.814 75.021
1.82 108.763 74.824
1.83 108.075 73.246
1.84 99.516 69.757
1.85 104.111 65.291
1.86 106.643 61.400
1.87 111.698 57.059
1.88 --undefined-- 51.369
1.89 --undefined-- 44.400
1.90 --undefined-- 38.163
1.91 --undefined-- 34.756
1.92 --undefined-- 33.580
1.93 --undefined-- 40.864
1.94 --undefined-- 51.966
1.95 --undefined-- 59.104
1.96 --undefined-- 63.658
1.97 --undefined-- 66.173
1.98 --undefined-- 66.424
1.99 90.461 65.271
2.00 91.398 64.666
2.01 95.811 65.518
2.02 100.062 67.168
2.03 101.377 68.808
2.04 100.106 70.214
2.05 98.304 71.303
2.06 98.614 71.953
2.07 102.051 72.402
2.08 104.963 72.730
2.09 106.521 72.805
2.10 112.065 73.124
2.11 120.951 74.066
2.12 127.541 74.919
2.13 132.990 75.605
2.14 136.845 76.376
2.15 139.543 77.097
2.16 142.194 77.608
2.17 144.255 77.919
2.18 145.747 78.011
2.19 146.343 77.765
2.20 144.612 77.248
2.21 145.007 77.514
2.22 145.014 79.067
2.23 145.120 80.365
2.24 141.880 80.558
2.25 131.932 79.740
2.26 128.211 78.063
2.27 108.129 76.152
2.28 102.418 74.795
2.29 97.500 73.689
2.30 91.652 72.213
2.31 92.308 70.372
2.32 92.645 68.015
2.33 85.242 64.954
2.34 91.819 63.650
2.35 90.597 64.196
2.36 94.623 64.826
2.37 92.899 65.991
2.38 93.817 67.275
2.39 93.968 68.303
2.40 94.599 69.339
2.41 97.275 70.790
2.42 99.943 72.554
2.43 103.553 74.316
2.44 105.623 75.634
2.45 104.605 76.383
2.46 103.753 76.984
2.47 103.090 77.378
2.48 101.172 77.221
2.49 98.563 76.891
2.50 97.294 76.835
2.51 96.833 76.682
2.52 96.765 76.102
2.53 96.319 75.098
2.54 95.505 73.818
2.55 95.468 72.028
2.56 --undefined-- 69.003
2.57 --undefined-- 64.257
2.58 --undefined-- 57.377
2.59 --undefined-- 49.567
2.60 --undefined-- 46.552
2.61 --undefined-- 47.349
2.62 --undefined-- 48.709
2.63 --undefined-- 49.954
2.64 --undefined-- 51.488
2.65 --undefined-- 52.740
2.66 --undefined-- 53.095
2.67 --undefined-- 52.937
2.68 --undefined-- 53.227
2.69 --undefined-- 53.465
2.70 --undefined-- 53.283
2.71 --undefined-- 52.889
2.72 --undefined-- 52.593
2.73 --undefined-- 52.405
2.74 --undefined-- 52.727
2.75 --undefined-- 53.413
2.76 --undefined-- 53.387
2.77 --undefined-- 52.426
2.78 --undefined-- 50.749
2.79 --undefined-- 48.421
2.80 --undefined-- 44.971
2.81 --undefined-- 41.208
2.82 --undefined-- 40.865
2.83 --undefined-- 46.978
2.84 --undefined-- 58.888
2.85 181.983 66.966
2.86 180.175 71.579
2.87 183.491 73.991
2.88 189.516 75.362
2.89 194.800 76.258
2.90 200.256 76.830
2.91 206.741 77.224
2.92 212.779 77.481
2.93 216.381 77.591
2.94 212.848 77.320
2.95 202.859 76.340
2.96 190.962 74.566
2.97 179.403 72.179
2.98 178.982 69.139
2.99 177.467 64.571
3.00 --undefined-- 58.095
3.01 --undefined-- 52.412
3.02 --undefined-- 50.403
3.03 --undefined-- 50.804
3.04 --undefined-- 52.337
3.05 --undefined-- 58.236
3.06 --undefined-- 66.523
3.07 --undefined-- 72.092
3.08 --undefined-- 74.646
3.09 --undefined-- 74.584
3.10 --undefined-- 72.455
3.11 --undefined-- 69.328
3.12 79.589 66.581
3.13 84.980 65.137
3.14 88.342 64.805
3.15 89.332 65.216
3.16 96.229 66.978
3.17 110.529 69.674
3.18 124.761 72.246
3.19 129.812 74.153
3.20 137.876 75.638
3.21 148.999 77.125
3.22 152.050 78.264
3.23 159.891 78.855
3.24 167.790 79.114
3.25 175.410 79.192
3.26 181.309 79.088
3.27 183.219 78.878
3.28 192.277 78.838
3.29 195.580 78.924
3.30 196.443 79.071
3.31 194.837 79.161
3.32 190.462 78.940
3.33 184.214 78.176
3.34 175.023 76.493
3.35 158.060 73.898
3.36 151.021 71.183
3.37 138.941 68.536
3.38 132.841 66.628
3.39 123.764 66.745
3.40 119.480 68.381
3.41 115.187 70.160
3.42 110.915 72.008
3.43 107.351 73.468
3.44 103.994 74.091
3.45 101.909 73.957
3.46 101.552 73.662
3.47 101.669 73.575
3.48 102.163 73.676
3.49 103.947 73.954
3.50 106.868 74.236
3.51 108.685 74.172
3.52 108.064 74.128
3.53 121.915 75.190
3.54 128.055 76.490
3.55 134.082 77.203
3.56 140.363 77.471
3.57 146.674 77.630
3.58 150.214 77.878
3.59 154.316 78.253
3.60 159.013 78.762
3.61 162.653 79.291
3.62 164.776 79.666
3.63 167.962 79.751
3.64 169.137 79.414
3.65 168.155 78.438
3.66 167.727 76.900
3.67 165.322 75.004
3.68 155.733 72.357
3.69 147.305 69.305
3.70 143.598 67.164
3.71 158.253 65.247
3.72 155.087 64.347
3.73 153.499 67.577
3.74 150.848 71.748
3.75 148.117 74.670
3.76 143.815 76.197
3.77 140.246 76.801
3.78 134.839 76.973
3.79 131.968 77.031
3.80 129.092 77.024
3.81 125.987 76.918
3.82 126.433 77.014
3.83 128.056 77.377
3.84 128.727 77.708
3.85 128.722 77.957
3.86 127.857 78.154
3.87 127.365 78.275
3.88 126.806 78.147
3.89 122.838 77.591
3.90 123.873 77.230
3.91 128.037 77.398
3.92 129.367 77.707
3.93 129.232 78.028
3.94 129.318 78.277
3.95 129.103 78.303
3.96 129.047 78.083
3.97 129.352 77.783
3.98 129.982 77.645
3.99 133.420 77.879
4.00 138.407 78.180
4.01 136.378 78.068
4.02 135.208 77.660
4.03 134.927 77.021
4.04 133.867 75.969
4.05 131.925 74.684
4.06 132.092 73.798
4.07 133.584 73.632
4.08 132.829 73.715
4.09 132.474 73.743
4.10 132.200 73.762
4.11 131.778 73.789
4.12 131.305 73.767
4.13 130.933 73.696
4.14 130.819 73.548
4.15 130.044 73.292
4.16 129.469 72.980
4.17 128.495 72.524
4.18 127.199 71.897
4.19 125.828 71.265
4.20 125.383 71.006
4.21 124.382 71.627
4.22 123.615 72.828
4.23 124.257 73.873
4.24 125.035 74.459
4.25 125.548 74.726
4.26 126.680 74.906
4.27 129.192 75.143
4.28 131.999 75.418
4.29 134.485 75.619
4.30 137.610 75.573
4.31 141.813 75.385
4.32 147.430 75.497
4.33 155.562 76.097
4.34 162.328 76.826
4.35 172.228 77.462
4.36 179.944 78.056
4.37 186.854 78.531
4.38 193.269 78.787
4.39 198.028 78.772
4.40 200.972 78.385
4.41 199.674 77.668
4.42 203.283 77.440
4.43 204.317 77.783
4.44 200.011 77.801
4.45 194.495 77.595
4.46 187.974 77.464
4.47 179.508 77.154
4.48 165.419 76.556
4.49 154.582 76.605
4.50 153.592 76.913
4.51 122.902 76.197
4.52 115.998 74.854
4.53 109.427 73.583
4.54 104.903 72.206
4.55 102.473 70.864
4.56 102.987 70.143
4.57 102.221 70.082
4.58 102.582 70.088
4.59 104.841 70.306
4.60 109.439 71.063
4.61 114.573 72.176
4.62 119.205 73.052
4.63 128.081 73.551
4.64 139.859 74.304
4.65 147.402 75.294
4.66 153.428 76.023
4.67 158.723 76.529
4.68 163.976 77.183
4.69 167.265 77.877
4.70 170.800 78.412
4.71 173.857 78.910
4.72 176.664 79.394
4.73 175.804 79.005
4.74 170.821 76.756
4.75 169.745 72.865
4.76 168.074 69.237
4.77 166.217 65.958
4.78 167.750 61.310
4.79 --undefined-- 55.497
4.80 --undefined-- 53.456
4.81 --undefined-- 54.087
4.82 --undefined-- 60.164
4.83 --undefined-- 69.678
4.84 168.863 75.634
4.85 151.837 78.745
4.86 146.059 80.016
4.87 142.766 80.468
4.88 140.055 80.540
4.89 138.554 80.359
4.90 137.122 79.951
4.91 135.243 79.143
4.92 132.783 77.536
4.93 128.363 74.473
4.94 125.933 69.770
4.95 132.238 64.402
4.96 132.497 60.459
4.97 --undefined-- 60.231
4.98 --undefined-- 61.967
4.99 --undefined-- 66.327
5.00 --undefined-- 73.017
5.01 --undefined-- 77.173
5.02 128.256 78.674
5.03 123.037 78.713
5.04 119.702 78.248
5.05 116.244 77.555
5.06 113.674 77.098
5.07 113.555 77.279
5.08 112.916 77.591
5.09 112.777 77.837
5.10 112.711 77.954
5.11 112.629 77.668
5.12 112.811 --undefined--
5.13 112.797 --undefined--
5.14 --undefined-- --undefined--
5.15 --undefined-- --undefined--
