Time Pitch Intensity
0.01 --undefined-- --undefined--
0.02 133.880 --undefined--
0.03 136.709 --undefined--
0.04 136.313 --undefined--
0.05 132.676 67.215
0.06 --undefined-- 62.112
0.07 --undefined-- 58.762
0.08 --undefined-- 56.999
0.09 --undefined-- 55.268
0.10 --undefined-- 55.829
0.11 --undefined-- 57.226
0.12 --undefined-- 57.473
0.13 --undefined-- 57.335
0.14 --undefined-- 59.172
0.15 --undefined-- 62.315
0.16 178.699 65.664
0.17 181.713 69.514
0.18 202.268 72.965
0.19 208.556 75.141
0.20 206.630 76.074
0.21 205.538 76.321
0.22 206.950 76.605
0.23 208.611 77.143
0.24 209.519 77.443
0.25 207.650 76.903
0.26 201.559 75.878
0.27 201.847 75.491
0.28 202.341 75.811
0.29 202.644 76.268
0.30 197.533 76.269
0.31 188.125 75.695
0.32 177.567 75.311
0.33 170.455 75.634
0.34 161.892 76.082
0.35 152.797 76.428
0.36 148.942 76.696
0.37 144.283 76.671
0.38 141.189 76.366
0.39 137.894 76.064
0.40 134.958 75.851
0.41 131.753 75.623
0.42 128.471 75.115
0.43 126.106 74.153
0.44 124.275 72.993
0.45 124.391 72.288
0.46 123.467 72.394
0.47 122.686 72.988
0.48 126.037 73.842
0.49 129.588 75.280
0.50 125.683 76.668
0.51 123.135 77.192
0.52 122.833 77.059
0.53 124.057 76.907
0.54 126.218 76.962
0.55 128.635 77.100
0.56 130.857 77.070
0.57 130.749 76.645
0.58 130.304 75.982
0.59 134.029 75.542
0.60 136.557 75.534
0.61 136.672 76.052
0.62 133.364 76.761
0.63 131.345 77.173
0.64 130.595 77.212
0.65 129.466 77.093
0.66 129.168 77.070
0.67 129.173 77.189
0.68 128.473 77.224
0.69 126.579 76.652
0.70 119.356 74.967
0.71 115.918 72.699
0.72 116.395 70.862
0.73 114.406 69.412
0.74 114.822 68.973
0.75 124.320 70.557
0.76 136.679 73.742
0.77 125.692 76.509
0.78 121.085 77.888
0.79 117.455 78.059
0.80 118.729 77.563
0.81 120.971 76.753
0.82 121.827 75.774
0.83 122.571 74.771
0.84 122.688 73.578
0.85 115.820 71.651
0.86 110.636 68.410
0.87 97.749 63.533
0.88 100.323 57.415
0.89 --undefined-- 50.594
0.90 --undefined-- 45.444
0.91 --undefined-- 43.916
0.92 --undefined-- 43.480
0.93 --undefined-- 43.901
0.94 --undefined-- 45.106
0.95 --undefined-- 46.109
0.96 --undefined-- 46.188
0.97 --undefined-- 46.527
0.98 --undefined-- 47.220
0.99 --undefined-- 47.062
1.00 --undefined-- 46.380
1.01 --undefined-- 46.032
1.02 --undefined-- 47.503
1.03 --undefined-- 49.229
1.04 --undefined-- 48.896
1.05 --undefined-- 49.686
1.06 --undefined-- 54.648
1.07 --undefined-- 59.480
1.08 --undefined-- 65.717
1.09 --undefined-- 70.812
1.10 134.183 73.330
1.11 133.551 74.277
1.12 126.200 74.950
1.13 119.938 75.571
1.14 118.964 76.006
1.15 120.978 76.281
1.16 121.614 76.133
1.17 122.181 75.299
1.18 122.180 73.586
1.19 124.026 71.209
1.20 129.220 68.792
1.21 134.419 66.169
1.22 --undefined-- 63.663
1.23 --undefined-- 64.726
1.24 --undefined-- 71.612
1.25 --undefined-- 76.443
1.26 177.423 78.660
1.27 171.995 79.150
1.28 169.063 78.754
1.29 169.218 78.283
1.30 169.064 77.808
1.31 168.657 77.053
1.32 167.744 76.064
1.33 166.704 74.534
1.34 164.053 72.093
1.35 155.253 69.245
1.36 147.357 66.655
1.37 --undefined-- 63.377
1.38 --undefined-- 57.620
1.39 --undefined-- 49.153
1.40 --undefined-- 53.481
1.41 --undefined-- 64.858
1.42 --undefined-- 71.882
1.43 --undefined-- 75.317
1.44 157.417 76.284
1.45 147.867 76.232
1.46 139.523 76.235
1.47 136.873 76.313
1.48 136.511 76.275
1.49 137.167 76.091
1.50 136.830 75.659
1.51 135.318 75.014
1.52 132.050 74.389
1.53 126.533 73.841
1.54 116.482 72.478
1.55 112.129 69.587
1.56 105.389 65.298
1.57 100.129 59.766
1.58 --undefined-- 54.316
1.59 --undefined-- 54.491
1.60 --undefined-- 63.779
1.61 197.465 71.430
1.62 179.974 76.012
1.63 175.583 78.564
1.64 177.023 79.703
1.65 181.790 79.471
1.66 187.973 78.038
1.67 195.580 76.244
1.68 197.731 74.746
1.69 194.596 72.468
1.70 168.107 68.436
1.71 168.725 63.765
1.72 199.986 60.183
1.73 219.447 58.260
1.74 --undefined-- 64.507
1.75 212.924 71.228
1.76 186.367 74.869
1.77 171.490 76.271
1.78 158.900 76.803
1.79 150.390 77.059
1.80 146.120 76.670
1.81 146.478 75.892
1.82 151.362 75.240
1.83 155.823 74.536
1.84 160.159 73.839
1.85 163.967 73.459
1.86 169.008 73.195
1.87 173.949 72.796
1.88 178.212 72.407
1.89 180.122 72.320
1.90 180.975 72.658
1.91 181.582 72.978
1.92 180.772 73.025
1.93 179.991 72.989
1.94 173.697 72.639
1.95 167.437 71.974
1.96 164.484 71.987
1.97 170.429 73.878
1.98 165.300 76.145
1.99 158.768 77.445
2.00 154.504 77.837
2.01 153.285 77.698
2.02 154.837 77.444
2.03 153.516 77.135
2.04 153.443 76.790
2.05 152.575 76.490
2.06 150.485 76.106
2.07 147.993 75.423
2.08 144.997 74.022
2.09 134.878 71.310
2.10 126.124 67.261
2.11 127.930 63.338
2.12 130.096 61.764
2.13 --undefined-- 64.809
2.14 163.270 70.086
2.15 157.823 73.662
2.16 153.383 75.263
2.17 147.818 75.405
2.18 147.287 75.027
2.19 147.620 74.871
2.20 147.575 74.894
2.21 148.705 74.876
2.22 150.207 74.825
2.23 150.863 74.636
2.24 149.174 73.834
2.25 145.204 71.440
2.26 138.605 66.613
2.27 --undefined-- 59.634
2.28 --undefined-- 53.281
2.29 --undefined-- 50.033
2.30 --undefined-- 48.936
2.31 --undefined-- 50.621
2.32 --undefined-- 54.025
2.33 --undefined-- 56.077
2.34 --undefined-- 56.433
2.35 --undefined-- 61.061
2.36 212.351 69.487
2.37 217.151 74.855
2.38 212.129 77.241
2.39 206.587 77.650
2.40 208.256 77.393
2.41 214.564 77.551
2.42 217.115 78.200
2.43 217.575 78.632
2.44 216.593 78.084
2.45 213.975 76.485
2.46 210.495 75.496
2.47 205.606 75.745
2.48 200.124 76.141
2.49 193.392 76.283
2.50 185.069 76.024
2.51 175.737 75.684
2.52 164.279 75.621
2.53 156.725 75.673
2.54 150.024 75.630
2.55 140.838 75.195
2.56 137.931 74.189
2.57 135.318 72.967
2.58 132.185 71.691
2.59 129.215 70.219
2.60 123.569 68.791
2.61 120.177 67.700
2.62 114.913 67.069
2.63 117.359 66.880
2.64 112.701 66.717
2.65 121.660 67.923
2.66 122.739 70.090
2.67 116.525 71.412
2.68 105.865 71.341
2.69 99.154 70.028
2.70 93.747 68.196
2.71 91.982 66.590
2.72 89.676 65.357
2.73 88.778 64.408
2.74 88.969 63.796
2.75 92.316 63.117
2.76 --undefined-- 61.000
2.77 --undefined-- 55.994
2.78 --undefined-- 48.480
2.79 --undefined-- 47.234
2.80 --undefined-- 51.635
2.81 --undefined-- 57.096
2.82 --undefined-- 63.940
2.83 --undefined-- 69.698
2.84 118.174 72.892
2.85 117.282 74.144
2.86 119.603 74.597
2.87 121.512 74.954
2.88 119.502 75.158
2.89 119.958 74.829
2.90 122.551 74.010
2.91 123.750 73.518
2.92 131.436 73.782
2.93 136.936 74.642
2.94 139.141 75.420
2.95 138.945 75.454
2.96 137.368 74.812
2.97 135.182 74.003
2.98 137.884 73.624
2.99 138.694 73.868
3.00 139.470 74.337
3.01 138.302 74.661
3.02 137.764 74.877
3.03 137.015 75.048
3.04 136.543 75.128
3.05 135.878 75.063
3.06 134.908 74.835
3.07 135.057 74.376
3.08 134.058 73.150
3.09 125.034 70.387
3.10 119.840 66.042
3.11 --undefined-- 60.877
3.12 --undefined-- 57.663
3.13 --undefined-- 61.700
3.14 178.158 68.990
3.15 161.930 73.839
3.16 149.833 75.882
3.17 141.459 76.065
3.18 140.838 75.811
3.19 141.383 75.907
3.20 141.141 75.894
3.21 139.992 75.418
3.22 137.624 74.611
3.23 132.286 73.431
3.24 125.449 71.223
3.25 115.559 67.154
3.26 103.460 60.832
3.27 --undefined-- 53.932
3.28 --undefined-- 53.059
3.29 --undefined-- 59.080
3.30 --undefined-- 67.811
3.31 --undefined-- 74.104
3.32 159.361 77.323
3.33 151.195 78.717
3.34 150.982 79.796
3.35 152.487 80.664
3.36 152.811 80.854
3.37 153.166 80.537
3.38 154.744 80.020
3.39 157.080 79.347
3.40 159.246 78.416
3.41 161.979 77.202
3.42 161.512 75.501
3.43 159.542 72.715
3.44 147.675 68.203
3.45 155.179 61.776
3.46 --undefined-- 54.334
3.47 --undefined-- 49.019
3.48 --undefined-- 46.114
3.49 --undefined-- 44.811
3.50 --undefined-- 45.129
3.51 --undefined-- 45.746
3.52 --undefined-- 46.442
3.53 --undefined-- 47.053
3.54 --undefined-- 47.312
3.55 --undefined-- 46.764
3.56 --undefined-- 45.859
3.57 --undefined-- 45.131
3.58 --undefined-- 43.920
3.59 --undefined-- 42.964
3.60 --undefined-- 42.724
3.61 --undefined-- 42.572
3.62 --undefined-- 42.592
3.63 --undefined-- 43.465
3.64 --undefined-- 45.149
3.65 --undefined-- 46.222
3.66 --undefined-- 45.417
3.67 --undefined-- 43.067
3.68 --undefined-- 40.461
3.69 --undefined-- 40.254
3.70 --undefined-- 44.948
3.71 --undefined-- 51.037
3.72 --undefined-- 55.550
3.73 --undefined-- 57.862
3.74 --undefined-- 58.198
3.75 --undefined-- 57.768
3.76 --undefined-- 59.040
3.77 --undefined-- 63.316
3.78 119.228 68.349
3.79 118.406 71.642
3.80 107.204 73.065
3.81 102.918 73.057
3.82 97.804 72.249
3.83 95.251 71.104
3.84 92.821 69.716
3.85 92.696 68.518
3.86 95.790 68.332
3.87 99.020 69.092
3.88 99.545 69.985
3.89 99.369 70.532
3.90 99.389 70.535
3.91 99.971 69.823
3.92 99.336 68.171
3.93 99.305 65.395
3.94 99.538 62.404
3.95 --undefined-- 63.222
3.96 120.894 67.019
3.97 115.127 70.132
3.98 99.032 71.518
3.99 92.599 71.550
4.00 93.293 71.153
4.01 94.221 70.940
4.02 92.435 70.767
4.03 90.380 70.447
4.04 89.561 70.157
4.05 90.777 69.898
4.06 90.216 69.384
4.07 89.410 68.630
4.08 87.309 67.713
4.09 88.218 66.576
4.10 87.183 65.042
4.11 85.703 62.794
4.12 89.883 59.810
4.13 --undefined-- 56.265
4.14 --undefined-- 53.672
4.15 --undefined-- 60.202
4.16 --undefined-- 67.004
4.17 108.651 70.709
4.18 102.180 72.311
4.19 101.702 72.913
4.20 103.582 73.337
4.21 104.581 73.642
4.22 104.680 73.741
4.23 106.665 73.781
4.24 106.078 73.846
4.25 104.768 73.787
4.26 105.610 73.311
4.27 100.665 71.805
4.28 95.363 69.275
4.29 97.043 67.135
4.30 102.323 67.080
4.31 103.993 69.030
4.32 104.175 70.915
4.33 101.502 71.902
4.34 99.165 72.332
4.35 97.049 72.467
4.36 97.400 72.247
4.37 97.057 71.823
4.38 96.372 71.379
4.39 98.352 70.999
4.40 98.570 70.597
4.41 96.846 69.611
4.42 92.825 67.589
4.43 89.258 64.781
4.44 105.313 63.408
4.45 110.165 65.008
4.46 116.006 67.608
4.47 121.011 69.965
4.48 110.716 71.814
4.49 106.527 73.073
4.50 101.636 73.724
4.51 101.019 74.093
4.52 101.027 74.255
4.53 101.101 74.264
4.54 101.708 74.172
4.55 102.194 73.855
4.56 105.196 73.087
4.57 102.468 71.448
4.58 100.983 68.428
4.59 106.051 64.428
4.60 110.708 59.745
4.61 --undefined-- 53.993
4.62 --undefined-- 51.392
4.63 --undefined-- 54.638
4.64 --undefined-- 60.768
4.65 --undefined-- 67.752
4.66 136.739 72.381
4.67 123.554 74.885
4.68 117.654 76.077
4.69 116.885 76.236
4.70 115.470 75.388
4.71 114.042 73.406
4.72 111.432 70.330
4.73 111.194 66.470
4.74 108.783 62.021
4.75 --undefined-- 57.504
4.76 --undefined-- 56.988
4.77 --undefined-- 60.393
4.78 --undefined-- 66.763
4.79 --undefined-- 72.632
4.80 --undefined-- 75.885
4.81 109.649 76.783
4.82 101.484 75.976
4.83 96.794 74.775
4.84 93.425 73.845
4.85 90.253 72.737
4.86 91.005 71.532
4.87 88.806 70.506
4.88 88.444 69.228
4.89 87.938 66.844
4.90 90.456 63.498
4.91 112.268 61.234
4.92 108.916 60.411
4.93 118.279 57.907
4.94 --undefined-- 53.435
4.95 --undefined-- 47.981
4.96 --undefined-- 43.687
4.97 --undefined-- 42.365
4.98 --undefined-- 41.619
4.99 --undefined-- 39.072
5.00 --undefined-- 36.345
5.01 --undefined-- 37.144
5.02 --undefined-- 39.755
5.03 --undefined-- 41.222
5.04 --undefined-- 41.785
5.05 --undefined-- 41.444
5.06 --undefined-- 38.914
5.07 --undefined-- 36.713
5.08 --undefined-- 37.884
5.09 --undefined-- 38.343
5.10 --undefined-- 37.250
5.11 --undefined-- 36.286
5.12 --undefined-- 37.201
5.13 --undefined-- 39.577
5.14 --undefined-- 41.268
5.15 --undefined-- 40.176
5.16 --undefined-- 37.385
5.17 --undefined-- 38.529
5.18 --undefined-- 39.777
5.19 --undefined-- 40.152
5.20 --undefined-- 50.041
5.21 --undefined-- 60.522
5.22 --undefined-- 66.452
5.23 --undefined-- 69.285
5.24 --undefined-- 71.458
5.25 108.155 73.556
5.26 111.479 75.040
5.27 112.330 75.889
5.28 112.093 76.114
5.29 111.387 76.054
5.30 112.433 76.018
5.31 112.422 75.926
5.32 111.713 75.677
5.33 111.337 75.361
5.34 112.542 75.294
5.35 113.176 75.515
5.36 113.447 75.593
5.37 114.016 75.508
5.38 114.815 75.580
5.39 114.842 75.689
5.40 113.568 75.544
5.41 112.242 75.180
5.42 111.348 74.794
5.43 110.928 74.448
5.44 111.115 74.209
5.45 111.468 74.113
5.46 111.955 74.074
5.47 113.247 73.977
5.48 113.891 73.690
5.49 113.783 73.130
5.50 110.231 --undefined--
5.51 105.868 --undefined--
5.52 --undefined-- --undefined--
5.53 --undefined-- --undefined--
