Time Pitch Intensity
0.01 --undefined-- --undefined--
0.02 136.436 --undefined--
0.03 136.233 --undefined--
0.04 135.258 --undefined--
0.05 134.655 75.552
0.06 134.612 74.971
0.07 134.744 75.545
0.08 138.258 76.615
0.09 140.951 77.249
0.10 142.854 77.416
0.11 142.196 77.117
0.12 143.442 76.725
0.13 144.357 76.527
0.14 145.728 76.536
0.15 147.130 76.794
0.16 149.070 77.024
0.17 150.538 76.551
0.18 152.196 75.613
0.19 155.247 74.824
0.20 166.031 73.761
0.21 178.828 73.070
0.22 199.510 74.677
0.23 209.550 76.836
0.24 219.092 77.579
0.25 224.812 77.494
0.26 229.875 77.582
0.27 231.908 77.904
0.28 231.830 77.895
0.29 230.046 77.413
0.30 225.845 76.336
0.31 213.988 74.584
0.32 201.060 72.853
0.33 195.768 71.244
0.34 200.125 69.574
0.35 208.607 69.830
0.36 240.018 73.940
0.37 238.798 77.196
0.38 235.218 78.250
0.39 234.408 78.073
0.40 232.529 77.660
0.41 230.188 77.175
0.42 228.192 76.075
0.43 223.349 73.791
0.44 208.136 70.856
0.45 209.516 67.805
0.46 206.741 63.588
0.47 212.646 58.148
0.48 --undefined-- 53.440
0.49 --undefined-- 52.054
0.50 --undefined-- 50.951
0.51 --undefined-- 49.205
0.52 --undefined-- 47.684
0.53 --undefined-- 45.286
0.54 --undefined-- 42.977
0.55 --undefined-- 51.488
0.56 --undefined-- 64.231
0.57 --undefined-- 72.025
0.58 --undefined-- 75.820
0.59 163.289 76.880
0.60 149.666 76.773
0.61 143.476 76.558
0.62 138.480 76.462
0.63 136.175 76.536
0.64 135.038 76.463
0.65 133.860 76.291
0.66 132.674 76.233
0.67 132.038 76.129
0.68 131.600 75.980
0.69 131.724 75.882
0.70 131.764 75.803
0.71 131.715 75.665
0.72 131.033 75.349
0.73 129.465 75.022
0.74 127.765 74.898
0.75 129.852 75.060
0.76 132.580 75.271
0.77 133.932 75.385
0.78 134.971 75.484
0.79 136.403 75.534
0.80 137.508 75.517
0.81 138.540 75.565
0.82 140.192 75.664
0.83 141.214 75.655
0.84 141.595 75.333
0.85 141.376 74.274
0.86 141.198 71.859
0.87 137.383 67.577
0.88 140.129 61.461
0.89 140.777 55.426
0.90 140.012 53.123
0.91 131.064 52.878
0.92 --undefined-- 54.485
0.93 --undefined-- 57.022
0.94 --undefined-- 59.762
0.95 --undefined-- 66.103
0.96 --undefined-- 72.787
0.97 167.946 76.285
0.98 163.718 77.291
0.99 159.397 77.228
1.00 153.143 76.865
1.01 149.630 76.458
1.02 148.572 75.709
1.03 141.751 74.183
1.04 141.544 73.631
1.05 146.284 74.754
1.06 147.022 75.508
1.07 147.948 75.627
1.08 148.977 75.469
1.09 149.797 75.219
1.10 150.962 75.082
1.11 152.019 75.037
1.12 152.688 74.969
1.13 153.275 74.933
1.14 155.089 74.985
1.15 158.195 75.047
1.16 160.499 75.146
1.17 163.031 75.316
1.18 164.848 75.572
1.19 167.204 76.122
1.20 178.969 76.653
1.21 181.009 76.602
1.22 181.199 76.585
1.23 180.294 76.941
1.24 178.517 77.166
1.25 175.829 77.068
1.26 173.743 76.602
1.27 172.683 75.836
1.28 172.402 74.837
1.29 172.512 73.549
1.30 168.853 72.154
1.31 166.212 71.333
1.32 163.379 71.244
1.33 163.067 71.630
1.34 161.222 72.546
1.35 160.091 73.745
1.36 158.840 75.075
1.37 155.822 76.133
1.38 148.152 76.436
1.39 141.302 76.253
1.40 136.908 76.284
1.41 133.824 76.757
1.42 131.226 77.231
1.43 128.172 77.440
1.44 125.650 77.560
1.45 125.495 77.514
1.46 126.944 77.372
1.47 127.852 77.334
1.48 128.537 77.215
1.49 129.959 76.944
1.50 131.343 76.687
1.51 132.724 76.592
1.52 133.890 76.498
1.53 131.773 75.695
1.54 127.474 74.016
1.55 129.346 72.595
1.56 133.426 72.027
1.57 137.164 71.846
1.58 146.321 72.120
1.59 152.320 72.977
1.60 164.789 74.852
1.61 170.689 76.869
1.62 176.007 77.606
1.63 182.810 77.377
1.64 184.627 77.195
1.65 187.061 77.260
1.66 187.465 77.226
1.67 187.429 77.056
1.68 187.565 76.661
1.69 186.839 76.047
1.70 185.106 75.783
1.71 182.247 76.453
1.72 182.027 77.333
1.73 184.632 77.692
1.74 187.202 77.525
1.75 185.313 76.857
1.76 178.860 75.634
1.77 170.040 74.173
1.78 166.407 72.783
1.79 162.572 71.507
1.80 156.099 71.761
1.81 157.824 74.312
1.82 163.893 77.034
1.83 165.549 78.450
1.84 160.038 78.728
1.85 153.209 78.666
1.86 146.228 78.342
1.87 142.081 77.154
1.88 140.770 74.175
1.89 --undefined-- 68.663
1.90 155.932 62.132
1.91 143.141 58.592
1.92 146.298 57.375
1.93 150.115 55.831
1.94 --undefined-- 53.521
1.95 --undefined-- 52.798
1.96 --undefined-- 53.464
1.97 --undefined-- 52.776
1.98 --undefined-- 52.071
1.99 115.672 54.013
2.00 118.019 56.798
2.01 116.983 62.784
2.02 --undefined-- 69.524
2.03 --undefined-- 74.366
2.04 --undefined-- 76.903
2.05 --undefined-- 77.458
2.06 125.412 77.137
2.07 121.712 76.719
2.08 116.131 76.309
2.09 116.418 76.202
2.10 117.553 76.149
2.11 118.190 75.678
2.12 119.678 75.027
2.13 125.677 74.868
2.14 132.138 75.237
2.15 139.074 75.928
2.16 143.421 76.605
2.17 147.542 76.920
2.18 151.727 76.867
2.19 153.398 76.600
2.20 155.175 75.715
2.21 156.881 73.532
2.22 155.554 69.670
2.23 78.725 64.086
2.24 77.109 59.251
2.25 75.430 61.044
2.26 --undefined-- 68.891
2.27 --undefined-- 74.432
2.28 --undefined-- 76.478
2.29 178.836 76.236
2.30 174.543 75.641
2.31 169.707 75.498
2.32 167.340 75.561
2.33 167.516 75.702
2.34 168.855 76.081
2.35 169.967 76.625
2.36 170.266 76.753
2.37 169.260 75.910
2.38 165.825 73.382
2.39 162.019 68.768
2.40 166.584 63.186
2.41 167.152 60.446
2.42 --undefined-- 67.298
2.43 --undefined-- 73.914
2.44 163.226 77.229
2.45 161.377 78.217
2.46 156.503 78.201
2.47 149.298 77.989
2.48 143.883 77.691
2.49 140.015 77.125
2.50 138.383 76.658
2.51 137.022 76.698
2.52 135.629 77.119
2.53 132.920 77.433
2.54 130.440 77.340
2.55 127.297 77.185
2.56 125.287 77.117
2.57 124.750 76.985
2.58 125.170 76.929
2.59 125.390 76.923
2.60 124.683 76.745
2.61 123.567 76.225
2.62 124.230 75.097
2.63 125.582 72.915
2.64 124.264 69.171
2.65 123.861 64.510
2.66 121.924 61.683
2.67 124.351 60.284
2.68 --undefined-- 58.835
2.69 --undefined-- 59.048
2.70 --undefined-- 66.781
2.71 --undefined-- 73.172
2.72 163.199 76.036
2.73 149.681 76.564
2.74 148.712 76.406
2.75 148.823 76.080
2.76 146.971 75.188
2.77 143.361 74.448
2.78 148.741 75.099
2.79 149.699 75.977
2.80 150.803 76.382
2.81 149.988 76.418
2.82 148.465 75.623
2.83 145.282 73.331
2.84 142.268 69.188
2.85 --undefined-- 64.332
2.86 --undefined-- 65.703
2.87 --undefined-- 71.711
2.88 153.147 75.704
2.89 152.923 77.322
2.90 150.991 77.488
2.91 149.789 77.232
2.92 149.569 77.101
2.93 149.244 77.140
2.94 149.030 77.321
2.95 148.950 77.453
2.96 149.147 77.397
2.97 148.875 77.017
2.98 146.906 75.983
2.99 140.451 74.333
3.00 135.024 73.448
3.01 134.573 74.805
3.02 134.867 76.683
3.03 132.563 77.723
3.04 127.958 77.914
3.05 121.314 77.632
3.06 114.077 77.286
3.07 107.527 77.137
3.08 104.385 77.110
3.09 103.257 76.948
3.10 104.204 76.813
3.11 106.469 76.664
3.12 108.569 76.615
3.13 108.661 76.729
3.14 109.093 76.811
3.15 110.074 76.817
3.16 110.676 76.935
3.17 110.912 77.179
3.18 111.385 77.245
3.19 110.778 76.831
3.20 110.025 76.009
3.21 108.452 75.199
3.22 107.905 75.212
3.23 114.896 76.055
3.24 116.138 76.720
3.25 116.317 76.898
3.26 116.763 76.875
3.27 117.691 76.922
3.28 117.909 76.980
3.29 119.166 76.973
3.30 123.849 77.044
3.31 126.604 77.112
3.32 128.555 76.876
3.33 129.866 76.360
3.34 130.490 75.715
3.35 130.159 75.158
3.36 129.569 74.921
3.37 128.502 74.920
3.38 126.916 75.012
3.39 126.368 75.127
3.40 125.667 75.081
3.41 125.427 74.878
3.42 124.932 74.672
3.43 121.622 74.250
3.44 --undefined-- 73.201
3.45 --undefined-- 71.398
3.46 --undefined-- 68.257
3.47 --undefined-- 62.706
3.48 --undefined-- 57.768
3.49 --undefined-- 58.376
3.50 --undefined-- 59.755
3.51 --undefined-- 60.442
3.52 --undefined-- 60.924
3.53 --undefined-- 60.617
3.54 --undefined-- 58.638
3.55 --undefined-- 56.008
3.56 --undefined-- 54.509
3.57 --undefined-- 54.622
3.58 --undefined-- 55.416
3.59 --undefined-- 55.983
3.60 --undefined-- 55.780
3.61 --undefined-- 54.784
3.62 --undefined-- 53.718
3.63 --undefined-- 53.713
3.64 --undefined-- 54.311
3.65 --undefined-- 54.395
3.66 --undefined-- 54.114
3.67 --undefined-- 54.353
3.68 --undefined-- 54.937
3.69 --undefined-- 54.712
3.70 --undefined-- 53.797
3.71 --undefined-- 52.408
3.72 --undefined-- 49.501
3.73 --undefined-- 47.102
3.74 --undefined-- 49.025
3.75 --undefined-- 49.910
3.76 --undefined-- 58.406
3.77 222.500 68.183
3.78 206.915 73.707
3.79 196.643 76.117
3.80 202.818 76.840
3.81 209.946 77.099
3.82 216.142 77.268
3.83 220.770 77.287
3.84 223.072 77.149
3.85 221.511 77.028
3.86 214.865 77.172
3.87 208.041 77.951
3.88 210.695 78.580
3.89 206.067 78.141
3.90 186.178 77.556
3.91 169.271 77.823
3.92 160.788 77.886
3.93 148.592 77.287
3.94 140.874 76.989
3.95 139.173 77.233
3.96 137.907 77.201
3.97 136.049 76.911
3.98 136.848 76.713
3.99 139.535 76.891
4.00 141.316 77.127
4.01 143.296 77.107
4.02 146.372 76.951
4.03 149.833 76.674
4.04 156.365 76.221
4.05 167.292 76.137
4.06 176.697 76.861
4.07 186.620 77.833
4.08 193.743 78.430
4.09 199.814 78.427
4.10 200.372 78.161
4.11 198.784 77.953
4.12 196.629 77.828
4.13 194.054 77.702
4.14 193.434 77.255
4.15 193.604 76.663
4.16 194.808 76.817
4.17 195.476 77.394
4.18 197.449 77.332
4.19 202.816 76.797
4.20 203.337 76.740
4.21 201.103 77.310
4.22 196.725 77.727
4.23 188.242 77.476
4.24 181.180 76.606
4.25 172.593 75.943
4.26 171.147 76.688
4.27 170.782 77.844
4.28 168.413 78.437
4.29 166.751 78.622
4.30 161.794 78.657
4.31 155.914 78.651
4.32 150.874 78.322
4.33 145.832 77.115
4.34 144.664 74.238
4.35 --undefined-- 68.610
4.36 --undefined-- 60.421
4.37 154.942 55.996
4.38 150.386 57.448
4.39 151.889 57.604
4.40 153.044 56.457
4.41 150.187 55.618
4.42 --undefined-- 55.181
4.43 --undefined-- 54.038
4.44 --undefined-- 52.611
4.45 --undefined-- 51.139
4.46 --undefined-- 54.719
4.47 --undefined-- 63.630
4.48 --undefined-- 68.942
4.49 --undefined-- 72.425
4.50 --undefined-- 75.456
4.51 --undefined-- 76.882
4.52 130.113 76.951
4.53 125.484 76.638
4.54 120.188 76.178
4.55 117.684 75.957
4.56 119.123 76.001
4.57 118.575 75.360
4.58 115.444 73.778
4.59 126.962 73.469
4.60 132.993 74.742
4.61 135.685 75.639
4.62 139.184 76.175
4.63 141.761 76.507
4.64 145.637 76.535
4.65 149.929 76.518
4.66 155.201 76.710
4.67 164.187 76.661
4.68 164.004 76.195
4.69 166.233 75.714
4.70 168.755 75.152
4.71 171.045 74.465
4.72 173.227 74.057
4.73 174.430 74.202
4.74 174.341 74.593
4.75 172.205 74.947
4.76 167.300 74.858
4.77 160.697 73.487
4.78 156.824 70.277
4.79 159.260 65.763
4.80 164.088 62.911
4.81 162.025 62.638
4.82 --undefined-- 62.746
4.83 --undefined-- 62.553
4.84 --undefined-- 63.636
4.85 --undefined-- 66.762
4.86 --undefined-- 70.835
4.87 --undefined-- 74.981
4.88 137.334 77.164
4.89 128.110 77.543
4.90 121.375 77.274
4.91 118.962 77.222
4.92 120.471 77.352
4.93 123.735 77.407
4.94 128.433 77.134
4.95 137.373 76.795
4.96 141.133 76.623
4.97 144.639 76.290
4.98 150.500 --undefined--
4.99 156.058 --undefined--
5.00 --undefined-- --undefined--
5.01 --undefined-- --undefined--
