Time Pitch Intensity
0.01 --undefined-- --undefined--
0.02 --undefined-- --undefined--
0.03 --undefined-- --undefined--
0.04 --undefined-- --undefined--
0.05 --undefined-- 65.202
0.06 --undefined-- 65.472
0.07 --undefined-- 65.473
0.08 --undefined-- 66.542
0.09 195.760 68.051
0.10 192.757 68.364
0.11 171.264 67.845
0.12 171.476 67.639
0.13 168.820 67.514
0.14 165.895 67.316
0.15 164.996 66.942
0.16 164.640 65.879
0.17 165.408 64.668
0.18 166.659 64.152
0.19 166.351 64.049
0.20 168.096 63.596
0.21 169.534 62.544
0.22 170.213 60.528
0.23 171.426 56.805
0.24 --undefined-- 51.561
0.25 --undefined-- 48.514
0.26 --undefined-- 50.722
0.27 --undefined-- 52.504
0.28 --undefined-- 52.471
0.29 --undefined-- 51.580
0.30 --undefined-- 50.522
0.31 --undefined-- 54.131
0.32 --undefined-- 59.846
0.33 --undefined-- 63.093
0.34 --undefined-- 64.871
0.35 --undefined-- 65.869
0.36 133.279 66.202
0.37 133.575 66.627
0.38 135.312 67.468
0.39 137.495 68.286
0.40 141.889 68.303
0.41 147.443 66.642
0.42 155.084 63.541
0.43 170.599 61.849
0.44 176.030 62.420
0.45 179.947 63.010
0.46 183.826 63.284
0.47 187.536 64.592
0.48 187.271 66.957
0.49 186.366 68.375
0.50 186.754 68.486
0.51 187.638 67.962
0.52 193.108 67.278
0.53 198.049 65.949
0.54 198.343 63.301
0.55 199.111 59.447
0.56 201.738 55.064
0.57 --undefined-- 50.845
0.58 --undefined-- 48.815
0.59 --undefined-- 54.169
0.60 204.092 61.955
0.61 189.964 67.664
0.62 186.636 70.453
0.63 168.579 70.926
0.64 163.971 70.753
0.65 161.121 70.792
0.66 154.765 70.415
0.67 152.772 69.839
0.68 152.525 69.346
0.69 153.767 68.472
0.70 157.409 66.667
0.71 157.987 64.522
0.72 150.928 63.288
0.73 145.759 63.161
0.74 138.351 64.072
0.75 135.660 66.258
0.76 131.488 68.694
0.77 128.380 70.295
0.78 125.838 71.063
0.79 124.641 71.489
0.80 120.528 71.707
0.81 121.441 71.840
0.82 124.164 72.117
0.83 123.658 72.149
0.84 125.385 71.618
0.85 126.714 70.877
0.86 126.515 70.170
0.87 126.104 69.531
0.88 115.447 69.180
0.89 115.412 68.663
0.90 102.306 67.173
0.91 78.190 64.441
0.92 78.092 60.374
0.93 --undefined-- 55.150
0.94 --undefined-- 47.526
0.95 --undefined-- 37.944
0.96 --undefined-- 32.037
0.97 --undefined-- 33.003
0.98 --undefined-- 39.242
0.99 --undefined-- 43.481
1.00 --undefined-- 46.572
1.01 --undefined-- 50.031
1.02 --undefined-- 53.823
1.03 --undefined-- 56.122
1.04 --undefined-- 56.188
1.05 --undefined-- 55.196
1.06 --undefined-- 54.647
1.07 --undefined-- 54.123
1.08 --undefined-- 54.518
1.09 --undefined-- 55.922
1.10 --undefined-- 56.567
1.11 --undefined-- 55.644
1.12 --undefined-- 53.708
1.13 --undefined-- 52.627
1.14 --undefined-- 53.641
1.15 --undefined-- 54.968
1.16 --undefined-- 55.354
1.17 --undefined-- 54.529
1.18 --undefined-- 53.280
1.19 --undefined-- 52.488
1.20 --undefined-- 52.746
1.21 --undefined-- 53.934
1.22 --undefined-- 54.876
1.23 --undefined-- 55.060
1.24 --undefined-- 55.400
1.25 --undefined-- 55.041
1.26 --undefined-- 53.764
1.27 --undefined-- 52.889
1.28 --undefined-- 52.494
1.29 --undefined-- 51.656
1.30 --undefined-- 50.184
1.31 --undefined-- 48.167
1.32 --undefined-- 45.638
1.33 --undefined-- 43.305
1.34 --undefined-- 40.980
1.35 --undefined-- 37.117
1.36 --undefined-- 31.381
1.37 --undefined-- 27.180
1.38 --undefined-- 26.270
1.39 --undefined-- 26.383
1.40 --undefined-- 26.671
1.41 --undefined-- 26.859
1.42 --undefined-- 32.447
1.43 --undefined-- 44.152
1.44 --undefined-- 51.859
1.45 289.258 56.542
1.46 281.017 59.826
1.47 --undefined-- 62.366
1.48 174.701 64.167
1.49 181.994 65.372
1.50 186.874 65.944
1.51 188.537 65.840
1.52 189.837 65.557
1.53 191.651 65.773
1.54 196.744 66.425
1.55 199.888 67.039
1.56 199.789 67.619
1.57 199.806 68.271
1.58 202.137 68.736
1.59 207.851 68.808
1.60 213.588 68.781
1.61 212.592 69.042
1.62 214.146 69.295
1.63 216.744 69.631
1.64 219.841 70.185
1.65 222.086 69.873
1.66 224.798 67.781
1.67 224.516 64.318
1.68 228.593 61.261
1.69 --undefined-- 59.723
1.70 --undefined-- 58.674
1.71 --undefined-- 57.627
1.72 --undefined-- 57.025
1.73 --undefined-- 56.788
1.74 --undefined-- 57.101
1.75 116.208 58.685
1.76 117.217 60.214
1.77 --undefined-- 61.216
1.78 --undefined-- 61.861
1.79 182.406 62.067
1.80 184.446 62.173
1.81 187.612 62.606
1.82 190.080 63.325
1.83 186.657 65.724
1.84 183.644 68.821
1.85 183.329 70.481
1.86 188.401 70.759
1.87 190.147 70.565
1.88 190.931 70.596
1.89 191.761 70.666
1.90 193.964 70.232
1.91 195.194 69.725
1.92 195.925 69.739
1.93 203.142 70.409
1.94 237.225 71.789
1.95 265.704 72.974
1.96 276.786 73.475
1.97 286.097 73.595
1.98 294.722 73.581
1.99 297.541 73.427
2.00 295.214 73.006
2.01 294.133 71.734
2.02 291.286 69.099
2.03 286.492 65.684
2.04 285.881 62.446
2.05 --undefined-- 59.942
2.06 --undefined-- 59.520
2.07 281.361 61.728
2.08 255.386 65.339
2.09 231.191 68.782
2.10 219.430 71.169
2.11 210.380 72.090
2.12 203.551 71.974
2.13 200.090 71.723
2.14 199.467 71.251
2.15 198.231 69.535
2.16 193.639 65.623
2.17 183.219 58.998
2.18 --undefined-- 50.337
2.19 --undefined-- 42.884
2.20 --undefined-- 38.229
2.21 --undefined-- 35.687
2.22 --undefined-- 35.801
2.23 --undefined-- 39.471
2.24 --undefined-- 43.571
2.25 --undefined-- 46.689
2.26 --undefined-- 53.363
2.27 --undefined-- 60.456
2.28 --undefined-- 64.345
2.29 --undefined-- 66.406
2.30 --undefined-- 68.478
2.31 235.698 70.893
2.32 235.532 72.832
2.33 235.141 73.565
2.34 234.721 73.113
2.35 235.284 72.231
2.36 235.611 71.784
2.37 234.910 71.524
2.38 234.515 71.089
2.39 234.527 70.693
2.40 234.269 70.400
2.41 234.704 70.183
2.42 234.943 70.142
2.43 235.401 69.980
2.44 235.527 69.639
2.45 234.940 69.428
2.46 235.033 69.185
2.47 235.760 68.149
2.48 235.321 65.456
2.49 234.605 60.706
2.50 242.019 56.189
2.51 237.949 55.070
2.52 236.111 53.082
2.53 236.162 50.948
2.54 236.238 52.981
2.55 --undefined-- 56.325
2.56 --undefined-- 58.663
2.57 198.397 59.720
2.58 199.357 60.677
2.59 199.731 61.231
2.60 200.260 61.734
2.61 196.948 62.500
2.62 186.178 62.720
2.63 177.841 62.804
2.64 162.133 62.978
2.65 154.510 62.977
2.66 151.469 63.400
2.67 149.611 64.392
2.68 149.266 64.762
2.69 149.116 64.386
2.70 150.843 64.018
2.71 153.379 63.800
2.72 156.914 63.521
2.73 158.193 62.893
2.74 158.048 61.396
2.75 158.431 58.579
2.76 --undefined-- 54.639
2.77 --undefined-- 53.599
2.78 --undefined-- 55.437
2.79 --undefined-- 60.553
2.80 193.604 66.850
2.81 189.698 70.217
2.82 181.969 71.001
2.83 172.240 70.742
2.84 170.043 70.465
2.85 169.094 69.820
2.86 168.818 68.873
2.87 170.327 68.164
2.88 175.020 68.090
2.89 178.499 68.999
2.90 177.176 70.230
2.91 174.103 71.031
2.92 171.432 71.295
2.93 169.081 70.788
2.94 161.222 69.234
2.95 157.251 67.253
2.96 154.155 66.163
2.97 151.603 66.180
2.98 152.007 65.768
2.99 152.202 63.709
3.00 --undefined-- 59.422
3.01 --undefined-- 53.171
3.02 --undefined-- 46.373
3.03 --undefined-- 38.849
3.04 --undefined-- 32.822
3.05 --undefined-- 36.181
3.06 --undefined-- 42.344
3.07 --undefined-- 49.978
3.08 --undefined-- 59.232
3.09 --undefined-- 66.368
3.10 --undefined-- 70.404
3.11 105.939 71.766
3.12 105.313 71.376
3.13 101.200 70.667
3.14 100.630 70.725
3.15 215.778 71.071
3.16 216.194 71.032
3.17 215.777 70.905
3.18 215.661 70.754
3.19 216.189 70.241
3.20 218.683 69.369
3.21 221.084 68.685
3.22 220.750 68.506
3.23 221.619 68.302
3.24 222.709 67.357
3.25 222.392 65.575
3.26 222.355 63.179
3.27 221.377 61.409
3.28 218.295 61.251
3.29 215.796 61.487
3.30 212.534 61.528
3.31 208.274 61.645
3.32 199.535 61.803
3.33 191.341 63.537
3.34 181.741 67.601
3.35 177.390 70.715
3.36 173.023 72.118
3.37 170.214 72.039
3.38 162.821 70.968
3.39 160.441 70.493
3.40 160.299 70.857
3.41 161.281 70.927
3.42 163.297 70.665
3.43 164.985 70.513
3.44 168.261 70.195
3.45 170.657 69.230
3.46 172.493 67.725
3.47 175.170 66.327
3.48 185.457 65.848
3.49 190.509 65.942
3.50 195.100 65.032
3.51 200.732 63.450
3.52 210.049 62.981
3.53 217.694 63.428
3.54 225.894 64.455
3.55 228.286 65.704
3.56 228.292 66.182
3.57 227.782 65.450
3.58 222.809 63.277
3.59 215.994 59.617
3.60 220.618 55.015
3.61 --undefined-- 49.505
3.62 --undefined-- 42.116
3.63 --undefined-- 34.404
3.64 --undefined-- 29.433
3.65 --undefined-- 26.218
3.66 --undefined-- 25.864
3.67 --undefined-- 26.301
3.68 --undefined-- 26.632
3.69 --undefined-- 26.879
3.70 --undefined-- 26.547
3.71 --undefined-- 24.660
3.72 --undefined-- 21.792
3.73 --undefined-- 21.324
3.74 --undefined-- 22.157
3.75 --undefined-- 22.570
3.76 --undefined-- 24.145
3.77 --undefined-- 26.123
3.78 --undefined-- 27.149
3.79 --undefined-- 29.981
3.80 --undefined-- 34.151
3.81 --undefined-- 36.893
3.82 --undefined-- 38.533
3.83 --undefined-- 39.585
3.84 --undefined-- 39.933
3.85 --undefined-- 39.026
3.86 --undefined-- 37.592
3.87 --undefined-- 37.486
3.88 --undefined-- 37.778
3.89 --undefined-- 36.887
3.90 --undefined-- 34.340
3.91 --undefined-- 30.935
3.92 --undefined-- 27.988
3.93 --undefined-- 26.875
3.94 --undefined-- 32.631
3.95 --undefined-- 37.195
3.96 --undefined-- 37.627
3.97 --undefined-- 34.269
3.98 --undefined-- 29.389
3.99 --undefined-- 27.328
4.00 --undefined-- 26.313
4.01 --undefined-- 26.813
4.02 --undefined-- 27.888
4.03 --undefined-- 27.889
4.04 --undefined-- 26.799
4.05 --undefined-- 29.340
4.06 --undefined-- 40.859
4.07 --undefined-- 49.824
4.08 --undefined-- 54.849
4.09 --undefined-- 56.660
4.10 --undefined-- 59.592
4.11 --undefined-- 66.984
4.12 --undefined-- 72.013
4.13 294.864 74.211
4.14 288.761 74.906
4.15 285.989 74.898
4.16 285.427 74.149
4.17 285.379 72.705
4.18 284.370 70.826
4.19 284.148 68.960
4.20 284.154 67.854
4.21 283.386 68.246
4.22 285.198 68.569
4.23 286.088 67.952
4.24 285.499 67.079
4.25 283.693 66.715
4.26 276.070 67.168
4.27 280.286 68.061
4.28 287.060 68.290
4.29 293.323 67.205
4.30 151.395 64.468
4.31 152.605 60.540
4.32 --undefined-- 59.895
4.33 --undefined-- 59.722
4.34 --undefined-- 56.590
4.35 261.911 54.740
4.36 259.006 58.553
4.37 256.150 64.261
4.38 242.578 69.460
4.39 238.081 72.974
4.40 230.987 74.231
4.41 220.599 73.731
4.42 212.299 72.426
4.43 208.630 71.005
4.44 204.232 69.797
4.45 200.308 69.122
4.46 196.880 69.091
4.47 195.452 68.784
4.48 191.924 67.481
4.49 187.743 65.201
4.50 183.414 61.375
4.51 --undefined-- 55.164
4.52 --undefined-- 47.668
4.53 --undefined-- 43.197
4.54 --undefined-- 46.061
4.55 --undefined-- 51.895
4.56 --undefined-- 60.971
4.57 --undefined-- 67.582
4.58 --undefined-- 70.950
4.59 175.931 72.240
4.60 174.028 72.671
4.61 169.997 72.584
4.62 167.740 71.820
4.63 167.189 70.894
4.64 168.873 70.676
4.65 169.635 70.670
4.66 170.564 70.251
4.67 175.037 69.481
4.68 180.384 68.050
4.69 190.600 66.265
4.70 196.509 65.236
4.71 211.389 65.895
4.72 227.027 67.862
4.73 229.835 69.847
4.74 232.819 71.157
4.75 235.029 71.639
4.76 233.809 71.160
4.77 234.985 69.299
4.78 236.336 65.476
4.79 233.333 60.003
4.80 --undefined-- 56.355
4.81 --undefined-- 54.652
4.82 --undefined-- 52.403
4.83 --undefined-- 51.025
4.84 --undefined-- 52.238
4.85 --undefined-- 54.616
4.86 --undefined-- 57.049
4.87 124.855 59.177
4.88 132.031 60.450
4.89 151.299 60.474
4.90 174.036 60.209
4.91 176.531 60.870
4.92 178.392 61.823
4.93 177.512 63.666
4.94 178.325 66.029
4.95 178.142 68.031
4.96 180.377 69.572
4.97 182.039 70.247
4.98 182.156 70.016
4.99 182.996 69.634
5.00 184.904 69.732
5.01 187.883 69.928
5.02 193.620 69.971
5.03 197.561 70.244
5.04 201.989 70.713
5.05 207.021 70.882
5.06 212.494 70.683
5.07 217.294 70.040
5.08 222.937 68.915
5.09 228.051 67.769
5.10 235.752 67.142
5.11 240.704 67.065
5.12 241.029 66.739
5.13 239.812 65.720
5.14 238.135 64.122
5.15 235.686 62.424
5.16 228.974 60.480
5.17 222.236 58.689
5.18 218.393 57.534
5.19 214.521 56.355
5.20 212.469 54.766
5.21 211.860 53.409
5.22 205.955 54.562
5.23 209.751 60.414
5.24 206.856 66.797
5.25 202.156 71.071
5.26 198.707 72.678
5.27 --undefined-- 72.541
5.28 --undefined-- 72.560
5.29 --undefined-- 72.886
5.30 --undefined-- 72.462
5.31 --undefined-- 70.821
5.32 --undefined-- 68.059
5.33 --undefined-- 64.874
5.34 --undefined-- 60.766
5.35 --undefined-- 54.746
5.36 --undefined-- 48.702
5.37 --undefined-- 43.135
5.38 --undefined-- 36.396
5.39 --undefined-- 30.809
5.40 --undefined-- 28.663
5.41 --undefined-- 27.828
5.42 --undefined-- 26.598
5.43 --undefined-- 24.664
5.44 --undefined-- 23.296
5.45 --undefined-- 26.616
5.46 --undefined-- 39.859
5.47 --undefined-- 49.110
5.48 215.929 54.867
5.49 210.428 58.093
5.50 214.688 59.496
5.51 217.228 60.284
5.52 221.736 61.331
5.53 221.050 62.040
5.54 218.370 61.733
5.55 215.974 60.646
5.56 208.146 59.828
5.57 201.440 60.522
5.58 196.201 63.265
5.59 197.095 67.070
5.60 197.461 70.358
5.61 195.417 72.049
5.62 190.395 71.961
5.63 186.408 70.654
5.64 185.007 68.980
5.65 184.120 66.935
5.66 179.406 63.588
5.67 173.055 59.025
5.68 169.673 54.158
5.69 --undefined-- 48.873
5.70 --undefined-- 43.681
5.71 --undefined-- 43.745
5.72 --undefined-- 49.278
5.73 --undefined-- 56.639
5.74 --undefined-- 61.618
5.75 --undefined-- 65.026
5.76 --undefined-- 67.307
5.77 221.317 68.658
5.78 217.432 70.381
5.79 216.207 --undefined--
5.80 216.312 --undefined--
5.81 --undefined-- --undefined--
5.82 --undefined-- --undefined--
