Time Pitch Intensity
0.01 --undefined-- --undefined--
0.02 --undefined-- --undefined--
0.03 --undefined-- --undefined--
0.04 --undefined-- --undefined--
0.05 --undefined-- 50.084
0.06 --undefined-- 46.859
0.07 --undefined-- 46.467
0.08 --undefined-- 48.149
0.09 --undefined-- 50.900
0.10 --undefined-- 51.256
0.11 --undefined-- 49.827
0.12 --undefined-- 51.359
0.13 --undefined-- 52.281
0.14 --undefined-- 50.466
0.15 --undefined-- 47.613
0.16 --undefined-- 45.978
0.17 --undefined-- 44.772
0.18 --undefined-- 46.206
0.19 --undefined-- 49.980
0.20 --undefined-- 51.087
0.21 --undefined-- 50.358
0.22 --undefined-- 51.461
0.23 --undefined-- 51.626
0.24 --undefined-- 49.666
0.25 --undefined-- 49.360
0.26 --undefined-- 51.296
0.27 --undefined-- 51.677
0.28 --undefined-- 50.498
0.29 --undefined-- 50.248
0.30 --undefined-- 50.917
0.31 --undefined-- 51.580
0.32 --undefined-- 51.573
0.33 --undefined-- 50.732
0.34 --undefined-- 50.615
0.35 --undefined-- 51.735
0.36 --undefined-- 52.934
0.37 --undefined-- 52.843
0.38 --undefined-- 51.033
0.39 --undefined-- 48.843
0.40 --undefined-- 47.200
0.41 --undefined-- 46.911
0.42 --undefined-- 49.189
0.43 --undefined-- 54.965
0.44 --undefined-- 60.407
0.45 --undefined-- 64.764
0.46 255.094 68.298
0.47 261.496 70.387
0.48 270.417 71.038
0.49 281.884 71.362
0.50 294.190 71.821
0.51 151.753 71.155
0.52 --undefined-- 68.165
0.53 284.095 62.425
0.54 287.522 55.930
0.55 --undefined-- 52.134
0.56 --undefined-- 51.977
0.57 --undefined-- 55.168
0.58 --undefined-- 58.281
0.59 --undefined-- 61.727
0.60 210.015 66.485
0.61 213.912 69.464
0.62 218.658 70.018
0.63 222.145 69.362
0.64 224.530 68.272
0.65 227.435 67.629
0.66 232.245 68.443
0.67 235.452 69.346
0.68 238.096 69.457
0.69 238.749 69.133
0.70 237.656 68.810
0.71 235.138 68.407
0.72 232.428 67.134
0.73 226.005 63.976
0.74 --undefined-- 58.636
0.75 --undefined-- 54.196
0.76 --undefined-- 53.824
0.77 --undefined-- 55.808
0.78 --undefined-- 57.958
0.79 --undefined-- 58.867
0.80 --undefined-- 61.482
0.81 291.351 65.820
0.82 289.641 68.230
0.83 287.429 68.474
0.84 286.223 68.814
0.85 289.466 69.907
0.86 275.109 70.320
0.87 237.142 69.780
0.88 203.828 68.799
0.89 196.254 68.394
0.90 192.357 68.853
0.91 189.940 69.490
0.92 187.941 69.826
0.93 185.940 69.638
0.94 185.117 68.350
0.95 185.082 65.013
0.96 186.641 59.041
0.97 --undefined-- 53.233
0.98 --undefined-- 52.440
0.99 --undefined-- 51.926
1.00 --undefined-- 52.608
1.01 --undefined-- 55.691
1.02 --undefined-- 58.907
1.03 --undefined-- 59.932
1.04 190.997 59.643
1.05 189.866 59.986
1.06 200.023 61.059
1.07 211.963 62.408
1.08 208.567 63.953
1.09 184.412 65.420
1.10 182.642 66.223
1.11 180.347 66.157
1.12 179.337 65.746
1.13 183.242 65.742
1.14 185.352 65.948
1.15 187.110 65.962
1.16 188.640 65.908
1.17 189.925 65.889
1.18 192.102 65.625
1.19 194.603 64.829
1.20 195.330 63.274
1.21 192.757 60.523
1.22 190.163 56.233
1.23 189.415 51.411
1.24 --undefined-- 48.211
1.25 --undefined-- 47.259
1.26 --undefined-- 52.356
1.27 253.867 59.504
1.28 244.195 63.889
1.29 242.116 65.586
1.30 245.613 65.608
1.31 257.925 65.497
1.32 268.212 66.597
1.33 292.947 68.826
1.34 154.191 70.756
1.35 163.762 71.657
1.36 172.819 71.738
1.37 181.796 71.593
1.38 186.906 71.772
1.39 185.969 71.882
1.40 182.910 71.292
1.41 175.054 70.222
1.42 165.459 69.136
1.43 154.062 68.408
1.44 286.941 67.437
1.45 270.741 65.181
1.46 263.253 61.026
1.47 --undefined-- 55.241
1.48 --undefined-- 51.546
1.49 --undefined-- 50.910
1.50 --undefined-- 51.250
1.51 --undefined-- 51.761
1.52 --undefined-- 54.644
1.53 --undefined-- 57.151
1.54 --undefined-- 58.112
1.55 --undefined-- 60.313
1.56 193.756 62.872
1.57 182.005 64.139
1.58 172.923 64.148
1.59 165.669 63.370
1.60 161.462 62.548
1.61 160.099 62.070
1.62 161.135 61.727
1.63 163.822 61.302
1.64 169.630 61.185
1.65 176.859 61.528
1.66 183.004 62.203
1.67 187.600 62.947
1.68 193.176 63.164
1.69 201.092 62.926
1.70 210.223 62.906
1.71 218.905 63.640
1.72 228.388 64.752
1.73 238.270 65.504
1.74 245.912 65.649
1.75 251.412 64.929
1.76 251.863 62.552
1.77 245.517 57.967
1.78 --undefined-- 54.301
1.79 --undefined-- 57.304
1.80 169.334 63.738
1.81 168.771 68.193
1.82 168.626 70.431
1.83 168.635 71.181
1.84 168.640 70.912
1.85 167.618 70.019
1.86 164.315 69.044
1.87 159.945 68.390
1.88 156.008 67.875
1.89 155.552 67.330
1.90 161.209 67.344
1.91 162.302 67.799
1.92 161.409 68.156
1.93 161.367 68.445
1.94 162.227 68.797
1.95 163.464 69.205
1.96 161.253 69.306
1.97 159.085 68.986
1.98 157.352 68.390
1.99 155.209 67.688
2.00 152.939 67.312
2.01 150.688 67.365
2.02 294.155 67.582
2.03 285.457 67.844
2.04 276.771 67.902
2.05 264.575 67.696
2.06 252.349 67.324
2.07 239.133 66.593
2.08 225.360 65.564
2.09 211.513 64.737
2.10 200.206 64.669
2.11 191.949 64.419
2.12 190.183 63.186
2.13 183.614 61.743
2.14 178.142 61.181
2.15 171.798 60.858
2.16 168.891 60.461
2.17 164.710 60.859
2.18 166.622 62.268
2.19 171.979 64.059
2.20 177.521 65.811
2.21 179.927 67.567
2.22 181.190 69.268
2.23 181.392 70.569
2.24 181.162 71.384
2.25 180.422 71.740
2.26 180.126 71.538
2.27 179.446 70.611
2.28 179.111 68.939
2.29 178.618 66.954
2.30 177.528 65.608
2.31 180.323 65.439
2.32 182.144 65.722
2.33 182.081 65.778
2.34 181.631 65.633
2.35 181.381 65.398
2.36 181.445 65.156
2.37 181.016 64.874
2.38 181.330 64.625
2.39 181.892 64.556
2.40 182.089 64.597
2.41 182.432 64.722
2.42 186.145 64.956
2.43 183.583 65.203
2.44 180.343 65.247
2.45 179.607 65.363
2.46 178.752 65.952
2.47 177.710 66.682
2.48 176.179 67.074
2.49 174.843 67.331
2.50 174.372 67.793
2.51 174.318 68.295
2.52 174.872 68.605
2.53 175.238 68.599
2.54 174.953 68.268
2.55 175.315 67.839
2.56 176.509 67.436
2.57 177.998 67.001
2.58 180.669 66.366
2.59 185.556 65.607
2.60 189.762 65.266
2.61 194.384 65.188
2.62 203.062 64.817
2.63 213.648 64.724
2.64 220.631 65.519
2.65 228.086 66.579
2.66 234.783 67.872
2.67 242.808 69.739
2.68 248.821 71.923
2.69 250.155 73.473
2.70 247.206 74.094
2.71 241.669 74.449
2.72 235.789 74.712
2.73 227.830 74.269
2.74 --undefined-- 73.132
2.75 --undefined-- 71.405
2.76 --undefined-- 68.486
2.77 --undefined-- 64.101
2.78 --undefined-- 58.825
2.79 --undefined-- 54.561
2.80 --undefined-- 54.610
2.81 --undefined-- 55.444
2.82 296.279 54.835
2.83 296.468 54.296
2.84 --undefined-- 55.171
2.85 --undefined-- 54.559
2.86 --undefined-- 52.821
2.87 --undefined-- 53.704
2.88 --undefined-- 55.077
2.89 --undefined-- 54.668
2.90 --undefined-- 52.821
2.91 --undefined-- 51.147
2.92 --undefined-- 50.416
2.93 269.350 51.290
2.94 268.366 52.449
2.95 269.328 52.779
2.96 264.590 53.888
2.97 261.355 54.781
2.98 --undefined-- 53.717
2.99 --undefined-- 50.982
3.00 --undefined-- 48.072
3.01 --undefined-- 47.272
3.02 --undefined-- 47.321
3.03 --undefined-- 47.646
3.04 --undefined-- 47.937
3.05 --undefined-- 48.962
3.06 --undefined-- 52.452
3.07 --undefined-- 56.552
3.08 245.512 61.924
3.09 270.967 66.328
3.10 261.765 69.207
3.11 259.430 71.012
3.12 260.851 71.929
3.13 262.362 71.861
3.14 265.625 71.199
3.15 270.131 71.154
3.16 272.881 71.922
3.17 275.579 72.507
3.18 278.736 72.491
3.19 282.682 71.982
3.20 286.041 71.189
3.21 287.012 69.662
3.22 285.930 66.267
3.23 275.784 60.482
3.24 284.195 54.844
3.25 284.481 52.712
3.26 --undefined-- 52.115
3.27 --undefined-- 50.700
3.28 --undefined-- 48.361
3.29 --undefined-- 48.106
3.30 --undefined-- 49.028
3.31 --undefined-- 50.477
3.32 --undefined-- 58.168
3.33 --undefined-- 65.901
3.34 183.280 70.056
3.35 183.974 71.461
3.36 186.584 71.660
3.37 188.341 71.784
3.38 189.670 71.892
3.39 191.301 71.834
3.40 193.124 71.547
3.41 194.956 70.958
3.42 196.229 70.139
3.43 196.506 69.103
3.44 198.826 67.657
3.45 200.843 66.383
3.46 199.656 65.301
3.47 195.099 62.950
3.48 188.184 59.218
3.49 194.760 55.490
3.50 --undefined-- 51.792
3.51 --undefined-- 47.809
3.52 --undefined-- 47.267
3.53 --undefined-- 50.238
3.54 --undefined-- 58.523
3.55 --undefined-- 65.297
3.56 --undefined-- 68.808
3.57 288.673 70.165
3.58 262.095 70.408
3.59 247.847 69.443
3.60 236.693 66.597
3.61 213.876 61.898
3.62 196.161 57.227
3.63 --undefined-- 53.536
3.64 --undefined-- 49.738
3.65 --undefined-- 49.070
3.66 --undefined-- 51.641
3.67 --undefined-- 52.241
3.68 --undefined-- 49.367
3.69 --undefined-- 45.616
3.70 --undefined-- 47.681
3.71 --undefined-- 48.383
3.72 --undefined-- 48.065
3.73 --undefined-- 55.368
3.74 --undefined-- 61.030
3.75 89.572 63.522
3.76 90.748 64.941
3.77 83.433 65.859
3.78 84.371 66.186
3.79 88.701 67.135
3.80 183.459 68.095
3.81 197.697 68.412
3.82 210.659 68.490
3.83 225.779 68.703
3.84 239.861 68.535
3.85 256.834 68.091
3.86 272.017 68.509
3.87 283.866 69.649
3.88 292.924 70.624
3.89 297.943 70.893
3.90 295.944 70.733
3.91 283.428 71.249
3.92 267.271 72.072
3.93 259.073 71.258
3.94 --undefined-- 68.089
3.95 --undefined-- 63.591
3.96 --undefined-- 59.021
3.97 --undefined-- 55.213
3.98 --undefined-- 53.861
3.99 --undefined-- 54.652
4.00 --undefined-- 53.987
4.01 --undefined-- 51.816
4.02 --undefined-- 54.843
4.03 --undefined-- 59.692
4.04 --undefined-- 63.994
4.05 242.556 67.333
4.06 251.121 68.814
4.07 270.187 68.994
4.08 278.646 69.049
4.09 283.730 69.231
4.10 290.777 69.263
4.11 299.205 69.049
4.12 152.412 69.052
4.13 154.190 69.227
4.14 155.450 69.277
4.15 156.006 69.292
4.16 155.367 69.275
4.17 154.408 69.105
4.18 153.808 68.741
4.19 153.765 68.268
4.20 154.215 67.789
4.21 155.736 67.382
4.22 156.816 66.995
4.23 157.299 66.363
4.24 157.768 65.220
4.25 156.048 63.097
4.26 148.987 59.542
4.27 --undefined-- 56.177
4.28 --undefined-- 56.231
4.29 --undefined-- 57.348
4.30 --undefined-- 59.128
4.31 --undefined-- 60.641
4.32 --undefined-- 60.191
4.33 --undefined-- 59.016
4.34 --undefined-- 59.316
4.35 --undefined-- 59.953
4.36 156.749 62.921
4.37 152.687 66.145
4.38 152.170 67.543
4.39 152.044 67.772
4.40 150.692 67.680
4.41 151.009 67.593
4.42 154.326 67.892
4.43 156.212 68.721
4.44 156.757 69.229
4.45 155.934 68.495
4.46 149.452 65.847
4.47 --undefined-- 61.722
4.48 --undefined-- 59.668
4.49 --undefined-- 59.245
4.50 --undefined-- 57.400
4.51 258.360 57.002
4.52 259.281 59.979
4.53 255.701 61.856
4.54 --undefined-- 62.004
4.55 --undefined-- 61.206
4.56 --undefined-- 60.051
4.57 --undefined-- 58.928
4.58 --undefined-- 57.943
4.59 --undefined-- 57.215
4.60 --undefined-- 55.864
4.61 --undefined-- 54.284
4.62 --undefined-- 53.674
4.63 --undefined-- 52.844
4.64 --undefined-- 51.744
4.65 --undefined-- 52.402
4.66 --undefined-- 52.670
4.67 --undefined-- 52.914
4.68 --undefined-- 53.596
4.69 --undefined-- 52.668
4.70 --undefined-- 53.348
4.71 --undefined-- 58.557
4.72 193.869 62.645
4.73 193.263 65.196
4.74 191.910 66.708
4.75 190.494 67.461
4.76 189.295 67.703
4.77 188.639 67.678
4.78 189.326 67.644
4.79 190.203 67.700
4.80 190.689 67.710
4.81 188.882 67.492
4.82 187.467 66.979
4.83 188.751 66.435
4.84 189.761 66.299
4.85 190.938 66.523
4.86 191.930 66.785
4.87 192.970 66.850
4.88 194.085 67.014
4.89 192.756 68.144
4.90 190.750 69.704
4.91 188.175 70.408
4.92 186.567 70.035
4.93 183.775 68.956
4.94 183.067 67.086
4.95 179.532 63.841
4.96 175.736 --undefined--
4.97 183.280 --undefined--
4.98 --undefined-- --undefined--
4.99 --undefined-- --undefined--
