Time Pitch Intensity
0.01 --undefined-- --undefined--
0.02 206.463 --undefined--
0.03 206.582 --undefined--
0.04 205.613 --undefined--
0.05 202.290 65.257
0.06 197.471 65.383
0.07 193.377 66.791
0.08 184.938 68.194
0.09 179.148 68.836
0.10 173.509 68.711
0.11 168.212 68.169
0.12 164.077 67.595
0.13 162.606 67.221
0.14 162.853 67.247
0.15 162.983 67.351
0.16 163.925 67.045
0.17 164.956 66.517
0.18 165.924 66.085
0.19 167.355 65.894
0.20 167.647 65.846
0.21 166.298 64.919
0.22 161.410 62.187
0.23 153.526 57.785
0.24 165.766 54.354
0.25 168.748 53.206
0.26 --undefined-- 53.448
0.27 --undefined-- 54.127
0.28 --undefined-- 55.655
0.29 --undefined-- 59.306
0.30 203.826 63.695
0.31 192.614 66.988
0.32 186.680 68.973
0.33 182.375 69.916
0.34 180.929 70.101
0.35 181.195 69.757
0.36 182.427 69.138
0.37 184.321 68.477
0.38 185.370 68.002
0.39 185.158 67.721
0.40 185.617 67.452
0.41 186.016 67.089
0.42 186.064 66.486
0.43 187.389 65.375
0.44 189.154 63.998
0.45 188.081 63.138
0.46 186.209 62.740
0.47 183.925 62.539
0.48 182.274 62.867
0.49 178.747 64.040
0.50 175.793 64.925
0.51 174.566 64.648
0.52 172.061 63.869
0.53 170.435 63.532
0.54 169.342 63.317
0.55 166.638 62.988
0.56 166.383 62.962
0.57 166.184 62.875
0.58 163.058 62.689
0.59 165.405 62.695
0.60 167.711 62.595
0.61 168.156 62.344
0.62 169.686 61.898
0.63 172.072 61.359
0.64 174.869 60.391
0.65 176.486 58.330
0.66 177.073 55.412
0.67 --undefined-- 53.857
0.68 --undefined-- 53.874
0.69 --undefined-- 56.679
0.70 228.148 61.245
0.71 224.289 63.842
0.72 221.934 64.732
0.73 222.212 64.901
0.74 222.914 65.104
0.75 223.488 65.309
0.76 223.988 65.424
0.77 225.106 65.552
0.78 225.426 65.640
0.79 226.385 65.756
0.80 226.916 65.813
0.81 228.127 65.688
0.82 228.611 65.562
0.83 229.836 65.575
0.84 233.070 65.684
0.85 233.825 65.873
0.86 234.049 66.022
0.87 234.386 65.734
0.88 233.123 65.030
0.89 229.559 64.565
0.90 225.413 65.408
0.91 225.119 67.539
0.92 229.724 68.874
0.93 213.940 69.258
0.94 209.416 70.625
0.95 202.326 72.655
0.96 199.394 74.228
0.97 193.434 75.001
0.98 189.645 75.264
0.99 188.173 75.085
1.00 187.900 74.122
1.01 187.525 71.879
1.02 186.877 67.636
1.03 186.885 61.856
1.04 188.507 58.028
1.05 189.581 55.872
1.06 189.064 53.835
1.07 --undefined-- 52.519
1.08 --undefined-- 51.065
1.09 --undefined-- 51.121
1.10 --undefined-- 52.317
1.11 --undefined-- 53.496
1.12 --undefined-- 52.856
1.13 --undefined-- 50.258
1.14 --undefined-- 48.296
1.15 --undefined-- 49.279
1.16 --undefined-- 51.594
1.17 --undefined-- 51.910
1.18 --undefined-- 50.649
1.19 --undefined-- 50.619
1.20 --undefined-- 52.916
1.21 --undefined-- 53.298
1.22 --undefined-- 50.939
1.23 --undefined-- 49.296
1.24 --undefined-- 49.820
1.25 --undefined-- 49.861
1.26 --undefined-- 49.349
1.27 --undefined-- 50.489
1.28 --undefined-- 51.105
1.29 --undefined-- 50.870
1.30 --undefined-- 50.748
1.31 --undefined-- 50.705
1.32 --undefined-- 50.754
1.33 --undefined-- 51.038
1.34 --undefined-- 52.685
1.35 --undefined-- 53.020
1.36 --undefined-- 53.703
1.37 --undefined-- 57.106
1.38 --undefined-- 59.925
1.39 285.910 60.262
1.40 241.514 59.990
1.41 237.291 62.884
1.42 232.681 65.851
1.43 227.404 68.280
1.44 212.621 70.237
1.45 206.289 70.887
1.46 200.542 70.285
1.47 195.228 69.452
1.48 194.098 68.986
1.49 197.557 68.397
1.50 204.719 67.433
1.51 208.754 66.689
1.52 208.630 66.493
1.53 209.030 66.422
1.54 210.144 66.275
1.55 210.342 66.152
1.56 210.077 66.120
1.57 210.380 66.050
1.58 211.327 65.892
1.59 212.026 65.931
1.60 212.950 66.089
1.61 212.616 66.061
1.62 210.930 65.773
1.63 208.989 65.115
1.64 207.816 63.512
1.65 203.983 60.343
1.66 --undefined-- 57.339
1.67 --undefined-- 56.046
1.68 --undefined-- 55.388
1.69 --undefined-- 57.074
1.70 --undefined-- 61.247
1.71 227.654 64.983
1.72 208.803 66.894
1.73 196.093 68.133
1.74 188.666 69.229
1.75 182.741 69.894
1.76 182.450 70.137
1.77 185.756 70.127
1.78 193.176 69.989
1.79 204.361 69.822
1.80 218.292 70.281
1.81 236.751 71.054
1.82 256.040 70.793
1.83 282.214 69.722
1.84 153.533 69.597
1.85 161.042 70.007
1.86 165.171 69.597
1.87 165.421 67.775
1.88 162.183 64.380
1.89 163.643 60.567
1.90 168.157 57.697
1.91 168.638 55.522
1.92 --undefined-- 54.333
1.93 --undefined-- 51.353
1.94 --undefined-- 49.428
1.95 --undefined-- 53.147
1.96 --undefined-- 56.302
1.97 --undefined-- 60.578
1.98 212.874 65.440
1.99 200.191 69.227
2.00 195.858 71.527
2.01 190.123 72.133
2.02 183.543 71.379
2.03 180.738 70.068
2.04 182.575 69.062
2.05 189.119 68.524
2.06 197.135 67.728
2.07 204.712 66.118
2.08 212.368 64.592
2.09 226.116 64.814
2.10 234.651 65.526
2.11 241.637 65.963
2.12 248.653 66.362
2.13 255.406 66.410
2.14 264.376 66.022
2.15 268.377 65.533
2.16 267.312 65.233
2.17 260.522 65.191
2.18 253.167 65.355
2.19 241.853 65.590
2.20 227.509 65.673
2.21 216.567 65.494
2.22 212.644 65.309
2.23 210.318 65.058
2.24 205.364 63.610
2.25 184.280 60.236
2.26 189.930 56.011
2.27 199.709 52.218
2.28 --undefined-- 50.659
2.29 --undefined-- 56.246
2.30 --undefined-- 61.710
2.31 185.144 65.018
2.32 170.771 66.345
2.33 162.071 66.196
2.34 165.650 65.509
2.35 169.854 64.672
2.36 172.036 62.701
2.37 158.113 58.876
2.38 --undefined-- 54.139
2.39 --undefined-- 51.759
2.40 --undefined-- 54.310
2.41 259.741 59.780
2.42 249.086 63.484
2.43 248.046 64.914
2.44 250.046 64.904
2.45 252.108 63.736
2.46 252.448 60.837
2.47 --undefined-- 55.969
2.48 --undefined-- 51.217
2.49 --undefined-- 48.516
2.50 --undefined-- 47.565
2.51 --undefined-- 48.725
2.52 --undefined-- 50.672
2.53 --undefined-- 51.952
2.54 --undefined-- 52.658
2.55 274.906 55.828
2.56 248.231 60.451
2.57 238.163 63.812
2.58 234.312 65.333
2.59 237.211 65.474
2.60 244.671 65.289
2.61 250.063 65.191
2.62 254.418 65.162
2.63 254.811 65.244
2.64 255.235 65.209
2.65 255.453 65.126
2.66 255.580 65.129
2.67 256.244 65.068
2.68 256.088 64.959
2.69 252.921 65.069
2.70 248.950 65.143
2.71 241.714 64.725
2.72 232.546 63.557
2.73 219.196 61.835
2.74 194.018 61.709
2.75 183.075 64.265
2.76 180.230 66.511
2.77 172.587 66.978
2.78 164.342 65.815
2.79 173.993 64.318
2.80 181.820 63.863
2.81 176.926 64.433
2.82 177.455 65.079
2.83 178.779 65.210
2.84 179.664 65.131
2.85 181.652 65.180
2.86 185.510 65.346
2.87 190.730 65.451
2.88 195.023 65.268
2.89 199.394 64.686
2.90 203.683 63.734
2.91 206.606 62.569
2.92 207.230 60.578
2.93 202.975 56.583
2.94 --undefined-- 50.749
2.95 --undefined-- 49.415
2.96 --undefined-- 52.244
2.97 --undefined-- 57.753
2.98 227.588 62.220
2.99 211.209 64.263
3.00 200.601 65.211
3.01 194.557 66.482
3.02 188.393 67.478
3.03 185.620 67.668
3.04 185.616 67.599
3.05 185.636 67.510
3.06 185.524 67.120
3.07 185.830 66.498
3.08 185.943 65.875
3.09 185.855 65.394
3.10 186.498 64.901
3.11 186.812 64.212
3.12 185.985 62.836
3.13 185.015 59.933
3.14 185.781 55.219
3.15 --undefined-- 51.397
3.16 --undefined-- 53.189
3.17 --undefined-- 54.984
3.18 --undefined-- 54.352
3.19 --undefined-- 53.607
3.20 207.754 56.483
3.21 207.335 59.611
3.22 213.009 61.532
3.23 219.562 63.344
3.24 205.900 66.231
3.25 198.861 69.129
3.26 196.496 71.145
3.27 192.361 72.349
3.28 188.308 72.741
3.29 185.016 72.331
3.30 184.601 71.527
3.31 187.893 70.815
3.32 188.889 70.352
3.33 188.586 69.961
3.34 187.053 69.599
3.35 185.146 69.238
3.36 184.095 68.749
3.37 183.745 68.147
3.38 182.658 67.345
3.39 180.141 65.749
3.40 168.143 62.938
3.41 148.691 59.395
3.42 150.582 56.394
3.43 --undefined-- 54.780
3.44 --undefined-- 55.293
3.45 --undefined-- 55.057
3.46 --undefined-- 51.854
3.47 --undefined-- 47.112
3.48 --undefined-- 48.748
3.49 --undefined-- 50.952
3.50 --undefined-- 53.506
3.51 --undefined-- 56.545
3.52 --undefined-- 57.001
3.53 --undefined-- 54.646
3.54 --undefined-- 52.940
3.55 --undefined-- 52.675
3.56 --undefined-- 51.881
3.57 --undefined-- 52.896
3.58 --undefined-- 54.977
3.59 219.243 58.012
3.60 219.317 60.683
3.61 204.813 62.383
3.62 181.122 63.400
3.63 170.376 63.184
3.64 161.203 61.389
3.65 157.901 59.354
3.66 --undefined-- 58.305
3.67 --undefined-- 57.188
3.68 --undefined-- 55.420
3.69 --undefined-- 53.498
3.70 --undefined-- 52.370
3.71 --undefined-- 50.972
3.72 --undefined-- 49.979
3.73 --undefined-- 49.957
3.74 --undefined-- 50.202
3.75 --undefined-- 49.320
3.76 --undefined-- 50.150
3.77 --undefined-- 50.722
3.78 --undefined-- 48.026
3.79 --undefined-- 47.050
3.80 --undefined-- 51.255
3.81 --undefined-- 52.515
3.82 --undefined-- 50.678
3.83 --undefined-- 50.393
3.84 --undefined-- 55.388
3.85 --undefined-- 61.389
3.86 201.735 65.946
3.87 193.794 69.236
3.88 189.789 71.199
3.89 185.792 71.654
3.90 182.060 71.149
3.91 180.594 70.592
3.92 180.314 70.031
3.93 179.875 69.034
3.94 179.489 67.502
3.95 180.492 65.800
3.96 181.127 64.595
3.97 182.739 64.082
3.98 184.142 63.855
3.99 187.252 63.541
4.00 190.392 62.982
4.01 192.045 61.983
4.02 192.576 60.154
4.03 192.739 57.611
4.04 --undefined-- 56.908
4.05 --undefined-- 56.636
4.06 --undefined-- 53.515
4.07 --undefined-- 49.806
4.08 --undefined-- 50.899
4.09 --undefined-- 51.432
4.10 --undefined-- 49.878
4.11 --undefined-- 49.312
4.12 --undefined-- 50.200
4.13 --undefined-- 50.011
4.14 --undefined-- 50.114
4.15 --undefined-- 52.749
4.16 --undefined-- 53.629
4.17 --undefined-- 52.347
4.18 --undefined-- 53.084
4.19 --undefined-- 56.946
4.20 248.847 61.385
4.21 245.820 64.090
4.22 246.753 65.169
4.23 246.405 65.375
4.24 246.977 65.401
4.25 247.449 65.652
4.26 247.156 65.929
4.27 246.674 66.073
4.28 249.317 66.127
4.29 250.474 66.128
4.30 250.770 66.142
4.31 250.400 66.131
4.32 250.133 66.043
4.33 250.602 65.824
4.34 250.082 65.609
4.35 250.225 65.570
4.36 249.027 65.562
4.37 247.227 65.482
4.38 245.370 65.375
4.39 243.996 65.008
4.40 241.852 63.683
4.41 236.855 60.424
4.42 221.218 54.822
4.43 --undefined-- 49.258
4.44 --undefined-- 49.711
4.45 --undefined-- 51.190
4.46 --undefined-- 51.231
4.47 --undefined-- 50.727
4.48 --undefined-- 50.745
4.49 --undefined-- 51.324
4.50 --undefined-- 54.611
4.51 --undefined-- 58.332
4.52 203.795 62.592
4.53 192.562 66.495
4.54 188.875 69.102
4.55 185.068 70.363
4.56 182.871 70.532
4.57 182.065 69.960
4.58 182.535 69.138
4.59 182.867 68.286
4.60 182.431 66.931
4.61 182.178 64.131
4.62 182.718 59.242
4.63 --undefined-- 54.634
4.64 --undefined-- 53.843
4.65 --undefined-- 55.495
4.66 --undefined-- 57.746
4.67 --undefined-- 58.008
4.68 --undefined-- 58.607
4.69 --undefined-- 61.667
4.70 --undefined-- 63.108
4.71 --undefined-- 62.772
4.72 --undefined-- 62.720
4.73 --undefined-- 63.792
4.74 --undefined-- 64.913
4.75 --undefined-- 65.701
4.76 --undefined-- 66.225
4.77 166.183 66.861
4.78 167.305 67.845
4.79 169.768 68.577
4.80 169.143 68.514
4.81 170.377 67.546
4.82 176.771 66.999
4.83 186.646 67.507
4.84 196.033 67.462
4.85 202.249 65.850
4.86 210.333 62.688
4.87 209.828 58.436
4.88 212.315 53.498
4.89 --undefined-- 51.231
4.90 --undefined-- 52.859
4.91 --undefined-- 54.100
4.92 --undefined-- 54.054
4.93 --undefined-- --undefined--
4.94 --undefined-- --undefined--
4.95 --undefined-- --undefined--
4.96 --undefined-- --undefined--
