Time Pitch Intensity
0.01 --undefined-- --undefined--
0.02 144.948 --undefined--
0.03 144.634 --undefined--
0.04 144.361 --undefined--
0.05 143.928 68.140
0.06 144.406 68.776
0.07 146.347 69.348
0.08 146.902 69.097
0.09 --undefined-- 67.832
0.10 --undefined-- 66.828
0.11 --undefined-- 66.343
0.12 --undefined-- 64.086
0.13 --undefined-- 57.932
0.14 --undefined-- 48.245
0.15 --undefined-- 42.405
0.16 --undefined-- 43.611
0.17 --undefined-- 45.272
0.18 --undefined-- 43.971
0.19 --undefined-- 41.280
0.20 --undefined-- 39.419
0.21 --undefined-- 38.343
0.22 --undefined-- 37.798
0.23 --undefined-- 39.991
0.24 --undefined-- 45.936
0.25 --undefined-- 53.912
0.26 --undefined-- 63.791
0.27 274.530 70.671
0.28 276.361 74.335
0.29 278.721 75.938
0.30 274.946 76.498
0.31 266.827 76.256
0.32 257.851 75.402
0.33 250.741 73.929
0.34 244.370 71.046
0.35 236.980 65.734
0.36 242.404 58.763
0.37 235.377 56.703
0.38 251.693 60.780
0.39 262.258 65.958
0.40 264.743 69.215
0.41 265.716 70.670
0.42 263.897 70.972
0.43 259.239 70.430
0.44 251.893 68.832
0.45 243.973 66.372
0.46 245.054 63.381
0.47 249.878 59.427
0.48 --undefined-- 54.262
0.49 --undefined-- 50.000
0.50 --undefined-- 49.240
0.51 --undefined-- 51.787
0.52 --undefined-- 59.016
0.53 241.719 67.759
0.54 229.955 73.098
0.55 219.640 74.993
0.56 204.460 73.975
0.57 187.533 70.856
0.58 179.568 66.508
0.59 188.001 60.850
0.60 202.369 55.853
0.61 209.237 56.554
0.62 --undefined-- 61.876
0.63 180.348 67.116
0.64 175.160 70.330
0.65 171.167 71.506
0.66 169.387 70.396
0.67 164.876 66.496
0.68 161.255 59.911
0.69 --undefined-- 53.891
0.70 --undefined-- 52.453
0.71 --undefined-- 52.588
0.72 --undefined-- 53.191
0.73 --undefined-- 56.999
0.74 166.124 63.017
0.75 159.734 67.130
0.76 152.163 69.259
0.77 145.000 70.021
0.78 139.774 69.687
0.79 135.023 68.532
0.80 131.338 67.044
0.81 129.108 65.402
0.82 126.692 63.525
0.83 124.309 61.024
0.84 117.830 57.396
0.85 112.989 53.383
0.86 --undefined-- 50.074
0.87 --undefined-- 48.576
0.88 --undefined-- 48.987
0.89 --undefined-- 50.882
0.90 --undefined-- 55.628
0.91 170.047 60.605
0.92 160.776 64.515
0.93 161.239 67.254
0.94 167.077 68.966
0.95 172.617 69.658
0.96 177.551 69.570
0.97 180.924 69.377
0.98 181.001 69.457
0.99 181.262 69.302
1.00 181.671 68.940
1.01 180.559 68.763
1.02 181.153 68.110
1.03 184.196 66.468
1.04 190.639 66.139
1.05 197.227 68.793
1.06 200.728 71.159
1.07 206.835 72.663
1.08 211.474 73.398
1.09 213.011 73.223
1.10 212.473 72.408
1.11 209.594 71.306
1.12 206.166 69.858
1.13 206.496 67.651
1.14 209.216 64.481
1.15 225.597 61.103
1.16 222.901 59.232
1.17 205.863 58.921
1.18 200.943 58.824
1.19 210.478 61.788
1.20 218.591 67.530
1.21 219.074 71.735
1.22 215.023 73.550
1.23 209.107 73.551
1.24 204.310 72.842
1.25 198.983 71.882
1.26 191.881 70.400
1.27 186.356 68.048
1.28 182.832 64.357
1.29 174.439 59.148
1.30 --undefined-- 52.840
1.31 --undefined-- 47.780
1.32 --undefined-- 46.596
1.33 --undefined-- 47.451
1.34 --undefined-- 48.525
1.35 --undefined-- 50.206
1.36 --undefined-- 57.076
1.37 201.550 63.863
1.38 191.399 67.787
1.39 185.667 69.385
1.40 185.990 69.518
1.41 185.656 68.368
1.42 189.101 66.418
1.43 197.130 66.200
1.44 196.402 66.983
1.45 195.425 67.064
1.46 192.367 66.764
1.47 186.694 66.402
1.48 178.466 66.617
1.49 172.469 68.875
1.50 159.037 70.869
1.51 144.761 70.802
1.52 133.153 69.551
1.53 125.821 68.442
1.54 119.684 67.214
1.55 114.347 65.932
1.56 109.313 65.357
1.57 106.991 65.173
1.58 107.520 65.168
1.59 109.926 65.318
1.60 111.340 64.810
1.61 110.393 63.140
1.62 109.079 60.130
1.63 106.952 56.188
1.64 --undefined-- 53.701
1.65 --undefined-- 55.297
1.66 181.125 58.722
1.67 170.034 61.414
1.68 156.352 63.023
1.69 157.156 63.844
1.70 163.786 64.064
1.71 171.963 64.467
1.72 177.031 65.646
1.73 179.489 67.253
1.74 181.036 68.891
1.75 180.594 70.463
1.76 179.017 72.227
1.77 179.287 73.621
1.78 174.279 73.698
1.79 156.865 73.080
1.80 151.407 72.662
1.81 146.938 71.664
1.82 144.771 69.163
1.83 144.733 65.485
1.84 147.112 62.479
1.85 147.555 60.473
1.86 146.354 57.170
1.87 --undefined-- 51.535
1.88 --undefined-- 46.175
1.89 --undefined-- 44.587
1.90 --undefined-- 44.640
1.91 --undefined-- 48.143
1.92 --undefined-- 51.873
1.93 185.032 55.669
1.94 176.136 59.137
1.95 174.755 60.706
1.96 175.114 60.454
1.97 174.609 58.600
1.98 174.151 54.762
1.99 --undefined-- 49.516
2.00 --undefined-- 45.985
2.01 --undefined-- 43.637
2.02 --undefined-- 42.055
2.03 --undefined-- 41.835
2.04 --undefined-- 41.439
2.05 --undefined-- 40.479
2.06 --undefined-- 39.718
2.07 --undefined-- 38.914
2.08 --undefined-- 38.714
2.09 --undefined-- 40.977
2.10 --undefined-- 48.758
2.11 --undefined-- 55.270
2.12 --undefined-- 57.616
2.13 --undefined-- 56.918
2.14 175.283 57.432
2.15 168.295 59.538
2.16 160.666 60.602
2.17 153.836 60.869
2.18 148.905 61.051
2.19 144.717 61.117
2.20 142.099 60.370
2.21 137.999 58.307
2.22 138.261 54.579
2.23 --undefined-- 48.914
2.24 --undefined-- 44.068
2.25 --undefined-- 44.681
2.26 --undefined-- 45.883
2.27 --undefined-- 46.940
2.28 --undefined-- 48.840
2.29 --undefined-- 50.239
2.30 --undefined-- 50.955
2.31 --undefined-- 50.986
2.32 --undefined-- 50.837
2.33 --undefined-- 50.825
2.34 --undefined-- 50.949
2.35 --undefined-- 50.950
2.36 --undefined-- 50.379
2.37 --undefined-- 49.569
2.38 --undefined-- 49.204
2.39 --undefined-- 48.852
2.40 --undefined-- 48.820
2.41 --undefined-- 55.065
2.42 --undefined-- 64.490
2.43 --undefined-- 70.359
2.44 --undefined-- 72.702
2.45 --undefined-- 72.508
2.46 --undefined-- 71.129
2.47 153.237 69.594
2.48 147.742 68.442
2.49 143.240 67.813
2.50 139.126 67.375
2.51 135.840 66.755
2.52 133.529 65.801
2.53 131.953 64.660
2.54 129.762 63.609
2.55 129.362 62.238
2.56 130.433 61.189
2.57 131.021 60.958
2.58 132.531 60.316
2.59 133.916 59.016
2.60 136.022 57.537
2.61 143.968 57.370
2.62 145.044 58.907
2.63 146.623 60.504
2.64 146.593 60.947
2.65 143.966 59.541
2.66 145.783 60.218
2.67 149.031 65.281
2.68 149.686 68.681
2.69 149.076 70.115
2.70 147.924 70.866
2.71 147.564 71.238
2.72 146.841 70.588
2.73 146.448 69.462
2.74 146.672 68.885
2.75 146.463 68.600
2.76 146.710 68.209
2.77 146.971 67.713
2.78 146.667 67.021
2.79 146.669 65.962
2.80 146.445 64.386
2.81 145.990 62.497
2.82 145.364 60.301
2.83 145.564 57.326
2.84 --undefined-- 53.714
2.85 --undefined-- 50.191
2.86 --undefined-- 46.185
2.87 --undefined-- 42.162
2.88 --undefined-- 40.329
2.89 --undefined-- 39.679
2.90 --undefined-- 40.667
2.91 --undefined-- 42.719
2.92 --undefined-- 44.757
2.93 --undefined-- 46.088
2.94 --undefined-- 46.494
2.95 --undefined-- 46.710
2.96 --undefined-- 47.085
2.97 --undefined-- 47.591
2.98 --undefined-- 48.118
2.99 --undefined-- 48.271
3.00 --undefined-- 48.690
3.01 --undefined-- 49.388
3.02 --undefined-- 49.660
3.03 --undefined-- 50.493
3.04 --undefined-- 51.198
3.05 --undefined-- 51.372
3.06 --undefined-- 51.554
3.07 --undefined-- 50.977
3.08 --undefined-- 51.190
3.09 --undefined-- 52.759
3.10 --undefined-- 53.822
3.11 --undefined-- 53.642
3.12 --undefined-- 52.577
3.13 --undefined-- 52.042
3.14 --undefined-- 51.502
3.15 --undefined-- 50.227
3.16 --undefined-- 49.308
3.17 --undefined-- 48.388
3.18 --undefined-- 46.647
3.19 --undefined-- 44.258
3.20 --undefined-- 42.126
3.21 --undefined-- 40.442
3.22 --undefined-- 38.754
3.23 --undefined-- 37.435
3.24 --undefined-- 36.905
3.25 --undefined-- 37.553
3.26 --undefined-- 45.567
3.27 --undefined-- 58.814
3.28 --undefined-- 67.393
3.29 --undefined-- 71.922
3.30 --undefined-- 73.466
3.31 186.263 73.484
3.32 186.873 73.330
3.33 191.839 73.460
3.34 197.381 73.716
3.35 200.988 73.401
3.36 203.214 72.253
3.37 205.399 70.503
3.38 205.269 67.727
3.39 201.319 62.975
3.40 --undefined-- 57.065
3.41 --undefined-- 54.324
3.42 --undefined-- 54.342
3.43 --undefined-- 57.921
3.44 --undefined-- 62.273
3.45 --undefined-- 63.995
3.46 --undefined-- 63.796
3.47 --undefined-- 63.752
3.48 245.697 65.474
3.49 252.156 68.063
3.50 260.931 70.240
3.51 265.299 71.166
3.52 264.386 70.057
3.53 266.260 66.767
3.54 273.134 62.758
3.55 --undefined-- 63.577
3.56 --undefined-- 67.683
3.57 157.352 69.693
3.58 153.635 69.882
3.59 152.299 69.331
3.60 150.224 68.285
3.61 293.174 66.210
3.62 279.758 63.093
3.63 288.580 62.982
3.64 287.671 66.609
3.65 274.919 70.233
3.66 266.960 73.197
3.67 261.453 75.032
3.68 257.108 75.444
3.69 252.981 74.331
3.70 248.691 71.372
3.71 242.940 65.996
3.72 249.053 58.233
3.73 251.528 52.647
3.74 254.873 50.584
3.75 --undefined-- 48.594
3.76 --undefined-- 47.802
3.77 --undefined-- 48.172
3.78 --undefined-- 48.837
3.79 --undefined-- 50.327
3.80 --undefined-- 53.091
3.81 --undefined-- 56.832
3.82 220.424 59.864
3.83 214.682 61.502
3.84 211.555 62.133
3.85 209.574 62.397
3.86 206.662 62.322
3.87 200.172 61.327
3.88 192.430 58.812
3.89 --undefined-- 54.706
3.90 --undefined-- 51.474
3.91 --undefined-- 50.894
3.92 --undefined-- 51.066
3.93 --undefined-- 51.793
3.94 --undefined-- 52.156
3.95 --undefined-- 51.433
3.96 --undefined-- 49.557
3.97 --undefined-- 47.433
3.98 --undefined-- 46.232
3.99 --undefined-- 45.391
4.00 --undefined-- 46.211
4.01 --undefined-- 53.037
4.02 --undefined-- 62.641
4.03 --undefined-- 69.343
4.04 211.753 72.292
4.05 202.405 72.386
4.06 185.911 71.220
4.07 175.690 70.868
4.08 169.258 71.025
4.09 164.389 70.453
4.10 165.930 68.666
4.11 166.843 67.300
4.12 168.386 67.687
4.13 170.656 67.858
4.14 171.605 65.747
4.15 --undefined-- 60.497
4.16 188.928 55.535
4.17 194.350 56.928
4.18 202.710 62.149
4.19 214.281 67.235
4.20 212.362 70.623
4.21 209.901 72.495
4.22 207.561 72.998
4.23 202.638 72.382
4.24 196.750 70.908
4.25 190.345 68.513
4.26 185.950 65.178
4.27 187.478 60.787
4.28 --undefined-- 54.709
4.29 --undefined-- 48.083
4.30 --undefined-- 45.609
4.31 --undefined-- 47.573
4.32 --undefined-- 49.981
4.33 --undefined-- 51.547
4.34 --undefined-- 54.502
4.35 --undefined-- 60.038
4.36 203.561 64.232
4.37 199.252 66.356
4.38 200.150 67.027
4.39 207.978 66.731
4.40 217.145 66.252
4.41 224.131 66.281
4.42 --undefined-- 65.852
4.43 --undefined-- 64.723
4.44 --undefined-- 64.069
4.45 --undefined-- 64.475
4.46 --undefined-- 65.527
4.47 215.963 67.741
4.48 213.562 70.625
4.49 209.643 72.182
4.50 193.693 72.247
4.51 176.369 71.885
4.52 165.303 71.616
4.53 157.977 70.980
4.54 153.111 69.560
4.55 149.672 67.340
4.56 147.978 64.411
4.57 146.335 60.569
4.58 --undefined-- 55.044
4.59 --undefined-- 49.449
4.60 --undefined-- 47.859
4.61 --undefined-- 46.786
4.62 --undefined-- 45.402
4.63 --undefined-- 44.042
4.64 --undefined-- 42.102
4.65 --undefined-- 40.809
4.66 --undefined-- 39.774
4.67 --undefined-- 38.797
4.68 --undefined-- 38.754
4.69 --undefined-- 39.464
4.70 --undefined-- 39.777
4.71 --undefined-- 39.254
4.72 --undefined-- 38.487
4.73 --undefined-- 38.488
4.74 --undefined-- 38.679
4.75 --undefined-- 38.181
4.76 --undefined-- 37.544
4.77 --undefined-- 38.305
4.78 --undefined-- 39.494
4.79 --undefined-- 39.804
4.80 --undefined-- 39.606
4.81 --undefined-- 39.097
4.82 --undefined-- 38.786
4.83 --undefined-- 38.452
4.84 --undefined-- 37.833
4.85 --undefined-- 37.832
4.86 --undefined-- 37.838
4.87 --undefined-- 37.396
4.88 --undefined-- 37.417
4.89 --undefined-- 38.034
4.90 --undefined-- 38.443
4.91 --undefined-- 38.764
4.92 --undefined-- 39.184
4.93 --undefined-- 39.677
4.94 --undefined-- 39.638
4.95 --undefined-- 38.828
4.96 --undefined-- 38.271
4.97 --undefined-- 39.218
4.98 --undefined-- 40.419
4.99 --undefined-- 46.925
5.00 --undefined-- 58.344
5.01 --undefined-- 65.179
5.02 --undefined-- 69.241
5.03 194.426 72.052
5.04 183.190 73.364
5.05 175.373 73.360
5.06 174.579 72.624
5.07 176.452 71.292
5.08 177.233 69.082
5.09 177.426 65.789
5.10 199.100 63.845
5.11 206.386 64.919
5.12 213.545 65.925
5.13 220.413 65.885
5.14 225.310 64.722
5.15 225.155 62.845
5.16 227.316 61.073
5.17 230.203 59.644
5.18 224.276 59.697
5.19 --undefined-- 64.072
5.20 --undefined-- 69.538
5.21 234.789 72.817
5.22 222.496 74.065
5.23 218.362 74.197
5.24 216.654 73.683
5.25 216.083 72.884
5.26 216.250 71.928
5.27 218.986 70.398
5.28 225.733 67.878
5.29 244.059 65.262
5.30 242.751 63.794
5.31 238.390 62.862
5.32 230.767 62.691
5.33 230.674 63.263
5.34 230.182 64.020
5.35 222.400 65.710
5.36 214.962 68.214
5.37 200.539 70.227
5.38 184.002 71.245
5.39 172.248 70.999
5.40 162.618 69.036
5.41 155.642 65.270
5.42 148.298 60.283
5.43 --undefined-- 54.543
5.44 --undefined-- 49.762
5.45 --undefined-- 47.892
5.46 --undefined-- 46.216
5.47 --undefined-- 44.230
5.48 --undefined-- 42.889
5.49 --undefined-- 41.523
5.50 --undefined-- 40.640
5.51 --undefined-- 41.103
5.52 --undefined-- 42.600
5.53 --undefined-- 44.474
5.54 --undefined-- 46.066
5.55 --undefined-- 46.911
5.56 --undefined-- 47.391
5.57 --undefined-- 48.017
5.58 --undefined-- 49.465
5.59 --undefined-- 52.041
5.60 158.449 54.860
5.61 154.643 56.861
5.62 154.148 58.054
5.63 154.090 58.754
5.64 155.322 --undefined--
5.65 157.254 --undefined--
5.66 --undefined-- --undefined--
5.67 --undefined-- --undefined--
