Time Pitch Intensity
0.01 --undefined-- --undefined--
0.02 --undefined-- --undefined--
0.03 --undefined-- --undefined--
0.04 --undefined-- --undefined--
0.05 --undefined-- 49.965
0.06 --undefined-- 49.671
0.07 --undefined-- 49.010
0.08 --undefined-- 48.451
0.09 --undefined-- 49.050
0.10 --undefined-- 49.710
0.11 --undefined-- 49.406
0.12 --undefined-- 47.482
0.13 --undefined-- 45.840
0.14 --undefined-- 48.833
0.15 --undefined-- 51.299
0.16 --undefined-- 51.952
0.17 --undefined-- 53.649
0.18 278.407 58.720
0.19 263.464 62.385
0.20 258.109 64.341
0.21 258.586 65.709
0.22 262.120 67.020
0.23 268.297 68.223
0.24 274.176 69.268
0.25 277.014 70.108
0.26 277.320 70.673
0.27 278.023 71.049
0.28 278.431 71.344
0.29 276.867 71.486
0.30 273.003 71.373
0.31 268.189 70.925
0.32 262.342 70.130
0.33 253.317 69.647
0.34 228.679 70.388
0.35 219.177 71.219
0.36 210.117 70.593
0.37 201.342 67.887
0.38 --undefined-- 63.117
0.39 --undefined-- 58.246
0.40 --undefined-- 55.781
0.41 --undefined-- 53.369
0.42 --undefined-- 49.480
0.43 --undefined-- 46.118
0.44 --undefined-- 45.024
0.45 --undefined-- 46.728
0.46 --undefined-- 50.524
0.47 --undefined-- 51.978
0.48 --undefined-- 50.717
0.49 --undefined-- 50.331
0.50 --undefined-- 53.354
0.51 --undefined-- 55.069
0.52 --undefined-- 54.031
0.53 --undefined-- 51.866
0.54 --undefined-- 51.834
0.55 --undefined-- 53.088
0.56 --undefined-- 54.204
0.57 --undefined-- 54.492
0.58 --undefined-- 55.958
0.59 225.674 60.279
0.60 220.325 63.929
0.61 198.909 66.385
0.62 180.872 67.711
0.63 171.243 67.506
0.64 162.103 66.157
0.65 159.394 64.991
0.66 158.370 64.052
0.67 158.481 62.653
0.68 162.672 61.593
0.69 167.043 61.608
0.70 167.357 61.523
0.71 169.136 61.297
0.72 171.812 61.411
0.73 175.819 61.966
0.74 181.480 63.215
0.75 188.481 64.530
0.76 197.444 65.116
0.77 211.001 65.305
0.78 231.920 66.201
0.79 240.267 67.425
0.80 247.063 68.339
0.81 255.213 69.379
0.82 260.015 70.554
0.83 263.959 71.186
0.84 268.329 71.204
0.85 269.849 71.431
0.86 267.147 72.110
0.87 261.916 72.468
0.88 252.632 72.049
0.89 240.552 71.031
0.90 227.472 70.375
0.91 212.369 70.563
0.92 198.898 71.424
0.93 190.482 72.217
0.94 184.629 72.179
0.95 181.378 71.636
0.96 181.191 71.155
0.97 181.894 70.073
0.98 182.554 68.151
0.99 182.916 66.803
1.00 186.666 66.928
1.01 190.078 67.285
1.02 193.329 67.327
1.03 197.757 67.288
1.04 201.711 67.240
1.05 207.082 66.979
1.06 213.040 67.090
1.07 218.106 67.629
1.08 223.476 68.177
1.09 235.573 69.135
1.10 235.384 70.388
1.11 236.854 71.333
1.12 238.632 71.844
1.13 240.623 72.075
1.14 242.612 71.997
1.15 244.868 71.448
1.16 248.253 70.638
1.17 250.701 70.210
1.18 252.489 70.307
1.19 254.633 70.434
1.20 254.189 70.169
1.21 252.745 69.363
1.22 252.866 68.433
1.23 253.159 67.759
1.24 252.601 67.404
1.25 253.469 67.463
1.26 255.229 67.545
1.27 257.580 67.259
1.28 259.037 66.734
1.29 258.684 66.313
1.30 258.092 65.947
1.31 257.962 65.310
1.32 255.608 63.707
1.33 237.429 60.526
1.34 229.400 55.935
1.35 225.129 50.943
1.36 --undefined-- 47.600
1.37 --undefined-- 47.957
1.38 --undefined-- 55.237
1.39 --undefined-- 63.331
1.40 250.868 67.942
1.41 240.554 69.519
1.42 229.903 69.257
1.43 226.325 68.633
1.44 224.304 68.369
1.45 223.506 68.525
1.46 223.672 69.124
1.47 225.825 70.013
1.48 229.832 70.735
1.49 235.835 70.752
1.50 240.041 69.854
1.51 241.137 68.455
1.52 241.172 67.317
1.53 241.082 66.658
1.54 240.320 66.097
1.55 239.676 65.624
1.56 238.888 65.156
1.57 237.949 64.470
1.58 235.533 63.385
1.59 230.184 61.436
1.60 221.293 58.196
1.61 212.569 54.008
1.62 --undefined-- 50.116
1.63 --undefined-- 47.611
1.64 --undefined-- 52.796
1.65 295.870 61.169
1.66 275.606 66.307
1.67 261.416 68.706
1.68 254.353 69.291
1.69 250.049 69.516
1.70 250.863 70.399
1.71 252.721 71.458
1.72 254.226 72.341
1.73 255.483 72.992
1.74 256.550 73.314
1.75 257.077 73.428
1.76 257.433 73.506
1.77 256.966 73.577
1.78 256.350 73.620
1.79 255.642 73.568
1.80 254.291 73.269
1.81 252.970 72.752
1.82 251.725 72.268
1.83 251.174 72.088
1.84 250.879 72.149
1.85 250.333 72.041
1.86 250.773 71.648
1.87 252.039 71.167
1.88 254.458 70.591
1.89 256.341 69.347
1.90 258.043 66.682
1.91 258.912 62.331
1.92 256.836 57.440
1.93 256.513 55.038
1.94 256.471 53.213
1.95 --undefined-- 49.862
1.96 --undefined-- 47.771
1.97 --undefined-- 49.667
1.98 --undefined-- 53.558
1.99 --undefined-- 55.435
2.00 --undefined-- 55.197
2.01 --undefined-- 53.873
2.02 --undefined-- 52.938
2.03 --undefined-- 52.203
2.04 --undefined-- 50.858
2.05 --undefined-- 51.958
2.06 --undefined-- 52.737
2.07 --undefined-- 51.284
2.08 --undefined-- 48.908
2.09 --undefined-- 46.775
2.10 --undefined-- 45.483
2.11 --undefined-- 44.560
2.12 --undefined-- 46.626
2.13 --undefined-- 48.106
2.14 --undefined-- 47.450
2.15 --undefined-- 45.699
2.16 --undefined-- 44.089
2.17 --undefined-- 47.114
2.18 --undefined-- 55.336
2.19 --undefined-- 62.210
2.20 200.816 66.969
2.21 195.709 69.932
2.22 191.654 71.400
2.23 191.584 71.751
2.24 192.058 71.500
2.25 192.591 71.232
2.26 194.535 71.041
2.27 198.542 70.361
2.28 206.627 69.020
2.29 223.539 68.322
2.30 234.580 68.526
2.31 246.326 68.974
2.32 269.122 69.871
2.33 278.984 70.523
2.34 288.417 70.830
2.35 293.656 70.849
2.36 150.797 70.564
2.37 158.398 70.155
2.38 169.833 69.518
2.39 188.676 68.276
2.40 205.445 66.197
2.41 213.443 64.291
2.42 209.590 64.161
2.43 204.325 65.322
2.44 194.439 67.628
2.45 187.303 69.961
2.46 179.799 71.054
2.47 167.667 70.816
2.48 157.715 70.038
2.49 268.146 69.571
2.50 250.749 69.820
2.51 236.542 70.061
2.52 230.336 69.652
2.53 218.456 68.578
2.54 208.751 67.351
2.55 206.090 66.592
2.56 201.109 66.252
2.57 205.076 65.722
2.58 213.205 64.820
2.59 215.970 64.083
2.60 217.210 63.327
2.61 217.220 61.823
2.62 213.674 59.088
2.63 201.581 54.948
2.64 --undefined-- 50.270
2.65 --undefined-- 47.219
2.66 --undefined-- 47.952
2.67 288.401 50.581
2.68 286.564 52.622
2.69 282.269 56.554
2.70 249.148 61.293
2.71 237.052 63.876
2.72 226.183 64.779
2.73 219.163 64.916
2.74 215.896 64.854
2.75 216.378 64.743
2.76 218.706 64.716
2.77 221.398 64.813
2.78 223.115 64.666
2.79 224.811 63.789
2.80 225.095 61.575
2.81 217.066 57.473
2.82 --undefined-- 51.162
2.83 --undefined-- 46.057
2.84 --undefined-- 50.035
2.85 --undefined-- 57.100
2.86 238.657 62.699
2.87 226.457 65.684
2.88 220.508 66.840
2.89 215.898 67.232
2.90 213.182 67.427
2.91 212.291 67.487
2.92 212.772 67.508
2.93 214.689 67.610
2.94 215.734 67.557
2.95 216.618 67.160
2.96 216.406 66.564
2.97 216.348 65.753
2.98 216.753 64.850
2.99 217.859 63.868
3.00 219.329 61.901
3.01 218.583 58.161
3.02 --undefined-- 53.853
3.03 --undefined-- 52.761
3.04 --undefined-- 52.161
3.05 --undefined-- 50.461
3.06 --undefined-- 48.631
3.07 --undefined-- 46.106
3.08 --undefined-- 44.734
3.09 --undefined-- 47.248
3.10 --undefined-- 50.018
3.11 --undefined-- 52.449
3.12 --undefined-- 54.648
3.13 --undefined-- 55.181
3.14 --undefined-- 55.882
3.15 260.830 58.306
3.16 259.216 60.977
3.17 --undefined-- 64.555
3.18 160.585 67.851
3.19 156.179 70.037
3.20 154.702 71.075
3.21 153.030 70.510
3.22 --undefined-- 67.769
3.23 --undefined-- 62.937
3.24 --undefined-- 59.019
3.25 --undefined-- 56.906
3.26 --undefined-- 54.598
3.27 --undefined-- 56.518
3.28 --undefined-- 58.223
3.29 --undefined-- 57.442
3.30 --undefined-- 54.521
3.31 --undefined-- 49.656
3.32 --undefined-- 45.025
3.33 --undefined-- 45.591
3.34 --undefined-- 49.336
3.35 --undefined-- 52.954
3.36 --undefined-- 55.042
3.37 --undefined-- 54.375
3.38 --undefined-- 50.491
3.39 --undefined-- 48.278
3.40 --undefined-- 51.337
3.41 --undefined-- 52.366
3.42 --undefined-- 51.645
3.43 --undefined-- 51.700
3.44 --undefined-- 51.066
3.45 --undefined-- 49.294
3.46 --undefined-- 47.235
3.47 --undefined-- 47.070
3.48 --undefined-- 49.894
3.49 --undefined-- 51.710
3.50 --undefined-- 51.574
3.51 --undefined-- 51.242
3.52 --undefined-- 55.439
3.53 222.622 60.913
3.54 210.327 65.102
3.55 205.540 67.460
3.56 203.435 68.230
3.57 199.550 69.000
3.58 198.579 70.379
3.59 199.531 70.882
3.60 200.286 69.313
3.61 196.374 65.278
3.62 197.364 59.875
3.63 201.107 55.885
3.64 201.313 53.156
3.65 202.673 52.979
3.66 --undefined-- 53.061
3.67 --undefined-- 51.776
3.68 --undefined-- 53.807
3.69 --undefined-- 57.565
3.70 --undefined-- 62.161
3.71 275.350 65.626
3.72 274.090 67.570
3.73 270.558 68.583
3.74 268.099 68.703
3.75 270.203 67.884
3.76 277.741 66.428
3.77 282.444 64.655
3.78 280.590 62.022
3.79 278.058 58.339
3.80 278.687 54.653
3.81 --undefined-- 50.533
3.82 --undefined-- 47.877
3.83 --undefined-- 50.489
3.84 --undefined-- 53.922
3.85 --undefined-- 57.735
3.86 --undefined-- 61.833
3.87 269.177 65.111
3.88 266.798 66.728
3.89 266.744 66.759
3.90 268.279 66.040
3.91 271.046 65.866
3.92 276.361 66.808
3.93 284.456 68.115
3.94 286.910 69.050
3.95 286.044 69.435
3.96 281.807 69.336
3.97 276.010 68.800
3.98 266.847 67.826
3.99 253.548 66.592
4.00 239.409 65.322
4.01 226.636 63.792
4.02 204.626 62.621
4.03 192.748 63.909
4.04 188.189 66.845
4.05 186.185 69.526
4.06 185.184 70.651
4.07 184.680 70.178
4.08 187.737 69.449
4.09 189.039 69.390
4.10 190.823 69.554
4.11 192.823 69.290
4.12 193.965 68.033
4.13 197.756 66.119
4.14 219.073 64.997
4.15 227.418 64.872
4.16 231.636 64.312
4.17 232.138 62.456
4.18 229.801 59.181
4.19 222.548 55.843
4.20 --undefined-- 54.063
4.21 --undefined-- 53.433
4.22 --undefined-- 52.121
4.23 --undefined-- 49.662
4.24 --undefined-- 46.722
4.25 --undefined-- 47.950
4.26 --undefined-- 54.706
4.27 --undefined-- 61.709
4.28 201.218 66.620
4.29 197.813 68.908
4.30 189.267 69.284
4.31 182.708 68.828
4.32 178.250 68.428
4.33 175.380 68.286
4.34 172.764 68.087
4.35 169.020 67.546
4.36 165.188 67.089
4.37 163.870 66.928
4.38 162.921 66.675
4.39 163.148 66.296
4.40 163.939 65.805
4.41 164.595 64.971
4.42 163.944 63.678
4.43 163.771 62.295
4.44 169.868 61.482
4.45 173.478 61.129
4.46 173.489 61.114
4.47 172.668 61.045
4.48 170.610 60.527
4.49 168.072 60.003
4.50 168.099 60.373
4.51 160.076 61.005
4.52 159.336 61.450
4.53 159.850 61.911
4.54 159.544 61.909
4.55 157.467 61.342
4.56 154.927 60.956
4.57 152.376 60.919
4.58 149.571 61.040
4.59 148.562 61.340
4.60 147.065 61.360
4.61 144.209 60.559
4.62 151.605 59.751
4.63 158.944 60.050
4.64 167.330 60.863
4.65 182.482 61.950
4.66 195.211 63.670
4.67 229.992 65.938
4.68 243.898 68.247
4.69 253.896 69.999
4.70 262.115 71.116
4.71 270.833 71.513
4.72 279.167 71.285
4.73 289.035 70.741
4.74 296.346 69.911
4.75 299.067 68.593
4.76 292.497 66.489
4.77 282.152 62.938
4.78 264.299 57.384
4.79 --undefined-- 53.813
4.80 --undefined-- 55.210
4.81 --undefined-- 54.908
4.82 --undefined-- 52.497
4.83 --undefined-- 50.823
4.84 --undefined-- 53.032
4.85 --undefined-- 55.080
4.86 --undefined-- 56.708
4.87 --undefined-- 57.516
4.88 --undefined-- 56.373
4.89 --undefined-- 53.542
4.90 --undefined-- 50.662
4.91 --undefined-- 48.334
4.92 --undefined-- 46.438
4.93 --undefined-- 47.036
4.94 --undefined-- 47.966
4.95 --undefined-- 46.807
4.96 --undefined-- 45.931
4.97 --undefined-- 47.594
4.98 --undefined-- 48.859
4.99 --undefined-- 50.761
5.00 --undefined-- 54.601
5.01 --undefined-- 56.201
5.02 --undefined-- 58.237
5.03 --undefined-- 64.228
5.04 180.729 68.672
5.05 181.361 70.788
5.06 184.107 71.506
5.07 188.040 71.905
5.08 188.044 72.453
5.09 186.116 --undefined--
5.10 183.205 --undefined--
5.11 --undefined-- --undefined--
5.12 --undefined-- --undefined--
