Time Pitch Intensity
0.01 --undefined-- --undefined--
0.02 231.566 --undefined--
0.03 220.639 --undefined--
0.04 208.746 --undefined--
0.05 199.115 73.081
0.06 188.288 71.867
0.07 181.770 71.181
0.08 174.682 70.704
0.09 166.971 69.927
0.10 158.854 68.664
0.11 151.833 67.461
0.12 149.104 67.281
0.13 146.982 67.767
0.14 144.729 68.330
0.15 143.776 68.756
0.16 144.316 69.115
0.17 141.164 69.552
0.18 140.722 69.939
0.19 140.773 70.159
0.20 141.114 70.223
0.21 141.328 70.113
0.22 143.079 69.831
0.23 145.890 69.356
0.24 145.748 68.873
0.25 145.603 68.569
0.26 146.440 68.341
0.27 146.480 68.115
0.28 146.872 67.873
0.29 146.371 67.505
0.30 145.148 66.714
0.31 141.950 65.099
0.32 138.195 62.101
0.33 136.155 57.226
0.34 --undefined-- 50.453
0.35 --undefined-- 45.650
0.36 --undefined-- 45.359
0.37 --undefined-- 45.882
0.38 --undefined-- 46.953
0.39 --undefined-- 47.180
0.40 --undefined-- 45.825
0.41 --undefined-- 43.837
0.42 --undefined-- 43.658
0.43 --undefined-- 49.577
0.44 --undefined-- 59.944
0.45 201.765 66.847
0.46 187.724 70.343
0.47 180.689 71.587
0.48 178.367 71.668
0.49 174.950 71.633
0.50 174.659 71.868
0.51 173.383 72.124
0.52 172.578 72.302
0.53 172.744 72.422
0.54 172.513 72.595
0.55 169.145 72.840
0.56 168.989 73.077
0.57 167.620 73.315
0.58 166.340 73.547
0.59 165.538 73.624
0.60 165.081 73.390
0.61 165.159 72.884
0.62 165.733 72.408
0.63 166.046 72.130
0.64 166.345 71.955
0.65 166.974 71.751
0.66 167.111 71.408
0.67 167.035 70.918
0.68 167.858 70.502
0.69 168.867 70.305
0.70 168.362 70.183
0.71 166.336 69.910
0.72 166.872 69.717
0.73 167.385 69.729
0.74 166.982 69.687
0.75 166.101 69.480
0.76 164.849 69.188
0.77 164.156 69.221
0.78 167.138 70.180
0.79 165.476 71.448
0.80 163.245 72.172
0.81 161.204 72.329
0.82 160.761 72.111
0.83 161.469 71.708
0.84 162.727 71.334
0.85 163.983 71.137
0.86 165.981 70.951
0.87 168.582 70.558
0.88 172.958 70.169
0.89 177.662 69.903
0.90 180.842 69.344
0.91 181.968 67.865
0.92 178.774 64.913
0.93 180.527 60.187
0.94 --undefined-- 53.106
0.95 --undefined-- 43.693
0.96 --undefined-- 38.120
0.97 --undefined-- 39.671
0.98 --undefined-- 51.478
0.99 --undefined-- 62.195
1.00 213.501 68.250
1.01 204.473 70.549
1.02 191.121 70.263
1.03 184.345 68.986
1.04 179.648 68.156
1.05 176.459 68.042
1.06 173.578 68.462
1.07 170.381 68.845
1.08 165.306 68.636
1.09 158.328 67.438
1.10 130.052 65.004
1.11 114.394 61.540
1.12 112.219 58.174
1.13 107.450 56.375
1.14 114.680 57.133
1.15 115.681 59.489
1.16 134.617 61.851
1.17 143.592 63.560
1.18 158.361 64.583
1.19 160.783 65.345
1.20 154.227 65.780
1.21 151.326 66.004
1.22 148.667 66.243
1.23 147.204 66.389
1.24 147.234 66.368
1.25 146.224 66.230
1.26 143.049 66.149
1.27 141.563 66.251
1.28 140.505 66.528
1.29 140.583 66.843
1.30 140.572 67.140
1.31 139.579 67.364
1.32 139.605 67.404
1.33 139.931 67.229
1.34 140.119 66.803
1.35 139.936 66.036
1.36 138.692 64.877
1.37 137.639 63.557
1.38 142.360 63.593
1.39 149.633 65.645
1.40 151.443 67.383
1.41 149.417 67.985
1.42 146.318 67.940
1.43 143.118 67.746
1.44 141.034 67.572
1.45 139.982 67.346
1.46 139.882 67.014
1.47 140.389 66.682
1.48 139.176 66.397
1.49 137.419 66.002
1.50 134.148 65.702
1.51 132.236 65.847
1.52 134.749 65.990
1.53 136.189 65.920
1.54 137.799 65.883
1.55 138.901 66.010
1.56 140.052 66.189
1.57 141.006 66.291
1.58 141.598 66.333
1.59 142.459 66.233
1.60 143.394 65.985
1.61 143.708 65.667
1.62 143.343 65.290
1.63 142.036 64.827
1.64 137.844 64.154
1.65 128.841 63.029
1.66 120.997 60.820
1.67 110.618 56.653
1.68 --undefined-- 50.562
1.69 --undefined-- 44.333
1.70 --undefined-- 40.275
1.71 --undefined-- 37.851
1.72 --undefined-- 35.030
1.73 --undefined-- 34.715
1.74 --undefined-- 38.380
1.75 --undefined-- 47.375
1.76 --undefined-- 54.853
1.77 --undefined-- 59.338
1.78 --undefined-- 59.907
1.79 --undefined-- 56.311
1.80 --undefined-- 51.076
1.81 93.344 50.976
1.82 92.721 51.503
1.83 91.231 52.119
1.84 --undefined-- 58.631
1.85 200.218 65.536
1.86 199.716 69.420
1.87 199.418 71.052
1.88 199.029 71.336
1.89 196.910 70.942
1.90 194.444 70.448
1.91 192.473 70.089
1.92 190.638 69.742
1.93 187.123 69.752
1.94 190.744 70.371
1.95 191.664 70.748
1.96 192.349 70.761
1.97 193.443 70.761
1.98 194.211 70.693
1.99 194.224 70.267
2.00 192.915 69.035
2.01 191.941 66.299
2.02 195.845 61.304
2.03 --undefined-- 53.168
2.04 --undefined-- 42.448
2.05 --undefined-- 38.988
2.06 --undefined-- 39.797
2.07 --undefined-- 42.825
2.08 --undefined-- 54.554
2.09 --undefined-- 64.328
2.10 238.416 70.070
2.11 239.598 72.836
2.12 238.079 73.751
2.13 237.784 73.966
2.14 237.861 73.988
2.15 236.854 73.562
2.16 234.964 73.505
2.17 238.305 74.619
2.18 239.397 75.645
2.19 239.193 76.139
2.20 238.507 76.349
2.21 237.059 76.450
2.22 234.723 76.505
2.23 231.286 76.376
2.24 225.368 75.878
2.25 218.501 75.029
2.26 212.142 73.793
2.27 206.546 72.105
2.28 199.759 70.590
2.29 192.199 69.958
2.30 178.368 69.550
2.31 166.511 68.843
2.32 152.930 67.815
2.33 141.029 66.722
2.34 133.072 65.960
2.35 124.950 65.611
2.36 124.387 65.541
2.37 125.239 65.694
2.38 129.325 65.849
2.39 129.577 65.867
2.40 129.777 65.838
2.41 132.316 65.693
2.42 135.060 65.158
2.43 136.501 63.965
2.44 137.975 61.497
2.45 140.215 56.817
2.46 --undefined-- 49.215
2.47 --undefined-- 45.232
2.48 --undefined-- 53.557
2.49 --undefined-- 61.342
2.50 --undefined-- 66.534
2.51 185.923 68.901
2.52 186.206 69.552
2.53 187.070 69.932
2.54 187.045 70.498
2.55 185.502 71.079
2.56 182.133 71.445
2.57 175.722 71.533
2.58 167.990 71.434
2.59 159.754 70.905
2.60 158.541 69.568
2.61 162.109 67.663
2.62 167.927 66.385
2.63 169.252 66.160
2.64 170.605 66.440
2.65 172.633 67.194
2.66 175.369 68.607
2.67 174.973 70.500
2.68 173.706 72.270
2.69 170.363 73.305
2.70 166.927 73.644
2.71 163.960 73.684
2.72 162.372 73.660
2.73 161.264 73.562
2.74 160.935 73.369
2.75 161.213 73.084
2.76 161.224 72.768
2.77 161.484 72.513
2.78 161.518 72.245
2.79 160.140 71.717
2.80 159.305 71.087
2.81 159.140 70.541
2.82 158.725 69.942
2.83 157.513 69.358
2.84 155.835 68.946
2.85 153.494 68.642
2.86 150.557 68.372
2.87 134.722 67.695
2.88 106.348 65.730
2.89 95.647 62.300
2.90 --undefined-- 57.727
2.91 --undefined-- 51.007
2.92 --undefined-- 41.495
2.93 --undefined-- 35.743
2.94 --undefined-- 33.498
2.95 --undefined-- 34.140
2.96 --undefined-- 36.832
2.97 --undefined-- 37.194
2.98 --undefined-- 34.864
2.99 --undefined-- 32.912
3.00 --undefined-- 33.875
3.01 --undefined-- 36.845
3.02 --undefined-- 39.122
3.03 --undefined-- 38.817
3.04 --undefined-- 37.314
3.05 --undefined-- 37.246
3.06 --undefined-- 37.255
3.07 --undefined-- 36.576
3.08 --undefined-- 36.323
3.09 --undefined-- 37.137
3.10 --undefined-- 37.583
3.11 --undefined-- 36.671
3.12 --undefined-- 35.932
3.13 --undefined-- 37.269
3.14 --undefined-- 38.792
3.15 --undefined-- 38.844
3.16 --undefined-- 38.014
3.17 --undefined-- 37.315
3.18 --undefined-- 36.321
3.19 --undefined-- 35.497
3.20 --undefined-- 35.990
3.21 --undefined-- 36.951
3.22 --undefined-- 36.898
3.23 --undefined-- 35.474
3.24 --undefined-- 33.985
3.25 --undefined-- 34.388
3.26 --undefined-- 35.585
3.27 --undefined-- 35.089
3.28 --undefined-- 34.437
3.29 --undefined-- 35.418
3.30 --undefined-- 34.425
3.31 --undefined-- 32.960
3.32 --undefined-- 35.468
3.33 --undefined-- 36.695
3.34 --undefined-- 34.749
3.35 --undefined-- 32.326
3.36 --undefined-- 33.316
3.37 --undefined-- 34.078
3.38 --undefined-- 33.866
3.39 --undefined-- 33.403
3.40 --undefined-- 39.825
3.41 --undefined-- 52.434
3.42 --undefined-- 63.394
3.43 257.927 70.523
3.44 240.028 74.338
3.45 234.442 75.875
3.46 231.634 76.300
3.47 230.376 76.428
3.48 229.905 76.524
3.49 229.353 76.645
3.50 228.386 76.766
3.51 227.519 76.865
3.52 226.880 76.981
3.53 226.867 77.118
3.54 227.631 77.236
3.55 228.184 77.268
3.56 228.061 77.122
3.57 227.100 76.611
3.58 224.031 75.565
3.59 221.116 74.948
3.60 225.845 75.467
3.61 224.045 75.838
3.62 221.223 75.658
3.63 217.565 75.200
3.64 216.282 75.073
3.65 215.334 75.390
3.66 209.606 75.523
3.67 206.273 75.452
3.68 203.983 75.357
3.69 201.959 75.216
3.70 200.140 74.969
3.71 198.932 74.545
3.72 197.614 74.058
3.73 196.555 73.698
3.74 195.942 73.420
3.75 195.041 73.009
3.76 194.239 72.405
3.77 193.257 71.699
3.78 193.070 71.546
3.79 194.320 71.824
3.80 191.583 71.803
3.81 188.991 71.652
3.82 186.380 71.516
3.83 183.020 71.314
3.84 179.469 71.147
3.85 169.613 71.176
3.86 165.356 71.123
3.87 161.627 70.767
3.88 157.268 70.173
3.89 152.900 69.460
3.90 150.636 68.752
3.91 148.299 68.175
3.92 148.056 67.985
3.93 148.479 68.016
3.94 146.626 67.926
3.95 143.374 67.784
3.96 141.822 67.627
3.97 144.527 67.537
3.98 140.481 67.827
3.99 140.047 68.256
4.00 139.771 68.398
4.01 140.591 68.364
4.02 141.641 68.489
4.03 142.588 68.708
4.04 142.491 68.595
4.05 141.819 67.637
4.06 138.721 65.111
4.07 135.529 60.393
4.08 --undefined-- 53.146
4.09 --undefined-- 45.188
4.10 --undefined-- 44.872
4.11 --undefined-- 48.177
4.12 --undefined-- 50.566
4.13 --undefined-- 52.440
4.14 --undefined-- 60.407
4.15 --undefined-- 66.751
4.16 155.662 69.903
4.17 151.722 70.893
4.18 148.742 70.890
4.19 147.017 70.568
4.20 146.740 70.181
4.21 147.352 69.910
4.22 147.451 69.851
4.23 147.945 69.913
4.24 148.610 70.007
4.25 149.570 70.266
4.26 151.476 70.806
4.27 153.416 71.419
4.28 154.919 71.915
4.29 156.932 72.307
4.30 159.223 72.439
4.31 162.077 72.219
4.32 165.081 71.863
4.33 167.606 71.436
4.34 171.589 70.874
4.35 178.350 70.573
4.36 182.055 70.679
4.37 185.350 70.925
4.38 192.463 71.447
4.39 200.541 72.259
4.40 207.035 73.058
4.41 212.924 73.653
4.42 217.735 73.888
4.43 220.772 73.622
4.44 220.021 72.611
4.45 213.025 70.491
4.46 205.974 67.075
4.47 --undefined-- 63.077
4.48 --undefined-- 59.178
4.49 --undefined-- 53.944
4.50 --undefined-- 49.792
4.51 --undefined-- 49.149
4.52 --undefined-- 45.853
4.53 --undefined-- 39.013
4.54 --undefined-- 30.924
4.55 --undefined-- 26.579
4.56 --undefined-- 29.043
4.57 --undefined-- 31.372
4.58 --undefined-- 32.815
4.59 --undefined-- 33.425
4.60 --undefined-- 31.728
4.61 --undefined-- 29.056
4.62 --undefined-- 28.089
4.63 --undefined-- 29.173
4.64 --undefined-- 32.891
4.65 --undefined-- 34.737
4.66 --undefined-- 34.272
4.67 --undefined-- 38.347
4.68 --undefined-- 51.941
4.69 --undefined-- 61.236
4.70 --undefined-- 66.222
4.71 187.053 68.145
4.72 186.387 68.653
4.73 185.578 69.025
4.74 184.964 69.352
4.75 184.152 69.550
4.76 182.685 69.634
4.77 179.191 69.795
4.78 180.119 70.230
4.79 178.686 70.564
4.80 177.104 70.747
4.81 177.262 70.979
4.82 176.736 71.124
4.83 176.519 70.939
4.84 171.287 70.441
4.85 167.045 70.176
4.86 166.875 70.398
4.87 165.951 70.626
4.88 165.344 70.607
4.89 165.536 70.501
4.90 165.659 70.587
4.91 165.373 70.807
4.92 165.175 70.889
4.93 165.351 70.556
4.94 166.192 69.818
4.95 166.745 69.087
4.96 168.175 68.710
4.97 170.464 68.688
4.98 173.149 68.911
4.99 175.983 69.258
5.00 178.519 69.637
5.01 180.990 69.938
5.02 183.312 69.967
5.03 185.374 69.436
5.04 186.562 67.712
5.05 182.514 64.127
5.06 193.215 58.359
5.07 --undefined-- 50.702
5.08 --undefined-- 41.151
5.09 --undefined-- 39.262
5.10 --undefined-- 41.982
5.11 --undefined-- 45.758
5.12 --undefined-- 55.836
5.13 242.527 64.793
5.14 236.449 70.149
5.15 230.955 72.498
5.16 226.504 72.988
5.17 223.986 72.779
5.18 222.716 72.538
5.19 221.262 72.179
5.20 218.306 71.989
5.21 218.556 72.971
5.22 223.291 74.302
5.23 223.461 74.983
5.24 224.191 75.267
5.25 224.976 75.370
5.26 224.772 75.100
5.27 222.785 74.049
5.28 219.946 71.630
5.29 220.313 67.179
5.30 221.554 60.277
5.31 --undefined-- 51.971
5.32 --undefined-- 53.714
5.33 --undefined-- 62.429
5.34 225.344 67.516
5.35 205.700 69.331
5.36 189.184 69.045
5.37 180.335 68.313
5.38 174.907 67.626
5.39 169.396 66.806
5.40 169.703 66.537
5.41 169.158 66.635
5.42 167.628 66.556
5.43 166.745 66.127
5.44 164.984 64.952
5.45 162.657 62.623
5.46 161.723 60.216
5.47 186.525 63.080
5.48 172.143 66.916
5.49 165.950 68.799
5.50 159.943 69.134
5.51 154.630 68.775
5.52 153.109 68.249
5.53 152.209 67.010
5.54 155.670 64.252
5.55 160.763 59.245
5.56 --undefined-- 51.440
5.57 --undefined-- 50.125
5.58 --undefined-- 55.864
5.59 --undefined-- 59.127
5.60 --undefined-- 59.867
5.61 --undefined-- 59.108
5.62 --undefined-- 57.474
5.63 --undefined-- 57.137
5.64 162.159 60.856
5.65 146.633 63.726
5.66 139.271 65.316
5.67 134.111 66.283
5.68 136.842 66.610
5.69 140.071 66.491
5.70 143.642 --undefined--
5.71 147.760 --undefined--
5.72 --undefined-- --undefined--
5.73 --undefined-- --undefined--
