Time Pitch Intensity
0.01 --undefined-- --undefined--
0.02 164.204 --undefined--
0.03 165.109 --undefined--
0.04 165.955 --undefined--
0.05 167.691 55.729
0.06 170.519 54.028
0.07 --undefined-- 54.997
0.08 --undefined-- 56.299
0.09 --undefined-- 56.682
0.10 --undefined-- 56.498
0.11 --undefined-- 56.401
0.12 --undefined-- 58.253
0.13 --undefined-- 61.836
0.14 158.326 65.259
0.15 159.386 67.957
0.16 162.404 70.198
0.17 168.036 71.797
0.18 168.332 72.441
0.19 165.574 72.771
0.20 161.950 73.668
0.21 160.490 74.747
0.22 160.298 75.358
0.23 161.372 75.660
0.24 162.320 75.822
0.25 163.391 75.731
0.26 163.477 75.025
0.27 161.656 73.287
0.28 160.483 71.920
0.29 162.775 72.622
0.30 162.468 73.770
0.31 161.253 74.610
0.32 158.933 75.088
0.33 154.697 75.242
0.34 150.047 74.893
0.35 146.157 73.703
0.36 142.412 71.741
0.37 135.351 70.086
0.38 130.415 70.607
0.39 128.280 72.393
0.40 126.413 73.743
0.41 124.118 74.448
0.42 123.189 74.796
0.43 122.589 75.004
0.44 123.239 75.077
0.45 123.869 75.014
0.46 125.736 74.826
0.47 126.464 74.407
0.48 127.113 73.743
0.49 128.144 72.844
0.50 130.286 71.790
0.51 133.566 70.934
0.52 137.006 70.409
0.53 139.908 69.933
0.54 142.205 69.691
0.55 144.434 69.941
0.56 148.063 70.397
0.57 152.016 70.844
0.58 155.546 71.475
0.59 159.479 72.373
0.60 163.815 73.138
0.61 168.199 73.453
0.62 169.396 73.510
0.63 170.312 73.483
0.64 172.166 73.229
0.65 172.443 72.931
0.66 171.156 72.741
0.67 172.311 72.676
0.68 173.550 73.055
0.69 174.485 73.528
0.70 173.104 72.947
0.71 166.315 70.964
0.72 167.203 70.466
0.73 170.063 72.993
0.74 170.288 74.927
0.75 170.107 75.545
0.76 166.174 75.340
0.77 162.647 74.501
0.78 157.152 73.314
0.79 155.752 72.841
0.80 157.314 73.817
0.81 160.778 75.316
0.82 162.413 76.271
0.83 162.751 76.501
0.84 161.827 76.214
0.85 161.063 75.742
0.86 160.268 75.075
0.87 159.682 74.355
0.88 158.619 73.818
0.89 155.706 73.225
0.90 154.156 72.466
0.91 154.217 71.232
0.92 155.496 68.943
0.93 141.128 66.012
0.94 140.482 64.328
0.95 144.074 64.938
0.96 147.847 67.416
0.97 156.579 70.623
0.98 157.976 72.988
0.99 156.109 74.098
1.00 152.978 74.052
1.01 148.693 72.653
1.02 144.307 69.268
1.03 149.624 63.333
1.04 152.694 55.875
1.05 --undefined-- 50.687
1.06 --undefined-- 47.917
1.07 --undefined-- 46.633
1.08 --undefined-- 45.985
1.09 --undefined-- 45.417
1.10 --undefined-- 43.643
1.11 --undefined-- 40.990
1.12 --undefined-- 39.833
1.13 --undefined-- 45.706
1.14 --undefined-- 52.704
1.15 --undefined-- 57.776
1.16 --undefined-- 64.386
1.17 --undefined-- 70.279
1.18 143.686 73.726
1.19 142.192 75.253
1.20 135.874 75.623
1.21 130.798 75.792
1.22 128.744 76.311
1.23 127.449 76.812
1.24 126.709 77.135
1.25 126.129 77.261
1.26 125.388 77.225
1.27 124.994 77.165
1.28 124.445 76.912
1.29 123.340 75.938
1.30 122.302 73.564
1.31 124.831 69.388
1.32 124.736 64.237
1.33 125.042 60.165
1.34 125.744 57.592
1.35 124.746 56.613
1.36 123.462 59.034
1.37 169.536 66.284
1.38 165.550 72.499
1.39 163.911 75.675
1.40 162.932 76.579
1.41 163.612 76.595
1.42 165.754 76.423
1.43 165.713 75.661
1.44 163.277 74.371
1.45 165.454 73.659
1.46 168.204 73.480
1.47 166.885 72.876
1.48 163.248 71.458
1.49 156.098 68.955
1.50 151.196 64.966
1.51 162.353 60.383
1.52 162.807 57.341
1.53 163.139 55.024
1.54 163.218 52.929
1.55 163.600 52.313
1.56 --undefined-- 52.760
1.57 --undefined-- 58.454
1.58 --undefined-- 66.357
1.59 --undefined-- 71.415
1.60 136.852 73.834
1.61 132.609 74.498
1.62 128.389 74.284
1.63 125.208 73.659
1.64 121.943 72.718
1.65 121.135 71.948
1.66 122.557 71.868
1.67 124.579 72.254
1.68 124.507 72.629
1.69 122.730 72.678
1.70 119.905 72.484
1.71 117.696 72.323
1.72 116.247 72.400
1.73 114.925 72.838
1.74 113.961 73.519
1.75 113.266 74.229
1.76 113.481 74.656
1.77 113.365 74.023
1.78 110.330 71.523
1.79 111.640 67.105
1.80 113.373 61.701
1.81 114.964 56.427
1.82 114.078 52.293
1.83 --undefined-- 49.402
1.84 --undefined-- 47.822
1.85 --undefined-- 46.805
1.86 --undefined-- 45.392
1.87 --undefined-- 44.241
1.88 --undefined-- 44.169
1.89 --undefined-- 44.474
1.90 --undefined-- 44.600
1.91 --undefined-- 44.217
1.92 --undefined-- 43.746
1.93 --undefined-- 44.977
1.94 --undefined-- 54.512
1.95 --undefined-- 65.171
1.96 --undefined-- 71.918
1.97 --undefined-- 75.167
1.98 133.506 75.987
1.99 129.055 75.543
2.00 120.713 74.570
2.01 117.491 73.479
2.02 116.828 72.517
2.03 116.997 72.133
2.04 118.920 72.693
2.05 119.589 73.452
2.06 119.860 73.838
2.07 120.618 74.013
2.08 121.653 74.164
2.09 123.013 74.235
2.10 124.535 74.193
2.11 126.022 74.125
2.12 130.095 74.388
2.13 133.077 75.162
2.14 134.135 75.939
2.15 134.719 76.271
2.16 133.096 76.247
2.17 130.038 76.023
2.18 123.952 75.578
2.19 120.506 74.864
2.20 114.140 73.800
2.21 105.022 72.604
2.22 103.599 71.330
2.23 104.550 69.143
2.24 102.200 65.272
2.25 124.910 59.837
2.26 124.046 55.912
2.27 124.408 54.443
2.28 123.855 52.777
2.29 --undefined-- 50.926
2.30 --undefined-- 50.019
2.31 --undefined-- 51.081
2.32 --undefined-- 52.814
2.33 --undefined-- 54.273
2.34 --undefined-- 55.341
2.35 --undefined-- 55.703
2.36 --undefined-- 54.905
2.37 --undefined-- 53.904
2.38 --undefined-- 53.618
2.39 --undefined-- 53.284
2.40 --undefined-- 52.816
2.41 --undefined-- 52.367
2.42 --undefined-- 51.871
2.43 --undefined-- 51.679
2.44 --undefined-- 51.710
2.45 --undefined-- 51.260
2.46 --undefined-- 50.384
2.47 --undefined-- 49.014
2.48 --undefined-- 46.418
2.49 --undefined-- 45.628
2.50 --undefined-- 48.200
2.51 --undefined-- 48.881
2.52 --undefined-- 54.137
2.53 --undefined-- 62.947
2.54 243.900 68.099
2.55 237.347 70.679
2.56 238.446 72.255
2.57 238.194 73.512
2.58 234.623 74.406
2.59 227.256 75.102
2.60 218.726 75.938
2.61 211.775 76.867
2.62 210.631 77.184
2.63 196.899 76.489
2.64 185.642 75.791
2.65 177.842 75.792
2.66 170.119 75.874
2.67 164.241 75.894
2.68 160.437 75.807
2.69 157.348 75.857
2.70 155.999 76.222
2.71 154.530 76.535
2.72 152.642 76.330
2.73 149.900 75.156
2.74 146.915 72.795
2.75 144.860 69.197
2.76 150.420 64.404
2.77 155.179 61.797
2.78 --undefined-- 68.756
2.79 188.953 74.055
2.80 170.941 76.300
2.81 167.056 76.832
2.82 165.671 77.070
2.83 164.124 77.329
2.84 162.875 77.473
2.85 162.067 77.457
2.86 161.022 77.241
2.87 159.897 76.894
2.88 159.076 76.419
2.89 158.540 75.556
2.90 156.695 74.143
2.91 152.960 72.956
2.92 152.966 72.636
2.93 152.828 72.764
2.94 154.874 73.453
2.95 156.355 74.755
2.96 156.944 75.998
2.97 157.867 76.656
2.98 158.189 76.688
2.99 156.439 76.529
3.00 155.283 76.410
3.01 154.256 76.020
3.02 152.834 75.375
3.03 152.665 74.976
3.04 153.066 74.969
3.05 153.219 75.093
3.06 153.566 75.009
3.07 153.384 74.027
3.08 151.973 71.284
3.09 150.217 66.698
3.10 155.737 62.063
3.11 155.325 58.420
3.12 151.980 55.599
3.13 152.452 57.572
3.14 --undefined-- 66.112
3.15 --undefined-- 72.315
3.16 --undefined-- 75.053
3.17 191.087 75.445
3.18 187.367 75.051
3.19 182.499 74.655
3.20 178.400 74.266
3.21 177.120 74.046
3.22 178.048 74.423
3.23 180.347 75.128
3.24 182.144 75.564
3.25 182.272 75.583
3.26 181.616 75.187
3.27 181.753 74.580
3.28 182.011 74.181
3.29 182.852 74.100
3.30 184.366 74.121
3.31 185.808 74.075
3.32 187.074 73.937
3.33 187.957 73.786
3.34 188.515 73.759
3.35 188.094 73.889
3.36 187.223 74.002
3.37 185.098 73.753
3.38 181.445 72.610
3.39 174.624 70.036
3.40 169.232 65.906
3.41 172.265 60.465
3.42 --undefined-- 53.741
3.43 --undefined-- 52.610
3.44 --undefined-- 63.187
3.45 --undefined-- 70.765
3.46 162.758 74.573
3.47 156.445 75.485
3.48 132.202 75.132
3.49 128.491 75.432
3.50 125.253 76.112
3.51 123.158 76.293
3.52 121.175 75.893
3.53 119.420 75.065
3.54 117.184 74.234
3.55 116.828 74.128
3.56 116.905 74.286
3.57 117.590 73.992
3.58 117.491 72.815
3.59 110.971 70.423
3.60 105.255 67.615
3.61 116.775 65.391
3.62 118.112 62.762
3.63 120.763 63.787
3.64 --undefined-- 70.135
3.65 136.882 74.007
3.66 135.978 75.285
3.67 128.501 75.675
3.68 127.249 76.247
3.69 126.995 76.398
3.70 126.752 75.816
3.71 126.366 74.611
3.72 125.638 73.466
3.73 125.967 73.040
3.74 126.278 72.969
3.75 126.476 72.862
3.76 126.931 72.679
3.77 127.800 72.591
3.78 128.819 72.801
3.79 129.439 73.380
3.80 129.834 74.111
3.81 130.553 74.680
3.82 131.269 74.953
3.83 132.092 74.948
3.84 133.036 74.687
3.85 133.892 74.212
3.86 134.489 73.748
3.87 136.023 73.622
3.88 136.892 73.323
3.89 136.074 71.687
3.90 133.425 68.101
3.91 135.372 62.703
3.92 134.638 56.712
3.93 132.190 56.619
3.94 --undefined-- 60.959
3.95 --undefined-- 68.072
3.96 --undefined-- 73.310
3.97 161.156 75.624
3.98 162.267 75.992
3.99 161.264 75.581
4.00 160.053 75.091
4.01 158.200 74.726
4.02 155.104 74.618
4.03 151.669 74.813
4.04 147.191 74.854
4.05 141.110 74.653
4.06 134.715 74.677
4.07 128.817 74.915
4.08 121.896 74.822
4.09 112.377 74.138
4.10 109.657 72.825
4.11 102.514 71.719
4.12 104.709 71.634
4.13 102.011 71.714
4.14 102.998 71.870
4.15 104.380 72.065
4.16 104.825 72.239
4.17 106.491 72.714
4.18 113.884 73.689
4.19 119.879 74.640
4.20 119.926 75.079
4.21 128.864 75.160
4.22 137.445 75.162
4.23 142.649 75.450
4.24 145.543 75.548
4.25 148.609 74.651
4.26 150.526 72.423
4.27 147.943 68.654
4.28 145.301 63.095
4.29 148.898 56.973
4.30 138.761 54.325
4.31 --undefined-- 52.343
4.32 --undefined-- 50.000
4.33 --undefined-- 48.965
4.34 --undefined-- 49.474
4.35 --undefined-- 50.302
4.36 --undefined-- 50.448
4.37 --undefined-- 49.906
4.38 --undefined-- 49.897
4.39 --undefined-- 50.469
4.40 --undefined-- 49.756
4.41 --undefined-- 48.112
4.42 --undefined-- 47.335
4.43 --undefined-- 46.862
4.44 --undefined-- 46.046
4.45 --undefined-- 45.813
4.46 --undefined-- 45.702
4.47 --undefined-- 45.799
4.48 --undefined-- 45.611
4.49 --undefined-- 44.273
4.50 --undefined-- 42.526
4.51 --undefined-- 41.532
4.52 --undefined-- 41.130
4.53 --undefined-- 40.420
4.54 --undefined-- 41.633
4.55 --undefined-- 43.888
4.56 --undefined-- 44.936
4.57 --undefined-- 48.603
4.58 --undefined-- 60.946
4.59 --undefined-- 69.749
4.60 159.382 74.675
4.61 157.489 76.606
4.62 162.029 77.032
4.63 172.209 77.179
4.64 184.401 77.129
4.65 202.016 76.382
4.66 219.363 74.706
4.67 228.460 72.877
4.68 236.938 72.068
4.69 238.357 72.145
4.70 235.568 71.380
4.71 221.163 69.217
4.72 209.789 68.203
4.73 213.358 71.057
4.74 212.658 74.679
4.75 211.197 76.826
4.76 207.929 76.838
4.77 171.752 75.608
4.78 162.766 74.659
4.79 135.000 73.575
4.80 129.450 72.417
4.81 124.058 71.656
4.82 118.873 71.496
4.83 116.478 71.639
4.84 115.528 71.918
4.85 115.602 72.394
4.86 114.800 72.929
4.87 114.107 73.313
4.88 113.474 73.360
4.89 112.977 72.911
4.90 110.548 72.033
4.91 110.276 71.333
4.92 112.270 71.134
4.93 113.701 71.207
4.94 115.837 71.591
4.95 118.522 72.319
4.96 121.897 73.203
4.97 124.471 73.887
4.98 125.541 74.115
4.99 126.179 73.745
5.00 125.371 72.600
5.01 123.998 70.541
5.02 121.856 67.359
5.03 120.252 62.734
5.04 125.087 57.520
5.05 121.822 55.672
5.06 122.081 58.304
5.07 --undefined-- 65.546
5.08 --undefined-- 71.489
5.09 143.619 74.447
5.10 135.594 75.406
5.11 131.715 75.663
5.12 128.566 75.884
5.13 125.700 75.822
5.14 123.902 75.044
5.15 123.717 73.760
5.16 125.823 72.697
5.17 128.433 72.224
5.18 130.944 72.557
5.19 132.476 73.451
5.20 133.512 74.193
5.21 133.596 74.566
5.22 133.517 74.857
5.23 133.861 75.238
5.24 134.824 75.595
5.25 137.062 --undefined--
5.26 139.192 --undefined--
5.27 --undefined-- --undefined--
5.28 --undefined-- --undefined--
