Time Pitch Intensity
0.01 --undefined-- --undefined--
0.02 109.190 --undefined--
0.03 111.307 --undefined--
0.04 112.918 --undefined--
0.05 110.133 71.508
0.06 109.607 71.804
0.07 110.138 72.057
0.08 111.451 72.327
0.09 112.138 72.678
0.10 113.309 73.100
0.11 114.513 73.280
0.12 115.068 73.078
0.13 116.932 72.908
0.14 116.852 72.768
0.15 114.918 72.147
0.16 107.602 70.504
0.17 96.487 67.600
0.18 91.274 63.975
0.19 83.472 61.649
0.20 95.266 63.526
0.21 100.231 67.887
0.22 117.896 71.350
0.23 116.840 73.089
0.24 115.906 73.225
0.25 114.298 72.343
0.26 111.932 71.145
0.27 110.223 69.684
0.28 109.200 67.572
0.29 102.235 64.676
0.30 103.122 60.902
0.31 111.710 56.107
0.32 --undefined-- 55.048
0.33 --undefined-- 58.768
0.34 --undefined-- 59.539
0.35 --undefined-- 57.667
0.36 --undefined-- 55.343
0.37 --undefined-- 55.124
0.38 --undefined-- 59.794
0.39 --undefined-- 68.871
0.40 179.407 74.845
0.41 177.425 77.487
0.42 162.789 77.672
0.43 161.365 76.804
0.44 162.145 76.040
0.45 163.991 75.756
0.46 164.984 75.831
0.47 167.035 76.066
0.48 166.532 76.314
0.49 163.915 76.402
0.50 160.109 76.246
0.51 154.380 75.865
0.52 146.207 75.271
0.53 136.153 74.598
0.54 129.604 73.957
0.55 117.613 73.164
0.56 108.937 72.468
0.57 103.236 71.973
0.58 99.508 71.275
0.59 96.813 70.593
0.60 96.844 70.253
0.61 95.209 69.789
0.62 92.625 68.572
0.63 91.212 66.773
0.64 93.812 66.086
0.65 100.990 68.103
0.66 106.813 71.009
0.67 108.444 73.170
0.68 109.679 74.365
0.69 112.463 74.626
0.70 113.551 73.272
0.71 111.509 69.900
0.72 115.086 66.061
0.73 112.694 63.286
0.74 108.805 63.409
0.75 --undefined-- 68.134
0.76 112.013 71.275
0.77 106.907 72.057
0.78 100.022 71.567
0.79 95.101 70.773
0.80 90.806 69.855
0.81 86.544 68.753
0.82 82.650 67.679
0.83 83.491 67.034
0.84 85.698 66.927
0.85 87.216 67.217
0.86 89.005 67.711
0.87 92.488 68.176
0.88 96.310 68.148
0.89 100.502 66.947
0.90 104.530 63.822
0.91 95.126 58.555
0.92 --undefined-- 53.713
0.93 --undefined-- 52.220
0.94 --undefined-- 52.287
0.95 --undefined-- 59.100
0.96 --undefined-- 67.221
0.97 --undefined-- 72.075
0.98 128.244 74.139
0.99 119.792 74.427
1.00 118.870 73.704
1.01 114.543 72.431
1.02 115.330 71.827
1.03 118.969 72.346
1.04 120.143 72.790
1.05 120.337 72.890
1.06 120.160 72.826
1.07 120.406 72.822
1.08 120.908 72.963
1.09 120.944 73.176
1.10 120.441 73.322
1.11 119.919 73.141
1.12 119.047 72.027
1.13 112.087 69.255
1.14 102.658 64.457
1.15 --undefined-- 57.974
1.16 --undefined-- 51.337
1.17 --undefined-- 47.540
1.18 --undefined-- 45.989
1.19 --undefined-- 44.424
1.20 --undefined-- 46.413
1.21 --undefined-- 56.040
1.22 130.138 63.479
1.23 126.362 67.816
1.24 124.034 70.081
1.25 124.953 71.192
1.26 126.911 71.851
1.27 128.277 72.289
1.28 128.467 72.387
1.29 127.580 71.965
1.30 125.942 71.165
1.31 127.937 70.949
1.32 131.623 71.742
1.33 134.568 72.701
1.34 136.800 73.411
1.35 138.554 73.727
1.36 139.313 73.716
1.37 139.044 73.646
1.38 138.152 73.602
1.39 136.880 73.394
1.40 136.458 73.101
1.41 135.392 73.124
1.42 133.643 73.440
1.43 130.727 73.626
1.44 126.777 73.391
1.45 122.892 72.403
1.46 117.638 70.196
1.47 111.144 66.739
1.48 116.135 62.959
1.49 119.778 59.288
1.50 --undefined-- 55.194
1.51 --undefined-- 54.013
1.52 --undefined-- 57.282
1.53 --undefined-- 63.619
1.54 --undefined-- 68.666
1.55 135.649 71.103
1.56 134.078 71.645
1.57 131.801 71.018
1.58 130.068 69.829
1.59 129.950 69.070
1.60 131.866 69.397
1.61 133.027 70.169
1.62 133.491 70.853
1.63 133.757 71.192
1.64 132.919 70.861
1.65 129.580 69.400
1.66 123.084 66.393
1.67 116.933 61.792
1.68 114.071 58.036
1.69 127.252 61.495
1.70 123.938 65.784
1.71 115.728 68.010
1.72 107.903 68.508
1.73 96.635 67.362
1.74 86.924 64.501
1.75 85.752 61.894
1.76 87.487 62.461
1.77 86.549 63.644
1.78 85.104 64.254
1.79 85.038 64.501
1.80 86.358 64.389
1.81 86.812 63.520
1.82 86.831 61.725
1.83 87.226 59.364
1.84 87.697 56.985
1.85 --undefined-- 55.243
1.86 --undefined-- 59.025
1.87 --undefined-- 64.786
1.88 108.590 68.095
1.89 94.447 69.329
1.90 93.291 69.691
1.91 94.179 69.970
1.92 95.637 69.953
1.93 97.022 69.765
1.94 97.959 69.866
1.95 98.872 70.326
1.96 100.623 70.961
1.97 100.766 71.481
1.98 100.250 71.639
1.99 99.357 71.376
2.00 98.640 71.007
2.01 98.537 70.829
2.02 98.257 70.539
2.03 95.578 69.733
2.04 92.348 68.646
2.05 91.667 67.544
2.06 90.028 66.484
2.07 87.891 65.725
2.08 87.857 65.328
2.09 89.553 65.056
2.10 90.735 65.057
2.11 91.664 65.392
2.12 92.206 65.638
2.13 92.677 65.771
2.14 93.560 65.916
2.15 95.007 65.987
2.16 96.047 66.108
2.17 98.006 66.345
2.18 99.511 66.596
2.19 102.180 67.013
2.20 108.157 67.682
2.21 113.279 68.334
2.22 118.819 68.947
2.23 122.199 69.602
2.24 126.229 69.850
2.25 127.610 69.051
2.26 127.047 66.843
2.27 122.809 63.040
2.28 115.314 57.353
2.29 --undefined-- 49.595
2.30 --undefined-- 40.469
2.31 --undefined-- 35.610
2.32 --undefined-- 34.513
2.33 --undefined-- 33.286
2.34 --undefined-- 32.350
2.35 --undefined-- 32.255
2.36 --undefined-- 31.269
2.37 --undefined-- 29.332
2.38 --undefined-- 28.770
2.39 --undefined-- 29.187
2.40 --undefined-- 29.169
2.41 --undefined-- 29.057
2.42 --undefined-- 38.643
2.43 --undefined-- 53.720
2.44 --undefined-- 63.928
2.45 --undefined-- 70.078
2.46 131.418 72.686
2.47 131.362 72.504
2.48 136.168 72.081
2.49 138.388 72.778
2.50 132.529 72.464
2.51 132.135 70.528
2.52 127.581 67.152
2.53 121.020 62.990
2.54 --undefined-- 58.292
2.55 --undefined-- 53.818
2.56 --undefined-- 52.217
2.57 --undefined-- 53.124
2.58 --undefined-- 60.563
2.59 173.933 69.449
2.60 172.955 75.020
2.61 166.829 77.713
2.62 163.036 78.369
2.63 159.065 77.479
2.64 156.874 75.007
2.65 --undefined-- 70.571
2.66 --undefined-- 63.839
2.67 --undefined-- 57.149
2.68 --undefined-- 54.645
2.69 --undefined-- 52.957
2.70 --undefined-- 50.713
2.71 --undefined-- 47.733
2.72 --undefined-- 43.694
2.73 --undefined-- 39.477
2.74 --undefined-- 42.410
2.75 --undefined-- 55.016
2.76 --undefined-- 64.741
2.77 --undefined-- 69.412
2.78 --undefined-- 69.606
2.79 --undefined-- 65.641
2.80 --undefined-- 59.124
2.81 --undefined-- 62.913
2.82 --undefined-- 68.848
2.83 --undefined-- 72.130
2.84 --undefined-- 73.302
2.85 --undefined-- 72.944
2.86 --undefined-- 71.662
2.87 --undefined-- 69.615
2.88 --undefined-- 66.171
2.89 --undefined-- 60.708
2.90 --undefined-- 53.903
2.91 --undefined-- 49.332
2.92 --undefined-- 47.298
2.93 --undefined-- 45.768
2.94 --undefined-- 49.035
2.95 --undefined-- 54.638
2.96 --undefined-- 59.434
2.97 191.688 63.923
2.98 189.312 67.717
2.99 189.695 71.623
3.00 190.966 74.250
3.01 194.109 74.774
3.02 197.237 74.175
3.03 199.057 73.774
3.04 201.255 73.412
3.05 204.066 72.453
3.06 207.135 70.699
3.07 210.745 67.857
3.08 208.455 63.291
3.09 --undefined-- 57.096
3.10 --undefined-- 54.361
3.11 209.812 58.361
3.12 214.356 62.390
3.13 213.012 64.808
3.14 207.451 65.552
3.15 202.009 64.200
3.16 --undefined-- 60.474
3.17 163.572 55.949
3.18 160.295 53.078
3.19 --undefined-- 50.680
3.20 --undefined-- 49.923
3.21 --undefined-- 51.473
3.22 --undefined-- 53.394
3.23 --undefined-- 55.536
3.24 --undefined-- 57.189
3.25 --undefined-- 58.665
3.26 --undefined-- 60.391
3.27 --undefined-- 60.953
3.28 --undefined-- 60.480
3.29 --undefined-- 61.134
3.30 192.606 63.765
3.31 194.994 66.547
3.32 205.306 68.885
3.33 210.298 71.004
3.34 211.314 72.457
3.35 210.418 72.627
3.36 209.029 71.200
3.37 210.699 68.626
3.38 211.493 66.331
3.39 211.197 65.104
3.40 210.592 64.592
3.41 209.283 64.487
3.42 207.609 64.649
3.43 204.978 65.516
3.44 201.609 66.817
3.45 199.859 66.623
3.46 191.249 64.140
3.47 180.896 61.193
3.48 174.396 60.497
3.49 169.339 60.762
3.50 162.250 61.732
3.51 149.807 65.165
3.52 141.397 69.465
3.53 138.879 72.727
3.54 135.848 74.551
3.55 131.817 75.210
3.56 129.425 75.390
3.57 127.227 75.313
3.58 125.059 74.575
3.59 123.624 72.915
3.60 121.939 70.078
3.61 120.967 65.630
3.62 121.481 59.495
3.63 --undefined-- 53.568
3.64 --undefined-- 51.507
3.65 --undefined-- 50.809
3.66 --undefined-- 52.543
3.67 --undefined-- 58.573
3.68 120.104 64.043
3.69 121.376 67.531
3.70 123.349 69.239
3.71 122.712 69.433
3.72 120.823 67.974
3.73 117.998 64.350
3.74 109.299 58.516
3.75 112.232 57.444
3.76 115.330 62.660
3.77 112.012 66.076
3.78 114.561 67.649
3.79 114.764 68.134
3.80 113.729 67.808
3.81 111.559 66.414
3.82 109.027 63.693
3.83 --undefined-- 59.622
3.84 --undefined-- 57.415
3.85 --undefined-- 60.386
3.86 --undefined-- 64.782
3.87 --undefined-- 68.777
3.88 147.018 71.566
3.89 149.546 72.674
3.90 151.057 71.772
3.91 151.786 69.271
3.92 155.110 66.451
3.93 157.787 64.129
3.94 152.566 62.863
3.95 147.070 62.916
3.96 142.480 63.721
3.97 141.507 64.121
3.98 134.977 63.610
3.99 129.912 61.909
4.00 130.006 58.248
4.01 --undefined-- 52.002
4.02 --undefined-- 43.884
4.03 --undefined-- 37.561
4.04 --undefined-- 33.747
4.05 --undefined-- 34.156
4.06 --undefined-- 44.217
4.07 --undefined-- 55.860
4.08 --undefined-- 63.442
4.09 --undefined-- 67.383
4.10 132.753 68.379
4.11 127.896 67.493
4.12 124.561 65.819
4.13 123.658 64.461
4.14 122.391 63.848
4.15 120.650 63.399
4.16 118.880 62.889
4.17 117.589 62.017
4.18 116.677 60.544
4.19 115.178 58.868
4.20 113.234 57.250
4.21 110.721 56.517
4.22 109.790 57.784
4.23 110.120 60.014
4.24 109.636 62.175
4.25 108.166 64.110
4.26 106.696 65.291
4.27 103.768 65.426
4.28 101.839 64.625
4.29 101.187 63.486
4.30 103.232 63.874
4.31 101.456 65.863
4.32 109.579 67.729
4.33 110.495 68.475
4.34 112.618 68.177
4.35 112.229 66.204
4.36 --undefined-- 61.371
4.37 --undefined-- 52.598
4.38 --undefined-- 41.187
4.39 --undefined-- 37.003
4.40 --undefined-- 36.101
4.41 --undefined-- 36.214
4.42 --undefined-- 46.698
4.43 --undefined-- 58.544
4.44 --undefined-- 66.151
4.45 --undefined-- 69.894
4.46 --undefined-- 70.255
4.47 --undefined-- 68.758
4.48 --undefined-- 68.466
4.49 --undefined-- 69.171
4.50 --undefined-- 69.508
4.51 --undefined-- 68.930
4.52 --undefined-- 68.849
4.53 130.348 69.619
4.54 132.053 70.204
4.55 132.739 69.659
4.56 132.351 67.585
4.57 131.088 64.015
4.58 130.370 60.374
4.59 129.780 59.080
4.60 129.591 60.224
4.61 129.330 63.039
4.62 129.068 65.477
4.63 129.206 67.010
4.64 128.950 68.009
4.65 129.451 68.908
4.66 130.519 69.899
4.67 131.251 70.731
4.68 131.173 71.008
4.69 130.609 70.735
4.70 128.585 70.112
4.71 126.934 68.727
4.72 126.509 66.279
4.73 127.367 63.484
4.74 128.165 61.131
4.75 126.572 59.062
4.76 125.318 57.289
4.77 122.481 56.015
4.78 120.290 55.020
4.79 118.688 53.766
4.80 --undefined-- 52.232
4.81 --undefined-- 49.928
4.82 --undefined-- 46.397
4.83 --undefined-- 42.181
4.84 --undefined-- 39.059
4.85 --undefined-- 38.129
4.86 --undefined-- 37.922
4.87 --undefined-- 37.059
4.88 --undefined-- 36.461
4.89 --undefined-- 37.057
4.90 --undefined-- 39.270
4.91 --undefined-- 41.271
4.92 --undefined-- 41.170
4.93 --undefined-- 39.963
4.94 --undefined-- 39.489
4.95 --undefined-- 38.520
4.96 --undefined-- 36.203
4.97 --undefined-- 33.182
4.98 --undefined-- 30.968
4.99 --undefined-- 29.907
5.00 --undefined-- 29.070
5.01 --undefined-- 28.285
5.02 --undefined-- 27.652
5.03 --undefined-- 27.494
5.04 --undefined-- 37.055
5.05 --undefined-- 47.746
5.06 --undefined-- 53.994
5.07 --undefined-- 59.571
5.08 182.690 66.702
5.09 183.192 71.939
5.10 180.160 75.271
5.11 175.587 77.393
5.12 173.526 78.552
5.13 172.240 78.748
5.14 170.039 78.454
5.15 168.527 78.131
5.16 167.549 77.657
5.17 165.941 77.048
5.18 164.975 76.394
5.19 165.426 75.604
5.20 166.913 74.564
5.21 168.454 73.443
5.22 170.353 72.495
5.23 170.295 71.702
5.24 168.608 70.820
5.25 --undefined-- 69.521
5.26 --undefined-- 67.671
5.27 --undefined-- 64.622
5.28 --undefined-- 60.286
5.29 --undefined-- 56.124
5.30 --undefined-- 51.743
5.31 --undefined-- 50.068
5.32 --undefined-- 49.785
5.33 --undefined-- 47.159
5.34 --undefined-- 41.502
5.35 --undefined-- 35.737
5.36 --undefined-- 36.141
5.37 --undefined-- 38.742
5.38 --undefined-- 41.494
5.39 --undefined-- 46.111
5.40 --undefined-- 50.913
5.41 --undefined-- 57.336
5.42 --undefined-- 66.182
5.43 169.136 72.490
5.44 165.851 75.516
5.45 162.068 75.943
5.46 158.318 74.980
5.47 159.182 74.311
5.48 160.404 73.668
5.49 162.846 71.942
5.50 164.570 69.615
5.51 164.102 68.690
5.52 164.559 69.217
5.53 164.881 69.915
5.54 163.977 70.319
5.55 163.721 70.267
5.56 164.936 --undefined--
5.57 166.027 --undefined--
5.58 --undefined-- --undefined--
5.59 --undefined-- --undefined--
