Time Pitch Intensity
0.01 --undefined-- --undefined--
0.02 122.684 --undefined--
0.03 121.495 --undefined--
0.04 --undefined-- --undefined--
0.05 --undefined-- 57.507
0.06 --undefined-- 48.928
0.07 --undefined-- 42.324
0.08 --undefined-- 38.164
0.09 --undefined-- 36.349
0.10 --undefined-- 36.321
0.11 --undefined-- 38.699
0.12 --undefined-- 44.993
0.13 --undefined-- 51.455
0.14 --undefined-- 55.922
0.15 --undefined-- 57.504
0.16 --undefined-- 59.162
0.17 119.112 62.653
0.18 117.267 65.064
0.19 115.240 66.223
0.20 113.076 66.574
0.21 111.776 66.713
0.22 111.564 67.266
0.23 112.570 68.253
0.24 114.454 69.014
0.25 115.844 68.703
0.26 114.885 67.411
0.27 114.907 66.418
0.28 114.982 65.915
0.29 114.845 65.299
0.30 112.776 64.600
0.31 111.365 64.004
0.32 106.298 63.504
0.33 107.530 62.818
0.34 103.342 61.661
0.35 98.469 60.477
0.36 95.716 59.570
0.37 92.607 58.662
0.38 89.798 57.978
0.39 87.253 58.031
0.40 84.274 58.196
0.41 81.578 57.900
0.42 78.976 57.728
0.43 84.042 57.342
0.44 84.668 55.547
0.45 --undefined-- 52.882
0.46 --undefined-- 49.283
0.47 --undefined-- 43.936
0.48 --undefined-- 41.498
0.49 --undefined-- 45.077
0.50 --undefined-- 48.504
0.51 --undefined-- 51.533
0.52 --undefined-- 54.478
0.53 --undefined-- 55.964
0.54 --undefined-- 57.874
0.55 107.939 61.687
0.56 110.449 64.791
0.57 113.067 66.748
0.58 114.384 67.866
0.59 115.200 68.303
0.60 117.117 68.295
0.61 118.074 68.207
0.62 118.507 68.111
0.63 116.666 68.397
0.64 119.592 68.366
0.65 119.149 66.273
0.66 118.614 62.781
0.67 --undefined-- 59.977
0.68 --undefined-- 58.656
0.69 --undefined-- 58.940
0.70 --undefined-- 58.869
0.71 --undefined-- 58.801
0.72 --undefined-- 59.725
0.73 --undefined-- 61.517
0.74 --undefined-- 63.592
0.75 --undefined-- 66.571
0.76 --undefined-- 69.474
0.77 --undefined-- 70.322
0.78 111.615 68.818
0.79 98.318 65.462
0.80 95.980 61.747
0.81 97.176 59.212
0.82 97.861 58.341
0.83 97.474 58.501
0.84 96.915 58.433
0.85 93.080 57.264
0.86 94.895 56.218
0.87 97.236 56.689
0.88 97.440 57.267
0.89 96.158 57.181
0.90 95.936 56.378
0.91 --undefined-- 58.298
0.92 --undefined-- 62.639
0.93 --undefined-- 64.887
0.94 --undefined-- 65.139
0.95 --undefined-- 63.805
0.96 --undefined-- 60.311
0.97 --undefined-- 53.891
0.98 --undefined-- 47.559
0.99 --undefined-- 48.226
1.00 --undefined-- 49.553
1.01 --undefined-- 50.391
1.02 97.483 50.956
1.03 98.855 51.846
1.04 103.526 54.455
1.05 108.969 59.182
1.06 113.090 64.513
1.07 112.363 68.539
1.08 117.372 70.782
1.09 120.326 71.511
1.10 123.473 71.312
1.11 124.117 70.561
1.12 123.937 69.133
1.13 124.354 66.741
1.14 121.890 63.327
1.15 121.401 58.655
1.16 --undefined-- 52.561
1.17 --undefined-- 47.864
1.18 --undefined-- 47.307
1.19 --undefined-- 47.970
1.20 --undefined-- 49.926
1.21 --undefined-- 54.816
1.22 101.259 60.124
1.23 103.533 64.233
1.24 105.022 66.996
1.25 103.126 68.648
1.26 100.278 69.500
1.27 98.740 69.113
1.28 97.916 67.463
1.29 98.444 65.679
1.30 98.638 64.555
1.31 97.626 63.471
1.32 98.368 62.144
1.33 99.953 61.357
1.34 105.835 61.361
1.35 110.687 61.935
1.36 113.245 62.640
1.37 115.518 62.643
1.38 116.555 61.398
1.39 116.765 58.894
1.40 --undefined-- 55.289
1.41 --undefined-- 51.382
1.42 --undefined-- 48.486
1.43 --undefined-- 47.607
1.44 --undefined-- 48.505
1.45 --undefined-- 49.516
1.46 --undefined-- 50.038
1.47 --undefined-- 50.962
1.48 --undefined-- 52.764
1.49 --undefined-- 53.718
1.50 --undefined-- 53.363
1.51 --undefined-- 52.568
1.52 --undefined-- 51.425
1.53 --undefined-- 50.266
1.54 --undefined-- 49.505
1.55 --undefined-- 50.179
1.56 --undefined-- 52.982
1.57 --undefined-- 54.553
1.58 --undefined-- 54.566
1.59 --undefined-- 56.050
1.60 --undefined-- 59.402
1.61 117.138 61.875
1.62 117.870 63.315
1.63 118.947 64.696
1.64 119.076 65.916
1.65 119.504 66.678
1.66 119.459 67.369
1.67 119.147 68.248
1.68 118.495 68.861
1.69 116.944 68.975
1.70 116.202 68.651
1.71 116.212 68.231
1.72 116.524 68.500
1.73 117.255 69.445
1.74 118.729 70.547
1.75 119.886 71.183
1.76 120.543 70.895
1.77 121.172 69.849
1.78 120.803 68.659
1.79 120.096 68.033
1.80 119.398 67.899
1.81 118.104 67.811
1.82 117.227 67.736
1.83 116.465 67.513
1.84 114.904 66.637
1.85 114.886 64.769
1.86 115.494 61.861
1.87 --undefined-- 57.635
1.88 --undefined-- 51.621
1.89 --undefined-- 45.110
1.90 --undefined-- 41.083
1.91 --undefined-- 41.853
1.92 --undefined-- 49.394
1.93 --undefined-- 55.120
1.94 --undefined-- 57.782
1.95 --undefined-- 60.043
1.96 --undefined-- 62.556
1.97 --undefined-- 62.994
1.98 --undefined-- 61.542
1.99 --undefined-- 60.984
2.00 --undefined-- 62.994
2.01 118.127 65.291
2.02 117.985 66.277
2.03 117.500 66.171
2.04 112.825 65.317
2.05 112.879 63.636
2.06 112.256 61.862
2.07 112.030 60.508
2.08 111.578 59.385
2.09 109.594 58.543
2.10 108.770 57.858
2.11 107.823 57.012
2.12 102.841 56.032
2.13 --undefined-- 55.147
2.14 --undefined-- 54.732
2.15 --undefined-- 54.862
2.16 --undefined-- 55.287
2.17 --undefined-- 55.516
2.18 --undefined-- 56.287
2.19 --undefined-- 57.944
2.20 --undefined-- 58.936
2.21 --undefined-- 59.520
2.22 --undefined-- 60.993
2.23 --undefined-- 61.898
2.24 --undefined-- 60.738
2.25 --undefined-- 58.301
2.26 --undefined-- 56.866
2.27 --undefined-- 57.387
2.28 --undefined-- 58.128
2.29 99.839 58.304
2.30 100.644 58.782
2.31 99.494 59.178
2.32 99.483 58.956
2.33 95.957 58.088
2.34 91.219 56.909
2.35 --undefined-- 55.951
2.36 --undefined-- 55.146
2.37 --undefined-- 54.111
2.38 --undefined-- 51.502
2.39 --undefined-- 46.398
2.40 --undefined-- 41.531
2.41 --undefined-- 40.734
2.42 --undefined-- 42.321
2.43 --undefined-- 42.235
2.44 --undefined-- 42.326
2.45 --undefined-- 45.055
2.46 --undefined-- 47.026
2.47 --undefined-- 50.070
2.48 --undefined-- 53.111
2.49 --undefined-- 55.964
2.50 89.663 58.532
2.51 92.653 59.943
2.52 91.689 60.691
2.53 93.508 61.403
2.54 93.563 61.814
2.55 92.420 61.729
2.56 91.575 60.859
2.57 89.696 58.893
2.58 --undefined-- 55.371
2.59 --undefined-- 50.291
2.60 --undefined-- 44.247
2.61 --undefined-- 38.508
2.62 --undefined-- 36.936
2.63 --undefined-- 36.471
2.64 --undefined-- 36.173
2.65 --undefined-- 36.629
2.66 --undefined-- 36.705
2.67 --undefined-- 35.747
2.68 --undefined-- 35.614
2.69 --undefined-- 36.957
2.70 --undefined-- 40.385
2.71 --undefined-- 43.120
2.72 --undefined-- 45.826
2.73 --undefined-- 50.642
2.74 --undefined-- 54.610
2.75 --undefined-- 56.668
2.76 --undefined-- 59.963
2.77 --undefined-- 65.288
2.78 --undefined-- 69.001
2.79 --undefined-- 70.634
2.80 --undefined-- 70.603
2.81 --undefined-- 69.057
2.82 --undefined-- 65.541
2.83 --undefined-- 62.771
2.84 --undefined-- 64.506
2.85 --undefined-- 64.241
2.86 --undefined-- 60.608
2.87 --undefined-- 56.655
2.88 --undefined-- 56.914
2.89 --undefined-- 56.541
2.90 91.822 54.925
2.91 96.157 53.990
2.92 96.096 54.338
2.93 99.058 55.276
2.94 99.825 56.772
2.95 101.784 58.754
2.96 101.647 60.159
2.97 98.435 59.991
2.98 101.239 59.377
2.99 102.597 59.919
3.00 101.518 61.071
3.01 100.645 63.008
3.02 100.197 64.512
3.03 97.739 64.463
3.04 92.667 62.956
3.05 89.008 60.845
3.06 87.654 58.996
3.07 85.267 57.429
3.08 85.307 56.007
3.09 88.680 54.701
3.10 90.215 53.287
3.11 --undefined-- 51.348
3.12 --undefined-- 48.841
3.13 --undefined-- 47.927
3.14 --undefined-- 51.850
3.15 --undefined-- 57.475
3.16 --undefined-- 60.573
3.17 --undefined-- 61.240
3.18 --undefined-- 62.170
3.19 --undefined-- 63.765
3.20 --undefined-- 62.787
3.21 --undefined-- 61.507
3.22 --undefined-- 63.459
3.23 --undefined-- 63.278
3.24 --undefined-- 59.375
3.25 --undefined-- 53.117
3.26 --undefined-- 52.065
3.27 --undefined-- 52.238
3.28 --undefined-- 49.937
3.29 --undefined-- 47.128
3.30 --undefined-- 43.735
3.31 --undefined-- 39.053
3.32 --undefined-- 36.710
3.33 --undefined-- 35.276
3.34 --undefined-- 33.759
3.35 --undefined-- 35.718
3.36 --undefined-- 38.900
3.37 --undefined-- 40.726
3.38 --undefined-- 42.124
3.39 --undefined-- 43.024
3.40 --undefined-- 42.999
3.41 --undefined-- 42.659
3.42 --undefined-- 42.733
3.43 --undefined-- 43.051
3.44 --undefined-- 43.159
3.45 --undefined-- 42.834
3.46 --undefined-- 42.059
3.47 --undefined-- 41.709
3.48 --undefined-- 42.188
3.49 --undefined-- 42.727
3.50 --undefined-- 44.011
3.51 --undefined-- 45.544
3.52 --undefined-- 45.851
3.53 --undefined-- 44.807
3.54 --undefined-- 43.439
3.55 --undefined-- 42.844
3.56 --undefined-- 42.720
3.57 --undefined-- 42.662
3.58 --undefined-- 43.032
3.59 --undefined-- 42.954
3.60 --undefined-- 42.090
3.61 --undefined-- 41.691
3.62 --undefined-- 42.061
3.63 --undefined-- 42.324
3.64 --undefined-- 41.940
3.65 --undefined-- 40.737
3.66 --undefined-- 39.511
3.67 --undefined-- 38.895
3.68 --undefined-- 38.940
3.69 --undefined-- 39.743
3.70 --undefined-- 43.765
3.71 --undefined-- 50.176
3.72 --undefined-- 55.199
3.73 --undefined-- 59.760
3.74 --undefined-- 64.006
3.75 --undefined-- 65.345
3.76 --undefined-- 62.983
3.77 --undefined-- 57.597
3.78 101.235 53.476
3.79 105.752 53.040
3.80 107.582 52.695
3.81 109.461 52.189
3.82 113.900 53.386
3.83 115.179 57.880
3.84 --undefined-- 61.325
3.85 --undefined-- 61.105
3.86 114.701 57.780
3.87 114.217 56.234
3.88 114.459 58.222
3.89 116.793 60.682
3.90 117.938 62.681
3.91 121.838 64.384
3.92 123.390 65.995
3.93 125.020 67.261
3.94 126.656 68.320
3.95 127.292 69.087
3.96 125.408 69.330
3.97 123.429 69.328
3.98 --undefined-- 69.146
3.99 --undefined-- 68.152
4.00 --undefined-- 66.623
4.01 --undefined-- 65.160
4.02 --undefined-- 62.825
4.03 --undefined-- 60.561
4.04 --undefined-- 59.257
4.05 --undefined-- 58.871
4.06 --undefined-- 60.485
4.07 --undefined-- 62.059
4.08 --undefined-- 62.443
4.09 --undefined-- 63.673
4.10 --undefined-- 65.938
4.11 103.768 66.228
4.12 101.989 64.537
4.13 101.216 62.713
4.14 100.364 61.489
4.15 100.580 60.369
4.16 97.988 59.014
4.17 99.867 57.927
4.18 100.922 58.150
4.19 101.963 60.410
4.20 105.898 64.214
4.21 109.811 67.291
4.22 110.368 68.950
4.23 110.929 69.339
4.24 111.005 68.820
4.25 110.797 67.919
4.26 110.158 66.954
4.27 106.621 65.241
4.28 105.076 61.190
4.29 --undefined-- 53.791
4.30 --undefined-- 46.900
4.31 --undefined-- 50.960
4.32 --undefined-- 55.484
4.33 --undefined-- 60.153
4.34 --undefined-- 65.098
4.35 --undefined-- 68.127
4.36 98.373 68.610
4.37 97.138 67.068
4.38 94.369 64.382
4.39 93.364 61.331
4.40 91.128 58.269
4.41 90.794 55.529
4.42 90.089 53.750
4.43 90.518 52.689
4.44 90.364 53.578
4.45 87.290 56.711
4.46 --undefined-- 60.578
4.47 --undefined-- 64.009
4.48 --undefined-- 66.084
4.49 --undefined-- 66.840
4.50 84.963 66.455
4.51 84.472 64.779
4.52 --undefined-- 62.276
4.53 --undefined-- 59.180
4.54 --undefined-- 53.914
4.55 --undefined-- 47.869
4.56 --undefined-- 47.990
4.57 --undefined-- 48.805
4.58 --undefined-- 48.093
4.59 --undefined-- 46.658
4.60 --undefined-- 46.795
4.61 --undefined-- 50.493
4.62 --undefined-- 55.135
4.63 --undefined-- 59.652
4.64 --undefined-- 62.824
4.65 --undefined-- 63.638
4.66 109.777 62.873
4.67 104.137 61.940
4.68 104.697 61.313
4.69 102.829 60.993
4.70 102.481 60.808
4.71 101.916 61.145
4.72 102.323 62.081
4.73 102.976 62.300
4.74 103.768 60.633
4.75 --undefined-- 56.501
4.76 --undefined-- 49.887
4.77 --undefined-- 42.893
4.78 --undefined-- 43.546
4.79 --undefined-- 54.395
4.80 --undefined-- 61.791
4.81 --undefined-- 65.949
4.82 --undefined-- 69.423
4.83 --undefined-- 71.659
4.84 --undefined-- 71.115
4.85 --undefined-- 67.939
4.86 88.243 63.344
4.87 85.476 59.475
4.88 84.571 58.031
4.89 82.688 57.388
4.90 --undefined-- 56.710
4.91 --undefined-- 55.790
4.92 --undefined-- 54.142
4.93 --undefined-- 51.121
4.94 --undefined-- 46.291
4.95 --undefined-- 39.682
4.96 --undefined-- 35.093
4.97 --undefined-- 42.854
4.98 --undefined-- 50.702
4.99 --undefined-- 55.234
5.00 --undefined-- 57.905
5.01 --undefined-- 60.339
5.02 --undefined-- 63.928
5.03 108.784 67.315
5.04 106.844 69.055
5.05 106.470 69.403
5.06 106.244 68.716
5.07 105.760 67.051
5.08 105.918 64.655
5.09 102.564 61.630
5.10 --undefined-- 57.664
5.11 --undefined-- 52.463
5.12 --undefined-- 45.599
5.13 --undefined-- 40.087
5.14 --undefined-- 38.944
5.15 --undefined-- 42.126
5.16 --undefined-- 51.042
5.17 --undefined-- 56.257
5.18 --undefined-- 59.373
5.19 --undefined-- 63.689
5.20 103.607 67.241
5.21 101.774 68.760
5.22 101.361 68.352
5.23 95.969 66.513
5.24 94.139 64.972
5.25 94.130 64.754
5.26 93.877 64.787
5.27 93.253 64.604
5.28 91.759 64.011
5.29 92.204 63.499
5.30 91.776 63.555
5.31 92.107 63.876
5.32 91.397 64.109
5.33 90.698 64.134
5.34 89.297 64.232
5.35 89.595 64.587
5.36 90.870 65.055
5.37 89.813 65.205
5.38 89.489 64.662
5.39 89.497 63.954
5.40 90.916 63.845
5.41 90.572 64.034
5.42 90.134 63.725
5.43 93.495 62.535
5.44 93.113 61.107
5.45 93.001 60.002
5.46 94.265 59.084
5.47 96.378 --undefined--
5.48 97.642 --undefined--
5.49 --undefined-- --undefined--
5.50 --undefined-- --undefined--
