Time Pitch Intensity
0.01 --undefined-- --undefined--
0.02 179.201 --undefined--
0.03 182.446 --undefined--
0.04 --undefined-- --undefined--
0.05 --undefined-- 61.583
0.06 91.402 60.113
0.07 --undefined-- 57.481
0.08 --undefined-- 53.021
0.09 --undefined-- 50.550
0.10 --undefined-- 52.012
0.11 --undefined-- 55.572
0.12 --undefined-- 59.883
0.13 --undefined-- 63.224
0.14 --undefined-- 67.404
0.15 --undefined-- 70.662
0.16 --undefined-- 71.556
0.17 177.221 70.750
0.18 171.651 69.568
0.19 166.030 68.739
0.20 162.156 68.160
0.21 160.128 67.311
0.22 158.371 66.406
0.23 157.360 66.576
0.24 156.383 66.800
0.25 154.973 66.513
0.26 153.748 66.337
0.27 151.832 66.454
0.28 151.251 66.662
0.29 150.566 66.842
0.30 149.743 67.098
0.31 149.947 67.646
0.32 150.523 68.258
0.33 150.518 68.289
0.34 151.153 67.436
0.35 151.595 65.798
0.36 150.673 64.120
0.37 150.353 63.177
0.38 149.958 62.567
0.39 149.412 61.441
0.40 148.623 59.672
0.41 147.340 57.616
0.42 144.746 55.108
0.43 --undefined-- 51.376
0.44 --undefined-- 46.604
0.45 --undefined-- 43.309
0.46 --undefined-- 42.755
0.47 --undefined-- 45.176
0.48 --undefined-- 48.066
0.49 --undefined-- 48.552
0.50 --undefined-- 46.775
0.51 --undefined-- 44.011
0.52 --undefined-- 41.001
0.53 --undefined-- 39.330
0.54 --undefined-- 40.103
0.55 --undefined-- 41.635
0.56 --undefined-- 42.684
0.57 --undefined-- 42.977
0.58 --undefined-- 42.575
0.59 --undefined-- 41.258
0.60 --undefined-- 40.246
0.61 --undefined-- 40.983
0.62 --undefined-- 44.353
0.63 --undefined-- 48.702
0.64 --undefined-- 49.936
0.65 --undefined-- 47.061
0.66 --undefined-- 40.685
0.67 --undefined-- 36.659
0.68 --undefined-- 38.192
0.69 --undefined-- 41.816
0.70 --undefined-- 47.982
0.71 --undefined-- 54.014
0.72 --undefined-- 57.734
0.73 --undefined-- 59.175
0.74 --undefined-- 58.647
0.75 --undefined-- 56.087
0.76 --undefined-- 54.434
0.77 --undefined-- 61.231
0.78 186.062 68.126
0.79 178.577 71.834
0.80 175.561 72.574
0.81 176.035 70.899
0.82 176.937 67.305
0.83 174.159 62.119
0.84 175.375 56.705
0.85 174.573 53.990
0.86 179.384 53.841
0.87 --undefined-- 56.121
0.88 --undefined-- 62.252
0.89 231.696 68.951
0.90 220.516 72.662
0.91 209.761 73.850
0.92 205.783 73.978
0.93 202.028 73.860
0.94 197.925 73.141
0.95 195.363 71.597
0.96 194.370 69.957
0.97 194.107 69.246
0.98 194.434 68.715
0.99 195.254 67.743
1.00 196.719 66.811
1.01 199.853 67.174
1.02 204.087 68.447
1.03 202.034 68.848
1.04 205.113 69.590
1.05 205.814 70.709
1.06 205.628 71.388
1.07 203.772 71.739
1.08 200.609 71.684
1.09 197.639 71.294
1.10 194.817 70.877
1.11 191.929 70.595
1.12 189.446 70.392
1.13 187.411 70.072
1.14 185.578 69.590
1.15 184.423 68.957
1.16 181.651 67.462
1.17 176.595 63.842
1.18 --undefined-- 57.179
1.19 --undefined-- 49.609
1.20 --undefined-- 46.529
1.21 --undefined-- 45.500
1.22 --undefined-- 50.037
1.23 --undefined-- 59.163
1.24 --undefined-- 66.085
1.25 --undefined-- 69.786
1.26 208.438 70.895
1.27 203.219 70.701
1.28 198.129 69.965
1.29 192.578 68.486
1.30 190.500 66.120
1.31 --undefined-- 63.157
1.32 --undefined-- 61.524
1.33 --undefined-- 61.561
1.34 --undefined-- 61.989
1.35 --undefined-- 62.869
1.36 --undefined-- 63.443
1.37 --undefined-- 64.177
1.38 --undefined-- 67.077
1.39 161.714 69.860
1.40 152.641 71.027
1.41 145.392 71.163
1.42 140.853 70.500
1.43 138.771 68.936
1.44 135.507 67.353
1.45 132.210 66.520
1.46 129.680 65.523
1.47 127.399 63.982
1.48 126.450 62.222
1.49 124.084 60.204
1.50 124.162 58.785
1.51 125.640 58.835
1.52 126.478 59.462
1.53 126.420 60.080
1.54 126.304 60.204
1.55 125.509 59.093
1.56 122.459 56.225
1.57 --undefined-- 52.458
1.58 --undefined-- 50.772
1.59 --undefined-- 50.279
1.60 --undefined-- 49.185
1.61 --undefined-- 47.775
1.62 --undefined-- 46.905
1.63 --undefined-- 46.758
1.64 --undefined-- 46.154
1.65 --undefined-- 44.136
1.66 --undefined-- 41.255
1.67 --undefined-- 40.123
1.68 --undefined-- 40.032
1.69 --undefined-- 40.539
1.70 --undefined-- 48.873
1.71 --undefined-- 56.546
1.72 --undefined-- 59.821
1.73 --undefined-- 60.295
1.74 243.473 62.797
1.75 241.141 66.924
1.76 241.849 69.725
1.77 241.831 71.260
1.78 242.773 71.934
1.79 243.466 72.092
1.80 242.103 71.713
1.81 239.139 70.953
1.82 241.493 70.677
1.83 257.377 70.830
1.84 285.364 70.432
1.85 283.785 69.515
1.86 275.564 68.496
1.87 264.351 66.962
1.88 254.573 64.385
1.89 236.776 60.456
1.90 --undefined-- 55.995
1.91 --undefined-- 53.427
1.92 --undefined-- 52.276
1.93 --undefined-- 53.345
1.94 --undefined-- 60.823
1.95 --undefined-- 68.242
1.96 --undefined-- 72.882
1.97 --undefined-- 74.633
1.98 186.412 74.399
1.99 176.077 73.773
2.00 172.665 73.416
2.01 174.568 72.967
2.02 176.031 72.287
2.03 175.233 71.129
2.04 175.061 69.128
2.05 176.595 66.446
2.06 179.126 63.641
2.07 179.482 60.524
2.08 174.518 56.319
2.09 175.054 51.779
2.10 --undefined-- 49.632
2.11 --undefined-- 50.714
2.12 --undefined-- 53.117
2.13 --undefined-- 56.280
2.14 --undefined-- 62.182
2.15 196.129 66.676
2.16 175.553 68.533
2.17 162.051 69.076
2.18 160.862 69.182
2.19 163.784 67.892
2.20 168.337 64.681
2.21 168.714 60.164
2.22 --undefined-- 55.956
2.23 --undefined-- 54.004
2.24 --undefined-- 53.742
2.25 --undefined-- 55.900
2.26 163.981 61.066
2.27 165.554 65.568
2.28 152.433 67.849
2.29 138.764 68.152
2.30 139.533 68.214
2.31 141.291 68.149
2.32 144.842 66.291
2.33 --undefined-- 62.687
2.34 --undefined-- 58.796
2.35 --undefined-- 55.022
2.36 --undefined-- 51.262
2.37 --undefined-- 49.812
2.38 --undefined-- 52.117
2.39 181.868 59.875
2.40 166.849 66.956
2.41 162.323 71.299
2.42 160.897 73.268
2.43 162.286 73.716
2.44 165.154 73.456
2.45 167.484 72.816
2.46 168.707 72.084
2.47 168.739 71.560
2.48 168.988 71.208
2.49 168.885 70.850
2.50 168.281 70.439
2.51 165.784 70.043
2.52 162.742 69.961
2.53 159.369 70.089
2.54 156.810 70.108
2.55 155.023 70.106
2.56 153.827 70.175
2.57 152.402 70.288
2.58 150.134 70.518
2.59 147.068 70.581
2.60 144.152 70.301
2.61 142.117 69.759
2.62 141.364 68.572
2.63 140.857 66.194
2.64 140.802 62.603
2.65 145.331 57.971
2.66 145.035 52.473
2.67 --undefined-- 47.620
2.68 --undefined-- 45.150
2.69 --undefined-- 44.135
2.70 --undefined-- 44.314
2.71 --undefined-- 45.261
2.72 --undefined-- 46.455
2.73 --undefined-- 46.827
2.74 --undefined-- 46.202
2.75 --undefined-- 46.328
2.76 --undefined-- 47.496
2.77 --undefined-- 47.624
2.78 --undefined-- 47.090
2.79 --undefined-- 47.167
2.80 --undefined-- 47.262
2.81 --undefined-- 47.247
2.82 --undefined-- 46.717
2.83 --undefined-- 45.895
2.84 --undefined-- 45.418
2.85 --undefined-- 45.491
2.86 --undefined-- 45.772
2.87 --undefined-- 45.744
2.88 --undefined-- 45.366
2.89 --undefined-- 45.530
2.90 --undefined-- 46.489
2.91 --undefined-- 47.202
2.92 --undefined-- 47.083
2.93 --undefined-- 45.799
2.94 --undefined-- 43.192
2.95 --undefined-- 40.306
2.96 --undefined-- 39.150
2.97 --undefined-- 41.115
2.98 --undefined-- 43.330
2.99 --undefined-- 44.755
3.00 --undefined-- 50.584
3.01 --undefined-- 61.509
3.02 --undefined-- 67.942
3.03 --undefined-- 70.534
3.04 --undefined-- 72.470
3.05 210.029 75.357
3.06 207.067 76.359
3.07 202.506 74.927
3.08 197.536 71.481
3.09 194.007 66.673
3.10 191.675 65.239
3.11 187.056 66.480
3.12 183.572 65.883
3.13 180.853 63.026
3.14 175.167 58.440
3.15 178.966 54.545
3.16 193.805 52.355
3.17 197.466 53.436
3.18 --undefined-- 60.807
3.19 --undefined-- 65.482
3.20 --undefined-- 67.153
3.21 --undefined-- 68.829
3.22 --undefined-- 70.689
3.23 169.989 71.367
3.24 161.984 70.641
3.25 153.407 68.687
3.26 147.667 66.635
3.27 144.989 65.330
3.28 143.161 64.996
3.29 140.800 65.539
3.30 141.349 66.204
3.31 139.613 66.319
3.32 138.263 65.563
3.33 134.834 63.995
3.34 132.585 62.095
3.35 131.042 59.490
3.36 127.431 55.921
3.37 126.362 53.937
3.38 128.379 57.024
3.39 131.112 61.838
3.40 129.626 64.858
3.41 126.283 65.841
3.42 127.647 65.632
3.43 --undefined-- 65.154
3.44 --undefined-- 64.930
3.45 --undefined-- 64.738
3.46 --undefined-- 64.422
3.47 --undefined-- 63.813
3.48 --undefined-- 63.302
3.49 118.153 62.730
3.50 123.642 61.398
3.51 124.794 60.357
3.52 126.485 59.891
3.53 127.566 58.936
3.54 129.958 57.455
3.55 133.896 55.871
3.56 136.964 54.141
3.57 141.778 51.861
3.58 --undefined-- 48.634
3.59 --undefined-- 44.846
3.60 --undefined-- 42.873
3.61 --undefined-- 50.370
3.62 --undefined-- 60.227
3.63 151.953 66.600
3.64 153.020 69.543
3.65 148.605 69.593
3.66 144.887 68.490
3.67 142.822 68.418
3.68 --undefined-- 68.305
3.69 --undefined-- 66.643
3.70 --undefined-- 63.805
3.71 --undefined-- 60.532
3.72 --undefined-- 54.671
3.73 --undefined-- 46.993
3.74 --undefined-- 44.365
3.75 --undefined-- 42.402
3.76 --undefined-- 39.253
3.77 --undefined-- 35.987
3.78 --undefined-- 35.931
3.79 --undefined-- 37.363
3.80 --undefined-- 37.986
3.81 --undefined-- 37.115
3.82 --undefined-- 36.060
3.83 --undefined-- 37.514
3.84 --undefined-- 39.447
3.85 --undefined-- 40.058
3.86 --undefined-- 39.402
3.87 --undefined-- 38.775
3.88 --undefined-- 38.767
3.89 --undefined-- 38.699
3.90 --undefined-- 38.246
3.91 --undefined-- 37.617
3.92 --undefined-- 37.998
3.93 --undefined-- 38.509
3.94 --undefined-- 38.460
3.95 --undefined-- 38.147
3.96 --undefined-- 37.696
3.97 --undefined-- 37.875
3.98 --undefined-- 38.761
3.99 --undefined-- 39.162
4.00 --undefined-- 38.474
4.01 --undefined-- 38.464
4.02 --undefined-- 42.014
4.03 --undefined-- 45.295
4.04 --undefined-- 46.653
4.05 --undefined-- 47.056
4.06 --undefined-- 46.508
4.07 --undefined-- 44.953
4.08 --undefined-- 47.293
4.09 --undefined-- 54.990
4.10 --undefined-- 60.646
4.11 239.362 63.495
4.12 255.157 64.290
4.13 292.441 65.432
4.14 293.269 68.225
4.15 292.666 69.520
4.16 291.645 69.127
4.17 292.181 68.102
4.18 289.801 66.635
4.19 277.691 65.058
4.20 265.774 63.556
4.21 253.866 61.749
4.22 251.143 62.415
4.23 269.592 68.339
4.24 269.658 73.414
4.25 266.521 76.207
4.26 260.688 77.023
4.27 253.554 76.165
4.28 244.647 73.733
4.29 231.576 70.045
4.30 225.789 65.726
4.31 223.402 60.334
4.32 245.890 55.001
4.33 250.150 53.392
4.34 255.360 52.768
4.35 268.633 52.621
4.36 --undefined-- 53.321
4.37 --undefined-- 54.359
4.38 --undefined-- 56.519
4.39 217.774 58.960
4.40 218.195 61.028
4.41 --undefined-- 62.688
4.42 --undefined-- 63.421
4.43 142.076 63.264
4.44 139.528 63.042
4.45 137.250 62.712
4.46 134.628 61.529
4.47 132.320 59.398
4.48 130.463 56.734
4.49 128.085 54.125
4.50 126.239 51.364
4.51 --undefined-- 47.907
4.52 --undefined-- 45.263
4.53 --undefined-- 45.998
4.54 --undefined-- 51.829
4.55 --undefined-- 59.042
4.56 169.331 65.074
4.57 170.553 69.308
4.58 173.044 71.667
4.59 177.324 72.430
4.60 181.999 72.172
4.61 186.787 71.481
4.62 190.784 71.118
4.63 194.261 71.277
4.64 198.497 71.465
4.65 202.076 71.477
4.66 204.101 71.527
4.67 205.331 71.693
4.68 206.358 71.764
4.69 206.596 71.280
4.70 206.278 69.873
4.71 204.232 67.290
4.72 201.051 62.956
4.73 201.701 56.525
4.74 201.312 51.201
4.75 199.367 53.044
4.76 200.853 60.646
4.77 195.784 66.505
4.78 183.425 69.163
4.79 166.796 69.415
4.80 155.862 68.296
4.81 149.417 66.397
4.82 147.585 65.518
4.83 150.471 67.354
4.84 153.685 69.807
4.85 155.826 71.117
4.86 159.849 70.888
4.87 167.913 70.139
4.88 175.376 70.278
4.89 179.083 70.483
4.90 184.665 70.054
4.91 192.655 70.599
4.92 195.682 72.076
4.93 198.719 72.790
4.94 201.513 72.430
4.95 199.807 71.725
4.96 192.340 71.520
4.97 183.839 71.571
4.98 177.403 70.562
4.99 164.857 67.553
5.00 --undefined-- 62.642
5.01 --undefined-- 57.236
5.02 --undefined-- 56.806
5.03 --undefined-- 60.155
5.04 --undefined-- 61.050
5.05 --undefined-- 60.345
5.06 --undefined-- 61.536
5.07 --undefined-- 63.204
5.08 --undefined-- 64.714
5.09 --undefined-- 67.871
5.10 --undefined-- 70.689
5.11 150.145 71.538
5.12 148.148 70.726
5.13 150.317 69.204
5.14 158.016 67.615
5.15 159.586 64.784
5.16 161.479 59.560
5.17 --undefined-- 52.808
5.18 --undefined-- 49.493
5.19 --undefined-- 52.582
5.20 --undefined-- 55.022
5.21 --undefined-- 55.525
5.22 --undefined-- 56.597
5.23 --undefined-- 61.549
5.24 201.384 66.605
5.25 193.658 69.727
5.26 189.972 71.100
5.27 189.011 71.224
5.28 187.336 70.356
5.29 184.507 68.629
5.30 175.988 66.458
5.31 161.152 64.610
5.32 147.547 63.659
5.33 142.013 64.567
5.34 --undefined-- 66.651
5.35 --undefined-- 68.219
5.36 --undefined-- 68.706
5.37 76.479 68.447
5.38 76.206 68.257
5.39 77.050 67.976
5.40 77.975 67.497
5.41 79.348 66.927
5.42 78.549 65.755
5.43 78.416 64.283
5.44 --undefined-- 64.912
5.45 74.407 66.873
5.46 76.647 --undefined--
5.47 77.163 --undefined--
5.48 --undefined-- --undefined--
5.49 --undefined-- --undefined--
