Time Pitch Intensity
0.01 --undefined-- --undefined--
0.02 152.233 --undefined--
0.03 151.856 --undefined--
0.04 166.348 --undefined--
0.05 161.583 59.746
0.06 156.356 64.182
0.07 154.443 66.539
0.08 151.412 66.810
0.09 153.689 66.345
0.10 --undefined-- 65.559
0.11 --undefined-- 64.030
0.12 --undefined-- 62.273
0.13 --undefined-- 59.178
0.14 --undefined-- 56.737
0.15 --undefined-- 59.200
0.16 --undefined-- 61.207
0.17 --undefined-- 62.857
0.18 --undefined-- 64.895
0.19 145.996 67.023
0.20 142.985 68.680
0.21 143.009 69.332
0.22 144.254 69.074
0.23 146.854 67.973
0.24 152.462 66.632
0.25 156.413 65.484
0.26 160.685 63.653
0.27 164.224 60.644
0.28 --undefined-- 55.991
0.29 --undefined-- 49.695
0.30 --undefined-- 52.118
0.31 --undefined-- 62.054
0.32 207.763 68.252
0.33 198.594 71.075
0.34 190.738 71.541
0.35 183.122 70.230
0.36 175.833 66.897
0.37 --undefined-- 61.128
0.38 --undefined-- 54.822
0.39 --undefined-- 53.130
0.40 --undefined-- 53.610
0.41 --undefined-- 54.085
0.42 --undefined-- 54.101
0.43 --undefined-- 55.119
0.44 --undefined-- 61.091
0.45 209.087 67.078
0.46 204.835 70.106
0.47 203.400 70.397
0.48 200.173 68.699
0.49 197.038 66.796
0.50 194.938 66.205
0.51 192.403 65.997
0.52 190.287 65.041
0.53 190.196 63.295
0.54 195.875 61.939
0.55 201.081 61.502
0.56 199.771 61.207
0.57 198.633 62.006
0.58 199.558 63.626
0.59 201.244 65.276
0.60 197.717 67.276
0.61 --undefined-- 69.109
0.62 160.297 69.978
0.63 154.003 69.983
0.64 149.268 69.516
0.65 146.250 68.730
0.66 143.878 67.649
0.67 141.478 66.478
0.68 139.331 65.002
0.69 137.699 62.357
0.70 138.343 59.214
0.71 139.007 57.647
0.72 140.078 56.921
0.73 141.104 55.736
0.74 140.681 53.396
0.75 140.390 49.549
0.76 --undefined-- 45.228
0.77 --undefined-- 42.539
0.78 --undefined-- 41.100
0.79 --undefined-- 41.882
0.80 --undefined-- 48.084
0.81 --undefined-- 53.406
0.82 --undefined-- 57.195
0.83 --undefined-- 61.739
0.84 178.924 65.429
0.85 178.667 67.602
0.86 180.232 69.040
0.87 180.581 70.077
0.88 177.891 70.206
0.89 173.107 69.388
0.90 170.677 68.576
0.91 170.119 68.413
0.92 168.209 68.446
0.93 166.399 68.417
0.94 166.293 68.514
0.95 165.627 69.228
0.96 164.394 70.378
0.97 161.837 71.197
0.98 159.029 71.360
0.99 156.442 70.926
1.00 153.195 70.208
1.01 150.562 69.439
1.02 144.980 68.508
1.03 142.338 68.020
1.04 136.925 68.154
1.05 135.817 67.491
1.06 --undefined-- 65.654
1.07 236.956 63.603
1.08 229.269 61.523
1.09 226.127 58.560
1.10 --undefined-- 55.558
1.11 --undefined-- 56.304
1.12 --undefined-- 56.083
1.13 --undefined-- 52.163
1.14 --undefined-- 48.915
1.15 --undefined-- 53.963
1.16 --undefined-- 56.667
1.17 --undefined-- 55.597
1.18 --undefined-- 53.167
1.19 --undefined-- 54.599
1.20 --undefined-- 54.835
1.21 --undefined-- 52.712
1.22 --undefined-- 49.573
1.23 --undefined-- 45.287
1.24 --undefined-- 41.892
1.25 --undefined-- 40.764
1.26 --undefined-- 39.549
1.27 --undefined-- 38.045
1.28 --undefined-- 37.134
1.29 --undefined-- 38.689
1.30 --undefined-- 41.353
1.31 --undefined-- 42.577
1.32 --undefined-- 42.221
1.33 --undefined-- 42.273
1.34 --undefined-- 42.802
1.35 --undefined-- 43.023
1.36 --undefined-- 44.024
1.37 --undefined-- 45.227
1.38 --undefined-- 45.619
1.39 --undefined-- 45.820
1.40 --undefined-- 46.421
1.41 --undefined-- 46.557
1.42 --undefined-- 46.598
1.43 --undefined-- 46.936
1.44 --undefined-- 47.077
1.45 --undefined-- 46.992
1.46 --undefined-- 46.893
1.47 --undefined-- 47.061
1.48 --undefined-- 47.723
1.49 --undefined-- 48.347
1.50 --undefined-- 48.386
1.51 --undefined-- 48.102
1.52 --undefined-- 47.967
1.53 --undefined-- 47.688
1.54 --undefined-- 46.943
1.55 --undefined-- 46.420
1.56 --undefined-- 46.586
1.57 --undefined-- 46.615
1.58 --undefined-- 46.162
1.59 --undefined-- 45.363
1.60 --undefined-- 43.873
1.61 --undefined-- 41.471
1.62 --undefined-- 38.715
1.63 --undefined-- 37.748
1.64 --undefined-- 37.965
1.65 --undefined-- 37.580
1.66 --undefined-- 38.866
1.67 --undefined-- 47.067
1.68 --undefined-- 56.341
1.69 213.953 62.673
1.70 211.988 66.370
1.71 212.420 68.333
1.72 214.160 69.422
1.73 216.549 69.926
1.74 219.737 69.820
1.75 222.296 69.259
1.76 224.682 68.446
1.77 226.670 67.311
1.78 224.949 65.345
1.79 --undefined-- 62.785
1.80 --undefined-- 61.778
1.81 --undefined-- 63.555
1.82 --undefined-- 66.522
1.83 --undefined-- 67.523
1.84 --undefined-- 66.915
1.85 257.528 69.592
1.86 249.205 72.526
1.87 235.841 72.999
1.88 226.369 72.276
1.89 224.567 71.951
1.90 224.993 71.935
1.91 226.562 72.115
1.92 228.878 72.719
1.93 230.038 73.198
1.94 231.259 72.530
1.95 234.065 69.991
1.96 236.554 66.018
1.97 234.140 63.260
1.98 230.795 62.631
1.99 227.294 62.468
2.00 222.476 62.271
2.01 217.626 61.950
2.02 210.028 61.588
2.03 206.628 61.260
2.04 203.854 60.931
2.05 202.973 60.831
2.06 201.679 60.834
2.07 200.065 60.725
2.08 198.280 60.420
2.09 195.209 60.258
2.10 192.837 60.705
2.11 193.184 61.412
2.12 192.767 61.700
2.13 192.196 61.880
2.14 192.756 62.241
2.15 192.436 61.562
2.16 192.065 58.573
2.17 --undefined-- 52.867
2.18 --undefined-- 47.444
2.19 --undefined-- 45.960
2.20 --undefined-- 44.961
2.21 --undefined-- 46.777
2.22 --undefined-- 53.116
2.23 --undefined-- 60.305
2.24 --undefined-- 65.648
2.25 --undefined-- 68.306
2.26 --undefined-- 68.238
2.27 155.413 66.284
2.28 149.170 65.520
2.29 147.787 67.014
2.30 147.438 67.901
2.31 148.679 67.511
2.32 150.006 66.023
2.33 149.930 63.295
2.34 147.510 58.930
2.35 146.694 53.164
2.36 --undefined-- 48.615
2.37 --undefined-- 51.663
2.38 --undefined-- 59.553
2.39 191.309 64.970
2.40 189.072 67.866
2.41 192.314 69.332
2.42 198.600 70.397
2.43 204.513 71.323
2.44 207.932 71.767
2.45 208.873 71.568
2.46 208.115 70.840
2.47 206.879 69.619
2.48 203.748 67.775
2.49 200.214 65.169
2.50 196.848 62.402
2.51 186.521 61.362
2.52 180.409 61.228
2.53 170.533 59.944
2.54 157.635 57.520
2.55 146.246 54.378
2.56 141.065 51.237
2.57 --undefined-- 49.801
2.58 --undefined-- 48.878
2.59 --undefined-- 47.207
2.60 --undefined-- 44.982
2.61 --undefined-- 42.255
2.62 --undefined-- 40.567
2.63 --undefined-- 41.768
2.64 --undefined-- 48.770
2.65 --undefined-- 59.787
2.66 172.620 66.918
2.67 172.031 70.167
2.68 170.042 70.349
2.69 169.367 69.187
2.70 170.995 68.734
2.71 173.078 68.983
2.72 175.310 69.367
2.73 177.330 69.374
2.74 178.810 68.891
2.75 180.045 68.742
2.76 182.911 69.400
2.77 186.271 70.173
2.78 186.343 70.499
2.79 184.866 70.485
2.80 183.127 70.361
2.81 180.205 70.052
2.82 176.203 69.645
2.83 173.089 69.137
2.84 170.391 67.578
2.85 169.196 63.897
2.86 172.338 57.601
2.87 --undefined-- 49.638
2.88 --undefined-- 45.317
2.89 --undefined-- 46.327
2.90 --undefined-- 53.629
2.91 --undefined-- 61.292
2.92 --undefined-- 65.584
2.93 155.284 67.354
2.94 150.367 67.755
2.95 143.745 67.401
2.96 138.274 66.608
2.97 133.852 65.458
2.98 130.911 63.970
2.99 129.438 62.108
3.00 129.052 59.577
3.01 129.550 56.933
3.02 129.363 54.427
3.03 128.966 52.015
3.04 --undefined-- 50.740
3.05 --undefined-- 52.065
3.06 --undefined-- 57.298
3.07 152.980 62.108
3.08 146.098 64.821
3.09 145.489 64.838
3.10 --undefined-- 62.353
3.11 --undefined-- 59.675
3.12 --undefined-- 57.608
3.13 166.418 53.869
3.14 163.078 49.376
3.15 --undefined-- 45.523
3.16 --undefined-- 42.332
3.17 --undefined-- 40.558
3.18 --undefined-- 44.959
3.19 --undefined-- 55.738
3.20 --undefined-- 62.549
3.21 --undefined-- 65.595
3.22 --undefined-- 66.743
3.23 238.619 69.094
3.24 233.739 71.082
3.25 232.045 70.804
3.26 230.591 68.584
3.27 226.036 66.334
3.28 231.297 65.801
3.29 234.259 65.688
3.30 239.186 66.078
3.31 244.727 67.970
3.32 244.953 69.943
3.33 244.542 70.748
3.34 242.424 70.130
3.35 238.008 68.929
3.36 231.765 67.929
3.37 223.452 66.522
3.38 214.475 64.064
3.39 204.495 60.713
3.40 203.646 58.240
3.41 --undefined-- 58.482
3.42 --undefined-- 58.866
3.43 --undefined-- 58.516
3.44 --undefined-- 60.769
3.45 177.741 64.752
3.46 168.824 66.986
3.47 160.471 67.449
3.48 153.765 66.773
3.49 148.821 64.797
3.50 144.477 60.889
3.51 141.651 56.344
3.52 144.086 55.823
3.53 143.854 57.767
3.54 150.118 63.123
3.55 152.546 67.690
3.56 149.903 69.729
3.57 146.830 69.935
3.58 145.652 69.435
3.59 146.614 68.497
3.60 147.683 66.621
3.61 147.951 63.650
3.62 148.270 59.694
3.63 149.375 55.223
3.64 --undefined-- 52.774
3.65 --undefined-- 53.167
3.66 --undefined-- 54.341
3.67 --undefined-- 58.089
3.68 --undefined-- 64.848
3.69 --undefined-- 69.377
3.70 153.802 71.326
3.71 150.109 71.597
3.72 147.559 71.101
3.73 146.759 70.373
3.74 145.618 69.387
3.75 144.002 68.348
3.76 143.372 67.412
3.77 143.245 65.475
3.78 143.576 61.689
3.79 144.329 57.743
3.80 144.736 56.390
3.81 144.915 56.050
3.82 144.975 55.843
3.83 144.150 55.632
3.84 142.517 55.619
3.85 140.172 56.142
3.86 139.049 57.224
3.87 138.003 57.866
3.88 137.041 57.598
3.89 132.312 57.124
3.90 128.609 57.075
3.91 126.830 57.188
3.92 126.083 56.970
3.93 123.646 56.339
3.94 122.147 55.488
3.95 123.771 54.146
3.96 --undefined-- 51.238
3.97 --undefined-- 46.705
3.98 --undefined-- 43.613
3.99 --undefined-- 44.371
4.00 --undefined-- 44.554
4.01 --undefined-- 42.885
4.02 --undefined-- 40.804
4.03 --undefined-- 40.062
4.04 --undefined-- 40.710
4.05 --undefined-- 40.402
4.06 --undefined-- 39.338
4.07 --undefined-- 39.007
4.08 --undefined-- 39.824
4.09 --undefined-- 45.690
4.10 --undefined-- 52.188
4.11 --undefined-- 55.408
4.12 --undefined-- 56.742
4.13 --undefined-- 57.274
4.14 --undefined-- 55.108
4.15 --undefined-- 48.900
4.16 --undefined-- 43.943
4.17 --undefined-- 47.680
4.18 --undefined-- 55.416
4.19 --undefined-- 61.281
4.20 --undefined-- 62.992
4.21 --undefined-- 63.550
4.22 --undefined-- 67.988
4.23 263.120 71.102
4.24 265.160 72.139
4.25 267.564 72.259
4.26 269.201 71.629
4.27 271.624 70.386
4.28 275.220 69.829
4.29 277.897 69.930
4.30 278.714 69.632
4.31 274.199 68.552
4.32 267.065 67.110
4.33 265.838 66.388
4.34 260.524 65.501
4.35 252.955 63.184
4.36 249.480 59.918
4.37 240.942 57.860
4.38 --undefined-- 57.753
4.39 --undefined-- 57.525
4.40 --undefined-- 57.789
4.41 209.357 61.210
4.42 205.327 64.594
4.43 197.589 65.587
4.44 191.874 63.685
4.45 187.907 58.793
4.46 --undefined-- 51.700
4.47 --undefined-- 51.831
4.48 --undefined-- 61.187
4.49 --undefined-- 67.513
4.50 --undefined-- 70.524
4.51 182.122 72.156
4.52 176.912 73.406
4.53 172.972 73.376
4.54 168.047 71.522
4.55 158.955 68.211
4.56 153.402 64.774
4.57 149.076 62.059
4.58 148.615 58.531
4.59 --undefined-- 53.178
4.60 --undefined-- 47.489
4.61 --undefined-- 46.053
4.62 --undefined-- 46.491
4.63 --undefined-- 46.571
4.64 --undefined-- 46.622
4.65 --undefined-- 47.758
4.66 --undefined-- 53.744
4.67 --undefined-- 60.669
4.68 --undefined-- 64.873
4.69 --undefined-- 66.702
4.70 --undefined-- 66.528
4.71 --undefined-- 64.139
4.72 --undefined-- 60.554
4.73 --undefined-- 57.527
4.74 --undefined-- 55.613
4.75 --undefined-- 55.037
4.76 --undefined-- 56.805
4.77 --undefined-- 59.347
4.78 --undefined-- 61.971
4.79 --undefined-- 64.029
4.80 --undefined-- 65.395
4.81 --undefined-- 65.457
4.82 --undefined-- 64.535
4.83 --undefined-- 63.543
4.84 --undefined-- 62.655
4.85 143.306 62.569
4.86 149.554 64.946
4.87 152.660 67.979
4.88 152.548 70.010
4.89 154.596 70.943
4.90 156.508 70.927
4.91 158.759 69.968
4.92 162.351 68.235
4.93 163.387 66.622
4.94 160.705 65.551
4.95 155.950 64.081
4.96 150.832 61.246
4.97 148.148 56.167
4.98 --undefined-- 48.853
4.99 --undefined-- 44.012
5.00 --undefined-- 44.036
5.01 --undefined-- 46.707
5.02 --undefined-- 53.610
5.03 --undefined-- 60.143
5.04 --undefined-- 63.635
5.05 --undefined-- 64.694
5.06 --undefined-- 64.115
5.07 --undefined-- 62.640
5.08 --undefined-- 61.417
5.09 124.540 60.957
5.10 124.578 60.762
5.11 124.847 61.212
5.12 125.068 61.631
5.13 125.013 61.863
5.14 123.872 62.124
5.15 122.286 62.150
5.16 120.865 61.728
5.17 120.377 60.916
5.18 119.980 60.387
5.19 120.355 60.552
5.20 120.180 60.658
5.21 120.978 60.687
5.22 123.083 60.955
5.23 125.117 60.459
5.24 --undefined-- 57.939
5.25 --undefined-- 52.612
5.26 --undefined-- 45.106
5.27 --undefined-- 41.965
5.28 --undefined-- 41.546
5.29 --undefined-- 40.416
5.30 --undefined-- 41.426
5.31 --undefined-- 52.110
5.32 --undefined-- 59.931
5.33 --undefined-- 63.109
5.34 --undefined-- 62.290
5.35 --undefined-- 58.707
5.36 --undefined-- 57.620
5.37 --undefined-- --undefined--
5.38 --undefined-- --undefined--
5.39 --undefined-- --undefined--
5.40 --undefined-- --undefined--
