Time Pitch Intensity
0.01 --undefined-- --undefined--
0.02 --undefined-- --undefined--
0.03 --undefined-- --undefined--
0.04 --undefined-- --undefined--
0.05 --undefined-- 71.503
0.06 --undefined-- 71.644
0.07 137.201 73.276
0.08 135.456 73.969
0.09 134.248 73.606
0.10 135.576 72.311
0.11 136.199 69.810
0.12 142.109 67.349
0.13 146.472 66.333
0.14 147.978 65.988
0.15 148.685 65.718
0.16 148.786 65.152
0.17 147.345 63.997
0.18 147.427 62.943
0.19 150.016 62.840
0.20 154.656 63.203
0.21 156.924 63.812
0.22 159.824 65.578
0.23 160.463 68.268
0.24 152.100 71.044
0.25 146.963 73.229
0.26 144.819 74.252
0.27 144.544 73.958
0.28 146.337 73.129
0.29 142.994 72.584
0.30 142.650 71.630
0.31 143.108 69.590
0.32 143.091 66.756
0.33 158.508 66.551
0.34 162.433 68.625
0.35 164.868 70.596
0.36 170.206 72.861
0.37 182.793 75.295
0.38 183.644 77.101
0.39 191.340 77.726
0.40 200.664 77.479
0.41 205.445 76.785
0.42 207.907 75.777
0.43 209.066 74.721
0.44 208.006 73.522
0.45 205.918 71.792
0.46 202.552 69.478
0.47 194.788 66.388
0.48 189.451 62.387
0.49 188.239 57.530
0.50 --undefined-- 52.007
0.51 --undefined-- 46.598
0.52 --undefined-- 44.723
0.53 --undefined-- 57.208
0.54 --undefined-- 67.077
0.55 --undefined-- 72.872
0.56 171.319 75.687
0.57 167.612 76.584
0.58 168.286 76.639
0.59 173.053 76.579
0.60 177.314 76.468
0.61 180.087 75.811
0.62 181.879 74.205
0.63 185.643 71.799
0.64 189.590 69.410
0.65 190.971 67.133
0.66 191.498 64.363
0.67 192.302 61.582
0.68 193.950 60.267
0.69 197.150 62.893
0.70 194.865 67.944
0.71 189.549 72.257
0.72 186.567 74.738
0.73 183.041 75.556
0.74 179.591 75.622
0.75 176.695 75.767
0.76 174.364 75.933
0.77 171.879 75.628
0.78 169.483 74.474
0.79 166.527 72.094
0.80 166.483 68.625
0.81 167.014 65.197
0.82 166.322 62.352
0.83 160.939 59.537
0.84 157.860 56.785
0.85 156.604 54.801
0.86 162.880 55.114
0.87 166.241 60.383
0.88 164.831 67.150
0.89 163.437 72.436
0.90 161.731 75.455
0.91 --undefined-- 76.282
0.92 --undefined-- 75.193
0.93 --undefined-- 72.918
0.94 --undefined-- 70.486
0.95 --undefined-- 68.578
0.96 --undefined-- 68.988
0.97 --undefined-- 70.130
0.98 84.712 70.964
0.99 86.224 71.518
1.00 85.459 71.187
1.01 --undefined-- 69.679
1.02 90.288 67.809
1.03 92.382 66.176
1.04 93.046 64.565
1.05 91.376 63.461
1.06 86.494 62.595
1.07 84.418 61.336
1.08 87.483 60.233
1.09 89.384 59.943
1.10 92.223 60.118
1.11 98.135 60.151
1.12 95.619 60.400
1.13 --undefined-- 62.157
1.14 --undefined-- 65.508
1.15 138.221 68.589
1.16 137.228 70.333
1.17 139.685 71.296
1.18 142.068 72.264
1.19 143.165 72.923
1.20 143.228 72.702
1.21 147.441 70.920
1.22 --undefined-- 66.696
1.23 --undefined-- 59.346
1.24 --undefined-- 49.264
1.25 --undefined-- 40.810
1.26 --undefined-- 37.195
1.27 --undefined-- 36.149
1.28 --undefined-- 36.208
1.29 --undefined-- 37.438
1.30 --undefined-- 38.641
1.31 --undefined-- 38.150
1.32 --undefined-- 36.553
1.33 --undefined-- 38.428
1.34 --undefined-- 44.579
1.35 --undefined-- 49.499
1.36 --undefined-- 53.807
1.37 --undefined-- 63.970
1.38 --undefined-- 72.436
1.39 --undefined-- 76.893
1.40 218.231 78.330
1.41 212.304 78.001
1.42 205.411 76.836
1.43 202.937 75.560
1.44 206.779 75.235
1.45 209.584 75.458
1.46 210.268 74.687
1.47 210.946 71.820
1.48 --undefined-- 66.205
1.49 --undefined-- 57.907
1.50 --undefined-- 49.717
1.51 --undefined-- 43.965
1.52 --undefined-- 39.633
1.53 --undefined-- 36.720
1.54 --undefined-- 35.704
1.55 --undefined-- 35.548
1.56 --undefined-- 35.200
1.57 --undefined-- 36.015
1.58 --undefined-- 37.767
1.59 --undefined-- 43.024
1.60 --undefined-- 52.833
1.61 162.297 59.456
1.62 170.109 63.786
1.63 180.021 68.524
1.64 186.107 73.001
1.65 185.107 75.657
1.66 186.007 76.548
1.67 187.230 76.211
1.68 188.632 75.465
1.69 190.638 75.128
1.70 193.397 75.137
1.71 195.333 74.926
1.72 196.640 74.219
1.73 197.240 72.854
1.74 198.015 70.793
1.75 199.052 68.596
1.76 198.524 66.561
1.77 196.528 63.790
1.78 194.192 59.776
1.79 189.845 55.021
1.80 --undefined-- 50.565
1.81 --undefined-- 46.224
1.82 --undefined-- 42.352
1.83 --undefined-- 39.930
1.84 --undefined-- 38.742
1.85 --undefined-- 38.128
1.86 --undefined-- 36.826
1.87 --undefined-- 35.313
1.88 --undefined-- 34.956
1.89 --undefined-- 34.919
1.90 --undefined-- 35.382
1.91 --undefined-- 36.402
1.92 --undefined-- 36.561
1.93 --undefined-- 36.414
1.94 --undefined-- 35.997
1.95 --undefined-- 36.237
1.96 --undefined-- 37.105
1.97 --undefined-- 36.377
1.98 --undefined-- 34.035
1.99 --undefined-- 33.044
2.00 --undefined-- 33.953
2.01 --undefined-- 34.732
2.02 --undefined-- 34.678
2.03 --undefined-- 34.685
2.04 --undefined-- 34.502
2.05 --undefined-- 33.653
2.06 --undefined-- 33.017
2.07 --undefined-- 33.152
2.08 --undefined-- 33.573
2.09 --undefined-- 33.544
2.10 --undefined-- 33.408
2.11 --undefined-- 33.579
2.12 --undefined-- 33.109
2.13 --undefined-- 33.091
2.14 --undefined-- 34.287
2.15 --undefined-- 35.799
2.16 --undefined-- 41.011
2.17 --undefined-- 47.842
2.18 --undefined-- 52.518
2.19 --undefined-- 54.417
2.20 --undefined-- 53.951
2.21 --undefined-- 52.241
2.22 --undefined-- 53.655
2.23 --undefined-- 56.961
2.24 --undefined-- 59.350
2.25 --undefined-- 61.100
2.26 --undefined-- 63.118
2.27 156.238 65.048
2.28 160.108 66.556
2.29 162.283 68.849
2.30 162.588 71.616
2.31 159.285 73.482
2.32 159.432 74.306
2.33 160.611 74.164
2.34 160.649 73.367
2.35 161.145 72.679
2.36 161.823 72.434
2.37 161.784 72.321
2.38 162.077 72.121
2.39 162.967 71.513
2.40 164.164 70.006
2.41 163.507 67.315
2.42 161.599 63.426
2.43 159.935 59.131
2.44 159.481 55.424
2.45 --undefined-- 51.623
2.46 --undefined-- 46.585
2.47 --undefined-- 42.078
2.48 --undefined-- 42.747
2.49 --undefined-- 46.532
2.50 --undefined-- 49.606
2.51 --undefined-- 52.537
2.52 --undefined-- 55.089
2.53 --undefined-- 56.570
2.54 --undefined-- 59.615
2.55 --undefined-- 64.963
2.56 203.643 68.709
2.57 198.338 70.577
2.58 199.529 71.505
2.59 201.391 72.028
2.60 197.719 72.190
2.61 194.635 71.590
2.62 191.028 69.835
2.63 182.894 66.667
2.64 177.906 61.866
2.65 172.069 56.583
2.66 --undefined-- 58.252
2.67 --undefined-- 63.850
2.68 --undefined-- 69.541
2.69 173.158 73.765
2.70 168.082 75.876
2.71 164.436 76.238
2.72 161.451 75.597
2.73 160.443 74.862
2.74 162.952 74.525
2.75 166.525 74.215
2.76 167.998 73.245
2.77 167.544 70.986
2.78 166.578 67.028
2.79 169.591 61.365
2.80 --undefined-- 54.385
2.81 --undefined-- 47.298
2.82 --undefined-- 44.384
2.83 --undefined-- 47.440
2.84 --undefined-- 56.679
2.85 --undefined-- 66.480
2.86 166.612 72.535
2.87 160.002 75.760
2.88 153.549 77.149
2.89 151.201 77.297
2.90 149.060 76.784
2.91 148.403 76.195
2.92 149.038 75.790
2.93 148.933 75.720
2.94 147.251 75.680
2.95 146.165 75.480
2.96 144.857 75.195
2.97 144.404 74.975
2.98 143.728 74.943
2.99 143.175 74.881
3.00 142.651 74.535
3.01 142.244 74.056
3.02 142.730 73.710
3.03 142.817 73.189
3.04 142.247 71.632
3.05 140.642 67.928
3.06 141.308 61.322
3.07 --undefined-- 53.131
3.08 --undefined-- 50.327
3.09 --undefined-- 49.954
3.10 --undefined-- 49.793
3.11 --undefined-- 50.605
3.12 --undefined-- 51.417
3.13 --undefined-- 51.893
3.14 --undefined-- 52.257
3.15 --undefined-- 53.724
3.16 --undefined-- 58.744
3.17 --undefined-- 67.495
3.18 160.671 73.908
3.19 158.449 77.071
3.20 151.624 77.832
3.21 147.058 77.194
3.22 146.304 76.325
3.23 --undefined-- 75.894
3.24 --undefined-- 75.449
3.25 139.962 74.822
3.26 140.949 73.900
3.27 140.080 72.406
3.28 137.474 69.705
3.29 136.354 65.049
3.30 --undefined-- 58.716
3.31 --undefined-- 54.701
3.32 --undefined-- 55.501
3.33 159.363 58.529
3.34 162.652 62.183
3.35 150.394 65.743
3.36 144.467 68.619
3.37 142.038 70.240
3.38 140.415 70.395
3.39 139.455 69.324
3.40 139.251 67.885
3.41 136.295 66.242
3.42 130.787 63.605
3.43 127.308 59.748
3.44 --undefined-- 54.763
3.45 --undefined-- 49.991
3.46 --undefined-- 48.856
3.47 --undefined-- 51.252
3.48 --undefined-- 53.858
3.49 --undefined-- 54.783
3.50 --undefined-- 54.478
3.51 --undefined-- 58.096
3.52 --undefined-- 63.509
3.53 --undefined-- 66.582
3.54 250.230 67.434
3.55 243.002 66.285
3.56 238.064 63.902
3.57 221.537 61.764
3.58 235.877 60.854
3.59 252.197 61.476
3.60 250.742 60.938
3.61 250.636 57.482
3.62 --undefined-- 51.694
3.63 --undefined-- 47.411
3.64 --undefined-- 48.405
3.65 --undefined-- 53.013
3.66 --undefined-- 56.871
3.67 --undefined-- 59.474
3.68 --undefined-- 64.423
3.69 --undefined-- 70.033
3.70 --undefined-- 73.039
3.71 --undefined-- 73.912
3.72 --undefined-- 73.807
3.73 125.186 73.104
3.74 120.111 71.516
3.75 116.482 68.929
3.76 113.092 65.427
3.77 108.954 61.883
3.78 102.826 60.109
3.79 99.400 59.643
3.80 98.041 59.308
3.81 97.741 58.967
3.82 95.577 58.556
3.83 95.229 57.992
3.84 94.411 57.444
3.85 --undefined-- 56.730
3.86 --undefined-- 55.767
3.87 --undefined-- 54.961
3.88 --undefined-- 53.997
3.89 --undefined-- 52.123
3.90 --undefined-- 50.677
3.91 --undefined-- 49.740
3.92 --undefined-- 48.406
3.93 --undefined-- 47.294
3.94 --undefined-- 46.781
3.95 --undefined-- 47.000
3.96 --undefined-- 47.557
3.97 --undefined-- 46.881
3.98 --undefined-- 45.833
3.99 --undefined-- 45.958
4.00 --undefined-- 47.253
4.01 --undefined-- 48.687
4.02 --undefined-- 48.141
4.03 --undefined-- 44.841
4.04 --undefined-- 41.051
4.05 --undefined-- 39.388
4.06 --undefined-- 38.738
4.07 --undefined-- 44.371
4.08 --undefined-- 49.756
4.09 --undefined-- 51.589
4.10 --undefined-- 56.840
4.11 --undefined-- 66.309
4.12 --undefined-- 72.045
4.13 --undefined-- 74.501
4.14 140.525 75.182
4.15 137.941 75.380
4.16 133.508 75.409
4.17 131.100 75.434
4.18 129.384 75.253
4.19 127.831 74.139
4.20 126.388 71.894
4.21 125.400 69.303
4.22 122.900 67.672
4.23 124.482 66.802
4.24 129.436 65.825
4.25 129.451 65.166
4.26 129.491 66.066
4.27 129.216 68.633
4.28 131.694 71.431
4.29 129.862 73.791
4.30 129.778 75.663
4.31 132.575 76.602
4.32 136.412 76.281
4.33 141.486 75.320
4.34 143.084 74.428
4.35 143.220 73.213
4.36 144.398 71.593
4.37 147.327 70.849
4.38 150.965 71.308
4.39 156.985 71.261
4.40 164.151 69.630
4.41 169.695 66.152
4.42 --undefined-- 60.810
4.43 --undefined-- 55.723
4.44 --undefined-- 55.020
4.45 --undefined-- 56.288
4.46 --undefined-- 59.916
4.47 --undefined-- 62.990
4.48 --undefined-- 64.258
4.49 --undefined-- 63.841
4.50 --undefined-- 66.531
4.51 --undefined-- 72.451
4.52 --undefined-- 75.496
4.53 150.903 76.263
4.54 148.011 76.884
4.55 147.876 77.777
4.56 150.474 78.198
4.57 154.490 77.883
4.58 164.949 77.106
4.59 170.110 76.193
4.60 176.342 74.460
4.61 185.115 71.575
4.62 189.228 67.567
4.63 192.164 62.071
4.64 195.350 55.662
4.65 --undefined-- 50.769
4.66 --undefined-- 45.422
4.67 --undefined-- 39.530
4.68 --undefined-- 46.291
4.69 --undefined-- 57.482
4.70 242.671 63.653
4.71 244.785 65.854
4.72 249.917 66.921
4.73 --undefined-- 70.863
4.74 154.444 74.565
4.75 151.611 76.630
4.76 148.626 77.597
4.77 146.278 77.934
4.78 142.568 77.794
4.79 135.372 77.596
4.80 133.189 77.329
4.81 133.885 76.562
4.82 136.048 75.610
4.83 140.955 74.997
4.84 147.003 74.153
4.85 151.805 73.060
4.86 155.924 72.119
4.87 165.915 70.430
4.88 166.147 67.727
4.89 166.689 63.046
4.90 --undefined-- 55.696
4.91 --undefined-- 49.053
4.92 --undefined-- 46.189
4.93 --undefined-- 44.692
4.94 --undefined-- 43.681
4.95 --undefined-- 45.448
4.96 --undefined-- 52.672
4.97 --undefined-- 57.449
4.98 --undefined-- 61.434
4.99 174.434 65.377
5.00 173.051 67.899
5.01 164.919 69.049
5.02 161.775 69.484
5.03 158.164 69.650
5.04 155.075 69.772
5.05 153.406 69.895
5.06 148.345 69.867
5.07 146.681 69.353
5.08 145.318 68.087
5.09 142.843 66.549
5.10 139.977 65.617
5.11 139.321 65.241
5.12 138.701 64.865
5.13 138.776 64.526
5.14 139.635 64.089
5.15 140.599 63.205
5.16 140.438 61.767
5.17 139.528 59.693
5.18 140.531 57.120
5.19 --undefined-- 58.062
5.20 --undefined-- 62.329
5.21 --undefined-- 67.844
5.22 --undefined-- 72.121
5.23 --undefined-- 74.041
5.24 139.777 74.789
5.25 138.994 75.257
5.26 131.047 75.732
5.27 123.732 76.709
5.28 120.100 77.007
5.29 115.678 76.332
5.30 120.274 75.819
5.31 123.609 75.628
5.32 129.228 75.620
5.33 133.357 75.712
5.34 134.815 75.056
5.35 136.314 72.952
5.36 138.044 70.005
5.37 140.428 68.206
5.38 143.331 68.749
5.39 146.102 70.751
5.40 147.354 72.763
5.41 146.824 73.914
5.42 146.178 74.218
5.43 145.606 74.103
5.44 143.801 73.767
5.45 141.233 72.904
5.46 138.906 70.964
5.47 137.935 68.325
5.48 137.308 66.572
5.49 134.762 67.163
5.50 133.249 69.580
5.51 131.728 70.804
5.52 --undefined-- 69.264
5.53 --undefined-- 64.418
5.54 --undefined-- 56.332
5.55 --undefined-- 49.266
5.56 --undefined-- 53.377
5.57 --undefined-- 61.661
5.58 --undefined-- 69.271
5.59 --undefined-- 74.008
5.60 --undefined-- 75.830
5.61 --undefined-- 75.643
5.62 --undefined-- 74.872
5.63 --undefined-- 72.947
5.64 --undefined-- --undefined--
5.65 --undefined-- --undefined--
5.66 --undefined-- --undefined--
5.67 --undefined-- --undefined--
