Time Pitch Intensity
0.01 --undefined-- --undefined--
0.02 130.077 --undefined--
0.03 137.682 --undefined--
0.04 140.703 --undefined--
0.05 142.688 64.105
0.06 142.860 63.857
0.07 143.758 64.179
0.08 142.345 64.824
0.09 138.707 65.465
0.10 131.659 66.085
0.11 119.598 66.587
0.12 110.358 66.747
0.13 106.669 66.324
0.14 105.320 65.790
0.15 105.229 65.844
0.16 105.152 65.836
0.17 105.170 65.445
0.18 105.713 65.106
0.19 107.795 64.936
0.20 112.125 65.240
0.21 114.674 66.169
0.22 118.114 67.116
0.23 121.531 67.859
0.24 122.788 68.460
0.25 125.036 68.884
0.26 126.619 69.141
0.27 128.384 69.404
0.28 127.858 69.533
0.29 127.273 69.466
0.30 126.444 69.430
0.31 123.990 69.106
0.32 121.591 67.842
0.33 116.956 65.409
0.34 --undefined-- 61.659
0.35 --undefined-- 56.509
0.36 --undefined-- 51.226
0.37 --undefined-- 47.077
0.38 --undefined-- 44.177
0.39 --undefined-- 45.268
0.40 --undefined-- 54.204
0.41 --undefined-- 61.236
0.42 --undefined-- 65.264
0.43 116.285 66.979
0.44 111.126 67.071
0.45 107.880 66.460
0.46 101.416 65.840
0.47 98.170 65.412
0.48 95.924 64.925
0.49 94.940 64.198
0.50 94.542 63.441
0.51 93.761 62.822
0.52 92.611 62.563
0.53 91.343 62.684
0.54 91.807 62.705
0.55 93.345 62.173
0.56 96.310 61.497
0.57 97.699 61.507
0.58 99.047 61.985
0.59 99.303 62.210
0.60 99.921 62.229
0.61 98.821 62.408
0.62 96.574 62.627
0.63 94.068 62.441
0.64 91.658 61.677
0.65 88.978 60.934
0.66 87.727 60.802
0.67 88.336 60.965
0.68 90.880 61.319
0.69 92.626 61.462
0.70 92.979 61.316
0.71 93.752 61.124
0.72 95.682 60.954
0.73 96.329 60.936
0.74 96.805 61.061
0.75 97.081 61.091
0.76 97.340 60.942
0.77 97.305 60.676
0.78 97.392 60.281
0.79 96.789 59.710
0.80 96.963 58.901
0.81 94.877 57.622
0.82 --undefined-- 56.008
0.83 --undefined-- 54.165
0.84 --undefined-- 50.744
0.85 --undefined-- 45.652
0.86 --undefined-- 42.121
0.87 --undefined-- 39.433
0.88 --undefined-- 36.153
0.89 --undefined-- 33.373
0.90 --undefined-- 31.736
0.91 --undefined-- 30.833
0.92 --undefined-- 31.133
0.93 --undefined-- 31.358
0.94 --undefined-- 30.517
0.95 --undefined-- 29.589
0.96 --undefined-- 29.214
0.97 --undefined-- 29.502
0.98 --undefined-- 30.561
0.99 --undefined-- 31.040
1.00 --undefined-- 30.843
1.01 --undefined-- 30.786
1.02 --undefined-- 30.808
1.03 --undefined-- 30.214
1.04 --undefined-- 29.934
1.05 --undefined-- 36.631
1.06 --undefined-- 48.270
1.07 --undefined-- 55.940
1.08 104.440 60.484
1.09 105.227 62.737
1.10 105.161 63.658
1.11 104.738 64.038
1.12 104.858 64.152
1.13 104.585 64.110
1.14 105.160 63.884
1.15 104.545 63.093
1.16 103.811 61.420
1.17 103.569 59.217
1.18 103.325 57.220
1.19 103.010 55.607
1.20 103.209 54.406
1.21 103.686 53.930
1.22 104.365 54.184
1.23 105.984 55.034
1.24 106.871 56.469
1.25 106.861 58.048
1.26 106.641 59.089
1.27 106.154 59.159
1.28 102.488 57.972
1.29 96.765 55.464
1.30 100.555 51.611
1.31 --undefined-- 47.353
1.32 --undefined-- 45.188
1.33 --undefined-- 44.392
1.34 --undefined-- 43.211
1.35 --undefined-- 42.760
1.36 --undefined-- 43.994
1.37 --undefined-- 46.431
1.38 --undefined-- 52.427
1.39 --undefined-- 59.038
1.40 --undefined-- 63.128
1.41 98.843 65.058
1.42 96.340 65.199
1.43 91.614 63.801
1.44 92.298 62.492
1.45 99.809 62.701
1.46 105.031 63.420
1.47 110.565 64.076
1.48 115.636 64.133
1.49 118.723 62.957
1.50 120.553 60.071
1.51 140.042 56.225
1.52 158.166 51.982
1.53 --undefined-- 47.552
1.54 --undefined-- 45.831
1.55 --undefined-- 45.915
1.56 --undefined-- 45.373
1.57 --undefined-- 47.071
1.58 187.032 53.932
1.59 183.354 60.064
1.60 174.210 63.883
1.61 168.485 66.065
1.62 158.910 67.370
1.63 154.394 68.033
1.64 143.213 68.375
1.65 135.516 68.850
1.66 131.380 69.251
1.67 130.593 69.271
1.68 130.500 68.964
1.69 131.646 68.042
1.70 132.785 65.927
1.71 127.908 62.477
1.72 130.895 58.421
1.73 157.305 54.225
1.74 162.760 49.703
1.75 --undefined-- 45.634
1.76 --undefined-- 46.030
1.77 --undefined-- 50.521
1.78 --undefined-- 56.529
1.79 181.901 62.781
1.80 171.610 66.765
1.81 166.994 68.949
1.82 160.088 70.021
1.83 148.288 70.404
1.84 142.428 70.624
1.85 138.614 70.627
1.86 135.642 70.311
1.87 133.904 70.126
1.88 133.817 70.052
1.89 133.811 70.033
1.90 133.961 70.140
1.91 133.439 70.148
1.92 132.611 69.819
1.93 131.712 68.902
1.94 131.620 67.386
1.95 132.182 65.694
1.96 133.721 64.083
1.97 136.426 62.882
1.98 139.508 62.698
1.99 141.432 63.569
2.00 141.921 65.061
2.01 126.948 66.679
2.02 118.701 67.552
2.03 115.616 67.059
2.04 103.768 65.843
2.05 99.613 65.210
2.06 97.079 64.788
2.07 95.955 64.217
2.08 96.701 64.082
2.09 97.566 64.361
2.10 101.308 64.692
2.11 107.576 65.020
2.12 112.987 65.535
2.13 115.971 66.254
2.14 118.447 67.091
2.15 119.742 67.796
2.16 119.277 67.858
2.17 118.863 67.493
2.18 119.338 67.272
2.19 119.945 67.062
2.20 121.067 66.841
2.21 121.366 66.823
2.22 122.568 66.470
2.23 124.165 65.485
2.24 119.612 64.043
2.25 116.557 61.545
2.26 119.518 57.483
2.27 123.332 52.445
2.28 121.972 47.527
2.29 --undefined-- 43.908
2.30 --undefined-- 41.881
2.31 --undefined-- 39.931
2.32 --undefined-- 38.073
2.33 --undefined-- 35.985
2.34 --undefined-- 33.707
2.35 --undefined-- 34.971
2.36 --undefined-- 37.412
2.37 --undefined-- 39.651
2.38 --undefined-- 41.826
2.39 --undefined-- 43.384
2.40 --undefined-- 43.869
2.41 --undefined-- 44.290
2.42 --undefined-- 45.046
2.43 --undefined-- 45.146
2.44 --undefined-- 44.498
2.45 --undefined-- 43.416
2.46 --undefined-- 41.917
2.47 --undefined-- 40.565
2.48 --undefined-- 40.277
2.49 --undefined-- 39.871
2.50 --undefined-- 38.408
2.51 --undefined-- 37.152
2.52 --undefined-- 35.865
2.53 --undefined-- 33.751
2.54 --undefined-- 32.685
2.55 --undefined-- 31.860
2.56 --undefined-- 30.690
2.57 --undefined-- 29.784
2.58 --undefined-- 29.902
2.59 --undefined-- 33.555
2.60 --undefined-- 39.156
2.61 --undefined-- 44.054
2.62 --undefined-- 49.506
2.63 --undefined-- 58.630
2.64 --undefined-- 66.144
2.65 187.406 70.229
2.66 181.348 71.783
2.67 169.053 72.303
2.68 161.874 72.834
2.69 158.496 72.979
2.70 152.253 72.651
2.71 147.824 72.365
2.72 145.617 72.093
2.73 145.142 71.333
2.74 144.673 69.736
2.75 144.395 67.575
2.76 147.065 66.026
2.77 151.931 65.246
2.78 151.293 64.387
2.79 149.567 63.484
2.80 150.659 63.279
2.81 152.461 64.064
2.82 154.106 65.466
2.83 152.123 66.820
2.84 148.445 67.665
2.85 129.491 67.666
2.86 117.897 66.976
2.87 116.094 66.497
2.88 115.644 66.440
2.89 116.034 66.549
2.90 116.084 66.959
2.91 116.881 67.442
2.92 120.910 67.627
2.93 126.239 67.803
2.94 130.013 68.656
2.95 133.688 69.717
2.96 138.437 70.265
2.97 141.362 70.564
2.98 141.683 70.940
2.99 141.196 71.200
3.00 140.065 71.068
3.01 --undefined-- 70.407
3.02 --undefined-- 68.844
3.03 --undefined-- 65.725
3.04 --undefined-- 61.274
3.05 --undefined-- 58.960
3.06 292.191 57.729
3.07 286.422 54.753
3.08 --undefined-- 53.870
3.09 --undefined-- 57.884
3.10 --undefined-- 60.311
3.11 129.070 60.343
3.12 134.159 59.554
3.13 134.092 59.261
3.14 142.188 59.960
3.15 154.963 61.655
3.16 165.706 64.105
3.17 160.910 66.946
3.18 146.723 69.266
3.19 142.288 70.333
3.20 137.512 70.382
3.21 134.114 70.385
3.22 132.505 70.741
3.23 131.360 70.990
3.24 130.508 70.821
3.25 130.207 70.347
3.26 130.177 69.696
3.27 130.236 68.957
3.28 130.718 68.451
3.29 129.720 68.194
3.30 129.802 67.956
3.31 133.383 67.985
3.32 134.499 68.161
3.33 137.167 68.170
3.34 137.902 67.572
3.35 134.885 66.192
3.36 131.072 64.211
3.37 128.907 61.566
3.38 136.264 58.515
3.39 141.006 55.718
3.40 145.450 53.174
3.41 145.566 51.431
3.42 140.064 51.513
3.43 137.577 52.359
3.44 134.295 53.701
3.45 124.405 55.595
3.46 115.467 57.246
3.47 110.519 58.517
3.48 106.682 59.769
3.49 106.147 60.991
3.50 104.776 61.945
3.51 103.313 62.522
3.52 102.437 62.789
3.53 101.491 62.877
3.54 100.542 62.889
3.55 99.745 62.952
3.56 98.197 63.052
3.57 97.362 62.969
3.58 95.300 62.591
3.59 92.136 61.955
3.60 87.138 60.916
3.61 --undefined-- 59.185
3.62 --undefined-- 57.084
3.63 78.612 55.209
3.64 80.273 54.136
3.65 81.418 55.021
3.66 --undefined-- 58.122
3.67 --undefined-- 61.657
3.68 127.737 64.545
3.69 134.328 66.607
3.70 141.127 68.208
3.71 143.398 69.582
3.72 146.284 70.240
3.73 147.617 69.959
3.74 147.701 69.357
3.75 146.829 69.033
3.76 145.239 69.014
3.77 142.980 69.065
3.78 140.046 68.732
3.79 135.020 67.904
3.80 132.681 66.965
3.81 129.147 66.355
3.82 125.372 66.030
3.83 122.329 65.509
3.84 120.312 64.717
3.85 114.016 64.182
3.86 107.532 63.893
3.87 103.581 63.419
3.88 101.096 62.902
3.89 99.400 62.510
3.90 98.360 62.380
3.91 98.280 62.706
3.92 99.778 63.205
3.93 101.613 63.725
3.94 103.807 64.464
3.95 105.921 65.270
3.96 107.370 65.844
3.97 108.807 66.069
3.98 110.466 65.978
3.99 111.885 65.626
4.00 110.757 64.858
4.01 109.161 63.167
4.02 106.977 59.811
4.03 106.349 55.027
4.04 103.013 52.163
4.05 --undefined-- 51.872
4.06 --undefined-- 51.727
4.07 --undefined-- 50.857
4.08 --undefined-- 49.636
4.09 --undefined-- 49.652
4.10 --undefined-- 55.825
4.11 --undefined-- 61.289
4.12 --undefined-- 63.980
4.13 118.290 64.879
4.14 116.081 65.124
4.15 105.260 65.355
4.16 100.703 65.241
4.17 98.583 64.920
4.18 99.760 64.976
4.19 102.542 65.192
4.20 104.538 64.842
4.21 106.843 63.866
4.22 117.479 63.722
4.23 122.166 64.406
4.24 134.452 65.001
4.25 137.620 65.583
4.26 140.936 66.059
4.27 144.901 66.518
4.28 146.313 67.182
4.29 140.885 67.722
4.30 129.101 67.509
4.31 119.756 66.528
4.32 113.508 65.585
4.33 110.968 64.924
4.34 108.871 64.403
4.35 105.527 64.029
4.36 105.054 63.839
4.37 109.789 64.346
4.38 111.147 65.094
4.39 111.572 65.547
4.40 111.857 65.730
4.41 112.040 65.780
4.42 111.897 65.768
4.43 112.419 66.021
4.44 111.045 66.734
4.45 109.926 67.028
4.46 107.897 66.525
4.47 106.803 65.964
4.48 106.116 65.861
4.49 104.840 66.068
4.50 103.321 66.218
4.51 100.832 65.978
4.52 97.446 65.401
4.53 94.988 64.559
4.54 93.897 63.738
4.55 92.633 63.048
4.56 91.927 62.206
4.57 91.897 61.375
4.58 93.210 60.757
4.59 95.919 60.246
4.60 94.209 59.817
4.61 93.971 60.046
4.62 99.518 60.881
4.63 101.025 62.035
4.64 102.860 63.081
4.65 104.484 63.616
4.66 105.858 63.535
4.67 107.057 62.692
4.68 107.109 60.661
4.69 107.283 57.451
4.70 114.162 53.855
4.71 --undefined-- 50.444
4.72 --undefined-- 50.429
4.73 --undefined-- 56.127
4.74 130.748 61.455
4.75 130.536 65.016
4.76 129.526 66.859
4.77 125.710 67.298
4.78 121.138 66.931
4.79 --undefined-- 66.636
4.80 --undefined-- 65.920
4.81 --undefined-- 63.980
4.82 --undefined-- 62.335
4.83 --undefined-- 61.740
4.84 --undefined-- 61.253
4.85 --undefined-- 60.098
4.86 --undefined-- 59.300
4.87 82.138 59.602
4.88 82.444 60.475
4.89 88.530 61.193
4.90 90.797 61.382
4.91 94.360 61.375
4.92 96.208 61.394
4.93 94.054 61.574
4.94 89.282 61.814
4.95 88.194 61.917
4.96 87.946 61.890
4.97 88.120 61.754
4.98 88.379 61.572
4.99 91.976 61.149
5.00 93.218 60.513
5.01 96.492 60.083
5.02 98.571 60.340
5.03 98.284 61.191
5.04 98.108 62.255
5.05 97.789 63.414
5.06 98.205 64.297
5.07 98.915 64.693
5.08 100.341 64.967
5.09 100.781 65.342
5.10 100.559 65.717
5.11 101.844 66.081
5.12 104.380 66.381
5.13 108.357 66.539
5.14 110.811 66.576
5.15 111.838 65.976
5.16 111.192 64.188
5.17 107.922 61.158
5.18 110.376 57.059
5.19 110.309 52.660
5.20 110.187 48.664
5.21 111.814 45.865
5.22 111.429 43.766
5.23 --undefined-- 40.775
5.24 --undefined-- 38.163
5.25 --undefined-- 37.207
5.26 --undefined-- 36.030
5.27 --undefined-- 35.326
5.28 --undefined-- 35.178
5.29 --undefined-- 34.368
5.30 --undefined-- 34.191
5.31 --undefined-- 34.153
5.32 --undefined-- 33.213
5.33 --undefined-- 32.289
5.34 --undefined-- 32.760
5.35 --undefined-- 32.288
5.36 --undefined-- 31.548
5.37 --undefined-- 32.667
5.38 --undefined-- 33.562
5.39 --undefined-- 32.788
5.40 --undefined-- 31.915
5.41 --undefined-- 32.265
5.42 --undefined-- 32.172
5.43 --undefined-- 31.129
5.44 --undefined-- 30.300
5.45 --undefined-- 30.340
5.46 --undefined-- 29.694
5.47 --undefined-- 29.180
5.48 --undefined-- 31.356
5.49 --undefined-- 34.335
5.50 --undefined-- 36.047
5.51 --undefined-- 36.323
5.52 --undefined-- 36.079
5.53 --undefined-- 35.688
5.54 --undefined-- 34.777
5.55 --undefined-- 35.637
5.56 --undefined-- 36.907
5.57 --undefined-- 39.049
5.58 --undefined-- 47.890
5.59 --undefined-- 55.219
5.60 --undefined-- 59.902
5.61 111.127 62.765
5.62 111.704 64.537
5.63 113.395 65.330
5.64 115.213 65.294
5.65 117.071 64.620
5.66 118.477 63.415
5.67 119.150 61.709
5.68 119.066 59.082
5.69 118.149 55.185
5.70 120.126 50.358
5.71 --undefined-- 46.592
5.72 --undefined-- 45.976
5.73 --undefined-- --undefined--
5.74 --undefined-- --undefined--
5.75 --undefined-- --undefined--
5.76 --undefined-- --undefined--
