Time Pitch Intensity
0.01 --undefined-- --undefined--
0.02 181.447 --undefined--
0.03 176.619 --undefined--
0.04 173.309 --undefined--
0.05 171.905 64.765
0.06 171.176 64.211
0.07 170.231 63.382
0.08 170.970 62.697
0.09 172.747 62.640
0.10 176.324 62.779
0.11 181.223 63.035
0.12 182.134 62.997
0.13 181.580 62.476
0.14 182.220 62.123
0.15 183.784 62.194
0.16 185.422 62.123
0.17 188.624 61.859
0.18 193.341 61.923
0.19 198.191 62.319
0.20 200.797 62.802
0.21 200.222 62.892
0.22 195.173 61.831
0.23 185.888 59.321
0.24 --undefined-- 56.182
0.25 --undefined-- 53.443
0.26 --undefined-- 54.253
0.27 --undefined-- 60.651
0.28 266.577 65.548
0.29 256.287 67.917
0.30 255.698 68.543
0.31 255.937 68.320
0.32 256.511 67.901
0.33 256.626 67.438
0.34 255.185 66.765
0.35 252.297 65.863
0.36 249.937 65.010
0.37 250.323 65.094
0.38 263.408 66.444
0.39 267.175 67.341
0.40 266.738 67.376
0.41 267.291 67.053
0.42 267.888 66.393
0.43 264.222 64.951
0.44 253.519 62.217
0.45 241.425 58.732
0.46 242.450 58.910
0.47 --undefined-- 61.424
0.48 --undefined-- 61.357
0.49 --undefined-- 58.271
0.50 --undefined-- 57.409
0.51 274.971 61.898
0.52 279.198 64.850
0.53 275.294 66.082
0.54 262.870 66.254
0.55 --undefined-- 65.287
0.56 --undefined-- 62.893
0.57 --undefined-- 59.735
0.58 --undefined-- 57.232
0.59 --undefined-- 55.866
0.60 --undefined-- 53.596
0.61 --undefined-- 52.182
0.62 --undefined-- 53.579
0.63 --undefined-- 54.406
0.64 185.278 55.245
0.65 187.606 57.186
0.66 186.197 59.433
0.67 184.204 61.273
0.68 182.779 62.930
0.69 183.529 64.497
0.70 174.655 65.438
0.71 172.593 65.623
0.72 171.510 65.122
0.73 170.666 64.147
0.74 169.841 63.301
0.75 169.588 62.939
0.76 168.852 62.847
0.77 166.885 62.464
0.78 162.614 61.758
0.79 169.704 61.355
0.80 175.145 61.455
0.81 177.950 61.479
0.82 178.476 60.938
0.83 178.982 59.506
0.84 177.142 57.143
0.85 --undefined-- 54.695
0.86 --undefined-- 55.308
0.87 --undefined-- 58.115
0.88 --undefined-- 59.628
0.89 --undefined-- 60.275
0.90 --undefined-- 60.666
0.91 --undefined-- 60.205
0.92 --undefined-- 57.991
0.93 --undefined-- 54.722
0.94 --undefined-- 53.400
0.95 --undefined-- 53.932
0.96 199.457 54.724
0.97 194.816 55.637
0.98 190.652 57.069
0.99 174.567 58.782
1.00 159.570 60.081
1.01 150.189 60.638
1.02 144.131 60.858
1.03 141.901 61.136
1.04 142.537 61.504
1.05 144.157 61.894
1.06 147.133 62.022
1.07 151.424 61.682
1.08 155.527 61.115
1.09 157.938 60.499
1.10 161.601 59.848
1.11 171.770 60.475
1.12 190.696 62.819
1.13 199.340 64.577
1.14 210.814 65.019
1.15 221.342 64.518
1.16 222.509 62.911
1.17 214.995 59.405
1.18 --undefined-- 54.985
1.19 --undefined-- 55.229
1.20 --undefined-- 57.487
1.21 --undefined-- 59.297
1.22 239.848 60.722
1.23 240.483 61.895
1.24 238.542 62.551
1.25 224.078 63.770
1.26 206.213 66.526
1.27 200.110 68.963
1.28 195.476 70.044
1.29 191.491 70.053
1.30 188.938 69.555
1.31 189.150 69.110
1.32 190.135 68.794
1.33 189.959 68.136
1.34 189.525 67.266
1.35 187.907 66.688
1.36 186.139 66.078
1.37 185.050 65.030
1.38 183.850 63.480
1.39 178.369 61.648
1.40 --undefined-- 59.150
1.41 --undefined-- 54.894
1.42 --undefined-- 49.659
1.43 --undefined-- 50.370
1.44 --undefined-- 54.704
1.45 --undefined-- 57.151
1.46 --undefined-- 57.405
1.47 --undefined-- 56.503
1.48 --undefined-- 57.137
1.49 --undefined-- 58.868
1.50 --undefined-- 60.021
1.51 214.537 60.488
1.52 201.658 60.627
1.53 183.337 61.071
1.54 168.703 61.905
1.55 158.664 62.455
1.56 153.241 62.572
1.57 150.146 62.376
1.58 148.014 62.045
1.59 147.778 62.222
1.60 149.639 62.623
1.61 153.412 62.434
1.62 155.870 62.071
1.63 159.065 61.959
1.64 162.357 62.000
1.65 165.542 62.278
1.66 168.761 62.876
1.67 171.124 63.894
1.68 176.900 65.746
1.69 183.162 68.401
1.70 183.173 70.430
1.71 183.954 71.426
1.72 184.486 72.388
1.73 184.393 73.828
1.74 182.663 75.159
1.75 180.523 75.805
1.76 179.943 75.846
1.77 181.424 75.784
1.78 185.580 75.845
1.79 188.849 75.932
1.80 189.216 75.660
1.81 186.760 74.874
1.82 181.636 73.694
1.83 177.577 72.225
1.84 174.485 69.994
1.85 --undefined-- 66.203
1.86 --undefined-- 61.826
1.87 --undefined-- 58.804
1.88 --undefined-- 56.214
1.89 --undefined-- 54.981
1.90 --undefined-- 55.654
1.91 --undefined-- 56.993
1.92 --undefined-- 59.238
1.93 --undefined-- 61.489
1.94 --undefined-- 62.991
1.95 --undefined-- 63.434
1.96 --undefined-- 62.681
1.97 --undefined-- 60.405
1.98 --undefined-- 56.722
1.99 --undefined-- 53.559
2.00 --undefined-- 54.485
2.01 --undefined-- 58.895
2.02 --undefined-- 62.100
2.03 --undefined-- 63.110
2.04 --undefined-- 62.684
2.05 --undefined-- 62.486
2.06 --undefined-- 62.267
2.07 --undefined-- 60.631
2.08 --undefined-- 56.879
2.09 --undefined-- 50.908
2.10 --undefined-- 49.424
2.11 --undefined-- 55.254
2.12 --undefined-- 59.610
2.13 --undefined-- 61.662
2.14 --undefined-- 61.878
2.15 --undefined-- 60.825
2.16 --undefined-- 59.735
2.17 --undefined-- 59.307
2.18 --undefined-- 58.440
2.19 --undefined-- 57.192
2.20 --undefined-- 59.181
2.21 --undefined-- 61.589
2.22 --undefined-- 61.794
2.23 --undefined-- 60.721
2.24 --undefined-- 60.359
2.25 --undefined-- 60.967
2.26 --undefined-- 61.119
2.27 --undefined-- 60.709
2.28 --undefined-- 60.080
2.29 --undefined-- 59.213
2.30 --undefined-- 57.541
2.31 --undefined-- 54.778
2.32 --undefined-- 51.083
2.33 --undefined-- 47.785
2.34 --undefined-- 50.915
2.35 --undefined-- 58.987
2.36 260.275 64.685
2.37 243.311 67.741
2.38 234.553 69.282
2.39 237.641 70.358
2.40 241.307 71.404
2.41 245.936 72.283
2.42 251.684 72.820
2.43 257.599 73.028
2.44 262.991 72.956
2.45 268.022 72.353
2.46 269.592 70.510
2.47 255.621 67.332
2.48 259.708 64.452
2.49 --undefined-- 62.329
2.50 --undefined-- 59.717
2.51 --undefined-- 55.981
2.52 --undefined-- 52.242
2.53 --undefined-- 51.621
2.54 --undefined-- 52.322
2.55 --undefined-- 51.743
2.56 --undefined-- 49.827
2.57 --undefined-- 47.362
2.58 --undefined-- 50.659
2.59 --undefined-- 58.344
2.60 254.827 63.428
2.61 248.143 66.106
2.62 249.630 67.254
2.63 251.842 67.678
2.64 256.625 67.966
2.65 266.790 68.100
2.66 274.717 68.070
2.67 284.498 68.422
2.68 292.209 69.219
2.69 150.862 69.797
2.70 155.263 69.849
2.71 161.150 69.432
2.72 172.045 68.721
2.73 177.232 68.069
2.74 177.618 67.256
2.75 173.569 65.853
2.76 151.857 64.329
2.77 149.745 62.972
2.78 --undefined-- 61.735
2.79 --undefined-- 61.224
2.80 --undefined-- 61.097
2.81 --undefined-- 60.403
2.82 --undefined-- 58.822
2.83 --undefined-- 57.495
2.84 --undefined-- 59.142
2.85 172.847 63.807
2.86 172.520 67.264
2.87 173.727 69.115
2.88 174.925 70.317
2.89 176.071 71.260
2.90 177.120 71.791
2.91 178.672 71.653
2.92 179.926 70.752
2.93 180.480 69.389
2.94 180.937 68.149
2.95 180.615 67.218
2.96 179.506 66.498
2.97 178.053 65.989
2.98 175.476 65.597
2.99 165.208 66.277
3.00 165.320 68.001
3.01 165.680 69.298
3.02 163.471 70.289
3.03 159.590 71.066
3.04 154.060 71.252
3.05 145.644 70.920
3.06 144.491 70.504
3.07 --undefined-- 70.089
3.08 --undefined-- 69.629
3.09 --undefined-- 69.312
3.10 182.753 68.748
3.11 179.791 67.219
3.12 175.584 64.720
3.13 171.970 61.821
3.14 163.212 59.641
3.15 165.384 59.194
3.16 167.352 59.657
3.17 167.649 60.183
3.18 168.500 60.193
3.19 167.969 60.026
3.20 169.028 60.093
3.21 169.393 59.984
3.22 168.826 59.815
3.23 168.920 59.865
3.24 170.815 60.096
3.25 172.007 60.611
3.26 173.467 61.134
3.27 175.302 61.579
3.28 183.331 62.747
3.29 182.460 64.380
3.30 180.736 65.277
3.31 182.855 65.545
3.32 185.940 65.807
3.33 191.436 66.245
3.34 192.432 66.601
3.35 193.255 66.739
3.36 194.105 66.842
3.37 195.047 67.069
3.38 196.055 67.193
3.39 197.681 66.648
3.40 200.153 65.285
3.41 199.022 63.780
3.42 197.372 62.912
3.43 195.528 62.722
3.44 194.997 63.103
3.45 195.473 63.956
3.46 196.894 64.875
3.47 199.049 65.699
3.48 202.115 66.689
3.49 203.991 68.309
3.50 203.569 70.388
3.51 204.905 72.042
3.52 208.106 72.764
3.53 211.880 72.673
3.54 216.159 72.156
3.55 219.865 71.561
3.56 223.156 70.427
3.57 225.536 67.682
3.58 229.716 63.545
3.59 --undefined-- 62.971
3.60 --undefined-- 65.005
3.61 --undefined-- 66.283
3.62 --undefined-- 67.132
3.63 --undefined-- 67.358
3.64 --undefined-- 66.256
3.65 --undefined-- 63.643
3.66 --undefined-- 61.146
3.67 --undefined-- 61.255
3.68 --undefined-- 61.671
3.69 201.332 60.490
3.70 199.829 58.563
3.71 207.183 58.733
3.72 207.638 60.982
3.73 200.745 63.306
3.74 174.802 64.737
3.75 169.940 65.245
3.76 166.566 65.273
3.77 165.242 65.524
3.78 164.120 66.460
3.79 163.875 67.460
3.80 162.936 67.313
3.81 146.953 65.606
3.82 162.145 63.117
3.83 166.454 61.792
3.84 168.276 61.838
3.85 170.078 61.908
3.86 171.162 61.731
3.87 171.972 61.731
3.88 173.088 62.374
3.89 170.886 63.823
3.90 169.612 65.576
3.91 167.109 66.946
3.92 164.808 67.527
3.93 161.881 67.459
3.94 161.052 67.772
3.95 162.240 68.574
3.96 163.528 68.871
3.97 162.841 68.219
3.98 163.097 67.032
3.99 165.554 66.600
4.00 167.064 67.887
4.01 171.687 70.112
4.02 177.137 71.890
4.03 184.176 72.577
4.04 191.534 72.351
4.05 194.676 72.077
4.06 195.312 72.384
4.07 198.353 73.233
4.08 201.024 74.460
4.09 203.066 75.917
4.10 203.292 77.246
4.11 202.847 77.971
4.12 201.638 77.947
4.13 198.133 77.475
4.14 191.472 76.817
4.15 184.238 75.601
4.16 --undefined-- 73.464
4.17 --undefined-- 70.284
4.18 --undefined-- 65.913
4.19 --undefined-- 63.308
4.20 --undefined-- 65.195
4.21 --undefined-- 67.111
4.22 --undefined-- 67.155
4.23 --undefined-- 65.146
4.24 --undefined-- 61.223
4.25 --undefined-- 55.817
4.26 --undefined-- 52.424
4.27 --undefined-- 55.747
4.28 --undefined-- 59.343
4.29 --undefined-- 60.583
4.30 --undefined-- 59.404
4.31 --undefined-- 55.691
4.32 --undefined-- 50.141
4.33 --undefined-- 46.785
4.34 --undefined-- 49.407
4.35 --undefined-- 53.731
4.36 --undefined-- 55.845
4.37 --undefined-- 55.713
4.38 --undefined-- 53.696
4.39 --undefined-- 50.711
4.40 --undefined-- 48.396
4.41 --undefined-- 47.663
4.42 --undefined-- 48.036
4.43 --undefined-- 49.087
4.44 --undefined-- 51.997
4.45 --undefined-- 54.788
4.46 --undefined-- 57.989
4.47 224.861 61.573
4.48 211.093 64.373
4.49 220.766 66.761
4.50 223.161 69.576
4.51 226.444 71.853
4.52 227.581 72.689
4.53 229.014 72.392
4.54 234.271 71.830
4.55 237.890 71.132
4.56 243.284 69.966
4.57 254.420 69.216
4.58 270.360 69.923
4.59 287.326 71.269
4.60 298.572 72.506
4.61 154.412 73.075
4.62 160.654 72.773
4.63 166.993 71.648
4.64 173.238 69.811
4.65 175.337 67.951
4.66 176.610 66.946
4.67 175.889 67.398
4.68 172.768 68.153
4.69 170.328 68.085
4.70 167.533 67.483
4.71 166.858 67.336
4.72 175.476 67.810
4.73 173.055 68.489
4.74 165.433 69.355
4.75 158.417 70.171
4.76 286.561 70.595
4.77 267.111 71.064
4.78 247.451 71.653
4.79 236.450 71.568
4.80 230.425 70.168
4.81 229.523 67.231
4.82 231.929 64.606
4.83 --undefined-- 64.139
4.84 --undefined-- 64.166
4.85 --undefined-- 63.489
4.86 --undefined-- 61.955
4.87 --undefined-- 60.354
4.88 --undefined-- 59.623
4.89 --undefined-- 59.150
4.90 --undefined-- 58.270
4.91 --undefined-- 57.965
4.92 --undefined-- 58.140
4.93 --undefined-- 57.111
4.94 --undefined-- 54.160
4.95 --undefined-- 52.028
4.96 --undefined-- 55.125
4.97 --undefined-- 58.163
4.98 --undefined-- 59.354
4.99 --undefined-- 58.523
5.00 --undefined-- 55.939
5.01 --undefined-- --undefined--
5.02 --undefined-- --undefined--
5.03 --undefined-- --undefined--
5.04 --undefined-- --undefined--
