Time Pitch Intensity
0.01 --undefined-- --undefined--
0.02 115.355 --undefined--
0.03 114.571 --undefined--
0.04 112.585 --undefined--
0.05 111.486 66.833
0.06 110.967 65.801
0.07 112.077 64.850
0.08 113.728 64.438
0.09 112.043 64.224
0.10 112.147 64.167
0.11 111.748 64.191
0.12 110.677 64.039
0.13 111.155 63.930
0.14 112.145 63.991
0.15 112.091 63.935
0.16 111.683 63.492
0.17 110.640 62.594
0.18 108.458 61.339
0.19 --undefined-- 59.991
0.20 --undefined-- 57.853
0.21 --undefined-- 54.708
0.22 --undefined-- 51.113
0.23 --undefined-- 46.762
0.24 --undefined-- 41.308
0.25 --undefined-- 36.920
0.26 --undefined-- 36.223
0.27 --undefined-- 37.556
0.28 --undefined-- 39.046
0.29 --undefined-- 39.680
0.30 --undefined-- 38.926
0.31 --undefined-- 37.374
0.32 --undefined-- 36.373
0.33 --undefined-- 36.104
0.34 --undefined-- 36.524
0.35 --undefined-- 36.355
0.36 --undefined-- 36.483
0.37 --undefined-- 37.810
0.38 --undefined-- 38.916
0.39 --undefined-- 38.573
0.40 --undefined-- 37.743
0.41 --undefined-- 37.641
0.42 --undefined-- 38.201
0.43 --undefined-- 39.209
0.44 --undefined-- 39.853
0.45 --undefined-- 40.404
0.46 --undefined-- 41.033
0.47 --undefined-- 41.217
0.48 --undefined-- 40.186
0.49 --undefined-- 38.964
0.50 --undefined-- 38.311
0.51 --undefined-- 37.456
0.52 --undefined-- 37.587
0.53 --undefined-- 38.114
0.54 --undefined-- 37.320
0.55 --undefined-- 36.160
0.56 --undefined-- 35.395
0.57 --undefined-- 35.656
0.58 --undefined-- 36.241
0.59 --undefined-- 35.546
0.60 --undefined-- 34.573
0.61 --undefined-- 34.944
0.62 --undefined-- 36.018
0.63 --undefined-- 40.226
0.64 --undefined-- 54.627
0.65 --undefined-- 65.066
0.66 --undefined-- 71.409
0.67 182.954 74.639
0.68 182.909 75.771
0.69 183.746 76.337
0.70 183.139 77.006
0.71 181.953 77.337
0.72 182.500 77.175
0.73 183.954 76.702
0.74 186.682 76.024
0.75 189.304 75.379
0.76 191.332 75.082
0.77 193.136 75.087
0.78 194.225 75.135
0.79 194.015 74.885
0.80 191.085 73.541
0.81 179.458 70.225
0.82 156.927 64.661
0.83 --undefined-- 57.475
0.84 --undefined-- 50.572
0.85 --undefined-- 50.679
0.86 --undefined-- 58.913
0.87 --undefined-- 68.152
0.88 237.869 73.852
0.89 223.053 76.730
0.90 216.516 78.124
0.91 215.253 79.047
0.92 211.200 79.415
0.93 208.714 79.557
0.94 210.272 79.529
0.95 212.791 78.880
0.96 212.778 77.772
0.97 212.929 77.001
0.98 212.806 76.910
0.99 212.653 76.858
1.00 211.147 76.392
1.01 205.705 75.777
1.02 202.637 75.269
1.03 201.644 74.247
1.04 187.858 72.695
1.05 176.445 71.145
1.06 167.213 69.129
1.07 157.469 66.169
1.08 157.376 62.489
1.09 --undefined-- 58.998
1.10 --undefined-- 56.916
1.11 --undefined-- 55.601
1.12 --undefined-- 54.812
1.13 --undefined-- 56.153
1.14 --undefined-- 61.819
1.15 162.622 66.468
1.16 141.648 68.639
1.17 131.081 69.526
1.18 130.790 70.463
1.19 133.668 71.666
1.20 134.674 72.289
1.21 138.879 72.284
1.22 142.550 72.558
1.23 147.375 72.725
1.24 155.450 72.736
1.25 159.130 73.034
1.26 162.157 73.329
1.27 164.979 73.393
1.28 169.167 73.328
1.29 174.875 73.482
1.30 178.104 73.791
1.31 179.768 73.603
1.32 178.000 72.602
1.33 166.689 71.285
1.34 156.969 69.584
1.35 147.774 66.705
1.36 137.069 62.154
1.37 --undefined-- 56.373
1.38 --undefined-- 51.375
1.39 --undefined-- 51.403
1.40 --undefined-- 58.527
1.41 159.351 64.078
1.42 128.837 66.915
1.43 128.495 68.109
1.44 130.071 68.795
1.45 130.867 69.240
1.46 130.147 68.985
1.47 128.966 67.416
1.48 --undefined-- 63.947
1.49 --undefined-- 58.609
1.50 --undefined-- 52.828
1.51 --undefined-- 55.153
1.52 --undefined-- 64.640
1.53 --undefined-- 70.964
1.54 --undefined-- 74.494
1.55 156.506 76.394
1.56 154.121 77.514
1.57 154.055 78.003
1.58 154.097 77.832
1.59 154.205 77.077
1.60 154.520 75.760
1.61 153.158 73.652
1.62 149.857 69.993
1.63 147.530 64.057
1.64 --undefined-- 56.165
1.65 --undefined-- 50.135
1.66 --undefined-- 49.294
1.67 --undefined-- 48.730
1.68 --undefined-- 55.410
1.69 --undefined-- 64.520
1.70 --undefined-- 70.412
1.71 161.067 74.002
1.72 156.427 75.893
1.73 154.313 76.344
1.74 153.416 76.095
1.75 153.280 75.850
1.76 153.021 75.399
1.77 151.360 74.089
1.78 149.243 72.206
1.79 153.259 71.104
1.80 153.347 70.698
1.81 152.576 70.438
1.82 149.628 70.254
1.83 145.787 70.065
1.84 141.078 69.951
1.85 139.347 70.399
1.86 137.238 71.140
1.87 130.765 71.126
1.88 128.002 70.453
1.89 124.162 69.899
1.90 122.963 69.596
1.91 122.595 69.343
1.92 121.235 69.176
1.93 118.587 69.229
1.94 118.595 69.322
1.95 118.268 69.174
1.96 117.050 68.826
1.97 114.971 68.789
1.98 116.882 68.950
1.99 117.370 68.720
2.00 117.715 68.058
2.01 115.193 66.714
2.02 --undefined-- 64.491
2.03 --undefined-- 61.246
2.04 --undefined-- 56.713
2.05 --undefined-- 51.521
2.06 --undefined-- 46.098
2.07 --undefined-- 41.803
2.08 --undefined-- 39.617
2.09 --undefined-- 38.171
2.10 --undefined-- 37.867
2.11 --undefined-- 37.650
2.12 --undefined-- 37.456
2.13 --undefined-- 38.239
2.14 --undefined-- 38.472
2.15 --undefined-- 37.145
2.16 --undefined-- 35.893
2.17 --undefined-- 35.367
2.18 --undefined-- 34.031
2.19 --undefined-- 38.343
2.20 --undefined-- 51.190
2.21 --undefined-- 61.710
2.22 --undefined-- 68.342
2.23 173.370 72.002
2.24 173.073 73.734
2.25 173.763 74.207
2.26 176.358 73.880
2.27 177.019 73.610
2.28 175.904 73.765
2.29 174.786 74.019
2.30 174.902 74.220
2.31 175.379 74.335
2.32 175.495 74.248
2.33 175.527 73.579
2.34 174.349 71.524
2.35 168.221 67.285
2.36 158.124 61.067
2.37 173.830 55.639
2.38 174.091 54.485
2.39 --undefined-- 56.333
2.40 --undefined-- 57.776
2.41 --undefined-- 58.232
2.42 --undefined-- 58.970
2.43 297.745 60.198
2.44 296.228 60.466
2.45 289.244 59.493
2.46 --undefined-- 62.441
2.47 143.169 66.279
2.48 131.921 67.861
2.49 126.975 67.977
2.50 127.967 67.602
2.51 130.532 67.505
2.52 134.919 68.217
2.53 134.523 69.058
2.54 138.186 69.057
2.55 138.256 67.326
2.56 125.557 63.267
2.57 124.972 57.396
2.58 --undefined-- 51.465
2.59 --undefined-- 47.961
2.60 --undefined-- 56.918
2.61 --undefined-- 66.041
2.62 --undefined-- 71.607
2.63 168.154 74.304
2.64 165.982 75.152
2.65 166.029 74.967
2.66 166.451 74.070
2.67 165.998 72.562
2.68 164.189 70.390
2.69 160.222 67.369
2.70 145.443 63.556
2.71 --undefined-- 58.732
2.72 --undefined-- 51.537
2.73 --undefined-- 42.407
2.74 --undefined-- 40.178
2.75 --undefined-- 47.277
2.76 --undefined-- 55.667
2.77 158.771 61.462
2.78 153.299 65.331
2.79 148.535 67.889
2.80 141.277 69.234
2.81 134.358 69.393
2.82 130.153 69.074
2.83 128.696 69.056
2.84 125.345 68.947
2.85 124.568 68.201
2.86 120.624 67.061
2.87 117.560 66.342
2.88 116.307 65.809
2.89 114.121 65.109
2.90 112.786 64.578
2.91 112.006 64.391
2.92 111.861 64.534
2.93 112.975 64.863
2.94 112.632 64.897
2.95 109.314 64.596
2.96 107.240 64.902
2.97 113.459 65.750
2.98 118.260 66.209
2.99 119.853 66.101
3.00 119.000 65.384
3.01 109.103 63.866
3.02 91.335 62.026
3.03 87.332 62.215
3.04 97.797 64.634
3.05 108.945 66.941
3.06 118.060 68.485
3.07 132.159 69.457
3.08 140.056 70.289
3.09 139.977 71.043
3.10 137.627 71.302
3.11 141.529 70.763
3.12 146.427 69.231
3.13 145.444 66.553
3.14 143.297 63.722
3.15 142.928 64.490
3.16 147.591 69.529
3.17 151.732 73.719
3.18 151.911 75.529
3.19 146.574 75.260
3.20 140.800 73.806
3.21 131.602 71.698
3.22 129.385 68.120
3.23 --undefined-- 61.917
3.24 --undefined-- 53.004
3.25 --undefined-- 45.944
3.26 --undefined-- 47.406
3.27 --undefined-- 52.208
3.28 --undefined-- 59.969
3.29 164.744 66.864
3.30 159.395 70.873
3.31 147.013 72.566
3.32 140.371 72.889
3.33 136.882 72.664
3.34 135.277 72.281
3.35 129.922 71.947
3.36 126.251 71.929
3.37 130.787 71.929
3.38 130.457 71.695
3.39 129.683 71.430
3.40 129.823 71.164
3.41 130.799 70.686
3.42 130.539 69.426
3.43 126.531 66.710
3.44 115.197 62.289
3.45 106.109 56.632
3.46 --undefined-- 52.215
3.47 --undefined-- 53.127
3.48 --undefined-- 54.699
3.49 --undefined-- 59.020
3.50 154.319 63.901
3.51 135.449 66.554
3.52 124.384 67.383
3.53 119.587 67.394
3.54 113.457 67.292
3.55 111.745 67.005
3.56 111.567 66.689
3.57 114.895 66.950
3.58 118.594 67.888
3.59 125.241 69.080
3.60 130.707 70.247
3.61 134.837 71.287
3.62 138.146 71.986
3.63 138.915 72.190
3.64 150.253 72.046
3.65 159.133 71.615
3.66 167.953 70.827
3.67 175.420 69.712
3.68 178.115 68.123
3.69 174.387 65.920
3.70 --undefined-- 63.537
3.71 --undefined-- 60.578
3.72 --undefined-- 55.068
3.73 --undefined-- 46.112
3.74 --undefined-- 38.617
3.75 --undefined-- 36.248
3.76 --undefined-- 35.781
3.77 --undefined-- 34.208
3.78 --undefined-- 34.171
3.79 --undefined-- 35.558
3.80 --undefined-- 35.668
3.81 --undefined-- 34.525
3.82 --undefined-- 31.806
3.83 --undefined-- 31.039
3.84 --undefined-- 32.911
3.85 --undefined-- 33.484
3.86 --undefined-- 32.463
3.87 --undefined-- 30.898
3.88 --undefined-- 32.267
3.89 --undefined-- 34.704
3.90 --undefined-- 35.037
3.91 --undefined-- 33.296
3.92 --undefined-- 32.207
3.93 --undefined-- 32.940
3.94 --undefined-- 34.096
3.95 --undefined-- 35.724
3.96 --undefined-- 36.610
3.97 --undefined-- 36.678
3.98 --undefined-- 36.201
3.99 --undefined-- 35.493
4.00 --undefined-- 35.634
4.01 --undefined-- 36.395
4.02 --undefined-- 36.451
4.03 --undefined-- 36.875
4.04 --undefined-- 38.011
4.05 --undefined-- 39.549
4.06 --undefined-- 40.370
4.07 --undefined-- 39.753
4.08 --undefined-- 38.273
4.09 --undefined-- 37.409
4.10 --undefined-- 37.820
4.11 --undefined-- 38.398
4.12 --undefined-- 39.179
4.13 --undefined-- 40.367
4.14 --undefined-- 41.053
4.15 --undefined-- 40.831
4.16 --undefined-- 39.978
4.17 --undefined-- 39.202
4.18 --undefined-- 39.616
4.19 --undefined-- 40.188
4.20 --undefined-- 40.277
4.21 --undefined-- 40.466
4.22 --undefined-- 40.421
4.23 --undefined-- 39.587
4.24 --undefined-- 38.967
4.25 --undefined-- 37.834
4.26 --undefined-- 36.572
4.27 --undefined-- 37.645
4.28 --undefined-- 40.679
4.29 --undefined-- 42.281
4.30 --undefined-- 41.112
4.31 --undefined-- 38.253
4.32 --undefined-- 41.962
4.33 --undefined-- 55.207
4.34 --undefined-- 65.324
4.35 198.784 71.793
4.36 192.387 75.048
4.37 186.501 76.031
4.38 180.840 75.299
4.39 175.184 72.527
4.40 143.267 67.102
4.41 132.780 58.953
4.42 --undefined-- 51.086
4.43 --undefined-- 45.559
4.44 --undefined-- 46.710
4.45 --undefined-- 56.802
4.46 --undefined-- 64.781
4.47 167.014 70.015
4.48 162.297 73.212
4.49 157.881 75.357
4.50 152.032 76.983
4.51 148.328 78.267
4.52 147.216 79.437
4.53 147.307 80.210
4.54 147.256 80.339
4.55 147.126 80.157
4.56 146.828 80.077
4.57 146.567 80.197
4.58 147.076 80.364
4.59 147.773 80.333
4.60 147.920 79.982
4.61 148.262 79.500
4.62 148.817 79.058
4.63 149.987 78.538
4.64 150.548 77.644
4.65 150.264 76.522
4.66 150.573 75.632
4.67 75.767 74.933
4.68 75.394 73.669
4.69 74.527 71.569
4.70 --undefined-- 68.745
4.71 --undefined-- 64.949
4.72 152.691 60.542
4.73 154.077 57.163
4.74 --undefined-- 53.311
4.75 --undefined-- 47.548
4.76 --undefined-- 41.387
4.77 --undefined-- 39.117
4.78 --undefined-- 38.919
4.79 --undefined-- 40.067
4.80 --undefined-- 40.477
4.81 --undefined-- 39.014
4.82 --undefined-- 36.680
4.83 --undefined-- 36.104
4.84 --undefined-- 36.997
4.85 --undefined-- 37.064
4.86 --undefined-- 35.849
4.87 --undefined-- 35.050
4.88 --undefined-- 35.764
4.89 --undefined-- 37.260
4.90 --undefined-- 38.661
4.91 --undefined-- 38.749
4.92 --undefined-- 37.048
4.93 --undefined-- 35.880
4.94 --undefined-- 36.403
4.95 --undefined-- 44.260
4.96 --undefined-- 56.869
4.97 227.284 64.499
4.98 196.075 68.303
4.99 172.601 69.887
5.00 173.390 70.977
5.01 178.662 72.053
5.02 183.778 72.639
5.03 183.467 72.822
5.04 184.554 73.136
5.05 185.822 73.847
5.06 186.168 74.706
5.07 186.151 74.891
5.08 185.240 73.595
5.09 183.758 70.294
5.10 --undefined-- 64.560
5.11 --undefined-- 57.415
5.12 --undefined-- 50.891
5.13 --undefined-- 46.418
5.14 --undefined-- 51.146
5.15 --undefined-- 60.946
5.16 186.065 67.799
5.17 160.777 71.750
5.18 150.252 73.731
5.19 143.695 74.594
5.20 136.696 75.020
5.21 135.413 74.949
5.22 134.828 74.038
5.23 128.784 72.433
5.24 123.619 71.451
5.25 127.194 71.496
5.26 128.221 71.159
5.27 124.057 69.634
5.28 115.275 66.669
5.29 125.366 62.521
5.30 131.870 57.594
5.31 --undefined-- 52.731
5.32 --undefined-- 50.538
5.33 --undefined-- 50.580
5.34 --undefined-- 51.725
5.35 --undefined-- 52.718
5.36 --undefined-- 53.170
5.37 --undefined-- 53.922
5.38 --undefined-- 58.798
5.39 121.782 63.123
5.40 116.616 65.075
5.41 112.441 65.451
5.42 111.751 65.247
5.43 114.171 65.104
5.44 115.560 65.019
5.45 116.462 64.619
5.46 111.331 63.163
5.47 102.787 60.024
5.48 99.280 55.789
5.49 --undefined-- 52.145
5.50 --undefined-- 50.067
5.51 --undefined-- 54.304
5.52 --undefined-- 59.290
5.53 --undefined-- 63.600
5.54 159.291 67.765
5.55 149.040 70.473
5.56 142.989 71.755
5.57 141.342 72.490
5.58 142.003 73.499
5.59 142.439 74.576
5.60 142.560 75.536
5.61 142.528 76.361
5.62 143.340 76.875
5.63 143.842 76.801
5.64 144.963 76.215
5.65 147.015 75.551
5.66 149.049 74.996
5.67 151.709 74.558
5.68 153.696 73.884
5.69 153.086 72.787
5.70 150.548 72.058
5.71 155.054 71.838
5.72 155.890 71.417
5.73 155.866 70.791
5.74 153.977 69.936
5.75 151.028 68.630
5.76 --undefined-- 66.404
5.77 --undefined-- 62.674
5.78 --undefined-- 57.585
5.79 --undefined-- 51.829
5.80 --undefined-- 45.428
5.81 --undefined-- 41.171
5.82 --undefined-- 38.961
5.83 --undefined-- 38.576
5.84 --undefined-- 39.448
5.85 --undefined-- 38.848
5.86 --undefined-- 37.206
5.87 --undefined-- 36.771
5.88 --undefined-- 36.710
5.89 --undefined-- 36.555
5.90 --undefined-- 36.562
5.91 --undefined-- 36.691
5.92 --undefined-- 36.624
5.93 --undefined-- 36.003
5.94 --undefined-- 36.427
5.95 --undefined-- 37.523
5.96 --undefined-- 37.384
5.97 --undefined-- 36.700
5.98 --undefined-- 44.880
5.99 --undefined-- 58.123
6.00 --undefined-- 66.720
6.01 --undefined-- 71.486
6.02 --undefined-- 73.778
6.03 161.665 75.033
6.04 161.163 75.743
6.05 160.817 75.911
6.06 160.784 75.826
6.07 161.784 75.799
6.08 163.943 75.961
6.09 165.772 76.375
6.10 166.393 76.971
6.11 167.644 77.501
6.12 169.199 77.877
6.13 170.009 77.987
6.14 170.400 77.677
6.15 170.698 77.121
6.16 170.577 76.284
6.17 169.973 74.619
6.18 168.292 71.466
6.19 147.576 66.962
6.20 142.353 62.074
6.21 140.072 57.436
6.22 --undefined-- 52.243
6.23 --undefined-- 46.333
6.24 --undefined-- 42.676
6.25 --undefined-- 42.785
6.26 --undefined-- 43.846
6.27 --undefined-- 52.435
6.28 --undefined-- 63.371
6.29 216.300 70.612
6.30 201.663 74.735
6.31 194.471 76.755
6.32 190.635 77.583
6.33 189.550 77.614
6.34 191.075 76.909
6.35 192.062 75.782
6.36 187.558 74.648
6.37 181.863 72.799
6.38 174.996 69.265
6.39 161.631 64.148
6.40 151.883 61.092
6.41 150.412 62.319
6.42 159.122 67.217
6.43 160.537 71.946
6.44 156.563 74.369
6.45 148.801 74.769
6.46 142.867 73.485
6.47 --undefined-- 70.251
6.48 --undefined-- 64.776
6.49 --undefined-- 57.178
6.50 --undefined-- 49.027
6.51 --undefined-- 42.966
6.52 --undefined-- --undefined--
6.53 --undefined-- --undefined--
6.54 --undefined-- --undefined--
6.55 --undefined-- --undefined--
