Time Pitch Intensity
0.01 --undefined-- --undefined--
0.02 254.745 --undefined--
0.03 260.097 --undefined--
0.04 264.985 --undefined--
0.05 268.416 67.174
0.06 267.634 63.946
0.07 262.453 60.055
0.08 261.579 55.275
0.09 264.343 50.848
0.10 264.426 48.322
0.11 --undefined-- 45.487
0.12 --undefined-- 43.843
0.13 --undefined-- 44.069
0.14 --undefined-- 44.590
0.15 --undefined-- 45.433
0.16 --undefined-- 46.590
0.17 --undefined-- 47.214
0.18 --undefined-- 47.391
0.19 --undefined-- 48.565
0.20 --undefined-- 50.266
0.21 --undefined-- 50.291
0.22 --undefined-- 48.171
0.23 --undefined-- 45.959
0.24 --undefined-- 45.827
0.25 --undefined-- 45.861
0.26 --undefined-- 46.129
0.27 --undefined-- 48.275
0.28 --undefined-- 48.790
0.29 --undefined-- 47.024
0.30 --undefined-- 44.883
0.31 --undefined-- 45.244
0.32 --undefined-- 50.691
0.33 --undefined-- 57.493
0.34 226.035 61.939
0.35 224.678 64.655
0.36 231.742 66.805
0.37 241.944 68.685
0.38 253.281 70.072
0.39 266.785 70.923
0.40 284.086 71.635
0.41 --undefined-- 72.431
0.42 156.117 72.707
0.43 162.309 72.116
0.44 167.261 70.445
0.45 165.454 67.127
0.46 156.465 61.797
0.47 162.775 56.135
0.48 168.199 59.314
0.49 169.759 64.781
0.50 164.658 67.472
0.51 158.183 68.092
0.52 150.622 67.662
0.53 282.979 66.794
0.54 265.830 65.683
0.55 260.147 64.439
0.56 250.414 63.651
0.57 250.893 63.971
0.58 257.363 65.180
0.59 261.028 66.782
0.60 262.582 68.199
0.61 260.699 68.672
0.62 256.006 68.041
0.63 254.926 66.897
0.64 256.517 65.439
0.65 257.071 62.743
0.66 251.377 57.887
0.67 --undefined-- 51.216
0.68 --undefined-- 47.413
0.69 --undefined-- 47.755
0.70 --undefined-- 49.086
0.71 --undefined-- 49.592
0.72 --undefined-- 49.038
0.73 --undefined-- 48.766
0.74 --undefined-- 49.418
0.75 --undefined-- 52.298
0.76 147.163 57.570
0.77 160.674 62.839
0.78 168.246 65.841
0.79 174.190 66.414
0.80 175.959 65.282
0.81 175.810 63.871
0.82 175.539 63.581
0.83 175.370 63.956
0.84 174.677 64.159
0.85 173.932 64.509
0.86 176.703 65.087
0.87 179.389 65.406
0.88 181.150 65.461
0.89 180.214 65.130
0.90 179.989 64.259
0.91 179.729 63.767
0.92 176.053 63.996
0.93 172.444 64.082
0.94 169.672 64.091
0.95 166.954 64.642
0.96 163.672 65.831
0.97 159.324 66.881
0.98 153.020 67.208
0.99 287.082 66.872
1.00 262.190 66.104
1.01 240.266 65.311
1.02 228.123 65.059
1.03 220.915 65.163
1.04 215.309 65.395
1.05 211.224 65.723
1.06 209.714 65.920
1.07 209.648 65.688
1.08 209.702 64.906
1.09 207.163 63.901
1.10 203.659 63.189
1.11 198.147 62.867
1.12 190.505 62.640
1.13 187.394 62.223
1.14 181.740 61.577
1.15 176.274 60.766
1.16 171.978 60.288
1.17 171.178 60.603
1.18 169.623 61.620
1.19 167.179 62.944
1.20 166.196 64.338
1.21 165.591 65.572
1.22 164.541 66.310
1.23 164.490 66.398
1.24 164.550 65.771
1.25 163.580 64.309
1.26 162.310 61.842
1.27 157.208 58.641
1.28 154.027 56.936
1.29 156.762 57.944
1.30 158.449 59.082
1.31 159.957 59.719
1.32 163.132 60.520
1.33 166.405 61.629
1.34 167.988 62.618
1.35 168.908 63.205
1.36 168.032 63.497
1.37 166.829 63.511
1.38 167.309 63.263
1.39 167.853 62.995
1.40 167.332 62.870
1.41 166.201 62.889
1.42 165.706 62.713
1.43 164.450 61.838
1.44 79.297 60.355
1.45 80.393 58.880
1.46 79.719 57.611
1.47 77.373 56.561
1.48 76.201 55.909
1.49 124.060 55.872
1.50 125.925 55.871
1.51 131.870 55.709
1.52 155.776 56.056
1.53 165.872 56.971
1.54 169.412 58.023
1.55 167.902 58.968
1.56 166.328 59.631
1.57 165.047 59.842
1.58 162.826 59.459
1.59 161.927 58.867
1.60 162.481 58.755
1.61 161.748 58.900
1.62 161.630 58.761
1.63 161.612 58.484
1.64 161.527 58.173
1.65 162.218 57.812
1.66 163.471 57.637
1.67 163.846 57.965
1.68 163.278 58.545
1.69 163.717 59.123
1.70 167.518 59.888
1.71 165.189 60.701
1.72 164.438 61.336
1.73 164.173 61.952
1.74 163.570 62.506
1.75 162.974 62.946
1.76 161.517 63.140
1.77 161.610 62.969
1.78 162.821 62.629
1.79 163.720 62.341
1.80 164.034 62.421
1.81 170.007 62.945
1.82 177.899 63.459
1.83 184.779 64.115
1.84 191.485 64.813
1.85 201.461 64.941
1.86 218.038 65.059
1.87 229.377 66.016
1.88 240.948 67.079
1.89 255.155 67.839
1.90 269.140 68.472
1.91 279.412 68.776
1.92 284.255 67.992
1.93 283.852 65.163
1.94 282.801 59.658
1.95 --undefined-- 51.973
1.96 --undefined-- 47.658
1.97 --undefined-- 55.448
1.98 --undefined-- 63.002
1.99 233.406 67.460
2.00 226.802 69.285
2.01 202.989 69.581
2.02 190.339 69.728
2.03 184.807 69.614
2.04 180.858 68.801
2.05 179.766 67.810
2.06 178.608 66.964
2.07 177.388 66.147
2.08 177.405 65.350
2.09 178.909 64.794
2.10 179.912 64.529
2.11 180.911 64.452
2.12 182.314 64.480
2.13 181.841 64.325
2.14 181.730 63.868
2.15 180.373 63.081
2.16 177.912 61.723
2.17 181.180 60.286
2.18 --undefined-- 59.698
2.19 --undefined-- 58.816
2.20 --undefined-- 56.320
2.21 --undefined-- 52.615
2.22 --undefined-- 49.121
2.23 --undefined-- 45.390
2.24 --undefined-- 41.376
2.25 --undefined-- 42.436
2.26 --undefined-- 46.441
2.27 --undefined-- 48.480
2.28 --undefined-- 50.351
2.29 --undefined-- 55.593
2.30 195.969 59.604
2.31 189.743 61.533
2.32 185.062 62.401
2.33 183.320 63.036
2.34 183.377 63.670
2.35 183.649 64.396
2.36 185.384 65.211
2.37 186.153 65.673
2.38 186.385 65.587
2.39 185.767 64.990
2.40 183.983 63.301
2.41 179.460 59.668
2.42 175.388 54.149
2.43 --undefined-- 48.574
2.44 --undefined-- 48.628
2.45 --undefined-- 53.490
2.46 --undefined-- 57.303
2.47 --undefined-- 60.447
2.48 193.261 62.505
2.49 183.946 63.097
2.50 174.524 62.419
2.51 172.796 61.360
2.52 169.497 60.963
2.53 166.087 61.128
2.54 166.847 61.820
2.55 167.177 62.400
2.56 166.425 62.678
2.57 165.928 63.129
2.58 166.977 63.839
2.59 168.177 64.755
2.60 174.862 65.456
2.61 167.886 65.165
2.62 164.962 64.335
2.63 162.815 64.257
2.64 161.696 64.546
2.65 160.836 64.661
2.66 160.785 64.690
2.67 162.327 64.755
2.68 164.232 64.910
2.69 167.257 65.021
2.70 170.543 65.133
2.71 171.023 64.949
2.72 170.595 63.480
2.73 168.694 59.999
2.74 165.121 54.578
2.75 --undefined-- 48.611
2.76 --undefined-- 44.362
2.77 --undefined-- 43.993
2.78 --undefined-- 46.915
2.79 --undefined-- 48.600
2.80 --undefined-- 48.658
2.81 --undefined-- 47.796
2.82 --undefined-- 47.748
2.83 --undefined-- 49.991
2.84 277.471 51.979
2.85 285.299 53.505
2.86 --undefined-- 55.470
2.87 --undefined-- 58.417
2.88 --undefined-- 61.885
2.89 --undefined-- 64.236
2.90 160.300 64.986
2.91 154.697 64.541
2.92 152.586 63.751
2.93 150.940 62.948
2.94 149.172 62.061
2.95 149.069 60.964
2.96 148.485 59.669
2.97 149.363 58.686
2.98 149.351 58.060
2.99 148.822 57.238
3.00 147.173 55.944
3.01 144.386 54.066
3.02 --undefined-- 51.076
3.03 --undefined-- 46.802
3.04 --undefined-- 43.714
3.05 --undefined-- 45.817
3.06 --undefined-- 50.050
3.07 --undefined-- 52.493
3.08 --undefined-- 56.232
3.09 235.479 61.032
3.10 221.867 64.039
3.11 221.985 65.391
3.12 224.629 65.771
3.13 228.158 65.868
3.14 230.105 66.189
3.15 230.830 66.605
3.16 231.639 66.821
3.17 232.269 66.819
3.18 232.621 66.725
3.19 232.312 66.639
3.20 231.955 66.487
3.21 231.104 65.799
3.22 230.423 63.832
3.23 226.972 59.952
3.24 --undefined-- 54.756
3.25 --undefined-- 51.746
3.26 --undefined-- 52.587
3.27 --undefined-- 57.961
3.28 --undefined-- 62.042
3.29 --undefined-- 63.192
3.30 --undefined-- 62.063
3.31 --undefined-- 60.035
3.32 147.111 59.085
3.33 147.600 59.263
3.34 148.777 59.776
3.35 151.882 60.453
3.36 153.489 60.971
3.37 153.801 61.091
3.38 154.182 60.740
3.39 153.395 60.149
3.40 152.424 59.693
3.41 152.716 59.707
3.42 154.228 60.121
3.43 159.216 60.420
3.44 159.323 60.163
3.45 158.072 59.008
3.46 156.940 57.139
3.47 152.424 55.747
3.48 149.512 55.661
3.49 150.162 55.746
3.50 151.245 55.843
3.51 153.506 56.657
3.52 155.359 58.424
3.53 156.674 60.305
3.54 158.140 61.813
3.55 158.840 63.053
3.56 158.722 64.067
3.57 159.053 64.798
3.58 159.469 65.137
3.59 159.791 65.116
3.60 160.878 64.828
3.61 162.437 64.466
3.62 166.266 64.332
3.63 169.425 64.286
3.64 171.264 63.860
3.65 171.023 62.622
3.66 163.014 60.557
3.67 163.484 57.845
3.68 --undefined-- 54.447
3.69 --undefined-- 54.274
3.70 --undefined-- 59.922
3.71 199.093 64.609
3.72 186.031 67.685
3.73 179.544 69.526
3.74 177.239 70.288
3.75 176.620 70.660
3.76 176.546 71.055
3.77 177.215 71.252
3.78 177.112 71.460
3.79 174.803 71.964
3.80 172.700 72.431
3.81 170.569 72.946
3.82 169.428 73.811
3.83 168.425 74.489
3.84 167.602 74.606
3.85 167.163 74.353
3.86 166.589 73.830
3.87 166.062 72.686
3.88 164.669 70.480
3.89 --undefined-- 67.124
3.90 --undefined-- 62.942
3.91 --undefined-- 58.626
3.92 --undefined-- 54.556
3.93 --undefined-- 49.994
3.94 --undefined-- 46.933
3.95 --undefined-- 46.926
3.96 --undefined-- 47.707
3.97 --undefined-- 47.767
3.98 --undefined-- 45.948
3.99 --undefined-- 41.686
4.00 --undefined-- 39.470
4.01 --undefined-- 43.356
4.02 --undefined-- 47.367
4.03 --undefined-- 49.115
4.04 --undefined-- 49.476
4.05 --undefined-- 49.647
4.06 --undefined-- 50.524
4.07 --undefined-- 50.249
4.08 --undefined-- 47.616
4.09 --undefined-- 45.161
4.10 --undefined-- 45.271
4.11 --undefined-- 45.521
4.12 --undefined-- 46.078
4.13 --undefined-- 47.315
4.14 --undefined-- 47.617
4.15 --undefined-- 45.990
4.16 --undefined-- 45.264
4.17 --undefined-- 46.262
4.18 --undefined-- 46.676
4.19 --undefined-- 46.631
4.20 --undefined-- 45.957
4.21 --undefined-- 44.455
4.22 --undefined-- 42.945
4.23 --undefined-- 43.237
4.24 --undefined-- 44.911
4.25 --undefined-- 44.858
4.26 --undefined-- 43.509
4.27 --undefined-- 42.415
4.28 --undefined-- 42.600
4.29 --undefined-- 45.346
4.30 --undefined-- 47.703
4.31 --undefined-- 47.714
4.32 --undefined-- 46.382
4.33 --undefined-- 46.135
4.34 --undefined-- 46.824
4.35 --undefined-- 46.976
4.36 --undefined-- 46.899
4.37 --undefined-- 47.071
4.38 --undefined-- 47.160
4.39 --undefined-- 47.343
4.40 --undefined-- 47.418
4.41 --undefined-- 47.958
4.42 --undefined-- 48.672
4.43 --undefined-- 49.161
4.44 --undefined-- 50.170
4.45 --undefined-- 49.968
4.46 --undefined-- 48.263
4.47 --undefined-- 47.212
4.48 --undefined-- 47.365
4.49 --undefined-- 47.739
4.50 --undefined-- 47.556
4.51 --undefined-- 46.969
4.52 --undefined-- 46.394
4.53 --undefined-- 48.267
4.54 --undefined-- 55.076
4.55 235.813 60.643
4.56 226.753 64.297
4.57 227.826 66.862
4.58 235.432 69.028
4.59 238.542 70.746
4.60 241.077 71.833
4.61 242.815 71.964
4.62 243.960 70.910
4.63 247.443 68.611
4.64 245.232 64.836
4.65 242.448 59.951
4.66 250.591 54.881
4.67 --undefined-- 50.786
4.68 --undefined-- 49.046
4.69 --undefined-- 49.055
4.70 --undefined-- 51.927
4.71 --undefined-- 57.333
4.72 --undefined-- 64.488
4.73 194.844 69.443
4.74 198.262 71.719
4.75 201.125 72.018
4.76 201.849 71.349
4.77 201.863 70.627
4.78 202.356 69.718
4.79 207.263 68.236
4.80 209.715 66.573
4.81 211.270 64.670
4.82 210.861 62.343
4.83 206.308 59.704
4.84 202.275 57.047
4.85 --undefined-- 54.454
4.86 --undefined-- 52.489
4.87 --undefined-- 50.450
4.88 --undefined-- 54.490
4.89 --undefined-- 63.156
4.90 --undefined-- 68.459
4.91 298.891 70.961
4.92 272.567 71.717
4.93 254.394 71.627
4.94 242.595 71.071
4.95 230.688 70.488
4.96 224.795 70.171
4.97 221.779 69.867
4.98 223.159 69.488
4.99 228.107 69.085
5.00 232.282 68.446
5.01 233.448 67.047
5.02 232.079 64.168
5.03 223.617 59.166
5.04 --undefined-- 52.245
5.05 --undefined-- 46.344
5.06 --undefined-- 48.730
5.07 --undefined-- 56.584
5.08 --undefined-- 61.732
5.09 --undefined-- 63.157
5.10 --undefined-- 61.423
5.11 --undefined-- 58.665
5.12 259.915 58.497
5.13 261.669 59.617
5.14 267.924 60.573
5.15 280.613 62.001
5.16 298.824 64.028
5.17 159.348 65.967
5.18 164.095 67.131
5.19 165.849 --undefined--
5.20 166.639 --undefined--
5.21 --undefined-- --undefined--
5.22 --undefined-- --undefined--
