Time Pitch Intensity
0.01 --undefined-- --undefined--
0.02 182.835 --undefined--
0.03 180.640 --undefined--
0.04 178.358 --undefined--
0.05 176.798 67.200
0.06 176.328 66.802
0.07 161.415 67.164
0.08 160.077 67.886
0.09 156.835 68.939
0.10 154.824 70.349
0.11 155.113 71.239
0.12 156.109 71.221
0.13 158.702 70.923
0.14 166.069 71.525
0.15 167.575 72.642
0.16 167.747 73.127
0.17 167.990 72.670
0.18 167.451 71.089
0.19 166.555 68.378
0.20 166.588 65.837
0.21 178.162 65.704
0.22 184.963 66.744
0.23 188.622 67.634
0.24 193.129 67.799
0.25 202.727 67.278
0.26 211.227 67.077
0.27 216.126 67.507
0.28 215.771 67.141
0.29 210.307 65.159
0.30 205.287 61.614
0.31 198.260 58.893
0.32 237.295 61.813
0.33 236.603 64.098
0.34 236.332 63.419
0.35 274.783 60.367
0.36 --undefined-- 58.163
0.37 --undefined-- 60.168
0.38 219.487 63.837
0.39 221.992 66.704
0.40 230.331 68.168
0.41 221.145 68.937
0.42 215.638 69.590
0.43 210.548 69.822
0.44 206.927 69.446
0.45 205.262 68.303
0.46 200.196 65.934
0.47 182.420 62.678
0.48 192.875 60.621
0.49 --undefined-- 59.142
0.50 --undefined-- 57.341
0.51 --undefined-- 57.573
0.52 --undefined-- 61.123
0.53 --undefined-- 62.535
0.54 --undefined-- 60.714
0.55 --undefined-- 58.197
0.56 --undefined-- 58.244
0.57 --undefined-- 57.172
0.58 --undefined-- 56.507
0.59 --undefined-- 59.160
0.60 --undefined-- 63.730
0.61 281.447 69.022
0.62 271.110 72.219
0.63 262.595 73.632
0.64 258.087 74.260
0.65 257.119 74.607
0.66 257.308 74.337
0.67 258.594 72.562
0.68 262.726 69.314
0.69 261.089 67.159
0.70 261.120 67.383
0.71 262.470 67.667
0.72 263.388 67.441
0.73 263.372 67.108
0.74 263.679 67.020
0.75 265.493 67.156
0.76 267.945 67.269
0.77 268.695 67.211
0.78 270.241 67.137
0.79 271.912 67.135
0.80 271.597 66.701
0.81 268.691 64.898
0.82 268.603 60.849
0.83 --undefined-- 54.783
0.84 --undefined-- 51.469
0.85 --undefined-- 52.098
0.86 --undefined-- 53.069
0.87 274.765 56.074
0.88 271.224 60.528
0.89 261.451 65.686
0.90 244.094 69.352
0.91 232.346 71.158
0.92 220.653 71.855
0.93 214.130 72.078
0.94 208.874 72.394
0.95 205.390 73.154
0.96 --undefined-- 74.051
0.97 --undefined-- 74.123
0.98 --undefined-- 72.831
0.99 --undefined-- 71.891
1.00 --undefined-- 72.428
1.01 --undefined-- 72.171
1.02 --undefined-- 71.239
1.03 --undefined-- 70.204
1.04 --undefined-- 68.657
1.05 --undefined-- 67.753
1.06 174.875 67.938
1.07 182.605 68.419
1.08 193.267 69.020
1.09 199.123 70.011
1.10 201.260 72.066
1.11 201.468 73.955
1.12 199.405 74.583
1.13 197.832 74.216
1.14 197.804 73.534
1.15 199.132 72.969
1.16 200.328 72.864
1.17 200.827 73.333
1.18 200.034 73.967
1.19 198.816 74.132
1.20 196.159 73.500
1.21 193.853 72.038
1.22 193.989 70.097
1.23 192.239 68.549
1.24 189.802 67.621
1.25 191.086 66.868
1.26 197.156 66.551
1.27 205.307 67.552
1.28 206.762 70.382
1.29 209.922 74.119
1.30 210.822 76.952
1.31 211.369 78.402
1.32 213.267 78.802
1.33 215.792 78.438
1.34 217.999 77.379
1.35 221.701 76.126
1.36 225.167 75.148
1.37 229.103 74.225
1.38 230.474 73.297
1.39 230.227 71.978
1.40 234.110 70.740
1.41 234.756 70.461
1.42 234.816 70.394
1.43 236.643 70.181
1.44 241.898 70.461
1.45 236.795 71.160
1.46 235.671 71.612
1.47 236.990 71.489
1.48 240.387 71.039
1.49 245.337 71.175
1.50 250.886 71.667
1.51 258.932 71.157
1.52 280.807 69.530
1.53 295.488 68.764
1.54 156.376 69.577
1.55 163.105 70.642
1.56 166.772 71.249
1.57 166.200 71.648
1.58 160.621 72.368
1.59 160.212 72.488
1.60 159.565 71.672
1.61 157.546 70.522
1.62 153.449 69.947
1.63 146.703 72.045
1.64 --undefined-- 75.082
1.65 --undefined-- 76.521
1.66 --undefined-- 76.361
1.67 --undefined-- 75.495
1.68 --undefined-- 74.901
1.69 --undefined-- 74.674
1.70 181.957 74.334
1.71 177.820 73.882
1.72 175.213 73.839
1.73 172.871 74.132
1.74 170.457 74.216
1.75 167.101 74.091
1.76 164.719 73.406
1.77 --undefined-- 71.950
1.78 --undefined-- 70.478
1.79 --undefined-- 68.010
1.80 --undefined-- 63.022
1.81 --undefined-- 58.064
1.82 --undefined-- 57.858
1.83 --undefined-- 57.594
1.84 --undefined-- 55.135
1.85 --undefined-- 54.485
1.86 --undefined-- 56.903
1.87 --undefined-- 57.805
1.88 --undefined-- 56.918
1.89 --undefined-- 55.107
1.90 --undefined-- 56.664
1.91 --undefined-- 58.975
1.92 --undefined-- 58.398
1.93 --undefined-- 55.359
1.94 --undefined-- 52.577
1.95 --undefined-- 55.836
1.96 --undefined-- 59.560
1.97 --undefined-- 60.619
1.98 --undefined-- 59.890
1.99 --undefined-- 60.270
2.00 --undefined-- 61.600
2.01 --undefined-- 61.250
2.02 --undefined-- 59.506
2.03 --undefined-- 59.523
2.04 --undefined-- 61.493
2.05 242.692 63.961
2.06 227.155 66.586
2.07 229.614 68.858
2.08 234.548 70.547
2.09 235.596 71.640
2.10 235.341 72.080
2.11 235.452 71.810
2.12 234.471 71.002
2.13 217.920 69.869
2.14 189.017 68.433
2.15 184.846 66.124
2.16 191.849 62.472
2.17 194.408 59.684
2.18 --undefined-- 60.144
2.19 --undefined-- 59.766
2.20 --undefined-- 57.279
2.21 --undefined-- 55.418
2.22 --undefined-- 56.349
2.23 --undefined-- 57.277
2.24 --undefined-- 56.446
2.25 --undefined-- 55.584
2.26 --undefined-- 57.108
2.27 --undefined-- 59.312
2.28 --undefined-- 61.845
2.29 --undefined-- 63.448
2.30 --undefined-- 62.709
2.31 --undefined-- 61.147
2.32 --undefined-- 60.243
2.33 --undefined-- 57.746
2.34 --undefined-- 54.494
2.35 --undefined-- 55.525
2.36 --undefined-- 61.594
2.37 --undefined-- 69.739
2.38 166.534 74.420
2.39 165.692 75.861
2.40 166.817 75.543
2.41 168.689 75.166
2.42 168.673 74.589
2.43 166.283 72.933
2.44 --undefined-- 69.889
2.45 --undefined-- 65.395
2.46 --undefined-- 60.247
2.47 --undefined-- 57.199
2.48 --undefined-- 59.361
2.49 --undefined-- 62.157
2.50 --undefined-- 62.332
2.51 --undefined-- 61.805
2.52 --undefined-- 62.906
2.53 --undefined-- 62.664
2.54 --undefined-- 60.142
2.55 --undefined-- 57.339
2.56 271.124 57.429
2.57 284.083 60.336
2.58 241.636 62.662
2.59 250.280 62.292
2.60 252.643 59.515
2.61 253.290 57.565
2.62 234.384 58.471
2.63 224.047 61.119
2.64 208.441 64.149
2.65 195.884 66.799
2.66 184.284 68.882
2.67 181.004 70.286
2.68 180.129 71.020
2.69 182.509 71.595
2.70 186.870 72.707
2.71 191.695 74.563
2.72 195.988 75.977
2.73 200.934 75.770
2.74 211.437 74.156
2.75 217.580 71.962
2.76 239.177 70.271
2.77 244.233 69.749
2.78 246.636 69.668
2.79 246.063 70.444
2.80 246.721 72.978
2.81 239.614 75.239
2.82 228.535 75.933
2.83 --undefined-- 75.606
2.84 --undefined-- 74.874
2.85 --undefined-- 73.311
2.86 --undefined-- 70.724
2.87 --undefined-- 67.372
2.88 --undefined-- 63.547
2.89 --undefined-- 59.587
2.90 --undefined-- 56.727
2.91 --undefined-- 57.829
2.92 --undefined-- 58.902
2.93 --undefined-- 58.971
2.94 --undefined-- 60.277
2.95 --undefined-- 60.526
2.96 --undefined-- 58.368
2.97 --undefined-- 56.462
2.98 --undefined-- 56.830
2.99 --undefined-- 56.195
3.00 --undefined-- 54.773
3.01 --undefined-- 53.632
3.02 --undefined-- 55.574
3.03 --undefined-- 57.694
3.04 --undefined-- 57.686
3.05 --undefined-- 58.394
3.06 --undefined-- 61.341
3.07 --undefined-- 63.103
3.08 --undefined-- 62.881
3.09 --undefined-- 60.814
3.10 --undefined-- 58.211
3.11 --undefined-- 57.796
3.12 --undefined-- 59.874
3.13 262.419 63.133
3.14 254.048 66.714
3.15 235.676 69.096
3.16 229.429 69.441
3.17 226.594 67.958
3.18 224.157 65.306
3.19 202.701 62.251
3.20 201.429 59.358
3.21 --undefined-- 56.503
3.22 --undefined-- 55.511
3.23 --undefined-- 55.097
3.24 --undefined-- 53.527
3.25 --undefined-- 52.840
3.26 --undefined-- 52.212
3.27 --undefined-- 53.365
3.28 --undefined-- 55.373
3.29 --undefined-- 55.937
3.30 --undefined-- 55.315
3.31 --undefined-- 54.677
3.32 --undefined-- 56.005
3.33 --undefined-- 57.324
3.34 --undefined-- 57.367
3.35 --undefined-- 55.866
3.36 --undefined-- 52.882
3.37 --undefined-- 54.637
3.38 --undefined-- 59.287
3.39 --undefined-- 61.717
3.40 289.637 61.506
3.41 285.974 59.174
3.42 286.940 58.877
3.43 --undefined-- 61.747
3.44 187.012 65.618
3.45 186.544 68.825
3.46 186.669 70.449
3.47 184.481 70.705
3.48 181.204 69.852
3.49 178.777 68.002
3.50 175.472 65.452
3.51 170.490 62.848
3.52 167.279 61.257
3.53 174.524 61.837
3.54 182.534 63.454
3.55 181.626 64.553
3.56 179.295 65.059
3.57 177.386 65.099
3.58 175.173 64.647
3.59 175.210 64.046
3.60 175.367 63.870
3.61 174.666 63.820
3.62 173.875 63.394
3.63 173.844 62.877
3.64 176.093 63.079
3.65 179.762 64.373
3.66 180.837 65.868
3.67 179.929 66.913
3.68 179.941 67.764
3.69 179.833 68.557
3.70 178.729 69.012
3.71 178.143 69.238
3.72 178.499 69.441
3.73 177.994 69.751
3.74 177.066 70.165
3.75 175.000 70.278
3.76 173.175 69.797
3.77 172.640 68.973
3.78 172.735 68.352
3.79 173.233 68.109
3.80 173.371 67.878
3.81 173.710 67.220
3.82 175.779 66.195
3.83 178.044 65.357
3.84 177.704 65.366
3.85 177.455 66.781
3.86 179.357 69.323
3.87 181.735 71.339
3.88 181.299 72.133
3.89 178.838 72.669
3.90 176.027 73.623
3.91 174.978 74.369
3.92 174.039 74.399
3.93 173.785 73.814
3.94 172.743 72.980
3.95 170.548 72.359
3.96 168.073 71.759
3.97 166.945 70.115
3.98 167.806 66.891
3.99 169.904 64.315
4.00 164.037 64.142
4.01 164.451 64.395
4.02 164.117 64.371
4.03 164.907 64.289
4.04 165.739 64.141
4.05 166.941 63.975
4.06 167.747 65.292
4.07 169.480 66.842
4.08 170.129 66.758
4.09 171.532 66.012
4.10 178.415 67.652
4.11 178.421 70.322
4.12 180.552 72.060
4.13 183.439 73.370
4.14 185.155 74.830
4.15 185.001 76.014
4.16 184.785 76.721
4.17 185.036 76.983
4.18 183.678 76.805
4.19 181.169 75.904
4.20 175.378 73.861
4.21 170.422 71.041
4.22 167.391 68.561
4.23 --undefined-- 66.713
4.24 --undefined-- 65.479
4.25 --undefined-- 63.889
4.26 --undefined-- 62.204
4.27 --undefined-- 62.608
4.28 --undefined-- 62.274
4.29 --undefined-- 59.166
4.30 --undefined-- 53.555
4.31 --undefined-- 51.009
4.32 --undefined-- 57.193
4.33 --undefined-- 61.324
4.34 --undefined-- 62.571
4.35 --undefined-- 62.348
4.36 --undefined-- 62.598
4.37 --undefined-- 61.720
4.38 --undefined-- 58.122
4.39 --undefined-- 54.097
4.40 279.229 56.053
4.41 274.716 60.037
4.42 230.124 62.180
4.43 --undefined-- 62.249
4.44 254.531 62.270
4.45 252.085 61.997
4.46 273.317 59.790
4.47 275.982 57.020
4.48 --undefined-- 57.053
4.49 --undefined-- 58.787
4.50 --undefined-- 59.967
4.51 280.358 60.507
4.52 289.866 62.724
4.53 285.477 65.083
4.54 283.203 64.863
4.55 267.633 62.071
4.56 267.880 59.580
4.57 --undefined-- 59.124
4.58 --undefined-- 60.019
4.59 --undefined-- 61.182
4.60 --undefined-- 61.948
4.61 --undefined-- 64.826
4.62 248.029 67.073
4.63 252.185 68.570
4.64 259.785 71.205
4.65 263.376 73.372
4.66 268.273 74.338
4.67 275.108 74.956
4.68 280.331 75.460
4.69 284.355 75.475
4.70 284.418 75.170
4.71 286.400 74.655
4.72 288.183 74.125
4.73 283.527 73.884
4.74 276.044 73.739
4.75 271.597 73.841
4.76 268.240 74.495
4.77 264.847 74.952
4.78 266.802 75.210
4.79 270.814 75.138
4.80 278.914 73.976
4.81 161.080 72.616
4.82 173.490 73.193
4.83 184.401 74.613
4.84 193.166 75.482
4.85 199.787 74.830
4.86 206.468 72.638
4.87 205.557 70.946
4.88 195.169 70.980
4.89 194.587 71.474
4.90 197.161 71.603
4.91 196.102 72.047
4.92 189.052 72.959
4.93 --undefined-- 73.331
4.94 --undefined-- 73.386
4.95 --undefined-- 73.749
4.96 --undefined-- --undefined--
4.97 --undefined-- --undefined--
4.98 --undefined-- --undefined--
4.99 --undefined-- --undefined--
