Time Pitch Intensity
0.01 --undefined-- --undefined--
0.02 98.894 --undefined--
0.03 98.603 --undefined--
0.04 106.043 --undefined--
0.05 160.375 74.459
0.06 163.694 76.651
0.07 170.564 76.580
0.08 207.680 76.893
0.09 191.577 77.900
0.10 203.007 77.890
0.11 201.773 76.864
0.12 --undefined-- 76.302
0.13 --undefined-- 75.099
0.14 --undefined-- 70.684
0.15 --undefined-- 62.422
0.16 --undefined-- 54.909
0.17 --undefined-- 53.614
0.18 --undefined-- 55.420
0.19 --undefined-- 60.594
0.20 --undefined-- 63.118
0.21 --undefined-- 62.219
0.22 --undefined-- 59.947
0.23 --undefined-- 58.490
0.24 --undefined-- 57.024
0.25 --undefined-- 56.114
0.26 --undefined-- 56.633
0.27 --undefined-- 57.258
0.28 --undefined-- 56.784
0.29 --undefined-- 56.127
0.30 --undefined-- 56.523
0.31 --undefined-- 57.394
0.32 --undefined-- 57.604
0.33 --undefined-- 57.504
0.34 --undefined-- 57.966
0.35 --undefined-- 57.730
0.36 --undefined-- 56.855
0.37 --undefined-- 56.624
0.38 --undefined-- 56.462
0.39 --undefined-- 55.493
0.40 --undefined-- 54.977
0.41 --undefined-- 55.301
0.42 --undefined-- 54.726
0.43 --undefined-- 53.306
0.44 --undefined-- 51.980
0.45 --undefined-- 51.975
0.46 --undefined-- 52.545
0.47 --undefined-- 52.408
0.48 --undefined-- 51.219
0.49 --undefined-- 49.062
0.50 --undefined-- 50.300
0.51 --undefined-- 54.083
0.52 --undefined-- 56.276
0.53 --undefined-- 63.588
0.54 --undefined-- 70.741
0.55 82.989 74.531
0.56 81.679 76.052
0.57 83.444 76.547
0.58 178.596 76.732
0.59 188.672 76.940
0.60 200.009 77.361
0.61 207.388 77.730
0.62 212.943 77.955
0.63 218.560 78.069
0.64 222.949 78.062
0.65 224.728 78.019
0.66 224.361 77.984
0.67 221.642 77.937
0.68 218.469 77.872
0.69 215.991 77.899
0.70 213.957 77.917
0.71 211.242 77.686
0.72 206.797 77.084
0.73 197.808 76.146
0.74 190.142 75.201
0.75 187.219 75.220
0.76 183.433 76.779
0.77 180.930 78.183
0.78 175.468 78.391
0.79 162.106 77.600
0.80 152.923 75.698
0.81 --undefined-- 71.675
0.82 --undefined-- 64.917
0.83 167.928 57.984
0.84 167.274 54.642
0.85 167.255 52.852
0.86 --undefined-- 52.278
0.87 --undefined-- 51.516
0.88 --undefined-- 49.725
0.89 --undefined-- 49.364
0.90 --undefined-- 56.735
0.91 --undefined-- 67.143
0.92 --undefined-- 73.986
0.93 209.662 77.168
0.94 201.443 77.906
0.95 198.094 77.800
0.96 198.021 77.963
0.97 198.294 78.147
0.98 197.834 78.004
0.99 197.543 77.713
1.00 196.165 77.417
1.01 193.175 76.976
1.02 189.143 76.291
1.03 184.670 75.391
1.04 179.332 74.573
1.05 173.667 74.648
1.06 169.321 75.542
1.07 163.374 76.545
1.08 156.902 77.539
1.09 151.396 78.142
1.10 142.310 78.087
1.11 134.248 77.543
1.12 128.348 76.702
1.13 123.006 75.970
1.14 119.910 75.973
1.15 118.341 76.379
1.16 116.997 76.680
1.17 118.094 76.789
1.18 120.256 76.739
1.19 122.255 76.611
1.20 124.070 76.622
1.21 125.154 76.726
1.22 126.017 76.728
1.23 127.055 76.722
1.24 129.177 76.634
1.25 132.238 76.230
1.26 139.711 76.128
1.27 145.472 76.446
1.28 157.438 77.045
1.29 162.603 77.910
1.30 165.335 78.510
1.31 167.093 78.626
1.32 168.043 78.329
1.33 167.647 77.771
1.34 166.188 76.991
1.35 164.967 75.961
1.36 160.427 75.060
1.37 154.582 75.217
1.38 148.672 76.033
1.39 146.538 76.490
1.40 147.090 76.446
1.41 145.151 76.260
1.42 142.065 76.358
1.43 138.654 76.607
1.44 133.654 76.668
1.45 129.327 76.757
1.46 125.247 76.951
1.47 121.459 76.718
1.48 119.905 75.947
1.49 119.562 75.271
1.50 116.626 74.904
1.51 115.407 74.647
1.52 114.668 74.912
1.53 117.530 76.092
1.54 124.203 77.342
1.55 127.029 77.881
1.56 124.927 78.096
1.57 120.390 78.210
1.58 113.436 78.088
1.59 110.118 77.935
1.60 109.829 77.722
1.61 111.978 77.536
1.62 116.619 77.683
1.63 122.727 78.142
1.64 124.422 78.233
1.65 124.556 77.272
1.66 123.048 74.891
1.67 122.406 70.910
1.68 124.602 66.272
1.69 --undefined-- 63.223
1.70 --undefined-- 62.159
1.71 --undefined-- 61.744
1.72 --undefined-- 61.505
1.73 --undefined-- 63.794
1.74 --undefined-- 70.196
1.75 --undefined-- 74.982
1.76 133.919 76.969
1.77 127.378 77.235
1.78 127.352 77.146
1.79 129.366 77.172
1.80 133.178 77.137
1.81 138.763 77.047
1.82 147.659 77.059
1.83 154.665 76.826
1.84 160.983 76.144
1.85 167.679 75.732
1.86 170.212 75.771
1.87 167.089 75.899
1.88 162.143 76.103
1.89 150.460 76.067
1.90 137.072 75.613
1.91 132.124 74.717
1.92 125.474 73.407
1.93 105.305 72.584
1.94 98.134 72.747
1.95 98.954 73.229
1.96 99.422 73.563
1.97 98.986 73.828
1.98 100.463 74.041
1.99 100.392 74.091
2.00 100.799 74.278
2.01 101.283 74.742
2.02 101.127 75.071
2.03 103.299 75.241
2.04 110.021 75.838
2.05 114.641 76.850
2.06 120.384 77.658
2.07 127.458 78.061
2.08 134.947 78.109
2.09 138.187 77.825
2.10 142.066 77.297
2.11 144.350 76.651
2.12 145.178 76.142
2.13 144.430 76.214
2.14 144.132 76.579
2.15 144.470 76.663
2.16 144.028 76.547
2.17 140.983 76.622
2.18 138.466 76.895
2.19 135.385 77.187
2.20 134.648 77.348
2.21 133.815 77.106
2.22 129.771 76.544
2.23 123.396 75.990
2.24 117.895 75.662
2.25 114.968 75.605
2.26 110.817 75.631
2.27 107.433 75.021
2.28 104.796 72.953
2.29 109.458 69.142
2.30 110.686 63.808
2.31 117.533 59.047
2.32 118.128 57.165
2.33 120.337 56.071
2.34 --undefined-- 57.775
2.35 --undefined-- 61.131
2.36 --undefined-- 63.595
2.37 --undefined-- 66.474
2.38 --undefined-- 71.408
2.39 --undefined-- 75.533
2.40 161.326 77.053
2.41 155.859 76.688
2.42 147.428 75.909
2.43 145.119 75.466
2.44 143.302 75.027
2.45 138.559 74.632
2.46 137.880 75.035
2.47 137.561 75.754
2.48 137.020 76.164
2.49 136.858 76.332
2.50 137.316 76.398
2.51 138.474 76.459
2.52 140.380 76.483
2.53 142.369 76.413
2.54 144.881 76.395
2.55 147.685 76.522
2.56 149.951 76.678
2.57 151.673 76.790
2.58 154.835 77.089
2.59 161.560 77.549
2.60 166.077 77.545
2.61 170.451 76.914
2.62 172.908 76.117
2.63 173.269 75.775
2.64 172.601 75.589
2.65 169.133 74.367
2.66 162.179 71.163
2.67 159.161 65.773
2.68 168.682 60.049
2.69 169.353 57.360
2.70 170.334 56.032
2.71 170.685 54.456
2.72 170.398 52.807
2.73 168.448 51.746
2.74 --undefined-- 50.104
2.75 --undefined-- 54.521
2.76 --undefined-- 65.888
2.77 --undefined-- 73.020
2.78 --undefined-- 76.487
2.79 134.138 77.473
2.80 126.552 77.450
2.81 122.094 77.567
2.82 118.567 77.513
2.83 115.477 76.832
2.84 113.907 76.408
2.85 114.331 76.687
2.86 113.609 76.992
2.87 113.799 77.101
2.88 114.892 77.024
2.89 116.924 76.799
2.90 117.745 76.475
2.91 120.534 76.351
2.92 123.816 76.619
2.93 127.707 77.000
2.94 133.825 77.446
2.95 135.748 77.962
2.96 137.800 78.066
2.97 140.584 77.767
2.98 142.989 77.314
2.99 144.463 76.782
3.00 145.694 76.353
3.01 146.425 75.872
3.02 145.031 74.148
3.03 143.202 69.945
3.04 143.520 62.881
3.05 144.205 55.609
3.06 143.893 53.358
3.07 141.670 54.415
3.08 --undefined-- 58.024
3.09 --undefined-- 61.788
3.10 --undefined-- 64.509
3.11 --undefined-- 66.062
3.12 --undefined-- 65.690
3.13 --undefined-- 63.536
3.14 --undefined-- 62.177
3.15 --undefined-- 66.822
3.16 156.727 72.792
3.17 140.580 76.069
3.18 119.408 76.983
3.19 111.764 76.600
3.20 104.995 76.028
3.21 102.402 75.767
3.22 103.258 75.745
3.23 105.506 75.975
3.24 109.610 76.315
3.25 116.495 76.449
3.26 121.501 76.311
3.27 123.504 75.947
3.28 125.683 75.058
3.29 127.067 73.198
3.30 131.199 70.653
3.31 136.253 68.138
3.32 135.786 65.937
3.33 --undefined-- 64.167
3.34 --undefined-- 62.340
3.35 --undefined-- 60.808
3.36 --undefined-- 61.251
3.37 --undefined-- 67.168
3.38 --undefined-- 73.597
3.39 150.208 76.899
3.40 153.156 77.836
3.41 152.321 77.753
3.42 151.403 77.603
3.43 150.351 77.477
3.44 148.439 76.862
3.45 144.890 74.915
3.46 138.398 71.116
3.47 146.177 66.564
3.48 150.419 63.603
3.49 151.456 61.163
3.50 152.359 60.999
3.51 --undefined-- 65.643
3.52 --undefined-- 69.904
3.53 --undefined-- 73.384
3.54 125.314 76.148
3.55 125.526 77.582
3.56 123.258 78.147
3.57 119.300 77.919
3.58 115.064 77.389
3.59 114.630 77.328
3.60 114.818 77.479
3.61 116.650 77.496
3.62 119.657 77.469
3.63 124.372 77.552
3.64 127.692 77.133
3.65 128.193 75.290
3.66 124.396 71.678
3.67 125.790 67.426
3.68 128.860 64.679
3.69 129.097 62.419
3.70 --undefined-- 65.718
3.71 --undefined-- 70.888
3.72 --undefined-- 73.831
3.73 155.026 75.830
3.74 153.292 76.856
3.75 148.464 76.886
3.76 147.150 76.607
3.77 147.538 76.463
3.78 149.093 76.424
3.79 148.579 75.848
3.80 146.252 74.239
3.81 146.648 73.329
3.82 152.956 74.720
3.83 152.164 75.656
3.84 150.498 75.263
3.85 148.747 73.536
3.86 154.125 70.165
3.87 167.292 64.991
3.88 --undefined-- 58.453
3.89 --undefined-- 55.821
3.90 --undefined-- 64.153
3.91 --undefined-- 70.324
3.92 --undefined-- 73.878
3.93 --undefined-- 76.031
3.94 155.146 77.058
3.95 150.728 76.972
3.96 146.630 76.395
3.97 144.242 75.610
3.98 143.415 74.703
3.99 145.302 74.661
4.00 148.131 75.632
4.01 152.240 76.394
4.02 154.262 76.450
4.03 154.921 76.237
4.04 154.977 76.239
4.05 154.909 76.310
4.06 154.201 76.246
4.07 153.610 76.163
4.08 153.416 76.185
4.09 153.544 76.361
4.10 153.761 76.574
4.11 153.778 76.605
4.12 153.175 76.468
4.13 152.247 76.319
4.14 151.410 76.173
4.15 149.393 75.643
4.16 146.956 74.176
4.17 146.675 71.599
4.18 153.447 67.537
4.19 --undefined-- 62.048
4.20 --undefined-- 58.002
4.21 --undefined-- 57.137
4.22 --undefined-- 56.366
4.23 --undefined-- 55.612
4.24 --undefined-- 55.763
4.25 --undefined-- 56.846
4.26 --undefined-- 57.875
4.27 --undefined-- 57.941
4.28 --undefined-- 58.946
4.29 --undefined-- 66.934
4.30 --undefined-- 73.530
4.31 150.848 76.777
4.32 141.922 77.554
4.33 136.308 77.494
4.34 134.195 77.541
4.35 132.591 77.479
4.36 130.211 76.767
4.37 123.843 75.164
4.38 122.329 73.529
4.39 124.952 73.553
4.40 126.003 75.096
4.41 126.248 76.613
4.42 123.582 77.308
4.43 119.963 77.371
4.44 119.596 77.133
4.45 119.256 76.630
4.46 118.552 75.865
4.47 117.435 74.709
4.48 115.295 72.859
4.49 112.259 70.199
4.50 112.224 66.791
4.51 118.514 62.503
4.52 117.961 62.143
4.53 155.795 69.881
4.54 137.808 75.150
4.55 134.751 77.359
4.56 121.581 77.659
4.57 118.998 77.141
4.58 116.530 75.995
4.59 111.165 74.473
4.60 111.878 72.755
4.61 113.276 69.982
4.62 113.379 66.066
4.63 --undefined-- 62.936
4.64 --undefined-- 61.749
4.65 --undefined-- 62.410
4.66 --undefined-- 62.819
4.67 --undefined-- 62.327
4.68 --undefined-- 62.398
4.69 --undefined-- 67.049
4.70 --undefined-- 73.373
4.71 147.364 76.487
4.72 145.175 76.771
4.73 136.155 76.112
4.74 134.532 75.991
4.75 132.458 76.014
4.76 130.946 75.795
4.77 129.876 75.071
4.78 127.558 73.752
4.79 125.962 72.824
4.80 132.057 73.920
4.81 133.703 75.476
4.82 131.684 76.198
4.83 128.583 76.332
4.84 125.321 76.218
4.85 122.676 76.051
4.86 120.297 76.006
4.87 117.477 75.840
4.88 113.346 74.873
4.89 103.783 72.665
4.90 99.109 69.631
4.91 117.537 66.059
4.92 118.099 61.512
4.93 118.247 --undefined--
4.94 --undefined-- --undefined--
4.95 --undefined-- --undefined--
4.96 --undefined-- --undefined--
