Time Pitch Intensity
0.01 --undefined-- --undefined--
0.02 192.301 --undefined--
0.03 192.100 --undefined--
0.04 193.575 --undefined--
0.05 193.229 54.538
0.06 192.383 50.472
0.07 --undefined-- 50.546
0.08 --undefined-- 56.287
0.09 --undefined-- 62.428
0.10 180.305 66.344
0.11 172.539 67.880
0.12 165.539 67.758
0.13 164.042 66.514
0.14 163.097 64.785
0.15 164.816 63.721
0.16 167.086 63.498
0.17 171.133 63.452
0.18 175.977 63.893
0.19 187.195 64.904
0.20 193.878 65.512
0.21 202.352 65.160
0.22 212.344 64.501
0.23 218.408 64.169
0.24 219.613 62.977
0.25 212.144 59.955
0.26 209.176 55.787
0.27 --undefined-- 51.678
0.28 --undefined-- 48.449
0.29 --undefined-- 47.303
0.30 --undefined-- 47.596
0.31 --undefined-- 48.680
0.32 --undefined-- 53.303
0.33 --undefined-- 59.329
0.34 195.104 62.913
0.35 178.829 64.912
0.36 170.235 66.205
0.37 161.474 66.899
0.38 154.896 67.386
0.39 154.471 68.151
0.40 157.297 68.698
0.41 161.416 68.773
0.42 165.786 68.912
0.43 171.422 69.096
0.44 177.800 68.758
0.45 186.815 67.968
0.46 194.698 67.015
0.47 200.103 65.712
0.48 199.834 63.509
0.49 193.996 60.007
0.50 193.825 55.460
0.51 193.585 50.651
0.52 --undefined-- 47.974
0.53 --undefined-- 48.793
0.54 --undefined-- 50.898
0.55 --undefined-- 51.770
0.56 --undefined-- 51.282
0.57 --undefined-- 52.930
0.58 --undefined-- 56.420
0.59 --undefined-- 60.580
0.60 191.703 64.055
0.61 184.122 66.299
0.62 178.705 67.310
0.63 176.852 67.483
0.64 177.137 67.528
0.65 178.521 67.929
0.66 182.319 69.016
0.67 185.867 70.589
0.68 192.485 71.557
0.69 199.039 71.291
0.70 203.545 69.837
0.71 208.422 68.138
0.72 211.547 67.606
0.73 214.870 68.283
0.74 216.163 69.210
0.75 215.503 70.094
0.76 212.662 71.048
0.77 207.250 71.676
0.78 198.698 71.633
0.79 195.538 71.177
0.80 185.024 70.456
0.81 176.580 69.226
0.82 170.015 67.708
0.83 164.561 66.378
0.84 170.270 64.644
0.85 173.370 61.382
0.86 176.781 57.268
0.87 --undefined-- 55.344
0.88 --undefined-- 53.931
0.89 --undefined-- 51.930
0.90 --undefined-- 51.674
0.91 --undefined-- 54.577
0.92 --undefined-- 56.591
0.93 --undefined-- 56.789
0.94 --undefined-- 55.388
0.95 --undefined-- 52.457
0.96 --undefined-- 50.828
0.97 --undefined-- 50.965
0.98 --undefined-- 50.773
0.99 --undefined-- 50.623
1.00 --undefined-- 49.837
1.01 --undefined-- 49.322
1.02 --undefined-- 52.808
1.03 --undefined-- 55.401
1.04 --undefined-- 54.909
1.05 --undefined-- 52.187
1.06 --undefined-- 50.302
1.07 --undefined-- 52.305
1.08 --undefined-- 54.956
1.09 --undefined-- 55.428
1.10 --undefined-- 53.817
1.11 --undefined-- 51.881
1.12 --undefined-- 50.666
1.13 --undefined-- 49.070
1.14 --undefined-- 46.805
1.15 --undefined-- 46.951
1.16 --undefined-- 49.961
1.17 --undefined-- 53.009
1.18 --undefined-- 53.940
1.19 --undefined-- 51.910
1.20 --undefined-- 49.318
1.21 --undefined-- 49.416
1.22 --undefined-- 48.355
1.23 --undefined-- 47.627
1.24 --undefined-- 49.328
1.25 --undefined-- 51.101
1.26 --undefined-- 51.383
1.27 --undefined-- 50.231
1.28 --undefined-- 49.471
1.29 --undefined-- 53.593
1.30 --undefined-- 61.695
1.31 261.972 67.922
1.32 259.329 71.788
1.33 256.276 73.696
1.34 255.489 74.490
1.35 258.105 75.023
1.36 261.800 75.237
1.37 266.452 74.522
1.38 274.791 72.867
1.39 275.608 71.063
1.40 274.431 69.656
1.41 264.906 68.816
1.42 263.046 68.670
1.43 259.265 68.482
1.44 253.923 68.083
1.45 247.134 67.930
1.46 239.010 67.796
1.47 229.594 67.532
1.48 201.614 67.653
1.49 189.422 68.059
1.50 179.398 68.021
1.51 171.871 67.105
1.52 166.007 65.580
1.53 165.893 64.102
1.54 166.222 63.188
1.55 167.117 63.328
1.56 169.616 63.856
1.57 169.444 64.117
1.58 172.151 64.050
1.59 174.392 63.732
1.60 176.510 63.795
1.61 181.010 64.858
1.62 183.161 66.485
1.63 184.471 67.543
1.64 184.093 67.837
1.65 180.227 68.065
1.66 178.608 68.545
1.67 178.399 68.703
1.68 179.351 68.273
1.69 180.949 67.682
1.70 182.207 67.077
1.71 183.318 65.965
1.72 182.575 63.629
1.73 183.136 59.744
1.74 181.922 56.451
1.75 --undefined-- 56.304
1.76 --undefined-- 55.721
1.77 --undefined-- 52.817
1.78 --undefined-- 51.082
1.79 --undefined-- 53.553
1.80 --undefined-- 54.827
1.81 --undefined-- 55.898
1.82 176.254 57.761
1.83 176.623 58.917
1.84 180.855 60.061
1.85 176.712 61.585
1.86 176.361 63.485
1.87 172.250 65.571
1.88 167.535 67.007
1.89 165.679 67.502
1.90 164.068 67.104
1.91 163.945 66.386
1.92 164.363 66.300
1.93 164.580 66.756
1.94 163.773 66.966
1.95 163.966 66.513
1.96 166.082 65.457
1.97 170.919 64.339
1.98 176.367 63.785
1.99 181.459 64.027
2.00 184.820 64.471
2.01 185.016 63.913
2.02 180.600 61.542
2.03 182.860 57.472
2.04 184.177 53.555
2.05 --undefined-- 53.352
2.06 --undefined-- 54.389
2.07 --undefined-- 53.691
2.08 --undefined-- 53.003
2.09 260.047 58.245
2.10 244.293 63.508
2.11 229.652 66.365
2.12 222.575 67.790
2.13 217.810 68.857
2.14 215.308 69.752
2.15 213.476 70.276
2.16 212.321 70.489
2.17 211.809 70.490
2.18 212.165 70.675
2.19 211.355 71.113
2.20 211.236 71.347
2.21 212.346 71.552
2.22 214.570 72.012
2.23 217.860 72.276
2.24 220.080 71.945
2.25 218.156 71.848
2.26 216.125 73.105
2.27 211.940 74.699
2.28 207.450 75.794
2.29 202.911 76.198
2.30 198.992 75.926
2.31 195.086 75.193
2.32 190.520 74.074
2.33 186.288 72.097
2.34 184.804 69.231
2.35 186.165 65.951
2.36 188.753 62.249
2.37 189.057 58.405
2.38 189.765 55.670
2.39 196.987 54.835
2.40 --undefined-- 54.503
2.41 --undefined-- 54.669
2.42 --undefined-- 55.067
2.43 --undefined-- 53.237
2.44 --undefined-- 49.837
2.45 --undefined-- 52.405
2.46 --undefined-- 55.066
2.47 --undefined-- 54.527
2.48 --undefined-- 52.274
2.49 --undefined-- 50.909
2.50 --undefined-- 48.565
2.51 --undefined-- 44.584
2.52 --undefined-- 45.763
2.53 --undefined-- 51.371
2.54 --undefined-- 53.464
2.55 --undefined-- 51.653
2.56 --undefined-- 47.096
2.57 --undefined-- 44.629
2.58 --undefined-- 46.987
2.59 --undefined-- 50.198
2.60 --undefined-- 51.695
2.61 --undefined-- 52.593
2.62 --undefined-- 54.014
2.63 --undefined-- 54.975
2.64 --undefined-- 54.607
2.65 --undefined-- 53.556
2.66 --undefined-- 54.454
2.67 --undefined-- 56.877
2.68 --undefined-- 61.625
2.69 164.406 66.781
2.70 169.868 69.952
2.71 173.492 71.364
2.72 178.625 71.793
2.73 180.504 72.066
2.74 180.357 72.626
2.75 179.874 73.045
2.76 180.457 73.093
2.77 181.995 73.062
2.78 183.651 73.133
2.79 184.186 73.236
2.80 184.015 73.075
2.81 182.946 72.386
2.82 179.978 70.907
2.83 174.370 68.302
2.84 162.353 64.889
2.85 161.196 61.346
2.86 --undefined-- 56.831
2.87 177.471 53.191
2.88 176.044 52.205
2.89 --undefined-- 51.766
2.90 --undefined-- 51.763
2.91 --undefined-- 50.085
2.92 --undefined-- 47.090
2.93 --undefined-- 45.791
2.94 --undefined-- 45.751
2.95 --undefined-- 46.925
2.96 --undefined-- 52.498
2.97 257.071 57.557
2.98 242.193 60.785
2.99 241.353 63.104
3.00 245.826 64.812
3.01 248.166 65.874
3.02 249.274 66.422
3.03 251.666 66.652
3.04 257.165 66.814
3.05 263.609 67.043
3.06 271.434 67.622
3.07 278.770 68.587
3.08 281.871 69.157
3.09 289.622 68.908
3.10 150.497 68.248
3.11 154.607 67.408
3.12 158.404 65.747
3.13 154.708 62.479
3.14 --undefined-- 57.323
3.15 --undefined-- 51.857
3.16 --undefined-- 49.946
3.17 --undefined-- 49.624
3.18 --undefined-- 50.899
3.19 --undefined-- 53.018
3.20 --undefined-- 53.059
3.21 --undefined-- 50.241
3.22 --undefined-- 46.982
3.23 --undefined-- 47.576
3.24 --undefined-- 48.900
3.25 --undefined-- 50.518
3.26 --undefined-- 54.565
3.27 --undefined-- 60.054
3.28 220.944 64.610
3.29 213.836 67.326
3.30 207.630 68.276
3.31 200.167 68.077
3.32 191.516 67.406
3.33 187.090 66.390
3.34 185.771 65.400
3.35 191.972 65.425
3.36 193.496 65.865
3.37 194.430 65.903
3.38 194.786 65.590
3.39 195.497 65.213
3.40 197.295 64.834
3.41 200.467 64.218
3.42 204.874 63.523
3.43 209.517 63.305
3.44 215.271 63.880
3.45 220.831 64.944
3.46 225.817 65.801
3.47 231.776 66.730
3.48 237.242 68.455
3.49 239.646 70.149
3.50 243.033 71.255
3.51 247.293 71.889
3.52 252.861 72.321
3.53 257.487 72.706
3.54 262.181 72.557
3.55 268.001 71.573
3.56 273.911 70.269
3.57 279.458 69.665
3.58 285.255 69.350
3.59 290.340 68.492
3.60 292.426 67.207
3.61 289.657 65.311
3.62 284.015 61.629
3.63 283.566 55.683
3.64 285.743 52.049
3.65 287.695 52.996
3.66 291.434 54.039
3.67 --undefined-- 55.299
3.68 --undefined-- 55.057
3.69 --undefined-- 52.338
3.70 --undefined-- 50.244
3.71 --undefined-- 51.219
3.72 --undefined-- 52.321
3.73 --undefined-- 53.538
3.74 --undefined-- 54.026
3.75 --undefined-- 53.277
3.76 --undefined-- 53.008
3.77 --undefined-- 54.155
3.78 --undefined-- 56.099
3.79 263.100 60.330
3.80 260.183 64.001
3.81 254.016 65.652
3.82 250.008 65.927
3.83 244.344 65.639
3.84 242.326 64.981
3.85 117.056 63.981
3.86 113.565 63.336
3.87 --undefined-- 62.848
3.88 --undefined-- 60.809
3.89 --undefined-- 57.009
3.90 --undefined-- 53.919
3.91 --undefined-- 53.480
3.92 --undefined-- 54.673
3.93 --undefined-- 55.199
3.94 --undefined-- 54.809
3.95 --undefined-- 55.902
3.96 97.781 59.834
3.97 102.555 65.015
3.98 215.234 68.560
3.99 213.043 69.496
4.00 197.545 69.164
4.01 190.958 69.786
4.02 187.172 70.703
4.03 187.037 70.890
4.04 188.766 70.263
4.05 193.320 69.082
4.06 201.189 67.636
4.07 209.853 66.359
4.08 215.269 65.630
4.09 220.910 65.327
4.10 229.287 64.922
4.11 236.339 64.319
4.12 239.744 63.165
4.13 238.057 60.659
4.14 230.695 56.412
4.15 243.105 53.338
4.16 --undefined-- 53.702
4.17 --undefined-- 52.582
4.18 --undefined-- 50.122
4.19 --undefined-- 48.846
4.20 --undefined-- 46.342
4.21 --undefined-- 43.898
4.22 --undefined-- 45.036
4.23 --undefined-- 47.610
4.24 --undefined-- 50.995
4.25 --undefined-- 54.459
4.26 --undefined-- 59.170
4.27 --undefined-- 63.831
4.28 --undefined-- 67.031
4.29 --undefined-- 69.117
4.30 --undefined-- 70.394
4.31 --undefined-- 70.649
4.32 --undefined-- 69.272
4.33 --undefined-- 65.803
4.34 --undefined-- 61.257
4.35 --undefined-- 57.992
4.36 --undefined-- 55.007
4.37 --undefined-- 51.916
4.38 --undefined-- 50.165
4.39 --undefined-- 50.556
4.40 --undefined-- 50.807
4.41 --undefined-- 51.366
4.42 --undefined-- 53.210
4.43 --undefined-- 54.506
4.44 --undefined-- 55.224
4.45 --undefined-- 56.501
4.46 191.245 58.236
4.47 194.256 59.985
4.48 195.894 61.399
4.49 195.884 62.595
4.50 194.918 63.956
4.51 193.890 65.165
4.52 192.664 65.814
4.53 191.364 65.947
4.54 188.630 65.760
4.55 187.316 65.203
4.56 186.021 64.205
4.57 183.222 63.408
4.58 186.503 64.107
4.59 192.487 65.716
4.60 200.611 67.096
4.61 205.109 68.350
4.62 205.702 69.508
4.63 204.191 70.082
4.64 204.226 70.083
4.65 205.999 69.700
4.66 208.116 68.929
4.67 208.841 67.751
4.68 208.252 65.719
4.69 207.021 62.236
4.70 208.875 57.185
4.71 --undefined-- 53.962
4.72 --undefined-- 53.676
4.73 --undefined-- 51.323
4.74 --undefined-- 47.822
4.75 --undefined-- 48.898
4.76 --undefined-- 49.989
4.77 --undefined-- 48.464
4.78 --undefined-- 46.893
4.79 --undefined-- 47.637
4.80 --undefined-- 48.095
4.81 --undefined-- 47.661
4.82 --undefined-- 48.751
4.83 --undefined-- 52.996
4.84 --undefined-- 59.585
4.85 284.587 64.857
4.86 279.562 68.111
4.87 277.582 70.151
4.88 275.101 71.073
4.89 273.096 71.057
4.90 272.664 70.768
4.91 273.335 70.345
4.92 275.175 69.771
4.93 278.206 69.395
4.94 282.629 69.042
4.95 287.047 68.534
4.96 288.235 68.178
4.97 288.293 68.077
4.98 286.259 68.089
4.99 282.973 68.044
5.00 282.417 67.979
5.01 281.369 67.852
5.02 278.174 67.501
5.03 272.486 --undefined--
5.04 266.909 --undefined--
5.05 --undefined-- --undefined--
5.06 --undefined-- --undefined--
