Time Pitch Intensity
0.01 --undefined-- --undefined--
0.02 130.719 --undefined--
0.03 136.266 --undefined--
0.04 141.601 --undefined--
0.05 145.181 78.321
0.06 146.896 79.425
0.07 147.931 79.774
0.08 149.398 79.855
0.09 150.182 79.651
0.10 151.654 79.227
0.11 153.717 78.831
0.12 156.034 78.622
0.13 158.092 78.543
0.14 159.215 78.402
0.15 160.976 78.111
0.16 162.889 77.499
0.17 164.146 76.325
0.18 164.523 74.783
0.19 165.231 73.701
0.20 169.830 73.233
0.21 167.825 72.705
0.22 165.567 71.748
0.23 161.143 70.209
0.24 156.741 68.131
0.25 --undefined-- 65.195
0.26 --undefined-- 60.274
0.27 --undefined-- 52.773
0.28 --undefined-- 47.484
0.29 --undefined-- 46.190
0.30 --undefined-- 43.440
0.31 --undefined-- 39.352
0.32 --undefined-- 36.070
0.33 --undefined-- 36.519
0.34 --undefined-- 36.372
0.35 --undefined-- 36.149
0.36 --undefined-- 37.022
0.37 --undefined-- 37.807
0.38 --undefined-- 37.127
0.39 --undefined-- 35.971
0.40 --undefined-- 36.180
0.41 --undefined-- 37.126
0.42 --undefined-- 37.805
0.43 --undefined-- 37.554
0.44 --undefined-- 37.156
0.45 --undefined-- 37.997
0.46 --undefined-- 38.883
0.47 --undefined-- 38.896
0.48 --undefined-- 37.908
0.49 --undefined-- 37.135
0.50 --undefined-- 36.588
0.51 --undefined-- 36.530
0.52 --undefined-- 35.870
0.53 --undefined-- 34.417
0.54 --undefined-- 34.749
0.55 --undefined-- 36.708
0.56 --undefined-- 38.049
0.57 --undefined-- 37.541
0.58 --undefined-- 36.397
0.59 --undefined-- 36.200
0.60 --undefined-- 36.611
0.61 --undefined-- 37.579
0.62 --undefined-- 36.956
0.63 --undefined-- 34.630
0.64 --undefined-- 34.718
0.65 --undefined-- 36.696
0.66 --undefined-- 36.472
0.67 --undefined-- 35.696
0.68 --undefined-- 37.214
0.69 --undefined-- 38.090
0.70 --undefined-- 37.150
0.71 --undefined-- 36.460
0.72 --undefined-- 37.374
0.73 --undefined-- 37.614
0.74 --undefined-- 38.227
0.75 --undefined-- 38.654
0.76 --undefined-- 38.827
0.77 --undefined-- 39.128
0.78 --undefined-- 38.576
0.79 --undefined-- 38.024
0.80 --undefined-- 37.998
0.81 --undefined-- 37.938
0.82 --undefined-- 37.724
0.83 --undefined-- 37.889
0.84 --undefined-- 38.287
0.85 --undefined-- 37.997
0.86 --undefined-- 37.424
0.87 --undefined-- 37.497
0.88 --undefined-- 37.933
0.89 --undefined-- 38.485
0.90 --undefined-- 38.390
0.91 --undefined-- 37.519
0.92 --undefined-- 37.779
0.93 --undefined-- 39.097
0.94 --undefined-- 39.523
0.95 --undefined-- 38.579
0.96 --undefined-- 37.535
0.97 --undefined-- 37.875
0.98 --undefined-- 37.649
0.99 --undefined-- 35.970
1.00 --undefined-- 36.043
1.01 --undefined-- 37.499
1.02 --undefined-- 37.685
1.03 --undefined-- 37.079
1.04 --undefined-- 37.493
1.05 --undefined-- 38.369
1.06 --undefined-- 39.542
1.07 --undefined-- 41.502
1.08 --undefined-- 46.957
1.09 --undefined-- 55.544
1.10 --undefined-- 61.901
1.11 124.985 66.247
1.12 119.225 69.086
1.13 117.765 70.897
1.14 120.506 72.010
1.15 122.554 72.554
1.16 123.571 72.362
1.17 120.733 70.760
1.18 112.535 67.098
1.19 --undefined-- 61.692
1.20 --undefined-- 62.918
1.21 --undefined-- 70.953
1.22 165.307 76.743
1.23 164.598 79.762
1.24 164.999 80.504
1.25 169.809 80.150
1.26 177.223 79.885
1.27 184.964 79.415
1.28 191.531 77.705
1.29 196.432 73.833
1.30 153.672 67.213
1.31 --undefined-- 62.033
1.32 --undefined-- 69.497
1.33 --undefined-- 75.087
1.34 --undefined-- 77.645
1.35 --undefined-- 78.187
1.36 --undefined-- 77.676
1.37 129.497 76.674
1.38 127.625 75.733
1.39 126.900 75.004
1.40 125.114 74.529
1.41 118.735 74.006
1.42 117.862 72.381
1.43 116.359 68.928
1.44 107.981 63.556
1.45 --undefined-- 57.044
1.46 --undefined-- 53.790
1.47 --undefined-- 60.697
1.48 --undefined-- 67.877
1.49 --undefined-- 72.492
1.50 151.450 74.973
1.51 150.959 75.908
1.52 150.082 76.104
1.53 150.721 76.259
1.54 152.936 76.554
1.55 155.472 76.698
1.56 157.647 76.252
1.57 158.450 74.713
1.58 156.873 71.419
1.59 146.246 65.646
1.60 --undefined-- 58.313
1.61 --undefined-- 56.080
1.62 --undefined-- 56.890
1.63 --undefined-- 56.121
1.64 --undefined-- 55.189
1.65 --undefined-- 55.269
1.66 --undefined-- 55.740
1.67 --undefined-- 57.088
1.68 --undefined-- 61.728
1.69 124.941 65.852
1.70 108.116 67.688
1.71 109.399 68.046
1.72 108.920 68.244
1.73 108.176 68.760
1.74 107.980 69.668
1.75 109.133 70.883
1.76 113.955 72.067
1.77 115.949 72.757
1.78 121.780 72.778
1.79 130.933 72.810
1.80 131.809 73.004
1.81 138.985 72.766
1.82 142.992 72.043
1.83 142.440 71.055
1.84 132.450 69.680
1.85 97.678 66.942
1.86 --undefined-- 62.093
1.87 --undefined-- 56.248
1.88 --undefined-- 51.225
1.89 --undefined-- 47.259
1.90 --undefined-- 55.231
1.91 --undefined-- 63.117
1.92 --undefined-- 68.013
1.93 128.440 71.006
1.94 131.446 72.297
1.95 133.149 72.655
1.96 130.456 72.819
1.97 128.142 72.805
1.98 126.188 72.586
1.99 124.083 71.990
2.00 123.809 70.899
2.01 123.473 68.811
2.02 110.880 64.915
2.03 112.707 58.976
2.04 --undefined-- 52.656
2.05 --undefined-- 55.403
2.06 --undefined-- 64.313
2.07 174.192 70.263
2.08 155.315 73.548
2.09 150.214 75.294
2.10 146.493 76.357
2.11 144.778 76.802
2.12 143.955 76.446
2.13 145.462 75.619
2.14 146.682 74.857
2.15 147.806 73.782
2.16 145.604 71.554
2.17 141.037 67.637
2.18 119.018 61.719
2.19 --undefined-- 54.774
2.20 --undefined-- 49.355
2.21 --undefined-- 46.126
2.22 --undefined-- 54.721
2.23 --undefined-- 64.025
2.24 --undefined-- 69.687
2.25 --undefined-- 72.374
2.26 118.697 72.813
2.27 111.463 71.974
2.28 109.512 71.095
2.29 108.357 70.714
2.30 105.483 70.535
2.31 104.710 70.296
2.32 105.195 70.169
2.33 107.040 70.387
2.34 110.455 70.527
2.35 110.759 69.614
2.36 --undefined-- 66.663
2.37 --undefined-- 60.976
2.38 --undefined-- 55.519
2.39 --undefined-- 58.516
2.40 97.064 62.120
2.41 103.185 65.644
2.42 105.261 67.864
2.43 105.169 68.011
2.44 103.133 66.627
2.45 99.220 65.061
2.46 97.023 64.025
2.47 98.463 63.087
2.48 96.477 61.682
2.49 95.758 60.112
2.50 99.701 60.102
2.51 103.440 62.356
2.52 108.786 65.548
2.53 112.557 68.233
2.54 112.459 69.830
2.55 110.984 70.523
2.56 111.261 70.791
2.57 112.047 70.797
2.58 110.705 70.099
2.59 107.870 68.142
2.60 107.132 65.499
2.61 106.569 64.238
2.62 105.309 64.831
2.63 105.714 65.962
2.64 105.244 66.894
2.65 105.779 67.023
2.66 94.569 66.490
2.67 103.067 66.484
2.68 91.874 66.428
2.69 96.893 66.715
2.70 98.368 67.840
2.71 101.998 69.287
2.72 106.757 70.608
2.73 112.395 71.891
2.74 117.778 73.355
2.75 121.499 74.565
2.76 130.473 75.667
2.77 134.015 76.697
2.78 139.039 77.134
2.79 145.112 76.895
2.80 149.434 76.452
2.81 152.063 75.891
2.82 153.644 74.699
2.83 154.529 72.476
2.84 153.728 69.012
2.85 150.751 64.673
2.86 --undefined-- 61.348
2.87 --undefined-- 58.797
2.88 --undefined-- 56.055
2.89 --undefined-- 53.218
2.90 --undefined-- 51.121
2.91 --undefined-- 50.180
2.92 --undefined-- 47.042
2.93 --undefined-- 41.708
2.94 --undefined-- 39.447
2.95 --undefined-- 37.806
2.96 --undefined-- 36.356
2.97 --undefined-- 36.714
2.98 --undefined-- 36.765
2.99 --undefined-- 37.174
3.00 --undefined-- 38.086
3.01 --undefined-- 37.794
3.02 --undefined-- 37.078
3.03 --undefined-- 37.542
3.04 --undefined-- 39.125
3.05 --undefined-- 39.278
3.06 --undefined-- 37.655
3.07 --undefined-- 37.373
3.08 --undefined-- 38.991
3.09 --undefined-- 39.560
3.10 --undefined-- 38.920
3.11 --undefined-- 38.938
3.12 --undefined-- 39.074
3.13 --undefined-- 38.031
3.14 --undefined-- 37.054
3.15 --undefined-- 40.078
3.16 --undefined-- 49.050
3.17 --undefined-- 58.564
3.18 --undefined-- 66.306
3.19 145.480 71.484
3.20 145.019 74.459
3.21 146.790 75.571
3.22 148.766 75.285
3.23 160.048 74.311
3.24 175.594 73.057
3.25 193.034 72.609
3.26 201.723 73.215
3.27 202.573 73.509
3.28 196.494 72.640
3.29 185.827 70.146
3.30 171.194 65.609
3.31 163.773 59.442
3.32 --undefined-- 61.355
3.33 --undefined-- 66.200
3.34 --undefined-- 68.081
3.35 --undefined-- 71.395
3.36 172.283 75.659
3.37 166.145 78.168
3.38 159.030 79.250
3.39 151.252 79.462
3.40 146.731 78.808
3.41 144.323 77.027
3.42 144.162 73.820
3.43 131.226 68.803
3.44 117.070 62.548
3.45 143.032 60.210
3.46 174.999 65.357
3.47 174.295 70.813
3.48 148.071 74.163
3.49 136.623 75.570
3.50 132.721 75.789
3.51 126.574 75.620
3.52 122.584 75.315
3.53 119.145 74.721
3.54 117.708 73.477
3.55 118.922 71.295
3.56 114.516 68.786
3.57 108.722 66.440
3.58 94.955 63.852
3.59 92.292 61.714
3.60 86.243 60.634
3.61 92.811 61.771
3.62 106.059 64.830
3.63 121.155 67.609
3.64 118.147 69.567
3.65 116.514 70.856
3.66 114.711 71.795
3.67 117.171 72.897
3.68 120.041 74.244
3.69 125.215 75.400
3.70 131.122 76.319
3.71 136.594 77.465
3.72 142.915 78.682
3.73 149.727 78.833
3.74 158.674 77.513
3.75 168.134 75.169
3.76 162.771 72.265
3.77 146.738 69.657
3.78 148.672 66.865
3.79 154.672 61.996
3.80 --undefined-- 54.519
3.81 --undefined-- 45.798
3.82 --undefined-- 41.203
3.83 --undefined-- 39.789
3.84 --undefined-- 41.950
3.85 --undefined-- 53.673
3.86 --undefined-- 62.448
3.87 162.735 68.115
3.88 148.913 71.579
3.89 139.428 73.347
3.90 135.801 74.176
3.91 134.707 74.665
3.92 133.794 74.763
3.93 132.567 74.463
3.94 132.326 74.021
3.95 132.444 73.570
3.96 132.814 72.913
3.97 132.089 71.350
3.98 125.438 67.991
3.99 120.068 62.870
4.00 116.906 57.806
4.01 --undefined-- 53.803
4.02 --undefined-- 49.448
4.03 --undefined-- 44.894
4.04 --undefined-- 44.687
4.05 --undefined-- 52.633
4.06 --undefined-- 63.010
4.07 203.892 69.718
4.08 181.636 73.478
4.09 171.792 75.915
4.10 165.283 77.748
4.11 162.225 78.459
4.12 159.012 78.142
4.13 157.014 77.844
4.14 157.245 78.170
4.15 155.682 78.567
4.16 154.874 78.457
4.17 154.932 78.107
4.18 157.662 77.500
4.19 159.353 76.429
4.20 159.090 75.376
4.21 158.143 74.385
4.22 156.276 72.855
4.23 151.663 70.190
4.24 97.455 65.848
4.25 94.534 59.829
4.26 --undefined-- 53.625
4.27 --undefined-- 48.111
4.28 --undefined-- 42.663
4.29 --undefined-- 38.482
4.30 --undefined-- 36.220
4.31 --undefined-- 36.136
4.32 --undefined-- 37.571
4.33 --undefined-- 39.550
4.34 --undefined-- 44.046
4.35 --undefined-- 48.382
4.36 --undefined-- 50.916
4.37 --undefined-- 53.006
4.38 --undefined-- 54.251
4.39 --undefined-- 58.546
4.40 176.121 66.226
4.41 157.077 71.642
4.42 146.658 74.594
4.43 141.802 75.587
4.44 135.395 75.324
4.45 133.437 74.994
4.46 131.455 74.988
4.47 129.939 75.300
4.48 129.285 75.934
4.49 128.452 76.487
4.50 129.329 76.526
4.51 130.427 76.129
4.52 129.421 75.640
4.53 128.400 74.935
4.54 125.739 73.514
4.55 120.095 70.994
4.56 111.503 66.969
4.57 118.521 61.546
4.58 123.543 56.403
4.59 123.536 54.776
4.60 --undefined-- 53.642
4.61 --undefined-- 51.909
4.62 --undefined-- 51.621
4.63 --undefined-- 54.702
4.64 --undefined-- 63.275
4.65 --undefined-- 70.013
4.66 --undefined-- 73.445
4.67 128.681 74.311
4.68 124.152 73.762
4.69 117.895 73.141
4.70 116.428 72.983
4.71 115.906 72.785
4.72 115.233 72.606
4.73 114.466 72.638
4.74 113.414 72.782
4.75 113.450 72.997
4.76 114.320 73.267
4.77 115.309 73.485
4.78 115.981 73.503
4.79 113.971 73.331
4.80 113.359 73.168
4.81 113.731 72.842
4.82 112.501 71.777
4.83 107.559 69.336
4.84 102.549 65.079
4.85 --undefined-- 58.588
4.86 --undefined-- 50.631
4.87 --undefined-- 44.179
4.88 --undefined-- 47.908
4.89 --undefined-- 58.613
4.90 --undefined-- 66.793
4.91 160.824 72.091
4.92 153.732 75.165
4.93 150.164 76.930
4.94 148.072 77.940
4.95 147.233 78.729
4.96 147.650 79.574
4.97 148.086 80.118
4.98 148.105 80.134
4.99 147.620 79.681
5.00 145.111 78.682
5.01 150.650 77.254
5.02 155.705 75.899
5.03 155.161 75.038
5.04 154.281 74.463
5.05 152.158 73.479
5.06 147.739 71.255
5.07 141.586 67.195
5.08 --undefined-- 60.835
5.09 --undefined-- 52.830
5.10 --undefined-- 46.805
5.11 --undefined-- 44.858
5.12 --undefined-- 44.033
5.13 --undefined-- 45.628
5.14 --undefined-- 56.114
5.15 --undefined-- 65.892
5.16 148.469 71.580
5.17 145.541 73.818
5.18 132.938 73.691
5.19 122.679 73.221
5.20 117.441 73.677
5.21 117.137 74.368
5.22 117.104 74.736
5.23 116.549 74.772
5.24 116.300 74.624
5.25 116.064 74.381
5.26 116.158 74.162
5.27 116.459 73.962
5.28 116.666 73.800
5.29 118.142 73.762
5.30 119.508 73.417
5.31 118.505 71.843
5.32 114.337 68.322
5.33 --undefined-- 62.470
5.34 --undefined-- 55.201
5.35 --undefined-- 50.824
5.36 --undefined-- 51.337
5.37 --undefined-- 57.684
5.38 --undefined-- 65.792
5.39 160.353 70.987
5.40 146.422 73.427
5.41 141.311 73.824
5.42 134.877 73.107
5.43 135.383 72.714
5.44 134.437 72.432
5.45 129.790 71.540
5.46 124.563 70.449
5.47 121.189 69.604
5.48 118.217 69.098
5.49 119.209 70.219
5.50 127.710 73.274
5.51 128.274 75.554
5.52 124.232 76.053
5.53 118.165 75.073
5.54 115.276 72.649
5.55 --undefined-- 67.992
5.56 --undefined-- 60.034
5.57 --undefined-- 51.101
5.58 --undefined-- 48.442
5.59 --undefined-- 53.495
5.60 --undefined-- 61.349
5.61 --undefined-- 66.383
5.62 115.073 68.628
5.63 103.907 68.941
5.64 102.030 68.370
5.65 99.308 67.535
5.66 96.143 66.676
5.67 94.673 66.217
5.68 94.735 66.224
5.69 95.055 66.391
5.70 96.298 66.691
5.71 98.330 67.028
5.72 99.728 66.565
5.73 100.000 64.271
5.74 93.307 59.821
5.75 --undefined-- 54.006
5.76 --undefined-- 48.138
5.77 --undefined-- 44.699
5.78 --undefined-- 48.228
5.79 --undefined-- 58.847
5.80 --undefined-- 67.935
5.81 160.771 73.613
5.82 146.853 76.629
5.83 143.608 77.621
5.84 141.113 77.374
5.85 141.375 77.106
5.86 142.498 77.609
5.87 144.992 78.634
5.88 147.947 79.577
5.89 149.917 79.930
5.90 150.768 79.327
5.91 150.406 77.819
5.92 149.865 76.044
5.93 149.355 74.591
5.94 148.883 73.685
5.95 148.068 73.292
5.96 147.910 72.993
5.97 145.991 72.063
5.98 142.173 70.239
5.99 137.345 67.637
6.00 144.488 64.882
6.01 146.872 62.535
6.02 147.617 59.969
6.03 --undefined-- 55.346
6.04 --undefined-- 48.347
6.05 --undefined-- 43.327
6.06 --undefined-- 42.221
6.07 --undefined-- 40.923
6.08 --undefined-- 38.908
6.09 --undefined-- 39.031
6.10 --undefined-- 40.016
6.11 --undefined-- 39.870
6.12 --undefined-- 39.284
6.13 --undefined-- 39.652
6.14 --undefined-- 40.665
6.15 --undefined-- 41.043
6.16 --undefined-- 41.412
6.17 --undefined-- 42.771
6.18 --undefined-- 44.198
6.19 --undefined-- 45.396
6.20 --undefined-- 46.392
6.21 --undefined-- 46.594
6.22 --undefined-- 46.449
6.23 --undefined-- 46.698
6.24 --undefined-- 46.594
6.25 --undefined-- 45.752
6.26 --undefined-- 44.420
6.27 --undefined-- 42.596
6.28 --undefined-- 40.816
6.29 --undefined-- 39.151
6.30 --undefined-- 38.642
6.31 --undefined-- 39.427
6.32 --undefined-- 39.711
6.33 --undefined-- 39.569
6.34 --undefined-- 40.797
6.35 --undefined-- 41.867
6.36 --undefined-- 42.654
6.37 --undefined-- --undefined--
6.38 --undefined-- --undefined--
6.39 --undefined-- --undefined--
6.40 --undefined-- --undefined--
