Time Pitch Intensity
0.01 --undefined-- --undefined--
0.02 110.386 --undefined--
0.03 110.010 --undefined--
0.04 110.009 --undefined--
0.05 110.069 62.728
0.06 110.064 62.708
0.07 109.206 62.308
0.08 107.235 61.089
0.09 103.063 59.079
0.10 102.006 56.467
0.11 100.226 54.450
0.12 100.164 54.578
0.13 101.205 56.941
0.14 101.872 60.398
0.15 104.224 63.284
0.16 104.124 64.807
0.17 102.302 64.552
0.18 --undefined-- 61.933
0.19 --undefined-- 56.161
0.20 --undefined-- 46.020
0.21 --undefined-- 33.857
0.22 --undefined-- 28.395
0.23 --undefined-- 26.025
0.24 --undefined-- 25.435
0.25 --undefined-- 27.550
0.26 --undefined-- 29.768
0.27 --undefined-- 30.710
0.28 --undefined-- 31.089
0.29 --undefined-- 31.388
0.30 --undefined-- 32.244
0.31 --undefined-- 33.245
0.32 --undefined-- 32.946
0.33 --undefined-- 33.153
0.34 --undefined-- 35.219
0.35 --undefined-- 37.219
0.36 --undefined-- 38.233
0.37 --undefined-- 37.699
0.38 --undefined-- 37.298
0.39 --undefined-- 38.947
0.40 --undefined-- 39.601
0.41 --undefined-- 38.133
0.42 --undefined-- 36.435
0.43 --undefined-- 36.217
0.44 --undefined-- 35.975
0.45 --undefined-- 34.237
0.46 --undefined-- 31.371
0.47 --undefined-- 29.444
0.48 --undefined-- 29.642
0.49 --undefined-- 29.610
0.50 --undefined-- 28.692
0.51 --undefined-- 27.452
0.52 --undefined-- 27.867
0.53 --undefined-- 28.631
0.54 --undefined-- 29.225
0.55 --undefined-- 29.786
0.56 --undefined-- 32.017
0.57 --undefined-- 44.799
0.58 --undefined-- 54.329
0.59 --undefined-- 61.522
0.60 175.408 68.218
0.61 187.135 73.045
0.62 193.838 74.952
0.63 198.807 73.943
0.64 202.968 71.045
0.65 207.736 69.622
0.66 211.450 70.156
0.67 214.325 71.135
0.68 216.394 72.186
0.69 214.905 72.713
0.70 210.116 72.433
0.71 205.509 71.231
0.72 201.354 68.317
0.73 182.169 62.721
0.74 --undefined-- 54.537
0.75 --undefined-- 46.989
0.76 --undefined-- 47.302
0.77 --undefined-- 61.447
0.78 --undefined-- 71.503
0.79 --undefined-- 77.367
0.80 --undefined-- 79.858
0.81 --undefined-- 79.871
0.82 135.964 78.906
0.83 134.703 78.436
0.84 135.604 78.850
0.85 138.905 79.571
0.86 140.284 79.651
0.87 142.518 78.556
0.88 143.055 76.142
0.89 142.778 72.339
0.90 141.676 67.756
0.91 140.330 64.988
0.92 138.631 64.260
0.93 137.050 64.550
0.94 137.091 66.983
0.95 136.238 69.399
0.96 133.567 70.164
0.97 131.505 69.433
0.98 130.102 67.967
0.99 127.514 66.262
1.00 126.137 64.312
1.01 126.029 62.444
1.02 125.966 61.222
1.03 127.086 61.192
1.04 126.837 62.275
1.05 126.259 64.630
1.06 131.052 68.207
1.07 135.841 71.487
1.08 138.752 73.606
1.09 141.480 74.584
1.10 144.380 74.912
1.11 145.336 74.381
1.12 144.081 72.262
1.13 141.899 67.970
1.14 --undefined-- 61.661
1.15 --undefined-- 61.220
1.16 133.414 65.777
1.17 132.781 68.134
1.18 131.211 68.499
1.19 128.267 67.810
1.20 127.871 66.835
1.21 129.101 65.541
1.22 129.458 63.532
1.23 126.978 60.424
1.24 --undefined-- 55.740
1.25 --undefined-- 49.580
1.26 --undefined-- 42.807
1.27 --undefined-- 36.254
1.28 --undefined-- 31.574
1.29 --undefined-- 29.743
1.30 --undefined-- 35.462
1.31 --undefined-- 50.797
1.32 --undefined-- 61.971
1.33 204.601 68.799
1.34 204.139 72.379
1.35 204.340 73.528
1.36 205.402 73.219
1.37 206.361 72.585
1.38 205.560 72.429
1.39 203.836 72.218
1.40 199.865 71.107
1.41 194.309 68.664
1.42 188.500 65.012
1.43 177.385 61.868
1.44 167.643 60.777
1.45 157.608 60.576
1.46 144.563 60.691
1.47 136.835 60.548
1.48 129.457 59.727
1.49 123.384 58.783
1.50 115.397 58.481
1.51 112.016 58.027
1.52 110.608 56.973
1.53 108.432 56.268
1.54 107.598 55.871
1.55 106.531 54.692
1.56 --undefined-- 52.338
1.57 --undefined-- 49.524
1.58 --undefined-- 48.948
1.59 --undefined-- 51.480
1.60 --undefined-- 53.546
1.61 --undefined-- 53.730
1.62 --undefined-- 52.614
1.63 --undefined-- 51.099
1.64 --undefined-- 49.552
1.65 --undefined-- 49.443
1.66 --undefined-- 50.308
1.67 --undefined-- 50.975
1.68 --undefined-- 53.690
1.69 163.964 59.195
1.70 171.297 64.228
1.71 178.850 67.556
1.72 180.945 69.117
1.73 179.866 69.278
1.74 178.208 69.045
1.75 178.388 69.156
1.76 179.732 69.305
1.77 181.794 69.081
1.78 182.173 68.505
1.79 181.899 68.102
1.80 181.388 68.080
1.81 180.863 68.360
1.82 181.434 68.716
1.83 182.508 68.552
1.84 181.198 67.214
1.85 174.366 64.141
1.86 171.907 60.543
1.87 168.516 59.544
1.88 163.940 59.826
1.89 159.133 59.882
1.90 153.752 59.781
1.91 146.464 59.854
1.92 140.954 60.079
1.93 136.248 60.423
1.94 130.881 61.646
1.95 126.538 64.608
1.96 124.004 67.982
1.97 121.374 70.143
1.98 118.178 71.363
1.99 115.871 72.285
2.00 114.951 72.755
2.01 114.070 72.485
2.02 113.757 71.762
2.03 113.380 70.632
2.04 112.925 68.406
2.05 111.872 64.888
2.06 112.936 61.066
2.07 114.382 58.861
2.08 115.002 58.342
2.09 114.817 58.152
2.10 114.249 57.743
2.11 115.895 56.528
2.12 --undefined-- 53.684
2.13 --undefined-- 48.647
2.14 --undefined-- 41.622
2.15 --undefined-- 37.188
2.16 --undefined-- 42.020
2.17 --undefined-- 52.628
2.18 --undefined-- 61.254
2.19 174.441 67.342
2.20 173.259 71.289
2.21 172.683 73.150
2.22 172.116 73.106
2.23 171.947 71.959
2.24 173.012 70.593
2.25 173.448 68.472
2.26 173.247 65.039
2.27 173.236 62.605
2.28 172.319 62.369
2.29 167.655 62.301
2.30 162.114 63.104
2.31 156.252 64.979
2.32 151.553 66.524
2.33 146.060 67.218
2.34 141.598 67.808
2.35 138.595 68.998
2.36 137.144 70.411
2.37 135.892 71.337
2.38 133.459 71.455
2.39 129.656 70.880
2.40 126.516 69.731
2.41 124.296 67.677
2.42 121.596 64.585
2.43 120.217 61.678
2.44 119.584 59.886
2.45 118.711 58.525
2.46 115.322 57.573
2.47 113.832 57.559
2.48 115.388 59.434
2.49 120.529 62.606
2.50 121.842 65.755
2.51 120.144 68.424
2.52 118.155 70.730
2.53 115.519 72.474
2.54 113.498 73.162
2.55 113.651 72.990
2.56 114.463 72.410
2.57 116.092 71.310
2.58 119.418 69.779
2.59 120.778 68.424
2.60 121.917 67.275
2.61 123.586 66.277
2.62 126.035 65.569
2.63 128.691 65.032
2.64 132.104 64.702
2.65 135.632 64.208
2.66 140.526 63.242
2.67 141.507 61.403
2.68 --undefined-- 57.725
2.69 --undefined-- 51.627
2.70 --undefined-- 45.734
2.71 --undefined-- 47.429
2.72 --undefined-- 53.513
2.73 152.545 58.373
2.74 154.357 60.976
2.75 153.765 61.619
2.76 152.706 60.972
2.77 151.877 59.556
2.78 --undefined-- 56.675
2.79 --undefined-- 51.165
2.80 --undefined-- 43.107
2.81 --undefined-- 35.210
2.82 --undefined-- 31.391
2.83 --undefined-- 33.063
2.84 --undefined-- 46.027
2.85 --undefined-- 57.463
2.86 --undefined-- 66.076
2.87 --undefined-- 72.017
2.88 --undefined-- 75.321
2.89 141.101 76.560
2.90 137.445 76.126
2.91 138.065 74.132
2.92 138.130 71.019
2.93 138.157 68.159
2.94 137.988 66.676
2.95 137.193 65.924
2.96 136.276 65.259
2.97 135.184 64.536
2.98 133.966 63.848
2.99 133.809 63.251
3.00 134.140 62.807
3.01 135.177 62.564
3.02 136.077 62.538
3.03 137.231 62.712
3.04 137.209 62.836
3.05 136.607 62.634
3.06 136.526 62.192
3.07 137.223 61.911
3.08 137.460 61.750
3.09 137.631 61.219
3.10 137.299 59.890
3.11 136.915 57.138
3.12 --undefined-- 52.175
3.13 --undefined-- 44.930
3.14 --undefined-- 38.859
3.15 --undefined-- 49.714
3.16 --undefined-- 62.551
3.17 176.983 70.979
3.18 173.897 75.713
3.19 168.408 77.323
3.20 161.508 76.321
3.21 158.041 73.411
3.22 --undefined-- 69.481
3.23 --undefined-- 64.738
3.24 --undefined-- 59.089
3.25 --undefined-- 53.517
3.26 --undefined-- 49.844
3.27 --undefined-- 47.932
3.28 --undefined-- 46.251
3.29 --undefined-- 44.389
3.30 --undefined-- 41.581
3.31 --undefined-- 37.477
3.32 --undefined-- 35.676
3.33 --undefined-- 39.013
3.34 --undefined-- 44.166
3.35 --undefined-- 49.793
3.36 --undefined-- 53.456
3.37 120.717 55.161
3.38 118.140 56.476
3.39 117.365 58.043
3.40 116.955 59.272
3.41 116.414 59.784
3.42 114.877 59.417
3.43 112.409 57.951
3.44 109.242 54.869
3.45 --undefined-- 49.652
3.46 --undefined-- 42.193
3.47 --undefined-- 34.909
3.48 --undefined-- 34.691
3.49 --undefined-- 46.400
3.50 --undefined-- 59.178
3.51 --undefined-- 67.712
3.52 --undefined-- 72.590
3.53 --undefined-- 74.467
3.54 117.096 74.309
3.55 115.945 74.038
3.56 116.404 74.761
3.57 117.711 75.622
3.58 124.087 75.887
3.59 123.816 75.157
3.60 122.584 73.273
3.61 119.722 69.996
3.62 --undefined-- 64.931
3.63 --undefined-- 58.601
3.64 --undefined-- 53.454
3.65 --undefined-- 51.130
3.66 --undefined-- 53.253
3.67 115.982 57.747
3.68 117.618 61.227
3.69 119.067 63.082
3.70 118.552 63.014
3.71 115.901 60.770
3.72 --undefined-- 56.418
3.73 --undefined-- 51.067
3.74 --undefined-- 47.844
3.75 --undefined-- 47.221
3.76 --undefined-- 47.065
3.77 --undefined-- 46.923
3.78 --undefined-- 47.005
3.79 --undefined-- 48.075
3.80 --undefined-- 50.640
3.81 --undefined-- 53.646
3.82 116.212 56.026
3.83 114.599 57.379
3.84 112.208 57.778
3.85 108.866 57.425
3.86 106.362 56.423
3.87 104.593 54.743
3.88 --undefined-- 52.326
3.89 --undefined-- 49.315
3.90 --undefined-- 46.412
3.91 --undefined-- 45.556
3.92 --undefined-- 46.475
3.93 --undefined-- 47.547
3.94 --undefined-- 47.671
3.95 --undefined-- 47.199
3.96 --undefined-- 48.248
3.97 --undefined-- 50.138
3.98 --undefined-- 52.356
3.99 123.226 55.355
4.00 127.764 58.149
4.01 133.393 59.814
4.02 134.059 59.897
4.03 130.679 57.944
4.04 --undefined-- 54.064
4.05 --undefined-- 48.638
4.06 --undefined-- 42.487
4.07 --undefined-- 44.693
4.08 --undefined-- 56.214
4.09 --undefined-- 64.709
4.10 --undefined-- 69.672
4.11 --undefined-- 71.640
4.12 119.311 71.603
4.13 115.503 70.776
4.14 113.371 70.039
4.15 113.554 69.858
4.16 114.022 69.450
4.17 113.435 67.580
4.18 112.943 63.454
4.19 --undefined-- 56.880
4.20 --undefined-- 48.516
4.21 --undefined-- 42.957
4.22 --undefined-- 41.239
4.23 --undefined-- 41.201
4.24 --undefined-- 47.393
4.25 --undefined-- 57.721
4.26 --undefined-- 64.760
4.27 144.800 68.654
4.28 143.309 70.071
4.29 141.002 69.542
4.30 140.103 67.709
4.31 141.804 65.588
4.32 142.956 64.101
4.33 143.442 62.712
4.34 142.561 60.723
4.35 141.454 57.619
4.36 --undefined-- 52.869
4.37 --undefined-- 45.716
4.38 --undefined-- 41.612
4.39 --undefined-- 43.688
4.40 --undefined-- 42.919
4.41 --undefined-- 40.269
4.42 --undefined-- 39.839
4.43 --undefined-- 41.134
4.44 --undefined-- 41.978
4.45 --undefined-- 43.182
4.46 --undefined-- 44.156
4.47 --undefined-- 43.740
4.48 --undefined-- 43.057
4.49 --undefined-- 42.915
4.50 --undefined-- 42.936
4.51 --undefined-- 43.844
4.52 --undefined-- 53.931
4.53 --undefined-- 64.615
4.54 157.755 71.195
4.55 139.621 74.421
4.56 130.618 75.497
4.57 129.469 75.596
4.58 128.236 75.328
4.59 127.564 74.788
4.60 128.152 74.307
4.61 127.019 74.022
4.62 126.393 73.690
4.63 125.063 73.348
4.64 123.297 73.259
4.65 122.056 74.111
4.66 112.392 76.272
4.67 129.635 78.201
4.68 124.767 78.687
4.69 122.147 77.404
4.70 118.245 74.638
4.71 112.391 71.670
4.72 101.124 70.038
4.73 103.178 69.527
4.74 95.107 69.257
4.75 94.932 68.923
4.76 94.461 68.427
4.77 95.537 67.763
4.78 94.339 67.256
4.79 79.633 66.839
4.80 79.880 66.166
4.81 79.883 65.181
4.82 80.121 64.220
4.83 80.285 63.289
4.84 --undefined-- 61.513
4.85 --undefined-- 58.774
4.86 --undefined-- 58.659
4.87 --undefined-- 60.082
4.88 --undefined-- 63.007
4.89 --undefined-- 69.334
4.90 183.796 74.216
4.91 180.689 76.505
4.92 173.405 76.711
4.93 167.844 75.887
4.94 164.995 74.684
4.95 163.902 73.675
4.96 165.115 73.892
4.97 167.391 74.702
4.98 168.972 75.082
4.99 169.275 74.559
5.00 167.945 72.961
5.01 165.018 70.313
5.02 161.024 66.601
5.03 156.440 61.499
5.04 146.637 56.590
5.05 137.591 55.343
5.06 134.365 55.045
5.07 129.959 54.036
5.08 --undefined-- 52.218
5.09 --undefined-- 49.937
5.10 --undefined-- 48.031
5.11 --undefined-- 47.038
5.12 --undefined-- 46.498
5.13 --undefined-- 47.406
5.14 --undefined-- 52.119
5.15 130.884 57.860
5.16 130.791 62.085
5.17 129.967 64.255
5.18 130.330 64.394
5.19 135.431 62.931
5.20 137.760 61.142
5.21 138.692 59.824
5.22 138.676 58.511
5.23 137.397 57.390
5.24 137.056 58.132
5.25 136.869 60.554
5.26 136.506 63.122
5.27 136.021 65.283
5.28 133.543 67.077
5.29 131.651 68.281
5.30 130.075 68.623
5.31 128.745 68.358
5.32 127.236 67.641
5.33 125.319 66.025
5.34 121.081 63.248
5.35 113.971 60.517
5.36 112.140 59.764
5.37 108.979 60.077
5.38 106.322 61.243
5.39 104.144 63.716
5.40 105.029 65.453
5.41 95.557 65.300
5.42 --undefined-- 65.251
5.43 --undefined-- 66.816
5.44 --undefined-- 67.686
5.45 --undefined-- 66.798
5.46 --undefined-- 65.073
5.47 100.867 63.681
5.48 98.720 62.409
5.49 95.961 60.793
5.50 92.923 58.272
5.51 90.998 54.685
5.52 --undefined-- 50.328
5.53 --undefined-- 46.874
5.54 --undefined-- 46.706
5.55 --undefined-- 48.769
5.56 --undefined-- 52.380
5.57 112.581 56.809
5.58 118.040 60.897
5.59 122.173 63.747
5.60 123.273 64.955
5.61 122.476 64.554
5.62 119.528 63.256
5.63 114.961 61.231
5.64 110.725 57.728
5.65 --undefined-- 52.679
5.66 --undefined-- 47.415
5.67 --undefined-- 44.606
5.68 --undefined-- 44.485
5.69 --undefined-- 45.635
5.70 --undefined-- 47.926
5.71 --undefined-- 48.886
5.72 --undefined-- 48.371
5.73 --undefined-- 49.347
5.74 --undefined-- 53.537
5.75 116.145 57.582
5.76 113.799 59.859
5.77 114.030 60.692
5.78 113.151 60.599
5.79 109.972 59.422
5.80 --undefined-- 56.520
5.81 --undefined-- 51.323
5.82 --undefined-- --undefined--
5.83 --undefined-- --undefined--
5.84 --undefined-- --undefined--
5.85 --undefined-- --undefined--
