Time Pitch Intensity
0.01 --undefined-- --undefined--
0.02 265.056 --undefined--
0.03 264.853 --undefined--
0.04 261.171 --undefined--
0.05 256.545 69.096
0.06 251.374 68.963
0.07 240.685 68.351
0.08 230.856 68.118
0.09 216.760 68.317
0.10 206.444 68.417
0.11 194.828 68.389
0.12 183.559 68.865
0.13 178.712 69.284
0.14 175.567 68.857
0.15 174.014 67.618
0.16 171.492 66.175
0.17 170.328 64.708
0.18 166.565 62.196
0.19 165.689 58.137
0.20 171.255 54.133
0.21 --undefined-- 52.433
0.22 --undefined-- 52.412
0.23 --undefined-- 54.419
0.24 --undefined-- 57.759
0.25 93.955 61.809
0.26 85.160 64.836
0.27 85.081 66.553
0.28 82.686 67.389
0.29 80.695 68.366
0.30 81.385 69.823
0.31 165.035 70.958
0.32 165.931 71.768
0.33 168.732 72.315
0.34 171.681 72.272
0.35 175.671 71.515
0.36 178.778 69.926
0.37 181.482 68.186
0.38 194.805 67.616
0.39 203.305 67.332
0.40 213.378 67.024
0.41 219.383 67.484
0.42 224.705 67.997
0.43 227.808 67.905
0.44 228.606 67.226
0.45 225.208 66.049
0.46 217.587 64.568
0.47 --undefined-- 63.214
0.48 --undefined-- 61.743
0.49 --undefined-- 59.275
0.50 --undefined-- 55.384
0.51 --undefined-- 50.907
0.52 --undefined-- 50.981
0.53 --undefined-- 53.600
0.54 --undefined-- 54.530
0.55 --undefined-- 54.910
0.56 --undefined-- 56.152
0.57 --undefined-- 55.034
0.58 --undefined-- 50.552
0.59 --undefined-- 49.571
0.60 --undefined-- 52.288
0.61 --undefined-- 51.722
0.62 --undefined-- 49.286
0.63 --undefined-- 51.160
0.64 --undefined-- 53.741
0.65 --undefined-- 52.991
0.66 --undefined-- 48.863
0.67 --undefined-- 45.275
0.68 --undefined-- 45.578
0.69 --undefined-- 45.596
0.70 --undefined-- 47.622
0.71 --undefined-- 50.286
0.72 --undefined-- 51.190
0.73 --undefined-- 50.658
0.74 --undefined-- 50.469
0.75 --undefined-- 51.390
0.76 --undefined-- 51.360
0.77 --undefined-- 50.797
0.78 --undefined-- 49.716
0.79 --undefined-- 48.078
0.80 --undefined-- 46.331
0.81 --undefined-- 44.710
0.82 --undefined-- 44.903
0.83 --undefined-- 46.342
0.84 --undefined-- 47.819
0.85 --undefined-- 52.141
0.86 284.512 57.552
0.87 256.072 61.480
0.88 228.493 64.082
0.89 221.600 66.079
0.90 221.802 67.740
0.91 222.850 69.048
0.92 224.705 69.910
0.93 225.966 70.184
0.94 225.587 69.898
0.95 223.930 69.391
0.96 222.513 69.017
0.97 221.857 68.678
0.98 221.678 68.205
0.99 222.041 67.673
1.00 222.516 67.151
1.01 223.991 66.716
1.02 227.492 66.510
1.03 232.045 66.616
1.04 237.682 67.217
1.05 241.275 68.156
1.06 243.502 68.958
1.07 244.118 69.649
1.08 243.240 70.797
1.09 241.471 72.502
1.10 238.953 73.937
1.11 236.851 74.465
1.12 235.552 74.223
1.13 235.399 73.721
1.14 235.773 73.263
1.15 236.478 72.854
1.16 237.150 72.460
1.17 237.802 72.039
1.18 238.223 71.436
1.19 238.283 70.564
1.20 238.765 69.540
1.21 238.653 68.450
1.22 237.408 67.559
1.23 237.879 67.453
1.24 239.057 67.650
1.25 238.262 67.486
1.26 237.014 67.213
1.27 234.088 67.071
1.28 229.679 66.857
1.29 224.604 66.542
1.30 217.371 66.923
1.31 202.805 68.520
1.32 198.821 70.230
1.33 191.478 71.262
1.34 185.216 71.577
1.35 180.291 71.489
1.36 177.663 71.460
1.37 177.353 71.525
1.38 177.087 71.534
1.39 176.722 71.664
1.40 177.129 71.905
1.41 180.663 71.990
1.42 184.066 72.060
1.43 189.656 72.049
1.44 195.633 71.575
1.45 206.893 70.565
1.46 216.573 69.450
1.47 226.740 68.535
1.48 235.974 67.710
1.49 246.208 66.692
1.50 250.242 66.002
1.51 260.535 66.862
1.52 270.307 68.014
1.53 275.566 68.632
1.54 280.481 69.222
1.55 284.260 69.951
1.56 288.136 70.519
1.57 292.880 70.727
1.58 297.374 70.616
1.59 153.452 70.231
1.60 158.538 69.710
1.61 159.113 69.540
1.62 158.930 69.398
1.63 157.766 68.902
1.64 156.443 68.302
1.65 155.325 67.960
1.66 153.955 67.952
1.67 152.708 67.948
1.68 299.603 67.757
1.69 293.805 67.399
1.70 287.988 67.240
1.71 283.245 67.524
1.72 276.132 67.855
1.73 268.161 68.010
1.74 260.440 68.481
1.75 255.631 69.136
1.76 250.547 69.222
1.77 244.240 68.971
1.78 239.281 68.757
1.79 234.601 68.163
1.80 229.704 66.960
1.81 225.789 66.028
1.82 221.179 65.815
1.83 216.986 65.682
1.84 212.110 65.476
1.85 207.485 65.276
1.86 202.615 65.117
1.87 196.632 65.231
1.88 190.599 66.265
1.89 193.335 67.538
1.90 193.883 68.390
1.91 194.720 69.039
1.92 197.366 69.497
1.93 202.054 69.674
1.94 211.723 70.308
1.95 218.935 71.607
1.96 227.613 72.300
1.97 237.639 71.821
1.98 241.240 70.189
1.99 240.113 67.230
2.00 233.712 63.304
2.01 229.802 59.919
2.02 225.539 57.416
2.03 230.560 58.038
2.04 244.957 62.938
2.05 253.117 67.129
2.06 259.199 69.345
2.07 257.081 69.822
2.08 256.290 68.949
2.09 257.244 67.355
2.10 259.006 66.263
2.11 259.500 66.448
2.12 257.811 66.518
2.13 252.295 65.363
2.14 243.890 62.741
2.15 240.777 58.566
2.16 251.289 54.268
2.17 --undefined-- 55.840
2.18 --undefined-- 61.318
2.19 --undefined-- 65.407
2.20 --undefined-- 67.485
2.21 --undefined-- 68.467
2.22 --undefined-- 69.264
2.23 171.939 69.928
2.24 169.430 69.916
2.25 168.226 69.252
2.26 169.610 68.564
2.27 171.271 68.004
2.28 172.264 67.252
2.29 172.335 65.975
2.30 171.539 64.811
2.31 173.034 64.794
2.32 171.418 64.806
2.33 169.661 64.538
2.34 170.056 64.606
2.35 172.427 65.257
2.36 169.360 66.465
2.37 169.415 67.873
2.38 169.354 69.066
2.39 170.555 69.694
2.40 173.203 69.351
2.41 177.116 68.238
2.42 181.053 67.400
2.43 185.160 67.094
2.44 189.699 66.990
2.45 194.112 67.170
2.46 199.101 67.372
2.47 207.132 67.640
2.48 214.710 68.124
2.49 218.851 68.465
2.50 224.590 68.409
2.51 227.518 67.533
2.52 227.654 65.626
2.53 226.273 62.824
2.54 206.132 59.209
2.55 222.679 55.922
2.56 231.755 55.882
2.57 --undefined-- 56.911
2.58 --undefined-- 55.740
2.59 --undefined-- 52.468
2.60 --undefined-- 51.099
2.61 --undefined-- 51.681
2.62 290.207 53.445
2.63 248.466 56.675
2.64 199.273 60.211
2.65 181.456 64.290
2.66 178.447 67.331
2.67 177.262 68.738
2.68 177.040 68.828
2.69 178.410 67.955
2.70 181.904 65.998
2.71 181.770 62.478
2.72 181.195 57.426
2.73 176.759 53.458
2.74 173.633 53.290
2.75 --undefined-- 53.824
2.76 --undefined-- 59.867
2.77 232.388 65.773
2.78 231.075 68.512
2.79 215.330 69.286
2.80 214.537 69.645
2.81 214.395 69.775
2.82 215.658 69.722
2.83 217.903 69.736
2.84 220.684 69.800
2.85 223.064 69.945
2.86 224.579 70.235
2.87 226.033 70.614
2.88 228.169 70.968
2.89 229.831 71.100
2.90 230.432 70.713
2.91 231.858 69.708
2.92 232.182 68.064
2.93 231.257 66.125
2.94 229.012 64.476
2.95 211.909 62.945
2.96 --undefined-- 61.745
2.97 --undefined-- 60.220
2.98 --undefined-- 57.827
2.99 --undefined-- 56.224
3.00 --undefined-- 55.451
3.01 --undefined-- 55.517
3.02 --undefined-- 56.705
3.03 --undefined-- 58.025
3.04 --undefined-- 59.234
3.05 105.469 61.121
3.06 108.911 64.932
3.07 231.022 69.522
3.08 233.303 72.278
3.09 236.064 72.580
3.10 232.577 71.746
3.11 238.649 71.540
3.12 246.673 71.218
3.13 257.892 70.450
3.14 269.056 69.818
3.15 289.323 69.401
3.16 155.253 69.031
3.17 155.984 68.168
3.18 152.459 66.703
3.19 294.539 64.358
3.20 289.883 60.315
3.21 289.930 54.580
3.22 283.254 50.881
3.23 293.200 49.842
3.24 --undefined-- 49.758
3.25 --undefined-- 50.610
3.26 --undefined-- 52.238
3.27 --undefined-- 57.017
3.28 224.261 62.000
3.29 206.446 65.745
3.30 204.765 67.701
3.31 206.461 67.527
3.32 210.415 65.371
3.33 210.493 61.853
3.34 195.681 58.207
3.35 196.625 55.257
3.36 --undefined-- 54.085
3.37 --undefined-- 57.566
3.38 --undefined-- 63.264
3.39 249.203 67.652
3.40 250.473 69.544
3.41 249.494 69.346
3.42 251.837 68.366
3.43 256.938 67.887
3.44 261.589 67.814
3.45 266.541 67.803
3.46 270.073 67.870
3.47 275.625 68.352
3.48 279.469 69.044
3.49 283.003 69.354
3.50 283.886 68.766
3.51 281.895 66.725
3.52 275.738 62.962
3.53 269.360 60.140
3.54 166.055 63.875
3.55 166.146 67.280
3.56 166.725 69.068
3.57 168.094 70.304
3.58 169.173 71.394
3.59 170.374 72.250
3.60 171.102 72.833
3.61 171.528 73.161
3.62 171.623 73.181
3.63 171.336 72.760
3.64 170.626 71.741
3.65 168.800 69.968
3.66 163.421 67.338
3.67 155.258 63.593
3.68 170.045 58.575
3.69 170.550 53.761
3.70 170.511 50.703
3.71 --undefined-- 50.174
3.72 --undefined-- 52.862
3.73 --undefined-- 55.956
3.74 --undefined-- 60.701
3.75 296.767 64.597
3.76 279.090 66.344
3.77 278.356 66.893
3.78 279.239 67.236
3.79 280.063 67.495
3.80 278.347 67.646
3.81 275.156 68.065
3.82 266.527 68.701
3.83 257.497 69.337
3.84 244.500 70.282
3.85 229.776 71.533
3.86 211.203 72.487
3.87 199.883 72.319
3.88 186.514 70.683
3.89 185.153 68.269
3.90 188.075 66.179
3.91 189.774 63.916
3.92 --undefined-- 60.615
3.93 --undefined-- 56.778
3.94 --undefined-- 53.125
3.95 --undefined-- 50.294
3.96 --undefined-- 48.592
3.97 --undefined-- 48.212
3.98 --undefined-- 47.969
3.99 --undefined-- 48.651
4.00 --undefined-- 50.877
4.01 --undefined-- 53.304
4.02 278.098 59.653
4.03 270.140 65.402
4.04 265.513 68.377
4.05 264.678 69.590
4.06 266.196 69.720
4.07 268.474 69.052
4.08 271.716 68.231
4.09 273.355 67.954
4.10 274.640 67.676
4.11 276.154 66.987
4.12 273.682 66.559
4.13 268.802 66.559
4.14 267.237 66.471
4.15 263.432 66.046
4.16 257.110 65.659
4.17 250.962 65.854
4.18 244.549 66.764
4.19 238.401 67.970
4.20 228.622 68.931
4.21 217.641 69.107
4.22 202.624 68.585
4.23 191.630 68.308
4.24 187.182 68.247
4.25 181.437 67.740
4.26 171.810 67.657
4.27 164.348 68.408
4.28 155.501 68.867
4.29 152.799 69.144
4.30 152.601 69.038
4.31 150.603 68.045
4.32 147.917 66.829
4.33 146.478 66.218
4.34 147.695 66.337
4.35 148.716 67.063
4.36 150.793 67.593
4.37 152.690 67.669
4.38 154.942 67.387
4.39 156.551 66.728
4.40 158.776 65.891
4.41 161.969 65.101
4.42 163.630 64.243
4.43 164.595 63.183
4.44 168.746 62.564
4.45 173.388 62.919
4.46 179.589 63.882
4.47 184.788 64.825
4.48 186.346 65.128
4.49 186.993 64.340
4.50 185.902 62.122
4.51 185.887 58.604
4.52 --undefined-- 56.295
4.53 --undefined-- 57.476
4.54 --undefined-- 60.926
4.55 193.141 63.837
4.56 187.035 65.601
4.57 184.461 66.217
4.58 182.859 65.561
4.59 180.177 63.421
4.60 179.890 59.597
4.61 184.632 55.668
4.62 185.729 53.038
4.63 182.898 50.863
4.64 --undefined-- 50.003
4.65 --undefined-- 51.594
4.66 --undefined-- 53.709
4.67 --undefined-- 57.821
4.68 --undefined-- 63.072
4.69 178.936 66.699
4.70 173.444 68.475
4.71 168.209 68.923
4.72 165.208 68.700
4.73 163.528 68.183
4.74 162.266 67.564
4.75 160.997 66.773
4.76 161.662 65.974
4.77 160.928 66.017
4.78 159.193 66.565
4.79 165.372 66.381
4.80 167.169 65.486
4.81 169.453 64.058
4.82 168.118 61.202
4.83 166.758 56.549
4.84 168.434 53.911
4.85 168.312 53.958
4.86 166.762 54.545
4.87 203.703 57.279
4.88 182.703 59.443
4.89 180.420 60.988
4.90 177.824 62.687
4.91 162.071 64.424
4.92 156.597 65.832
4.93 154.637 67.008
4.94 154.848 67.899
4.95 154.981 68.223
4.96 155.155 67.993
4.97 157.368 67.542
4.98 160.236 --undefined--
4.99 168.949 --undefined--
5.00 --undefined-- --undefined--
5.01 --undefined-- --undefined--
