Time Pitch Intensity
0.01 --undefined-- --undefined--
0.02 181.463 --undefined--
0.03 176.146 --undefined--
0.04 170.110 --undefined--
0.05 167.559 73.398
0.06 165.178 71.666
0.07 163.714 69.476
0.08 156.325 67.453
0.09 146.358 65.002
0.10 145.346 62.242
0.11 142.013 60.598
0.12 --undefined-- 61.199
0.13 --undefined-- 63.338
0.14 --undefined-- 63.775
0.15 --undefined-- 61.709
0.16 --undefined-- 57.928
0.17 --undefined-- 54.903
0.18 --undefined-- 55.048
0.19 --undefined-- 56.259
0.20 --undefined-- 56.293
0.21 --undefined-- 54.664
0.22 --undefined-- 54.739
0.23 --undefined-- 56.787
0.24 --undefined-- 58.311
0.25 --undefined-- 58.504
0.26 --undefined-- 57.949
0.27 --undefined-- 57.197
0.28 --undefined-- 55.299
0.29 290.681 55.610
0.30 289.520 58.971
0.31 288.926 60.169
0.32 266.392 58.899
0.33 265.761 58.075
0.34 --undefined-- 57.346
0.35 --undefined-- 55.690
0.36 --undefined-- 55.906
0.37 --undefined-- 56.309
0.38 --undefined-- 55.762
0.39 --undefined-- 55.086
0.40 --undefined-- 54.005
0.41 --undefined-- 54.045
0.42 --undefined-- 55.521
0.43 --undefined-- 55.383
0.44 --undefined-- 53.583
0.45 --undefined-- 53.055
0.46 --undefined-- 53.694
0.47 --undefined-- 54.656
0.48 --undefined-- 55.064
0.49 --undefined-- 55.314
0.50 --undefined-- 56.604
0.51 --undefined-- 56.072
0.52 --undefined-- 53.189
0.53 --undefined-- 53.578
0.54 --undefined-- 57.176
0.55 --undefined-- 59.828
0.56 --undefined-- 60.338
0.57 --undefined-- 60.894
0.58 --undefined-- 65.373
0.59 287.234 69.776
0.60 281.712 72.615
0.61 283.702 74.197
0.62 289.379 74.960
0.63 297.344 75.571
0.64 151.577 76.449
0.65 153.015 76.911
0.66 154.499 76.315
0.67 156.129 74.586
0.68 155.172 72.102
0.69 152.736 68.922
0.70 --undefined-- 65.230
0.71 --undefined-- 62.806
0.72 162.659 65.356
0.73 165.876 69.404
0.74 165.910 71.452
0.75 169.467 72.145
0.76 173.014 72.335
0.77 175.978 72.373
0.78 177.750 72.914
0.79 184.660 74.318
0.80 190.140 75.545
0.81 195.221 75.730
0.82 198.044 75.114
0.83 197.996 74.851
0.84 194.819 76.019
0.85 191.725 77.590
0.86 188.755 78.151
0.87 183.050 76.974
0.88 174.290 73.913
0.89 162.149 70.772
0.90 160.320 70.033
0.91 --undefined-- 69.265
0.92 --undefined-- 68.137
0.93 --undefined-- 67.818
0.94 --undefined-- 67.968
0.95 --undefined-- 68.013
0.96 268.441 68.397
0.97 291.657 70.280
0.98 --undefined-- 72.416
0.99 --undefined-- 73.841
1.00 244.531 74.390
1.01 233.609 73.826
1.02 228.743 72.345
1.03 227.222 70.779
1.04 226.332 69.873
1.05 222.557 68.527
1.06 210.409 65.872
1.07 207.143 62.418
1.08 212.485 58.851
1.09 227.504 58.461
1.10 --undefined-- 60.837
1.11 --undefined-- 63.262
1.12 --undefined-- 66.034
1.13 208.710 68.844
1.14 220.000 70.277
1.15 204.435 70.470
1.16 204.419 70.392
1.17 206.287 70.564
1.18 210.696 71.139
1.19 215.801 71.528
1.20 225.704 70.914
1.21 242.122 69.431
1.22 249.307 68.342
1.23 255.833 67.888
1.24 255.849 66.395
1.25 238.424 62.819
1.26 --undefined-- 58.341
1.27 --undefined-- 57.042
1.28 --undefined-- 57.038
1.29 --undefined-- 57.602
1.30 277.232 60.768
1.31 276.740 63.557
1.32 --undefined-- 64.014
1.33 --undefined-- 63.794
1.34 --undefined-- 65.816
1.35 194.872 68.880
1.36 191.721 71.515
1.37 189.674 73.127
1.38 189.455 73.614
1.39 191.340 73.041
1.40 193.161 71.811
1.41 194.113 70.589
1.42 193.303 69.878
1.43 192.596 69.830
1.44 191.793 69.906
1.45 191.495 69.561
1.46 191.000 68.432
1.47 189.231 65.857
1.48 186.752 62.202
1.49 --undefined-- 60.447
1.50 --undefined-- 58.739
1.51 --undefined-- 57.651
1.52 243.096 61.601
1.53 217.950 64.796
1.54 202.430 66.823
1.55 190.603 68.196
1.56 184.295 68.794
1.57 181.331 68.628
1.58 174.076 68.094
1.59 171.161 67.782
1.60 169.907 67.849
1.61 168.954 68.213
1.62 168.574 68.395
1.63 168.736 68.503
1.64 170.048 69.302
1.65 172.654 69.701
1.66 175.301 69.018
1.67 178.323 68.332
1.68 181.503 68.423
1.69 189.651 69.006
1.70 196.828 69.335
1.71 202.473 69.913
1.72 213.600 72.160
1.73 217.307 74.780
1.74 223.795 76.806
1.75 228.880 78.254
1.76 233.794 78.798
1.77 238.841 78.340
1.78 242.186 77.427
1.79 242.253 77.038
1.80 239.198 77.139
1.81 235.015 77.096
1.82 228.319 76.588
1.83 218.377 75.690
1.84 --undefined-- 75.503
1.85 --undefined-- 75.740
1.86 84.973 74.880
1.87 84.052 72.994
1.88 82.324 70.806
1.89 --undefined-- 67.936
1.90 --undefined-- 64.171
1.91 --undefined-- 61.454
1.92 --undefined-- 60.509
1.93 --undefined-- 61.110
1.94 --undefined-- 60.417
1.95 --undefined-- 57.016
1.96 --undefined-- 54.689
1.97 --undefined-- 55.368
1.98 --undefined-- 55.831
1.99 --undefined-- 57.460
2.00 289.817 60.055
2.01 286.129 60.202
2.02 271.254 58.129
2.03 --undefined-- 57.864
2.04 --undefined-- 57.702
2.05 --undefined-- 56.584
2.06 --undefined-- 58.774
2.07 277.501 61.183
2.08 278.944 61.713
2.09 280.573 61.898
2.10 --undefined-- 61.640
2.11 --undefined-- 59.367
2.12 --undefined-- 55.369
2.13 --undefined-- 52.894
2.14 --undefined-- 54.713
2.15 --undefined-- 58.466
2.16 271.264 60.010
2.17 --undefined-- 60.360
2.18 --undefined-- 62.157
2.19 --undefined-- 62.715
2.20 --undefined-- 62.544
2.21 297.640 64.528
2.22 253.830 65.866
2.23 238.032 66.381
2.24 247.153 68.396
2.25 255.304 71.723
2.26 257.094 74.300
2.27 259.734 75.388
2.28 262.547 75.077
2.29 267.665 74.076
2.30 273.989 73.845
2.31 277.754 74.280
2.32 282.854 74.259
2.33 284.428 73.897
2.34 286.466 73.580
2.35 288.931 73.243
2.36 285.421 72.723
2.37 278.595 72.061
2.38 271.636 71.403
2.39 267.593 71.574
2.40 262.538 72.644
2.41 257.530 73.236
2.42 259.438 73.297
2.43 266.553 73.372
2.44 275.653 73.374
2.45 291.956 72.874
2.46 170.247 72.540
2.47 179.055 73.499
2.48 186.464 74.721
2.49 191.634 75.232
2.50 195.330 74.735
2.51 194.607 74.093
2.52 188.586 74.655
2.53 184.574 75.093
2.54 180.110 74.298
2.55 177.911 72.974
2.56 176.619 72.272
2.57 --undefined-- 72.136
2.58 --undefined-- 71.863
2.59 --undefined-- 71.162
2.60 240.601 70.350
2.61 224.069 69.748
2.62 214.787 70.077
2.63 201.915 70.888
2.64 197.274 71.370
2.65 185.722 71.616
2.66 182.349 71.503
2.67 182.795 70.678
2.68 188.163 69.590
2.69 197.268 68.592
2.70 203.655 67.011
2.71 211.817 64.770
2.72 220.565 63.020
2.73 257.020 64.116
2.74 298.072 67.664
2.75 161.674 70.459
2.76 175.664 72.212
2.77 188.184 73.571
2.78 195.102 74.039
2.79 202.783 72.719
2.80 205.694 69.834
2.81 198.371 66.589
2.82 187.760 63.412
2.83 191.714 59.861
2.84 --undefined-- 55.055
2.85 --undefined-- 49.967
2.86 --undefined-- 48.844
2.87 --undefined-- 50.528
2.88 --undefined-- 52.944
2.89 --undefined-- 54.801
2.90 --undefined-- 56.088
2.91 --undefined-- 57.156
2.92 --undefined-- 57.296
2.93 --undefined-- 57.646
2.94 --undefined-- 61.123
2.95 162.787 66.478
2.96 155.503 69.453
2.97 287.537 69.838
2.98 269.413 69.064
2.99 258.112 68.356
3.00 250.486 67.970
3.01 247.512 68.473
3.02 247.456 69.769
3.03 247.525 70.718
3.04 238.506 70.746
3.05 228.241 70.698
3.06 223.400 71.118
3.07 219.051 71.265
3.08 214.592 71.135
3.09 214.135 71.529
3.10 215.600 72.420
3.11 218.117 73.274
3.12 222.703 74.011
3.13 229.741 74.965
3.14 237.360 75.517
3.15 248.239 74.566
3.16 261.781 72.150
3.17 277.304 69.073
3.18 280.879 65.605
3.19 265.120 63.852
3.20 256.013 64.406
3.21 254.933 63.835
3.22 --undefined-- 64.044
3.23 285.370 64.468
3.24 283.856 62.210
3.25 --undefined-- 57.935
3.26 --undefined-- 57.254
3.27 286.060 62.203
3.28 291.338 67.039
3.29 286.523 69.222
3.30 251.804 69.014
3.31 232.956 67.909
3.32 220.698 66.973
3.33 207.398 65.106
3.34 193.381 61.850
3.35 186.994 58.193
3.36 206.629 58.680
3.37 226.879 64.674
3.38 226.002 68.931
3.39 221.625 70.488
3.40 202.766 70.310
3.41 199.996 70.039
3.42 199.818 69.959
3.43 200.705 69.480
3.44 200.761 67.994
3.45 190.529 64.970
3.46 188.801 60.438
3.47 198.397 55.350
3.48 --undefined-- 51.296
3.49 --undefined-- 50.288
3.50 --undefined-- 51.441
3.51 --undefined-- 52.270
3.52 --undefined-- 52.523
3.53 --undefined-- 52.420
3.54 --undefined-- 54.202
3.55 --undefined-- 60.240
3.56 203.083 65.730
3.57 200.646 69.615
3.58 198.031 72.371
3.59 197.396 74.251
3.60 197.397 75.213
3.61 196.023 75.411
3.62 196.456 75.245
3.63 195.874 74.894
3.64 195.443 74.395
3.65 195.350 73.789
3.66 194.619 73.034
3.67 193.071 72.143
3.68 193.153 71.345
3.69 195.163 70.532
3.70 194.837 69.762
3.71 194.846 69.374
3.72 195.842 69.276
3.73 196.850 69.160
3.74 198.004 69.008
3.75 198.339 68.926
3.76 198.765 68.558
3.77 196.645 68.211
3.78 191.090 69.320
3.79 190.358 71.754
3.80 192.802 73.449
3.81 193.398 73.589
3.82 191.663 72.657
3.83 190.041 71.454
3.84 193.728 69.761
3.85 123.522 67.130
3.86 119.672 64.246
3.87 --undefined-- 60.990
3.88 --undefined-- 58.150
3.89 --undefined-- 57.355
3.90 --undefined-- 56.552
3.91 --undefined-- 57.105
3.92 --undefined-- 59.404
3.93 --undefined-- 60.849
3.94 --undefined-- 62.234
3.95 --undefined-- 63.487
3.96 184.899 63.783
3.97 180.570 63.871
3.98 177.729 64.121
3.99 174.999 64.480
4.00 176.358 65.363
4.01 175.950 66.715
4.02 174.420 67.784
4.03 172.661 68.500
4.04 171.558 69.006
4.05 172.296 68.982
4.06 172.760 68.272
4.07 174.302 67.675
4.08 175.945 67.837
4.09 176.744 67.875
4.10 175.632 67.347
4.11 177.737 67.084
4.12 178.826 67.283
4.13 178.056 67.497
4.14 177.510 67.778
4.15 178.074 68.002
4.16 179.529 67.952
4.17 181.723 68.014
4.18 183.877 68.346
4.19 186.435 68.684
4.20 188.179 69.054
4.21 189.784 69.397
4.22 191.885 69.428
4.23 194.291 69.175
4.24 197.899 69.074
4.25 197.595 70.075
4.26 195.544 72.031
4.27 195.502 73.621
4.28 194.964 74.556
4.29 194.096 75.113
4.30 193.718 75.273
4.31 194.286 74.685
4.32 194.947 73.370
4.33 194.991 71.825
4.34 195.145 70.531
4.35 197.206 69.223
4.36 202.932 68.002
4.37 213.571 67.862
4.38 219.651 68.300
4.39 228.247 68.331
4.40 237.783 67.639
4.41 249.466 66.972
4.42 260.204 67.385
4.43 279.764 68.682
4.44 287.708 69.859
4.45 294.292 70.605
4.46 151.563 71.051
4.47 153.303 70.983
4.48 153.354 70.632
4.49 150.760 70.583
4.50 291.613 70.757
4.51 275.288 71.532
4.52 256.869 72.758
4.53 247.448 72.918
4.54 238.227 71.303
4.55 230.070 68.384
4.56 222.174 64.788
4.57 189.963 62.697
4.58 197.505 63.930
4.59 --undefined-- 64.497
4.60 --undefined-- 62.882
4.61 --undefined-- 60.845
4.62 --undefined-- 59.778
4.63 --undefined-- 57.642
4.64 --undefined-- 55.502
4.65 --undefined-- 56.791
4.66 --undefined-- 59.696
4.67 265.639 63.596
4.68 256.104 66.297
4.69 248.657 66.801
4.70 244.514 66.354
4.71 242.344 66.373
4.72 241.466 66.461
4.73 239.855 65.983
4.74 237.665 65.300
4.75 228.214 64.018
4.76 218.801 61.105
4.77 --undefined-- 56.665
4.78 --undefined-- 54.087
4.79 --undefined-- 54.827
4.80 --undefined-- 55.243
4.81 --undefined-- 54.361
4.82 --undefined-- 55.252
4.83 --undefined-- 61.889
4.84 283.322 66.364
4.85 259.351 67.822
4.86 240.045 67.528
4.87 235.611 67.093
4.88 232.200 66.890
4.89 230.911 66.392
4.90 229.691 64.816
4.91 216.223 62.468
4.92 221.123 --undefined--
4.93 232.345 --undefined--
4.94 --undefined-- --undefined--
4.95 --undefined-- --undefined--
