Time Pitch Intensity
0.01 --undefined-- --undefined--
0.02 120.939 --undefined--
0.03 123.176 --undefined--
0.04 123.082 --undefined--
0.05 --undefined-- 45.172
0.06 --undefined-- 44.809
0.07 --undefined-- 44.625
0.08 --undefined-- 44.337
0.09 --undefined-- 44.636
0.10 --undefined-- 50.203
0.11 --undefined-- 59.850
0.12 211.511 66.125
0.13 193.027 69.363
0.14 177.604 70.791
0.15 165.487 71.552
0.16 156.386 72.172
0.17 153.901 72.549
0.18 149.817 72.204
0.19 143.885 71.375
0.20 141.816 70.853
0.21 140.318 70.704
0.22 138.247 70.467
0.23 135.599 70.197
0.24 133.544 70.150
0.25 130.450 70.409
0.26 128.341 70.848
0.27 127.699 70.962
0.28 126.994 70.651
0.29 125.638 70.535
0.30 124.623 70.798
0.31 123.745 71.039
0.32 123.320 70.842
0.33 123.071 70.040
0.34 122.030 68.786
0.35 120.501 67.463
0.36 118.771 66.591
0.37 114.498 66.126
0.38 114.179 66.307
0.39 113.906 66.849
0.40 113.349 67.214
0.41 112.729 67.391
0.42 111.646 67.350
0.43 110.284 67.093
0.44 108.692 66.840
0.45 108.154 66.724
0.46 107.845 66.669
0.47 105.411 66.396
0.48 101.023 65.753
0.49 95.676 64.933
0.50 88.358 64.405
0.51 82.774 64.156
0.52 82.916 63.395
0.53 86.900 61.459
0.54 101.942 58.689
0.55 99.703 55.375
0.56 97.869 51.465
0.57 --undefined-- 47.340
0.58 --undefined-- 43.360
0.59 --undefined-- 39.762
0.60 --undefined-- 37.244
0.61 --undefined-- 35.374
0.62 --undefined-- 34.499
0.63 --undefined-- 35.144
0.64 --undefined-- 35.033
0.65 --undefined-- 34.827
0.66 --undefined-- 35.845
0.67 --undefined-- 36.644
0.68 --undefined-- 37.108
0.69 --undefined-- 38.510
0.70 --undefined-- 39.459
0.71 --undefined-- 39.688
0.72 --undefined-- 39.208
0.73 --undefined-- 38.737
0.74 --undefined-- 38.317
0.75 --undefined-- 36.574
0.76 --undefined-- 34.608
0.77 --undefined-- 34.046
0.78 --undefined-- 35.068
0.79 --undefined-- 36.425
0.80 --undefined-- 37.188
0.81 --undefined-- 37.454
0.82 --undefined-- 36.868
0.83 --undefined-- 36.297
0.84 --undefined-- 36.358
0.85 --undefined-- 39.179
0.86 --undefined-- 49.589
0.87 --undefined-- 58.327
0.88 --undefined-- 63.814
0.89 210.687 66.973
0.90 212.279 68.204
0.91 225.970 68.566
0.92 239.217 69.077
0.93 249.421 69.754
0.94 262.553 70.958
0.95 275.161 72.603
0.96 284.984 74.123
0.97 290.963 75.111
0.98 293.821 75.552
0.99 294.787 75.871
1.00 295.357 76.148
1.01 293.906 75.889
1.02 285.943 74.760
1.03 271.992 72.835
1.04 259.672 70.600
1.05 248.464 69.041
1.06 244.084 68.910
1.07 237.740 69.218
1.08 232.700 69.432
1.09 224.225 69.407
1.10 213.817 69.388
1.11 200.036 69.464
1.12 186.443 69.724
1.13 175.510 70.578
1.14 173.410 71.769
1.15 170.299 72.335
1.16 166.770 71.673
1.17 165.242 70.124
1.18 168.766 69.075
1.19 168.569 68.512
1.20 167.506 67.226
1.21 167.821 64.835
1.22 170.519 61.171
1.23 173.335 56.485
1.24 168.430 52.015
1.25 166.566 51.958
1.26 --undefined-- 59.578
1.27 --undefined-- 65.627
1.28 --undefined-- 68.820
1.29 159.841 70.111
1.30 153.159 70.496
1.31 144.309 70.873
1.32 142.557 71.475
1.33 141.957 71.841
1.34 141.868 71.892
1.35 143.498 72.035
1.36 146.704 72.264
1.37 150.456 72.377
1.38 159.795 72.684
1.39 163.539 72.818
1.40 169.448 72.251
1.41 179.502 71.627
1.42 185.601 71.405
1.43 189.120 71.479
1.44 194.673 71.390
1.45 201.218 71.089
1.46 208.243 71.053
1.47 211.408 71.069
1.48 213.847 70.679
1.49 216.158 70.046
1.50 216.886 69.569
1.51 214.396 69.019
1.52 208.953 67.857
1.53 201.571 65.963
1.54 199.300 63.878
1.55 193.344 62.978
1.56 183.065 63.176
1.57 176.643 63.757
1.58 176.360 64.859
1.59 176.452 66.121
1.60 173.007 67.289
1.61 168.339 68.424
1.62 164.013 69.236
1.63 158.381 69.730
1.64 155.181 70.314
1.65 152.985 70.851
1.66 150.268 71.040
1.67 147.608 71.090
1.68 144.896 70.987
1.69 142.349 70.593
1.70 140.321 69.968
1.71 138.715 69.335
1.72 139.481 69.139
1.73 141.488 69.338
1.74 143.205 69.754
1.75 146.434 70.457
1.76 149.750 70.953
1.77 153.165 70.825
1.78 158.635 70.373
1.79 163.628 70.044
1.80 169.702 69.798
1.81 173.053 69.540
1.82 183.172 69.164
1.83 186.370 68.531
1.84 186.301 67.748
1.85 183.918 67.253
1.86 180.285 67.529
1.87 176.648 68.515
1.88 175.049 69.591
1.89 172.944 70.208
1.90 169.542 70.068
1.91 166.062 69.166
1.92 162.536 67.792
1.93 159.272 66.922
1.94 159.151 67.071
1.95 157.750 66.986
1.96 155.446 66.076
1.97 152.418 64.369
1.98 154.492 62.590
1.99 163.337 62.514
2.00 161.469 63.529
2.01 155.035 64.229
2.02 147.455 64.452
2.03 144.680 64.540
2.04 122.026 64.370
2.05 113.308 63.688
2.06 105.989 62.724
2.07 98.800 61.790
2.08 95.127 60.796
2.09 91.055 60.180
2.10 99.706 60.801
2.11 101.404 61.381
2.12 106.620 61.277
2.13 108.577 60.498
2.14 108.321 58.373
2.15 107.943 54.607
2.16 --undefined-- 50.555
2.17 --undefined-- 53.090
2.18 --undefined-- 58.902
2.19 123.677 62.446
2.20 123.496 63.723
2.21 120.578 63.685
2.22 117.354 63.377
2.23 114.769 63.620
2.24 108.869 63.899
2.25 108.619 63.371
2.26 111.550 62.424
2.27 116.694 61.532
2.28 117.521 60.513
2.29 112.756 58.942
2.30 112.361 56.386
2.31 114.408 52.472
2.32 --undefined-- 48.144
2.33 --undefined-- 45.598
2.34 --undefined-- 45.647
2.35 --undefined-- 54.280
2.36 --undefined-- 62.136
2.37 --undefined-- 66.652
2.38 157.143 68.632
2.39 157.062 69.067
2.40 157.516 68.829
2.41 157.065 68.504
2.42 156.892 68.251
2.43 161.195 67.794
2.44 161.086 67.058
2.45 160.405 66.137
2.46 159.917 64.651
2.47 156.785 61.917
2.48 158.130 57.785
2.49 158.913 53.298
2.50 158.922 49.043
2.51 --undefined-- 45.004
2.52 --undefined-- 43.219
2.53 --undefined-- 42.599
2.54 --undefined-- 41.590
2.55 --undefined-- 46.284
2.56 --undefined-- 55.061
2.57 --undefined-- 60.579
2.58 133.402 63.551
2.59 131.878 65.202
2.60 112.227 65.877
2.61 108.214 65.769
2.62 107.665 65.560
2.63 107.733 65.474
2.64 109.493 65.541
2.65 112.480 65.812
2.66 114.797 65.745
2.67 118.243 65.124
2.68 122.018 64.432
2.69 125.537 63.959
2.70 127.248 64.158
2.71 131.003 64.868
2.72 134.842 65.487
2.73 139.802 66.254
2.74 139.375 67.210
2.75 141.948 68.060
2.76 146.409 68.840
2.77 145.905 69.237
2.78 146.305 69.067
2.79 147.084 68.619
2.80 147.564 67.988
2.81 146.968 67.054
2.82 144.659 65.715
2.83 144.760 63.842
2.84 149.236 61.247
2.85 158.620 57.660
2.86 147.254 52.697
2.87 --undefined-- 46.954
2.88 --undefined-- 43.921
2.89 --undefined-- 42.395
2.90 --undefined-- 41.213
2.91 --undefined-- 40.964
2.92 --undefined-- 40.421
2.93 --undefined-- 39.883
2.94 --undefined-- 40.268
2.95 --undefined-- 41.326
2.96 --undefined-- 41.576
2.97 --undefined-- 40.977
2.98 --undefined-- 40.545
2.99 --undefined-- 40.697
3.00 --undefined-- 40.814
3.01 --undefined-- 40.406
3.02 --undefined-- 39.199
3.03 --undefined-- 37.357
3.04 --undefined-- 35.853
3.05 --undefined-- 34.301
3.06 --undefined-- 33.352
3.07 --undefined-- 34.475
3.08 --undefined-- 35.222
3.09 --undefined-- 35.024
3.10 --undefined-- 34.592
3.11 --undefined-- 34.785
3.12 --undefined-- 35.877
3.13 --undefined-- 37.490
3.14 --undefined-- 41.490
3.15 --undefined-- 52.542
3.16 --undefined-- 61.156
3.17 --undefined-- 66.078
3.18 --undefined-- 68.453
3.19 --undefined-- 69.371
3.20 --undefined-- 69.599
3.21 --undefined-- 69.586
3.22 --undefined-- 69.210
3.23 111.849 68.425
3.24 111.348 67.499
3.25 112.411 66.836
3.26 112.774 66.538
3.27 111.952 66.006
3.28 109.700 65.220
3.29 108.589 64.722
3.30 109.023 64.683
3.31 109.929 64.910
3.32 110.798 65.099
3.33 113.453 65.333
3.34 115.050 65.609
3.35 112.720 65.408
3.36 --undefined-- 64.523
3.37 259.555 63.214
3.38 268.063 60.367
3.39 272.902 55.176
3.40 262.018 49.799
3.41 --undefined-- 45.006
3.42 --undefined-- 41.069
3.43 --undefined-- 40.820
3.44 --undefined-- 48.443
3.45 --undefined-- 55.665
3.46 120.644 60.065
3.47 116.891 62.821
3.48 116.522 64.555
3.49 110.862 65.194
3.50 110.156 65.046
3.51 109.295 64.824
3.52 108.417 64.644
3.53 107.465 64.323
3.54 107.676 64.119
3.55 108.085 64.107
3.56 108.262 64.158
3.57 107.425 64.242
3.58 106.439 64.224
3.59 106.952 64.148
3.60 107.897 64.050
3.61 109.088 63.780
3.62 109.828 63.437
3.63 109.894 63.184
3.64 110.596 63.029
3.65 112.454 62.965
3.66 112.772 63.069
3.67 110.458 63.176
3.68 102.139 63.024
3.69 83.822 62.495
3.70 --undefined-- 61.234
3.71 --undefined-- 59.978
3.72 83.579 60.180
3.73 87.205 61.864
3.74 107.552 64.268
3.75 113.321 66.342
3.76 121.173 67.456
3.77 127.198 68.032
3.78 128.932 68.524
3.79 126.555 68.768
3.80 122.855 68.978
3.81 120.090 69.049
3.82 118.137 68.513
3.83 117.986 67.426
3.84 119.634 66.379
3.85 120.589 65.904
3.86 121.273 65.877
3.87 122.090 65.932
3.88 122.942 66.087
3.89 123.546 66.592
3.90 124.207 67.156
3.91 124.620 67.272
3.92 124.650 66.853
3.93 124.696 66.173
3.94 124.616 65.405
3.95 123.215 64.332
3.96 120.154 62.584
3.97 116.925 59.881
3.98 113.840 55.923
3.99 123.267 50.907
4.00 --undefined-- 46.774
4.01 --undefined-- 44.642
4.02 --undefined-- 42.722
4.03 --undefined-- 40.573
4.04 --undefined-- 38.378
4.05 --undefined-- 36.748
4.06 --undefined-- 36.825
4.07 --undefined-- 37.848
4.08 --undefined-- 41.704
4.09 --undefined-- 48.547
4.10 --undefined-- 58.256
4.11 --undefined-- 65.529
4.12 --undefined-- 69.263
4.13 188.671 70.315
4.14 185.982 69.888
4.15 185.227 69.067
4.16 183.495 68.778
4.17 180.728 69.035
4.18 177.518 69.460
4.19 174.079 69.991
4.20 175.886 70.387
4.21 178.196 70.372
4.22 181.077 70.045
4.23 183.188 69.554
4.24 183.503 69.103
4.25 182.631 68.954
4.26 181.599 69.121
4.27 180.446 69.479
4.28 178.892 69.997
4.29 178.047 70.582
4.30 176.797 70.993
4.31 175.271 70.960
4.32 172.397 70.054
4.33 169.566 67.761
4.34 169.471 63.775
4.35 172.374 58.075
4.36 174.252 51.881
4.37 172.806 47.294
4.38 170.965 47.012
4.39 --undefined-- 52.660
4.40 --undefined-- 60.903
4.41 --undefined-- 66.176
4.42 --undefined-- 68.801
4.43 --undefined-- 69.970
4.44 --undefined-- 70.319
4.45 --undefined-- 70.238
4.46 --undefined-- 69.775
4.47 --undefined-- 68.953
4.48 116.726 68.081
4.49 114.463 67.337
4.50 113.922 66.684
4.51 114.449 66.090
4.52 116.128 65.633
4.53 117.441 65.374
4.54 118.036 65.118
4.55 116.158 64.896
4.56 120.577 64.706
4.57 118.844 64.763
4.58 118.475 64.985
4.59 117.967 64.979
4.60 118.576 64.689
4.61 115.205 64.346
4.62 109.844 63.582
4.63 102.358 61.832
4.64 --undefined-- 59.362
4.65 --undefined-- 56.630
4.66 --undefined-- 53.162
4.67 --undefined-- 48.633
4.68 --undefined-- 43.787
4.69 --undefined-- 41.518
4.70 --undefined-- 40.523
4.71 --undefined-- 38.997
4.72 --undefined-- 37.385
4.73 --undefined-- 36.003
4.74 --undefined-- 35.498
4.75 --undefined-- 35.395
4.76 --undefined-- 35.176
4.77 --undefined-- 35.376
4.78 --undefined-- 35.812
4.79 --undefined-- 35.671
4.80 --undefined-- 35.192
4.81 --undefined-- 34.309
4.82 --undefined-- 33.010
4.83 --undefined-- 31.814
4.84 --undefined-- 30.562
4.85 --undefined-- 29.863
4.86 --undefined-- 31.151
4.87 --undefined-- 32.663
4.88 --undefined-- 39.823
4.89 --undefined-- 49.081
4.90 --undefined-- 55.011
4.91 158.037 59.453
4.92 153.407 63.234
4.93 151.640 66.003
4.94 152.372 67.364
4.95 147.951 67.765
4.96 138.488 68.149
4.97 136.601 68.482
4.98 129.489 68.624
4.99 128.411 68.860
5.00 127.129 68.798
5.01 126.856 68.253
5.02 126.363 67.413
5.03 125.414 66.539
5.04 124.414 66.006
5.05 123.178 65.780
5.06 121.758 65.551
5.07 120.643 65.383
5.08 120.589 65.586
5.09 120.892 65.971
5.10 121.305 66.070
5.11 121.967 65.861
5.12 123.968 65.514
5.13 121.510 65.025
5.14 117.975 63.943
5.15 118.429 61.809
5.16 119.442 58.576
5.17 120.387 55.104
5.18 126.334 52.874
5.19 123.330 52.145
5.20 122.091 52.489
5.21 129.035 54.145
5.22 140.881 56.661
5.23 136.822 59.309
5.24 123.255 61.694
5.25 114.898 63.554
5.26 111.963 64.649
5.27 109.661 64.942
5.28 108.818 64.808
5.29 108.700 64.599
5.30 110.259 64.589
5.31 112.150 65.058
5.32 115.835 65.992
5.33 119.257 67.303
5.34 123.093 68.831
5.35 125.839 69.995
5.36 128.662 70.159
5.37 132.159 69.824
5.38 135.974 69.837
5.39 139.628 69.883
5.40 142.657 69.357
5.41 147.676 68.982
5.42 152.425 69.199
5.43 155.568 69.198
5.44 162.967 68.309
5.45 170.255 66.818
5.46 173.942 65.500
5.47 173.183 64.537
5.48 172.516 63.719
5.49 172.277 63.146
5.50 172.049 62.757
5.51 171.842 62.582
5.52 170.962 63.026
5.53 169.174 64.085
5.54 164.366 65.282
5.55 161.393 66.330
5.56 155.661 67.098
5.57 149.243 67.506
5.58 143.720 67.677
5.59 138.571 67.588
5.60 135.624 67.343
5.61 133.677 67.134
5.62 132.686 67.011
5.63 132.614 67.167
5.64 132.849 67.485
5.65 134.147 67.582
5.66 134.673 67.332
5.67 133.574 66.763
5.68 129.023 65.690
5.69 123.466 63.820
5.70 111.461 61.128
5.71 104.864 58.467
5.72 99.782 56.212
5.73 --undefined-- 53.374
5.74 --undefined-- 49.486
5.75 --undefined-- 46.084
5.76 --undefined-- 43.975
5.77 --undefined-- 42.272
5.78 --undefined-- 40.662
5.79 --undefined-- 41.983
5.80 --undefined-- 51.666
5.81 --undefined-- 60.338
5.82 --undefined-- 65.600
5.83 175.018 68.601
5.84 172.615 70.629
5.85 170.345 72.291
5.86 167.260 --undefined--
5.87 163.165 --undefined--
5.88 --undefined-- --undefined--
5.89 --undefined-- --undefined--
