Time Pitch Intensity
0.01 --undefined-- --undefined--
0.02 --undefined-- --undefined--
0.03 --undefined-- --undefined--
0.04 --undefined-- --undefined--
0.05 --undefined-- 46.003
0.06 --undefined-- 50.092
0.07 --undefined-- 50.860
0.08 --undefined-- 49.486
0.09 --undefined-- 50.852
0.10 --undefined-- 53.078
0.11 195.096 55.574
0.12 196.098 58.631
0.13 202.943 60.840
0.14 193.175 61.949
0.15 186.417 62.872
0.16 185.899 63.815
0.17 182.715 64.287
0.18 180.472 64.132
0.19 178.266 63.654
0.20 177.480 63.270
0.21 175.919 63.113
0.22 169.715 63.156
0.23 167.763 63.360
0.24 166.640 63.520
0.25 166.249 63.475
0.26 166.194 63.382
0.27 166.664 63.386
0.28 167.093 63.470
0.29 167.238 63.529
0.30 167.430 63.410
0.31 166.876 62.973
0.32 166.989 62.432
0.33 168.481 62.315
0.34 169.002 62.575
0.35 169.867 62.836
0.36 170.719 62.915
0.37 170.880 62.890
0.38 170.195 62.956
0.39 168.786 62.910
0.40 167.544 62.780
0.41 166.764 62.932
0.42 166.133 63.215
0.43 164.994 63.543
0.44 166.363 64.141
0.45 166.914 64.751
0.46 164.736 64.914
0.47 161.248 64.677
0.48 159.197 64.263
0.49 157.962 63.622
0.50 157.055 62.806
0.51 157.150 62.433
0.52 156.800 62.873
0.53 156.630 63.385
0.54 156.614 63.589
0.55 157.509 63.689
0.56 160.619 63.764
0.57 164.402 63.940
0.58 167.762 64.500
0.59 171.535 65.216
0.60 177.617 65.792
0.61 185.376 66.574
0.62 188.532 67.305
0.63 191.418 67.341
0.64 194.021 66.802
0.65 196.872 65.966
0.66 201.672 64.905
0.67 205.140 64.092
0.68 208.955 64.765
0.69 212.742 67.249
0.70 223.954 69.540
0.71 224.876 70.000
0.72 210.021 69.212
0.73 207.094 69.327
0.74 198.251 69.945
0.75 191.759 69.894
0.76 180.166 68.810
0.77 169.204 68.046
0.78 165.501 68.679
0.79 162.710 69.422
0.80 158.643 69.439
0.81 154.887 68.417
0.82 151.996 66.229
0.83 158.372 63.695
0.84 162.879 62.070
0.85 162.132 60.948
0.86 160.358 60.050
0.87 156.725 59.135
0.88 156.771 57.844
0.89 155.280 56.639
0.90 150.533 54.886
0.91 --undefined-- 51.903
0.92 --undefined-- 52.159
0.93 --undefined-- 53.956
0.94 --undefined-- 52.924
0.95 --undefined-- 50.252
0.96 --undefined-- 48.097
0.97 --undefined-- 45.964
0.98 --undefined-- 47.095
0.99 --undefined-- 48.090
1.00 --undefined-- 48.676
1.01 --undefined-- 53.794
1.02 --undefined-- 61.710
1.03 273.647 67.048
1.04 269.759 69.585
1.05 263.376 70.320
1.06 260.137 70.481
1.07 259.420 70.906
1.08 260.144 71.239
1.09 261.635 71.055
1.10 263.205 70.362
1.11 264.900 69.289
1.12 265.810 68.215
1.13 267.353 67.391
1.14 269.137 66.737
1.15 269.635 66.235
1.16 269.190 65.799
1.17 269.572 65.117
1.18 269.729 64.098
1.19 265.515 63.593
1.20 266.459 64.351
1.21 266.224 64.708
1.22 262.502 63.348
1.23 251.685 59.964
1.24 245.278 55.029
1.25 --undefined-- 50.542
1.26 --undefined-- 51.655
1.27 --undefined-- 58.229
1.28 277.014 62.863
1.29 267.629 65.057
1.30 261.519 66.070
1.31 258.105 66.850
1.32 255.830 67.303
1.33 254.848 67.234
1.34 255.057 66.855
1.35 256.432 66.491
1.36 258.424 66.133
1.37 259.315 65.667
1.38 258.220 65.784
1.39 259.143 66.579
1.40 255.049 66.940
1.41 251.304 66.968
1.42 247.587 66.925
1.43 244.044 66.794
1.44 234.269 66.646
1.45 225.467 66.409
1.46 214.647 66.077
1.47 201.206 66.298
1.48 192.421 67.305
1.49 186.671 68.234
1.50 183.456 68.328
1.51 182.531 67.663
1.52 182.396 66.783
1.53 181.502 66.020
1.54 180.463 65.306
1.55 179.458 64.562
1.56 178.529 64.067
1.57 176.715 63.784
1.58 174.902 63.462
1.59 174.119 63.034
1.60 173.262 62.431
1.61 172.666 61.736
1.62 171.531 60.698
1.63 166.260 58.618
1.64 --undefined-- 55.185
1.65 --undefined-- 52.223
1.66 --undefined-- 57.154
1.67 204.667 62.820
1.68 197.484 66.473
1.69 194.324 69.187
1.70 194.108 71.614
1.71 195.165 73.373
1.72 195.112 74.267
1.73 194.465 74.747
1.74 193.544 75.182
1.75 192.514 75.452
1.76 190.592 75.345
1.77 187.304 75.039
1.78 183.145 75.161
1.79 177.594 75.634
1.80 171.359 75.262
1.81 165.486 73.475
1.82 --undefined-- 71.280
1.83 --undefined-- 69.655
1.84 281.886 67.736
1.85 278.642 65.104
1.86 280.742 61.187
1.87 --undefined-- 56.254
1.88 --undefined-- 53.192
1.89 --undefined-- 52.090
1.90 --undefined-- 50.476
1.91 --undefined-- 50.495
1.92 --undefined-- 50.623
1.93 --undefined-- 49.292
1.94 --undefined-- 49.729
1.95 --undefined-- 49.937
1.96 --undefined-- 49.520
1.97 --undefined-- 50.204
1.98 --undefined-- 51.240
1.99 --undefined-- 50.603
2.00 --undefined-- 47.170
2.01 --undefined-- 43.071
2.02 --undefined-- 43.703
2.03 --undefined-- 45.805
2.04 --undefined-- 46.341
2.05 --undefined-- 44.872
2.06 --undefined-- 43.836
2.07 --undefined-- 44.474
2.08 --undefined-- 45.066
2.09 --undefined-- 46.050
2.10 --undefined-- 48.094
2.11 --undefined-- 49.358
2.12 --undefined-- 49.704
2.13 --undefined-- 49.205
2.14 --undefined-- 48.318
2.15 --undefined-- 48.350
2.16 --undefined-- 48.159
2.17 --undefined-- 48.095
2.18 --undefined-- 48.766
2.19 --undefined-- 49.323
2.20 --undefined-- 50.097
2.21 --undefined-- 51.339
2.22 --undefined-- 51.663
2.23 --undefined-- 50.434
2.24 --undefined-- 49.696
2.25 --undefined-- 50.239
2.26 --undefined-- 50.345
2.27 --undefined-- 51.108
2.28 --undefined-- 51.159
2.29 --undefined-- 48.800
2.30 --undefined-- 46.132
2.31 --undefined-- 44.900
2.32 --undefined-- 46.552
2.33 --undefined-- 55.206
2.34 --undefined-- 62.556
2.35 192.637 67.088
2.36 187.511 69.356
2.37 185.434 70.111
2.38 188.661 70.347
2.39 194.061 70.932
2.40 198.291 71.498
2.41 204.307 71.276
2.42 215.672 70.283
2.43 229.153 69.260
2.44 239.434 68.536
2.45 245.287 68.124
2.46 253.285 68.123
2.47 259.585 68.583
2.48 260.271 69.960
2.49 254.162 71.821
2.50 245.016 72.227
2.51 --undefined-- 70.414
2.52 --undefined-- 67.420
2.53 --undefined-- 64.178
2.54 --undefined-- 59.196
2.55 --undefined-- 52.155
2.56 --undefined-- 47.601
2.57 --undefined-- 46.607
2.58 --undefined-- 47.490
2.59 --undefined-- 48.658
2.60 --undefined-- 49.344
2.61 --undefined-- 52.395
2.62 204.295 56.536
2.63 216.870 59.952
2.64 231.743 62.800
2.65 234.652 64.963
2.66 232.180 66.531
2.67 217.127 67.761
2.68 191.716 68.376
2.69 180.297 67.468
2.70 172.602 64.385
2.71 --undefined-- 59.723
2.72 --undefined-- 55.519
2.73 --undefined-- 54.057
2.74 --undefined-- 54.384
2.75 --undefined-- 53.976
2.76 --undefined-- 54.280
2.77 --undefined-- 57.972
2.78 171.511 63.693
2.79 183.533 68.163
2.80 187.203 70.593
2.81 189.488 71.338
2.82 191.834 71.154
2.83 194.141 71.063
2.84 195.301 71.447
2.85 195.783 71.337
2.86 195.630 69.632
2.87 208.492 66.617
2.88 211.345 64.334
2.89 224.676 63.095
2.90 222.389 62.259
2.91 219.032 61.841
2.92 219.908 62.675
2.93 222.081 65.082
2.94 219.898 67.470
2.95 218.944 68.332
2.96 206.229 67.539
2.97 193.715 66.577
2.98 190.060 66.552
2.99 189.379 66.650
3.00 189.059 66.323
3.01 189.269 65.784
3.02 188.567 65.355
3.03 186.877 64.998
3.04 185.410 64.639
3.05 183.930 64.320
3.06 182.987 64.153
3.07 183.018 64.174
3.08 183.154 64.320
3.09 182.968 64.384
3.10 180.835 64.252
3.11 179.350 63.954
3.12 176.720 63.822
3.13 168.879 64.299
3.14 167.471 65.443
3.15 169.238 66.835
3.16 164.904 68.033
3.17 160.398 68.823
3.18 155.663 68.884
3.19 152.415 68.659
3.20 151.587 68.287
3.21 152.233 67.169
3.22 155.132 65.410
3.23 161.758 64.095
3.24 162.943 64.172
3.25 166.012 65.265
3.26 167.112 65.824
3.27 171.836 65.829
3.28 174.281 66.379
3.29 181.778 68.014
3.30 187.374 69.994
3.31 192.049 71.044
3.32 197.097 70.677
3.33 199.625 69.513
3.34 203.227 69.223
3.35 206.679 70.087
3.36 207.892 70.569
3.37 208.541 70.435
3.38 209.851 70.503
3.39 209.114 70.596
3.40 205.100 70.026
3.41 197.923 68.769
3.42 188.530 67.120
3.43 178.408 64.725
3.44 170.373 61.338
3.45 --undefined-- 57.698
3.46 --undefined-- 53.939
3.47 --undefined-- 51.503
3.48 --undefined-- 51.644
3.49 --undefined-- 49.773
3.50 --undefined-- 47.384
3.51 --undefined-- 47.830
3.52 --undefined-- 48.901
3.53 --undefined-- 51.331
3.54 --undefined-- 54.254
3.55 --undefined-- 54.857
3.56 --undefined-- 52.787
3.57 --undefined-- 51.651
3.58 --undefined-- 52.570
3.59 --undefined-- 52.316
3.60 --undefined-- 50.522
3.61 --undefined-- 49.331
3.62 --undefined-- 48.786
3.63 --undefined-- 46.413
3.64 --undefined-- 44.794
3.65 --undefined-- 46.236
3.66 --undefined-- 47.437
3.67 --undefined-- 50.240
3.68 --undefined-- 53.512
3.69 --undefined-- 53.483
3.70 --undefined-- 50.024
3.71 --undefined-- 47.712
3.72 --undefined-- 49.421
3.73 --undefined-- 54.605
3.74 287.247 62.043
3.75 280.326 66.987
3.76 279.711 69.742
3.77 284.987 71.325
3.78 290.931 72.280
3.79 297.858 72.815
3.80 152.005 73.137
3.81 154.413 73.306
3.82 156.681 73.396
3.83 159.067 73.464
3.84 161.138 73.421
3.85 162.874 73.300
3.86 163.445 73.216
3.87 162.421 72.886
3.88 158.357 71.394
3.89 151.402 67.705
3.90 --undefined-- 61.362
3.91 --undefined-- 54.636
3.92 --undefined-- 51.409
3.93 --undefined-- 50.498
3.94 --undefined-- 53.179
3.95 --undefined-- 59.496
3.96 173.691 65.617
3.97 173.114 69.296
3.98 172.173 70.825
3.99 170.844 71.144
4.00 169.496 70.856
4.01 168.547 69.910
4.02 167.504 68.123
4.03 165.127 65.304
4.04 163.944 61.433
4.05 168.614 56.985
4.06 --undefined-- 53.363
4.07 --undefined-- 51.742
4.08 --undefined-- 50.892
4.09 --undefined-- 49.777
4.10 --undefined-- 51.202
4.11 --undefined-- 51.128
4.12 --undefined-- 49.013
4.13 --undefined-- 54.757
4.14 --undefined-- 61.822
4.15 272.765 65.981
4.16 282.425 68.186
4.17 293.308 69.184
4.18 154.770 69.532
4.19 167.663 69.618
4.20 173.054 69.235
4.21 174.529 68.692
4.22 182.771 69.723
4.23 188.344 70.944
4.24 194.379 70.620
4.25 198.672 69.051
4.26 201.195 67.172
4.27 205.364 66.431
4.28 194.683 67.990
4.29 189.389 69.673
4.30 182.337 70.170
4.31 172.648 69.630
4.32 159.001 68.746
4.33 297.134 68.022
4.34 276.905 67.183
4.35 270.338 66.213
4.36 267.139 65.220
4.37 264.112 63.558
4.38 262.055 60.284
4.39 266.580 55.141
4.40 --undefined-- 49.326
4.41 --undefined-- 47.272
4.42 --undefined-- 54.363
4.43 --undefined-- 61.247
4.44 222.172 64.890
4.45 209.705 66.032
4.46 204.221 66.302
4.47 196.600 67.068
4.48 194.780 68.213
4.49 194.777 68.942
4.50 198.094 68.665
4.51 202.143 66.771
4.52 201.315 62.744
4.53 191.983 57.159
4.54 196.075 53.926
4.55 --undefined-- 56.105
4.56 298.538 61.291
4.57 293.569 65.231
4.58 299.444 67.125
4.59 152.172 67.547
4.60 151.931 66.854
4.61 298.849 64.530
4.62 292.078 59.787
4.63 --undefined-- 53.997
4.64 --undefined-- 54.357
4.65 --undefined-- 54.999
4.66 --undefined-- 52.512
4.67 --undefined-- 49.225
4.68 --undefined-- 48.083
4.69 --undefined-- 46.939
4.70 --undefined-- 50.893
4.71 --undefined-- 58.029
4.72 155.801 63.260
4.73 153.386 66.129
4.74 155.301 67.326
4.75 155.872 67.727
4.76 154.686 68.031
4.77 154.534 68.541
4.78 155.851 69.143
4.79 156.127 69.613
4.80 156.302 69.887
4.81 156.257 69.944
4.82 156.215 69.872
4.83 156.972 69.772
4.84 158.340 69.617
4.85 158.485 69.485
4.86 155.697 69.605
4.87 151.554 69.947
4.88 293.384 70.051
4.89 283.114 69.237
4.90 268.035 66.950
4.91 237.787 63.557
4.92 220.342 61.650
4.93 207.820 61.857
4.94 195.633 63.760
4.95 182.427 66.744
4.96 175.418 68.403
4.97 169.997 68.073
4.98 175.683 67.021
4.99 174.465 66.459
5.00 175.001 66.262
5.01 183.634 66.662
5.02 188.498 66.816
5.03 197.093 --undefined--
5.04 205.068 --undefined--
5.05 --undefined-- --undefined--
5.06 --undefined-- --undefined--
