Time Pitch Intensity
0.01 --undefined-- --undefined--
0.02 161.647 --undefined--
0.03 161.465 --undefined--
0.04 161.206 --undefined--
0.05 160.430 71.044
0.06 159.995 70.723
0.07 160.132 70.457
0.08 160.274 70.193
0.09 160.045 69.925
0.10 159.725 69.618
0.11 159.672 69.302
0.12 159.123 69.044
0.13 158.871 68.806
0.14 158.806 68.510
0.15 158.486 68.106
0.16 157.864 67.540
0.17 156.369 66.619
0.18 146.045 64.889
0.19 --undefined-- 62.340
0.20 --undefined-- 59.983
0.21 --undefined-- 57.233
0.22 --undefined-- 51.653
0.23 --undefined-- 42.113
0.24 --undefined-- 32.837
0.25 --undefined-- 31.816
0.26 --undefined-- 32.107
0.27 --undefined-- 30.646
0.28 --undefined-- 29.004
0.29 --undefined-- 29.879
0.30 --undefined-- 33.035
0.31 --undefined-- 35.307
0.32 --undefined-- 36.427
0.33 --undefined-- 36.334
0.34 --undefined-- 35.459
0.35 --undefined-- 34.767
0.36 --undefined-- 34.476
0.37 --undefined-- 35.409
0.38 --undefined-- 36.391
0.39 --undefined-- 36.507
0.40 --undefined-- 36.669
0.41 --undefined-- 37.056
0.42 --undefined-- 37.202
0.43 --undefined-- 36.808
0.44 --undefined-- 35.879
0.45 --undefined-- 35.319
0.46 --undefined-- 35.501
0.47 --undefined-- 35.979
0.48 --undefined-- 36.078
0.49 --undefined-- 35.391
0.50 --undefined-- 33.738
0.51 --undefined-- 31.861
0.52 --undefined-- 31.934
0.53 --undefined-- 32.593
0.54 --undefined-- 32.299
0.55 --undefined-- 31.524
0.56 --undefined-- 31.822
0.57 --undefined-- 33.023
0.58 --undefined-- 33.473
0.59 --undefined-- 32.453
0.60 --undefined-- 32.271
0.61 --undefined-- 33.573
0.62 --undefined-- 44.364
0.63 --undefined-- 59.094
0.64 232.858 68.225
0.65 216.441 73.125
0.66 210.567 75.072
0.67 208.065 75.427
0.68 206.557 75.232
0.69 205.094 74.986
0.70 203.939 74.866
0.71 202.047 74.557
0.72 199.495 73.965
0.73 196.296 73.651
0.74 196.480 73.952
0.75 194.726 74.107
0.76 191.374 73.801
0.77 187.709 73.261
0.78 182.236 72.614
0.79 176.050 72.003
0.80 170.407 71.578
0.81 165.497 71.285
0.82 161.642 71.016
0.83 159.555 70.812
0.84 159.302 70.718
0.85 160.060 70.678
0.86 161.159 70.580
0.87 162.273 70.381
0.88 164.031 70.080
0.89 165.774 69.622
0.90 167.119 68.839
0.91 168.290 67.255
0.92 170.789 64.044
0.93 --undefined-- 58.298
0.94 --undefined-- 49.516
0.95 --undefined-- 44.729
0.96 --undefined-- 49.274
0.97 --undefined-- 52.662
0.98 --undefined-- 53.961
0.99 --undefined-- 55.385
1.00 299.368 61.677
1.01 283.266 67.507
1.02 284.448 70.348
1.03 288.945 71.011
1.04 288.188 71.038
1.05 283.229 71.567
1.06 279.375 72.503
1.07 276.829 73.392
1.08 276.420 73.909
1.09 278.646 73.908
1.10 281.786 73.554
1.11 282.809 73.261
1.12 281.214 73.259
1.13 277.730 73.375
1.14 272.702 73.152
1.15 266.142 71.841
1.16 258.009 68.635
1.17 251.905 62.966
1.18 --undefined-- 55.526
1.19 --undefined-- 52.642
1.20 --undefined-- 52.769
1.21 --undefined-- 52.423
1.22 --undefined-- 57.133
1.23 223.407 64.282
1.24 229.200 68.967
1.25 230.327 71.474
1.26 220.417 72.399
1.27 184.492 72.430
1.28 174.921 72.538
1.29 170.025 72.832
1.30 168.025 72.881
1.31 167.692 72.648
1.32 167.896 72.142
1.33 168.812 71.424
1.34 170.390 70.588
1.35 172.373 69.850
1.36 174.349 69.611
1.37 176.888 69.898
1.38 180.530 70.518
1.39 185.323 71.289
1.40 191.339 72.075
1.41 196.914 72.803
1.42 202.070 73.387
1.43 206.992 73.695
1.44 209.930 73.537
1.45 208.046 72.644
1.46 203.307 70.729
1.47 --undefined-- 67.837
1.48 --undefined-- 64.518
1.49 --undefined-- 61.250
1.50 --undefined-- 57.943
1.51 --undefined-- 55.194
1.52 --undefined-- 55.770
1.53 184.439 59.186
1.54 211.948 63.393
1.55 219.790 66.695
1.56 231.140 68.584
1.57 249.285 69.798
1.58 252.279 70.795
1.59 251.582 70.934
1.60 241.498 69.331
1.61 230.564 65.472
1.62 234.930 59.107
1.63 --undefined-- 50.151
1.64 --undefined-- 51.976
1.65 --undefined-- 63.197
1.66 --undefined-- 69.790
1.67 265.418 72.986
1.68 263.948 74.183
1.69 261.745 74.269
1.70 259.410 73.359
1.71 255.935 71.596
1.72 249.217 69.105
1.73 243.708 65.169
1.74 --undefined-- 58.614
1.75 --undefined-- 48.727
1.76 --undefined-- 40.980
1.77 --undefined-- 39.902
1.78 --undefined-- 38.970
1.79 --undefined-- 38.672
1.80 --undefined-- 40.049
1.81 --undefined-- 44.133
1.82 --undefined-- 55.455
1.83 --undefined-- 63.902
1.84 207.428 68.395
1.85 203.050 69.991
1.86 195.843 69.911
1.87 189.548 69.470
1.88 185.707 69.328
1.89 182.920 69.304
1.90 179.536 69.360
1.91 176.004 69.414
1.92 175.436 69.247
1.93 175.715 69.001
1.94 176.393 68.745
1.95 176.517 68.393
1.96 174.305 68.081
1.97 173.066 68.227
1.98 172.849 68.920
1.99 169.954 69.535
2.00 166.451 69.843
2.01 164.927 70.167
2.02 163.925 70.320
2.03 160.588 69.946
2.04 157.396 69.452
2.05 156.386 69.224
2.06 155.746 69.041
2.07 155.613 68.866
2.08 156.553 68.885
2.09 156.413 69.007
2.10 156.500 69.087
2.11 156.206 69.067
2.12 156.376 68.911
2.13 156.493 68.573
2.14 155.638 67.932
2.15 153.492 66.838
2.16 153.079 65.879
2.17 157.670 66.384
2.18 157.282 67.471
2.19 152.636 68.158
2.20 148.411 68.658
2.21 144.891 69.056
2.22 142.971 69.299
2.23 142.271 69.272
2.24 142.554 69.043
2.25 143.337 68.816
2.26 145.655 68.580
2.27 148.739 68.143
2.28 149.593 67.331
2.29 150.197 65.829
2.30 150.636 63.585
2.31 151.235 61.058
2.32 149.253 57.944
2.33 --undefined-- 53.033
2.34 --undefined-- 45.409
2.35 --undefined-- 39.414
2.36 --undefined-- 45.506
2.37 --undefined-- 51.633
2.38 --undefined-- 58.823
2.39 --undefined-- 64.203
2.40 146.774 66.691
2.41 145.240 67.381
2.42 140.386 67.574
2.43 138.829 67.752
2.44 140.178 67.889
2.45 141.273 67.813
2.46 143.093 67.257
2.47 144.690 66.381
2.48 150.288 65.561
2.49 156.282 64.391
2.50 157.817 61.672
2.51 --undefined-- 56.336
2.52 --undefined-- 47.817
2.53 --undefined-- 37.248
2.54 --undefined-- 31.140
2.55 --undefined-- 34.387
2.56 --undefined-- 46.988
2.57 --undefined-- 59.285
2.58 --undefined-- 67.245
2.59 213.807 71.672
2.60 210.195 73.571
2.61 207.074 74.047
2.62 204.468 74.140
2.63 201.797 74.171
2.64 198.790 73.880
2.65 196.644 73.307
2.66 195.399 72.889
2.67 194.820 72.867
2.68 194.834 73.073
2.69 194.910 73.294
2.70 195.072 73.429
2.71 195.649 73.441
2.72 196.686 73.330
2.73 197.660 73.095
2.74 198.201 72.694
2.75 197.444 72.073
2.76 195.104 71.185
2.77 189.891 70.089
2.78 180.869 68.768
2.79 178.968 66.478
2.80 84.134 62.740
2.81 84.958 59.051
2.82 --undefined-- 55.391
2.83 --undefined-- 49.136
2.84 --undefined-- 39.787
2.85 --undefined-- 34.280
2.86 --undefined-- 33.743
2.87 --undefined-- 34.277
2.88 --undefined-- 33.147
2.89 --undefined-- 31.988
2.90 --undefined-- 32.830
2.91 --undefined-- 32.409
2.92 --undefined-- 30.174
2.93 --undefined-- 29.170
2.94 --undefined-- 30.211
2.95 --undefined-- 31.186
2.96 --undefined-- 33.505
2.97 --undefined-- 34.992
2.98 --undefined-- 34.129
2.99 --undefined-- 32.982
3.00 --undefined-- 33.455
3.01 --undefined-- 34.546
3.02 --undefined-- 35.082
3.03 --undefined-- 34.625
3.04 --undefined-- 34.224
3.05 --undefined-- 33.852
3.06 --undefined-- 35.036
3.07 --undefined-- 36.031
3.08 --undefined-- 34.783
3.09 --undefined-- 32.711
3.10 --undefined-- 31.977
3.11 --undefined-- 33.310
3.12 --undefined-- 34.115
3.13 --undefined-- 32.882
3.14 --undefined-- 31.983
3.15 --undefined-- 33.795
3.16 --undefined-- 35.909
3.17 --undefined-- 36.696
3.18 --undefined-- 36.989
3.19 --undefined-- 36.924
3.20 --undefined-- 42.905
3.21 --undefined-- 56.955
3.22 --undefined-- 66.208
3.23 222.562 71.514
3.24 216.538 74.333
3.25 215.937 75.949
3.26 213.987 76.666
3.27 211.371 76.150
3.28 206.705 74.895
3.29 205.328 74.598
3.30 205.421 75.047
3.31 204.640 75.316
3.32 204.486 75.424
3.33 205.416 75.561
3.34 205.692 75.975
3.35 202.064 76.442
3.36 197.196 76.550
3.37 192.426 76.270
3.38 187.575 75.744
3.39 183.686 75.093
3.40 180.074 74.377
3.41 177.813 73.733
3.42 175.822 73.314
3.43 174.377 73.118
3.44 173.402 73.011
3.45 172.734 72.921
3.46 172.682 72.824
3.47 172.485 72.709
3.48 172.262 72.614
3.49 172.489 72.567
3.50 172.469 72.539
3.51 172.443 72.534
3.52 172.955 72.482
3.53 174.168 72.312
3.54 173.103 71.997
3.55 166.492 71.452
3.56 159.440 70.605
3.57 130.957 69.262
3.58 128.212 66.872
3.59 --undefined-- 63.504
3.60 --undefined-- 60.025
3.61 --undefined-- 56.076
3.62 --undefined-- 52.319
3.63 --undefined-- 50.838
3.64 --undefined-- 51.159
3.65 --undefined-- 51.482
3.66 --undefined-- 51.636
3.67 --undefined-- 52.094
3.68 --undefined-- 52.332
3.69 --undefined-- 51.829
3.70 --undefined-- 54.077
3.71 --undefined-- 62.332
3.72 178.968 68.195
3.73 176.118 71.304
3.74 175.747 73.152
3.75 176.873 74.565
3.76 178.040 75.405
3.77 181.503 75.516
3.78 186.858 74.894
3.79 192.235 74.010
3.80 195.625 73.433
3.81 199.839 73.120
3.82 205.517 72.732
3.83 210.639 71.798
3.84 210.559 70.725
3.85 213.048 70.462
3.86 215.194 70.659
3.87 218.168 71.020
3.88 220.706 71.543
3.89 221.124 72.062
3.90 219.937 72.487
3.91 218.403 72.854
3.92 216.462 73.141
3.93 213.744 73.206
3.94 209.652 72.868
3.95 205.948 71.711
3.96 200.194 69.006
3.97 189.621 64.503
3.98 198.523 58.849
3.99 --undefined-- 51.859
4.00 --undefined-- 44.567
4.01 --undefined-- 40.060
4.02 --undefined-- 44.505
4.03 --undefined-- 56.665
4.04 --undefined-- 65.210
4.05 --undefined-- 69.987
4.06 178.558 71.887
4.07 175.003 72.270
4.08 172.469 72.307
4.09 169.838 72.221
4.10 167.600 72.011
4.11 166.113 71.727
4.12 164.868 71.368
4.13 163.505 70.985
4.14 162.636 70.681
4.15 161.383 70.514
4.16 160.269 70.530
4.17 159.933 70.695
4.18 159.814 70.943
4.19 160.020 71.248
4.20 161.114 71.583
4.21 162.322 71.849
4.22 163.237 71.869
4.23 164.512 71.193
4.24 164.687 69.041
4.25 158.807 64.820
4.26 162.661 58.768
4.27 --undefined-- 51.408
4.28 --undefined-- 41.749
4.29 --undefined-- 34.219
4.30 --undefined-- 34.116
4.31 --undefined-- 33.293
4.32 --undefined-- 31.680
4.33 --undefined-- 38.187
4.34 --undefined-- 45.739
4.35 --undefined-- 50.078
4.36 --undefined-- 52.400
4.37 --undefined-- 53.263
4.38 --undefined-- 52.417
4.39 --undefined-- 50.421
4.40 --undefined-- 49.120
4.41 --undefined-- 49.390
4.42 --undefined-- 55.168
4.43 --undefined-- 63.935
4.44 255.883 69.304
4.45 245.941 71.801
4.46 242.953 72.559
4.47 241.859 72.522
4.48 241.066 72.195
4.49 240.311 71.759
4.50 240.246 71.303
4.51 240.481 70.918
4.52 240.626 70.714
4.53 239.905 70.684
4.54 236.884 70.480
4.55 230.333 69.428
4.56 219.639 67.002
4.57 224.244 64.123
4.58 --undefined-- 63.739
4.59 --undefined-- 63.341
4.60 --undefined-- 60.488
4.61 --undefined-- 57.174
4.62 --undefined-- 57.048
4.63 --undefined-- 58.056
4.64 --undefined-- 58.661
4.65 --undefined-- 58.263
4.66 --undefined-- 56.846
4.67 --undefined-- 58.165
4.68 --undefined-- 62.370
4.69 164.481 65.136
4.70 161.168 66.395
4.71 158.856 66.725
4.72 157.990 66.463
4.73 158.046 65.901
4.74 157.368 65.540
4.75 160.460 65.691
4.76 165.255 66.078
4.77 169.815 66.690
4.78 176.431 67.726
4.79 181.470 68.774
4.80 184.433 69.461
4.81 186.549 69.703
4.82 193.239 69.511
4.83 201.542 68.839
4.84 205.526 67.787
4.85 208.552 67.395
4.86 213.279 68.418
4.87 218.003 70.061
4.88 220.684 71.437
4.89 213.612 71.896
4.90 194.700 71.198
4.91 177.605 70.082
4.92 173.293 69.625
4.93 169.590 69.534
4.94 166.373 69.437
4.95 164.658 69.177
4.96 164.462 68.765
4.97 164.320 68.340
4.98 163.923 67.731
4.99 162.552 66.366
5.00 159.876 63.443
5.01 159.374 58.229
5.02 --undefined-- 50.224
5.03 --undefined-- 40.493
5.04 --undefined-- 36.502
5.05 --undefined-- 42.546
5.06 --undefined-- 52.434
5.07 --undefined-- 60.070
5.08 179.622 65.060
5.09 169.829 67.572
5.10 163.152 68.215
5.11 158.624 67.916
5.12 154.575 67.424
5.13 153.017 67.154
5.14 153.574 67.384
5.15 155.301 67.980
5.16 158.693 68.776
5.17 164.310 69.270
5.18 168.921 69.044
5.19 173.568 68.972
5.20 185.198 69.555
5.21 189.142 69.531
5.22 193.085 67.968
5.23 198.313 64.107
5.24 --undefined-- 57.254
5.25 --undefined-- 49.453
5.26 --undefined-- 48.353
5.27 --undefined-- 52.770
5.28 213.480 60.505
5.29 204.382 65.032
5.30 188.103 66.643
5.31 169.629 66.845
5.32 158.416 66.946
5.33 151.676 66.922
5.34 148.612 66.287
5.35 146.982 64.374
5.36 141.840 60.266
5.37 --undefined-- 53.185
5.38 --undefined-- 43.120
5.39 --undefined-- 35.680
5.40 --undefined-- 42.132
5.41 --undefined-- 54.738
5.42 191.231 62.966
5.43 184.022 67.101
5.44 164.951 68.307
5.45 159.623 67.894
5.46 154.087 67.072
5.47 150.594 66.608
5.48 150.398 66.644
5.49 150.426 66.886
5.50 150.180 67.064
5.51 150.627 67.073
5.52 151.020 66.756
5.53 149.239 65.638
5.54 144.536 63.070
5.55 134.642 58.523
5.56 --undefined-- 51.877
5.57 --undefined-- 48.192
5.58 --undefined-- 55.973
5.59 --undefined-- 63.551
5.60 175.131 67.871
5.61 172.949 69.821
5.62 172.924 70.665
5.63 173.619 70.964
5.64 173.235 70.402
5.65 171.981 68.893
5.66 173.140 67.707
5.67 172.797 67.590
5.68 170.733 67.675
5.69 168.554 67.841
5.70 168.049 68.368
5.71 165.077 69.124
5.72 160.345 69.513
5.73 153.120 69.440
5.74 149.696 69.277
5.75 147.442 69.102
5.76 146.051 68.926
5.77 145.195 68.904
5.78 145.673 69.034
5.79 147.494 69.232
5.80 148.194 69.451
5.81 147.720 69.481
5.82 146.046 69.396
5.83 146.562 69.385
5.84 148.076 69.370
5.85 148.281 69.341
5.86 148.110 69.287
5.87 148.392 69.252
5.88 147.729 69.246
5.89 146.544 69.214
5.90 146.333 69.199
5.91 143.902 69.296
5.92 141.860 69.422
5.93 140.108 69.497
5.94 139.056 69.411
5.95 137.209 69.157
5.96 134.700 68.922
5.97 129.656 69.156
5.98 129.095 69.869
5.99 130.118 --undefined--
6.00 130.641 --undefined--
6.01 --undefined-- --undefined--
6.02 --undefined-- --undefined--
