Time Pitch Intensity
0.01 --undefined-- --undefined--
0.02 127.427 --undefined--
0.03 128.710 --undefined--
0.04 130.236 --undefined--
0.05 130.718 60.831
0.06 132.729 55.700
0.07 137.494 53.173
0.08 135.388 52.939
0.09 133.697 53.134
0.10 132.845 54.200
0.11 131.148 55.911
0.12 130.497 57.919
0.13 130.067 60.156
0.14 130.037 62.102
0.15 129.547 63.591
0.16 128.511 64.493
0.17 125.987 64.390
0.18 123.545 62.790
0.19 --undefined-- 58.991
0.20 --undefined-- 52.226
0.21 --undefined-- 44.974
0.22 --undefined-- 41.155
0.23 --undefined-- 38.725
0.24 --undefined-- 39.123
0.25 --undefined-- 45.761
0.26 --undefined-- 53.498
0.27 --undefined-- 58.455
0.28 --undefined-- 60.393
0.29 --undefined-- 61.278
0.30 --undefined-- 64.686
0.31 124.636 68.224
0.32 118.022 69.764
0.33 112.584 69.238
0.34 110.046 66.896
0.35 103.972 62.966
0.36 105.581 58.230
0.37 111.643 55.045
0.38 112.144 54.493
0.39 111.963 54.465
0.40 111.843 54.141
0.41 111.974 53.712
0.42 111.964 53.612
0.43 112.306 53.717
0.44 112.897 53.932
0.45 112.714 54.077
0.46 112.848 54.074
0.47 112.827 53.981
0.48 111.810 53.462
0.49 110.041 51.963
0.50 --undefined-- 49.234
0.51 --undefined-- 45.516
0.52 --undefined-- 42.780
0.53 --undefined-- 42.850
0.54 --undefined-- 43.901
0.55 --undefined-- 46.716
0.56 --undefined-- 50.128
0.57 --undefined-- 52.955
0.58 --undefined-- 54.882
0.59 --undefined-- 56.890
0.60 --undefined-- 59.257
0.61 --undefined-- 60.952
0.62 --undefined-- 61.859
0.63 --undefined-- 62.376
0.64 --undefined-- 63.315
0.65 --undefined-- 63.367
0.66 99.366 61.850
0.67 98.973 60.571
0.68 98.246 60.460
0.69 98.379 60.778
0.70 99.349 61.129
0.71 99.443 60.864
0.72 99.236 59.432
0.73 99.267 57.705
0.74 103.820 58.043
0.75 106.603 60.085
0.76 109.232 62.817
0.77 111.267 65.974
0.78 112.510 68.163
0.79 114.117 68.627
0.80 114.624 67.989
0.81 116.274 67.328
0.82 116.612 66.986
0.83 118.259 67.122
0.84 118.489 67.444
0.85 118.043 67.495
0.86 117.492 67.401
0.87 116.506 67.423
0.88 116.018 67.502
0.89 115.256 67.645
0.90 115.257 67.812
0.91 115.056 67.802
0.92 115.431 67.658
0.93 115.242 67.547
0.94 115.439 67.654
0.95 115.293 67.832
0.96 115.321 67.822
0.97 114.870 67.637
0.98 114.759 67.360
0.99 114.717 66.980
1.00 114.908 66.386
1.01 114.615 65.678
1.02 113.824 64.913
1.03 112.206 63.589
1.04 108.791 60.904
1.05 106.221 56.196
1.06 --undefined-- 49.628
1.07 --undefined-- 43.290
1.08 --undefined-- 39.607
1.09 --undefined-- 37.873
1.10 --undefined-- 39.761
1.11 --undefined-- 43.312
1.12 --undefined-- 46.752
1.13 --undefined-- 50.308
1.14 --undefined-- 53.365
1.15 --undefined-- 58.500
1.16 --undefined-- 63.981
1.17 126.407 67.117
1.18 123.517 68.011
1.19 122.532 67.768
1.20 121.450 67.457
1.21 120.094 67.341
1.22 117.279 67.511
1.23 115.822 67.829
1.24 112.286 67.937
1.25 110.173 67.793
1.26 107.478 67.444
1.27 105.244 66.738
1.28 105.407 65.912
1.29 102.219 65.513
1.30 103.359 65.436
1.31 103.674 65.550
1.32 101.725 65.325
1.33 100.283 64.673
1.34 101.310 63.594
1.35 98.466 61.705
1.36 --undefined-- 58.338
1.37 --undefined-- 52.471
1.38 --undefined-- 44.203
1.39 --undefined-- 41.139
1.40 --undefined-- 40.861
1.41 --undefined-- 39.038
1.42 --undefined-- 37.797
1.43 --undefined-- 45.387
1.44 --undefined-- 54.721
1.45 --undefined-- 59.844
1.46 --undefined-- 64.116
1.47 --undefined-- 68.746
1.48 97.370 71.309
1.49 97.568 71.409
1.50 84.999 68.956
1.51 85.140 64.010
1.52 --undefined-- 57.568
1.53 --undefined-- 51.328
1.54 --undefined-- 47.050
1.55 --undefined-- 46.482
1.56 --undefined-- 46.414
1.57 --undefined-- 46.146
1.58 --undefined-- 46.051
1.59 --undefined-- 45.910
1.60 --undefined-- 45.809
1.61 --undefined-- 45.689
1.62 --undefined-- 45.593
1.63 --undefined-- 45.867
1.64 --undefined-- 46.364
1.65 --undefined-- 46.709
1.66 --undefined-- 46.733
1.67 --undefined-- 46.879
1.68 --undefined-- 47.300
1.69 --undefined-- 47.910
1.70 --undefined-- 48.558
1.71 --undefined-- 49.049
1.72 --undefined-- 49.502
1.73 99.859 49.876
1.74 100.295 50.135
1.75 101.186 50.472
1.76 102.199 50.877
1.77 104.750 51.149
1.78 107.065 51.785
1.79 109.685 54.160
1.80 113.283 57.798
1.81 112.567 60.410
1.82 113.828 61.691
1.83 114.655 62.435
1.84 115.494 63.169
1.85 116.046 63.993
1.86 116.646 64.838
1.87 116.998 65.550
1.88 117.130 66.009
1.89 117.166 66.368
1.90 117.174 66.730
1.91 117.237 67.101
1.92 117.357 67.404
1.93 117.472 67.678
1.94 117.026 68.004
1.95 116.811 68.188
1.96 116.660 67.997
1.97 116.331 67.415
1.98 115.989 66.584
1.99 116.211 65.391
2.00 115.332 63.578
2.01 114.072 61.261
2.02 112.043 59.010
2.03 111.493 57.892
2.04 111.437 58.275
2.05 111.384 58.603
2.06 110.112 57.949
2.07 109.602 55.708
2.08 --undefined-- 51.159
2.09 --undefined-- 44.255
2.10 --undefined-- 38.864
2.11 --undefined-- 37.382
2.12 --undefined-- 36.761
2.13 --undefined-- 37.054
2.14 --undefined-- 37.583
2.15 --undefined-- 37.958
2.16 --undefined-- 38.270
2.17 --undefined-- 37.473
2.18 --undefined-- 35.612
2.19 --undefined-- 34.639
2.20 --undefined-- 35.979
2.21 --undefined-- 37.373
2.22 --undefined-- 37.826
2.23 --undefined-- 38.118
2.24 --undefined-- 39.320
2.25 --undefined-- 46.894
2.26 --undefined-- 54.249
2.27 --undefined-- 59.037
2.28 --undefined-- 63.249
2.29 --undefined-- 67.005
2.30 --undefined-- 69.271
2.31 109.204 70.114
2.32 108.272 69.840
2.33 105.123 68.971
2.34 103.815 68.089
2.35 103.173 67.496
2.36 102.205 67.033
2.37 101.400 66.618
2.38 101.895 66.404
2.39 102.145 66.341
2.40 102.636 66.319
2.41 103.327 66.322
2.42 103.135 65.650
2.43 102.625 63.551
2.44 102.655 59.719
2.45 --undefined-- 53.991
2.46 --undefined-- 46.857
2.47 --undefined-- 48.963
2.48 --undefined-- 55.082
2.49 --undefined-- 59.099
2.50 --undefined-- 61.245
2.51 --undefined-- 63.352
2.52 --undefined-- 66.312
2.53 100.550 67.678
2.54 95.056 67.030
2.55 99.014 65.681
2.56 99.653 65.155
2.57 99.335 64.929
2.58 100.899 64.120
2.59 104.224 62.634
2.60 104.209 60.985
2.61 103.717 59.003
2.62 103.919 56.531
2.63 101.888 54.553
2.64 --undefined-- 54.767
2.65 --undefined-- 55.934
2.66 --undefined-- 57.056
2.67 --undefined-- 58.543
2.68 102.351 60.120
2.69 102.549 61.748
2.70 97.577 62.530
2.71 97.016 62.557
2.72 92.836 62.649
2.73 93.056 62.616
2.74 95.574 61.757
2.75 94.855 59.856
2.76 --undefined-- 57.454
2.77 --undefined-- 55.805
2.78 --undefined-- 54.143
2.79 95.926 52.598
2.80 95.350 55.504
2.81 100.240 60.798
2.82 99.900 64.462
2.83 104.572 65.965
2.84 104.991 66.169
2.85 105.603 66.220
2.86 105.924 66.326
2.87 106.087 66.440
2.88 105.860 66.528
2.89 106.034 66.560
2.90 106.510 66.833
2.91 106.475 67.236
2.92 106.384 67.414
2.93 105.965 67.289
2.94 105.342 66.902
2.95 105.511 66.591
2.96 107.597 66.720
2.97 109.142 67.038
2.98 109.908 67.221
2.99 109.892 66.979
3.00 108.954 66.314
3.01 108.251 65.465
3.02 107.041 64.918
3.03 106.901 65.146
3.04 108.109 65.417
3.05 108.663 65.127
3.06 107.029 64.214
3.07 --undefined-- 62.591
3.08 --undefined-- 60.434
3.09 --undefined-- 58.080
3.10 --undefined-- 56.290
3.11 --undefined-- 57.245
3.12 --undefined-- 60.624
3.13 --undefined-- 64.605
3.14 100.872 67.322
3.15 100.160 68.371
3.16 99.763 68.117
3.17 100.320 67.181
3.18 100.024 66.134
3.19 100.537 64.802
3.20 102.296 62.640
3.21 103.247 60.173
3.22 104.427 58.331
3.23 104.236 56.809
3.24 104.513 55.276
3.25 101.894 54.324
3.26 101.335 54.340
3.27 100.598 54.833
3.28 100.622 55.495
3.29 98.614 56.333
3.30 98.776 56.770
3.31 99.013 55.875
3.32 --undefined-- 52.903
3.33 --undefined-- 47.405
3.34 --undefined-- 40.335
3.35 --undefined-- 37.967
3.36 --undefined-- 46.242
3.37 --undefined-- 54.035
3.38 --undefined-- 60.516
3.39 --undefined-- 64.255
3.40 --undefined-- 65.241
3.41 --undefined-- 66.803
3.42 100.575 69.241
3.43 90.500 70.137
3.44 89.355 69.437
3.45 88.702 68.204
3.46 90.602 67.462
3.47 91.081 66.952
3.48 90.108 66.382
3.49 93.166 65.985
3.50 95.581 65.549
3.51 98.815 64.702
3.52 100.567 63.459
3.53 103.149 61.607
3.54 104.312 58.991
3.55 104.312 55.971
3.56 104.900 53.295
3.57 105.416 52.219
3.58 106.210 52.013
3.59 107.872 52.200
3.60 108.436 52.739
3.61 109.415 53.357
3.62 109.277 53.780
3.63 109.442 53.899
3.64 110.201 53.610
3.65 107.818 52.637
3.66 105.847 50.737
3.67 --undefined-- 47.740
3.68 --undefined-- 43.788
3.69 --undefined-- 39.951
3.70 --undefined-- 37.340
3.71 --undefined-- 37.290
3.72 --undefined-- 38.062
3.73 --undefined-- 37.781
3.74 --undefined-- 37.129
3.75 --undefined-- 38.106
3.76 --undefined-- 39.079
3.77 --undefined-- 38.347
3.78 --undefined-- 37.131
3.79 --undefined-- 37.317
3.80 --undefined-- 38.185
3.81 --undefined-- 38.915
3.82 --undefined-- 39.435
3.83 --undefined-- 39.678
3.84 --undefined-- 39.692
3.85 --undefined-- 39.181
3.86 --undefined-- 38.248
3.87 --undefined-- 38.764
3.88 --undefined-- 39.974
3.89 --undefined-- 39.944
3.90 --undefined-- 42.743
3.91 --undefined-- 48.271
3.92 --undefined-- 52.055
3.93 --undefined-- 53.574
3.94 --undefined-- 54.134
3.95 --undefined-- 54.932
3.96 --undefined-- 57.338
3.97 --undefined-- 61.363
3.98 --undefined-- 65.129
3.99 --undefined-- 67.235
4.00 --undefined-- 67.751
4.01 --undefined-- 70.366
4.02 --undefined-- 73.714
4.03 --undefined-- 74.538
4.04 --undefined-- 73.297
4.05 --undefined-- 71.774
4.06 --undefined-- 70.643
4.07 --undefined-- 68.697
4.08 136.743 65.067
4.09 133.531 60.410
4.10 137.738 57.448
4.11 135.413 56.119
4.12 134.442 55.643
4.13 133.384 55.596
4.14 132.148 55.354
4.15 131.079 55.440
4.16 129.889 56.064
4.17 127.144 56.909
4.18 123.584 57.277
4.19 123.197 57.277
4.20 --undefined-- 59.164
4.21 --undefined-- 61.657
4.22 --undefined-- 63.896
4.23 --undefined-- 65.768
4.24 --undefined-- 66.918
4.25 --undefined-- 68.202
4.26 --undefined-- 69.107
4.27 --undefined-- 68.869
4.28 118.491 68.453
4.29 118.558 68.391
4.30 114.852 68.013
4.31 106.564 67.276
4.32 108.627 66.591
4.33 109.839 66.034
4.34 109.413 66.129
4.35 108.754 66.745
4.36 111.840 67.322
4.37 112.519 67.392
4.38 114.735 66.917
4.39 120.058 66.657
4.40 121.881 66.608
4.41 121.953 65.650
4.42 123.939 63.495
4.43 124.200 62.188
4.44 121.741 64.534
4.45 121.155 68.267
4.46 121.195 71.039
4.47 --undefined-- 72.375
4.48 --undefined-- 72.464
4.49 --undefined-- 71.670
4.50 100.850 70.353
4.51 97.670 68.277
4.52 95.547 65.351
4.53 --undefined-- 61.706
4.54 --undefined-- 56.357
4.55 --undefined-- 49.494
4.56 --undefined-- 45.865
4.57 --undefined-- 44.957
4.58 --undefined-- 43.441
4.59 --undefined-- 42.101
4.60 --undefined-- 42.544
4.61 --undefined-- 43.137
4.62 --undefined-- 42.352
4.63 --undefined-- 41.545
4.64 --undefined-- 42.963
4.65 --undefined-- 47.248
4.66 --undefined-- 50.587
4.67 --undefined-- 51.329
4.68 96.635 51.887
4.69 97.066 54.400
4.70 98.708 57.348
4.71 96.487 59.445
4.72 95.452 60.162
4.73 93.862 59.647
4.74 93.686 57.937
4.75 95.781 55.235
4.76 99.950 53.336
4.77 103.430 53.654
4.78 105.313 54.468
4.79 109.298 55.014
4.80 112.980 55.646
4.81 114.753 56.457
4.82 115.281 56.819
4.83 117.112 56.268
4.84 --undefined-- 54.541
4.85 --undefined-- 53.350
4.86 --undefined-- 54.223
4.87 --undefined-- 54.418
4.88 --undefined-- 54.041
4.89 --undefined-- 54.859
4.90 --undefined-- 56.332
4.91 --undefined-- 57.323
4.92 --undefined-- 58.297
4.93 --undefined-- 62.325
4.94 --undefined-- 68.210
4.95 --undefined-- 71.297
4.96 --undefined-- 71.584
4.97 127.322 70.259
4.98 123.709 67.939
4.99 122.001 64.528
5.00 121.378 60.729
5.01 121.125 57.936
5.02 120.388 56.327
5.03 119.701 55.221
5.04 119.114 54.720
5.05 119.294 55.096
5.06 118.984 56.016
5.07 118.304 56.770
5.08 116.633 56.790
5.09 115.482 56.015
5.10 113.705 55.976
5.11 111.179 60.677
5.12 108.598 66.054
5.13 106.678 69.348
5.14 104.834 70.899
5.15 101.285 71.073
5.16 98.651 70.257
5.17 --undefined-- 68.259
5.18 --undefined-- 64.510
5.19 --undefined-- 59.043
5.20 --undefined-- 51.891
5.21 --undefined-- 46.168
5.22 --undefined-- 45.286
5.23 --undefined-- 44.097
5.24 --undefined-- 42.099
5.25 --undefined-- 40.671
5.26 --undefined-- 40.462
5.27 --undefined-- 40.781
5.28 --undefined-- 41.954
5.29 --undefined-- 44.680
5.30 --undefined-- 47.604
5.31 --undefined-- 49.774
5.32 --undefined-- 50.588
5.33 --undefined-- 51.083
5.34 --undefined-- 52.510
5.35 --undefined-- 54.848
5.36 --undefined-- 57.821
5.37 --undefined-- 63.295
5.38 --undefined-- 68.147
5.39 --undefined-- 70.353
5.40 --undefined-- 69.693
5.41 --undefined-- 66.019
5.42 --undefined-- 59.046
5.43 --undefined-- 49.262
5.44 --undefined-- 44.338
5.45 --undefined-- 43.057
5.46 --undefined-- 40.883
5.47 --undefined-- 38.140
5.48 --undefined-- 35.818
5.49 --undefined-- 35.729
5.50 --undefined-- 37.390
5.51 --undefined-- 37.439
5.52 --undefined-- 35.633
5.53 --undefined-- 34.638
5.54 --undefined-- 35.292
5.55 --undefined-- 36.386
5.56 --undefined-- 37.462
5.57 --undefined-- 36.897
5.58 --undefined-- 35.265
5.59 --undefined-- 34.699
5.60 --undefined-- 35.946
5.61 --undefined-- 42.798
5.62 --undefined-- 50.799
5.63 --undefined-- 58.178
5.64 --undefined-- 63.130
5.65 --undefined-- 65.005
5.66 106.356 64.726
5.67 100.406 63.427
5.68 99.568 62.050
5.69 98.037 61.299
5.70 97.220 60.750
5.71 96.100 59.879
5.72 96.200 58.884
5.73 91.911 58.160
5.74 90.732 56.750
5.75 90.870 53.803
5.76 90.970 51.174
5.77 95.989 --undefined--
5.78 96.726 --undefined--
5.79 --undefined-- --undefined--
5.80 --undefined-- --undefined--
