Time Pitch Intensity
0.01 --undefined-- --undefined--
0.02 180.000 --undefined--
0.03 174.870 --undefined--
0.04 170.705 --undefined--
0.05 166.537 75.816
0.06 162.920 76.088
0.07 160.624 76.169
0.08 159.045 76.033
0.09 157.837 75.483
0.10 156.829 74.476
0.11 155.177 72.622
0.12 149.683 69.327
0.13 148.026 64.886
0.14 153.053 61.507
0.15 151.860 59.660
0.16 150.946 57.809
0.17 148.371 55.871
0.18 147.147 55.200
0.19 150.747 55.981
0.20 75.591 56.282
0.21 75.580 55.903
0.22 147.300 55.292
0.23 145.054 54.169
0.24 145.574 52.362
0.25 --undefined-- 50.062
0.26 --undefined-- 47.489
0.27 --undefined-- 45.859
0.28 --undefined-- 46.703
0.29 --undefined-- 47.204
0.30 --undefined-- 47.290
0.31 --undefined-- 49.159
0.32 --undefined-- 51.915
0.33 --undefined-- 54.203
0.34 --undefined-- 55.859
0.35 --undefined-- 56.358
0.36 --undefined-- 56.089
0.37 --undefined-- 55.777
0.38 --undefined-- 55.570
0.39 --undefined-- 55.222
0.40 --undefined-- 55.050
0.41 --undefined-- 55.430
0.42 --undefined-- 54.639
0.43 --undefined-- 52.262
0.44 --undefined-- 50.267
0.45 --undefined-- 49.457
0.46 --undefined-- 48.434
0.47 --undefined-- 46.843
0.48 --undefined-- 45.676
0.49 --undefined-- 45.498
0.50 --undefined-- 45.687
0.51 --undefined-- 47.030
0.52 119.553 49.497
0.53 118.835 51.543
0.54 117.639 53.138
0.55 125.274 54.703
0.56 130.686 56.632
0.57 134.936 58.615
0.58 139.509 60.154
0.59 142.509 61.460
0.60 144.890 62.497
0.61 144.307 62.645
0.62 141.427 62.106
0.63 138.631 62.360
0.64 135.785 63.546
0.65 131.231 64.811
0.66 128.971 65.996
0.67 122.612 68.003
0.68 114.576 70.217
0.69 112.411 70.993
0.70 107.057 69.979
0.71 103.072 67.405
0.72 102.045 64.286
0.73 101.378 61.739
0.74 102.135 59.284
0.75 102.714 57.326
0.76 --undefined-- 56.316
0.77 --undefined-- 55.040
0.78 --undefined-- 54.182
0.79 --undefined-- 53.918
0.80 --undefined-- 53.674
0.81 --undefined-- 52.730
0.82 --undefined-- 51.476
0.83 --undefined-- 49.734
0.84 --undefined-- 47.711
0.85 --undefined-- 47.394
0.86 --undefined-- 48.798
0.87 --undefined-- 50.979
0.88 --undefined-- 53.188
0.89 --undefined-- 55.781
0.90 --undefined-- 57.318
0.91 --undefined-- 57.423
0.92 --undefined-- 56.659
0.93 --undefined-- 53.992
0.94 --undefined-- 50.591
0.95 --undefined-- 46.889
0.96 --undefined-- 41.731
0.97 --undefined-- 38.579
0.98 --undefined-- 36.392
0.99 --undefined-- 34.464
1.00 --undefined-- 36.292
1.01 --undefined-- 38.307
1.02 --undefined-- 37.830
1.03 --undefined-- 34.848
1.04 --undefined-- 32.321
1.05 --undefined-- 33.491
1.06 --undefined-- 34.894
1.07 --undefined-- 35.789
1.08 --undefined-- 40.802
1.09 --undefined-- 51.097
1.10 --undefined-- 59.620
1.11 --undefined-- 65.121
1.12 --undefined-- 67.968
1.13 140.408 69.357
1.14 148.833 70.371
1.15 156.412 71.308
1.16 163.794 71.630
1.17 173.494 71.156
1.18 179.854 70.903
1.19 184.673 70.971
1.20 185.312 70.173
1.21 184.138 67.566
1.22 172.804 62.604
1.23 --undefined-- 55.534
1.24 --undefined-- 49.354
1.25 --undefined-- 50.631
1.26 152.001 57.039
1.27 158.435 63.234
1.28 163.016 68.184
1.29 167.213 71.877
1.30 170.130 74.360
1.31 169.932 75.487
1.32 168.065 75.086
1.33 169.074 73.295
1.34 174.503 71.056
1.35 180.490 69.964
1.36 183.915 70.190
1.37 185.250 70.879
1.38 184.684 71.068
1.39 181.002 70.261
1.40 176.743 68.152
1.41 169.614 64.240
1.42 --undefined-- 58.495
1.43 --undefined-- 53.541
1.44 --undefined-- 52.796
1.45 --undefined-- 52.983
1.46 --undefined-- 53.327
1.47 --undefined-- 54.126
1.48 --undefined-- 54.491
1.49 --undefined-- 56.114
1.50 160.172 60.261
1.51 149.397 63.813
1.52 146.320 65.919
1.53 144.283 66.734
1.54 142.679 66.615
1.55 143.598 66.271
1.56 146.310 65.959
1.57 149.141 65.291
1.58 153.275 64.526
1.59 156.303 64.145
1.60 161.541 63.913
1.61 164.554 63.422
1.62 167.309 62.757
1.63 170.491 62.080
1.64 172.693 61.295
1.65 173.945 60.504
1.66 174.103 59.330
1.67 170.960 57.485
1.68 170.041 55.283
1.69 --undefined-- 52.631
1.70 --undefined-- 49.680
1.71 --undefined-- 47.946
1.72 --undefined-- 46.449
1.73 --undefined-- 43.426
1.74 --undefined-- 39.554
1.75 --undefined-- 36.960
1.76 --undefined-- 35.415
1.77 --undefined-- 34.736
1.78 --undefined-- 35.701
1.79 --undefined-- 36.470
1.80 --undefined-- 36.350
1.81 --undefined-- 35.589
1.82 --undefined-- 34.575
1.83 --undefined-- 33.825
1.84 --undefined-- 34.576
1.85 --undefined-- 35.453
1.86 --undefined-- 36.102
1.87 --undefined-- 47.210
1.88 --undefined-- 58.478
1.89 --undefined-- 65.520
1.90 139.307 69.414
1.91 136.058 71.201
1.92 135.071 72.076
1.93 137.700 73.310
1.94 143.027 74.787
1.95 148.968 75.554
1.96 152.673 75.374
1.97 156.321 74.463
1.98 160.415 72.730
1.99 162.152 69.712
2.00 163.566 65.537
2.01 164.054 62.146
2.02 160.569 59.485
2.03 --undefined-- 55.149
2.04 --undefined-- 49.590
2.05 --undefined-- 45.149
2.06 --undefined-- 43.699
2.07 --undefined-- 48.962
2.08 148.279 55.039
2.09 148.453 59.149
2.10 148.219 61.190
2.11 146.439 61.402
2.12 141.103 60.288
2.13 138.370 58.271
2.14 133.534 55.939
2.15 132.493 54.599
2.16 134.551 53.962
2.17 134.675 52.891
2.18 --undefined-- 51.150
2.19 --undefined-- 48.860
2.20 --undefined-- 48.685
2.21 --undefined-- 55.269
2.22 153.925 61.425
2.23 155.628 65.029
2.24 156.329 66.129
2.25 155.244 64.970
2.26 152.864 62.054
2.27 152.864 58.560
2.28 155.072 56.767
2.29 155.134 56.806
2.30 154.188 56.565
2.31 149.986 55.228
2.32 145.031 53.163
2.33 --undefined-- 50.312
2.34 --undefined-- 48.015
2.35 --undefined-- 56.986
2.36 --undefined-- 64.915
2.37 --undefined-- 69.338
2.38 --undefined-- 71.105
2.39 --undefined-- 70.974
2.40 110.733 69.945
2.41 109.536 69.114
2.42 110.523 69.069
2.43 110.735 69.119
2.44 110.584 68.623
2.45 110.451 67.918
2.46 109.376 66.980
2.47 108.351 65.360
2.48 105.799 62.601
2.49 104.199 58.722
2.50 103.706 54.748
2.51 102.288 51.521
2.52 --undefined-- 49.322
2.53 --undefined-- 50.532
2.54 103.385 53.627
2.55 103.512 55.236
2.56 103.481 55.071
2.57 104.000 53.902
2.58 104.850 52.503
2.59 107.461 51.508
2.60 108.298 50.489
2.61 --undefined-- 49.036
2.62 --undefined-- 47.697
2.63 --undefined-- 45.980
2.64 --undefined-- 43.622
2.65 --undefined-- 42.921
2.66 --undefined-- 44.927
2.67 --undefined-- 45.709
2.68 --undefined-- 44.842
2.69 --undefined-- 44.755
2.70 --undefined-- 47.251
2.71 --undefined-- 55.913
2.72 --undefined-- 61.789
2.73 --undefined-- 63.478
2.74 --undefined-- 62.389
2.75 --undefined-- 61.150
2.76 --undefined-- 60.552
2.77 --undefined-- 58.954
2.78 --undefined-- 55.672
2.79 --undefined-- 52.955
2.80 --undefined-- 51.251
2.81 --undefined-- 49.051
2.82 --undefined-- 46.599
2.83 --undefined-- 44.534
2.84 --undefined-- 43.958
2.85 --undefined-- 43.633
2.86 --undefined-- 41.057
2.87 --undefined-- 38.260
2.88 --undefined-- 37.165
2.89 --undefined-- 36.903
2.90 --undefined-- 36.919
2.91 --undefined-- 36.418
2.92 --undefined-- 35.409
2.93 --undefined-- 35.095
2.94 --undefined-- 34.681
2.95 --undefined-- 34.078
2.96 --undefined-- 35.300
2.97 --undefined-- 36.418
2.98 --undefined-- 37.254
2.99 --undefined-- 38.240
3.00 --undefined-- 38.898
3.01 --undefined-- 37.849
3.02 --undefined-- 35.167
3.03 --undefined-- 33.518
3.04 --undefined-- 32.920
3.05 --undefined-- 32.572
3.06 --undefined-- 32.653
3.07 --undefined-- 32.631
3.08 --undefined-- 31.709
3.09 --undefined-- 30.337
3.10 --undefined-- 30.381
3.11 --undefined-- 31.336
3.12 --undefined-- 33.715
3.13 --undefined-- 39.249
3.14 --undefined-- 45.166
3.15 --undefined-- 52.839
3.16 200.192 61.172
3.17 203.925 67.384
3.18 206.030 71.101
3.19 205.207 72.424
3.20 201.064 71.545
3.21 201.152 69.497
3.22 202.284 68.281
3.23 202.415 68.293
3.24 203.165 69.155
3.25 206.493 70.446
3.26 208.475 71.303
3.27 208.745 71.210
3.28 208.591 70.287
3.29 208.019 68.524
3.30 205.650 65.494
3.31 187.094 60.681
3.32 182.306 54.119
3.33 --undefined-- 47.914
3.34 --undefined-- 43.775
3.35 --undefined-- 40.075
3.36 --undefined-- 37.387
3.37 --undefined-- 37.990
3.38 --undefined-- 39.737
3.39 --undefined-- 45.531
3.40 --undefined-- 52.998
3.41 --undefined-- 57.299
3.42 --undefined-- 59.319
3.43 162.590 61.327
3.44 159.787 64.507
3.45 158.639 67.479
3.46 157.512 69.229
3.47 156.279 69.706
3.48 153.320 69.391
3.49 149.749 68.715
3.50 146.991 67.948
3.51 144.832 67.271
3.52 144.217 66.418
3.53 143.589 65.124
3.54 142.710 63.312
3.55 141.438 61.042
3.56 140.784 58.635
3.57 140.044 56.142
3.58 138.282 52.973
3.59 --undefined-- 48.794
3.60 --undefined-- 44.026
3.61 --undefined-- 39.656
3.62 --undefined-- 37.357
3.63 --undefined-- 35.905
3.64 --undefined-- 34.563
3.65 --undefined-- 34.037
3.66 --undefined-- 34.132
3.67 --undefined-- 35.134
3.68 --undefined-- 35.927
3.69 --undefined-- 36.284
3.70 --undefined-- 36.447
3.71 --undefined-- 36.296
3.72 --undefined-- 35.432
3.73 --undefined-- 34.194
3.74 --undefined-- 35.133
3.75 --undefined-- 37.458
3.76 --undefined-- 39.632
3.77 --undefined-- 46.963
3.78 --undefined-- 54.518
3.79 --undefined-- 60.294
3.80 --undefined-- 64.802
3.81 113.725 68.016
3.82 115.970 70.003
3.83 115.566 70.636
3.84 114.018 69.766
3.85 --undefined-- 66.908
3.86 --undefined-- 61.406
3.87 --undefined-- 53.155
3.88 --undefined-- 46.349
3.89 --undefined-- 44.673
3.90 --undefined-- 43.661
3.91 --undefined-- 43.104
3.92 --undefined-- 44.208
3.93 --undefined-- 45.291
3.94 --undefined-- 45.819
3.95 --undefined-- 47.087
3.96 106.683 49.018
3.97 107.250 50.535
3.98 107.243 51.817
3.99 107.649 52.945
4.00 108.770 53.608
4.01 110.417 53.947
4.02 111.744 54.380
4.03 112.599 54.541
4.04 113.759 53.765
4.05 114.705 51.805
4.06 --undefined-- 48.205
4.07 --undefined-- 42.265
4.08 --undefined-- 35.059
4.09 --undefined-- 31.512
4.10 --undefined-- 30.229
4.11 --undefined-- 37.113
4.12 --undefined-- 46.154
4.13 --undefined-- 55.238
4.14 177.909 62.810
4.15 176.544 67.544
4.16 173.151 70.244
4.17 170.135 72.208
4.18 169.210 74.283
4.19 167.699 75.931
4.20 165.602 76.666
4.21 162.901 76.789
4.22 160.895 76.517
4.23 158.406 75.823
4.24 156.808 75.185
4.25 156.208 74.897
4.26 155.699 74.939
4.27 155.929 75.177
4.28 157.472 75.453
4.29 159.634 75.740
4.30 161.719 76.078
4.31 162.666 76.290
4.32 162.310 75.943
4.33 161.824 74.554
4.34 160.965 71.911
4.35 159.720 67.921
4.36 157.951 62.676
4.37 154.971 56.308
4.38 156.392 52.672
4.39 156.608 52.566
4.40 156.561 52.488
4.41 155.676 52.451
4.42 154.981 52.431
4.43 154.925 52.541
4.44 155.187 52.683
4.45 --undefined-- 52.293
4.46 --undefined-- 51.534
4.47 --undefined-- 50.687
4.48 --undefined-- 49.600
4.49 --undefined-- 48.387
4.50 --undefined-- 46.819
4.51 --undefined-- 45.019
4.52 --undefined-- 44.183
4.53 --undefined-- 43.829
4.54 --undefined-- 42.307
4.55 --undefined-- 39.011
4.56 --undefined-- 34.146
4.57 --undefined-- 31.111
4.58 --undefined-- 32.909
4.59 --undefined-- 35.454
4.60 --undefined-- 35.705
4.61 --undefined-- 34.737
4.62 --undefined-- 36.583
4.63 --undefined-- 39.193
4.64 --undefined-- 40.925
4.65 --undefined-- 41.684
4.66 --undefined-- 41.359
4.67 --undefined-- 40.562
4.68 --undefined-- 40.153
4.69 --undefined-- 40.717
4.70 --undefined-- 41.053
4.71 --undefined-- 41.037
4.72 --undefined-- 41.485
4.73 --undefined-- 41.040
4.74 --undefined-- 38.960
4.75 --undefined-- 35.993
4.76 --undefined-- 34.879
4.77 --undefined-- 36.190
4.78 --undefined-- 36.963
4.79 --undefined-- 36.885
4.80 --undefined-- 36.663
4.81 --undefined-- 36.240
4.82 --undefined-- 34.916
4.83 --undefined-- 32.374
4.84 --undefined-- 31.455
4.85 --undefined-- 33.804
4.86 --undefined-- 35.459
4.87 --undefined-- 35.140
4.88 --undefined-- 33.464
4.89 --undefined-- 32.792
4.90 --undefined-- 33.952
4.91 --undefined-- 34.746
4.92 --undefined-- 35.537
4.93 --undefined-- 46.058
4.94 --undefined-- 56.948
4.95 --undefined-- 63.926
4.96 --undefined-- 67.892
4.97 --undefined-- 69.494
4.98 126.650 69.017
4.99 126.241 67.214
5.00 115.271 65.258
5.01 113.599 63.163
5.02 111.724 61.666
5.03 --undefined-- 64.251
5.04 --undefined-- 68.812
5.05 --undefined-- 71.981
5.06 142.952 73.239
5.07 144.742 72.675
5.08 147.511 70.650
5.09 150.537 67.359
5.10 152.424 62.683
5.11 169.890 57.766
5.12 174.164 56.182
5.13 177.968 56.720
5.14 178.476 57.336
5.15 178.491 57.699
5.16 177.341 57.662
5.17 174.594 56.780
5.18 170.575 53.966
5.19 --undefined-- 48.578
5.20 --undefined-- 42.779
5.21 --undefined-- 42.593
5.22 --undefined-- 43.685
5.23 --undefined-- 49.570
5.24 --undefined-- 58.543
5.25 --undefined-- 64.423
5.26 --undefined-- 67.292
5.27 147.394 67.743
5.28 139.117 66.525
5.29 135.227 64.627
5.30 133.364 62.623
5.31 131.115 60.665
5.32 129.547 59.045
5.33 130.013 57.427
5.34 131.465 55.783
5.35 130.968 54.287
5.36 129.562 53.095
5.37 --undefined-- 51.916
5.38 --undefined-- 50.390
5.39 --undefined-- 48.845
5.40 --undefined-- 47.720
5.41 --undefined-- 46.228
5.42 --undefined-- 44.145
5.43 --undefined-- 42.598
5.44 --undefined-- 42.177
5.45 --undefined-- 41.815
5.46 --undefined-- 42.646
5.47 --undefined-- 48.398
5.48 --undefined-- 56.049
5.49 167.953 61.234
5.50 164.700 63.619
5.51 159.606 63.476
5.52 153.731 61.689
5.53 152.618 59.779
5.54 151.268 57.724
5.55 150.341 54.515
5.56 --undefined-- 51.055
5.57 147.101 50.646
5.58 146.197 51.356
5.59 145.547 51.535
5.60 145.872 51.504
5.61 146.899 51.516
5.62 147.574 51.730
5.63 147.786 52.226
5.64 146.807 52.704
5.65 146.352 52.822
5.66 146.577 52.889
5.67 146.979 53.179
5.68 146.872 53.072
5.69 145.988 52.058
5.70 --undefined-- 50.539
5.71 --undefined-- 51.987
5.72 145.847 57.563
5.73 143.684 62.510
5.74 142.968 65.860
5.75 137.342 67.825
5.76 135.083 68.698
5.77 132.577 68.629
5.78 132.029 67.920
5.79 132.266 66.564
5.80 132.630 63.556
5.81 132.516 57.982
5.82 --undefined-- 49.657
5.83 --undefined-- 42.295
5.84 --undefined-- 43.438
5.85 --undefined-- 45.416
5.86 --undefined-- 46.063
5.87 --undefined-- 45.652
5.88 --undefined-- 44.542
5.89 --undefined-- 42.793
5.90 --undefined-- 40.474
5.91 --undefined-- 37.987
5.92 --undefined-- 35.637
5.93 --undefined-- 34.069
5.94 --undefined-- 32.858
5.95 --undefined-- 33.352
5.96 --undefined-- 35.825
5.97 --undefined-- 36.948
5.98 --undefined-- 36.855
5.99 --undefined-- 36.536
6.00 --undefined-- 35.167
6.01 --undefined-- 33.218
6.02 --undefined-- 33.434
6.03 --undefined-- 34.319
6.04 --undefined-- 33.313
6.05 --undefined-- 32.183
6.06 --undefined-- 32.919
6.07 --undefined-- 34.693
6.08 --undefined-- 35.346
6.09 --undefined-- 34.533
6.10 --undefined-- 33.141
6.11 --undefined-- 32.440
6.12 --undefined-- 33.288
6.13 --undefined-- 34.057
6.14 --undefined-- 34.749
6.15 --undefined-- 36.718
6.16 --undefined-- 37.930
6.17 --undefined-- 36.670
6.18 --undefined-- 33.290
6.19 --undefined-- 31.869
6.20 --undefined-- 32.965
6.21 --undefined-- 33.637
6.22 --undefined-- 33.410
6.23 --undefined-- 33.432
6.24 --undefined-- 33.183
6.25 --undefined-- 32.258
6.26 --undefined-- 31.710
6.27 --undefined-- 31.153
6.28 --undefined-- 29.960
6.29 --undefined-- 30.182
6.30 --undefined-- 32.568
6.31 --undefined-- 33.699
6.32 --undefined-- 32.249
6.33 --undefined-- 30.684
6.34 --undefined-- 32.164
6.35 --undefined-- 33.082
6.36 --undefined-- 32.966
6.37 --undefined-- 34.360
6.38 --undefined-- 35.134
6.39 --undefined-- 33.578
6.40 --undefined-- 31.133
6.41 --undefined-- 31.480
6.42 --undefined-- 32.720
6.43 --undefined-- 31.599
6.44 --undefined-- 28.814
6.45 --undefined-- 29.478
6.46 --undefined-- 31.765
6.47 --undefined-- 31.974
6.48 --undefined-- 31.360
6.49 --undefined-- 31.171
6.50 --undefined-- 31.542
6.51 --undefined-- 32.120
6.52 --undefined-- 32.016
6.53 --undefined-- 32.191
6.54 --undefined-- 31.679
6.55 --undefined-- 31.262
6.56 --undefined-- 32.666
6.57 --undefined-- 33.603
6.58 --undefined-- 33.676
6.59 --undefined-- 32.823
6.60 --undefined-- 31.785
6.61 --undefined-- 32.595
6.62 --undefined-- 32.803
6.63 --undefined-- 31.630
6.64 --undefined-- 30.079
6.65 --undefined-- 30.116
6.66 --undefined-- 34.055
6.67 --undefined-- 41.998
6.68 --undefined-- 48.167
6.69 140.470 52.456
6.70 139.429 55.462
6.71 140.277 56.933
6.72 139.440 57.454
6.73 138.066 57.874
6.74 134.315 58.387
6.75 128.109 58.915
6.76 127.496 59.113
6.77 126.484 58.852
6.78 125.534 58.519
6.79 124.907 58.286
6.80 124.590 58.249
6.81 124.628 58.499
6.82 125.336 58.801
6.83 126.979 59.060
6.84 129.315 59.327
6.85 132.421 59.639
6.86 135.787 60.042
6.87 138.320 60.472
6.88 139.654 60.844
6.89 139.863 60.827
6.90 140.275 59.892
6.91 138.491 58.382
6.92 --undefined-- 57.877
6.93 --undefined-- 57.182
6.94 --undefined-- 55.747
6.95 --undefined-- 56.544
6.96 --undefined-- 57.443
6.97 --undefined-- 56.370
6.98 --undefined-- 54.201
6.99 --undefined-- 52.356
7.00 --undefined-- 55.348
7.01 141.645 62.674
7.02 144.668 68.748
7.03 142.959 72.670
7.04 138.886 74.445
7.05 135.312 74.347
7.06 133.042 72.907
7.07 133.000 70.877
7.08 137.064 68.879
7.09 137.688 66.868
7.10 139.471 64.533
7.11 144.460 62.345
7.12 145.367 60.383
7.13 148.375 58.913
7.14 152.460 58.535
7.15 160.259 --undefined--
7.16 170.960 --undefined--
7.17 --undefined-- --undefined--
7.18 --undefined-- --undefined--
