Time Pitch Intensity
0.01 --undefined-- --undefined--
0.02 --undefined-- --undefined--
0.03 --undefined-- --undefined--
0.04 --undefined-- --undefined--
0.05 --undefined-- 64.032
0.06 --undefined-- 60.707
0.07 --undefined-- 58.460
0.08 --undefined-- 55.943
0.09 --undefined-- 51.773
0.10 --undefined-- 46.975
0.11 --undefined-- 43.203
0.12 --undefined-- 41.425
0.13 --undefined-- 39.293
0.14 --undefined-- 37.265
0.15 --undefined-- 36.990
0.16 --undefined-- 37.108
0.17 --undefined-- 36.930
0.18 --undefined-- 38.137
0.19 --undefined-- 39.377
0.20 --undefined-- 39.184
0.21 --undefined-- 37.284
0.22 --undefined-- 35.209
0.23 --undefined-- 34.333
0.24 --undefined-- 34.999
0.25 --undefined-- 36.695
0.26 --undefined-- 38.403
0.27 --undefined-- 45.624
0.28 --undefined-- 55.192
0.29 --undefined-- 60.782
0.30 --undefined-- 62.408
0.31 --undefined-- 60.037
0.32 --undefined-- 53.235
0.33 --undefined-- 42.079
0.34 --undefined-- 36.834
0.35 --undefined-- 43.239
0.36 --undefined-- 55.994
0.37 --undefined-- 63.377
0.38 --undefined-- 66.007
0.39 --undefined-- 65.903
0.40 --undefined-- 67.743
0.41 136.036 70.758
0.42 136.235 73.458
0.43 128.542 75.684
0.44 128.969 77.081
0.45 128.764 77.896
0.46 126.037 78.133
0.47 122.435 77.818
0.48 120.940 77.148
0.49 117.083 76.035
0.50 109.910 74.914
0.51 105.821 74.475
0.52 102.114 74.347
0.53 98.146 74.321
0.54 95.644 74.707
0.55 94.703 74.723
0.56 93.943 73.681
0.57 93.971 72.140
0.58 93.398 71.359
0.59 93.007 71.368
0.60 93.491 71.275
0.61 94.053 70.788
0.62 97.330 70.348
0.63 100.228 70.278
0.64 101.527 70.196
0.65 101.922 70.080
0.66 101.466 69.544
0.67 100.081 67.841
0.68 99.242 65.364
0.69 --undefined-- 62.639
0.70 --undefined-- 59.095
0.71 --undefined-- 55.218
0.72 --undefined-- 55.586
0.73 --undefined-- 58.089
0.74 --undefined-- 59.765
0.75 119.098 62.410
0.76 125.606 65.677
0.77 130.782 68.184
0.78 134.932 69.794
0.79 136.941 70.622
0.80 138.056 70.647
0.81 138.250 69.965
0.82 137.464 69.061
0.83 135.484 68.664
0.84 132.598 68.809
0.85 129.704 69.149
0.86 127.433 69.504
0.87 125.479 69.816
0.88 124.687 70.193
0.89 124.793 70.699
0.90 126.681 71.118
0.91 129.184 71.118
0.92 129.871 70.412
0.93 130.069 68.738
0.94 129.313 65.682
0.95 123.503 60.709
0.96 --undefined-- 53.347
0.97 --undefined-- 45.027
0.98 --undefined-- 40.878
0.99 --undefined-- 38.732
1.00 --undefined-- 36.750
1.01 --undefined-- 35.321
1.02 --undefined-- 35.108
1.03 --undefined-- 35.706
1.04 --undefined-- 39.773
1.05 --undefined-- 50.551
1.06 --undefined-- 57.320
1.07 --undefined-- 59.528
1.08 --undefined-- 59.213
1.09 --undefined-- 62.669
1.10 135.201 66.261
1.11 134.074 66.929
1.12 126.486 64.820
1.13 --undefined-- 60.023
1.14 --undefined-- 52.268
1.15 --undefined-- 45.517
1.16 --undefined-- 48.518
1.17 --undefined-- 51.438
1.18 --undefined-- 53.831
1.19 --undefined-- 59.170
1.20 --undefined-- 64.605
1.21 123.145 67.980
1.22 123.491 69.654
1.23 125.600 70.294
1.24 125.628 69.653
1.25 --undefined-- 66.585
1.26 --undefined-- 60.224
1.27 --undefined-- 58.833
1.28 --undefined-- 66.078
1.29 141.697 71.775
1.30 139.513 75.357
1.31 140.132 76.603
1.32 140.708 75.249
1.33 --undefined-- 70.889
1.34 --undefined-- 62.671
1.35 --undefined-- 50.043
1.36 --undefined-- 41.877
1.37 --undefined-- 50.554
1.38 --undefined-- 61.735
1.39 --undefined-- 67.433
1.40 --undefined-- 69.399
1.41 --undefined-- 71.180
1.42 --undefined-- 73.882
1.43 --undefined-- 75.132
1.44 --undefined-- 74.232
1.45 --undefined-- 71.347
1.46 --undefined-- 67.122
1.47 --undefined-- 62.266
1.48 --undefined-- 58.258
1.49 81.990 56.348
1.50 78.923 55.197
1.51 --undefined-- 55.069
1.52 --undefined-- 55.285
1.53 --undefined-- 53.747
1.54 86.159 53.380
1.55 87.866 56.586
1.56 89.551 60.554
1.57 90.570 64.334
1.58 92.380 67.383
1.59 93.628 69.527
1.60 94.706 70.591
1.61 97.191 71.065
1.62 97.823 71.669
1.63 98.401 71.917
1.64 98.444 71.273
1.65 97.655 70.070
1.66 96.414 68.505
1.67 --undefined-- 66.623
1.68 --undefined-- 64.853
1.69 --undefined-- 63.011
1.70 --undefined-- 61.409
1.71 97.934 61.946
1.72 97.964 64.110
1.73 99.573 65.922
1.74 100.970 66.590
1.75 101.272 66.545
1.76 101.566 67.128
1.77 103.307 68.027
1.78 100.457 68.568
1.79 99.079 69.141
1.80 97.648 69.876
1.81 96.361 70.680
1.82 94.747 71.276
1.83 93.683 71.423
1.84 93.238 71.403
1.85 92.771 70.994
1.86 92.724 70.119
1.87 92.387 69.620
1.88 91.727 69.131
1.89 91.293 68.390
1.90 91.202 68.050
1.91 91.057 68.073
1.92 91.184 67.735
1.93 91.945 66.672
1.94 92.803 65.333
1.95 92.364 64.543
1.96 92.891 64.108
1.97 93.113 64.135
1.98 92.433 64.631
1.99 93.655 64.596
2.00 93.690 63.978
2.01 93.257 63.235
2.02 93.209 63.130
2.03 91.329 63.356
2.04 88.839 63.298
2.05 89.906 63.381
2.06 90.188 63.784
2.07 --undefined-- 63.821
2.08 --undefined-- 63.399
2.09 --undefined-- 63.094
2.10 --undefined-- 62.256
2.11 --undefined-- 60.031
2.12 82.189 56.749
2.13 82.494 54.206
2.14 --undefined-- 53.068
2.15 --undefined-- 53.152
2.16 --undefined-- 53.851
2.17 --undefined-- 53.916
2.18 --undefined-- 52.294
2.19 --undefined-- 49.257
2.20 --undefined-- 46.137
2.21 --undefined-- 43.704
2.22 --undefined-- 52.581
2.23 --undefined-- 60.217
2.24 --undefined-- 64.011
2.25 --undefined-- 66.412
2.26 --undefined-- 68.010
2.27 --undefined-- 67.693
2.28 --undefined-- 65.444
2.29 --undefined-- 61.735
2.30 --undefined-- 56.697
2.31 --undefined-- 49.595
2.32 --undefined-- 40.611
2.33 --undefined-- 36.815
2.34 --undefined-- 36.143
2.35 --undefined-- 35.992
2.36 --undefined-- 37.102
2.37 --undefined-- 44.538
2.38 --undefined-- 54.635
2.39 --undefined-- 63.691
2.40 --undefined-- 69.408
2.41 --undefined-- 71.715
2.42 --undefined-- 71.332
2.43 --undefined-- 69.252
2.44 --undefined-- 66.885
2.45 --undefined-- 64.379
2.46 --undefined-- 60.463
2.47 102.912 55.830
2.48 106.856 53.765
2.49 109.787 53.731
2.50 113.709 53.983
2.51 117.506 54.039
2.52 119.547 54.207
2.53 123.544 54.949
2.54 125.231 56.456
2.55 129.664 59.070
2.56 143.062 64.346
2.57 147.040 70.148
2.58 148.599 74.046
2.59 149.506 75.632
2.60 149.359 75.166
2.61 148.307 73.072
2.62 146.734 69.048
2.63 --undefined-- 61.939
2.64 --undefined-- 50.550
2.65 --undefined-- 40.203
2.66 --undefined-- 38.508
2.67 --undefined-- 38.116
2.68 --undefined-- 48.513
2.69 --undefined-- 60.284
2.70 --undefined-- 67.863
2.71 --undefined-- 72.167
2.72 --undefined-- 73.399
2.73 --undefined-- 71.827
2.74 109.326 68.246
2.75 104.655 63.894
2.76 99.104 60.201
2.77 95.949 58.521
2.78 92.652 57.855
2.79 89.787 57.125
2.80 90.132 55.950
2.81 88.071 54.042
2.82 --undefined-- 51.438
2.83 --undefined-- 50.169
2.84 --undefined-- 52.604
2.85 --undefined-- 56.435
2.86 --undefined-- 60.687
2.87 --undefined-- 63.196
2.88 89.176 64.266
2.89 88.605 64.762
2.90 88.884 65.022
2.91 89.667 65.607
2.92 89.762 66.305
2.93 89.517 67.042
2.94 90.003 67.595
2.95 89.978 67.547
2.96 90.897 67.218
2.97 91.901 66.884
2.98 --undefined-- 65.363
2.99 --undefined-- 62.391
3.00 --undefined-- 62.726
3.01 --undefined-- 64.157
3.02 --undefined-- 67.265
3.03 118.247 71.434
3.04 121.413 73.967
3.05 122.903 75.032
3.06 126.848 75.322
3.07 129.380 75.487
3.08 129.082 75.669
3.09 128.159 75.441
3.10 123.990 74.423
3.11 119.979 72.065
3.12 --undefined-- 67.590
3.13 --undefined-- 60.406
3.14 --undefined-- 50.359
3.15 --undefined-- 44.379
3.16 --undefined-- 54.218
3.17 --undefined-- 61.738
3.18 --undefined-- 64.623
3.19 --undefined-- 63.929
3.20 --undefined-- 62.646
3.21 --undefined-- 63.923
3.22 139.228 66.351
3.23 143.501 68.760
3.24 144.846 69.924
3.25 143.809 68.971
3.26 143.521 66.531
3.27 143.267 65.136
3.28 142.047 64.946
3.29 141.603 64.553
3.30 142.411 64.079
3.31 145.158 63.948
3.32 147.263 64.060
3.33 148.009 64.265
3.34 147.527 64.212
3.35 146.147 63.619
3.36 143.724 62.974
3.37 141.656 62.934
3.38 139.643 62.995
3.39 135.871 62.618
3.40 131.834 63.192
3.41 --undefined-- 67.422
3.42 --undefined-- 71.722
3.43 --undefined-- 74.377
3.44 --undefined-- 76.113
3.45 --undefined-- 77.436
3.46 --undefined-- 77.308
3.47 --undefined-- 75.489
3.48 --undefined-- 72.246
3.49 --undefined-- 68.889
3.50 --undefined-- 65.970
3.51 --undefined-- 62.955
3.52 --undefined-- 64.942
3.53 --undefined-- 68.035
3.54 86.364 70.319
3.55 86.321 71.634
3.56 82.258 71.665
3.57 78.176 71.077
3.58 74.708 70.052
3.59 74.696 67.957
3.60 82.174 64.864
3.61 81.472 61.392
3.62 82.230 58.318
3.63 82.541 55.504
3.64 --undefined-- 53.245
3.65 --undefined-- 51.386
3.66 --undefined-- 49.577
3.67 --undefined-- 47.735
3.68 --undefined-- 44.794
3.69 --undefined-- 43.732
3.70 --undefined-- 45.600
3.71 --undefined-- 47.811
3.72 86.593 51.139
3.73 86.893 54.522
3.74 90.395 57.363
3.75 91.567 59.456
3.76 89.406 60.588
3.77 85.370 61.180
3.78 83.350 61.665
3.79 81.056 61.541
3.80 79.988 60.121
3.81 80.953 57.238
3.82 82.934 53.864
3.83 86.350 52.074
3.84 87.265 52.020
3.85 89.083 52.673
3.86 91.999 54.834
3.87 95.147 58.018
3.88 104.291 60.548
3.89 104.376 63.182
3.90 107.895 65.948
3.91 117.358 68.401
3.92 118.064 70.050
3.93 122.717 70.687
3.94 123.486 70.727
3.95 125.926 70.242
3.96 126.357 68.420
3.97 --undefined-- 64.131
3.98 --undefined-- 56.286
3.99 --undefined-- 51.004
4.00 --undefined-- 58.555
4.01 --undefined-- 62.797
4.02 --undefined-- 65.975
4.03 --undefined-- 69.362
4.04 124.754 71.008
4.05 124.273 70.306
4.06 119.974 66.830
4.07 --undefined-- 60.117
4.08 --undefined-- 49.894
4.09 --undefined-- 44.042
4.10 --undefined-- 52.481
4.11 --undefined-- 58.383
4.12 --undefined-- 61.785
4.13 --undefined-- 64.967
4.14 89.373 67.111
4.15 87.297 67.127
4.16 84.268 65.276
4.17 78.507 61.953
4.18 77.104 57.246
4.19 --undefined-- 51.114
4.20 --undefined-- 43.132
4.21 --undefined-- 38.555
4.22 --undefined-- 39.593
4.23 --undefined-- 49.238
4.24 --undefined-- 58.713
4.25 --undefined-- 65.075
4.26 --undefined-- 69.679
4.27 --undefined-- 71.953
4.28 --undefined-- 72.087
4.29 --undefined-- 71.312
4.30 --undefined-- 69.848
4.31 --undefined-- 67.097
4.32 --undefined-- 63.529
4.33 --undefined-- 59.633
4.34 --undefined-- 55.281
4.35 94.475 52.062
4.36 94.940 52.342
4.37 96.687 53.131
4.38 97.858 53.642
4.39 99.139 54.364
4.40 99.483 55.242
4.41 101.201 56.557
4.42 100.884 58.350
4.43 100.732 60.171
4.44 96.669 61.531
4.45 92.360 62.720
4.46 87.622 64.246
4.47 83.618 64.991
4.48 80.472 64.262
4.49 --undefined-- 62.170
4.50 --undefined-- 59.732
4.51 --undefined-- 58.193
4.52 --undefined-- 57.389
4.53 --undefined-- 57.529
4.54 --undefined-- 58.097
4.55 --undefined-- 58.259
4.56 --undefined-- 59.143
4.57 --undefined-- 60.143
4.58 --undefined-- 59.840
4.59 --undefined-- 58.313
4.60 --undefined-- 56.431
4.61 --undefined-- 57.750
4.62 --undefined-- 63.339
4.63 --undefined-- 67.268
4.64 --undefined-- 69.357
4.65 77.809 69.902
4.66 79.580 69.211
4.67 79.380 68.164
4.68 78.192 67.488
4.69 76.993 67.128
4.70 78.029 66.787
4.71 78.687 65.834
4.72 79.952 64.135
4.73 --undefined-- 62.020
4.74 --undefined-- 59.016
4.75 --undefined-- 54.018
4.76 --undefined-- 46.173
4.77 --undefined-- 39.114
4.78 --undefined-- 37.308
4.79 --undefined-- 41.806
4.80 --undefined-- 52.090
4.81 --undefined-- 58.157
4.82 --undefined-- 60.846
4.83 --undefined-- 64.488
4.84 144.360 68.242
4.85 142.876 70.005
4.86 144.112 70.079
4.87 145.620 69.461
4.88 146.020 68.642
4.89 145.597 67.534
4.90 144.623 66.093
4.91 143.581 64.054
4.92 139.996 61.356
4.93 139.288 58.731
4.94 135.966 56.961
4.95 132.347 57.083
4.96 --undefined-- 58.738
4.97 --undefined-- 59.994
4.98 --undefined-- 60.875
4.99 --undefined-- 61.805
5.00 --undefined-- 63.926
5.01 --undefined-- 66.967
5.02 --undefined-- 69.066
5.03 --undefined-- 69.790
5.04 --undefined-- 69.176
5.05 --undefined-- 67.299
5.06 --undefined-- 65.556
5.07 80.101 66.128
5.08 79.700 66.904
5.09 79.225 66.416
5.10 83.231 64.883
5.11 83.504 62.577
5.12 83.515 59.169
5.13 --undefined-- 54.334
5.14 --undefined-- 47.141
5.15 --undefined-- 40.261
5.16 --undefined-- 39.962
5.17 --undefined-- 47.992
5.18 --undefined-- 55.011
5.19 --undefined-- 58.622
5.20 --undefined-- 59.526
5.21 --undefined-- 59.565
5.22 --undefined-- 64.607
5.23 --undefined-- 69.460
5.24 128.241 71.398
5.25 128.110 70.791
5.26 125.477 67.766
5.27 --undefined-- 62.249
5.28 127.159 55.636
5.29 126.784 53.255
5.30 126.030 52.534
5.31 125.070 50.965
5.32 --undefined-- 49.351
5.33 --undefined-- 47.925
5.34 --undefined-- 48.469
5.35 --undefined-- 52.639
5.36 --undefined-- 56.568
5.37 --undefined-- 59.201
5.38 --undefined-- 60.877
5.39 --undefined-- 61.717
5.40 --undefined-- 61.430
5.41 --undefined-- 61.009
5.42 --undefined-- 62.076
5.43 --undefined-- 63.598
5.44 81.581 63.829
5.45 78.880 63.043
5.46 78.222 62.189
5.47 77.844 61.626
5.48 77.411 60.964
5.49 77.032 60.239
5.50 76.607 59.666
5.51 76.605 59.455
5.52 76.690 59.704
5.53 79.244 --undefined--
5.54 --undefined-- --undefined--
5.55 --undefined-- --undefined--
5.56 --undefined-- --undefined--
