Time Pitch Intensity
0.01 --undefined-- --undefined--
0.02 --undefined-- --undefined--
0.03 --undefined-- --undefined--
0.04 --undefined-- --undefined--
0.05 --undefined-- 48.614
0.06 --undefined-- 42.524
0.07 --undefined-- 38.908
0.08 --undefined-- 38.928
0.09 --undefined-- 40.593
0.10 --undefined-- 43.763
0.11 --undefined-- 48.395
0.12 --undefined-- 52.552
0.13 --undefined-- 54.476
0.14 --undefined-- 57.749
0.15 109.636 62.377
0.16 108.874 65.100
0.17 108.346 65.913
0.18 105.110 65.484
0.19 104.362 64.631
0.20 102.892 63.999
0.21 101.913 63.158
0.22 100.229 61.909
0.23 99.246 60.830
0.24 98.148 60.204
0.25 96.425 59.547
0.26 95.790 58.536
0.27 94.249 57.273
0.28 91.653 55.995
0.29 90.445 54.807
0.30 90.602 53.434
0.31 91.332 52.067
0.32 92.416 51.848
0.33 91.308 52.845
0.34 95.735 53.810
0.35 94.314 54.169
0.36 94.923 54.079
0.37 94.695 54.001
0.38 --undefined-- 53.944
0.39 --undefined-- 52.895
0.40 --undefined-- 51.141
0.41 --undefined-- 55.109
0.42 --undefined-- 60.699
0.43 107.838 64.702
0.44 106.366 67.185
0.45 105.989 68.413
0.46 106.933 68.900
0.47 107.390 69.283
0.48 106.808 69.379
0.49 105.220 68.866
0.50 102.819 68.133
0.51 99.452 67.310
0.52 96.178 66.077
0.53 92.241 64.296
0.54 90.291 61.533
0.55 87.417 57.225
0.56 --undefined-- 51.587
0.57 --undefined-- 47.102
0.58 --undefined-- 45.129
0.59 --undefined-- 43.243
0.60 --undefined-- 40.407
0.61 --undefined-- 37.532
0.62 --undefined-- 37.899
0.63 --undefined-- 46.154
0.64 --undefined-- 52.583
0.65 --undefined-- 55.921
0.66 --undefined-- 58.750
0.67 107.862 61.453
0.68 107.343 62.966
0.69 106.314 63.455
0.70 105.823 63.619
0.71 106.894 63.895
0.72 106.865 64.054
0.73 107.632 63.952
0.74 108.620 63.913
0.75 108.969 64.081
0.76 107.885 64.356
0.77 106.684 65.080
0.78 104.744 66.362
0.79 100.466 67.726
0.80 --undefined-- 68.794
0.81 --undefined-- 69.324
0.82 --undefined-- 69.558
0.83 --undefined-- 69.530
0.84 --undefined-- 68.909
0.85 82.272 67.782
0.86 79.888 66.339
0.87 76.718 65.054
0.88 --undefined-- 63.938
0.89 --undefined-- 61.388
0.90 --undefined-- 56.965
0.91 --undefined-- 52.002
0.92 --undefined-- 47.964
0.93 --undefined-- 45.373
0.94 --undefined-- 43.899
0.95 --undefined-- 42.892
0.96 --undefined-- 41.798
0.97 --undefined-- 41.045
0.98 --undefined-- 42.429
0.99 --undefined-- 44.672
1.00 --undefined-- 47.247
1.01 --undefined-- 51.756
1.02 --undefined-- 56.384
1.03 --undefined-- 58.199
1.04 --undefined-- 56.453
1.05 --undefined-- 51.682
1.06 --undefined-- 46.219
1.07 --undefined-- 41.534
1.08 --undefined-- 37.821
1.09 --undefined-- 40.996
1.10 --undefined-- 49.260
1.11 --undefined-- 58.458
1.12 --undefined-- 65.151
1.13 --undefined-- 68.467
1.14 --undefined-- 68.798
1.15 101.295 66.938
1.16 99.012 64.022
1.17 99.066 60.511
1.18 --undefined-- 55.988
1.19 --undefined-- 50.307
1.20 --undefined-- 44.330
1.21 --undefined-- 41.475
1.22 --undefined-- 46.400
1.23 --undefined-- 53.057
1.24 --undefined-- 56.360
1.25 --undefined-- 56.247
1.26 --undefined-- 56.314
1.27 98.708 57.997
1.28 95.939 58.190
1.29 95.866 56.940
1.30 94.683 54.608
1.31 94.005 52.098
1.32 --undefined-- 50.041
1.33 --undefined-- 49.179
1.34 --undefined-- 49.530
1.35 102.500 50.496
1.36 104.919 52.397
1.37 105.470 54.263
1.38 105.137 55.105
1.39 102.399 54.847
1.40 --undefined-- 53.833
1.41 --undefined-- 51.593
1.42 --undefined-- 50.162
1.43 --undefined-- 51.834
1.44 --undefined-- 53.193
1.45 --undefined-- 52.800
1.46 --undefined-- 51.833
1.47 --undefined-- 52.504
1.48 --undefined-- 54.419
1.49 --undefined-- 56.263
1.50 --undefined-- 57.313
1.51 --undefined-- 57.268
1.52 --undefined-- 57.029
1.53 --undefined-- 57.210
1.54 --undefined-- 57.849
1.55 --undefined-- 59.985
1.56 116.410 62.616
1.57 114.941 64.186
1.58 111.275 64.695
1.59 110.119 64.976
1.60 107.951 65.494
1.61 107.321 66.123
1.62 107.484 66.610
1.63 107.867 67.089
1.64 107.315 67.627
1.65 106.935 67.983
1.66 106.371 67.853
1.67 105.904 67.161
1.68 105.114 66.447
1.69 104.490 66.336
1.70 104.309 66.570
1.71 103.830 66.590
1.72 103.606 66.115
1.73 104.656 65.244
1.74 104.477 64.533
1.75 104.126 63.973
1.76 102.775 62.786
1.77 100.993 60.027
1.78 --undefined-- 54.834
1.79 --undefined-- 47.132
1.80 --undefined-- 39.838
1.81 --undefined-- 38.031
1.82 --undefined-- 37.416
1.83 --undefined-- 36.478
1.84 --undefined-- 37.171
1.85 --undefined-- 45.539
1.86 --undefined-- 54.832
1.87 --undefined-- 60.445
1.88 --undefined-- 63.441
1.89 --undefined-- 65.108
1.90 --undefined-- 66.054
1.91 --undefined-- 65.968
1.92 --undefined-- 64.654
1.93 --undefined-- 62.732
1.94 --undefined-- 60.571
1.95 --undefined-- 59.197
1.96 107.042 58.989
1.97 111.104 59.106
1.98 108.043 59.684
1.99 108.205 60.486
2.00 108.387 61.103
2.01 108.452 61.433
2.02 107.977 61.677
2.03 107.958 61.948
2.04 107.910 62.079
2.05 107.669 62.100
2.06 107.516 61.861
2.07 107.116 61.309
2.08 106.555 60.799
2.09 104.298 60.481
2.10 104.216 60.155
2.11 104.298 59.790
2.12 105.064 59.435
2.13 104.863 58.928
2.14 105.161 58.187
2.15 105.115 57.160
2.16 105.343 55.880
2.17 101.349 54.478
2.18 99.428 52.826
2.19 --undefined-- 50.392
2.20 --undefined-- 46.815
2.21 --undefined-- 42.143
2.22 --undefined-- 38.752
2.23 --undefined-- 37.706
2.24 --undefined-- 36.127
2.25 --undefined-- 35.538
2.26 --undefined-- 36.891
2.27 --undefined-- 37.979
2.28 --undefined-- 37.308
2.29 --undefined-- 36.124
2.30 --undefined-- 35.609
2.31 --undefined-- 35.120
2.32 --undefined-- 34.992
2.33 --undefined-- 34.738
2.34 --undefined-- 34.232
2.35 --undefined-- 34.727
2.36 --undefined-- 36.817
2.37 --undefined-- 38.404
2.38 --undefined-- 38.736
2.39 --undefined-- 38.893
2.40 --undefined-- 39.925
2.41 --undefined-- 41.477
2.42 --undefined-- 43.638
2.43 --undefined-- 45.976
2.44 --undefined-- 48.635
2.45 --undefined-- 55.183
2.46 --undefined-- 61.449
2.47 --undefined-- 66.310
2.48 --undefined-- 69.717
2.49 --undefined-- 70.862
2.50 --undefined-- 69.621
2.51 --undefined-- 66.283
2.52 --undefined-- 61.104
2.53 --undefined-- 54.829
2.54 89.056 51.439
2.55 88.711 50.882
2.56 88.424 50.188
2.57 --undefined-- 48.712
2.58 --undefined-- 47.050
2.59 --undefined-- 45.690
2.60 --undefined-- 44.625
2.61 --undefined-- 44.191
2.62 --undefined-- 44.519
2.63 --undefined-- 45.707
2.64 --undefined-- 47.119
2.65 --undefined-- 48.932
2.66 --undefined-- 51.463
2.67 --undefined-- 54.701
2.68 --undefined-- 58.841
2.69 --undefined-- 61.614
2.70 --undefined-- 61.969
2.71 --undefined-- 60.599
2.72 --undefined-- 58.983
2.73 --undefined-- 57.069
2.74 --undefined-- 54.043
2.75 --undefined-- 50.168
2.76 --undefined-- 47.711
2.77 --undefined-- 47.145
2.78 --undefined-- 46.547
2.79 --undefined-- 45.863
2.80 --undefined-- 45.076
2.81 --undefined-- 44.048
2.82 --undefined-- 42.605
2.83 --undefined-- 40.319
2.84 --undefined-- 39.695
2.85 --undefined-- 48.193
2.86 --undefined-- 55.738
2.87 --undefined-- 61.302
2.88 --undefined-- 66.833
2.89 --undefined-- 70.697
2.90 --undefined-- 71.944
2.91 105.249 71.454
2.92 101.141 71.011
2.93 101.459 70.854
2.94 101.619 69.917
2.95 102.226 68.087
2.96 103.033 66.625
2.97 102.792 66.257
2.98 103.417 66.375
2.99 104.871 66.420
3.00 106.427 66.276
3.01 107.131 66.000
3.02 107.261 65.573
3.03 107.995 64.845
3.04 108.267 63.763
3.05 108.696 62.793
3.06 108.945 62.246
3.07 109.122 61.763
3.08 --undefined-- 60.784
3.09 --undefined-- 58.260
3.10 --undefined-- 52.882
3.11 --undefined-- 45.056
3.12 --undefined-- 40.661
3.13 --undefined-- 38.523
3.14 --undefined-- 36.490
3.15 --undefined-- 34.844
3.16 --undefined-- 36.164
3.17 --undefined-- 46.440
3.18 --undefined-- 57.259
3.19 --undefined-- 64.310
3.20 --undefined-- 68.330
3.21 --undefined-- 69.774
3.22 --undefined-- 69.495
3.23 --undefined-- 68.295
3.24 --undefined-- 65.788
3.25 --undefined-- 62.183
3.26 --undefined-- 58.799
3.27 118.985 58.306
3.28 105.395 59.686
3.29 101.375 60.393
3.30 97.225 60.078
3.31 97.028 58.702
3.32 94.011 56.681
3.33 88.917 54.261
3.34 --undefined-- 51.255
3.35 --undefined-- 46.942
3.36 --undefined-- 43.222
3.37 --undefined-- 43.722
3.38 --undefined-- 44.473
3.39 --undefined-- 44.587
3.40 --undefined-- 44.442
3.41 --undefined-- 44.603
3.42 --undefined-- 45.081
3.43 --undefined-- 45.595
3.44 --undefined-- 45.885
3.45 --undefined-- 46.351
3.46 --undefined-- 48.396
3.47 --undefined-- 49.703
3.48 --undefined-- 47.716
3.49 --undefined-- 42.183
3.50 --undefined-- 47.280
3.51 --undefined-- 57.634
3.52 --undefined-- 62.703
3.53 --undefined-- 63.224
3.54 --undefined-- 61.070
3.55 --undefined-- 63.650
3.56 110.011 67.108
3.57 110.078 68.429
3.58 109.646 68.482
3.59 107.669 68.300
3.60 107.811 68.372
3.61 108.434 68.531
3.62 111.439 68.491
3.63 111.380 67.458
3.64 --undefined-- 64.418
3.65 --undefined-- 59.038
3.66 --undefined-- 52.443
3.67 --undefined-- 46.558
3.68 --undefined-- 45.566
3.69 --undefined-- 47.690
3.70 --undefined-- 48.542
3.71 --undefined-- 51.326
3.72 --undefined-- 55.739
3.73 --undefined-- 61.032
3.74 --undefined-- 65.515
3.75 --undefined-- 67.956
3.76 105.060 68.997
3.77 103.526 69.220
3.78 103.241 68.744
3.79 102.659 67.992
3.80 102.274 67.460
3.81 101.520 67.395
3.82 102.042 67.557
3.83 101.996 67.650
3.84 100.712 67.825
3.85 100.297 68.281
3.86 100.415 68.681
3.87 100.248 68.827
3.88 99.588 68.699
3.89 99.118 68.368
3.90 99.994 68.092
3.91 100.600 67.972
3.92 101.565 68.137
3.93 102.455 68.570
3.94 102.890 68.735
3.95 102.191 68.461
3.96 101.915 68.290
3.97 100.513 68.353
3.98 99.115 68.147
3.99 99.781 67.781
4.00 100.154 67.809
4.01 100.003 68.105
4.02 100.274 68.098
4.03 100.708 67.621
4.04 101.406 66.865
4.05 103.067 66.014
4.06 103.403 65.253
4.07 104.153 63.681
4.08 --undefined-- 60.057
4.09 --undefined-- 53.890
4.10 --undefined-- 46.959
4.11 --undefined-- 43.498
4.12 --undefined-- 45.447
4.13 --undefined-- 52.182
4.14 --undefined-- 57.095
4.15 --undefined-- 60.709
4.16 --undefined-- 63.826
4.17 --undefined-- 65.436
4.18 101.395 65.028
4.19 98.686 62.567
4.20 97.075 58.478
4.21 96.693 54.613
4.22 96.399 53.697
4.23 94.926 53.699
4.24 92.006 53.413
4.25 91.614 53.214
4.26 89.456 54.192
4.27 --undefined-- 57.855
4.28 --undefined-- 61.167
4.29 --undefined-- 63.187
4.30 --undefined-- 64.498
4.31 84.156 65.114
4.32 85.820 65.126
4.33 86.555 64.959
4.34 88.393 64.704
4.35 88.797 64.068
4.36 88.433 63.313
4.37 91.591 61.929
4.38 --undefined-- 58.982
4.39 --undefined-- 54.463
4.40 --undefined-- 49.031
4.41 --undefined-- 45.180
4.42 --undefined-- 47.556
4.43 --undefined-- 51.982
4.44 --undefined-- 55.414
4.45 --undefined-- 59.257
4.46 --undefined-- 64.919
4.47 --undefined-- 68.972
4.48 102.673 70.473
4.49 103.618 69.906
4.50 104.991 68.106
4.51 107.080 66.091
4.52 109.543 64.569
4.53 110.346 63.751
4.54 110.722 63.055
4.55 112.316 61.417
4.56 111.406 58.025
4.57 --undefined-- 52.730
4.58 --undefined-- 48.429
4.59 --undefined-- 54.522
4.60 --undefined-- 61.529
4.61 --undefined-- 65.309
4.62 --undefined-- 66.974
4.63 --undefined-- 68.124
4.64 --undefined-- 68.071
4.65 --undefined-- 65.254
4.66 --undefined-- 58.856
4.67 --undefined-- 48.731
4.68 --undefined-- 41.272
4.69 --undefined-- 40.134
4.70 --undefined-- 38.085
4.71 --undefined-- 36.424
4.72 --undefined-- 36.150
4.73 --undefined-- 36.062
4.74 --undefined-- 35.820
4.75 --undefined-- 35.239
4.76 --undefined-- 38.360
4.77 --undefined-- 46.990
4.78 --undefined-- 53.353
4.79 --undefined-- 60.180
4.80 --undefined-- 65.607
4.81 104.962 68.028
4.82 100.521 67.988
4.83 99.387 66.874
4.84 99.276 65.504
4.85 99.013 63.892
4.86 99.449 62.564
4.87 100.031 61.388
4.88 95.896 59.688
4.89 96.198 57.685
4.90 96.397 55.445
4.91 --undefined-- 51.610
4.92 --undefined-- 46.074
4.93 --undefined-- 43.834
4.94 --undefined-- 51.534
4.95 --undefined-- 60.379
4.96 --undefined-- 66.486
4.97 --undefined-- 68.975
4.98 --undefined-- 67.784
4.99 --undefined-- 65.092
5.00 --undefined-- 66.814
5.01 --undefined-- 68.578
5.02 98.199 68.750
5.03 97.638 68.820
5.04 97.507 68.445
5.05 96.149 66.846
5.06 96.415 65.196
5.07 97.493 64.812
5.08 99.470 64.229
5.09 102.255 62.811
5.10 106.108 60.500
5.11 107.224 57.137
5.12 --undefined-- 53.607
5.13 --undefined-- 51.564
5.14 --undefined-- 49.278
5.15 --undefined-- 45.708
5.16 --undefined-- 45.680
5.17 --undefined-- 49.843
5.18 --undefined-- 54.171
5.19 --undefined-- 56.904
5.20 --undefined-- 58.205
5.21 --undefined-- 61.965
5.22 --undefined-- 67.718
5.23 --undefined-- 70.918
5.24 --undefined-- 71.563
5.25 --undefined-- 69.812
5.26 --undefined-- 64.848
5.27 --undefined-- 55.779
5.28 --undefined-- 44.110
5.29 --undefined-- 42.504
5.30 --undefined-- 51.196
5.31 --undefined-- 58.494
5.32 --undefined-- 61.953
5.33 --undefined-- 61.755
5.34 --undefined-- 58.673
5.35 116.355 55.516
5.36 116.045 54.521
5.37 116.135 53.986
5.38 117.113 53.807
5.39 117.813 54.071
5.40 117.895 54.340
5.41 117.233 54.125
5.42 116.057 54.800
5.43 --undefined-- 56.432
5.44 --undefined-- 55.420
5.45 --undefined-- 50.976
5.46 --undefined-- 56.179
5.47 --undefined-- 65.712
5.48 --undefined-- 71.048
5.49 --undefined-- 72.289
5.50 --undefined-- 69.719
5.51 --undefined-- 64.491
5.52 --undefined-- 63.152
5.53 125.699 65.650
5.54 119.456 67.574
5.55 116.990 68.751
5.56 116.829 69.266
5.57 115.692 69.064
5.58 113.139 68.661
5.59 111.461 68.332
5.60 110.297 67.974
5.61 110.285 68.066
5.62 109.431 68.257
5.63 109.595 67.969
5.64 109.839 67.375
5.65 108.836 66.413
5.66 --undefined-- --undefined--
5.67 --undefined-- --undefined--
5.68 --undefined-- --undefined--
5.69 --undefined-- --undefined--
