Time Pitch Intensity
0.01 --undefined-- --undefined--
0.02 --undefined-- --undefined--
0.03 --undefined-- --undefined--
0.04 --undefined-- --undefined--
0.05 --undefined-- 41.411
0.06 --undefined-- 39.045
0.07 --undefined-- 39.034
0.08 --undefined-- 39.180
0.09 --undefined-- 38.842
0.10 --undefined-- 37.949
0.11 --undefined-- 37.114
0.12 --undefined-- 36.446
0.13 --undefined-- 36.209
0.14 --undefined-- 36.835
0.15 --undefined-- 36.741
0.16 --undefined-- 35.054
0.17 --undefined-- 33.589
0.18 --undefined-- 33.863
0.19 --undefined-- 35.263
0.20 --undefined-- 36.644
0.21 --undefined-- 36.227
0.22 --undefined-- 34.924
0.23 --undefined-- 35.015
0.24 --undefined-- 35.923
0.25 --undefined-- 36.361
0.26 --undefined-- 35.891
0.27 --undefined-- 35.162
0.28 --undefined-- 35.940
0.29 --undefined-- 40.458
0.30 --undefined-- 52.128
0.31 --undefined-- 60.519
0.32 --undefined-- 65.376
0.33 131.246 67.980
0.34 127.653 69.393
0.35 124.456 70.301
0.36 125.941 71.031
0.37 131.623 71.618
0.38 136.073 72.098
0.39 138.127 72.543
0.40 139.977 72.821
0.41 144.253 72.898
0.42 148.175 72.798
0.43 153.867 72.480
0.44 161.167 72.284
0.45 166.627 72.407
0.46 169.791 72.097
0.47 167.477 70.518
0.48 152.105 67.387
0.49 144.475 62.835
0.50 --undefined-- 56.993
0.51 --undefined-- 51.450
0.52 --undefined-- 56.618
0.53 --undefined-- 65.494
0.54 --undefined-- 71.164
0.55 --undefined-- 73.788
0.56 --undefined-- 74.192
0.57 --undefined-- 72.899
0.58 --undefined-- 69.839
0.59 --undefined-- 64.394
0.60 --undefined-- 56.333
0.61 --undefined-- 47.830
0.62 --undefined-- 46.593
0.63 --undefined-- 53.908
0.64 --undefined-- 59.374
0.65 140.272 62.964
0.66 137.615 65.598
0.67 136.155 67.594
0.68 133.514 68.897
0.69 130.125 69.429
0.70 127.470 69.325
0.71 126.646 69.022
0.72 126.052 68.888
0.73 126.555 69.117
0.74 129.198 69.638
0.75 131.784 69.806
0.76 132.544 68.785
0.77 130.006 65.902
0.78 107.707 61.033
0.79 --undefined-- 55.731
0.80 --undefined-- 54.685
0.81 --undefined-- 60.562
0.82 --undefined-- 67.832
0.83 147.804 72.763
0.84 145.922 75.544
0.85 143.268 76.631
0.86 140.912 76.307
0.87 137.719 74.871
0.88 136.242 72.469
0.89 134.150 68.685
0.90 121.733 63.142
0.91 119.537 57.276
0.92 121.083 53.407
0.93 --undefined-- 53.332
0.94 --undefined-- 56.742
0.95 --undefined-- 59.672
0.96 168.820 63.929
0.97 146.375 68.018
0.98 144.050 70.750
0.99 142.190 72.277
1.00 138.021 72.969
1.01 136.273 73.272
1.02 134.668 73.471
1.03 133.907 73.677
1.04 133.338 73.809
1.05 132.574 73.630
1.06 126.642 73.197
1.07 133.115 72.767
1.08 135.620 72.382
1.09 133.979 71.977
1.10 131.563 71.403
1.11 128.148 70.513
1.12 123.663 69.233
1.13 118.600 67.965
1.14 113.645 67.252
1.15 111.377 66.618
1.16 108.560 65.934
1.17 110.951 66.184
1.18 113.546 67.357
1.19 113.653 68.460
1.20 116.593 69.134
1.21 117.355 69.493
1.22 119.320 69.779
1.23 120.929 70.075
1.24 123.098 70.405
1.25 125.736 70.743
1.26 127.896 70.896
1.27 132.074 70.942
1.28 133.579 71.174
1.29 136.001 71.605
1.30 138.692 71.888
1.31 140.586 71.825
1.32 141.927 71.498
1.33 141.966 70.683
1.34 140.759 68.872
1.35 138.831 65.643
1.36 --undefined-- 60.582
1.37 --undefined-- 53.808
1.38 --undefined-- 47.462
1.39 --undefined-- 41.447
1.40 --undefined-- 36.302
1.41 --undefined-- 36.703
1.42 --undefined-- 36.967
1.43 --undefined-- 35.363
1.44 --undefined-- 34.385
1.45 --undefined-- 34.366
1.46 --undefined-- 33.650
1.47 --undefined-- 32.812
1.48 --undefined-- 31.759
1.49 --undefined-- 31.499
1.50 --undefined-- 33.462
1.51 --undefined-- 34.740
1.52 --undefined-- 35.142
1.53 --undefined-- 35.665
1.54 --undefined-- 35.335
1.55 --undefined-- 34.654
1.56 --undefined-- 35.102
1.57 --undefined-- 35.833
1.58 --undefined-- 36.468
1.59 --undefined-- 37.278
1.60 --undefined-- 37.913
1.61 --undefined-- 37.762
1.62 --undefined-- 36.880
1.63 --undefined-- 35.479
1.64 --undefined-- 35.143
1.65 --undefined-- 35.192
1.66 --undefined-- 34.683
1.67 --undefined-- 35.421
1.68 --undefined-- 37.294
1.69 --undefined-- 37.363
1.70 --undefined-- 34.982
1.71 --undefined-- 32.423
1.72 --undefined-- 31.917
1.73 --undefined-- 32.788
1.74 --undefined-- 33.462
1.75 --undefined-- 34.414
1.76 --undefined-- 35.608
1.77 --undefined-- 36.282
1.78 --undefined-- 37.146
1.79 --undefined-- 38.714
1.80 --undefined-- 38.914
1.81 --undefined-- 37.612
1.82 --undefined-- 36.014
1.83 --undefined-- 36.258
1.84 --undefined-- 37.189
1.85 --undefined-- 37.553
1.86 --undefined-- 37.825
1.87 --undefined-- 37.436
1.88 --undefined-- 36.181
1.89 --undefined-- 35.914
1.90 --undefined-- 36.854
1.91 --undefined-- 37.494
1.92 --undefined-- 36.948
1.93 --undefined-- 35.310
1.94 --undefined-- 34.711
1.95 --undefined-- 38.442
1.96 --undefined-- 41.783
1.97 --undefined-- 41.941
1.98 --undefined-- 38.816
1.99 --undefined-- 34.833
2.00 --undefined-- 33.641
2.01 --undefined-- 34.237
2.02 --undefined-- 42.387
2.03 --undefined-- 51.122
2.04 --undefined-- 56.625
2.05 --undefined-- 59.276
2.06 --undefined-- 62.854
2.07 194.023 68.991
2.08 187.565 72.891
2.09 181.829 74.311
2.10 180.943 74.729
2.11 183.630 75.631
2.12 184.541 76.735
2.13 183.364 77.193
2.14 180.538 77.061
2.15 176.167 77.412
2.16 172.350 78.426
2.17 164.216 78.998
2.18 156.559 79.320
2.19 153.068 79.964
2.20 149.864 80.320
2.21 147.009 79.817
2.22 145.197 78.143
2.23 145.235 75.692
2.24 141.009 73.584
2.25 130.381 71.622
2.26 127.389 69.880
2.27 128.326 69.015
2.28 141.543 69.036
2.29 155.756 69.938
2.30 166.743 71.241
2.31 182.589 72.300
2.32 197.137 73.081
2.33 202.828 73.702
2.34 201.897 73.958
2.35 200.587 73.700
2.36 200.698 73.155
2.37 208.682 73.011
2.38 206.718 73.290
2.39 204.825 73.311
2.40 197.315 73.114
2.41 197.072 73.123
2.42 194.064 73.012
2.43 189.957 72.746
2.44 185.336 72.498
2.45 179.393 72.123
2.46 173.951 71.638
2.47 169.601 72.263
2.48 144.892 74.768
2.49 143.359 76.990
2.50 142.748 77.827
2.51 140.439 77.648
2.52 136.308 77.202
2.53 133.537 76.904
2.54 132.924 76.730
2.55 132.400 76.633
2.56 131.882 76.689
2.57 131.249 76.659
2.58 130.368 76.195
2.59 130.129 75.289
2.60 129.713 74.162
2.61 129.001 72.903
2.62 128.869 71.638
2.63 128.871 70.563
2.64 128.496 69.808
2.65 128.070 69.380
2.66 127.459 68.830
2.67 125.103 67.710
2.68 125.440 66.206
2.69 144.301 64.734
2.70 143.944 63.055
2.71 143.877 60.700
2.72 --undefined-- 57.432
2.73 --undefined-- 53.042
2.74 --undefined-- 46.759
2.75 --undefined-- 41.739
2.76 --undefined-- 42.046
2.77 --undefined-- 43.397
2.78 --undefined-- 44.379
2.79 --undefined-- 44.512
2.80 --undefined-- 43.647
2.81 --undefined-- 41.803
2.82 --undefined-- 39.564
2.83 --undefined-- 37.700
2.84 --undefined-- 36.109
2.85 --undefined-- 34.446
2.86 --undefined-- 33.197
2.87 --undefined-- 33.792
2.88 --undefined-- 35.461
2.89 --undefined-- 36.679
2.90 --undefined-- 37.085
2.91 --undefined-- 37.280
2.92 --undefined-- 36.662
2.93 --undefined-- 36.121
2.94 --undefined-- 37.109
2.95 --undefined-- 37.851
2.96 --undefined-- 38.453
2.97 --undefined-- 39.285
2.98 --undefined-- 41.153
2.99 --undefined-- 43.777
3.00 --undefined-- 47.210
3.01 --undefined-- 55.374
3.02 159.541 63.326
3.03 158.448 68.478
3.04 156.612 71.383
3.05 160.210 73.018
3.06 165.682 74.012
3.07 171.068 74.046
3.08 183.523 73.252
3.09 197.445 72.892
3.10 209.391 73.522
3.11 217.834 74.453
3.12 223.184 74.766
3.13 224.084 74.532
3.14 224.803 74.648
3.15 223.556 74.997
3.16 220.692 75.274
3.17 215.409 75.394
3.18 209.463 75.292
3.19 203.162 74.874
3.20 197.167 74.212
3.21 181.323 74.130
3.22 179.037 74.465
3.23 175.739 73.401
3.24 169.424 70.124
3.25 150.260 65.328
3.26 148.087 61.104
3.27 153.981 58.587
3.28 --undefined-- 57.510
3.29 --undefined-- 56.385
3.30 --undefined-- 52.914
3.31 --undefined-- 47.978
3.32 --undefined-- 45.576
3.33 --undefined-- 47.433
3.34 --undefined-- 51.177
3.35 --undefined-- 53.969
3.36 --undefined-- 54.883
3.37 --undefined-- 54.612
3.38 --undefined-- 54.019
3.39 --undefined-- 53.440
3.40 --undefined-- 54.810
3.41 --undefined-- 61.377
3.42 --undefined-- 66.757
3.43 137.863 69.298
3.44 128.701 69.933
3.45 121.255 69.716
3.46 116.832 69.311
3.47 115.686 69.006
3.48 114.646 68.787
3.49 113.887 68.580
3.50 113.240 68.537
3.51 113.498 68.801
3.52 114.983 69.125
3.53 115.767 69.249
3.54 116.453 69.166
3.55 116.137 69.247
3.56 119.237 69.729
3.57 121.334 70.080
3.58 121.645 70.020
3.59 120.704 69.657
3.60 120.092 69.062
3.61 123.081 67.948
3.62 128.106 65.632
3.63 248.468 61.499
3.64 268.545 56.331
3.65 --undefined-- 51.260
3.66 --undefined-- 46.389
3.67 --undefined-- 43.573
3.68 --undefined-- 41.660
3.69 --undefined-- 40.016
3.70 --undefined-- 37.780
3.71 --undefined-- 36.151
3.72 --undefined-- 35.492
3.73 --undefined-- 35.416
3.74 --undefined-- 34.947
3.75 --undefined-- 34.544
3.76 --undefined-- 34.959
3.77 --undefined-- 49.351
3.78 --undefined-- 61.807
3.79 --undefined-- 69.416
3.80 --undefined-- 73.624
3.81 172.828 75.659
3.82 177.069 76.182
3.83 180.275 75.759
3.84 180.533 75.572
3.85 180.256 75.985
3.86 180.038 76.531
3.87 180.494 77.013
3.88 181.315 77.373
3.89 182.749 77.536
3.90 185.346 77.479
3.91 189.039 77.277
3.92 191.995 76.975
3.93 193.398 76.273
3.94 193.755 74.285
3.95 186.423 70.077
3.96 164.829 63.749
3.97 180.418 57.400
3.98 --undefined-- 51.834
3.99 --undefined-- 49.147
4.00 --undefined-- 53.175
4.01 --undefined-- 63.169
4.02 238.026 70.742
4.03 225.128 74.826
4.04 212.451 76.343
4.05 208.132 76.933
4.06 205.410 77.986
4.07 204.353 78.877
4.08 205.287 78.565
4.09 208.552 77.127
4.10 208.703 76.000
4.11 206.753 76.080
4.12 204.566 76.406
4.13 203.869 75.916
4.14 204.875 73.792
4.15 204.062 69.641
4.16 187.432 64.103
4.17 193.369 60.231
4.18 197.903 57.778
4.19 199.215 54.325
4.20 --undefined-- 49.287
4.21 --undefined-- 46.680
4.22 --undefined-- 54.190
4.23 --undefined-- 60.164
4.24 --undefined-- 65.273
4.25 197.621 69.547
4.26 178.625 71.590
4.27 160.825 72.095
4.28 154.110 72.614
4.29 150.740 73.499
4.30 146.347 74.136
4.31 144.507 74.446
4.32 144.761 74.763
4.33 147.654 75.036
4.34 149.433 74.995
4.35 150.246 74.703
4.36 150.905 74.439
4.37 152.280 74.263
4.38 154.183 74.091
4.39 155.497 73.890
4.40 156.296 73.598
4.41 155.426 72.908
4.42 152.170 71.200
4.43 147.292 67.636
4.44 143.946 61.923
4.45 --undefined-- 54.369
4.46 --undefined-- 47.365
4.47 --undefined-- 46.417
4.48 --undefined-- 52.537
4.49 --undefined-- 62.658
4.50 217.041 69.442
4.51 197.304 73.141
4.52 188.085 74.752
4.53 184.523 74.998
4.54 183.118 74.409
4.55 182.487 73.530
4.56 182.729 72.966
4.57 184.791 73.054
4.58 184.954 73.269
4.59 185.002 73.367
4.60 185.363 73.370
4.61 184.979 73.243
4.62 183.377 72.983
4.63 181.545 72.645
4.64 180.175 72.226
4.65 178.855 71.631
4.66 175.851 70.537
4.67 168.808 68.467
4.68 158.514 65.001
4.69 154.797 60.457
4.70 --undefined-- 54.903
4.71 --undefined-- 51.825
4.72 --undefined-- 56.886
4.73 --undefined-- 59.605
4.74 --undefined-- 58.708
4.75 --undefined-- 56.071
4.76 161.523 60.474
4.77 161.040 66.741
4.78 159.955 70.374
4.79 147.936 71.797
4.80 --undefined-- 71.605
4.81 --undefined-- 70.047
4.82 --undefined-- 68.106
4.83 --undefined-- 65.905
4.84 --undefined-- 61.737
4.85 --undefined-- 54.685
4.86 --undefined-- 45.736
4.87 --undefined-- 39.805
4.88 --undefined-- 38.386
4.89 --undefined-- 36.861
4.90 --undefined-- 36.687
4.91 --undefined-- 37.837
4.92 --undefined-- 37.279
4.93 --undefined-- 35.631
4.94 --undefined-- 35.245
4.95 --undefined-- 38.272
4.96 --undefined-- 45.614
4.97 --undefined-- 51.054
4.98 --undefined-- 53.707
4.99 --undefined-- 53.412
5.00 --undefined-- 50.285
5.01 --undefined-- 46.253
5.02 --undefined-- 43.653
5.03 --undefined-- 42.320
5.04 --undefined-- 42.957
5.05 --undefined-- 43.998
5.06 --undefined-- 46.296
5.07 --undefined-- 50.608
5.08 --undefined-- 59.426
5.09 208.350 66.741
5.10 179.429 71.078
5.11 171.221 72.843
5.12 164.323 72.896
5.13 160.576 72.213
5.14 157.335 71.456
5.15 153.496 70.284
5.16 146.153 67.761
5.17 136.996 63.537
5.18 135.671 57.720
5.19 --undefined-- 56.028
5.20 --undefined-- 63.821
5.21 --undefined-- 69.812
5.22 153.989 73.014
5.23 145.050 74.155
5.24 139.139 73.789
5.25 129.050 72.692
5.26 125.771 72.056
5.27 121.429 71.827
5.28 118.075 71.011
5.29 117.617 68.695
5.30 104.077 64.269
5.31 100.178 57.691
5.32 --undefined-- 50.722
5.33 --undefined-- 47.187
5.34 --undefined-- 53.188
5.35 --undefined-- 60.977
5.36 --undefined-- 65.694
5.37 122.042 67.782
5.38 120.256 68.623
5.39 118.063 69.109
5.40 116.254 68.965
5.41 110.475 68.381
5.42 109.866 67.934
5.43 112.151 68.002
5.44 113.435 68.483
5.45 115.040 68.966
5.46 118.134 69.503
5.47 120.924 70.084
5.48 123.350 69.982
5.49 123.744 68.158
5.50 118.716 64.108
5.51 119.716 58.890
5.52 --undefined-- 54.290
5.53 --undefined-- 49.585
5.54 --undefined-- 45.152
5.55 --undefined-- 45.328
5.56 --undefined-- 47.635
5.57 --undefined-- 49.341
5.58 --undefined-- 51.215
5.59 --undefined-- 58.735
5.60 199.374 65.928
5.61 169.357 70.009
5.62 159.975 72.099
5.63 157.092 73.457
5.64 155.087 74.820
5.65 155.631 75.651
5.66 156.225 75.499
5.67 155.884 74.686
5.68 156.957 74.166
5.69 154.742 74.280
5.70 152.006 74.359
5.71 147.768 73.761
5.72 139.792 71.998
5.73 130.052 68.705
5.74 117.080 63.662
5.75 --undefined-- 58.344
5.76 --undefined-- 57.875
5.77 --undefined-- 60.187
5.78 --undefined-- 61.585
5.79 --undefined-- 61.294
5.80 --undefined-- 59.727
5.81 --undefined-- 58.268
5.82 --undefined-- 57.327
5.83 --undefined-- 56.638
5.84 --undefined-- 58.390
5.85 --undefined-- 63.727
5.86 135.988 67.343
5.87 124.349 68.802
5.88 120.977 69.172
5.89 117.675 69.298
5.90 117.665 69.342
5.91 117.393 69.378
5.92 117.646 69.556
5.93 119.913 69.891
5.94 122.044 70.225
5.95 125.212 70.486
5.96 126.885 70.591
5.97 130.592 70.297
5.98 132.677 69.458
5.99 135.119 68.406
6.00 --undefined-- 67.301
6.01 --undefined-- 65.292
6.02 --undefined-- 61.177
6.03 --undefined-- 54.973
6.04 --undefined-- 49.331
6.05 --undefined-- 44.488
6.06 --undefined-- 39.728
6.07 --undefined-- 36.693
6.08 --undefined-- 35.501
6.09 --undefined-- 36.044
6.10 --undefined-- 36.948
6.11 --undefined-- 36.457
6.12 --undefined-- 34.735
6.13 --undefined-- 34.240
6.14 --undefined-- 36.893
6.15 --undefined-- 39.545
6.16 --undefined-- 39.898
6.17 --undefined-- 38.714
6.18 --undefined-- 37.868
6.19 --undefined-- 38.208
6.20 --undefined-- 38.170
6.21 --undefined-- 37.584
6.22 --undefined-- 38.659
6.23 --undefined-- 42.918
6.24 --undefined-- 51.659
6.25 --undefined-- 60.942
6.26 188.876 67.658
6.27 185.310 71.368
6.28 179.723 72.555
6.29 174.922 72.337
6.30 170.976 72.317
6.31 163.257 73.078
6.32 159.591 73.702
6.33 153.308 73.552
6.34 148.395 72.873
6.35 144.277 71.778
6.36 145.492 70.379
6.37 --undefined-- 68.626
6.38 283.432 65.541
6.39 283.389 60.757
6.40 --undefined-- 55.176
6.41 --undefined-- 47.886
6.42 --undefined-- 40.672
6.43 --undefined-- 37.849
6.44 --undefined-- 36.822
6.45 --undefined-- 36.162
6.46 --undefined-- 35.826
6.47 --undefined-- 35.108
6.48 --undefined-- --undefined--
6.49 --undefined-- --undefined--
6.50 --undefined-- --undefined--
6.51 --undefined-- --undefined--
