Time Pitch Intensity
0.01 --undefined-- --undefined--
0.02 170.321 --undefined--
0.03 166.434 --undefined--
0.04 163.772 --undefined--
0.05 162.289 74.598
0.06 161.069 74.747
0.07 159.413 74.678
0.08 158.410 74.399
0.09 157.201 74.088
0.10 156.107 73.694
0.11 154.831 72.956
0.12 152.179 71.608
0.13 147.933 69.760
0.14 148.930 68.561
0.15 155.928 68.954
0.16 164.248 70.567
0.17 172.085 72.624
0.18 176.035 74.345
0.19 165.250 75.677
0.20 163.805 76.683
0.21 164.275 77.150
0.22 163.154 77.093
0.23 162.762 76.373
0.24 163.485 74.920
0.25 166.297 73.480
0.26 168.885 72.778
0.27 175.461 72.455
0.28 182.349 72.091
0.29 185.695 71.656
0.30 189.198 70.778
0.31 194.845 68.325
0.32 192.424 63.148
0.33 --undefined-- 55.846
0.34 --undefined-- 51.525
0.35 --undefined-- 50.623
0.36 --undefined-- 51.412
0.37 --undefined-- 54.034
0.38 --undefined-- 58.817
0.39 --undefined-- 63.506
0.40 210.381 66.950
0.41 213.644 68.960
0.42 213.377 69.603
0.43 211.228 69.647
0.44 212.243 69.919
0.45 210.475 70.712
0.46 207.231 71.872
0.47 201.245 72.994
0.48 193.396 73.833
0.49 184.334 74.559
0.50 180.970 75.117
0.51 180.341 75.477
0.52 181.465 75.739
0.53 182.580 75.724
0.54 184.125 75.359
0.55 185.785 74.902
0.56 186.748 74.784
0.57 186.298 75.005
0.58 185.211 74.788
0.59 185.649 73.713
0.60 185.530 71.945
0.61 180.563 69.226
0.62 171.988 65.248
0.63 168.204 60.415
0.64 166.818 55.429
0.65 --undefined-- 52.907
0.66 --undefined-- 55.420
0.67 --undefined-- 58.086
0.68 --undefined-- 60.285
0.69 --undefined-- 63.282
0.70 --undefined-- 65.580
0.71 --undefined-- 65.488
0.72 --undefined-- 63.577
0.73 --undefined-- 64.702
0.74 186.332 68.465
0.75 183.052 71.287
0.76 183.047 73.056
0.77 183.765 74.185
0.78 183.039 74.944
0.79 181.836 75.440
0.80 181.406 75.655
0.81 181.217 75.655
0.82 181.108 75.410
0.83 180.994 74.807
0.84 180.251 73.947
0.85 178.602 72.788
0.86 175.279 71.048
0.87 168.325 69.339
0.88 170.500 68.480
0.89 170.546 67.627
0.90 166.720 66.083
0.91 165.224 63.762
0.92 169.226 61.382
0.93 --undefined-- 62.351
0.94 200.755 66.694
0.95 187.993 70.948
0.96 188.691 73.746
0.97 187.694 74.963
0.98 187.356 75.365
0.99 187.450 75.611
1.00 187.803 75.662
1.01 187.807 75.350
1.02 186.976 74.718
1.03 186.632 73.993
1.04 185.911 73.443
1.05 185.644 73.117
1.06 185.798 72.945
1.07 185.752 72.763
1.08 184.795 72.456
1.09 183.567 71.595
1.10 180.055 69.438
1.11 169.175 65.616
1.12 168.785 60.590
1.13 173.996 55.198
1.14 --undefined-- 51.970
1.15 --undefined-- 56.615
1.16 --undefined-- 66.180
1.17 244.135 72.821
1.18 233.980 76.028
1.19 229.295 76.944
1.20 228.230 77.026
1.21 227.040 76.911
1.22 226.564 76.623
1.23 226.868 76.284
1.24 227.132 75.754
1.25 226.180 74.982
1.26 223.304 74.315
1.27 219.801 73.688
1.28 217.865 72.285
1.29 214.730 69.414
1.30 208.299 65.164
1.31 208.090 60.629
1.32 209.038 56.932
1.33 --undefined-- 56.437
1.34 --undefined-- 62.744
1.35 244.808 69.581
1.36 232.464 73.737
1.37 228.168 75.770
1.38 224.043 76.527
1.39 221.612 76.524
1.40 219.855 76.119
1.41 219.314 75.659
1.42 218.937 75.113
1.43 218.050 73.921
1.44 216.170 71.638
1.45 216.916 69.664
1.46 219.609 69.292
1.47 219.506 69.236
1.48 219.493 69.149
1.49 220.081 69.114
1.50 220.174 69.053
1.51 219.750 68.909
1.52 219.679 68.618
1.53 220.020 68.033
1.54 219.496 67.001
1.55 217.831 65.315
1.56 216.335 62.656
1.57 217.766 61.841
1.58 251.614 67.761
1.59 208.347 72.256
1.60 200.194 74.035
1.61 186.398 74.373
1.62 177.157 74.720
1.63 171.049 75.308
1.64 167.657 75.868
1.65 167.508 76.331
1.66 168.821 76.592
1.67 170.404 76.616
1.68 172.905 76.288
1.69 176.901 75.496
1.70 180.101 74.209
1.71 184.027 72.434
1.72 202.754 70.881
1.73 214.593 70.258
1.74 214.780 70.179
1.75 214.918 70.134
1.76 215.099 70.370
1.77 211.744 71.196
1.78 203.086 72.276
1.79 190.279 73.499
1.80 180.973 74.753
1.81 174.549 75.544
1.82 171.662 75.771
1.83 172.094 76.055
1.84 172.160 76.508
1.85 170.082 76.555
1.86 167.017 76.051
1.87 164.726 75.392
1.88 163.358 74.989
1.89 162.457 74.747
1.90 161.483 74.215
1.91 160.389 73.311
1.92 160.236 72.317
1.93 160.752 70.802
1.94 160.899 67.735
1.95 162.121 63.072
1.96 161.380 58.630
1.97 166.544 55.119
1.98 --undefined-- 53.361
1.99 --undefined-- 58.022
2.00 --undefined-- 65.812
2.01 192.930 71.027
2.02 183.936 73.278
2.03 178.613 73.872
2.04 176.392 74.070
2.05 175.193 74.237
2.06 173.461 74.256
2.07 171.329 74.023
2.08 170.022 73.709
2.09 170.538 73.584
2.10 171.328 73.543
2.11 171.733 73.045
2.12 172.696 71.708
2.13 174.581 70.130
2.14 176.685 69.534
2.15 178.484 69.876
2.16 180.127 70.353
2.17 181.793 70.692
2.18 182.584 70.829
2.19 181.733 70.600
2.20 179.449 70.120
2.21 178.622 69.591
2.22 176.635 68.769
2.23 173.031 67.143
2.24 171.872 64.094
2.25 170.920 59.813
2.26 --undefined-- 63.370
2.27 --undefined-- 70.295
2.28 193.840 73.869
2.29 186.815 74.784
2.30 175.864 74.591
2.31 170.574 74.673
2.32 166.514 75.009
2.33 163.564 75.152
2.34 161.163 75.093
2.35 160.182 74.992
2.36 159.863 74.948
2.37 159.605 74.968
2.38 159.685 74.814
2.39 159.948 74.294
2.40 160.001 73.410
2.41 160.056 72.475
2.42 159.412 71.603
2.43 158.662 70.157
2.44 152.426 67.549
2.45 149.994 63.763
2.46 156.082 59.485
2.47 153.271 58.338
2.48 177.378 63.322
2.49 194.664 70.170
2.50 194.051 74.693
2.51 192.185 76.572
2.52 187.167 76.721
2.53 184.040 76.357
2.54 180.997 75.846
2.55 176.582 75.197
2.56 --undefined-- 74.653
2.57 --undefined-- 73.931
2.58 --undefined-- 72.535
2.59 --undefined-- 69.878
2.60 --undefined-- 65.494
2.61 --undefined-- 60.172
2.62 --undefined-- 55.090
2.63 --undefined-- 49.968
2.64 --undefined-- 46.848
2.65 --undefined-- 46.289
2.66 --undefined-- 47.581
2.67 --undefined-- 49.513
2.68 --undefined-- 51.166
2.69 --undefined-- 51.941
2.70 --undefined-- 51.317
2.71 --undefined-- 50.316
2.72 --undefined-- 50.640
2.73 --undefined-- 51.401
2.74 --undefined-- 52.267
2.75 --undefined-- 53.077
2.76 --undefined-- 53.266
2.77 --undefined-- 53.077
2.78 --undefined-- 53.137
2.79 --undefined-- 53.758
2.80 --undefined-- 54.570
2.81 --undefined-- 55.091
2.82 --undefined-- 55.413
2.83 --undefined-- 55.446
2.84 --undefined-- 55.176
2.85 --undefined-- 54.707
2.86 --undefined-- 54.404
2.87 --undefined-- 54.801
2.88 --undefined-- 54.761
2.89 --undefined-- 53.874
2.90 --undefined-- 53.048
2.91 --undefined-- 52.566
2.92 --undefined-- 51.864
2.93 --undefined-- 50.535
2.94 --undefined-- 48.663
2.95 --undefined-- 46.473
2.96 --undefined-- 44.387
2.97 --undefined-- 43.440
2.98 --undefined-- 43.851
2.99 --undefined-- 45.990
3.00 --undefined-- 53.554
3.01 --undefined-- 61.381
3.02 --undefined-- 68.373
3.03 230.248 73.249
3.04 233.787 75.675
3.05 244.468 76.390
3.06 254.501 76.105
3.07 260.661 74.686
3.08 270.984 72.462
3.09 153.463 71.612
3.10 163.398 71.658
3.11 173.457 71.222
3.12 180.409 70.198
3.13 184.360 69.325
3.14 182.200 69.380
3.15 178.059 69.666
3.16 171.945 70.202
3.17 165.815 71.320
3.18 158.137 72.367
3.19 296.072 72.762
3.20 275.541 72.752
3.21 256.433 72.674
3.22 234.425 72.763
3.23 218.612 72.944
3.24 206.550 73.128
3.25 199.570 73.469
3.26 189.309 73.752
3.27 180.993 74.018
3.28 175.815 74.544
3.29 171.716 75.295
3.30 168.379 75.919
3.31 165.271 76.077
3.32 162.678 75.520
3.33 159.614 73.898
3.34 154.386 70.793
3.35 145.156 66.340
3.36 159.983 61.562
3.37 164.778 56.847
3.38 --undefined-- 52.137
3.39 --undefined-- 52.821
3.40 --undefined-- 55.687
3.41 --undefined-- 60.141
3.42 --undefined-- 66.922
3.43 164.143 71.487
3.44 164.195 73.767
3.45 164.741 74.636
3.46 163.892 74.828
3.47 164.129 74.857
3.48 166.632 74.951
3.49 171.296 75.009
3.50 176.996 74.988
3.51 184.884 75.151
3.52 191.372 75.464
3.53 197.800 75.639
3.54 203.847 75.400
3.55 210.326 74.073
3.56 207.788 70.913
3.57 199.174 65.939
3.58 198.300 59.893
3.59 173.007 55.695
3.60 176.243 56.007
3.61 174.402 56.082
3.62 176.731 54.781
3.63 --undefined-- 54.216
3.64 --undefined-- 62.084
3.65 277.564 70.007
3.66 276.908 74.370
3.67 275.773 75.931
3.68 274.497 75.992
3.69 274.131 75.765
3.70 275.505 75.486
3.71 277.369 75.022
3.72 279.163 74.326
3.73 279.746 73.047
3.74 277.479 71.030
3.75 274.219 69.439
3.76 275.388 69.256
3.77 274.741 69.499
3.78 273.694 69.634
3.79 273.095 69.634
3.80 273.894 69.573
3.81 274.778 69.517
3.82 279.249 69.765
3.83 282.247 70.627
3.84 285.174 71.343
3.85 287.011 70.977
3.86 285.111 69.504
3.87 279.450 67.964
3.88 279.436 67.383
3.89 --undefined-- 67.889
3.90 --undefined-- 68.532
3.91 --undefined-- 68.315
3.92 --undefined-- 67.811
3.93 --undefined-- 67.323
3.94 --undefined-- 66.682
3.95 --undefined-- 66.721
3.96 191.144 67.702
3.97 194.292 69.144
3.98 202.181 70.824
3.99 199.144 72.452
4.00 190.080 73.724
4.01 182.756 74.476
4.02 176.433 75.024
4.03 171.344 75.516
4.04 167.719 75.691
4.05 166.484 75.707
4.06 166.386 75.847
4.07 167.363 75.841
4.08 167.052 75.409
4.09 166.222 74.845
4.10 165.491 74.433
4.11 165.458 74.060
4.12 165.118 73.546
4.13 164.640 73.015
4.14 164.404 72.858
4.15 165.077 73.316
4.16 166.628 74.211
4.17 169.300 75.150
4.18 171.412 75.865
4.19 172.863 76.220
4.20 173.996 76.355
4.21 174.523 76.356
4.22 174.559 76.096
4.23 175.041 75.489
4.24 175.782 74.702
4.25 177.240 73.953
4.26 178.704 73.292
4.27 179.670 72.719
4.28 180.940 72.235
4.29 182.766 71.631
4.30 186.132 70.543
4.31 191.617 68.393
4.32 196.515 64.500
4.33 200.999 58.518
4.34 --undefined-- 52.341
4.35 --undefined-- 49.284
4.36 --undefined-- 48.792
4.37 --undefined-- 49.883
4.38 --undefined-- 50.887
4.39 --undefined-- 51.865
4.40 --undefined-- 54.309
4.41 --undefined-- 57.776
4.42 --undefined-- 61.838
4.43 203.466 65.549
4.44 192.025 67.735
4.45 190.652 68.479
4.46 188.945 68.499
4.47 189.292 68.390
4.48 194.337 68.251
4.49 192.778 67.974
4.50 185.296 67.741
4.51 174.211 67.838
4.52 169.308 68.445
4.53 167.460 69.401
4.54 167.701 70.610
4.55 169.806 71.998
4.56 173.490 73.212
4.57 176.284 73.984
4.58 177.202 74.354
4.59 178.193 74.535
4.60 178.129 74.902
4.61 177.319 75.359
4.62 176.189 75.187
4.63 174.789 73.825
4.64 170.924 70.870
4.65 167.562 66.414
4.66 171.217 61.185
4.67 174.427 56.242
4.68 168.827 53.544
4.69 167.060 53.158
4.70 --undefined-- 54.149
4.71 --undefined-- 59.464
4.72 --undefined-- 63.799
4.73 --undefined-- 66.833
4.74 202.461 70.432
4.75 209.102 73.751
4.76 213.867 75.827
4.77 216.009 76.433
4.78 217.268 75.878
4.79 216.124 74.562
4.80 215.243 72.680
4.81 213.716 70.675
4.82 215.855 69.837
4.83 215.578 69.743
4.84 215.858 69.792
4.85 218.518 70.148
4.86 227.948 70.927
4.87 237.344 71.626
4.88 239.979 71.963
4.89 239.252 72.335
4.90 237.530 72.887
4.91 232.991 73.416
4.92 225.515 73.762
4.93 211.333 74.090
4.94 194.290 74.567
4.95 186.033 74.658
4.96 183.046 74.030
4.97 182.059 72.899
4.98 180.957 71.115
4.99 171.521 68.572
5.00 171.066 65.867
5.01 165.686 62.818
5.02 189.641 60.667
5.03 --undefined-- --undefined--
5.04 --undefined-- --undefined--
5.05 --undefined-- --undefined--
5.06 --undefined-- --undefined--
