Time Pitch Intensity
0.01 --undefined-- --undefined--
0.02 164.855 --undefined--
0.03 164.468 --undefined--
0.04 161.304 --undefined--
0.05 156.661 64.931
0.06 157.222 59.407
0.07 --undefined-- 50.921
0.08 --undefined-- 40.234
0.09 --undefined-- 39.168
0.10 --undefined-- 44.276
0.11 --undefined-- 49.488
0.12 --undefined-- 54.725
0.13 --undefined-- 62.232
0.14 --undefined-- 67.682
0.15 167.608 70.522
0.16 164.996 71.984
0.17 163.248 72.751
0.18 161.760 72.522
0.19 160.195 71.012
0.20 158.060 68.270
0.21 154.278 64.549
0.22 147.417 59.530
0.23 --undefined-- 52.896
0.24 --undefined-- 47.875
0.25 --undefined-- 47.810
0.26 --undefined-- 46.032
0.27 --undefined-- 41.307
0.28 --undefined-- 36.632
0.29 --undefined-- 36.024
0.30 --undefined-- 43.084
0.31 --undefined-- 55.255
0.32 --undefined-- 63.878
0.33 180.489 68.536
0.34 174.954 70.534
0.35 171.002 71.248
0.36 168.172 71.556
0.37 166.176 71.704
0.38 164.796 71.617
0.39 164.041 71.277
0.40 164.610 70.973
0.41 163.137 70.883
0.42 160.258 70.611
0.43 160.776 69.844
0.44 162.702 68.698
0.45 163.122 67.354
0.46 160.958 66.159
0.47 158.805 65.354
0.48 156.592 64.798
0.49 154.335 64.381
0.50 152.912 64.155
0.51 152.196 64.225
0.52 151.407 64.454
0.53 150.961 64.891
0.54 151.627 65.611
0.55 151.737 66.382
0.56 151.676 66.979
0.57 151.917 67.441
0.58 152.592 67.967
0.59 152.923 68.637
0.60 152.811 69.478
0.61 153.105 70.145
0.62 151.273 69.682
0.63 134.017 67.454
0.64 134.931 64.117
0.65 136.961 61.609
0.66 139.939 60.631
0.67 142.428 60.157
0.68 142.910 60.070
0.69 147.215 61.721
0.70 153.389 65.309
0.71 155.115 68.510
0.72 152.391 70.141
0.73 150.675 70.579
0.74 149.244 70.582
0.75 147.954 70.483
0.76 146.966 70.287
0.77 146.140 70.062
0.78 145.098 69.892
0.79 144.200 69.783
0.80 143.175 69.812
0.81 142.178 69.937
0.82 141.052 70.057
0.83 139.636 70.157
0.84 137.725 70.095
0.85 135.839 69.716
0.86 132.593 69.080
0.87 130.228 68.340
0.88 127.220 67.571
0.89 124.682 66.757
0.90 122.178 65.824
0.91 120.230 64.640
0.92 --undefined-- 63.092
0.93 --undefined-- 60.846
0.94 --undefined-- 57.789
0.95 172.545 55.979
0.96 174.068 53.905
0.97 --undefined-- 48.827
0.98 --undefined-- 41.429
0.99 --undefined-- 37.883
1.00 --undefined-- 37.313
1.01 --undefined-- 36.101
1.02 --undefined-- 34.038
1.03 --undefined-- 32.181
1.04 --undefined-- 31.899
1.05 --undefined-- 35.444
1.06 --undefined-- 38.264
1.07 --undefined-- 37.891
1.08 --undefined-- 35.244
1.09 --undefined-- 34.132
1.10 --undefined-- 34.431
1.11 --undefined-- 32.571
1.12 --undefined-- 29.219
1.13 --undefined-- 30.038
1.14 --undefined-- 32.394
1.15 --undefined-- 33.395
1.16 --undefined-- 33.658
1.17 --undefined-- 33.840
1.18 --undefined-- 33.064
1.19 --undefined-- 31.020
1.20 --undefined-- 30.219
1.21 --undefined-- 30.451
1.22 --undefined-- 30.949
1.23 --undefined-- 32.081
1.24 --undefined-- 33.119
1.25 --undefined-- 33.209
1.26 --undefined-- 32.540
1.27 --undefined-- 32.692
1.28 --undefined-- 33.219
1.29 --undefined-- 36.140
1.30 --undefined-- 39.597
1.31 --undefined-- 40.433
1.32 --undefined-- 38.890
1.33 --undefined-- 36.814
1.34 --undefined-- 35.291
1.35 --undefined-- 34.598
1.36 --undefined-- 34.907
1.37 --undefined-- 35.376
1.38 --undefined-- 34.724
1.39 --undefined-- 34.280
1.40 --undefined-- 33.685
1.41 --undefined-- 31.472
1.42 --undefined-- 30.135
1.43 --undefined-- 31.223
1.44 --undefined-- 32.591
1.45 --undefined-- 33.698
1.46 --undefined-- 35.389
1.47 --undefined-- 37.940
1.48 --undefined-- 38.532
1.49 --undefined-- 36.497
1.50 --undefined-- 33.807
1.51 --undefined-- 31.839
1.52 --undefined-- 31.184
1.53 --undefined-- 32.872
1.54 --undefined-- 35.120
1.55 --undefined-- 36.285
1.56 --undefined-- 36.804
1.57 --undefined-- 38.473
1.58 --undefined-- 40.053
1.59 --undefined-- 41.295
1.60 --undefined-- 41.342
1.61 --undefined-- 39.957
1.62 --undefined-- 39.607
1.63 --undefined-- 39.903
1.64 --undefined-- 38.195
1.65 --undefined-- 36.520
1.66 --undefined-- 37.281
1.67 --undefined-- 36.288
1.68 --undefined-- 34.154
1.69 --undefined-- 34.600
1.70 --undefined-- 36.245
1.71 --undefined-- 36.935
1.72 --undefined-- 38.772
1.73 --undefined-- 41.229
1.74 --undefined-- 41.697
1.75 --undefined-- 41.520
1.76 --undefined-- 43.485
1.77 --undefined-- 46.378
1.78 --undefined-- 48.476
1.79 --undefined-- 50.989
1.80 --undefined-- 58.687
1.81 202.436 65.512
1.82 193.387 69.374
1.83 189.498 71.295
1.84 188.048 72.236
1.85 188.257 72.517
1.86 190.983 72.367
1.87 194.657 72.325
1.88 198.086 72.425
1.89 202.421 72.671
1.90 207.943 73.381
1.91 215.646 74.127
1.92 228.147 74.298
1.93 236.209 74.009
1.94 242.192 73.745
1.95 249.333 73.585
1.96 253.898 73.209
1.97 251.524 72.171
1.98 249.872 71.552
1.99 260.789 72.479
2.00 263.553 73.436
2.01 260.831 73.902
2.02 255.431 74.205
2.03 249.394 74.406
2.04 243.103 74.428
2.05 231.983 74.205
2.06 215.414 73.569
2.07 208.167 72.822
2.08 201.299 72.116
2.09 194.750 71.298
2.10 189.910 70.657
2.11 187.479 70.298
2.12 187.067 69.982
2.13 188.989 69.657
2.14 193.205 69.511
2.15 199.076 69.620
2.16 202.263 69.541
2.17 205.860 69.288
2.18 210.716 69.431
2.19 210.742 69.619
2.20 208.623 69.649
2.21 206.206 69.931
2.22 204.391 70.885
2.23 204.409 71.794
2.24 195.496 71.917
2.25 190.621 71.672
2.26 188.524 71.443
2.27 186.918 71.071
2.28 186.462 70.700
2.29 187.538 70.551
2.30 189.222 70.579
2.31 190.525 70.589
2.32 191.319 70.304
2.33 191.536 69.324
2.34 189.498 67.191
2.35 185.432 64.009
2.36 187.674 60.360
2.37 189.756 55.516
2.38 --undefined-- 48.115
2.39 --undefined-- 39.600
2.40 --undefined-- 38.716
2.41 --undefined-- 46.355
2.42 --undefined-- 56.208
2.43 --undefined-- 63.869
2.44 202.734 68.159
2.45 194.621 69.857
2.46 191.980 70.316
2.47 191.103 70.360
2.48 189.142 70.113
2.49 186.772 69.825
2.50 184.622 69.818
2.51 182.841 70.025
2.52 182.065 70.240
2.53 180.691 70.483
2.54 179.919 70.733
2.55 178.370 70.960
2.56 176.519 71.065
2.57 176.304 70.823
2.58 177.295 70.104
2.59 178.269 68.484
2.60 175.836 65.028
2.61 175.418 58.852
2.62 --undefined-- 49.469
2.63 --undefined-- 39.891
2.64 --undefined-- 38.308
2.65 --undefined-- 39.715
2.66 --undefined-- 43.191
2.67 --undefined-- 46.564
2.68 --undefined-- 52.916
2.69 200.208 60.265
2.70 198.364 64.904
2.71 193.410 67.300
2.72 184.717 68.468
2.73 167.459 68.831
2.74 157.216 68.552
2.75 146.993 68.297
2.76 142.341 68.686
2.77 144.077 69.124
2.78 145.328 69.339
2.79 146.070 69.464
2.80 148.460 69.551
2.81 149.064 69.547
2.82 146.799 68.991
2.83 143.706 67.109
2.84 138.753 63.070
2.85 --undefined-- 56.144
2.86 --undefined-- 49.968
2.87 --undefined-- 53.014
2.88 --undefined-- 54.658
2.89 --undefined-- 57.572
2.90 172.604 63.519
2.91 164.497 67.416
2.92 159.803 69.037
2.93 153.617 69.342
2.94 148.658 69.260
2.95 146.601 69.197
2.96 144.907 69.079
2.97 144.183 68.659
2.98 143.496 67.223
2.99 135.003 63.802
3.00 --undefined-- 57.797
3.01 --undefined-- 49.116
3.02 --undefined-- 41.329
3.03 --undefined-- 39.357
3.04 --undefined-- 39.193
3.05 --undefined-- 51.787
3.06 --undefined-- 62.601
3.07 --undefined-- 68.711
3.08 203.557 71.340
3.09 204.407 72.010
3.10 204.510 72.186
3.11 203.573 72.444
3.12 202.245 72.957
3.13 201.155 73.574
3.14 201.524 73.926
3.15 204.999 73.698
3.16 206.630 72.902
3.17 205.057 71.795
3.18 201.777 70.465
3.19 196.027 69.058
3.20 192.258 68.096
3.21 190.170 67.589
3.22 187.543 67.164
3.23 186.142 66.945
3.24 185.313 66.957
3.25 183.344 66.854
3.26 180.111 66.417
3.27 176.224 65.668
3.28 173.378 64.945
3.29 172.304 64.776
3.30 173.443 65.456
3.31 176.835 66.853
3.32 179.445 68.677
3.33 181.243 70.433
3.34 181.708 71.536
3.35 179.940 71.816
3.36 177.034 71.467
3.37 174.908 70.365
3.38 170.449 67.790
3.39 164.211 63.206
3.40 169.604 56.798
3.41 --undefined-- 48.578
3.42 --undefined-- 38.928
3.43 --undefined-- 35.493
3.44 --undefined-- 37.313
3.45 --undefined-- 42.082
3.46 --undefined-- 49.633
3.47 --undefined-- 59.670
3.48 197.570 66.254
3.49 175.259 69.517
3.50 169.314 70.486
3.51 162.637 70.181
3.52 157.695 69.701
3.53 156.432 69.632
3.54 156.597 69.790
3.55 157.209 70.031
3.56 157.771 70.254
3.57 158.450 70.362
3.58 159.845 70.359
3.59 162.415 70.311
3.60 165.190 70.257
3.61 167.507 70.122
3.62 170.968 69.794
3.63 177.577 69.381
3.64 185.015 69.144
3.65 194.877 69.269
3.66 202.425 69.960
3.67 208.666 70.938
3.68 214.060 71.714
3.69 220.199 71.995
3.70 225.812 71.700
3.71 229.616 70.998
3.72 229.233 70.109
3.73 223.459 68.879
3.74 211.228 66.934
3.75 --undefined-- 64.336
3.76 --undefined-- 61.214
3.77 --undefined-- 56.254
3.78 --undefined-- 48.071
3.79 --undefined-- 39.753
3.80 --undefined-- 38.343
3.81 --undefined-- 37.978
3.82 --undefined-- 37.165
3.83 --undefined-- 37.910
3.84 --undefined-- 38.414
3.85 --undefined-- 37.560
3.86 --undefined-- 36.307
3.87 --undefined-- 35.625
3.88 --undefined-- 36.127
3.89 --undefined-- 37.358
3.90 --undefined-- 38.612
3.91 --undefined-- 38.890
3.92 --undefined-- 38.654
3.93 --undefined-- 38.098
3.94 --undefined-- 36.154
3.95 --undefined-- 34.868
3.96 --undefined-- 36.551
3.97 --undefined-- 37.813
3.98 --undefined-- 38.792
3.99 --undefined-- 41.290
4.00 --undefined-- 43.888
4.01 --undefined-- 46.202
4.02 --undefined-- 47.765
4.03 --undefined-- 48.312
4.04 --undefined-- 50.157
4.05 --undefined-- 59.255
4.06 204.106 67.148
4.07 201.289 71.485
4.08 199.999 73.418
4.09 202.589 74.200
4.10 206.717 74.621
4.11 211.883 74.800
4.12 218.610 74.506
4.13 229.237 73.879
4.14 239.797 73.364
4.15 252.256 73.158
4.16 258.812 73.501
4.17 262.099 73.875
4.18 263.421 73.970
4.19 262.370 74.086
4.20 259.204 74.405
4.21 253.636 74.791
4.22 246.819 74.847
4.23 238.845 74.221
4.24 228.955 72.919
4.25 218.403 71.425
4.26 210.497 70.119
4.27 203.617 68.357
4.28 185.229 65.480
4.29 183.418 62.461
4.30 198.272 59.643
4.31 --undefined-- 54.725
4.32 --undefined-- 47.010
4.33 --undefined-- 42.463
4.34 --undefined-- 45.838
4.35 --undefined-- 53.956
4.36 --undefined-- 62.924
4.37 --undefined-- 68.248
4.38 190.580 70.188
4.39 176.614 70.027
4.40 170.521 69.327
4.41 167.967 68.532
4.42 165.967 67.314
4.43 164.536 65.351
4.44 162.873 62.221
4.45 158.694 57.205
4.46 --undefined-- 49.726
4.47 --undefined-- 43.587
4.48 --undefined-- 46.262
4.49 --undefined-- 51.175
4.50 --undefined-- 55.106
4.51 --undefined-- 56.526
4.52 --undefined-- 54.953
4.53 --undefined-- 52.689
4.54 --undefined-- 60.194
4.55 238.803 66.900
4.56 233.025 70.280
4.57 224.386 71.065
4.58 216.879 70.479
4.59 211.549 69.268
4.60 205.228 66.853
4.61 204.506 62.481
4.62 --undefined-- 57.401
4.63 --undefined-- 56.623
4.64 --undefined-- 56.411
4.65 --undefined-- 54.247
4.66 --undefined-- 52.275
4.67 --undefined-- 50.999
4.68 --undefined-- 49.558
4.69 --undefined-- 49.459
4.70 --undefined-- 50.640
4.71 --undefined-- 53.583
4.72 --undefined-- 59.798
4.73 162.007 64.252
4.74 147.741 66.447
4.75 140.272 67.982
4.76 137.524 69.408
4.77 137.699 70.060
4.78 141.241 69.879
4.79 145.491 69.437
4.80 149.617 69.362
4.81 153.608 69.704
4.82 157.441 70.149
4.83 160.877 70.491
4.84 164.546 70.621
4.85 168.954 70.384
4.86 172.119 69.362
4.87 174.401 66.891
4.88 181.879 62.324
4.89 --undefined-- 54.906
4.90 --undefined-- 53.998
4.91 --undefined-- 62.968
4.92 199.495 68.391
4.93 193.835 71.002
4.94 179.539 72.017
4.95 173.221 72.372
4.96 166.114 72.220
4.97 159.538 71.828
4.98 155.930 71.336
4.99 153.778 70.784
5.00 152.593 70.524
5.01 151.426 70.791
5.02 149.017 71.347
5.03 146.620 71.760
5.04 143.527 71.880
5.05 139.778 71.785
5.06 136.457 71.262
5.07 122.580 69.797
5.08 111.645 67.262
5.09 --undefined-- 63.677
5.10 --undefined-- 59.425
5.11 --undefined-- 55.052
5.12 --undefined-- 47.926
5.13 --undefined-- 38.935
5.14 --undefined-- 37.694
5.15 --undefined-- 38.790
5.16 --undefined-- 38.030
5.17 --undefined-- 36.935
5.18 --undefined-- 38.822
5.19 --undefined-- 39.253
5.20 --undefined-- 38.599
5.21 --undefined-- 38.509
5.22 --undefined-- 37.647
5.23 --undefined-- 39.989
5.24 --undefined-- 42.814
5.25 --undefined-- 42.296
5.26 --undefined-- 39.029
5.27 --undefined-- 35.830
5.28 --undefined-- 34.685
5.29 --undefined-- 34.271
5.30 --undefined-- 35.469
5.31 --undefined-- 37.859
5.32 --undefined-- 38.676
5.33 --undefined-- 37.917
5.34 --undefined-- 36.626
5.35 --undefined-- 36.031
5.36 --undefined-- 35.438
5.37 --undefined-- 33.742
5.38 --undefined-- 30.940
5.39 --undefined-- 28.005
5.40 --undefined-- 27.784
5.41 --undefined-- 30.890
5.42 --undefined-- 32.932
5.43 --undefined-- 33.190
5.44 --undefined-- 32.280
5.45 --undefined-- 32.014
5.46 --undefined-- 31.382
5.47 --undefined-- 31.548
5.48 --undefined-- 33.081
5.49 --undefined-- 32.692
5.50 --undefined-- 30.749
5.51 --undefined-- 30.931
5.52 --undefined-- 33.349
5.53 --undefined-- 34.431
5.54 --undefined-- 33.479
5.55 --undefined-- 33.492
5.56 --undefined-- 35.682
5.57 --undefined-- 38.103
5.58 --undefined-- 38.782
5.59 --undefined-- 36.773
5.60 --undefined-- 33.457
5.61 --undefined-- 33.088
5.62 --undefined-- 33.305
5.63 --undefined-- 31.675
5.64 --undefined-- 30.757
5.65 --undefined-- 31.462
5.66 --undefined-- 32.064
5.67 --undefined-- 33.910
5.68 --undefined-- 34.913
5.69 --undefined-- 33.268
5.70 --undefined-- 31.432
5.71 --undefined-- 33.790
5.72 --undefined-- 35.740
5.73 --undefined-- 35.245
5.74 --undefined-- 45.044
5.75 --undefined-- 58.547
5.76 232.531 66.954
5.77 226.025 71.637
5.78 226.202 73.838
5.79 233.650 74.735
5.80 237.138 75.109
5.81 239.079 75.212
5.82 240.369 74.772
5.83 240.133 72.837
5.84 216.040 68.588
5.85 225.743 61.936
5.86 --undefined-- 54.290
5.87 --undefined-- 57.033
5.88 --undefined-- 65.671
5.89 287.363 70.594
5.90 293.323 72.108
5.91 292.991 71.739
5.92 284.782 71.731
5.93 273.305 73.107
5.94 248.791 74.978
5.95 233.058 76.320
5.96 228.518 76.780
5.97 224.104 76.702
5.98 221.597 76.406
5.99 221.047 75.770
6.00 221.126 75.036
6.01 222.120 74.820
6.02 223.784 75.055
6.03 228.380 75.106
6.04 233.178 74.581
6.05 232.580 73.375
6.06 228.048 71.050
6.07 212.066 67.245
6.08 222.728 62.260
6.09 --undefined-- 55.888
6.10 --undefined-- 47.752
6.11 --undefined-- 47.115
6.12 --undefined-- 50.804
6.13 --undefined-- 54.061
6.14 --undefined-- 61.004
6.15 226.477 67.420
6.16 225.028 70.893
6.17 221.597 72.139
6.18 204.276 72.065
6.19 175.454 71.087
6.20 156.802 69.757
6.21 145.283 69.148
6.22 144.172 69.348
6.23 144.179 69.532
6.24 145.349 69.582
6.25 146.902 69.616
6.26 146.953 69.235
6.27 144.881 67.705
6.28 141.426 64.281
6.29 --undefined-- 58.421
6.30 --undefined-- 53.539
6.31 --undefined-- 55.787
6.32 --undefined-- 56.832
6.33 --undefined-- 57.282
6.34 179.999 62.416
6.35 176.620 66.978
6.36 167.831 69.013
6.37 153.585 69.521
6.38 146.464 69.344
6.39 144.836 69.041
6.40 144.629 68.809
6.41 145.596 68.292
6.42 146.294 66.779
6.43 141.740 63.379
6.44 --undefined-- 57.684
6.45 --undefined-- 49.429
6.46 --undefined-- 39.704
6.47 --undefined-- 39.615
6.48 --undefined-- 50.588
6.49 --undefined-- 61.149
6.50 --undefined-- 67.544
6.51 193.232 70.393
6.52 195.211 71.031
6.53 195.490 71.112
6.54 196.483 71.423
6.55 197.353 71.987
6.56 197.679 72.685
6.57 197.387 73.333
6.58 196.678 73.818
6.59 196.311 73.944
6.60 197.210 73.424
6.61 198.380 72.161
6.62 196.126 70.470
6.63 192.620 69.067
6.64 190.777 68.251
6.65 188.766 67.784
6.66 188.549 67.532
6.67 187.389 67.388
6.68 185.022 67.219
6.69 182.979 67.059
6.70 180.511 66.933
6.71 177.861 66.911
6.72 175.621 67.001
6.73 173.388 67.212
6.74 173.446 67.837
6.75 175.729 --undefined--
6.76 176.593 --undefined--
6.77 --undefined-- --undefined--
6.78 --undefined-- --undefined--
