Time Pitch Intensity
0.01 --undefined-- --undefined--
0.02 --undefined-- --undefined--
0.03 --undefined-- --undefined--
0.04 --undefined-- --undefined--
0.05 --undefined-- 49.322
0.06 --undefined-- 51.433
0.07 --undefined-- 52.529
0.08 --undefined-- 52.979
0.09 --undefined-- 53.647
0.10 --undefined-- 54.507
0.11 --undefined-- 54.806
0.12 --undefined-- 55.067
0.13 --undefined-- 55.426
0.14 --undefined-- 54.961
0.15 --undefined-- 53.977
0.16 --undefined-- 53.318
0.17 --undefined-- 52.644
0.18 --undefined-- 51.495
0.19 --undefined-- 50.734
0.20 --undefined-- 50.994
0.21 --undefined-- 51.232
0.22 --undefined-- 50.854
0.23 --undefined-- 49.612
0.24 --undefined-- 46.440
0.25 --undefined-- 43.102
0.26 --undefined-- 43.581
0.27 --undefined-- 53.131
0.28 --undefined-- 63.636
0.29 161.964 70.000
0.30 158.649 73.536
0.31 161.092 75.261
0.32 164.084 75.980
0.33 165.508 76.352
0.34 169.152 77.410
0.35 175.057 78.599
0.36 178.045 78.608
0.37 179.894 78.055
0.38 181.524 78.068
0.39 181.537 78.078
0.40 179.077 77.327
0.41 175.540 75.389
0.42 176.671 73.099
0.43 176.477 72.607
0.44 173.545 73.825
0.45 166.985 76.229
0.46 160.760 78.265
0.47 156.666 79.077
0.48 149.553 79.103
0.49 143.684 78.865
0.50 137.091 78.552
0.51 129.807 78.344
0.52 125.222 78.084
0.53 123.404 77.467
0.54 122.814 75.902
0.55 121.611 72.633
0.56 127.985 67.618
0.57 --undefined-- 61.869
0.58 --undefined-- 61.703
0.59 --undefined-- 64.758
0.60 --undefined-- 65.099
0.61 --undefined-- 63.187
0.62 --undefined-- 61.084
0.63 --undefined-- 62.197
0.64 --undefined-- 67.275
0.65 124.263 71.014
0.66 116.695 72.711
0.67 120.771 73.966
0.68 120.924 75.294
0.69 119.055 75.830
0.70 122.099 75.729
0.71 131.574 76.099
0.72 139.030 76.981
0.73 144.932 77.501
0.74 149.250 77.397
0.75 153.316 76.710
0.76 158.447 75.658
0.77 161.958 74.798
0.78 164.865 74.258
0.79 167.870 73.656
0.80 169.113 73.165
0.81 171.247 73.215
0.82 171.311 74.270
0.83 168.993 75.850
0.84 165.805 77.090
0.85 161.008 77.787
0.86 155.737 78.120
0.87 151.168 78.395
0.88 148.572 78.665
0.89 147.034 78.539
0.90 144.858 77.849
0.91 142.470 76.977
0.92 141.554 76.126
0.93 140.497 75.262
0.94 139.593 74.284
0.95 137.030 73.140
0.96 145.063 72.801
0.97 146.888 73.368
0.98 148.763 74.102
0.99 152.530 74.877
1.00 161.919 75.814
1.01 161.773 76.743
1.02 160.338 77.268
1.03 160.579 77.386
1.04 161.024 77.435
1.05 161.583 77.537
1.06 162.034 77.635
1.07 162.612 77.826
1.08 162.791 78.072
1.09 161.917 78.308
1.10 159.890 78.386
1.11 155.243 77.672
1.12 147.662 75.469
1.13 147.074 71.979
1.14 153.599 68.411
1.15 155.960 64.899
1.16 154.989 62.219
1.17 --undefined-- 62.442
1.18 --undefined-- 66.003
1.19 --undefined-- 72.240
1.20 149.795 76.173
1.21 146.197 77.281
1.22 135.636 76.251
1.23 128.177 73.850
1.24 123.832 71.005
1.25 128.371 69.807
1.26 131.275 70.631
1.27 132.046 71.540
1.28 131.545 72.028
1.29 131.676 72.362
1.30 132.704 72.671
1.31 133.521 72.840
1.32 134.115 72.889
1.33 134.914 72.921
1.34 135.262 72.899
1.35 135.285 72.773
1.36 135.059 72.598
1.37 135.065 72.467
1.38 135.618 72.447
1.39 135.712 72.534
1.40 135.680 72.676
1.41 135.323 72.765
1.42 134.730 72.726
1.43 134.152 72.653
1.44 134.198 72.793
1.45 131.332 73.167
1.46 128.251 73.613
1.47 126.897 73.969
1.48 124.780 73.404
1.49 116.449 71.278
1.50 105.776 67.901
1.51 102.860 64.994
1.52 114.949 63.769
1.53 113.891 63.993
1.54 121.479 67.374
1.55 133.749 71.853
1.56 133.136 74.626
1.57 132.230 75.487
1.58 130.114 75.170
1.59 129.284 74.731
1.60 126.114 74.762
1.61 125.245 75.185
1.62 125.368 75.965
1.63 125.210 76.831
1.64 125.844 77.267
1.65 129.141 77.389
1.66 130.132 77.672
1.67 129.771 77.941
1.68 128.923 77.891
1.69 127.866 77.550
1.70 125.393 76.935
1.71 124.736 76.094
1.72 127.316 75.375
1.73 121.130 74.633
1.74 119.254 73.490
1.75 115.969 72.485
1.76 120.831 72.298
1.77 123.255 72.837
1.78 125.210 73.743
1.79 127.109 74.663
1.80 126.393 75.175
1.81 125.938 75.240
1.82 125.410 75.116
1.83 125.929 74.819
1.84 129.142 74.581
1.85 134.555 74.778
1.86 144.406 75.041
1.87 152.413 74.916
1.88 159.646 74.437
1.89 169.797 73.932
1.90 181.073 73.789
1.91 191.456 74.090
1.92 197.589 74.426
1.93 204.291 74.412
1.94 205.118 74.227
1.95 204.394 73.525
1.96 198.614 72.317
1.97 186.226 71.309
1.98 179.500 70.399
1.99 170.913 71.201
2.00 174.786 74.610
2.01 158.735 76.571
2.02 150.972 76.370
2.03 128.639 75.238
2.04 123.341 74.389
2.05 119.282 73.836
2.06 117.592 73.465
2.07 118.250 73.480
2.08 121.807 74.049
2.09 123.768 74.721
2.10 128.153 75.241
2.11 134.892 75.964
2.12 138.500 76.685
2.13 142.784 77.135
2.14 146.102 77.299
2.15 146.844 76.541
2.16 145.215 73.990
2.17 148.612 70.206
2.18 146.951 67.417
2.19 145.221 64.933
2.20 149.397 61.017
2.21 150.882 56.037
2.22 --undefined-- 59.758
2.23 --undefined-- 68.840
2.24 --undefined-- 74.312
2.25 144.033 76.801
2.26 138.855 77.356
2.27 134.329 76.802
2.28 130.804 76.032
2.29 129.619 75.883
2.30 129.367 75.933
2.31 128.442 75.642
2.32 126.860 75.323
2.33 125.145 75.391
2.34 123.385 75.888
2.35 122.166 76.449
2.36 121.343 76.515
2.37 122.440 76.108
2.38 124.533 75.905
2.39 125.509 76.030
2.40 125.257 75.669
2.41 123.592 74.144
2.42 121.987 71.524
2.43 125.591 68.049
2.44 122.176 63.590
2.45 --undefined-- 60.247
2.46 --undefined-- 59.663
2.47 --undefined-- 60.064
2.48 --undefined-- 60.744
2.49 --undefined-- 61.500
2.50 --undefined-- 62.037
2.51 --undefined-- 66.115
2.52 215.454 72.377
2.53 207.640 75.784
2.54 204.892 76.634
2.55 202.645 76.286
2.56 201.419 75.927
2.57 199.932 75.771
2.58 198.127 75.678
2.59 196.283 75.726
2.60 194.014 75.826
2.61 192.033 75.569
2.62 190.229 75.032
2.63 191.109 74.786
2.64 190.391 74.797
2.65 189.984 74.782
2.66 189.910 74.611
2.67 189.474 73.968
2.68 186.307 72.368
2.69 182.050 69.329
2.70 183.987 64.515
2.71 197.794 62.998
2.72 204.773 70.520
2.73 208.263 75.596
2.74 204.299 77.475
2.75 195.336 77.370
2.76 188.736 76.762
2.77 185.800 76.166
2.78 183.832 75.464
2.79 180.786 75.025
2.80 179.657 75.160
2.81 178.999 75.335
2.82 177.994 75.041
2.83 173.831 74.423
2.84 174.635 74.160
2.85 170.675 74.333
2.86 165.232 74.534
2.87 159.468 74.462
2.88 152.284 74.292
2.89 148.695 75.065
2.90 145.140 76.664
2.91 138.194 77.499
2.92 131.867 77.493
2.93 127.772 77.568
2.94 125.021 77.861
2.95 123.451 77.892
2.96 124.733 77.529
2.97 125.260 76.851
2.98 125.117 76.410
2.99 127.237 76.373
3.00 134.645 76.702
3.01 140.192 77.653
3.02 146.512 78.742
3.03 152.271 79.482
3.04 156.731 79.834
3.05 155.078 80.049
3.06 152.218 80.208
3.07 148.315 80.193
3.08 143.819 79.847
3.09 137.883 78.954
3.10 131.273 77.602
3.11 124.299 76.160
3.12 119.321 74.170
3.13 103.703 70.939
3.14 101.885 67.784
3.15 98.819 66.370
3.16 98.843 66.155
3.17 98.517 66.427
3.18 99.325 66.795
3.19 101.925 67.329
3.20 108.635 68.430
3.21 112.042 70.022
3.22 115.445 71.780
3.23 120.431 73.347
3.24 126.599 74.668
3.25 131.453 75.863
3.26 136.192 76.820
3.27 138.804 77.096
3.28 138.838 75.978
3.29 136.159 72.825
3.30 133.690 67.643
3.31 138.105 61.758
3.32 --undefined-- 55.913
3.33 --undefined-- 52.234
3.34 --undefined-- 53.621
3.35 --undefined-- 56.885
3.36 --undefined-- 65.816
3.37 --undefined-- 72.490
3.38 140.162 76.051
3.39 135.333 77.383
3.40 131.453 76.940
3.41 124.257 74.449
3.42 112.842 69.603
3.43 116.517 63.927
3.44 116.495 59.489
3.45 --undefined-- 54.080
3.46 --undefined-- 51.029
3.47 --undefined-- 54.582
3.48 --undefined-- 57.455
3.49 --undefined-- 63.491
3.50 --undefined-- 69.440
3.51 121.567 72.561
3.52 115.476 73.294
3.53 110.351 72.604
3.54 106.952 71.341
3.55 107.032 70.265
3.56 108.790 70.006
3.57 108.722 70.145
3.58 108.280 70.314
3.59 107.997 70.502
3.60 108.152 70.609
3.61 108.025 70.357
3.62 107.543 69.314
3.63 105.372 67.099
3.64 105.393 63.937
3.65 109.596 60.743
3.66 112.746 57.862
3.67 112.077 55.120
3.68 --undefined-- 57.834
3.69 --undefined-- 65.808
3.70 140.403 71.901
3.71 139.464 75.811
3.72 140.451 78.043
3.73 140.444 78.961
3.74 140.280 78.793
3.75 139.426 77.503
3.76 136.280 74.850
3.77 131.584 71.117
3.78 132.692 67.756
3.79 131.668 65.019
3.80 132.293 61.582
3.81 --undefined-- 61.533
3.82 --undefined-- 68.997
3.83 --undefined-- 74.256
3.84 135.000 76.471
3.85 125.583 76.504
3.86 119.693 75.500
3.87 112.585 74.342
3.88 109.170 73.487
3.89 108.598 73.106
3.90 108.155 73.173
3.91 109.209 73.478
3.92 111.085 73.905
3.93 113.149 74.289
3.94 114.192 74.393
3.95 117.327 74.815
3.96 121.226 75.601
3.97 122.771 75.880
3.98 124.493 75.876
3.99 125.524 75.798
4.00 127.008 75.554
4.01 128.285 75.238
4.02 129.270 74.798
4.03 129.363 73.866
4.04 123.775 72.035
4.05 131.664 68.568
4.06 131.044 62.675
4.07 --undefined-- 54.422
4.08 --undefined-- 47.692
4.09 --undefined-- 47.235
4.10 --undefined-- 49.563
4.11 --undefined-- 51.954
4.12 --undefined-- 53.226
4.13 --undefined-- 53.317
4.14 --undefined-- 53.031
4.15 --undefined-- 52.819
4.16 --undefined-- 52.749
4.17 --undefined-- 53.395
4.18 --undefined-- 54.355
4.19 --undefined-- 55.132
4.20 --undefined-- 55.429
4.21 --undefined-- 55.303
4.22 --undefined-- 55.435
4.23 --undefined-- 55.769
4.24 --undefined-- 55.765
4.25 --undefined-- 55.494
4.26 --undefined-- 55.242
4.27 --undefined-- 54.496
4.28 --undefined-- 53.158
4.29 --undefined-- 51.176
4.30 --undefined-- 48.807
4.31 --undefined-- 46.979
4.32 --undefined-- 45.857
4.33 --undefined-- 45.305
4.34 --undefined-- 46.843
4.35 --undefined-- 48.824
4.36 --undefined-- 50.637
4.37 --undefined-- 52.414
4.38 --undefined-- 54.410
4.39 --undefined-- 56.616
4.40 --undefined-- 61.973
4.41 --undefined-- 70.321
4.42 187.184 75.737
4.43 184.351 78.164
4.44 181.507 78.525
4.45 170.617 78.455
4.46 162.090 78.937
4.47 160.272 79.604
4.48 159.748 79.436
4.49 159.420 78.100
4.50 154.002 75.801
4.51 146.240 72.531
4.52 147.289 68.821
4.53 154.638 65.366
4.54 160.387 63.525
4.55 151.117 66.955
4.56 155.022 71.389
4.57 155.360 73.516
4.58 152.907 73.737
4.59 149.550 73.136
4.60 147.794 72.687
4.61 146.798 72.687
4.62 145.765 72.908
4.63 144.949 73.260
4.64 143.193 73.783
4.65 142.077 74.159
4.66 139.676 73.931
4.67 133.397 73.103
4.68 132.742 72.282
4.69 128.533 71.745
4.70 123.799 71.310
4.71 122.944 71.292
4.72 116.851 71.091
4.73 113.294 70.016
4.74 109.352 68.712
4.75 111.592 68.183
4.76 112.874 68.273
4.77 117.017 68.299
4.78 125.350 68.923
4.79 135.996 70.751
4.80 143.472 72.669
4.81 149.484 74.237
4.82 155.026 75.431
4.83 158.707 75.875
4.84 158.089 74.863
4.85 154.845 72.303
4.86 158.273 69.619
4.87 155.326 67.174
4.88 155.651 64.235
4.89 154.273 61.010
4.90 146.911 63.523
4.91 --undefined-- 70.863
4.92 170.609 75.559
4.93 163.916 77.856
4.94 158.847 78.579
4.95 155.501 78.439
4.96 153.934 77.679
4.97 154.982 76.316
4.98 156.003 74.676
4.99 153.355 73.538
5.00 151.245 72.955
5.01 146.889 72.333
5.02 142.547 71.405
5.03 134.843 70.410
5.04 132.163 70.763
5.05 125.637 72.039
5.06 120.455 --undefined--
5.07 108.009 --undefined--
5.08 --undefined-- --undefined--
5.09 --undefined-- --undefined--
