Time Pitch Intensity
0.01 --undefined-- --undefined--
0.02 --undefined-- --undefined--
0.03 --undefined-- --undefined--
0.04 --undefined-- --undefined--
0.05 --undefined-- 50.226
0.06 --undefined-- 50.585
0.07 --undefined-- 50.417
0.08 --undefined-- 50.749
0.09 --undefined-- 50.234
0.10 --undefined-- 48.222
0.11 --undefined-- 45.715
0.12 --undefined-- 43.554
0.13 --undefined-- 41.237
0.14 --undefined-- 37.546
0.15 --undefined-- 32.812
0.16 --undefined-- 29.487
0.17 --undefined-- 27.848
0.18 --undefined-- 27.248
0.19 --undefined-- 27.273
0.20 --undefined-- 27.839
0.21 --undefined-- 27.821
0.22 --undefined-- 26.914
0.23 --undefined-- 28.729
0.24 --undefined-- 38.107
0.25 --undefined-- 45.055
0.26 --undefined-- 49.955
0.27 --undefined-- 58.627
0.28 --undefined-- 66.233
0.29 --undefined-- 70.500
0.30 165.861 72.467
0.31 165.718 72.824
0.32 166.367 71.779
0.33 166.232 70.028
0.34 167.480 68.375
0.35 169.975 66.890
0.36 170.286 65.747
0.37 169.564 64.687
0.38 167.510 63.545
0.39 169.908 63.000
0.40 169.141 62.914
0.41 166.653 62.719
0.42 166.863 62.670
0.43 168.250 63.310
0.44 169.845 64.158
0.45 173.199 64.732
0.46 175.845 65.636
0.47 174.400 66.843
0.48 173.580 67.909
0.49 173.927 68.969
0.50 174.221 70.034
0.51 173.331 70.743
0.52 172.150 70.966
0.53 170.636 70.906
0.54 171.975 70.680
0.55 172.975 70.162
0.56 173.154 68.610
0.57 173.759 65.561
0.58 177.247 61.029
0.59 176.311 55.553
0.60 --undefined-- 52.770
0.61 --undefined-- 54.724
0.62 --undefined-- 56.918
0.63 --undefined-- 57.177
0.64 --undefined-- 56.405
0.65 --undefined-- 58.457
0.66 --undefined-- 60.472
0.67 --undefined-- 60.331
0.68 --undefined-- 62.067
0.69 --undefined-- 65.276
0.70 --undefined-- 66.435
0.71 --undefined-- 66.864
0.72 --undefined-- 66.918
0.73 --undefined-- 64.112
0.74 --undefined-- 56.953
0.75 --undefined-- 51.946
0.76 152.615 56.933
0.77 148.554 60.046
0.78 145.061 61.601
0.79 149.543 64.296
0.80 151.341 67.186
0.81 151.396 68.127
0.82 152.908 67.528
0.83 154.281 66.902
0.84 157.042 67.176
0.85 161.754 67.630
0.86 162.197 67.366
0.87 163.038 66.265
0.88 166.129 64.273
0.89 166.800 60.951
0.90 --undefined-- 55.698
0.91 --undefined-- 47.715
0.92 --undefined-- 44.338
0.93 --undefined-- 50.980
0.94 --undefined-- 56.268
0.95 --undefined-- 58.941
0.96 --undefined-- 59.429
0.97 --undefined-- 58.532
0.98 --undefined-- 56.685
0.99 --undefined-- 57.387
1.00 181.419 62.806
1.01 176.573 66.225
1.02 168.094 67.000
1.03 157.908 66.448
1.04 154.497 66.300
1.05 153.413 66.221
1.06 158.743 65.650
1.07 --undefined-- 64.774
1.08 161.292 65.087
1.09 166.026 66.685
1.10 176.727 67.745
1.11 184.310 67.875
1.12 187.351 67.172
1.13 189.151 65.843
1.14 182.480 64.309
1.15 --undefined-- 62.288
1.16 --undefined-- 58.833
1.17 --undefined-- 53.251
1.18 --undefined-- 45.651
1.19 --undefined-- 36.611
1.20 --undefined-- 29.526
1.21 --undefined-- 27.877
1.22 --undefined-- 28.157
1.23 --undefined-- 27.830
1.24 --undefined-- 27.377
1.25 --undefined-- 27.498
1.26 --undefined-- 26.950
1.27 --undefined-- 25.282
1.28 --undefined-- 24.075
1.29 --undefined-- 24.010
1.30 --undefined-- 23.964
1.31 --undefined-- 24.098
1.32 --undefined-- 24.485
1.33 --undefined-- 24.602
1.34 --undefined-- 24.863
1.35 --undefined-- 26.951
1.36 --undefined-- 28.476
1.37 --undefined-- 28.537
1.38 --undefined-- 28.274
1.39 --undefined-- 28.475
1.40 --undefined-- 28.477
1.41 --undefined-- 27.422
1.42 --undefined-- 30.931
1.43 --undefined-- 43.393
1.44 --undefined-- 50.617
1.45 --undefined-- 52.934
1.46 --undefined-- 50.728
1.47 --undefined-- 43.808
1.48 --undefined-- 32.427
1.49 --undefined-- 31.143
1.50 --undefined-- 40.630
1.51 --undefined-- 46.653
1.52 --undefined-- 48.914
1.53 --undefined-- 48.262
1.54 --undefined-- 46.693
1.55 --undefined-- 45.518
1.56 --undefined-- 43.629
1.57 --undefined-- 41.890
1.58 --undefined-- 41.344
1.59 --undefined-- 40.515
1.60 --undefined-- 38.726
1.61 --undefined-- 36.210
1.62 --undefined-- 32.880
1.63 --undefined-- 30.391
1.64 --undefined-- 28.964
1.65 --undefined-- 27.559
1.66 --undefined-- 31.105
1.67 --undefined-- 35.434
1.68 --undefined-- 36.244
1.69 --undefined-- 33.511
1.70 --undefined-- 28.784
1.71 --undefined-- 27.693
1.72 --undefined-- 41.189
1.73 --undefined-- 55.573
1.74 --undefined-- 63.834
1.75 264.280 67.336
1.76 265.447 67.263
1.77 269.070 67.733
1.78 277.321 70.284
1.79 277.364 71.316
1.80 273.722 70.245
1.81 173.233 68.568
1.82 178.399 68.133
1.83 190.602 67.770
1.84 201.529 67.254
1.85 217.714 67.654
1.86 227.193 68.327
1.87 228.406 68.158
1.88 225.907 66.831
1.89 222.202 64.096
1.90 218.707 59.461
1.91 --undefined-- 52.582
1.92 --undefined-- 44.665
1.93 --undefined-- 40.701
1.94 --undefined-- 38.462
1.95 --undefined-- 34.298
1.96 --undefined-- 29.433
1.97 --undefined-- 28.821
1.98 --undefined-- 39.288
1.99 --undefined-- 49.103
2.00 --undefined-- 57.046
2.01 --undefined-- 62.980
2.02 187.387 66.494
2.03 185.814 68.145
2.04 176.925 68.595
2.05 175.935 68.441
2.06 172.748 67.978
2.07 169.708 67.398
2.08 166.583 67.222
2.09 166.300 67.794
2.10 174.584 68.419
2.11 180.776 68.393
2.12 185.694 67.363
2.13 198.211 65.923
2.14 209.109 65.482
2.15 216.209 65.871
2.16 222.284 66.432
2.17 227.794 67.200
2.18 230.801 68.118
2.19 238.682 68.903
2.20 245.317 69.359
2.21 251.630 69.619
2.22 264.546 69.635
2.23 269.732 69.160
2.24 274.205 68.935
2.25 285.125 70.134
2.26 288.153 71.570
2.27 291.060 72.722
2.28 291.609 73.555
2.29 289.583 73.286
2.30 286.296 71.514
2.31 285.428 69.557
2.32 290.211 69.368
2.33 294.332 69.705
2.34 295.133 69.535
2.35 298.195 69.137
2.36 152.837 68.763
2.37 153.691 68.130
2.38 153.661 67.098
2.39 154.207 66.044
2.40 151.652 65.324
2.41 294.501 65.288
2.42 288.945 65.917
2.43 283.728 66.362
2.44 273.247 66.062
2.45 262.891 65.462
2.46 230.117 65.585
2.47 210.237 67.212
2.48 190.827 69.597
2.49 184.132 71.076
2.50 179.543 70.528
2.51 177.304 67.676
2.52 --undefined-- 62.469
2.53 --undefined-- 54.790
2.54 --undefined-- 46.265
2.55 --undefined-- 41.607
2.56 --undefined-- 37.903
2.57 --undefined-- 34.223
2.58 --undefined-- 31.552
2.59 --undefined-- 29.315
2.60 --undefined-- 27.446
2.61 --undefined-- 26.790
2.62 --undefined-- 26.956
2.63 --undefined-- 27.347
2.64 --undefined-- 26.833
2.65 --undefined-- 28.663
2.66 --undefined-- 44.818
2.67 --undefined-- 57.317
2.68 --undefined-- 64.151
2.69 --undefined-- 67.118
2.70 223.884 69.090
2.71 226.874 71.476
2.72 233.630 73.007
2.73 234.371 73.369
2.74 234.634 72.736
2.75 234.251 71.620
2.76 231.061 70.359
2.77 227.943 69.183
2.78 223.865 68.256
2.79 221.599 67.694
2.80 217.853 67.714
2.81 215.573 68.298
2.82 215.192 68.843
2.83 216.798 68.920
2.84 219.727 69.059
2.85 221.408 69.405
2.86 228.062 69.486
2.87 233.564 69.254
2.88 237.382 68.333
2.89 240.631 66.758
2.90 241.546 64.955
2.91 242.320 63.505
2.92 243.414 62.897
2.93 243.100 63.123
2.94 243.421 63.579
2.95 243.097 63.749
2.96 241.930 64.027
2.97 242.270 64.721
2.98 247.855 65.773
2.99 253.073 66.873
3.00 261.382 67.756
3.01 270.139 67.964
3.02 281.569 66.754
3.03 --undefined-- 63.814
3.04 151.948 59.155
3.05 --undefined-- 53.053
3.06 --undefined-- 50.567
3.07 --undefined-- 54.651
3.08 --undefined-- 57.862
3.09 --undefined-- 60.092
3.10 --undefined-- 62.332
3.11 --undefined-- 65.032
3.12 --undefined-- 66.799
3.13 --undefined-- 66.457
3.14 --undefined-- 64.805
3.15 --undefined-- 63.178
3.16 260.461 62.991
3.17 261.405 64.039
3.18 270.893 65.093
3.19 266.881 66.732
3.20 261.571 68.249
3.21 258.877 68.515
3.22 261.466 68.066
3.23 271.626 69.019
3.24 115.971 70.161
3.25 128.251 70.043
3.26 96.839 68.569
3.27 79.209 66.072
3.28 --undefined-- 62.518
3.29 --undefined-- 57.359
3.30 --undefined-- 52.590
3.31 --undefined-- 50.909
3.32 --undefined-- 51.893
3.33 --undefined-- 53.615
3.34 --undefined-- 55.565
3.35 --undefined-- 56.546
3.36 209.251 56.770
3.37 210.504 58.608
3.38 210.658 63.810
3.39 212.025 68.571
3.40 216.743 71.245
3.41 221.542 72.219
3.42 222.346 72.147
3.43 221.959 71.588
3.44 219.019 70.866
3.45 216.319 70.231
3.46 215.513 70.019
3.47 216.298 70.253
3.48 217.270 70.646
3.49 216.455 70.681
3.50 215.503 70.057
3.51 216.783 68.870
3.52 219.538 67.237
3.53 221.536 65.594
3.54 224.656 64.725
3.55 227.071 64.341
3.56 224.366 63.628
3.57 223.388 62.763
3.58 223.067 62.338
3.59 220.642 62.052
3.60 215.086 61.208
3.61 209.898 59.684
3.62 206.780 57.514
3.63 205.220 54.731
3.64 209.846 51.614
3.65 --undefined-- 48.792
3.66 --undefined-- 45.723
3.67 --undefined-- 42.171
3.68 --undefined-- 41.988
3.69 --undefined-- 42.554
3.70 --undefined-- 41.633
3.71 --undefined-- 41.423
3.72 --undefined-- 45.420
3.73 --undefined-- 49.635
3.74 --undefined-- 56.862
3.75 --undefined-- 64.834
3.76 152.182 69.762
3.77 151.791 71.738
3.78 149.042 71.506
3.79 145.065 70.156
3.80 145.396 68.601
3.81 148.135 67.431
3.82 153.921 66.873
3.83 162.287 66.659
3.84 --undefined-- 66.760
3.85 --undefined-- 66.843
3.86 --undefined-- 65.958
3.87 --undefined-- 64.681
3.88 75.325 64.084
3.89 76.150 63.662
3.90 78.051 62.898
3.91 79.319 62.552
3.92 79.274 62.697
3.93 78.319 62.730
3.94 77.474 62.441
3.95 --undefined-- 61.861
3.96 --undefined-- 60.703
3.97 79.445 58.948
3.98 78.668 56.938
3.99 77.503 54.149
4.00 --undefined-- 50.601
4.01 --undefined-- 47.642
4.02 --undefined-- 43.691
4.03 --undefined-- 38.616
4.04 --undefined-- 33.116
4.05 --undefined-- 27.432
4.06 --undefined-- 26.995
4.07 --undefined-- 27.868
4.08 --undefined-- 28.307
4.09 --undefined-- 28.155
4.10 --undefined-- 27.874
4.11 --undefined-- 27.404
4.12 --undefined-- 26.595
4.13 --undefined-- 25.323
4.14 --undefined-- 23.938
4.15 --undefined-- 24.487
4.16 --undefined-- 25.168
4.17 --undefined-- 30.684
4.18 --undefined-- 43.922
4.19 --undefined-- 53.307
4.20 --undefined-- 62.010
4.21 211.626 68.931
4.22 217.579 72.733
4.23 224.532 73.574
4.24 227.240 71.811
4.25 230.085 67.606
4.26 --undefined-- 60.831
4.27 --undefined-- 51.613
4.28 --undefined-- 43.216
4.29 --undefined-- 36.089
4.30 --undefined-- 27.409
4.31 --undefined-- 23.074
4.32 --undefined-- 23.911
4.33 --undefined-- 39.367
4.34 --undefined-- 54.181
4.35 244.716 63.755
4.36 239.770 68.670
4.37 237.876 69.642
4.38 238.781 67.067
4.39 --undefined-- 62.371
4.40 --undefined-- 60.002
4.41 --undefined-- 59.109
4.42 --undefined-- 59.171
4.43 --undefined-- 60.967
4.44 --undefined-- 63.644
4.45 140.918 66.281
4.46 138.332 67.958
4.47 136.873 68.170
4.48 75.389 67.627
4.49 --undefined-- 65.884
4.50 --undefined-- 62.215
4.51 --undefined-- 60.017
4.52 --undefined-- 57.269
4.53 --undefined-- 50.177
4.54 --undefined-- 37.812
4.55 --undefined-- 34.765
4.56 --undefined-- 46.737
4.57 --undefined-- 53.318
4.58 --undefined-- 55.269
4.59 --undefined-- 54.702
4.60 --undefined-- 57.899
4.61 --undefined-- 62.025
4.62 175.579 64.562
4.63 177.869 66.339
4.64 178.802 67.734
4.65 176.847 68.201
4.66 --undefined-- 67.785
4.67 --undefined-- 67.518
4.68 --undefined-- 67.641
4.69 --undefined-- 68.056
4.70 --undefined-- 68.550
4.71 --undefined-- 68.393
4.72 --undefined-- 68.728
4.73 --undefined-- 69.532
4.74 --undefined-- 69.535
4.75 --undefined-- 69.187
4.76 --undefined-- 68.924
4.77 177.453 68.483
4.78 181.174 67.375
4.79 184.887 65.753
4.80 186.688 63.953
4.81 189.166 61.572
4.82 188.072 58.210
4.83 183.577 54.042
4.84 --undefined-- 49.389
4.85 --undefined-- 44.573
4.86 --undefined-- 42.418
4.87 --undefined-- 45.332
4.88 --undefined-- 53.636
4.89 --undefined-- 60.820
4.90 188.950 65.941
4.91 181.118 68.813
4.92 174.630 69.762
4.93 169.447 70.057
4.94 167.561 70.270
4.95 166.951 70.215
4.96 165.354 70.228
4.97 163.370 70.368
4.98 163.272 70.379
4.99 163.037 70.189
5.00 161.217 69.597
5.01 160.458 68.449
5.02 162.695 66.813
5.03 165.016 64.787
5.04 162.960 62.039
5.05 156.826 58.264
5.06 --undefined-- 52.829
5.07 --undefined-- 44.883
5.08 --undefined-- 36.478
5.09 --undefined-- 37.639
5.10 --undefined-- 43.247
5.11 --undefined-- 52.642
5.12 196.690 61.030
5.13 195.213 66.389
5.14 192.276 69.373
5.15 189.798 70.540
5.16 187.672 70.710
5.17 186.365 70.711
5.18 183.704 71.103
5.19 181.767 71.662
5.20 182.027 71.738
5.21 181.176 71.217
5.22 178.551 70.538
5.23 176.694 70.135
5.24 174.461 70.194
5.25 173.103 70.358
5.26 169.146 70.635
5.27 165.906 71.168
5.28 163.776 71.032
5.29 162.947 69.941
5.30 162.582 68.493
5.31 162.228 66.869
5.32 165.659 64.891
5.33 168.575 62.723
5.34 167.395 59.928
5.35 166.553 55.714
5.36 --undefined-- 51.227
5.37 --undefined-- 48.677
5.38 --undefined-- 46.701
5.39 --undefined-- 45.031
5.40 --undefined-- 47.510
5.41 --undefined-- 52.605
5.42 169.073 57.505
5.43 154.399 61.619
5.44 152.590 64.396
5.45 154.748 66.188
5.46 158.751 67.665
5.47 162.596 68.449
5.48 81.352 67.953
5.49 81.434 67.201
5.50 98.367 67.201
5.51 82.780 67.497
5.52 85.898 68.017
5.53 180.354 68.586
5.54 177.958 68.707
5.55 178.728 68.516
5.56 181.975 68.255
5.57 185.463 68.003
5.58 186.853 68.075
5.59 187.259 68.358
5.60 189.215 68.348
5.61 190.375 68.057
5.62 190.718 67.666
5.63 191.353 67.412
5.64 192.681 67.432
5.65 195.265 67.383
5.66 197.899 67.292
5.67 200.244 67.407
5.68 200.574 67.409
5.69 200.485 66.985
5.70 199.768 66.243
5.71 198.988 65.256
5.72 198.554 64.010
5.73 195.957 62.682
5.74 188.450 61.522
5.75 186.301 60.198
5.76 --undefined-- 58.360
5.77 --undefined-- 55.854
5.78 --undefined-- 54.727
5.79 --undefined-- 57.002
5.80 --undefined-- 59.335
5.81 --undefined-- 60.884
5.82 --undefined-- 65.151
5.83 --undefined-- 68.969
5.84 --undefined-- 70.413
5.85 118.169 70.009
5.86 126.603 69.090
5.87 127.383 68.463
5.88 --undefined-- 67.790
5.89 --undefined-- 67.696
5.90 --undefined-- 67.562
5.91 148.307 66.053
5.92 150.025 62.822
5.93 153.814 57.708
5.94 --undefined-- 51.807
5.95 --undefined-- 45.880
5.96 --undefined-- 40.348
5.97 --undefined-- 34.289
5.98 --undefined-- 29.317
5.99 --undefined-- 28.639
6.00 --undefined-- 30.195
6.01 --undefined-- 34.084
6.02 --undefined-- 42.826
6.03 --undefined-- 53.370
6.04 --undefined-- 61.051
6.05 167.246 65.964
6.06 168.759 68.710
6.07 170.074 69.900
6.08 170.046 70.179
6.09 169.729 69.952
6.10 167.621 69.284
6.11 166.711 68.406
6.12 166.684 67.621
6.13 166.244 66.516
6.14 165.742 63.997
6.15 162.175 59.685
6.16 --undefined-- --undefined--
6.17 --undefined-- --undefined--
6.18 --undefined-- --undefined--
6.19 --undefined-- --undefined--
