Time Pitch Intensity
0.01 --undefined-- --undefined--
0.02 105.691 --undefined--
0.03 105.658 --undefined--
0.04 105.490 --undefined--
0.05 102.796 67.955
0.06 100.246 66.062
0.07 98.166 64.832
0.08 95.545 64.446
0.09 95.090 64.789
0.10 96.711 65.772
0.11 97.886 66.982
0.12 98.148 67.861
0.13 97.463 68.237
0.14 96.893 68.122
0.15 92.961 67.448
0.16 89.395 66.056
0.17 85.530 64.189
0.18 111.160 63.035
0.19 92.224 62.658
0.20 93.069 62.239
0.21 98.733 62.514
0.22 100.907 63.352
0.23 100.950 64.206
0.24 97.497 64.232
0.25 92.567 62.879
0.26 89.215 60.358
0.27 --undefined-- 56.568
0.28 --undefined-- 52.100
0.29 --undefined-- 53.671
0.30 --undefined-- 56.927
0.31 --undefined-- 59.197
0.32 --undefined-- 63.052
0.33 123.255 67.407
0.34 111.777 70.254
0.35 108.555 71.722
0.36 107.103 72.341
0.37 106.151 72.516
0.38 106.330 72.496
0.39 106.525 72.359
0.40 107.074 72.131
0.41 107.156 71.890
0.42 108.221 71.757
0.43 109.070 71.773
0.44 111.379 71.958
0.45 112.404 72.173
0.46 115.837 72.292
0.47 120.296 72.419
0.48 122.684 72.462
0.49 126.758 72.367
0.50 133.031 72.258
0.51 134.306 72.011
0.52 135.342 71.721
0.53 135.725 71.549
0.54 134.460 71.285
0.55 132.349 70.784
0.56 127.910 70.210
0.57 121.242 69.825
0.58 118.261 69.581
0.59 114.059 69.537
0.60 112.565 69.738
0.61 109.945 70.012
0.62 107.601 70.188
0.63 104.845 70.093
0.64 102.784 69.786
0.65 102.876 69.532
0.66 102.948 69.304
0.67 103.145 69.096
0.68 104.814 69.023
0.69 107.087 68.831
0.70 109.252 68.155
0.71 116.682 66.800
0.72 121.658 64.529
0.73 121.234 61.116
0.74 121.013 56.434
0.75 --undefined-- 50.508
0.76 --undefined-- 45.694
0.77 --undefined-- 45.130
0.78 --undefined-- 45.863
0.79 --undefined-- 46.738
0.80 --undefined-- 47.255
0.81 --undefined-- 47.498
0.82 --undefined-- 47.644
0.83 --undefined-- 47.297
0.84 --undefined-- 46.115
0.85 --undefined-- 44.569
0.86 --undefined-- 42.987
0.87 --undefined-- 41.509
0.88 --undefined-- 40.995
0.89 --undefined-- 40.349
0.90 --undefined-- 38.609
0.91 --undefined-- 36.262
0.92 --undefined-- 33.750
0.93 --undefined-- 33.378
0.94 --undefined-- 35.410
0.95 --undefined-- 36.431
0.96 --undefined-- 36.533
0.97 --undefined-- 36.612
0.98 --undefined-- 35.766
0.99 --undefined-- 35.977
1.00 --undefined-- 39.382
1.01 --undefined-- 47.685
1.02 --undefined-- 55.195
1.03 218.040 59.683
1.04 221.092 61.770
1.05 222.258 62.228
1.06 --undefined-- 66.455
1.07 --undefined-- 72.478
1.08 --undefined-- 75.201
1.09 --undefined-- 74.630
1.10 --undefined-- 71.518
1.11 --undefined-- 67.528
1.12 --undefined-- 65.713
1.13 --undefined-- 66.863
1.14 --undefined-- 69.016
1.15 140.780 71.829
1.16 141.750 73.612
1.17 142.255 73.861
1.18 139.785 73.357
1.19 136.361 73.151
1.20 133.218 73.352
1.21 129.422 73.018
1.22 132.778 72.069
1.23 134.824 71.776
1.24 130.921 72.010
1.25 139.254 71.782
1.26 139.913 71.260
1.27 141.275 71.098
1.28 142.137 71.370
1.29 143.029 72.189
1.30 143.817 73.384
1.31 145.497 74.444
1.32 146.977 75.083
1.33 148.296 75.137
1.34 147.986 75.336
1.35 148.885 76.341
1.36 149.743 77.098
1.37 149.765 77.050
1.38 149.828 76.481
1.39 148.994 75.775
1.40 148.349 75.301
1.41 147.932 75.108
1.42 147.594 74.897
1.43 146.749 74.612
1.44 146.931 74.533
1.45 148.190 74.219
1.46 149.448 72.617
1.47 149.953 69.552
1.48 149.756 65.877
1.49 145.334 62.828
1.50 146.871 62.169
1.51 152.257 65.015
1.52 168.755 69.660
1.53 178.189 73.450
1.54 184.768 75.406
1.55 187.930 75.342
1.56 191.164 73.325
1.57 192.991 69.536
1.58 194.430 65.270
1.59 201.590 63.776
1.60 205.478 64.420
1.61 207.886 65.467
1.62 208.099 67.721
1.63 205.814 71.261
1.64 204.062 74.626
1.65 200.743 76.816
1.66 198.236 77.244
1.67 194.723 76.317
1.68 180.223 75.028
1.69 178.052 74.065
1.70 169.392 73.341
1.71 --undefined-- 72.473
1.72 78.956 71.297
1.73 74.875 69.883
1.74 74.735 68.478
1.75 --undefined-- 66.725
1.76 135.435 64.493
1.77 130.606 62.356
1.78 131.211 61.193
1.79 131.216 61.315
1.80 130.697 62.817
1.81 --undefined-- 66.959
1.82 --undefined-- 70.632
1.83 --undefined-- 72.492
1.84 --undefined-- 73.146
1.85 106.524 73.019
1.86 106.073 72.486
1.87 107.353 71.758
1.88 108.946 70.046
1.89 --undefined-- 66.632
1.90 --undefined-- 62.538
1.91 127.081 61.811
1.92 132.575 62.956
1.93 136.996 63.513
1.94 142.412 63.759
1.95 150.224 64.291
1.96 160.035 65.223
1.97 166.253 66.282
1.98 171.829 67.483
1.99 175.134 68.489
2.00 178.230 68.771
2.01 179.330 68.158
2.02 175.530 66.541
2.03 172.948 63.836
2.04 --undefined-- 61.962
2.05 --undefined-- 65.365
2.06 --undefined-- 69.826
2.07 --undefined-- 71.630
2.08 --undefined-- 70.604
2.09 --undefined-- 69.891
2.10 162.078 72.303
2.11 153.381 74.206
2.12 145.415 74.576
2.13 132.918 74.361
2.14 129.612 74.763
2.15 129.541 75.206
2.16 130.550 75.268
2.17 131.627 75.210
2.18 132.952 75.078
2.19 134.698 74.941
2.20 137.170 74.751
2.21 139.187 74.318
2.22 142.238 73.692
2.23 144.760 73.224
2.24 147.299 73.293
2.25 149.450 73.526
2.26 151.041 73.310
2.27 151.235 72.213
2.28 150.194 69.469
2.29 --undefined-- 64.321
2.30 --undefined-- 57.115
2.31 --undefined-- 52.432
2.32 --undefined-- 50.938
2.33 --undefined-- 51.535
2.34 --undefined-- 54.820
2.35 --undefined-- 59.736
2.36 --undefined-- 65.965
2.37 --undefined-- 71.271
2.38 --undefined-- 73.982
2.39 --undefined-- 74.719
2.40 114.413 74.689
2.41 109.268 74.460
2.42 108.421 74.260
2.43 109.130 73.969
2.44 110.196 73.687
2.45 112.252 73.329
2.46 116.342 72.800
2.47 119.198 72.373
2.48 125.538 72.261
2.49 128.087 72.043
2.50 130.048 71.058
2.51 132.231 69.490
2.52 132.446 67.944
2.53 136.967 66.968
2.54 136.593 66.489
2.55 134.368 66.417
2.56 131.546 67.435
2.57 129.602 70.015
2.58 126.983 72.307
2.59 124.000 73.146
2.60 122.086 73.139
2.61 119.489 72.717
2.62 116.674 71.969
2.63 115.895 71.625
2.64 116.484 71.716
2.65 117.117 71.661
2.66 117.599 71.134
2.67 117.867 69.723
2.68 117.762 66.796
2.69 111.591 61.790
2.70 --undefined-- 55.807
2.71 --undefined-- 52.397
2.72 --undefined-- 50.587
2.73 --undefined-- 51.076
2.74 --undefined-- 52.415
2.75 --undefined-- 52.830
2.76 --undefined-- 53.800
2.77 --undefined-- 56.448
2.78 --undefined-- 58.922
2.79 --undefined-- 59.839
2.80 --undefined-- 60.786
2.81 --undefined-- 64.631
2.82 139.300 68.523
2.83 138.463 70.967
2.84 137.771 72.261
2.85 137.168 72.943
2.86 135.994 73.299
2.87 133.748 73.213
2.88 130.980 72.739
2.89 129.412 72.561
2.90 128.917 72.762
2.91 126.880 72.715
2.92 122.668 72.592
2.93 119.816 72.871
2.94 118.014 73.103
2.95 117.013 73.035
2.96 115.779 72.683
2.97 115.239 72.179
2.98 115.599 71.566
2.99 114.562 70.874
3.00 115.553 70.862
3.01 117.570 71.264
3.02 117.653 71.110
3.03 118.478 70.621
3.04 119.933 70.165
3.05 120.526 69.992
3.06 121.658 70.204
3.07 122.754 70.308
3.08 124.339 69.933
3.09 127.454 69.652
3.10 129.389 69.957
3.11 131.712 70.465
3.12 135.034 70.771
3.13 136.270 70.649
3.14 136.823 69.873
3.15 137.234 68.835
3.16 137.485 68.115
3.17 138.266 67.026
3.18 293.231 64.258
3.19 255.805 59.795
3.20 252.124 55.517
3.21 --undefined-- 53.088
3.22 --undefined-- 55.185
3.23 --undefined-- 59.246
3.24 --undefined-- 60.600
3.25 --undefined-- 60.839
3.26 --undefined-- 63.720
3.27 --undefined-- 67.029
3.28 126.588 69.297
3.29 118.103 70.428
3.30 109.510 70.817
3.31 101.980 71.195
3.32 96.365 71.783
3.33 94.261 71.893
3.34 92.975 71.013
3.35 92.507 69.743
3.36 --undefined-- 68.824
3.37 --undefined-- 68.112
3.38 --undefined-- 67.660
3.39 --undefined-- 67.242
3.40 91.373 66.650
3.41 95.344 65.740
3.42 91.075 64.453
3.43 93.797 62.957
3.44 90.602 61.943
3.45 97.611 63.226
3.46 94.474 66.159
3.47 96.615 68.960
3.48 --undefined-- 71.101
3.49 --undefined-- 72.403
3.50 --undefined-- 72.835
3.51 --undefined-- 72.668
3.52 --undefined-- 72.372
3.53 --undefined-- 71.932
3.54 96.101 71.441
3.55 95.994 71.200
3.56 94.382 70.828
3.57 95.751 70.195
3.58 95.523 69.811
3.59 100.610 69.313
3.60 102.622 68.199
3.61 103.227 65.850
3.62 --undefined-- 61.398
3.63 --undefined-- 54.479
3.64 --undefined-- 48.277
3.65 --undefined-- 49.015
3.66 --undefined-- 53.389
3.67 --undefined-- 58.147
3.68 --undefined-- 64.066
3.69 --undefined-- 68.599
3.70 100.743 71.284
3.71 102.372 72.736
3.72 91.277 72.893
3.73 91.567 72.278
3.74 99.707 72.129
3.75 106.239 72.409
3.76 107.235 72.245
3.77 110.244 71.527
3.78 117.004 71.079
3.79 117.764 70.850
3.80 119.975 69.865
3.81 120.259 67.389
3.82 118.459 62.798
3.83 --undefined-- 56.067
3.84 --undefined-- 51.405
3.85 --undefined-- 56.447
3.86 141.090 64.841
3.87 139.643 70.547
3.88 139.806 73.636
3.89 138.324 74.712
3.90 136.126 74.478
3.91 136.159 73.530
3.92 136.787 72.466
3.93 138.066 72.086
3.94 138.669 72.111
3.95 139.170 71.979
3.96 139.150 71.959
3.97 138.371 72.328
3.98 137.859 72.717
3.99 137.123 72.753
4.00 136.234 72.446
4.01 134.888 71.611
4.02 132.713 70.057
4.03 129.877 68.276
4.04 127.628 67.008
4.05 126.527 66.829
4.06 125.051 68.275
4.07 124.154 70.397
4.08 121.169 71.933
4.09 116.378 72.628
4.10 113.126 72.507
4.11 109.001 71.912
4.12 104.729 71.148
4.13 104.778 70.052
4.14 104.265 68.595
4.15 --undefined-- 66.471
4.16 --undefined-- 62.787
4.17 --undefined-- 57.247
4.18 --undefined-- 50.603
4.19 --undefined-- 47.329
4.20 --undefined-- 48.966
4.21 --undefined-- 53.925
4.22 --undefined-- 59.876
4.23 115.832 64.764
4.24 108.300 68.287
4.25 107.947 70.336
4.26 107.401 71.263
4.27 107.765 71.437
4.28 109.716 70.999
4.29 110.926 70.611
4.30 112.180 70.557
4.31 113.585 70.272
4.32 115.642 69.926
4.33 117.528 70.188
4.34 118.876 70.357
4.35 120.297 69.701
4.36 122.665 69.159
4.37 125.210 69.641
4.38 127.711 70.696
4.39 129.911 71.764
4.40 131.389 72.202
4.41 133.054 72.010
4.42 133.880 71.467
4.43 135.176 70.780
4.44 136.023 70.286
4.45 136.079 69.556
4.46 135.466 67.321
4.47 --undefined-- 62.596
4.48 --undefined-- 55.154
4.49 --undefined-- 50.609
4.50 --undefined-- 57.172
4.51 --undefined-- 61.776
4.52 --undefined-- 62.802
4.53 --undefined-- 63.212
4.54 --undefined-- 67.706
4.55 --undefined-- 71.512
4.56 139.371 73.457
4.57 138.641 74.051
4.58 136.480 73.680
4.59 135.498 72.927
4.60 135.495 72.354
4.61 135.638 71.835
4.62 136.536 71.379
4.63 138.024 71.826
4.64 138.249 72.942
4.65 138.402 73.379
4.66 138.118 72.926
4.67 137.656 72.234
4.68 137.711 71.867
4.69 137.556 71.666
4.70 136.470 70.810
4.71 136.497 68.794
4.72 137.702 66.294
4.73 139.183 65.267
4.74 139.560 64.941
4.75 137.740 63.452
4.76 135.894 60.161
4.77 --undefined-- 55.262
4.78 --undefined-- 50.276
4.79 --undefined-- 47.866
4.80 --undefined-- 54.142
4.81 --undefined-- 60.003
4.82 --undefined-- 61.675
4.83 --undefined-- 59.785
4.84 --undefined-- 56.581
4.85 157.024 57.707
4.86 146.022 62.346
4.87 138.544 66.345
4.88 136.993 69.171
4.89 135.630 70.967
4.90 135.112 71.580
4.91 128.405 71.633
4.92 128.032 71.685
4.93 127.582 71.515
4.94 127.037 70.983
4.95 127.050 70.401
4.96 127.149 69.687
4.97 126.870 67.982
4.98 125.934 64.503
4.99 116.217 59.756
5.00 115.989 60.297
5.01 117.404 64.640
5.02 117.295 67.738
5.03 116.037 69.409
5.04 115.897 --undefined--
5.05 111.769 --undefined--
5.06 --undefined-- --undefined--
5.07 --undefined-- --undefined--
