Time Pitch Intensity
0.01 --undefined-- --undefined--
0.02 122.470 --undefined--
0.03 125.151 --undefined--
0.04 129.995 --undefined--
0.05 132.699 70.185
0.06 134.084 69.612
0.07 138.653 69.702
0.08 139.578 69.989
0.09 139.242 69.782
0.10 141.755 68.740
0.11 144.790 66.853
0.12 146.362 63.908
0.13 149.330 59.126
0.14 --undefined-- 52.308
0.15 --undefined-- 46.263
0.16 --undefined-- 42.481
0.17 --undefined-- 40.025
0.18 --undefined-- 41.129
0.19 --undefined-- 42.272
0.20 --undefined-- 42.396
0.21 --undefined-- 42.505
0.22 --undefined-- 42.862
0.23 --undefined-- 43.092
0.24 --undefined-- 43.530
0.25 --undefined-- 43.926
0.26 --undefined-- 43.813
0.27 --undefined-- 43.459
0.28 --undefined-- 42.751
0.29 --undefined-- 41.270
0.30 --undefined-- 39.444
0.31 --undefined-- 38.802
0.32 --undefined-- 39.362
0.33 --undefined-- 39.222
0.34 --undefined-- 37.617
0.35 --undefined-- 35.016
0.36 --undefined-- 33.336
0.37 --undefined-- 35.638
0.38 --undefined-- 37.962
0.39 --undefined-- 42.874
0.40 --undefined-- 53.868
0.41 247.983 61.695
0.42 222.638 66.511
0.43 219.277 69.550
0.44 205.706 71.511
0.45 205.141 72.797
0.46 206.001 73.672
0.47 208.170 74.312
0.48 212.392 74.678
0.49 217.380 74.554
0.50 218.515 73.877
0.51 216.856 72.808
0.52 214.218 71.802
0.53 210.768 71.524
0.54 207.031 71.724
0.55 204.680 71.301
0.56 196.247 70.419
0.57 188.317 70.535
0.58 174.806 71.091
0.59 164.476 71.370
0.60 151.244 71.355
0.61 139.540 71.144
0.62 137.355 70.884
0.63 136.702 69.959
0.64 135.736 67.809
0.65 127.187 64.166
0.66 137.383 59.399
0.67 154.537 54.055
0.68 --undefined-- 48.796
0.69 --undefined-- 46.794
0.70 137.622 47.011
0.71 135.879 47.331
0.72 --undefined-- 52.566
0.73 --undefined-- 60.900
0.74 --undefined-- 66.240
0.75 166.264 68.651
0.76 155.394 69.285
0.77 148.167 69.255
0.78 134.910 69.033
0.79 128.163 68.882
0.80 121.847 68.603
0.81 118.695 68.174
0.82 115.935 67.664
0.83 113.470 67.137
0.84 111.908 66.526
0.85 110.764 65.726
0.86 109.628 65.093
0.87 110.946 65.499
0.88 118.557 66.377
0.89 120.244 66.397
0.90 120.562 65.099
0.91 121.282 62.443
0.92 124.008 58.239
0.93 125.807 52.292
0.94 --undefined-- 46.083
0.95 --undefined-- 44.862
0.96 --undefined-- 46.612
0.97 --undefined-- 55.202
0.98 --undefined-- 61.840
0.99 145.790 65.206
1.00 139.317 66.135
1.01 131.647 65.910
1.02 126.557 65.671
1.03 123.083 65.485
1.04 121.281 65.350
1.05 120.289 65.299
1.06 120.893 65.180
1.07 122.477 64.995
1.08 124.245 64.773
1.09 126.323 64.620
1.10 127.631 64.797
1.11 129.230 65.479
1.12 130.936 66.328
1.13 131.907 66.992
1.14 132.091 67.449
1.15 132.895 67.740
1.16 139.308 67.976
1.17 140.782 68.045
1.18 140.019 67.803
1.19 142.957 67.755
1.20 142.119 67.734
1.21 136.864 67.347
1.22 138.146 66.806
1.23 139.333 65.796
1.24 141.069 63.640
1.25 154.202 60.287
1.26 156.978 56.491
1.27 143.125 53.041
1.28 142.277 50.694
1.29 --undefined-- 48.781
1.30 --undefined-- 46.247
1.31 --undefined-- 50.919
1.32 --undefined-- 59.336
1.33 142.631 64.239
1.34 131.353 66.239
1.35 120.046 66.538
1.36 111.458 66.432
1.37 106.794 66.242
1.38 106.823 65.545
1.39 101.972 63.562
1.40 91.965 60.142
1.41 96.648 56.207
1.42 125.398 52.883
1.43 127.114 49.490
1.44 --undefined-- 44.579
1.45 --undefined-- 39.873
1.46 --undefined-- 39.607
1.47 --undefined-- 46.946
1.48 --undefined-- 56.289
1.49 --undefined-- 63.162
1.50 --undefined-- 67.256
1.51 116.241 68.962
1.52 113.823 69.318
1.53 109.982 69.217
1.54 108.064 68.986
1.55 106.044 68.791
1.56 103.354 68.555
1.57 101.456 68.388
1.58 100.216 68.400
1.59 99.876 68.399
1.60 100.449 68.110
1.61 104.822 67.540
1.62 110.579 67.047
1.63 114.872 66.728
1.64 116.349 66.408
1.65 120.094 66.155
1.66 125.177 66.141
1.67 128.160 66.392
1.68 128.647 66.719
1.69 124.171 66.849
1.70 116.658 66.749
1.71 111.805 66.463
1.72 109.163 65.991
1.73 106.696 65.447
1.74 104.701 65.048
1.75 102.135 64.811
1.76 98.935 64.481
1.77 99.420 64.116
1.78 100.054 64.049
1.79 100.522 64.102
1.80 101.698 64.050
1.81 101.398 64.075
1.82 101.895 64.343
1.83 101.944 64.683
1.84 99.046 65.005
1.85 97.358 65.156
1.86 96.611 65.090
1.87 96.269 64.838
1.88 95.830 64.576
1.89 95.927 64.320
1.90 95.321 63.686
1.91 93.387 62.029
1.92 87.942 58.941
1.93 --undefined-- 55.346
1.94 129.742 52.704
1.95 --undefined-- 49.729
1.96 --undefined-- 45.161
1.97 --undefined-- 41.610
1.98 --undefined-- 40.722
1.99 --undefined-- 40.080
2.00 --undefined-- 48.012
2.01 --undefined-- 56.821
2.02 --undefined-- 62.114
2.03 130.317 64.804
2.04 123.200 65.760
2.05 120.517 65.725
2.06 117.538 65.273
2.07 113.611 64.984
2.08 111.913 65.103
2.09 111.597 65.256
2.10 112.114 65.323
2.11 112.390 65.341
2.12 111.683 65.167
2.13 110.998 64.691
2.14 113.399 64.025
2.15 116.718 63.584
2.16 119.818 63.688
2.17 121.209 64.124
2.18 123.740 64.550
2.19 123.823 64.588
2.20 122.949 63.942
2.21 121.078 62.293
2.22 117.706 59.131
2.23 111.815 54.065
2.24 --undefined-- 48.153
2.25 --undefined-- 45.991
2.26 --undefined-- 47.344
2.27 --undefined-- 49.380
2.28 --undefined-- 52.413
2.29 --undefined-- 58.137
2.30 138.361 62.131
2.31 118.758 63.621
2.32 105.473 63.551
2.33 102.822 63.211
2.34 97.604 62.875
2.35 91.434 62.254
2.36 84.569 61.506
2.37 86.194 61.059
2.38 89.049 61.353
2.39 93.404 61.795
2.40 95.136 61.787
2.41 96.043 61.431
2.42 97.523 61.180
2.43 99.080 60.799
2.44 97.173 59.748
2.45 95.186 58.384
2.46 93.530 56.582
2.47 92.890 53.820
2.48 99.440 51.030
2.49 110.108 50.317
2.50 115.605 52.941
2.51 121.259 57.890
2.52 123.718 62.721
2.53 122.768 66.040
2.54 120.387 67.710
2.55 114.587 68.507
2.56 114.505 69.319
2.57 113.589 69.868
2.58 111.903 69.424
2.59 --undefined-- 68.139
2.60 --undefined-- 65.803
2.61 --undefined-- 61.253
2.62 --undefined-- 55.205
2.63 --undefined-- 50.304
2.64 --undefined-- 46.952
2.65 --undefined-- 43.948
2.66 --undefined-- 40.403
2.67 --undefined-- 39.823
2.68 --undefined-- 41.499
2.69 --undefined-- 43.170
2.70 --undefined-- 42.972
2.71 --undefined-- 41.431
2.72 --undefined-- 41.097
2.73 --undefined-- 40.273
2.74 --undefined-- 39.524
2.75 --undefined-- 40.308
2.76 --undefined-- 40.701
2.77 --undefined-- 40.047
2.78 --undefined-- 39.114
2.79 --undefined-- 39.346
2.80 --undefined-- 40.591
2.81 --undefined-- 41.724
2.82 --undefined-- 42.582
2.83 --undefined-- 45.245
2.84 --undefined-- 47.830
2.85 --undefined-- 47.772
2.86 --undefined-- 46.207
2.87 --undefined-- 44.785
2.88 --undefined-- 43.752
2.89 --undefined-- 43.450
2.90 --undefined-- 43.400
2.91 --undefined-- 43.279
2.92 --undefined-- 43.665
2.93 --undefined-- 43.626
2.94 --undefined-- 42.359
2.95 --undefined-- 40.390
2.96 --undefined-- 39.102
2.97 --undefined-- 39.505
2.98 --undefined-- 40.232
2.99 --undefined-- 40.194
3.00 --undefined-- 38.403
3.01 --undefined-- 34.458
3.02 --undefined-- 32.862
3.03 --undefined-- 36.355
3.04 --undefined-- 38.534
3.05 --undefined-- 39.288
3.06 --undefined-- 39.905
3.07 --undefined-- 42.925
3.08 --undefined-- 53.033
3.09 --undefined-- 60.455
3.10 --undefined-- 64.900
3.11 --undefined-- 67.435
3.12 --undefined-- 68.988
3.13 --undefined-- 69.788
3.14 --undefined-- 69.644
3.15 228.054 69.388
3.16 233.863 69.829
3.17 243.946 70.531
3.18 251.571 71.254
3.19 256.793 71.893
3.20 260.947 72.350
3.21 263.678 72.605
3.22 263.653 72.617
3.23 260.006 72.375
3.24 253.941 71.817
3.25 244.946 70.841
3.26 232.350 69.586
3.27 218.557 68.359
3.28 203.259 67.239
3.29 190.402 66.560
3.30 181.016 66.646
3.31 169.236 67.040
3.32 159.081 67.521
3.33 151.425 68.094
3.34 145.171 68.271
3.35 140.432 67.753
3.36 136.387 66.567
3.37 131.520 64.863
3.38 125.493 62.851
3.39 122.723 60.689
3.40 126.273 58.412
3.41 150.625 56.108
3.42 152.443 52.763
3.43 --undefined-- 47.512
3.44 --undefined-- 45.114
3.45 --undefined-- 47.673
3.46 --undefined-- 48.944
3.47 --undefined-- 49.911
3.48 --undefined-- 55.641
3.49 170.943 62.200
3.50 168.248 66.290
3.51 159.736 68.419
3.52 152.378 69.413
3.53 137.831 69.527
3.54 137.060 69.049
3.55 139.392 68.609
3.56 145.792 68.579
3.57 151.251 69.140
3.58 155.334 70.057
3.59 159.535 70.971
3.60 164.142 71.601
3.61 165.322 71.455
3.62 167.040 70.634
3.63 174.465 70.258
3.64 179.888 70.544
3.65 187.812 71.212
3.66 193.927 71.872
3.67 197.368 71.901
3.68 200.172 71.387
3.69 202.793 70.769
3.70 203.598 70.078
3.71 203.395 69.071
3.72 204.521 67.630
3.73 206.684 65.840
3.74 209.068 63.807
3.75 212.185 61.324
3.76 211.465 57.680
3.77 --undefined-- 51.984
3.78 --undefined-- 44.732
3.79 --undefined-- 40.740
3.80 --undefined-- 38.870
3.81 --undefined-- 36.703
3.82 --undefined-- 34.637
3.83 --undefined-- 34.061
3.84 --undefined-- 35.326
3.85 --undefined-- 36.930
3.86 --undefined-- 37.591
3.87 --undefined-- 36.769
3.88 --undefined-- 34.005
3.89 --undefined-- 30.476
3.90 --undefined-- 31.928
3.91 --undefined-- 35.447
3.92 --undefined-- 37.178
3.93 --undefined-- 37.374
3.94 --undefined-- 37.986
3.95 --undefined-- 39.750
3.96 --undefined-- 48.245
3.97 --undefined-- 58.210
3.98 167.325 64.253
3.99 161.817 67.447
4.00 154.955 68.912
4.01 143.202 69.661
4.02 134.676 70.579
4.03 131.291 71.424
4.04 130.603 71.825
4.05 130.315 71.704
4.06 130.402 71.094
4.07 132.368 70.709
4.08 134.226 70.713
4.09 135.546 70.654
4.10 135.732 70.484
4.11 134.919 70.231
4.12 134.059 69.932
4.13 132.534 69.704
4.14 130.821 69.658
4.15 128.099 69.859
4.16 121.239 70.183
4.17 115.679 70.070
4.18 110.150 69.217
4.19 103.744 68.178
4.20 97.072 67.486
4.21 95.714 66.923
4.22 95.865 66.261
4.23 96.948 65.676
4.24 97.695 65.220
4.25 98.064 64.970
4.26 98.869 64.939
4.27 100.548 64.986
4.28 102.421 64.616
4.29 104.883 63.673
4.30 105.753 62.505
4.31 104.825 60.860
4.32 104.313 58.140
4.33 109.190 54.107
4.34 105.195 50.196
4.35 --undefined-- 50.727
4.36 --undefined-- 54.328
4.37 160.533 60.390
4.38 155.984 65.309
4.39 148.400 68.031
4.40 141.517 69.084
4.41 135.593 69.383
4.42 128.375 69.323
4.43 114.972 68.691
4.44 109.962 67.916
4.45 107.417 67.601
4.46 106.498 67.546
4.47 107.699 67.621
4.48 109.958 67.608
4.49 112.238 67.130
4.50 112.845 65.816
4.51 112.975 63.484
4.52 112.064 59.965
4.53 121.537 54.972
4.54 --undefined-- 48.496
4.55 --undefined-- 42.870
4.56 --undefined-- 41.550
4.57 --undefined-- 42.050
4.58 --undefined-- 44.179
4.59 --undefined-- 46.070
4.60 --undefined-- 48.747
4.61 --undefined-- 55.646
4.62 --undefined-- 61.315
4.63 141.873 64.495
4.64 127.029 65.963
4.65 114.431 66.358
4.66 107.500 66.346
4.67 104.143 65.784
4.68 101.895 64.117
4.69 101.558 61.552
4.70 113.791 59.888
4.71 120.032 60.488
4.72 135.083 62.651
4.73 150.089 65.626
4.74 157.212 67.993
4.75 161.634 69.533
4.76 164.214 70.586
4.77 167.417 71.058
4.78 171.902 70.726
4.79 183.523 69.956
4.80 185.762 69.545
4.81 188.827 69.460
4.82 188.831 69.181
4.83 186.446 68.521
4.84 186.627 67.338
4.85 195.849 65.446
4.86 195.514 63.115
4.87 191.894 61.327
4.88 194.652 61.918
4.89 188.319 64.092
4.90 181.293 66.152
4.91 171.884 67.368
4.92 163.907 67.912
4.93 157.832 68.065
4.94 147.223 67.854
4.95 133.145 67.598
4.96 123.510 67.360
4.97 118.378 66.993
4.98 116.102 66.565
4.99 114.627 66.699
5.00 116.790 67.632
5.01 118.322 68.492
5.02 119.965 68.864
5.03 122.706 68.943
5.04 126.149 68.994
5.05 129.252 68.998
5.06 129.685 68.557
5.07 129.760 67.228
5.08 127.952 64.800
5.09 126.683 61.252
5.10 130.807 56.416
5.11 124.803 51.275
5.12 125.150 48.215
5.13 --undefined-- 47.346
5.14 --undefined-- 47.695
5.15 --undefined-- 48.104
5.16 --undefined-- 47.333
5.17 --undefined-- 44.653
5.18 --undefined-- 42.313
5.19 --undefined-- 49.417
5.20 --undefined-- 56.015
5.21 128.665 59.904
5.22 125.063 62.179
5.23 125.220 63.594
5.24 124.709 64.511
5.25 124.944 65.259
5.26 124.273 66.174
5.27 121.946 67.185
5.28 121.996 67.950
5.29 125.090 68.423
5.30 128.569 68.665
5.31 131.491 68.646
5.32 134.695 68.695
5.33 140.087 69.148
5.34 145.584 69.867
5.35 152.739 70.586
5.36 155.834 70.883
5.37 159.738 70.800
5.38 160.799 70.719
5.39 160.381 70.649
5.40 160.387 70.319
5.41 160.177 69.868
5.42 158.259 69.451
5.43 158.042 69.009
5.44 157.657 68.221
5.45 152.489 66.388
5.46 149.446 63.121
5.47 84.253 58.935
5.48 89.308 54.787
5.49 90.655 51.116
5.50 --undefined-- 47.629
5.51 --undefined-- 43.831
5.52 --undefined-- 44.312
5.53 --undefined-- 54.219
5.54 --undefined-- 62.379
5.55 161.146 67.005
5.56 148.703 69.202
5.57 137.373 69.822
5.58 130.335 69.517
5.59 126.626 68.666
5.60 124.709 68.314
5.61 105.458 68.935
5.62 102.875 69.482
5.63 101.078 69.565
5.64 101.028 69.331
5.65 101.756 69.180
5.66 101.549 69.237
5.67 101.899 69.076
5.68 103.221 68.596
5.69 104.969 68.258
5.70 106.512 68.276
5.71 108.512 68.319
5.72 110.608 68.228
5.73 112.147 68.056
5.74 113.306 67.838
5.75 113.180 67.687
5.76 112.252 67.603
5.77 109.892 67.358
5.78 105.841 --undefined--
5.79 100.094 --undefined--
5.80 --undefined-- --undefined--
5.81 --undefined-- --undefined--
