Time Pitch Intensity
0.01 --undefined-- --undefined--
0.02 122.799 --undefined--
0.03 122.258 --undefined--
0.04 120.457 --undefined--
0.05 116.557 71.823
0.06 --undefined-- 68.358
0.07 --undefined-- 62.909
0.08 --undefined-- 55.495
0.09 --undefined-- 47.949
0.10 --undefined-- 42.309
0.11 --undefined-- 38.970
0.12 --undefined-- 38.543
0.13 --undefined-- 37.948
0.14 --undefined-- 42.439
0.15 --undefined-- 50.721
0.16 --undefined-- 59.103
0.17 147.752 65.856
0.18 136.196 69.700
0.19 126.750 71.359
0.20 120.651 72.101
0.21 119.810 72.444
0.22 119.015 72.393
0.23 119.244 72.254
0.24 118.624 72.378
0.25 117.536 72.743
0.26 117.211 72.856
0.27 116.453 71.998
0.28 112.545 70.251
0.29 116.630 69.759
0.30 116.444 70.756
0.31 114.249 71.526
0.32 114.978 71.845
0.33 114.094 71.887
0.34 111.360 71.640
0.35 108.119 70.788
0.36 106.684 69.608
0.37 106.176 68.596
0.38 106.174 67.832
0.39 107.287 67.289
0.40 107.584 66.850
0.41 106.727 66.286
0.42 105.224 65.370
0.43 104.691 64.235
0.44 104.744 63.233
0.45 102.879 62.307
0.46 102.292 61.551
0.47 104.953 61.375
0.48 106.750 61.469
0.49 107.443 61.390
0.50 109.772 60.974
0.51 112.049 60.079
0.52 106.807 58.688
0.53 --undefined-- 56.650
0.54 --undefined-- 52.848
0.55 --undefined-- 46.358
0.56 --undefined-- 39.801
0.57 --undefined-- 37.735
0.58 --undefined-- 38.340
0.59 --undefined-- 39.639
0.60 --undefined-- 39.809
0.61 --undefined-- 39.498
0.62 --undefined-- 39.437
0.63 --undefined-- 39.781
0.64 --undefined-- 39.827
0.65 --undefined-- 39.109
0.66 --undefined-- 39.246
0.67 --undefined-- 39.167
0.68 --undefined-- 38.000
0.69 --undefined-- 36.927
0.70 --undefined-- 36.180
0.71 --undefined-- 36.589
0.72 --undefined-- 38.520
0.73 --undefined-- 39.707
0.74 --undefined-- 39.290
0.75 --undefined-- 39.241
0.76 --undefined-- 40.737
0.77 --undefined-- 41.675
0.78 --undefined-- 41.501
0.79 --undefined-- 41.486
0.80 --undefined-- 41.558
0.81 --undefined-- 41.259
0.82 --undefined-- 40.777
0.83 --undefined-- 40.180
0.84 --undefined-- 39.607
0.85 --undefined-- 39.513
0.86 --undefined-- 39.538
0.87 --undefined-- 38.754
0.88 --undefined-- 37.585
0.89 --undefined-- 37.441
0.90 --undefined-- 38.556
0.91 --undefined-- 39.224
0.92 --undefined-- 38.685
0.93 --undefined-- 38.280
0.94 --undefined-- 39.574
0.95 --undefined-- 40.529
0.96 --undefined-- 42.975
0.97 --undefined-- 46.017
0.98 --undefined-- 46.012
0.99 --undefined-- 43.089
1.00 --undefined-- 39.618
1.01 --undefined-- 38.218
1.02 --undefined-- 41.493
1.03 --undefined-- 51.867
1.04 --undefined-- 59.383
1.05 --undefined-- 62.996
1.06 --undefined-- 63.403
1.07 --undefined-- 62.077
1.08 --undefined-- 61.223
1.09 --undefined-- 60.864
1.10 --undefined-- 62.796
1.11 194.096 68.994
1.12 187.857 74.320
1.13 175.100 77.569
1.14 174.688 79.207
1.15 176.592 79.941
1.16 179.404 80.280
1.17 181.818 80.461
1.18 184.239 80.650
1.19 185.947 80.874
1.20 186.626 80.717
1.21 185.920 79.291
1.22 184.747 75.980
1.23 181.802 71.860
1.24 182.479 69.841
1.25 184.628 69.219
1.26 185.580 68.887
1.27 185.234 68.559
1.28 179.725 67.545
1.29 169.776 65.287
1.30 159.075 61.447
1.31 --undefined-- 55.917
1.32 --undefined-- 54.722
1.33 --undefined-- 60.094
1.34 --undefined-- 64.139
1.35 141.859 68.059
1.36 136.450 70.903
1.37 132.563 72.115
1.38 134.846 72.837
1.39 135.808 73.909
1.40 132.240 74.908
1.41 129.334 75.592
1.42 127.700 76.053
1.43 126.041 76.401
1.44 124.802 76.941
1.45 126.688 77.741
1.46 129.325 78.140
1.47 132.965 77.810
1.48 139.049 77.805
1.49 145.507 78.719
1.50 152.396 79.293
1.51 161.872 79.185
1.52 172.818 79.461
1.53 184.020 80.578
1.54 194.684 81.661
1.55 202.216 81.861
1.56 211.163 80.926
1.57 217.964 79.152
1.58 214.084 77.277
1.59 200.895 75.727
1.60 187.649 73.679
1.61 185.215 69.985
1.62 189.942 64.315
1.63 --undefined-- 56.837
1.64 --undefined-- 47.880
1.65 --undefined-- 42.053
1.66 --undefined-- 39.333
1.67 --undefined-- 37.588
1.68 --undefined-- 36.323
1.69 --undefined-- 36.166
1.70 --undefined-- 37.687
1.71 --undefined-- 38.521
1.72 --undefined-- 38.366
1.73 --undefined-- 37.799
1.74 --undefined-- 37.184
1.75 --undefined-- 36.719
1.76 --undefined-- 34.937
1.77 --undefined-- 32.081
1.78 --undefined-- 31.206
1.79 --undefined-- 32.624
1.80 --undefined-- 34.775
1.81 --undefined-- 37.204
1.82 --undefined-- 40.219
1.83 --undefined-- 48.256
1.84 --undefined-- 56.951
1.85 --undefined-- 61.957
1.86 127.408 64.565
1.87 127.598 66.869
1.88 131.017 69.951
1.89 135.908 72.881
1.90 138.259 75.063
1.91 140.323 76.756
1.92 138.243 77.550
1.93 133.011 77.681
1.94 131.588 78.230
1.95 130.167 78.641
1.96 128.735 78.119
1.97 127.593 76.706
1.98 127.181 74.866
1.99 129.100 73.295
2.00 133.143 72.547
2.01 134.522 72.355
2.02 135.513 72.280
2.03 135.761 72.151
2.04 135.957 71.962
2.05 136.703 71.789
2.06 137.327 72.038
2.07 139.524 73.317
2.08 137.580 74.548
2.09 135.982 74.321
2.10 128.836 72.747
2.11 128.046 70.933
2.12 116.528 68.950
2.13 116.770 66.313
2.14 107.679 64.211
2.15 112.083 66.409
2.16 125.497 70.155
2.17 133.140 72.832
2.18 141.599 74.892
2.19 142.434 76.651
2.20 139.274 77.981
2.21 137.796 78.892
2.22 137.836 79.487
2.23 140.279 79.606
2.24 144.818 79.500
2.25 148.472 79.916
2.26 153.505 80.291
2.27 163.907 80.089
2.28 177.251 80.492
2.29 183.094 81.165
2.30 188.714 80.440
2.31 202.909 78.112
2.32 207.407 75.201
2.33 205.265 71.772
2.34 187.874 66.746
2.35 194.918 60.313
2.36 --undefined-- 53.424
2.37 --undefined-- 46.369
2.38 --undefined-- 48.897
2.39 --undefined-- 60.944
2.40 --undefined-- 69.947
2.41 --undefined-- 75.257
2.42 160.882 77.582
2.43 153.501 77.787
2.44 149.585 77.289
2.45 150.522 77.430
2.46 153.722 77.873
2.47 157.270 77.520
2.48 169.015 76.530
2.49 176.458 76.492
2.50 180.347 77.103
2.51 184.392 76.884
2.52 191.587 75.347
2.53 199.877 73.009
2.54 199.451 70.335
2.55 190.697 66.315
2.56 180.936 60.070
2.57 --undefined-- 52.000
2.58 --undefined-- 43.793
2.59 --undefined-- 43.477
2.60 --undefined-- 54.810
2.61 --undefined-- 64.617
2.62 --undefined-- 70.741
2.63 --undefined-- 73.784
2.64 132.778 74.387
2.65 115.249 73.019
2.66 110.605 70.636
2.67 111.743 69.332
2.68 112.400 69.669
2.69 112.802 70.693
2.70 114.896 71.822
2.71 117.546 72.654
2.72 119.798 72.939
2.73 119.708 72.972
2.74 121.043 72.884
2.75 126.087 72.101
2.76 125.553 69.682
2.77 117.574 64.863
2.78 116.608 57.869
2.79 --undefined-- 53.389
2.80 --undefined-- 56.200
2.81 --undefined-- 59.575
2.82 --undefined-- 64.510
2.83 184.058 69.408
2.84 168.348 71.975
2.85 166.317 72.664
2.86 166.115 72.378
2.87 167.085 72.089
2.88 168.779 72.160
2.89 169.630 72.170
2.90 169.921 72.129
2.91 171.262 72.593
2.92 172.825 73.228
2.93 170.629 72.544
2.94 165.166 69.805
2.95 154.240 65.242
2.96 155.374 59.577
2.97 --undefined-- 53.200
2.98 --undefined-- 47.875
2.99 --undefined-- 45.770
3.00 --undefined-- 45.354
3.01 --undefined-- 53.174
3.02 --undefined-- 63.936
3.03 193.011 71.163
3.04 180.062 75.371
3.05 172.641 77.311
3.06 169.115 77.780
3.07 166.960 77.618
3.08 166.250 77.448
3.09 166.318 77.452
3.10 167.135 77.573
3.11 168.141 77.739
3.12 169.428 77.837
3.13 170.050 77.783
3.14 170.460 77.568
3.15 170.768 77.198
3.16 170.476 76.602
3.17 168.558 75.504
3.18 164.814 73.385
3.19 159.381 69.687
3.20 147.268 64.450
3.21 --undefined-- 59.200
3.22 --undefined-- 54.944
3.23 --undefined-- 49.775
3.24 --undefined-- 42.385
3.25 --undefined-- 38.703
3.26 --undefined-- 39.152
3.27 --undefined-- 38.567
3.28 --undefined-- 38.856
3.29 --undefined-- 40.708
3.30 --undefined-- 41.927
3.31 --undefined-- 41.716
3.32 --undefined-- 40.944
3.33 --undefined-- 41.460
3.34 --undefined-- 42.367
3.35 --undefined-- 42.024
3.36 --undefined-- 41.127
3.37 --undefined-- 40.948
3.38 --undefined-- 41.341
3.39 --undefined-- 41.391
3.40 --undefined-- 41.055
3.41 --undefined-- 40.317
3.42 --undefined-- 40.640
3.43 --undefined-- 41.992
3.44 --undefined-- 42.448
3.45 --undefined-- 41.599
3.46 --undefined-- 40.503
3.47 --undefined-- 39.398
3.48 --undefined-- 38.641
3.49 --undefined-- 38.278
3.50 --undefined-- 37.044
3.51 --undefined-- 36.122
3.52 --undefined-- 37.571
3.53 --undefined-- 40.928
3.54 --undefined-- 43.965
3.55 --undefined-- 46.552
3.56 --undefined-- 48.844
3.57 --undefined-- 50.816
3.58 --undefined-- 53.762
3.59 --undefined-- 61.113
3.60 151.760 67.713
3.61 149.163 71.724
3.62 128.589 73.874
3.63 129.093 75.037
3.64 130.835 75.748
3.65 132.996 76.343
3.66 135.996 76.911
3.67 140.111 77.207
3.68 149.342 77.570
3.69 154.942 77.856
3.70 162.573 77.387
3.71 169.683 76.683
3.72 176.394 76.455
3.73 181.456 76.394
3.74 185.619 75.892
3.75 186.577 74.765
3.76 185.462 73.346
3.77 184.950 71.977
3.78 183.592 70.546
3.79 180.758 68.528
3.80 176.013 65.120
3.81 181.353 59.604
3.82 --undefined-- 52.966
3.83 --undefined-- 49.833
3.84 --undefined-- 49.492
3.85 --undefined-- 50.776
3.86 --undefined-- 53.322
3.87 --undefined-- 55.853
3.88 --undefined-- 58.136
3.89 --undefined-- 64.192
3.90 --undefined-- 70.411
3.91 --undefined-- 73.966
3.92 --undefined-- 75.387
3.93 --undefined-- 75.101
3.94 --undefined-- 72.959
3.95 101.369 69.778
3.96 90.277 67.423
3.97 --undefined-- 64.201
3.98 --undefined-- 58.740
3.99 --undefined-- 57.252
4.00 --undefined-- 57.486
4.01 --undefined-- 55.810
4.02 --undefined-- 53.487
4.03 --undefined-- 52.943
4.04 --undefined-- 54.676
4.05 --undefined-- 56.662
4.06 --undefined-- 58.481
4.07 --undefined-- 62.706
4.08 148.392 67.301
4.09 148.541 70.254
4.10 129.693 72.031
4.11 125.828 73.504
4.12 124.506 74.769
4.13 123.305 75.680
4.14 122.891 76.126
4.15 123.310 76.063
4.16 123.499 75.849
4.17 121.652 75.654
4.18 120.731 75.389
4.19 121.687 75.109
4.20 121.910 74.801
4.21 121.823 74.027
4.22 125.056 72.756
4.23 124.760 70.742
4.24 114.127 66.917
4.25 115.588 61.016
4.26 --undefined-- 53.938
4.27 --undefined-- 48.429
4.28 --undefined-- 49.950
4.29 --undefined-- 51.660
4.30 --undefined-- 55.386
4.31 --undefined-- 63.695
4.32 172.861 69.895
4.33 151.393 73.486
4.34 145.441 75.297
4.35 141.671 75.884
4.36 138.103 75.573
4.37 135.226 74.660
4.38 133.383 73.082
4.39 131.869 70.895
4.40 129.189 68.233
4.41 127.138 64.339
4.42 --undefined-- 58.366
4.43 --undefined-- 49.414
4.44 --undefined-- 41.348
4.45 --undefined-- 40.026
4.46 --undefined-- 39.258
4.47 --undefined-- 38.918
4.48 --undefined-- 41.171
4.49 --undefined-- 46.515
4.50 --undefined-- 52.858
4.51 --undefined-- 61.807
4.52 --undefined-- 68.577
4.53 159.697 72.386
4.54 143.614 74.366
4.55 136.107 75.576
4.56 134.006 76.447
4.57 133.066 76.684
4.58 130.657 76.150
4.59 127.651 75.272
4.60 125.737 74.632
4.61 124.256 74.440
4.62 123.784 74.370
4.63 124.308 74.274
4.64 125.507 74.170
4.65 128.136 73.808
4.66 128.687 72.664
4.67 125.079 70.623
4.68 126.007 69.168
4.69 131.107 69.468
4.70 133.593 69.967
4.71 133.342 69.912
4.72 131.725 69.271
4.73 129.021 67.902
4.74 124.948 65.430
4.75 121.499 61.638
4.76 117.743 56.754
4.77 --undefined-- 51.932
4.78 --undefined-- 52.709
4.79 --undefined-- 61.478
4.80 162.487 68.364
4.81 152.383 72.476
4.82 136.747 74.444
4.83 128.962 75.201
4.84 123.632 75.364
4.85 120.216 75.516
4.86 119.649 75.908
4.87 118.954 76.261
4.88 118.354 76.333
4.89 118.994 76.215
4.90 119.540 76.195
4.91 119.376 76.316
4.92 119.338 76.400
4.93 120.029 76.359
4.94 120.401 76.229
4.95 120.053 76.100
4.96 120.009 76.007
4.97 119.630 75.805
4.98 119.096 75.264
4.99 117.626 74.031
5.00 115.185 71.505
5.01 --undefined-- 67.567
5.02 --undefined-- 63.971
5.03 --undefined-- 61.184
5.04 --undefined-- 56.533
5.05 --undefined-- 49.622
5.06 --undefined-- 41.662
5.07 --undefined-- 37.724
5.08 --undefined-- 38.559
5.09 --undefined-- 39.058
5.10 --undefined-- 38.021
5.11 --undefined-- 35.934
5.12 --undefined-- 35.327
5.13 --undefined-- 36.346
5.14 --undefined-- 36.613
5.15 --undefined-- 35.617
5.16 --undefined-- 34.659
5.17 --undefined-- 35.340
5.18 --undefined-- 36.829
5.19 --undefined-- 37.079
5.20 --undefined-- 36.008
5.21 --undefined-- 34.559
5.22 --undefined-- 33.344
5.23 --undefined-- 33.680
5.24 --undefined-- 34.960
5.25 --undefined-- 36.954
5.26 --undefined-- 38.036
5.27 --undefined-- 37.780
5.28 --undefined-- 37.798
5.29 --undefined-- 37.148
5.30 --undefined-- 36.105
5.31 --undefined-- 36.039
5.32 --undefined-- 35.656
5.33 --undefined-- 35.161
5.34 --undefined-- 37.025
5.35 --undefined-- 38.432
5.36 --undefined-- 38.670
5.37 --undefined-- 50.480
5.38 --undefined-- 62.292
5.39 --undefined-- 69.958
5.40 147.462 74.216
5.41 146.688 76.148
5.42 147.176 76.586
5.43 151.262 76.198
5.44 157.064 75.416
5.45 163.434 74.254
5.46 163.853 72.491
5.47 174.609 70.655
5.48 178.811 69.499
5.49 178.748 68.465
5.50 172.975 66.701
5.51 162.541 64.322
5.52 150.273 66.517
5.53 186.248 72.784
5.54 180.009 76.446
5.55 166.622 77.781
5.56 158.210 78.104
5.57 152.843 78.003
5.58 149.333 77.153
5.59 146.808 74.883
5.60 140.796 70.344
5.61 120.281 63.794
5.62 118.935 58.699
5.63 126.700 57.073
5.64 160.556 61.968
5.65 171.869 69.219
5.66 172.143 74.087
5.67 172.000 76.503
5.68 168.495 77.027
5.69 165.579 76.285
5.70 163.387 74.520
5.71 155.329 70.957
5.72 135.667 64.852
5.73 --undefined-- 57.196
5.74 --undefined-- 50.476
5.75 --undefined-- 46.550
5.76 --undefined-- 57.414
5.77 --undefined-- 67.502
5.78 --undefined-- 73.736
5.79 --undefined-- 76.911
5.80 164.288 77.574
5.81 163.327 76.185
5.82 160.830 73.566
5.83 151.968 70.803
5.84 151.332 67.943
5.85 147.608 64.626
5.86 150.518 61.837
5.87 149.125 60.829
5.88 143.449 61.882
5.89 139.204 64.559
5.90 137.377 67.634
5.91 135.014 70.009
5.92 131.085 71.391
5.93 126.911 71.472
5.94 121.021 69.343
5.95 103.316 64.493
5.96 --undefined-- 57.904
5.97 --undefined-- 53.274
5.98 --undefined-- 54.184
5.99 --undefined-- 55.689
6.00 --undefined-- 55.033
6.01 --undefined-- 51.535
6.02 --undefined-- 46.032
6.03 --undefined-- 44.962
6.04 --undefined-- 48.426
6.05 --undefined-- 57.632
6.06 --undefined-- 66.732
6.07 178.575 72.317
6.08 158.136 75.067
6.09 156.595 76.082
6.10 157.507 76.440
6.11 159.498 76.574
6.12 160.135 76.280
6.13 159.329 75.214
6.14 157.734 73.415
6.15 156.814 71.826
6.16 158.785 71.057
6.17 160.439 70.549
6.18 163.529 69.974
6.19 168.195 69.360
6.20 171.978 68.584
6.21 172.986 67.547
6.22 171.044 65.999
6.23 163.586 63.465
6.24 157.949 59.493
6.25 --undefined-- 54.489
6.26 --undefined-- 49.289
6.27 --undefined-- 43.086
6.28 --undefined-- 38.438
6.29 --undefined-- 36.735
6.30 --undefined-- 35.684
6.31 --undefined-- 35.642
6.32 --undefined-- 37.029
6.33 --undefined-- 36.937
6.34 --undefined-- 35.717
6.35 --undefined-- 35.669
6.36 --undefined-- 35.439
6.37 --undefined-- 35.121
6.38 --undefined-- 35.291
6.39 --undefined-- 34.432
6.40 --undefined-- 33.486
6.41 --undefined-- 34.705
6.42 --undefined-- 37.365
6.43 --undefined-- 38.591
6.44 --undefined-- 38.409
6.45 --undefined-- 39.289
6.46 --undefined-- 47.374
6.47 --undefined-- 55.071
6.48 138.666 --undefined--
6.49 120.749 --undefined--
6.50 --undefined-- --undefined--
6.51 --undefined-- --undefined--
