Time Pitch Intensity
0.01 --undefined-- --undefined--
0.02 191.112 --undefined--
0.03 189.680 --undefined--
0.04 174.459 --undefined--
0.05 163.032 65.246
0.06 157.831 65.657
0.07 155.830 66.183
0.08 155.027 66.926
0.09 156.328 67.830
0.10 159.546 68.505
0.11 162.453 68.669
0.12 167.683 69.005
0.13 173.743 70.152
0.14 181.646 71.070
0.15 189.883 70.966
0.16 198.944 70.405
0.17 206.404 70.721
0.18 210.796 71.360
0.19 216.103 70.960
0.20 223.405 68.988
0.21 227.356 65.475
0.22 222.669 60.523
0.23 211.436 54.646
0.24 --undefined-- 49.307
0.25 --undefined-- 46.048
0.26 --undefined-- 46.577
0.27 --undefined-- 47.854
0.28 --undefined-- 49.115
0.29 --undefined-- 50.466
0.30 --undefined-- 50.181
0.31 --undefined-- 47.646
0.32 --undefined-- 46.143
0.33 --undefined-- 47.194
0.34 --undefined-- 47.051
0.35 --undefined-- 45.495
0.36 --undefined-- 44.987
0.37 --undefined-- 46.641
0.38 --undefined-- 47.459
0.39 --undefined-- 46.981
0.40 --undefined-- 46.469
0.41 --undefined-- 46.191
0.42 --undefined-- 46.170
0.43 --undefined-- 45.915
0.44 --undefined-- 44.312
0.45 --undefined-- 43.692
0.46 --undefined-- 45.820
0.47 --undefined-- 47.724
0.48 --undefined-- 47.930
0.49 --undefined-- 47.335
0.50 --undefined-- 47.170
0.51 --undefined-- 48.507
0.52 --undefined-- 50.275
0.53 --undefined-- 50.897
0.54 --undefined-- 50.056
0.55 --undefined-- 52.397
0.56 286.405 60.731
0.57 250.477 66.850
0.58 247.506 70.565
0.59 248.130 72.789
0.60 248.194 73.922
0.61 248.018 74.144
0.62 247.755 73.739
0.63 247.301 72.988
0.64 248.631 72.181
0.65 252.608 71.490
0.66 256.179 70.883
0.67 257.403 70.105
0.68 256.332 68.903
0.69 253.192 67.034
0.70 249.608 64.514
0.71 243.879 61.946
0.72 --undefined-- 60.071
0.73 --undefined-- 59.012
0.74 --undefined-- 58.926
0.75 --undefined-- 59.963
0.76 230.017 61.798
0.77 265.285 64.489
0.78 268.075 66.782
0.79 249.288 67.954
0.80 234.849 68.321
0.81 230.697 67.969
0.82 228.099 67.499
0.83 226.028 67.779
0.84 225.260 67.771
0.85 235.220 66.789
0.86 234.603 65.693
0.87 234.116 65.179
0.88 235.071 65.368
0.89 236.272 66.005
0.90 236.650 66.133
0.91 236.334 65.434
0.92 241.260 65.113
0.93 241.336 65.285
0.94 241.531 65.579
0.95 242.052 65.950
0.96 242.149 65.559
0.97 240.952 64.886
0.98 239.784 64.780
0.99 238.612 65.009
1.00 234.405 65.473
1.01 230.586 66.053
1.02 227.376 66.501
1.03 224.367 66.795
1.04 223.666 66.861
1.05 222.957 66.542
1.06 222.363 66.105
1.07 222.312 65.863
1.08 223.503 65.729
1.09 224.775 65.828
1.10 223.823 66.151
1.11 222.453 65.909
1.12 222.188 64.317
1.13 232.717 61.043
1.14 226.703 56.119
1.15 224.787 52.119
1.16 --undefined-- 52.388
1.17 --undefined-- 52.266
1.18 --undefined-- 50.152
1.19 --undefined-- 46.486
1.20 --undefined-- 45.446
1.21 --undefined-- 45.877
1.22 --undefined-- 46.696
1.23 --undefined-- 52.130
1.24 --undefined-- 55.833
1.25 --undefined-- 56.111
1.26 --undefined-- 54.337
1.27 --undefined-- 56.074
1.28 --undefined-- 62.741
1.29 --undefined-- 67.580
1.30 --undefined-- 69.336
1.31 165.783 69.978
1.32 163.041 71.089
1.33 161.677 70.934
1.34 160.969 69.695
1.35 161.475 68.866
1.36 162.727 68.342
1.37 165.601 67.724
1.38 167.822 67.327
1.39 168.499 67.226
1.40 169.287 67.277
1.41 169.826 67.381
1.42 169.904 67.543
1.43 169.458 67.783
1.44 169.127 67.873
1.45 169.171 67.728
1.46 168.818 67.467
1.47 168.165 67.215
1.48 166.084 67.073
1.49 162.799 66.504
1.50 158.955 64.213
1.51 151.390 59.551
1.52 162.780 54.256
1.53 167.718 51.149
1.54 --undefined-- 52.088
1.55 --undefined-- 58.458
1.56 228.797 62.694
1.57 214.981 64.733
1.58 201.936 65.763
1.59 193.673 66.184
1.60 188.406 65.897
1.61 183.169 64.857
1.62 177.102 63.261
1.63 172.147 61.578
1.64 168.537 60.774
1.65 167.979 60.633
1.66 172.566 60.319
1.67 176.164 59.895
1.68 175.449 59.643
1.69 175.166 59.939
1.70 176.242 60.452
1.71 178.442 60.686
1.72 179.619 60.146
1.73 177.499 58.256
1.74 172.668 54.697
1.75 --undefined-- 50.362
1.76 --undefined-- 52.095
1.77 --undefined-- 58.595
1.78 --undefined-- 62.620
1.79 184.785 64.258
1.80 179.260 64.977
1.81 175.148 65.568
1.82 172.730 65.599
1.83 172.400 65.194
1.84 173.663 65.097
1.85 174.833 65.265
1.86 174.775 65.155
1.87 175.627 64.630
1.88 175.919 63.664
1.89 174.969 61.810
1.90 174.896 58.808
1.91 176.242 54.937
1.92 --undefined-- 51.040
1.93 --undefined-- 48.247
1.94 --undefined-- 49.753
1.95 --undefined-- 55.375
1.96 217.117 59.988
1.97 205.861 62.878
1.98 198.482 64.562
1.99 196.571 65.381
2.00 195.901 65.494
2.01 194.975 64.815
2.02 193.318 63.156
2.03 190.489 61.054
2.04 189.618 59.504
2.05 205.973 58.906
2.06 206.430 58.810
2.07 203.014 58.929
2.08 197.569 59.671
2.09 190.473 60.330
2.10 178.332 60.656
2.11 171.727 60.516
2.12 164.941 59.813
2.13 157.449 58.854
2.14 152.744 57.904
2.15 150.133 57.275
2.16 151.620 57.521
2.17 152.880 58.072
2.18 154.078 58.653
2.19 157.019 59.733
2.20 158.056 60.142
2.21 157.886 59.034
2.22 153.427 56.492
2.23 146.445 52.839
2.24 --undefined-- 49.329
2.25 --undefined-- 52.097
2.26 --undefined-- 58.743
2.27 171.534 63.083
2.28 171.662 65.068
2.29 170.209 65.394
2.30 169.356 64.910
2.31 169.476 64.093
2.32 170.508 63.107
2.33 171.661 62.311
2.34 173.249 61.821
2.35 175.966 61.579
2.36 176.960 61.615
2.37 178.350 61.822
2.38 180.134 62.005
2.39 185.468 62.284
2.40 192.854 62.648
2.41 201.304 62.778
2.42 211.349 62.814
2.43 225.258 63.756
2.44 234.421 65.693
2.45 239.949 67.618
2.46 246.146 69.253
2.47 250.281 70.624
2.48 251.415 71.690
2.49 248.438 72.137
2.50 241.025 71.623
2.51 --undefined-- 70.344
2.52 --undefined-- 68.915
2.53 --undefined-- 66.943
2.54 --undefined-- 63.751
2.55 --undefined-- 60.156
2.56 --undefined-- 57.336
2.57 --undefined-- 54.437
2.58 --undefined-- 51.351
2.59 --undefined-- 50.686
2.60 --undefined-- 52.835
2.61 --undefined-- 55.682
2.62 --undefined-- 56.789
2.63 --undefined-- 55.294
2.64 --undefined-- 51.875
2.65 --undefined-- 48.427
2.66 --undefined-- 47.393
2.67 --undefined-- 49.721
2.68 --undefined-- 52.921
2.69 --undefined-- 54.016
2.70 --undefined-- 52.475
2.71 --undefined-- 51.528
2.72 --undefined-- 51.232
2.73 --undefined-- 48.481
2.74 --undefined-- 44.951
2.75 --undefined-- 45.917
2.76 --undefined-- 46.762
2.77 --undefined-- 44.435
2.78 --undefined-- 42.441
2.79 --undefined-- 46.763
2.80 --undefined-- 49.767
2.81 --undefined-- 50.060
2.82 --undefined-- 48.355
2.83 --undefined-- 45.588
2.84 --undefined-- 43.719
2.85 --undefined-- 43.665
2.86 --undefined-- 46.007
2.87 --undefined-- 51.409
2.88 --undefined-- 58.724
2.89 177.793 64.490
2.90 181.117 67.498
2.91 185.460 68.741
2.92 186.981 69.516
2.93 188.333 70.160
2.94 190.473 70.616
2.95 190.882 70.847
2.96 190.439 70.902
2.97 191.106 71.047
2.98 192.382 71.003
2.99 192.942 70.569
3.00 193.214 69.961
3.01 192.116 69.257
3.02 188.746 68.212
3.03 184.545 66.350
3.04 186.706 63.134
3.05 --undefined-- 58.227
3.06 --undefined-- 53.063
3.07 --undefined-- 52.262
3.08 --undefined-- 52.981
3.09 --undefined-- 53.309
3.10 --undefined-- 54.784
3.11 248.924 57.670
3.12 248.595 60.340
3.13 249.067 61.898
3.14 246.745 62.392
3.15 229.665 62.356
3.16 201.828 62.863
3.17 187.324 63.479
3.18 175.223 63.504
3.19 160.635 63.353
3.20 157.017 63.223
3.21 155.421 63.118
3.22 155.404 63.146
3.23 155.697 63.194
3.24 157.255 63.153
3.25 158.114 62.815
3.26 157.890 62.309
3.27 158.040 61.783
3.28 160.501 61.092
3.29 163.712 60.280
3.30 166.649 59.382
3.31 168.150 58.560
3.32 168.148 58.228
3.33 168.236 58.188
3.34 169.330 57.980
3.35 172.187 57.968
3.36 178.069 58.719
3.37 180.743 60.359
3.38 182.960 62.206
3.39 182.438 63.398
3.40 181.261 63.802
3.41 179.956 63.995
3.42 178.588 64.480
3.43 179.482 65.282
3.44 179.937 66.478
3.45 180.682 67.754
3.46 181.270 68.383
3.47 181.184 67.746
3.48 179.613 65.392
3.49 170.751 61.108
3.50 163.660 55.489
3.51 --undefined-- 51.334
3.52 --undefined-- 50.574
3.53 --undefined-- 49.372
3.54 --undefined-- 48.109
3.55 --undefined-- 49.038
3.56 --undefined-- 51.950
3.57 --undefined-- 57.057
3.58 200.479 61.197
3.59 195.805 63.488
3.60 190.159 64.514
3.61 188.315 64.710
3.62 187.822 64.363
3.63 189.339 63.979
3.64 191.905 63.980
3.65 192.395 64.436
3.66 191.946 65.082
3.67 192.463 65.852
3.68 191.571 67.160
3.69 187.567 68.564
3.70 187.519 68.810
3.71 190.105 67.819
3.72 199.080 66.777
3.73 202.738 65.938
3.74 219.014 64.601
3.75 238.429 63.697
3.76 249.188 63.483
3.77 258.041 62.533
3.78 256.287 60.538
3.79 241.147 58.526
3.80 237.267 56.918
3.81 --undefined-- 55.847
3.82 --undefined-- 57.504
3.83 --undefined-- 59.155
3.84 --undefined-- 58.673
3.85 --undefined-- 57.705
3.86 --undefined-- 58.301
3.87 --undefined-- 58.768
3.88 --undefined-- 58.635
3.89 --undefined-- 61.164
3.90 --undefined-- 66.807
3.91 --undefined-- 70.454
3.92 --undefined-- 70.830
3.93 --undefined-- 69.436
3.94 192.326 69.348
3.95 185.859 69.594
3.96 182.264 68.989
3.97 179.217 68.444
3.98 176.612 68.388
3.99 175.249 68.289
4.00 174.786 67.809
4.01 175.158 67.249
4.02 175.451 67.043
4.03 175.569 67.094
4.04 175.423 66.909
4.05 175.383 66.294
4.06 175.947 65.820
4.07 176.433 66.011
4.08 176.190 66.287
4.09 175.597 66.395
4.10 174.138 66.541
4.11 172.815 66.830
4.12 172.849 66.929
4.13 172.632 66.684
4.14 172.490 66.490
4.15 173.059 66.546
4.16 173.521 66.844
4.17 174.071 67.411
4.18 172.426 68.053
4.19 167.800 68.379
4.20 166.136 68.510
4.21 165.058 68.835
4.22 164.751 69.283
4.23 164.056 69.392
4.24 161.786 68.748
4.25 160.920 67.635
4.26 161.935 66.726
4.27 163.711 66.148
4.28 164.094 65.473
4.29 164.321 64.607
4.30 165.440 64.267
4.31 166.077 64.230
4.32 167.515 63.511
4.33 166.733 61.597
4.34 162.222 58.241
4.35 --undefined-- 54.213
4.36 --undefined-- 51.770
4.37 --undefined-- 48.656
4.38 --undefined-- 45.550
4.39 --undefined-- 47.198
4.40 --undefined-- 49.609
4.41 --undefined-- 51.752
4.42 --undefined-- 53.801
4.43 --undefined-- 55.944
4.44 --undefined-- 58.783
4.45 --undefined-- 60.467
4.46 --undefined-- 59.916
4.47 143.987 58.389
4.48 147.505 58.120
4.49 144.752 58.867
4.50 145.055 59.397
4.51 145.778 59.419
4.52 148.490 59.661
4.53 151.453 60.325
4.54 157.358 60.983
4.55 165.980 61.568
4.56 176.279 61.983
4.57 189.335 62.002
4.58 198.757 61.771
4.59 210.273 61.498
4.60 219.842 61.442
4.61 229.362 61.408
4.62 227.304 60.742
4.63 222.192 59.772
4.64 220.053 59.426
4.65 222.559 59.726
4.66 224.165 60.462
4.67 225.719 61.534
4.68 221.169 62.443
4.69 212.273 63.065
4.70 183.979 63.572
4.71 165.559 63.403
4.72 158.402 62.184
4.73 149.514 60.633
4.74 144.354 59.516
4.75 143.717 58.483
4.76 142.473 57.307
4.77 143.262 56.133
4.78 145.062 55.268
4.79 150.224 55.215
4.80 152.589 55.721
4.81 152.972 56.055
4.82 152.318 56.228
4.83 153.638 56.332
4.84 152.794 55.729
4.85 --undefined-- 54.743
4.86 --undefined-- 55.033
4.87 166.893 56.479
4.88 163.476 58.388
4.89 160.589 59.565
4.90 156.535 60.036
4.91 156.611 60.424
4.92 158.886 61.109
4.93 161.544 62.178
4.94 164.011 63.402
4.95 172.066 64.471
4.96 175.514 64.762
4.97 185.694 64.385
4.98 192.050 64.173
4.99 200.268 64.355
5.00 203.870 64.553
5.01 208.462 64.489
5.02 216.765 63.993
5.03 223.770 63.114
5.04 229.838 --undefined--
5.05 235.250 --undefined--
5.06 --undefined-- --undefined--
5.07 --undefined-- --undefined--
