Time Pitch Intensity
0.01 --undefined-- --undefined--
0.02 --undefined-- --undefined--
0.03 --undefined-- --undefined--
0.04 --undefined-- --undefined--
0.05 --undefined-- 52.031
0.06 --undefined-- 51.657
0.07 --undefined-- 52.890
0.08 --undefined-- 54.830
0.09 --undefined-- 55.459
0.10 --undefined-- 54.419
0.11 --undefined-- 53.313
0.12 --undefined-- 52.743
0.13 --undefined-- 51.268
0.14 --undefined-- 49.682
0.15 --undefined-- 48.622
0.16 --undefined-- 46.891
0.17 --undefined-- 46.017
0.18 --undefined-- 46.712
0.19 --undefined-- 50.079
0.20 --undefined-- 54.827
0.21 --undefined-- 59.459
0.22 220.632 66.031
0.23 218.066 70.622
0.24 215.729 72.441
0.25 197.656 72.776
0.26 191.335 72.835
0.27 183.234 72.510
0.28 177.089 71.408
0.29 172.064 69.463
0.30 170.800 67.309
0.31 171.084 66.312
0.32 170.554 66.372
0.33 170.827 66.567
0.34 172.864 66.472
0.35 171.802 66.455
0.36 172.082 66.781
0.37 173.693 66.943
0.38 177.357 66.909
0.39 177.908 66.919
0.40 177.877 67.106
0.41 175.071 67.647
0.42 173.618 68.285
0.43 172.905 68.557
0.44 170.554 68.285
0.45 168.383 67.430
0.46 166.838 65.993
0.47 164.366 64.347
0.48 162.042 63.039
0.49 162.618 61.680
0.50 164.312 60.731
0.51 172.164 63.297
0.52 172.165 66.942
0.53 167.750 68.975
0.54 166.797 68.949
0.55 154.644 67.350
0.56 135.806 65.643
0.57 130.382 63.458
0.58 82.966 60.183
0.59 --undefined-- 58.853
0.60 --undefined-- 58.932
0.61 --undefined-- 59.028
0.62 --undefined-- 58.715
0.63 --undefined-- 59.166
0.64 --undefined-- 59.375
0.65 --undefined-- 58.777
0.66 --undefined-- 59.509
0.67 --undefined-- 60.583
0.68 --undefined-- 59.947
0.69 121.880 59.561
0.70 123.688 59.539
0.71 126.898 58.604
0.72 --undefined-- 60.866
0.73 --undefined-- 65.411
0.74 159.446 68.976
0.75 161.440 70.845
0.76 160.923 70.320
0.77 160.191 67.143
0.78 --undefined-- 62.769
0.79 --undefined-- 61.224
0.80 --undefined-- 63.300
0.81 --undefined-- 67.591
0.82 --undefined-- 69.938
0.83 --undefined-- 70.543
0.84 122.634 71.402
0.85 119.886 71.609
0.86 118.955 70.388
0.87 96.008 68.672
0.88 --undefined-- 67.497
0.89 --undefined-- 65.918
0.90 --undefined-- 61.845
0.91 --undefined-- 54.292
0.92 --undefined-- 50.631
0.93 --undefined-- 50.514
0.94 --undefined-- 46.936
0.95 --undefined-- 39.950
0.96 --undefined-- 33.341
0.97 --undefined-- 30.443
0.98 --undefined-- 28.573
0.99 --undefined-- 26.979
1.00 --undefined-- 26.307
1.01 --undefined-- 29.483
1.02 --undefined-- 36.266
1.03 --undefined-- 41.759
1.04 --undefined-- 45.114
1.05 --undefined-- 46.673
1.06 --undefined-- 46.898
1.07 --undefined-- 47.529
1.08 --undefined-- 48.409
1.09 --undefined-- 48.879
1.10 --undefined-- 50.598
1.11 --undefined-- 52.110
1.12 --undefined-- 51.326
1.13 --undefined-- 49.174
1.14 --undefined-- 47.986
1.15 --undefined-- 48.402
1.16 --undefined-- 49.340
1.17 --undefined-- 49.907
1.18 --undefined-- 50.361
1.19 --undefined-- 50.274
1.20 --undefined-- 48.605
1.21 --undefined-- 45.100
1.22 --undefined-- 40.487
1.23 --undefined-- 36.327
1.24 --undefined-- 33.228
1.25 --undefined-- 30.039
1.26 --undefined-- 27.234
1.27 --undefined-- 25.143
1.28 --undefined-- 24.021
1.29 --undefined-- 27.719
1.30 --undefined-- 40.556
1.31 --undefined-- 49.112
1.32 --undefined-- 52.904
1.33 --undefined-- 54.874
1.34 --undefined-- 61.388
1.35 294.220 67.607
1.36 285.489 70.742
1.37 283.206 71.328
1.38 286.372 70.318
1.39 298.065 69.117
1.40 164.531 69.359
1.41 178.164 70.616
1.42 188.925 71.708
1.43 195.032 72.684
1.44 198.484 74.048
1.45 195.701 74.988
1.46 192.000 74.462
1.47 187.587 72.762
1.48 181.451 71.788
1.49 177.200 71.580
1.50 174.385 70.560
1.51 293.285 68.826
1.52 279.901 67.487
1.53 254.902 66.365
1.54 228.226 65.254
1.55 214.925 64.544
1.56 203.006 65.009
1.57 199.753 67.082
1.58 189.453 69.294
1.59 185.487 70.419
1.60 180.952 70.677
1.61 178.565 71.129
1.62 177.448 71.488
1.63 177.292 70.928
1.64 176.981 69.634
1.65 174.558 68.687
1.66 171.937 68.560
1.67 172.664 68.489
1.68 172.524 68.333
1.69 175.847 68.399
1.70 176.640 68.512
1.71 176.104 68.299
1.72 177.251 67.273
1.73 176.691 64.764
1.74 173.420 60.402
1.75 --undefined-- 54.499
1.76 --undefined-- 52.575
1.77 210.215 56.760
1.78 211.101 62.725
1.79 207.374 68.274
1.80 195.839 71.579
1.81 191.824 72.707
1.82 189.241 72.429
1.83 185.274 71.321
1.84 181.122 69.550
1.85 180.497 67.160
1.86 181.661 64.535
1.87 185.624 61.501
1.88 192.192 57.232
1.89 --undefined-- 51.741
1.90 --undefined-- 47.427
1.91 --undefined-- 47.136
1.92 --undefined-- 48.503
1.93 182.184 49.975
1.94 181.869 50.670
1.95 177.428 49.908
1.96 --undefined-- 48.017
1.97 --undefined-- 45.877
1.98 --undefined-- 44.947
1.99 --undefined-- 45.185
2.00 --undefined-- 45.285
2.01 --undefined-- 44.814
2.02 --undefined-- 45.060
2.03 --undefined-- 52.103
2.04 --undefined-- 62.260
2.05 227.577 69.190
2.06 223.875 72.483
2.07 221.247 72.712
2.08 216.907 71.008
2.09 213.041 69.555
2.10 210.328 69.591
2.11 210.225 70.024
2.12 210.525 69.789
2.13 211.095 68.776
2.14 210.996 67.847
2.15 210.049 67.338
2.16 210.357 66.948
2.17 212.840 66.590
2.18 215.820 66.485
2.19 217.175 67.047
2.20 216.704 68.264
2.21 215.801 69.427
2.22 215.538 69.770
2.23 214.833 69.042
2.24 213.856 67.458
2.25 198.258 65.776
2.26 188.813 64.327
2.27 185.605 63.198
2.28 181.927 64.595
2.29 178.273 67.362
2.30 172.100 68.796
2.31 163.326 68.829
2.32 155.393 67.804
2.33 148.914 65.991
2.34 145.264 64.561
2.35 146.097 64.664
2.36 150.559 65.481
2.37 152.797 65.696
2.38 153.303 65.495
2.39 153.941 65.515
2.40 154.566 65.775
2.41 156.442 65.860
2.42 157.952 65.207
2.43 163.902 65.295
2.44 170.679 67.591
2.45 178.878 69.838
2.46 181.790 70.983
2.47 185.978 70.882
2.48 192.891 69.361
2.49 195.203 66.142
2.50 193.463 61.165
2.51 --undefined-- 54.729
2.52 --undefined-- 48.385
2.53 --undefined-- 43.762
2.54 --undefined-- 39.036
2.55 --undefined-- 34.274
2.56 --undefined-- 31.078
2.57 --undefined-- 36.360
2.58 --undefined-- 49.066
2.59 --undefined-- 58.848
2.60 --undefined-- 64.762
2.61 --undefined-- 68.099
2.62 240.691 69.960
2.63 239.057 70.770
2.64 236.039 71.225
2.65 235.133 71.592
2.66 234.921 71.516
2.67 235.070 71.048
2.68 235.428 70.943
2.69 235.188 71.449
2.70 236.911 71.720
2.71 236.867 71.264
2.72 236.225 69.942
2.73 238.781 67.585
2.74 242.290 65.173
2.75 241.972 63.963
2.76 241.861 63.579
2.77 244.989 64.210
2.78 250.020 65.363
2.79 256.107 66.070
2.80 264.468 66.282
2.81 266.218 66.117
2.82 257.607 65.613
2.83 243.206 65.044
2.84 229.844 64.706
2.85 222.019 64.818
2.86 214.375 65.286
2.87 198.602 66.029
2.88 186.706 67.114
2.89 185.348 67.912
2.90 184.838 67.928
2.91 181.440 67.540
2.92 177.723 68.395
2.93 173.050 70.339
2.94 170.743 70.931
2.95 171.464 69.453
2.96 174.189 66.471
2.97 179.989 63.333
2.98 188.285 62.306
2.99 192.463 62.458
3.00 194.632 62.302
3.01 194.510 62.204
3.02 194.181 62.168
3.03 192.313 62.213
3.04 190.858 63.126
3.05 187.107 65.154
3.06 182.649 67.146
3.07 183.900 68.415
3.08 185.884 68.521
3.09 185.398 66.842
3.10 182.099 62.884
3.11 177.738 56.654
3.12 --undefined-- 49.219
3.13 --undefined-- 43.848
3.14 --undefined-- 40.532
3.15 --undefined-- 36.321
3.16 --undefined-- 32.804
3.17 --undefined-- 40.230
3.18 --undefined-- 50.692
3.19 --undefined-- 58.145
3.20 195.876 64.774
3.21 195.723 69.335
3.22 194.969 71.150
3.23 196.543 70.919
3.24 198.851 70.099
3.25 198.358 69.572
3.26 199.022 69.461
3.27 201.333 69.700
3.28 204.511 69.861
3.29 206.557 69.836
3.30 205.646 69.714
3.31 206.754 69.440
3.32 209.755 68.973
3.33 209.804 68.005
3.34 209.926 66.273
3.35 210.209 64.017
3.36 209.808 62.445
3.37 206.630 62.540
3.38 200.550 63.301
3.39 191.962 63.787
3.40 186.137 64.051
3.41 174.676 64.206
3.42 162.302 63.829
3.43 154.367 62.636
3.44 137.870 61.133
3.45 127.233 59.786
3.46 117.156 58.946
3.47 --undefined-- 59.957
3.48 --undefined-- 61.320
3.49 --undefined-- 61.869
3.50 134.784 62.473
3.51 146.308 63.495
3.52 156.295 64.276
3.53 164.056 64.775
3.54 166.556 66.362
3.55 166.421 68.570
3.56 166.108 69.456
3.57 164.546 69.000
3.58 163.858 68.293
3.59 166.696 67.743
3.60 170.032 67.095
3.61 172.864 66.233
3.62 176.047 64.992
3.63 178.616 63.550
3.64 178.951 62.509
3.65 175.747 61.019
3.66 167.612 58.133
3.67 --undefined-- 53.776
3.68 --undefined-- 49.594
3.69 --undefined-- 53.942
3.70 --undefined-- 59.290
3.71 141.641 62.624
3.72 137.003 64.870
3.73 135.296 66.063
3.74 134.242 65.761
3.75 135.730 64.424
3.76 77.104 63.557
3.77 79.040 63.162
3.78 --undefined-- 63.007
3.79 157.079 63.532
3.80 152.285 64.159
3.81 148.538 63.823
3.82 152.480 62.487
3.83 155.337 60.898
3.84 156.625 59.862
3.85 160.226 59.666
3.86 168.291 60.979
3.87 181.064 64.018
3.88 188.758 66.764
3.89 192.190 68.318
3.90 195.435 68.726
3.91 197.654 68.258
3.92 199.755 67.422
3.93 200.475 66.554
3.94 203.116 65.643
3.95 205.232 64.893
3.96 205.063 64.577
3.97 203.620 64.439
3.98 203.230 64.493
3.99 196.377 64.643
4.00 189.454 63.912
4.01 182.900 61.523
4.02 175.869 57.327
4.03 --undefined-- 53.133
4.04 --undefined-- 51.648
4.05 --undefined-- 50.904
4.06 --undefined-- 54.716
4.07 --undefined-- 61.819
4.08 163.972 66.343
4.09 160.885 68.802
4.10 156.705 69.886
4.11 155.892 69.660
4.12 156.810 68.504
4.13 157.273 66.919
4.14 157.724 65.069
4.15 156.911 63.281
4.16 157.296 61.142
4.17 158.788 57.598
4.18 --undefined-- 51.751
4.19 --undefined-- 44.884
4.20 --undefined-- 42.924
4.21 --undefined-- 45.933
4.22 --undefined-- 52.675
4.23 126.622 60.142
4.24 127.152 64.943
4.25 110.765 67.436
4.26 109.248 68.449
4.27 115.536 68.393
4.28 --undefined-- 67.373
4.29 --undefined-- 65.783
4.30 --undefined-- 64.384
4.31 --undefined-- 63.029
4.32 --undefined-- 62.411
4.33 189.218 62.874
4.34 189.825 63.040
4.35 190.629 62.910
4.36 190.546 63.630
4.37 189.863 65.528
4.38 189.627 67.941
4.39 190.394 69.911
4.40 189.017 70.591
4.41 184.524 70.226
4.42 181.065 69.454
4.43 176.915 68.447
4.44 173.767 67.267
4.45 173.385 65.763
4.46 173.063 64.183
4.47 170.618 63.109
4.48 166.556 62.651
4.49 165.024 62.539
4.50 164.303 62.909
4.51 167.238 64.214
4.52 170.647 65.647
4.53 173.377 66.328
4.54 177.585 66.661
4.55 184.290 66.882
4.56 191.089 66.058
4.57 191.579 64.054
4.58 188.361 61.647
4.59 184.440 58.504
4.60 --undefined-- 53.201
4.61 --undefined-- 45.240
4.62 --undefined-- 35.183
4.63 --undefined-- 30.078
4.64 --undefined-- 36.492
4.65 --undefined-- 45.895
4.66 --undefined-- 52.516
4.67 171.465 56.613
4.68 167.195 59.339
4.69 162.478 61.097
4.70 162.482 61.586
4.71 161.056 60.650
4.72 153.931 58.853
4.73 149.436 56.750
4.74 123.289 55.197
4.75 --undefined-- 53.642
4.76 --undefined-- 49.610
4.77 --undefined-- 42.653
4.78 --undefined-- 39.881
4.79 --undefined-- 41.402
4.80 --undefined-- 43.081
4.81 --undefined-- 45.080
4.82 --undefined-- 46.159
4.83 --undefined-- 45.244
4.84 --undefined-- 42.657
4.85 --undefined-- 41.948
4.86 --undefined-- 44.498
4.87 --undefined-- 47.912
4.88 --undefined-- 49.494
4.89 --undefined-- 47.388
4.90 --undefined-- 43.573
4.91 --undefined-- 47.096
4.92 --undefined-- 52.108
4.93 --undefined-- 56.212
4.94 --undefined-- 57.557
4.95 --undefined-- 56.694
4.96 --undefined-- 58.938
4.97 --undefined-- 64.663
4.98 129.683 68.907
4.99 127.723 70.598
5.00 128.043 69.990
5.01 --undefined-- 68.437
5.02 --undefined-- 66.975
5.03 --undefined-- 65.796
5.04 --undefined-- 64.557
5.05 --undefined-- 62.525
5.06 156.364 59.897
5.07 144.656 57.839
5.08 137.112 57.438
5.09 151.316 59.650
5.10 165.593 61.705
5.11 165.694 62.063
5.12 162.115 60.566
5.13 155.967 57.105
5.14 --undefined-- 55.196
5.15 --undefined-- 58.103
5.16 --undefined-- 58.779
5.17 --undefined-- 61.260
5.18 148.584 65.585
5.19 154.144 67.989
5.20 161.165 69.058
5.21 165.925 69.487
5.22 170.733 69.390
5.23 170.925 69.005
5.24 170.334 68.712
5.25 170.878 68.349
5.26 172.291 67.692
5.27 168.907 66.597
5.28 164.842 65.271
5.29 166.519 63.167
5.30 171.917 59.180
5.31 --undefined-- 52.525
5.32 --undefined-- 42.986
5.33 --undefined-- 31.515
5.34 --undefined-- 30.215
5.35 --undefined-- 40.850
5.36 --undefined-- 51.040
5.37 --undefined-- --undefined--
5.38 --undefined-- --undefined--
5.39 --undefined-- --undefined--
5.40 --undefined-- --undefined--
