Time Pitch Intensity
0.01 --undefined-- --undefined--
0.02 172.316 --undefined--
0.03 172.184 --undefined--
0.04 171.662 --undefined--
0.05 170.374 75.817
0.06 165.968 74.501
0.07 160.485 72.735
0.08 153.462 70.724
0.09 143.461 69.350
0.10 141.716 69.338
0.11 133.870 69.483
0.12 127.443 70.805
0.13 122.816 73.591
0.14 118.534 75.783
0.15 116.530 76.897
0.16 113.904 76.993
0.17 110.888 76.361
0.18 108.507 74.978
0.19 98.965 72.455
0.20 104.480 70.172
0.21 105.856 69.778
0.22 105.621 69.740
0.23 105.021 69.549
0.24 104.715 69.438
0.25 104.517 69.376
0.26 104.144 69.188
0.27 103.747 68.807
0.28 102.838 68.208
0.29 101.672 67.206
0.30 100.417 65.791
0.31 105.831 64.308
0.32 105.884 62.723
0.33 --undefined-- 62.280
0.34 --undefined-- 63.605
0.35 --undefined-- 65.649
0.36 --undefined-- 69.049
0.37 --undefined-- 73.483
0.38 135.648 76.286
0.39 126.937 77.322
0.40 124.036 77.491
0.41 120.843 76.759
0.42 119.055 74.561
0.43 119.297 71.307
0.44 121.499 69.476
0.45 122.808 69.678
0.46 123.804 70.306
0.47 125.198 71.029
0.48 125.737 71.622
0.49 126.656 72.082
0.50 128.718 72.744
0.51 130.092 73.631
0.52 129.723 74.416
0.53 129.625 75.090
0.54 129.959 75.772
0.55 130.018 76.440
0.56 129.325 76.867
0.57 129.754 76.944
0.58 127.146 76.779
0.59 123.716 76.322
0.60 120.945 75.708
0.61 119.715 75.256
0.62 119.943 74.651
0.63 119.712 73.576
0.64 118.556 72.021
0.65 114.629 69.690
0.66 102.986 66.625
0.67 98.592 63.491
0.68 99.226 60.980
0.69 99.597 59.405
0.70 --undefined-- 58.539
0.71 --undefined-- 59.053
0.72 --undefined-- 60.887
0.73 --undefined-- 61.193
0.74 --undefined-- 60.662
0.75 --undefined-- 66.442
0.76 130.791 71.795
0.77 129.277 74.221
0.78 127.345 74.759
0.79 126.778 74.797
0.80 123.673 75.075
0.81 123.967 75.793
0.82 125.102 76.788
0.83 129.325 77.451
0.84 131.906 77.735
0.85 134.526 77.999
0.86 135.712 78.160
0.87 135.451 77.919
0.88 132.514 77.241
0.89 131.000 76.480
0.90 129.955 76.075
0.91 126.387 75.497
0.92 121.890 74.831
0.93 117.845 74.332
0.94 115.601 73.776
0.95 113.507 73.494
0.96 111.570 73.094
0.97 112.710 71.908
0.98 101.533 69.812
0.99 100.285 67.535
1.00 97.136 65.341
1.01 99.582 62.532
1.02 101.511 58.971
1.03 102.829 55.201
1.04 100.859 51.504
1.05 --undefined-- 48.727
1.06 --undefined-- 47.650
1.07 --undefined-- 46.713
1.08 --undefined-- 45.141
1.09 --undefined-- 45.189
1.10 --undefined-- 47.316
1.11 --undefined-- 48.793
1.12 --undefined-- 49.841
1.13 --undefined-- 50.729
1.14 --undefined-- 50.864
1.15 --undefined-- 50.808
1.16 --undefined-- 50.756
1.17 --undefined-- 50.347
1.18 --undefined-- 49.604
1.19 --undefined-- 48.705
1.20 --undefined-- 48.076
1.21 --undefined-- 47.559
1.22 --undefined-- 46.821
1.23 --undefined-- 46.366
1.24 --undefined-- 47.097
1.25 --undefined-- 48.406
1.26 --undefined-- 49.279
1.27 --undefined-- 48.869
1.28 --undefined-- 46.531
1.29 --undefined-- 42.378
1.30 --undefined-- 38.462
1.31 --undefined-- 37.630
1.32 --undefined-- 45.582
1.33 --undefined-- 58.746
1.34 163.284 67.707
1.35 155.595 73.124
1.36 156.119 76.313
1.37 161.294 78.123
1.38 160.446 78.698
1.39 162.174 78.716
1.40 168.669 78.908
1.41 174.788 78.736
1.42 181.804 78.017
1.43 190.372 77.128
1.44 207.178 77.027
1.45 209.499 78.065
1.46 209.439 78.343
1.47 205.602 77.214
1.48 200.255 75.385
1.49 195.999 73.555
1.50 179.933 72.303
1.51 178.358 71.814
1.52 175.749 72.153
1.53 179.684 73.882
1.54 180.169 75.580
1.55 175.002 76.525
1.56 169.311 76.982
1.57 164.897 76.940
1.58 158.770 75.932
1.59 157.940 73.723
1.60 134.805 70.556
1.61 143.477 67.116
1.62 160.448 64.082
1.63 166.794 61.493
1.64 166.380 58.821
1.65 161.618 55.031
1.66 --undefined-- 50.961
1.67 --undefined-- 51.856
1.68 --undefined-- 55.638
1.69 --undefined-- 63.365
1.70 --undefined-- 71.232
1.71 200.804 75.865
1.72 204.581 77.862
1.73 206.783 78.377
1.74 208.556 78.429
1.75 211.195 78.372
1.76 215.888 77.743
1.77 226.032 75.972
1.78 218.469 72.994
1.79 204.763 69.431
1.80 204.187 66.374
1.81 207.970 66.881
1.82 206.367 71.654
1.83 199.350 75.402
1.84 189.353 76.877
1.85 172.924 77.041
1.86 160.574 77.230
1.87 153.294 77.538
1.88 143.482 77.461
1.89 135.339 76.595
1.90 126.403 74.635
1.91 125.490 71.940
1.92 128.476 69.491
1.93 129.326 67.763
1.94 128.143 66.732
1.95 128.233 66.425
1.96 130.752 66.508
1.97 130.174 66.824
1.98 129.581 67.632
1.99 129.960 68.959
2.00 129.722 70.675
2.01 129.813 72.672
2.02 129.651 74.525
2.03 128.929 75.991
2.04 127.732 77.021
2.05 126.492 77.617
2.06 125.850 77.778
2.07 125.746 77.489
2.08 125.526 76.602
2.09 125.206 74.788
2.10 123.971 71.796
2.11 124.757 68.078
2.12 128.603 64.407
2.13 129.748 60.766
2.14 --undefined-- 63.299
2.15 --undefined-- 70.993
2.16 157.010 75.853
2.17 157.860 77.794
2.18 149.213 77.708
2.19 143.719 76.855
2.20 141.243 75.962
2.21 138.823 74.998
2.22 136.684 74.335
2.23 136.615 74.566
2.24 137.904 75.192
2.25 140.210 75.436
2.26 142.686 75.165
2.27 143.804 74.687
2.28 144.180 75.003
2.29 150.651 76.296
2.30 153.211 77.268
2.31 157.019 77.425
2.32 160.708 77.351
2.33 161.372 78.010
2.34 161.962 78.899
2.35 162.116 79.218
2.36 161.906 78.993
2.37 160.815 78.440
2.38 159.605 77.736
2.39 157.117 77.327
2.40 151.912 77.167
2.41 147.515 76.268
2.42 143.594 74.229
2.43 143.825 71.869
2.44 143.056 70.091
2.45 137.111 70.025
2.46 135.708 72.658
2.47 136.146 75.466
2.48 137.840 76.964
2.49 137.864 76.985
2.50 135.031 76.082
2.51 130.169 75.413
2.52 126.418 75.295
2.53 124.568 75.310
2.54 123.254 75.293
2.55 118.611 74.880
2.56 113.643 74.033
2.57 112.747 73.553
2.58 119.376 74.031
2.59 122.744 74.704
2.60 126.322 74.943
2.61 130.399 74.885
2.62 132.648 74.709
2.63 137.036 74.225
2.64 141.823 73.283
2.65 149.376 71.943
2.66 154.426 70.454
2.67 160.764 69.616
2.68 169.478 69.159
2.69 178.274 68.373
2.70 183.446 68.168
2.71 183.941 68.647
2.72 183.509 68.665
2.73 182.645 68.123
2.74 176.604 67.474
2.75 168.573 66.863
2.76 164.225 66.671
2.77 159.776 66.894
2.78 153.242 66.862
2.79 147.269 66.711
2.80 144.396 66.738
2.81 140.648 66.149
2.82 131.625 64.655
2.83 128.530 64.364
2.84 129.259 65.404
2.85 123.867 65.917
2.86 122.667 66.301
2.87 121.045 66.802
2.88 120.347 67.168
2.89 119.891 67.591
2.90 119.940 68.299
2.91 119.401 69.158
2.92 118.369 70.039
2.93 117.291 70.897
2.94 115.557 71.752
2.95 115.133 72.841
2.96 116.477 74.247
2.97 117.993 75.221
2.98 116.349 74.921
2.99 111.477 74.151
3.00 114.862 74.485
3.01 112.959 74.760
3.02 110.709 74.625
3.03 112.108 74.734
3.04 109.236 74.839
3.05 103.728 74.446
3.06 102.830 73.685
3.07 101.740 72.873
3.08 97.419 72.061
3.09 96.904 70.981
3.10 93.476 69.156
3.11 97.526 67.193
3.12 97.425 66.253
3.13 96.713 65.617
3.14 94.517 64.947
3.15 91.712 63.938
3.16 91.456 62.177
3.17 --undefined-- 60.275
3.18 --undefined-- 58.718
3.19 --undefined-- 55.750
3.20 --undefined-- 50.203
3.21 --undefined-- 47.790
3.22 --undefined-- 48.014
3.23 --undefined-- 45.150
3.24 --undefined-- 44.488
3.25 --undefined-- 51.892
3.26 --undefined-- 56.799
3.27 75.639 59.671
3.28 89.290 61.636
3.29 96.281 63.313
3.30 97.427 64.895
3.31 98.450 66.192
3.32 99.826 67.211
3.33 101.941 67.963
3.34 103.145 68.420
3.35 105.026 68.817
3.36 107.554 69.354
3.37 109.851 70.052
3.38 112.999 70.727
3.39 116.976 71.092
3.40 122.976 71.272
3.41 129.663 71.917
3.42 133.442 72.956
3.43 135.445 73.718
3.44 135.667 74.036
3.45 134.594 74.421
3.46 135.112 75.551
3.47 130.923 76.824
3.48 129.431 77.220
3.49 124.497 76.649
3.50 117.627 75.561
3.51 112.962 74.391
3.52 108.741 72.928
3.53 104.401 70.925
3.54 98.350 68.807
3.55 98.305 67.593
3.56 97.855 67.354
3.57 97.118 67.394
3.58 96.139 67.260
3.59 95.697 66.908
3.60 94.998 66.437
3.61 94.904 66.028
3.62 95.528 65.854
3.63 96.166 65.820
3.64 96.722 65.935
3.65 97.595 65.965
3.66 96.935 65.876
3.67 98.803 66.782
3.68 100.297 68.523
3.69 99.283 69.673
3.70 99.181 70.011
3.71 99.055 69.857
3.72 98.319 69.669
3.73 98.210 69.612
3.74 97.658 69.483
3.75 96.655 69.158
3.76 95.878 68.568
3.77 94.963 67.742
3.78 95.593 66.855
3.79 96.589 66.082
3.80 96.696 65.592
3.81 97.104 65.555
3.82 97.722 65.876
3.83 98.490 66.268
3.84 99.293 66.555
3.85 101.270 66.704
3.86 103.061 66.726
3.87 105.373 66.685
3.88 107.526 66.646
3.89 108.405 66.916
3.90 113.727 68.787
3.91 119.709 71.769
3.92 122.735 74.095
3.93 123.437 75.645
3.94 124.319 76.704
3.95 124.519 77.172
3.96 124.429 77.144
3.97 124.801 77.025
3.98 125.055 76.925
3.99 124.739 76.405
4.00 123.676 74.665
4.01 123.416 71.072
4.02 124.839 65.468
4.03 125.294 59.142
4.04 127.861 55.342
4.05 123.389 54.141
4.06 124.259 53.551
4.07 123.337 52.856
4.08 --undefined-- 53.624
4.09 --undefined-- 59.187
4.10 --undefined-- 66.352
4.11 112.433 70.766
4.12 109.487 72.484
4.13 101.359 72.639
4.14 97.499 72.350
4.15 97.108 71.937
4.16 96.702 71.282
4.17 96.875 70.604
4.18 98.270 70.130
4.19 99.398 69.802
4.20 101.319 69.778
4.21 104.484 70.146
4.22 106.360 70.791
4.23 110.993 71.850
4.24 114.751 73.185
4.25 119.873 74.352
4.26 126.848 75.327
4.27 132.755 76.391
4.28 141.494 77.415
4.29 144.856 77.979
4.30 146.532 78.039
4.31 148.702 78.039
4.32 151.200 78.256
4.33 153.404 78.268
4.34 153.518 77.746
4.35 151.701 76.690
4.36 149.776 75.009
4.37 152.715 72.079
4.38 151.786 67.442
4.39 152.516 61.883
4.40 151.561 58.188
4.41 148.905 56.121
4.42 149.657 54.973
4.43 --undefined-- 53.991
4.44 --undefined-- 53.093
4.45 --undefined-- 52.872
4.46 --undefined-- 53.144
4.47 --undefined-- 53.539
4.48 --undefined-- 53.986
4.49 --undefined-- 54.418
4.50 --undefined-- 54.509
4.51 --undefined-- 53.530
4.52 --undefined-- 52.521
4.53 --undefined-- 52.686
4.54 --undefined-- 52.828
4.55 --undefined-- 52.777
4.56 --undefined-- 52.700
4.57 --undefined-- 52.082
4.58 --undefined-- 51.192
4.59 --undefined-- 50.126
4.60 --undefined-- 49.453
4.61 --undefined-- 50.090
4.62 --undefined-- 50.413
4.63 --undefined-- 49.778
4.64 --undefined-- 48.022
4.65 --undefined-- 44.374
4.66 --undefined-- 40.221
4.67 --undefined-- 39.289
4.68 --undefined-- 37.968
4.69 --undefined-- 37.075
4.70 --undefined-- 47.444
4.71 --undefined-- 61.832
4.72 --undefined-- 70.787
4.73 141.105 75.614
4.74 143.374 77.314
4.75 133.384 76.950
4.76 134.306 76.231
4.77 138.937 76.428
4.78 140.815 76.916
4.79 144.348 77.324
4.80 150.012 78.035
4.81 153.892 78.648
4.82 159.547 78.759
4.83 165.482 78.822
4.84 170.824 78.539
4.85 181.520 78.006
4.86 183.179 78.197
4.87 183.391 78.344
4.88 183.967 78.061
4.89 187.068 77.560
4.90 192.071 76.630
4.91 196.479 75.353
4.92 195.520 74.607
4.93 192.710 74.587
4.94 190.970 74.736
4.95 189.538 74.760
4.96 187.698 74.476
4.97 185.096 73.751
4.98 181.261 72.499
4.99 176.882 70.664
5.00 170.820 68.665
5.01 169.949 67.369
5.02 170.933 66.495
5.03 171.396 65.385
5.04 175.527 64.349
5.05 176.683 64.606
5.06 194.581 68.742
5.07 214.050 73.426
5.08 220.322 76.430
5.09 221.678 77.842
5.10 219.779 78.225
5.11 215.327 78.453
5.12 215.316 78.640
5.13 215.927 78.420
5.14 217.595 77.720
5.15 216.843 --undefined--
5.16 213.949 --undefined--
5.17 --undefined-- --undefined--
5.18 --undefined-- --undefined--
