Time Pitch Intensity
0.01 --undefined-- --undefined--
0.02 139.108 --undefined--
0.03 143.632 --undefined--
0.04 147.722 --undefined--
0.05 147.252 65.699
0.06 149.147 63.572
0.07 161.667 60.990
0.08 167.722 58.196
0.09 174.574 55.678
0.10 177.833 54.170
0.11 178.674 55.887
0.12 175.059 60.671
0.13 161.905 64.892
0.14 152.159 67.181
0.15 145.115 67.921
0.16 135.046 67.899
0.17 132.695 67.687
0.18 129.431 67.559
0.19 127.230 67.351
0.20 125.187 66.912
0.21 123.959 66.482
0.22 122.761 66.225
0.23 132.160 66.372
0.24 138.552 66.832
0.25 140.013 67.350
0.26 143.055 67.865
0.27 146.852 68.391
0.28 150.465 68.902
0.29 158.778 69.213
0.30 162.836 69.524
0.31 164.651 69.970
0.32 164.695 70.336
0.33 165.115 70.562
0.34 164.897 70.668
0.35 163.684 70.599
0.36 162.350 70.340
0.37 156.541 69.714
0.38 149.404 68.615
0.39 143.166 67.418
0.40 136.327 66.543
0.41 129.140 65.728
0.42 123.346 63.922
0.43 114.045 60.498
0.44 113.393 56.352
0.45 --undefined-- 52.879
0.46 --undefined-- 49.731
0.47 --undefined-- 46.113
0.48 --undefined-- 42.733
0.49 --undefined-- 42.509
0.50 --undefined-- 50.032
0.51 --undefined-- 58.311
0.52 --undefined-- 63.100
0.53 --undefined-- 65.347
0.54 120.496 66.006
0.55 117.918 65.531
0.56 109.121 64.404
0.57 106.214 63.551
0.58 105.384 63.069
0.59 104.360 62.679
0.60 104.398 62.284
0.61 106.124 62.226
0.62 105.859 62.550
0.63 105.687 62.480
0.64 105.518 61.867
0.65 108.051 61.368
0.66 108.731 61.229
0.67 110.387 61.462
0.68 112.920 62.278
0.69 115.457 63.349
0.70 118.057 64.170
0.71 120.463 64.634
0.72 120.985 64.830
0.73 121.302 64.443
0.74 121.292 63.008
0.75 120.298 60.874
0.76 127.793 60.000
0.77 134.865 60.971
0.78 135.262 61.975
0.79 135.349 62.516
0.80 135.547 62.717
0.81 136.034 62.658
0.82 136.103 62.491
0.83 133.141 62.436
0.84 127.971 62.404
0.85 116.999 61.756
0.86 99.383 59.895
0.87 94.350 57.066
0.88 87.355 54.359
0.89 88.434 52.583
0.90 92.892 52.108
0.91 93.104 52.682
0.92 96.504 53.935
0.93 96.287 55.055
0.94 --undefined-- 55.431
0.95 --undefined-- 55.695
0.96 --undefined-- 55.831
0.97 --undefined-- 55.521
0.98 75.648 55.606
0.99 80.005 56.430
1.00 81.566 57.717
1.01 87.769 58.894
1.02 95.623 59.884
1.03 106.446 61.221
1.04 114.008 62.486
1.05 121.784 63.028
1.06 131.685 63.032
1.07 137.534 63.112
1.08 141.774 63.574
1.09 145.216 64.269
1.10 146.342 64.860
1.11 146.841 64.895
1.12 146.389 63.926
1.13 139.133 61.578
1.14 133.201 57.675
1.15 137.867 52.769
1.16 --undefined-- 48.243
1.17 --undefined-- 44.907
1.18 --undefined-- 42.761
1.19 --undefined-- 41.970
1.20 --undefined-- 42.094
1.21 --undefined-- 42.549
1.22 --undefined-- 46.036
1.23 --undefined-- 53.744
1.24 154.678 59.513
1.25 144.631 62.434
1.26 134.994 63.632
1.27 130.774 64.307
1.28 126.932 64.725
1.29 121.607 64.523
1.30 117.189 63.863
1.31 114.440 63.297
1.32 112.786 63.376
1.33 109.936 63.948
1.34 108.892 64.420
1.35 109.657 64.426
1.36 113.438 64.091
1.37 115.590 63.258
1.38 118.149 61.595
1.39 114.722 59.233
1.40 112.505 57.130
1.41 122.744 57.916
1.42 142.527 60.590
1.43 138.780 62.574
1.44 131.338 63.705
1.45 123.963 64.358
1.46 116.723 64.786
1.47 112.410 65.050
1.48 110.953 65.092
1.49 110.952 64.909
1.50 113.171 64.477
1.51 113.400 63.913
1.52 111.019 63.346
1.53 109.330 62.783
1.54 108.469 62.025
1.55 107.989 61.272
1.56 110.376 61.717
1.57 113.563 63.061
1.58 115.144 64.243
1.59 115.697 65.104
1.60 115.262 65.566
1.61 115.163 65.669
1.62 115.933 65.528
1.63 116.834 65.160
1.64 118.910 64.624
1.65 120.256 64.034
1.66 119.352 63.236
1.67 118.098 62.128
1.68 120.374 61.301
1.69 126.606 61.846
1.70 131.287 63.327
1.71 125.699 64.317
1.72 126.193 64.627
1.73 126.185 64.699
1.74 125.077 64.662
1.75 125.580 64.490
1.76 125.906 64.038
1.77 124.057 63.333
1.78 128.222 63.118
1.79 131.220 63.431
1.80 133.883 63.882
1.81 135.642 64.503
1.82 137.009 65.153
1.83 138.969 65.536
1.84 140.814 65.415
1.85 137.798 64.997
1.86 134.904 64.833
1.87 131.675 64.934
1.88 128.844 64.969
1.89 125.470 64.955
1.90 122.261 65.254
1.91 118.510 65.881
1.92 117.825 66.518
1.93 116.606 66.985
1.94 113.510 67.177
1.95 112.181 67.005
1.96 111.675 66.638
1.97 110.068 65.980
1.98 108.797 65.004
1.99 108.362 63.632
2.00 111.099 61.605
2.01 120.913 58.717
2.02 123.065 54.348
2.03 --undefined-- 47.742
2.04 --undefined-- 41.214
2.05 --undefined-- 40.187
2.06 --undefined-- 40.163
2.07 --undefined-- 39.407
2.08 --undefined-- 37.961
2.09 --undefined-- 37.951
2.10 --undefined-- 40.058
2.11 --undefined-- 41.902
2.12 --undefined-- 42.916
2.13 --undefined-- 43.328
2.14 --undefined-- 43.376
2.15 --undefined-- 43.510
2.16 --undefined-- 44.129
2.17 --undefined-- 44.579
2.18 --undefined-- 44.687
2.19 --undefined-- 44.764
2.20 --undefined-- 44.661
2.21 --undefined-- 44.288
2.22 --undefined-- 43.894
2.23 --undefined-- 43.413
2.24 --undefined-- 43.008
2.25 --undefined-- 42.489
2.26 --undefined-- 41.535
2.27 --undefined-- 40.551
2.28 --undefined-- 40.642
2.29 --undefined-- 40.890
2.30 --undefined-- 40.442
2.31 --undefined-- 39.538
2.32 --undefined-- 38.073
2.33 --undefined-- 36.274
2.34 --undefined-- 35.100
2.35 --undefined-- 35.390
2.36 --undefined-- 36.553
2.37 --undefined-- 37.306
2.38 --undefined-- 39.916
2.39 --undefined-- 49.698
2.40 --undefined-- 57.518
2.41 146.977 62.425
2.42 134.491 65.332
2.43 132.106 66.661
2.44 132.044 66.787
2.45 130.138 66.784
2.46 131.915 67.614
2.47 139.436 68.541
2.48 144.743 69.217
2.49 150.309 69.849
2.50 156.715 70.512
2.51 164.550 71.159
2.52 167.891 71.678
2.53 171.073 71.782
2.54 174.028 71.325
2.55 174.115 70.481
2.56 174.887 69.623
2.57 172.457 69.226
2.58 169.789 69.291
2.59 167.829 69.366
2.60 164.360 69.356
2.61 156.994 69.503
2.62 153.590 69.537
2.63 148.493 69.202
2.64 144.514 68.592
2.65 140.038 67.772
2.66 135.790 66.606
2.67 130.054 64.952
2.68 116.474 62.877
2.69 113.283 60.213
2.70 --undefined-- 56.152
2.71 --undefined-- 50.483
2.72 --undefined-- 45.263
2.73 --undefined-- 42.918
2.74 --undefined-- 44.217
2.75 --undefined-- 47.204
2.76 --undefined-- 54.594
2.77 --undefined-- 61.115
2.78 --undefined-- 64.880
2.79 --undefined-- 66.624
2.80 110.000 67.257
2.81 106.423 67.333
2.82 102.619 67.063
2.83 100.016 66.694
2.84 99.453 66.225
2.85 100.071 65.775
2.86 100.127 65.504
2.87 98.972 64.995
2.88 97.916 64.167
2.89 97.553 63.426
2.90 96.746 62.955
2.91 96.717 62.584
2.92 96.425 61.866
2.93 95.608 60.159
2.94 --undefined-- 56.942
2.95 --undefined-- 52.131
2.96 --undefined-- 46.143
2.97 --undefined-- 40.708
2.98 --undefined-- 39.185
2.99 --undefined-- 39.602
3.00 --undefined-- 41.335
3.01 --undefined-- 43.941
3.02 --undefined-- 45.595
3.03 --undefined-- 45.212
3.04 --undefined-- 43.281
3.05 --undefined-- 41.703
3.06 --undefined-- 41.312
3.07 --undefined-- 41.959
3.08 --undefined-- 42.441
3.09 --undefined-- 41.897
3.10 --undefined-- 40.642
3.11 --undefined-- 38.993
3.12 --undefined-- 37.003
3.13 --undefined-- 36.508
3.14 --undefined-- 37.784
3.15 --undefined-- 38.975
3.16 --undefined-- 38.898
3.17 --undefined-- 39.246
3.18 --undefined-- 49.386
3.19 --undefined-- 57.398
3.20 --undefined-- 61.746
3.21 --undefined-- 64.232
3.22 183.876 66.335
3.23 184.326 68.297
3.24 184.314 69.930
3.25 187.243 70.842
3.26 190.150 70.800
3.27 192.491 69.731
3.28 191.428 67.689
3.29 188.239 65.164
3.30 188.412 62.546
3.31 188.977 60.310
3.32 200.892 59.710
3.33 215.362 61.422
3.34 201.316 64.112
3.35 190.457 66.325
3.36 177.157 67.756
3.37 163.115 68.410
3.38 153.177 68.443
3.39 141.814 67.928
3.40 132.142 67.171
3.41 131.334 66.415
3.42 133.080 65.693
3.43 134.679 65.064
3.44 139.077 63.797
3.45 139.698 61.266
3.46 131.184 57.756
3.47 127.985 54.059
3.48 133.667 50.275
3.49 134.031 46.952
3.50 134.504 48.830
3.51 --undefined-- 56.653
3.52 --undefined-- 62.411
3.53 159.118 65.444
3.54 152.496 66.644
3.55 144.172 67.005
3.56 139.201 66.976
3.57 134.968 66.583
3.58 131.372 66.090
3.59 128.394 65.861
3.60 127.904 65.933
3.61 129.058 66.067
3.62 130.948 66.065
3.63 132.412 65.619
3.64 134.042 64.453
3.65 138.366 62.549
3.66 145.638 59.967
3.67 143.381 56.328
3.68 --undefined-- 51.400
3.69 --undefined-- 48.577
3.70 --undefined-- 53.303
3.71 --undefined-- 61.196
3.72 --undefined-- 66.647
3.73 --undefined-- 69.438
3.74 --undefined-- 70.159
3.75 --undefined-- 69.104
3.76 --undefined-- 66.383
3.77 --undefined-- 62.324
3.78 --undefined-- 58.050
3.79 --undefined-- 56.869
3.80 --undefined-- 56.621
3.81 --undefined-- 53.062
3.82 --undefined-- 49.707
3.83 --undefined-- 56.518
3.84 139.172 61.816
3.85 145.327 64.706
3.86 158.321 66.197
3.87 169.641 66.990
3.88 164.955 67.560
3.89 161.304 68.002
3.90 158.261 68.099
3.91 155.730 67.908
3.92 153.944 67.607
3.93 153.867 67.064
3.94 156.315 66.271
3.95 156.447 65.552
3.96 161.552 65.103
3.97 173.522 64.965
3.98 176.270 65.300
3.99 183.103 66.193
4.00 186.350 67.427
4.01 179.286 68.270
4.02 178.580 68.533
4.03 179.473 68.457
4.04 183.139 68.374
4.05 183.848 68.356
4.06 184.363 68.199
4.07 183.878 67.652
4.08 182.607 66.410
4.09 179.558 63.994
4.10 173.873 60.082
4.11 --undefined-- 55.239
4.12 --undefined-- 51.707
4.13 --undefined-- 49.934
4.14 --undefined-- 48.278
4.15 --undefined-- 47.676
4.16 --undefined-- 54.243
4.17 --undefined-- 62.125
4.18 214.584 66.632
4.19 193.911 68.309
4.20 183.770 68.554
4.21 175.399 68.096
4.22 169.425 66.506
4.23 163.573 63.294
4.24 165.771 58.520
4.25 170.185 52.570
4.26 --undefined-- 47.424
4.27 --undefined-- 45.769
4.28 --undefined-- 45.650
4.29 --undefined-- 45.573
4.30 --undefined-- 45.469
4.31 --undefined-- 44.965
4.32 --undefined-- 44.189
4.33 --undefined-- 44.561
4.34 --undefined-- 52.185
4.35 --undefined-- 60.131
4.36 --undefined-- 64.594
4.37 --undefined-- 66.698
4.38 --undefined-- 67.476
4.39 --undefined-- 67.363
4.40 104.014 66.691
4.41 105.240 66.060
4.42 109.335 65.631
4.43 116.596 65.324
4.44 118.661 65.251
4.45 121.563 65.587
4.46 128.356 66.386
4.47 135.652 67.260
4.48 140.209 67.862
4.49 142.321 67.964
4.50 145.738 67.594
4.51 151.070 67.291
4.52 155.414 67.426
4.53 157.014 67.851
4.54 157.332 68.257
4.55 157.013 68.510
4.56 155.945 68.622
4.57 154.946 68.576
4.58 155.164 68.367
4.59 155.803 67.676
4.60 157.145 66.000
4.61 153.897 62.975
4.62 152.789 58.346
4.63 155.309 52.325
4.64 153.683 46.237
4.65 150.519 43.580
4.66 --undefined-- 42.757
4.67 --undefined-- 44.116
4.68 --undefined-- 45.465
4.69 --undefined-- 46.055
4.70 --undefined-- 50.792
4.71 171.433 57.381
4.72 166.421 61.508
4.73 151.219 63.200
4.74 140.800 63.610
4.75 125.058 63.900
4.76 103.186 64.080
4.77 94.920 63.843
4.78 90.371 63.225
4.79 96.057 62.627
4.80 92.964 62.235
4.81 92.981 61.596
4.82 94.804 60.248
4.83 90.831 57.600
4.84 --undefined-- 53.737
4.85 --undefined-- 49.000
4.86 --undefined-- 42.932
4.87 --undefined-- 35.764
4.88 --undefined-- 34.626
4.89 --undefined-- 37.339
4.90 --undefined-- 40.625
4.91 --undefined-- 43.957
4.92 --undefined-- 46.686
4.93 --undefined-- 48.422
4.94 --undefined-- 49.415
4.95 --undefined-- 49.784
4.96 --undefined-- 53.896
4.97 --undefined-- 59.855
4.98 --undefined-- 63.255
4.99 --undefined-- 64.560
5.00 --undefined-- 64.781
5.01 --undefined-- 64.332
5.02 --undefined-- 62.844
5.03 --undefined-- 60.265
5.04 --undefined-- 58.498
5.05 --undefined-- 57.708
5.06 --undefined-- 54.582
5.07 --undefined-- 47.679
5.08 --undefined-- 40.696
5.09 --undefined-- 39.528
5.10 --undefined-- 39.134
5.11 --undefined-- 38.323
5.12 --undefined-- 35.991
5.13 --undefined-- 34.612
5.14 --undefined-- 35.771
5.15 --undefined-- 37.496
5.16 --undefined-- 40.795
5.17 --undefined-- 45.473
5.18 --undefined-- 49.254
5.19 --undefined-- 51.009
5.20 --undefined-- 54.073
5.21 197.620 61.489
5.22 197.058 66.693
5.23 183.212 69.100
5.24 181.081 69.699
5.25 177.199 69.331
5.26 174.239 68.562
5.27 172.501 68.189
5.28 171.510 68.436
5.29 168.059 68.491
5.30 169.115 68.127
5.31 173.395 67.499
5.32 172.815 66.507
5.33 168.836 64.945
5.34 164.030 62.529
5.35 158.325 58.524
5.36 --undefined-- 52.753
5.37 --undefined-- 47.692
5.38 --undefined-- 45.633
5.39 --undefined-- 46.059
5.40 --undefined-- 54.134
5.41 --undefined-- 61.421
5.42 161.128 65.402
5.43 147.197 67.079
5.44 134.642 67.401
5.45 124.989 67.277
5.46 121.905 67.404
5.47 120.583 67.678
5.48 121.503 67.766
5.49 125.278 67.658
5.50 131.718 67.666
5.51 135.062 67.984
5.52 137.430 68.210
5.53 139.479 --undefined--
5.54 142.503 --undefined--
5.55 --undefined-- --undefined--
5.56 --undefined-- --undefined--
