Time Pitch Intensity
0.01 --undefined-- --undefined--
0.02 150.026 --undefined--
0.03 152.904 --undefined--
0.04 154.156 --undefined--
0.05 152.510 67.720
0.06 299.238 67.640
0.07 293.791 67.689
0.08 286.342 67.501
0.09 276.293 66.948
0.10 --undefined-- 66.081
0.11 --undefined-- 64.137
0.12 --undefined-- 60.138
0.13 --undefined-- 54.424
0.14 --undefined-- 49.597
0.15 --undefined-- 47.252
0.16 --undefined-- 45.801
0.17 --undefined-- 44.621
0.18 --undefined-- 44.175
0.19 --undefined-- 44.174
0.20 --undefined-- 43.680
0.21 --undefined-- 50.042
0.22 --undefined-- 60.895
0.23 --undefined-- 67.511
0.24 --undefined-- 70.700
0.25 174.744 71.408
0.26 173.787 70.953
0.27 172.556 70.232
0.28 166.137 68.795
0.29 162.651 67.670
0.30 160.876 67.986
0.31 158.598 68.418
0.32 157.007 68.537
0.33 156.337 68.556
0.34 155.451 68.498
0.35 154.829 68.476
0.36 154.497 68.495
0.37 154.460 68.462
0.38 153.986 68.305
0.39 154.527 68.044
0.40 156.045 67.837
0.41 157.271 67.956
0.42 159.417 68.707
0.43 160.977 69.917
0.44 161.935 70.986
0.45 162.701 70.980
0.46 164.602 69.284
0.47 176.091 66.606
0.48 182.204 65.048
0.49 194.820 63.720
0.50 107.720 62.679
0.51 113.509 64.214
0.52 119.894 67.449
0.53 128.152 70.227
0.54 135.796 71.351
0.55 146.114 71.117
0.56 160.966 70.898
0.57 165.601 70.473
0.58 166.667 68.191
0.59 --undefined-- 63.010
0.60 --undefined-- 55.056
0.61 --undefined-- 49.969
0.62 --undefined-- 48.967
0.63 --undefined-- 50.269
0.64 --undefined-- 54.831
0.65 --undefined-- 59.650
0.66 --undefined-- 64.559
0.67 --undefined-- 67.077
0.68 --undefined-- 65.738
0.69 --undefined-- 60.149
0.70 --undefined-- 50.948
0.71 --undefined-- 53.969
0.72 --undefined-- 63.176
0.73 --undefined-- 69.377
0.74 --undefined-- 72.366
0.75 206.433 73.062
0.76 209.014 72.685
0.77 211.932 72.370
0.78 213.573 72.305
0.79 213.035 72.021
0.80 212.630 71.025
0.81 210.532 68.751
0.82 206.939 64.627
0.83 --undefined-- 58.018
0.84 --undefined-- 49.749
0.85 --undefined-- 46.716
0.86 --undefined-- 48.148
0.87 --undefined-- 52.566
0.88 --undefined-- 60.548
0.89 --undefined-- 67.017
0.90 167.271 70.638
0.91 161.358 71.743
0.92 156.233 71.148
0.93 152.327 70.038
0.94 150.507 68.852
0.95 149.705 67.427
0.96 150.004 66.004
0.97 150.206 64.404
0.98 152.243 62.198
0.99 157.206 59.998
1.00 168.768 60.055
1.01 181.129 62.958
1.02 188.385 66.035
1.03 195.350 68.205
1.04 198.435 69.259
1.05 202.290 69.136
1.06 205.334 68.012
1.07 206.502 66.406
1.08 209.728 64.211
1.09 --undefined-- 61.749
1.10 --undefined-- 61.511
1.11 --undefined-- 62.489
1.12 --undefined-- 62.931
1.13 --undefined-- 62.850
1.14 --undefined-- 62.987
1.15 --undefined-- 62.786
1.16 --undefined-- 60.925
1.17 --undefined-- 59.747
1.18 --undefined-- 61.940
1.19 --undefined-- 66.556
1.20 186.557 70.506
1.21 179.764 71.937
1.22 171.394 70.613
1.23 --undefined-- 66.491
1.24 --undefined-- 61.786
1.25 --undefined-- 60.887
1.26 149.324 61.401
1.27 152.124 61.746
1.28 153.997 61.272
1.29 159.033 60.962
1.30 167.845 61.334
1.31 178.062 61.970
1.32 186.287 62.663
1.33 191.695 62.343
1.34 197.703 59.497
1.35 --undefined-- 53.892
1.36 --undefined-- 49.273
1.37 --undefined-- 51.611
1.38 --undefined-- 59.850
1.39 --undefined-- 64.686
1.40 --undefined-- 65.495
1.41 --undefined-- 64.068
1.42 --undefined-- 63.335
1.43 --undefined-- 62.522
1.44 --undefined-- 60.921
1.45 --undefined-- 61.987
1.46 --undefined-- 67.168
1.47 --undefined-- 70.836
1.48 --undefined-- 72.064
1.49 --undefined-- 71.300
1.50 --undefined-- 69.143
1.51 --undefined-- 66.951
1.52 --undefined-- 65.000
1.53 --undefined-- 61.756
1.54 --undefined-- 58.005
1.55 --undefined-- 54.546
1.56 --undefined-- 51.444
1.57 --undefined-- 48.693
1.58 --undefined-- 47.125
1.59 --undefined-- 46.486
1.60 --undefined-- 46.351
1.61 --undefined-- 46.949
1.62 --undefined-- 48.573
1.63 --undefined-- 51.144
1.64 --undefined-- 52.446
1.65 --undefined-- 52.878
1.66 --undefined-- 53.347
1.67 --undefined-- 56.739
1.68 --undefined-- 61.889
1.69 144.666 65.013
1.70 138.885 66.497
1.71 134.209 67.357
1.72 134.017 67.550
1.73 135.130 66.880
1.74 135.695 65.729
1.75 --undefined-- 63.984
1.76 --undefined-- 61.616
1.77 --undefined-- 58.909
1.78 132.398 57.141
1.79 131.754 55.749
1.80 130.863 53.216
1.81 --undefined-- 51.165
1.82 --undefined-- 55.330
1.83 --undefined-- 59.667
1.84 170.049 62.339
1.85 171.863 64.130
1.86 174.518 65.137
1.87 178.444 65.806
1.88 182.174 66.243
1.89 185.254 66.213
1.90 189.273 66.056
1.91 192.041 66.311
1.92 192.718 67.139
1.93 192.059 68.219
1.94 189.681 69.225
1.95 186.618 70.032
1.96 182.950 70.456
1.97 178.655 70.194
1.98 172.168 69.083
1.99 165.426 67.335
2.00 160.650 64.642
2.01 156.602 59.860
2.02 --undefined-- 52.619
2.03 --undefined-- 49.898
2.04 --undefined-- 57.881
2.05 --undefined-- 65.643
2.06 --undefined-- 69.945
2.07 --undefined-- 70.482
2.08 --undefined-- 67.556
2.09 143.270 65.382
2.10 144.719 67.894
2.11 142.888 69.733
2.12 140.991 70.390
2.13 139.904 70.322
2.14 139.481 70.011
2.15 140.095 69.818
2.16 141.828 69.648
2.17 144.152 69.329
2.18 147.418 68.761
2.19 149.697 67.371
2.20 155.149 65.144
2.21 162.502 63.945
2.22 165.551 64.049
2.23 166.685 64.048
2.24 165.246 64.243
2.25 162.126 65.279
2.26 156.402 66.260
2.27 149.888 67.031
2.28 145.115 68.118
2.29 141.149 69.130
2.30 137.524 69.704
2.31 134.679 69.513
2.32 133.208 67.852
2.33 --undefined-- 63.754
2.34 --undefined-- 56.486
2.35 --undefined-- 47.890
2.36 --undefined-- 44.119
2.37 --undefined-- 43.443
2.38 --undefined-- 42.927
2.39 --undefined-- 41.143
2.40 --undefined-- 39.701
2.41 --undefined-- 40.606
2.42 --undefined-- 41.062
2.43 --undefined-- 48.276
2.44 --undefined-- 60.936
2.45 --undefined-- 68.892
2.46 --undefined-- 72.651
2.47 199.125 72.988
2.48 201.222 70.496
2.49 203.483 65.468
2.50 --undefined-- 58.233
2.51 --undefined-- 52.281
2.52 --undefined-- 49.910
2.53 --undefined-- 47.112
2.54 --undefined-- 44.185
2.55 --undefined-- 46.185
2.56 --undefined-- 56.222
2.57 --undefined-- 62.192
2.58 --undefined-- 63.567
2.59 --undefined-- 61.132
2.60 --undefined-- 57.719
2.61 --undefined-- 57.018
2.62 --undefined-- 56.427
2.63 --undefined-- 55.923
2.64 --undefined-- 57.184
2.65 --undefined-- 58.198
2.66 --undefined-- 57.784
2.67 --undefined-- 56.879
2.68 --undefined-- 56.421
2.69 --undefined-- 57.761
2.70 --undefined-- 59.636
2.71 --undefined-- 60.023
2.72 --undefined-- 62.928
2.73 --undefined-- 67.587
2.74 172.187 69.938
2.75 159.716 70.374
2.76 153.065 69.539
2.77 149.547 67.224
2.78 140.898 65.588
2.79 137.958 66.234
2.80 134.568 66.245
2.81 131.988 65.334
2.82 130.190 64.424
2.83 129.342 63.723
2.84 128.150 62.901
2.85 127.944 62.138
2.86 127.568 61.002
2.87 126.889 58.743
2.88 128.225 55.344
2.89 --undefined-- 53.510
2.90 140.726 55.204
2.91 139.806 56.497
2.92 139.147 56.439
2.93 136.815 54.962
2.94 --undefined-- 51.926
2.95 --undefined-- 47.990
2.96 --undefined-- 47.164
2.97 --undefined-- 51.915
2.98 --undefined-- 59.242
2.99 --undefined-- 64.052
3.00 --undefined-- 64.841
3.01 --undefined-- 63.113
3.02 --undefined-- 65.222
3.03 143.518 68.592
3.04 141.066 70.193
3.05 138.004 70.377
3.06 135.837 69.792
3.07 133.297 68.826
3.08 130.868 68.057
3.09 129.340 67.843
3.10 129.105 67.402
3.11 130.046 66.099
3.12 132.059 63.654
3.13 133.632 60.172
3.14 138.000 57.680
3.15 143.097 57.508
3.16 147.752 58.283
3.17 153.166 58.787
3.18 156.402 58.912
3.19 165.696 58.789
3.20 177.543 58.601
3.21 185.544 58.022
3.22 --undefined-- 56.213
3.23 --undefined-- 55.196
3.24 --undefined-- 58.350
3.25 --undefined-- 61.024
3.26 --undefined-- 60.803
3.27 --undefined-- 57.717
3.28 --undefined-- 52.738
3.29 --undefined-- 51.035
3.30 --undefined-- 52.687
3.31 --undefined-- 53.542
3.32 --undefined-- 55.358
3.33 --undefined-- 60.476
3.34 --undefined-- 67.656
3.35 --undefined-- 72.398
3.36 213.007 74.030
3.37 201.921 73.126
3.38 193.872 70.223
3.39 189.425 65.300
3.40 187.110 60.719
3.41 184.646 60.321
3.42 182.501 59.701
3.43 180.788 58.177
3.44 179.052 56.441
3.45 177.747 54.953
3.46 177.490 53.546
3.47 176.958 52.510
3.48 178.703 51.775
3.49 181.554 51.296
3.50 182.068 50.757
3.51 180.482 49.398
3.52 --undefined-- 47.066
3.53 --undefined-- 45.110
3.54 --undefined-- 44.207
3.55 --undefined-- 43.008
3.56 --undefined-- 41.267
3.57 --undefined-- 39.598
3.58 --undefined-- 38.658
3.59 --undefined-- 38.185
3.60 --undefined-- 38.029
3.61 --undefined-- 38.467
3.62 --undefined-- 38.841
3.63 --undefined-- 39.032
3.64 --undefined-- 39.542
3.65 --undefined-- 40.193
3.66 --undefined-- 40.232
3.67 --undefined-- 39.956
3.68 --undefined-- 41.151
3.69 --undefined-- 43.971
3.70 --undefined-- 44.803
3.71 --undefined-- 43.373
3.72 --undefined-- 43.089
3.73 --undefined-- 44.309
3.74 --undefined-- 44.714
3.75 --undefined-- 44.136
3.76 --undefined-- 43.382
3.77 --undefined-- 43.354
3.78 --undefined-- 43.659
3.79 --undefined-- 43.781
3.80 --undefined-- 43.529
3.81 --undefined-- 43.407
3.82 --undefined-- 43.362
3.83 --undefined-- 42.939
3.84 --undefined-- 41.641
3.85 --undefined-- 39.513
3.86 --undefined-- 38.943
3.87 --undefined-- 40.068
3.88 --undefined-- 40.915
3.89 --undefined-- 40.348
3.90 --undefined-- 38.894
3.91 --undefined-- 38.181
3.92 --undefined-- 38.107
3.93 --undefined-- 38.360
3.94 --undefined-- 39.408
3.95 --undefined-- 41.374
3.96 --undefined-- 44.677
3.97 --undefined-- 49.094
3.98 --undefined-- 53.826
3.99 --undefined-- 61.209
4.00 243.544 68.456
4.01 236.071 72.347
4.02 223.491 73.431
4.03 214.516 73.290
4.04 209.307 73.230
4.05 203.917 72.950
4.06 197.629 72.239
4.07 189.005 71.612
4.08 182.210 71.434
4.09 175.311 71.263
4.10 170.643 70.700
4.11 166.444 69.923
4.12 163.653 69.567
4.13 162.856 69.798
4.14 162.637 69.673
4.15 161.781 67.899
4.16 161.451 63.557
4.17 163.566 56.521
4.18 163.987 50.143
4.19 164.632 48.648
4.20 --undefined-- 47.003
4.21 --undefined-- 45.038
4.22 --undefined-- 51.883
4.23 --undefined-- 63.192
4.24 225.252 70.034
4.25 217.561 72.756
4.26 210.280 71.898
4.27 206.696 67.938
4.28 205.231 61.466
4.29 --undefined-- 53.154
4.30 --undefined-- 47.346
4.31 --undefined-- 47.066
4.32 --undefined-- 46.853
4.33 --undefined-- 50.854
4.34 --undefined-- 57.812
4.35 --undefined-- 61.503
4.36 --undefined-- 64.059
4.37 234.772 69.149
4.38 225.981 72.553
4.39 216.692 73.125
4.40 211.464 71.470
4.41 212.833 69.066
4.42 210.806 67.721
4.43 206.362 67.039
4.44 203.259 66.040
4.45 202.309 64.608
4.46 201.606 62.532
4.47 201.421 59.990
4.48 --undefined-- 58.937
4.49 --undefined-- 59.713
4.50 --undefined-- 60.362
4.51 --undefined-- 60.353
4.52 --undefined-- 59.771
4.53 --undefined-- 59.360
4.54 --undefined-- 63.375
4.55 --undefined-- 67.904
4.56 195.749 70.515
4.57 182.037 71.518
4.58 169.574 71.312
4.59 159.947 70.828
4.60 154.728 70.593
4.61 149.912 70.194
4.62 146.638 69.560
4.63 143.624 68.889
4.64 140.805 67.954
4.65 139.795 66.540
4.66 139.342 64.396
4.67 138.604 61.291
4.68 139.287 57.251
4.69 --undefined-- 54.863
4.70 --undefined-- 55.464
4.71 296.939 56.236
4.72 295.780 56.451
4.73 295.237 56.365
4.74 290.145 56.871
4.75 284.717 57.897
4.76 --undefined-- 60.918
4.77 --undefined-- 65.693
4.78 --undefined-- 68.948
4.79 144.190 70.411
4.80 140.309 70.532
4.81 138.025 70.001
4.82 136.861 69.564
4.83 136.196 69.177
4.84 135.317 68.776
4.85 135.487 68.620
4.86 136.877 68.880
4.87 138.109 69.063
4.88 139.385 68.818
4.89 141.052 68.297
4.90 142.305 67.728
4.91 143.401 67.035
4.92 145.262 66.092
4.93 147.752 65.157
4.94 152.335 64.814
4.95 157.717 65.745
4.96 162.096 66.490
4.97 168.436 65.905
4.98 182.237 65.554
4.99 187.771 66.495
5.00 191.413 67.076
5.01 191.741 66.589
5.02 189.442 65.086
5.03 190.672 62.738
5.04 187.112 58.943
5.05 187.638 53.154
5.06 --undefined-- 47.624
5.07 --undefined-- 44.213
5.08 --undefined-- 40.752
5.09 --undefined-- 39.408
5.10 --undefined-- 40.316
5.11 --undefined-- 40.807
5.12 --undefined-- 40.690
5.13 --undefined-- 40.350
5.14 --undefined-- 40.817
5.15 --undefined-- 42.340
5.16 --undefined-- 44.152
5.17 --undefined-- 54.445
5.18 --undefined-- 64.175
5.19 --undefined-- 68.914
5.20 --undefined-- 69.456
5.21 --undefined-- 66.168
5.22 --undefined-- 61.898
5.23 169.958 64.864
5.24 162.052 68.568
5.25 155.100 70.885
5.26 149.264 71.616
5.27 144.529 71.102
5.28 142.712 70.310
5.29 142.815 69.940
5.30 143.669 69.877
5.31 144.666 69.840
5.32 146.286 69.712
5.33 148.205 69.189
5.34 150.999 67.967
5.35 154.118 65.948
5.36 157.593 --undefined--
5.37 161.037 --undefined--
5.38 --undefined-- --undefined--
5.39 --undefined-- --undefined--
