Time Pitch Intensity
0.01 --undefined-- --undefined--
0.02 259.146 --undefined--
0.03 258.228 --undefined--
0.04 256.892 --undefined--
0.05 251.977 61.649
0.06 242.900 58.819
0.07 235.902 54.698
0.08 238.153 51.152
0.09 --undefined-- 50.936
0.10 --undefined-- 51.000
0.11 --undefined-- 50.086
0.12 --undefined-- 51.600
0.13 --undefined-- 53.302
0.14 --undefined-- 54.353
0.15 --undefined-- 57.648
0.16 247.763 62.719
0.17 240.561 66.851
0.18 236.405 69.221
0.19 232.734 70.048
0.20 230.833 69.872
0.21 229.714 69.112
0.22 227.821 68.058
0.23 226.513 66.886
0.24 227.319 65.824
0.25 228.660 65.296
0.26 229.684 65.000
0.27 229.340 64.709
0.28 228.886 64.417
0.29 229.275 64.141
0.30 230.082 64.043
0.31 231.454 64.158
0.32 233.236 64.363
0.33 235.669 64.534
0.34 237.894 64.681
0.35 240.107 64.591
0.36 241.791 64.160
0.37 242.392 63.558
0.38 241.702 62.787
0.39 240.566 60.961
0.40 237.090 57.148
0.41 244.827 53.679
0.42 --undefined-- 54.807
0.43 --undefined-- 55.917
0.44 --undefined-- 54.159
0.45 --undefined-- 51.725
0.46 --undefined-- 52.746
0.47 286.744 53.654
0.48 282.310 52.817
0.49 --undefined-- 53.783
0.50 --undefined-- 59.038
0.51 166.142 63.464
0.52 163.623 65.723
0.53 162.779 66.736
0.54 162.408 66.907
0.55 162.444 66.228
0.56 162.762 65.376
0.57 163.356 65.260
0.58 164.887 65.782
0.59 166.240 66.517
0.60 166.774 67.235
0.61 167.095 67.528
0.62 167.419 67.521
0.63 167.411 67.499
0.64 167.422 67.428
0.65 167.455 67.326
0.66 167.356 67.235
0.67 167.528 67.071
0.68 167.818 66.880
0.69 167.702 66.828
0.70 167.504 66.778
0.71 166.397 66.612
0.72 165.180 66.402
0.73 163.128 65.816
0.74 160.991 64.131
0.75 161.797 60.769
0.76 --undefined-- 56.416
0.77 --undefined-- 53.732
0.78 --undefined-- 53.658
0.79 --undefined-- 53.354
0.80 --undefined-- 52.003
0.81 --undefined-- 50.483
0.82 --undefined-- 50.558
0.83 --undefined-- 51.414
0.84 --undefined-- 55.884
0.85 265.416 62.830
0.86 259.348 66.940
0.87 239.505 68.492
0.88 230.151 68.659
0.89 223.483 68.541
0.90 219.438 68.708
0.91 216.470 68.738
0.92 213.837 68.277
0.93 211.698 67.474
0.94 209.953 66.135
0.95 209.405 64.593
0.96 209.359 64.036
0.97 207.737 64.400
0.98 206.694 65.105
0.99 205.477 65.948
1.00 204.903 66.762
1.01 205.971 67.240
1.02 207.424 66.970
1.03 209.238 65.960
1.04 209.894 65.191
1.05 210.025 65.224
1.06 210.634 65.511
1.07 211.457 65.206
1.08 212.600 63.269
1.09 197.627 59.293
1.10 198.606 54.467
1.11 --undefined-- 52.050
1.12 --undefined-- 51.332
1.13 --undefined-- 49.134
1.14 --undefined-- 47.328
1.15 --undefined-- 48.327
1.16 --undefined-- 51.301
1.17 --undefined-- 51.972
1.18 --undefined-- 48.996
1.19 --undefined-- 46.225
1.20 --undefined-- 48.231
1.21 --undefined-- 49.293
1.22 --undefined-- 53.926
1.23 --undefined-- 61.212
1.24 --undefined-- 65.371
1.25 211.906 66.797
1.26 204.859 67.108
1.27 201.588 67.336
1.28 199.565 67.261
1.29 200.591 66.679
1.30 204.241 65.685
1.31 208.024 64.206
1.32 210.477 62.339
1.33 213.050 60.865
1.34 211.993 59.453
1.35 213.601 57.443
1.36 --undefined-- 55.346
1.37 --undefined-- 52.671
1.38 --undefined-- 49.478
1.39 --undefined-- 47.478
1.40 --undefined-- 46.854
1.41 --undefined-- 50.781
1.42 --undefined-- 54.693
1.43 --undefined-- 55.337
1.44 --undefined-- 52.920
1.45 --undefined-- 50.934
1.46 --undefined-- 50.669
1.47 --undefined-- 48.569
1.48 --undefined-- 47.796
1.49 --undefined-- 51.351
1.50 --undefined-- 54.286
1.51 --undefined-- 55.729
1.52 --undefined-- 55.241
1.53 --undefined-- 54.931
1.54 --undefined-- 55.367
1.55 267.738 55.364
1.56 273.334 58.430
1.57 270.360 62.284
1.58 259.783 64.523
1.59 259.593 65.667
1.60 260.600 66.281
1.61 262.229 66.615
1.62 264.022 66.759
1.63 265.962 66.466
1.64 267.481 65.876
1.65 268.831 65.560
1.66 269.732 65.631
1.67 270.522 65.930
1.68 270.511 66.253
1.69 269.587 66.173
1.70 268.611 65.599
1.71 268.484 65.023
1.72 269.565 64.723
1.73 270.310 64.743
1.74 270.489 65.045
1.75 270.913 65.348
1.76 272.061 65.454
1.77 272.817 65.234
1.78 271.876 64.297
1.79 267.399 62.022
1.80 250.977 57.871
1.81 250.181 52.852
1.82 269.277 52.370
1.83 269.866 54.033
1.84 --undefined-- 53.937
1.85 --undefined-- 52.445
1.86 --undefined-- 50.324
1.87 --undefined-- 49.311
1.88 --undefined-- 49.885
1.89 --undefined-- 50.273
1.90 --undefined-- 52.966
1.91 --undefined-- 56.180
1.92 --undefined-- 58.146
1.93 239.239 60.645
1.94 223.899 62.998
1.95 211.208 64.205
1.96 203.536 64.802
1.97 198.767 65.491
1.98 196.608 66.263
1.99 195.084 66.761
2.00 193.508 66.940
2.01 192.258 66.845
2.02 192.329 66.695
2.03 193.404 66.554
2.04 194.600 66.351
2.05 195.697 66.022
2.06 195.819 65.250
2.07 193.774 63.407
2.08 191.490 59.889
2.09 193.921 55.378
2.10 --undefined-- 52.207
2.11 --undefined-- 49.690
2.12 --undefined-- 47.628
2.13 --undefined-- 49.577
2.14 --undefined-- 55.738
2.15 --undefined-- 60.267
2.16 202.858 62.625
2.17 199.171 63.807
2.18 196.137 64.604
2.19 192.587 65.264
2.20 189.533 65.664
2.21 188.363 65.924
2.22 188.622 66.424
2.23 190.607 66.887
2.24 192.709 66.969
2.25 194.607 66.537
2.26 192.730 65.132
2.27 190.853 62.171
2.28 194.203 57.906
2.29 194.376 54.192
2.30 192.134 53.994
2.31 191.153 55.837
2.32 --undefined-- 55.616
2.33 --undefined-- 52.616
2.34 --undefined-- 49.562
2.35 --undefined-- 51.554
2.36 --undefined-- 53.397
2.37 --undefined-- 54.101
2.38 260.292 54.436
2.39 256.785 56.434
2.40 250.300 59.686
2.41 248.617 62.256
2.42 243.810 64.002
2.43 244.068 65.419
2.44 245.534 66.651
2.45 246.223 67.715
2.46 243.476 68.804
2.47 241.065 70.059
2.48 240.506 70.889
2.49 242.409 70.483
2.50 247.794 68.655
2.51 250.476 66.546
2.52 250.588 65.686
2.53 251.127 65.351
2.54 252.134 64.608
2.55 250.959 63.275
2.56 248.603 61.226
2.57 244.656 58.195
2.58 247.103 54.529
2.59 247.085 52.752
2.60 250.053 52.956
2.61 --undefined-- 53.665
2.62 --undefined-- 53.171
2.63 --undefined-- 50.567
2.64 --undefined-- 48.174
2.65 --undefined-- 49.483
2.66 --undefined-- 49.713
2.67 --undefined-- 48.090
2.68 --undefined-- 47.807
2.69 --undefined-- 49.039
2.70 --undefined-- 51.437
2.71 277.585 56.173
2.72 265.972 59.563
2.73 258.999 61.101
2.74 253.202 62.093
2.75 246.413 63.052
2.76 242.242 63.895
2.77 239.846 64.688
2.78 240.294 65.365
2.79 241.766 65.432
2.80 244.040 65.070
2.81 246.128 64.886
2.82 248.069 64.881
2.83 250.515 64.799
2.84 252.298 64.653
2.85 253.952 65.074
2.86 257.667 65.656
2.87 256.670 65.575
2.88 254.904 65.146
2.89 251.688 64.190
2.90 246.230 61.815
2.91 244.557 58.793
2.92 --undefined-- 57.866
2.93 --undefined-- 56.975
2.94 --undefined-- 55.404
2.95 --undefined-- 55.649
2.96 --undefined-- 57.190
2.97 260.292 59.741
2.98 217.498 62.000
2.99 200.935 63.160
3.00 190.491 63.093
3.01 179.857 61.516
3.02 159.799 58.974
3.03 159.662 56.496
3.04 162.337 54.983
3.05 174.337 56.669
3.06 170.919 60.169
3.07 169.724 62.108
3.08 171.668 62.434
3.09 171.879 62.428
3.10 175.906 63.413
3.11 180.466 64.761
3.12 178.331 65.011
3.13 174.154 63.378
3.14 --undefined-- 59.413
3.15 --undefined-- 54.126
3.16 --undefined-- 52.319
3.17 --undefined-- 52.231
3.18 --undefined-- 54.638
3.19 --undefined-- 57.556
3.20 --undefined-- 60.543
3.21 192.105 63.676
3.22 186.366 65.584
3.23 182.446 66.164
3.24 182.234 65.624
3.25 182.724 63.713
3.26 183.990 60.232
3.27 184.478 56.504
3.28 186.892 53.431
3.29 188.873 51.192
3.30 190.216 53.662
3.31 --undefined-- 56.011
3.32 --undefined-- 56.356
3.33 --undefined-- 57.174
3.34 --undefined-- 60.810
3.35 235.177 64.726
3.36 232.281 67.060
3.37 230.535 67.735
3.38 231.780 67.492
3.39 233.134 67.175
3.40 233.514 66.811
3.41 234.377 66.427
3.42 236.112 66.333
3.43 237.485 66.341
3.44 239.361 66.048
3.45 241.542 65.544
3.46 242.487 65.167
3.47 243.459 64.843
3.48 245.654 64.466
3.49 248.786 64.090
3.50 250.208 63.958
3.51 249.010 63.989
3.52 247.005 63.484
3.53 243.769 61.599
3.54 238.876 57.712
3.55 --undefined-- 52.018
3.56 --undefined-- 48.670
3.57 --undefined-- 51.519
3.58 --undefined-- 54.122
3.59 226.283 55.801
3.60 218.192 57.074
3.61 216.840 57.518
3.62 189.343 57.350
3.63 188.696 57.271
3.64 202.189 57.728
3.65 179.363 58.841
3.66 181.462 60.444
3.67 181.302 61.961
3.68 177.470 63.042
3.69 173.805 63.722
3.70 171.253 64.165
3.71 168.299 64.246
3.72 165.605 63.677
3.73 163.324 62.668
3.74 160.510 61.835
3.75 158.143 61.346
3.76 155.053 61.160
3.77 153.533 61.338
3.78 153.221 61.549
3.79 153.839 61.418
3.80 155.631 61.156
3.81 158.820 61.011
3.82 160.722 60.449
3.83 160.912 59.141
3.84 160.337 57.644
3.85 158.535 56.388
3.86 156.533 56.212
3.87 156.667 57.128
3.88 157.644 57.644
3.89 158.142 58.393
3.90 158.840 59.214
3.91 159.853 59.500
3.92 160.199 59.228
3.93 160.954 58.944
3.94 162.858 59.066
3.95 164.272 59.191
3.96 167.519 59.711
3.97 170.674 60.733
3.98 174.168 62.105
3.99 182.803 63.858
4.00 189.074 65.676
4.01 191.188 66.510
4.02 194.032 65.864
4.03 195.214 63.775
4.04 194.722 60.626
4.05 201.952 57.696
4.06 --undefined-- 56.183
4.07 --undefined-- 53.404
4.08 --undefined-- 49.724
4.09 --undefined-- 49.847
4.10 --undefined-- 52.063
4.11 --undefined-- 54.589
4.12 --undefined-- 56.168
4.13 --undefined-- 55.929
4.14 --undefined-- 56.348
4.15 201.613 61.200
4.16 194.671 65.666
4.17 185.826 68.165
4.18 178.052 68.563
4.19 174.311 67.123
4.20 173.952 64.608
4.21 174.333 61.301
4.22 173.495 57.314
4.23 173.568 53.364
4.24 173.942 51.214
4.25 173.996 51.631
4.26 --undefined-- 56.653
4.27 252.837 62.530
4.28 240.368 65.841
4.29 239.983 67.049
4.30 240.827 66.980
4.31 242.070 66.150
4.32 240.510 65.189
4.33 238.538 65.144
4.34 236.916 65.529
4.35 234.018 65.539
4.36 230.432 65.389
4.37 226.283 65.276
4.38 222.092 65.127
4.39 216.608 64.894
4.40 210.294 64.305
4.41 203.037 63.674
4.42 189.464 64.249
4.43 181.914 65.079
4.44 175.586 64.543
4.45 165.853 63.501
4.46 163.178 63.950
4.47 163.901 65.140
4.48 166.665 66.361
4.49 169.093 67.464
4.50 169.411 68.343
4.51 169.256 69.027
4.52 168.450 69.287
4.53 169.227 69.135
4.54 170.831 68.725
4.55 173.917 68.452
4.56 178.609 68.729
4.57 182.871 68.940
4.58 184.989 68.589
4.59 185.016 68.060
4.60 188.968 67.930
4.61 194.614 67.977
4.62 197.008 67.433
4.63 198.485 66.541
4.64 196.464 66.070
4.65 192.951 65.765
4.66 187.222 64.621
4.67 180.324 62.055
4.68 193.552 58.448
4.69 196.766 55.115
4.70 --undefined-- 51.621
4.71 --undefined-- 48.417
4.72 --undefined-- 46.511
4.73 --undefined-- 46.128
4.74 --undefined-- 47.690
4.75 --undefined-- 49.219
4.76 --undefined-- 49.402
4.77 --undefined-- 50.738
4.78 --undefined-- 53.595
4.79 --undefined-- 54.219
4.80 --undefined-- 52.567
4.81 --undefined-- 51.798
4.82 --undefined-- 51.977
4.83 --undefined-- 52.573
4.84 --undefined-- 54.078
4.85 --undefined-- 54.720
4.86 290.007 53.390
4.87 291.070 49.648
4.88 --undefined-- 46.623
4.89 --undefined-- 48.355
4.90 --undefined-- 51.601
4.91 --undefined-- 53.317
4.92 290.462 52.875
4.93 289.467 52.618
4.94 --undefined-- 53.681
4.95 --undefined-- 53.931
4.96 --undefined-- 54.550
4.97 --undefined-- --undefined--
4.98 --undefined-- --undefined--
4.99 --undefined-- --undefined--
5.00 --undefined-- --undefined--
