Time Pitch Intensity
0.01 --undefined-- --undefined--
0.02 130.356 --undefined--
0.03 132.947 --undefined--
0.04 143.845 --undefined--
0.05 124.036 72.006
0.06 118.275 69.329
0.07 108.547 67.427
0.08 116.744 68.530
0.09 124.574 70.988
0.10 128.725 73.322
0.11 132.980 75.068
0.12 132.935 76.107
0.13 130.365 76.374
0.14 125.943 76.012
0.15 121.783 75.482
0.16 122.090 75.275
0.17 122.701 75.414
0.18 123.230 75.661
0.19 124.325 75.857
0.20 124.596 75.757
0.21 124.885 75.273
0.22 125.181 74.480
0.23 126.683 73.529
0.24 129.852 72.620
0.25 131.493 71.628
0.26 131.911 70.235
0.27 131.850 68.397
0.28 131.795 66.475
0.29 132.025 64.797
0.30 131.514 63.159
0.31 132.425 61.434
0.32 132.629 59.728
0.33 132.075 58.631
0.34 136.593 59.961
0.35 144.427 63.646
0.36 148.378 67.119
0.37 154.082 69.778
0.38 159.021 71.886
0.39 163.435 73.383
0.40 169.268 74.138
0.41 175.778 74.550
0.42 180.922 75.381
0.43 183.413 76.500
0.44 185.829 77.264
0.45 188.202 77.700
0.46 188.294 78.318
0.47 186.605 79.108
0.48 184.929 79.684
0.49 183.348 80.015
0.50 181.647 80.254
0.51 180.189 80.396
0.52 178.822 80.387
0.53 176.991 80.256
0.54 174.554 79.994
0.55 171.514 79.537
0.56 166.525 78.929
0.57 159.281 78.310
0.58 152.704 77.882
0.59 147.169 78.315
0.60 144.998 79.597
0.61 144.504 80.122
0.62 140.999 79.418
0.63 139.760 78.235
0.64 132.786 77.166
0.65 123.655 76.878
0.66 122.690 77.082
0.67 119.586 76.637
0.68 116.244 75.488
0.69 113.232 74.625
0.70 112.319 73.925
0.71 108.638 72.016
0.72 100.566 68.793
0.73 100.330 65.153
0.74 97.683 61.268
0.75 100.374 57.550
0.76 100.279 55.217
0.77 --undefined-- 53.361
0.78 --undefined-- 52.064
0.79 --undefined-- 57.344
0.80 --undefined-- 64.232
0.81 --undefined-- 68.335
0.82 102.280 70.248
0.83 99.377 70.844
0.84 97.469 70.705
0.85 94.750 70.384
0.86 93.665 70.017
0.87 93.502 69.459
0.88 96.932 68.834
0.89 90.758 68.349
0.90 96.091 68.158
0.91 91.568 67.998
0.92 94.278 67.821
0.93 95.980 67.870
0.94 97.354 68.136
0.95 98.061 68.600
0.96 101.740 69.356
0.97 107.622 70.662
0.98 114.204 72.441
0.99 118.643 74.126
1.00 124.576 75.404
1.01 130.934 76.372
1.02 132.916 77.178
1.03 134.148 77.745
1.04 134.786 77.881
1.05 135.410 77.551
1.06 135.171 76.939
1.07 134.553 76.074
1.08 133.069 74.779
1.09 129.049 72.917
1.10 130.899 69.854
1.11 130.794 64.689
1.12 136.122 57.908
1.13 133.276 54.956
1.14 130.685 55.176
1.15 --undefined-- 54.745
1.16 --undefined-- 54.225
1.17 --undefined-- 54.584
1.18 --undefined-- 55.223
1.19 --undefined-- 55.723
1.20 --undefined-- 56.325
1.21 --undefined-- 56.631
1.22 --undefined-- 56.536
1.23 --undefined-- 56.383
1.24 --undefined-- 55.910
1.25 --undefined-- 55.258
1.26 --undefined-- 54.966
1.27 --undefined-- 54.927
1.28 --undefined-- 54.447
1.29 --undefined-- 52.989
1.30 --undefined-- 51.045
1.31 --undefined-- 48.997
1.32 --undefined-- 45.914
1.33 --undefined-- 41.959
1.34 --undefined-- 37.999
1.35 --undefined-- 35.362
1.36 --undefined-- 36.059
1.37 --undefined-- 38.833
1.38 --undefined-- 45.505
1.39 --undefined-- 52.247
1.40 --undefined-- 57.137
1.41 --undefined-- 64.591
1.42 --undefined-- 71.705
1.43 140.557 75.698
1.44 135.700 77.095
1.45 129.375 77.101
1.46 125.638 76.963
1.47 122.391 76.915
1.48 120.958 76.777
1.49 120.108 76.600
1.50 119.540 76.547
1.51 119.249 76.797
1.52 118.409 76.861
1.53 118.175 76.160
1.54 119.056 74.999
1.55 119.201 74.101
1.56 117.399 73.105
1.57 115.369 71.227
1.58 115.473 68.743
1.59 117.686 66.699
1.60 118.678 65.642
1.61 119.909 65.648
1.62 122.573 67.051
1.63 124.477 70.253
1.64 127.853 74.126
1.65 129.208 76.970
1.66 130.858 78.320
1.67 132.092 78.514
1.68 133.234 78.129
1.69 133.869 77.664
1.70 134.119 77.387
1.71 133.852 77.261
1.72 132.976 77.115
1.73 131.298 76.608
1.74 128.056 75.148
1.75 122.183 72.443
1.76 121.441 69.211
1.77 125.465 65.637
1.78 129.593 61.240
1.79 128.918 57.108
1.80 --undefined-- 54.148
1.81 --undefined-- 52.174
1.82 --undefined-- 51.066
1.83 --undefined-- 50.297
1.84 --undefined-- 54.660
1.85 --undefined-- 61.870
1.86 114.963 66.350
1.87 113.506 68.668
1.88 110.315 69.867
1.89 107.939 70.568
1.90 107.333 71.151
1.91 109.138 71.591
1.92 110.448 71.346
1.93 109.538 69.942
1.94 108.592 67.040
1.95 --undefined-- 63.357
1.96 --undefined-- 62.753
1.97 --undefined-- 63.127
1.98 --undefined-- 62.046
1.99 --undefined-- 62.921
2.00 --undefined-- 69.105
2.01 --undefined-- 73.274
2.02 163.922 74.783
2.03 158.353 75.031
2.04 159.310 74.086
2.05 123.503 71.932
2.06 96.671 69.468
2.07 81.777 66.698
2.08 --undefined-- 63.913
2.09 --undefined-- 63.605
2.10 --undefined-- 65.029
2.11 --undefined-- 65.007
2.12 --undefined-- 63.072
2.13 --undefined-- 60.087
2.14 --undefined-- 57.421
2.15 --undefined-- 55.956
2.16 --undefined-- 55.660
2.17 --undefined-- 55.067
2.18 --undefined-- 54.370
2.19 --undefined-- 56.078
2.20 --undefined-- 60.025
2.21 --undefined-- 63.347
2.22 99.895 65.635
2.23 98.966 67.123
2.24 97.762 67.551
2.25 97.379 67.175
2.26 97.601 66.653
2.27 98.069 66.502
2.28 95.123 66.632
2.29 96.052 66.639
2.30 97.627 66.625
2.31 99.028 66.879
2.32 100.228 67.341
2.33 102.098 67.795
2.34 104.955 68.378
2.35 107.850 69.238
2.36 111.325 70.371
2.37 115.317 71.605
2.38 120.086 72.542
2.39 125.151 73.119
2.40 128.419 73.099
2.41 126.979 71.502
2.42 123.250 67.958
2.43 131.329 64.270
2.44 128.540 65.064
2.45 136.190 70.933
2.46 147.968 75.313
2.47 146.383 77.226
2.48 140.062 77.535
2.49 137.554 77.532
2.50 136.299 77.713
2.51 134.921 77.735
2.52 134.370 77.447
2.53 134.885 76.965
2.54 134.975 76.425
2.55 133.471 75.730
2.56 129.002 74.438
2.57 125.353 72.100
2.58 117.259 69.243
2.59 118.577 68.202
2.60 116.502 69.556
2.61 115.422 72.069
2.62 114.366 74.109
2.63 108.033 74.614
2.64 103.803 73.988
2.65 101.977 73.270
2.66 97.454 72.852
2.67 98.394 72.129
2.68 101.992 69.867
2.69 99.743 65.239
2.70 102.147 59.153
2.71 --undefined-- 54.008
2.72 --undefined-- 50.510
2.73 --undefined-- 48.691
2.74 --undefined-- 47.562
2.75 --undefined-- 46.653
2.76 --undefined-- 47.074
2.77 --undefined-- 49.140
2.78 --undefined-- 51.710
2.79 --undefined-- 54.291
2.80 --undefined-- 56.067
2.81 --undefined-- 56.613
2.82 --undefined-- 57.527
2.83 --undefined-- 59.544
2.84 --undefined-- 62.180
2.85 --undefined-- 64.719
2.86 --undefined-- 66.033
2.87 --undefined-- 66.404
2.88 --undefined-- 66.519
2.89 --undefined-- 66.682
2.90 --undefined-- 66.382
2.91 --undefined-- 65.837
2.92 --undefined-- 64.958
2.93 --undefined-- 63.415
2.94 --undefined-- 63.609
2.95 --undefined-- 65.888
2.96 99.137 67.353
2.97 98.007 68.062
2.98 95.120 68.373
2.99 94.859 68.343
3.00 92.879 68.128
3.01 91.859 67.695
3.02 89.873 66.716
3.03 88.548 64.679
3.04 91.900 62.032
3.05 96.659 62.425
3.06 102.472 65.602
3.07 106.334 68.388
3.08 108.715 70.257
3.09 110.956 71.596
3.10 112.754 72.651
3.11 114.047 73.513
3.12 117.599 74.320
3.13 122.056 75.220
3.14 125.218 76.208
3.15 128.683 77.117
3.16 130.476 77.798
3.17 133.958 78.340
3.18 138.075 78.668
3.19 134.016 78.446
3.20 128.628 77.934
3.21 125.655 77.478
3.22 121.798 76.811
3.23 118.688 75.790
3.24 114.690 74.764
3.25 110.256 73.729
3.26 106.968 72.557
3.27 101.619 71.620
3.28 100.756 70.653
3.29 93.648 69.303
3.30 95.032 67.914
3.31 77.364 66.228
3.32 84.544 64.026
3.33 --undefined-- 61.211
3.34 --undefined-- 58.056
3.35 --undefined-- 54.698
3.36 --undefined-- 51.030
3.37 --undefined-- 48.870
3.38 --undefined-- 48.426
3.39 --undefined-- 49.155
3.40 --undefined-- 49.840
3.41 --undefined-- 50.606
3.42 --undefined-- 50.896
3.43 --undefined-- 50.237
3.44 --undefined-- 49.851
3.45 --undefined-- 50.643
3.46 --undefined-- 51.581
3.47 --undefined-- 51.894
3.48 --undefined-- 51.729
3.49 --undefined-- 51.807
3.50 --undefined-- 52.230
3.51 --undefined-- 52.572
3.52 --undefined-- 52.879
3.53 --undefined-- 53.196
3.54 --undefined-- 53.613
3.55 --undefined-- 54.050
3.56 --undefined-- 54.039
3.57 --undefined-- 53.640
3.58 --undefined-- 53.153
3.59 --undefined-- 52.677
3.60 --undefined-- 51.974
3.61 --undefined-- 49.866
3.62 --undefined-- 45.524
3.63 --undefined-- 41.430
3.64 --undefined-- 50.751
3.65 --undefined-- 61.950
3.66 167.783 68.866
3.67 161.626 72.649
3.68 163.973 74.611
3.69 165.115 76.203
3.70 162.622 77.770
3.71 159.657 78.427
3.72 156.221 78.066
3.73 152.099 77.541
3.74 147.826 77.476
3.75 144.121 77.457
3.76 138.067 77.034
3.77 134.351 76.010
3.78 129.959 74.961
3.79 127.856 74.722
3.80 124.985 74.545
3.81 123.823 74.032
3.82 122.415 73.718
3.83 123.111 73.697
3.84 123.420 73.616
3.85 124.026 73.112
3.86 123.359 71.535
3.87 119.486 68.512
3.88 117.670 64.928
3.89 119.031 61.481
3.90 --undefined-- 57.214
3.91 --undefined-- 53.398
3.92 --undefined-- 58.929
3.93 --undefined-- 67.037
3.94 --undefined-- 72.338
3.95 114.485 74.785
3.96 113.760 75.175
3.97 106.203 74.561
3.98 107.959 73.995
3.99 108.738 73.851
4.00 112.586 73.860
4.01 116.400 73.617
4.02 120.984 72.930
4.03 124.208 72.074
4.04 130.788 71.714
4.05 141.077 72.301
4.06 145.298 73.161
4.07 150.724 73.860
4.08 155.364 74.485
4.09 159.896 74.883
4.10 163.895 74.712
4.11 166.248 73.787
4.12 167.563 72.031
4.13 166.526 69.382
4.14 163.809 65.637
4.15 164.408 61.074
4.16 167.096 57.771
4.17 160.565 58.538
4.18 162.200 62.606
4.19 200.093 70.010
4.20 202.273 74.856
4.21 174.846 76.763
4.22 169.396 76.781
4.23 162.751 75.444
4.24 155.779 73.085
4.25 154.079 71.126
4.26 154.814 71.151
4.27 157.060 72.481
4.28 158.489 73.861
4.29 159.585 74.883
4.30 160.110 75.577
4.31 161.489 76.238
4.32 162.341 76.705
4.33 160.749 76.447
4.34 158.761 75.623
4.35 161.398 75.170
4.36 161.424 75.140
4.37 161.346 75.153
4.38 160.665 75.254
4.39 160.750 75.638
4.40 165.176 76.549
4.41 163.822 77.561
4.42 160.747 77.992
4.43 158.777 77.951
4.44 157.174 77.752
4.45 154.895 77.590
4.46 153.902 77.679
4.47 152.729 77.804
4.48 152.362 77.828
4.49 152.407 77.904
4.50 152.453 78.055
4.51 152.753 78.148
4.52 152.639 78.104
4.53 152.553 77.953
4.54 153.037 77.857
4.55 153.841 77.950
4.56 154.268 77.967
4.57 151.431 77.342
4.58 145.763 75.616
4.59 138.266 72.644
4.60 101.678 68.579
4.61 --undefined-- 64.346
4.62 --undefined-- 61.456
4.63 --undefined-- 61.178
4.64 --undefined-- 63.482
4.65 --undefined-- 66.104
4.66 --undefined-- 68.700
4.67 124.912 71.057
4.68 120.883 72.743
4.69 120.518 73.292
4.70 114.832 73.386
4.71 116.238 73.783
4.72 118.465 74.097
4.73 118.520 74.050
4.74 118.022 73.684
4.75 116.471 73.365
4.76 114.939 73.349
4.77 112.938 73.349
4.78 111.938 73.283
4.79 112.764 73.246
4.80 113.736 73.060
4.81 112.647 72.589
4.82 112.991 72.566
4.83 116.265 73.501
4.84 116.871 74.472
4.85 116.491 74.924
4.86 116.096 74.767
4.87 109.924 74.311
4.88 110.895 74.139
4.89 114.117 74.206
4.90 116.466 74.339
4.91 120.957 74.622
4.92 122.735 75.154
4.93 124.167 75.481
4.94 123.832 74.845
4.95 122.258 72.674
4.96 122.964 68.877
4.97 125.512 64.676
4.98 124.758 60.946
4.99 124.887 56.769
5.00 --undefined-- 52.321
5.01 --undefined-- 49.376
5.02 --undefined-- --undefined--
5.03 --undefined-- --undefined--
5.04 --undefined-- --undefined--
5.05 --undefined-- --undefined--
