Time Pitch Intensity
0.01 --undefined-- --undefined--
0.02 123.196 --undefined--
0.03 122.409 --undefined--
0.04 119.499 --undefined--
0.05 114.869 76.995
0.06 108.042 77.475
0.07 101.525 77.461
0.08 98.084 76.943
0.09 97.665 76.207
0.10 94.919 75.506
0.11 94.209 74.852
0.12 92.933 74.043
0.13 93.125 73.426
0.14 96.247 73.511
0.15 98.369 73.990
0.16 99.356 74.503
0.17 100.121 74.897
0.18 100.008 75.320
0.19 101.790 76.199
0.20 105.311 77.085
0.21 105.939 77.506
0.22 105.999 77.588
0.23 106.809 77.520
0.24 107.634 77.443
0.25 108.417 77.356
0.26 108.563 76.996
0.27 107.908 75.790
0.28 105.967 72.995
0.29 105.776 68.123
0.30 111.413 60.917
0.31 --undefined-- 53.917
0.32 --undefined-- 52.678
0.33 --undefined-- 52.885
0.34 --undefined-- 53.042
0.35 --undefined-- 53.843
0.36 --undefined-- 54.601
0.37 --undefined-- 54.540
0.38 --undefined-- 58.794
0.39 --undefined-- 67.109
0.40 128.582 72.521
0.41 122.111 75.467
0.42 120.588 77.094
0.43 121.153 78.273
0.44 124.005 79.179
0.45 128.976 79.624
0.46 133.789 79.357
0.47 134.147 78.337
0.48 137.235 77.783
0.49 143.259 78.671
0.50 148.606 79.531
0.51 156.595 79.761
0.52 157.063 79.602
0.53 156.038 79.171
0.54 155.255 78.544
0.55 154.968 77.768
0.56 154.593 76.730
0.57 152.234 74.729
0.58 147.502 70.586
0.59 154.857 63.462
0.60 154.367 55.825
0.61 154.451 53.065
0.62 --undefined-- 52.341
0.63 --undefined-- 54.899
0.64 --undefined-- 58.034
0.65 --undefined-- 63.817
0.66 179.983 71.591
0.67 163.038 76.516
0.68 144.596 78.676
0.69 138.977 79.208
0.70 134.535 79.091
0.71 131.310 78.849
0.72 128.470 78.573
0.73 125.643 77.896
0.74 120.871 76.161
0.75 115.104 72.983
0.76 115.521 68.939
0.77 125.813 65.942
0.78 131.246 66.656
0.79 136.947 71.293
0.80 134.049 75.690
0.81 134.048 78.099
0.82 132.144 78.619
0.83 126.003 78.343
0.84 123.512 78.381
0.85 121.799 78.377
0.86 119.135 77.892
0.87 116.143 76.874
0.88 113.774 75.258
0.89 111.393 72.870
0.90 109.984 69.528
0.91 110.187 65.349
0.92 --undefined-- 61.567
0.93 --undefined-- 58.988
0.94 --undefined-- 58.081
0.95 --undefined-- 58.331
0.96 --undefined-- 58.219
0.97 --undefined-- 57.719
0.98 --undefined-- 58.436
0.99 --undefined-- 65.185
1.00 --undefined-- 71.005
1.01 --undefined-- 73.970
1.02 93.577 75.181
1.03 85.915 75.783
1.04 88.025 76.272
1.05 91.604 76.692
1.06 94.084 77.046
1.07 96.616 77.336
1.08 99.964 77.590
1.09 103.293 77.764
1.10 104.027 77.896
1.11 108.390 78.095
1.12 112.226 78.340
1.13 116.964 78.597
1.14 126.477 78.963
1.15 130.495 79.168
1.16 135.034 78.774
1.17 137.463 77.502
1.18 137.401 74.748
1.19 141.271 70.062
1.20 157.223 63.990
1.21 --undefined-- 57.547
1.22 134.847 56.370
1.23 --undefined-- 66.272
1.24 --undefined-- 73.985
1.25 --undefined-- 77.745
1.26 165.318 78.456
1.27 158.625 77.359
1.28 156.138 75.627
1.29 153.800 72.737
1.30 146.414 67.443
1.31 159.801 59.833
1.32 158.637 53.895
1.33 --undefined-- 51.307
1.34 --undefined-- 49.355
1.35 --undefined-- 47.066
1.36 --undefined-- 45.477
1.37 --undefined-- 44.089
1.38 --undefined-- 42.672
1.39 --undefined-- 42.953
1.40 --undefined-- 43.692
1.41 --undefined-- 43.713
1.42 --undefined-- 44.556
1.43 --undefined-- 52.957
1.44 --undefined-- 61.330
1.45 --undefined-- 65.961
1.46 110.983 68.254
1.47 117.743 70.275
1.48 114.806 72.465
1.49 113.515 74.178
1.50 111.084 75.155
1.51 107.993 75.559
1.52 105.544 75.705
1.53 104.434 75.638
1.54 104.562 75.561
1.55 106.928 75.850
1.56 109.268 76.644
1.57 112.955 77.850
1.58 116.657 79.109
1.59 120.129 79.990
1.60 122.483 80.228
1.61 121.610 80.135
1.62 123.587 80.084
1.63 124.633 79.942
1.64 118.543 79.862
1.65 116.812 79.687
1.66 112.488 78.969
1.67 107.422 77.662
1.68 104.679 75.958
1.69 106.245 74.008
1.70 103.837 71.388
1.71 102.746 67.198
1.72 --undefined-- 60.643
1.73 --undefined-- 53.371
1.74 --undefined-- 51.643
1.75 --undefined-- 52.614
1.76 --undefined-- 54.368
1.77 --undefined-- 56.775
1.78 --undefined-- 59.260
1.79 --undefined-- 60.554
1.80 --undefined-- 60.564
1.81 --undefined-- 60.016
1.82 100.419 59.607
1.83 101.480 59.585
1.84 100.924 59.803
1.85 100.264 59.922
1.86 95.198 59.513
1.87 93.141 58.654
1.88 94.138 57.972
1.89 89.349 57.189
1.90 84.672 56.744
1.91 84.486 56.278
1.92 81.509 54.847
1.93 81.050 53.474
1.94 --undefined-- 52.163
1.95 --undefined-- 50.077
1.96 --undefined-- 48.433
1.97 --undefined-- 47.218
1.98 --undefined-- 45.857
1.99 --undefined-- 45.913
2.00 --undefined-- 48.863
2.01 156.757 52.068
2.02 154.314 53.750
2.03 --undefined-- 57.986
2.04 --undefined-- 64.318
2.05 --undefined-- 70.597
2.06 216.771 76.131
2.07 209.137 78.986
2.08 201.141 79.646
2.09 200.034 79.611
2.10 197.254 79.547
2.11 193.080 79.473
2.12 192.047 79.229
2.13 192.415 78.560
2.14 194.953 77.919
2.15 197.898 77.841
2.16 201.045 78.082
2.17 201.954 78.254
2.18 200.371 78.777
2.19 202.101 79.751
2.20 201.771 80.562
2.21 201.478 81.132
2.22 200.945 81.470
2.23 199.303 81.500
2.24 197.426 81.266
2.25 196.734 80.842
2.26 197.294 80.251
2.27 197.353 79.578
2.28 196.878 78.585
2.29 194.737 76.574
2.30 192.560 72.844
2.31 194.842 66.963
2.32 202.505 59.716
2.33 204.000 56.992
2.34 204.961 59.720
2.35 204.150 68.831
2.36 184.778 75.493
2.37 164.377 78.490
2.38 156.838 78.860
2.39 151.016 78.225
2.40 147.220 77.804
2.41 145.939 77.459
2.42 142.801 76.763
2.43 138.198 75.884
2.44 136.222 75.844
2.45 137.991 77.008
2.46 140.157 78.282
2.47 142.952 78.905
2.48 143.623 78.907
2.49 141.400 78.554
2.50 139.089 77.760
2.51 137.658 75.922
2.52 130.414 72.332
2.53 132.401 66.852
2.54 140.239 60.187
2.55 141.551 55.886
2.56 142.891 55.941
2.57 --undefined-- 55.724
2.58 --undefined-- 54.964
2.59 --undefined-- 54.936
2.60 --undefined-- 55.896
2.61 --undefined-- 57.149
2.62 --undefined-- 63.181
2.63 --undefined-- 70.947
2.64 174.667 75.317
2.65 170.713 76.890
2.66 171.379 77.196
2.67 169.626 77.095
2.68 163.655 76.115
2.69 158.220 74.386
2.70 159.770 74.416
2.71 167.429 76.681
2.72 170.271 78.333
2.73 171.724 78.869
2.74 172.400 78.772
2.75 172.455 78.319
2.76 171.289 77.324
2.77 170.948 75.101
2.78 174.541 70.773
2.79 183.431 63.887
2.80 177.541 57.535
2.81 173.696 60.868
2.82 175.335 69.558
2.83 167.114 75.246
2.84 155.237 77.648
2.85 145.583 78.009
2.86 135.652 77.849
2.87 130.264 77.864
2.88 127.809 78.064
2.89 127.154 78.328
2.90 127.575 78.523
2.91 128.092 78.556
2.92 127.543 78.319
2.93 126.330 77.699
2.94 125.963 76.667
2.95 127.302 75.470
2.96 132.163 74.617
2.97 135.192 74.670
2.98 142.232 76.233
2.99 151.327 78.066
3.00 149.688 78.726
3.01 147.416 78.637
3.02 148.368 78.525
3.03 148.806 78.352
3.04 147.672 78.168
3.05 145.356 78.094
3.06 143.564 77.929
3.07 139.114 77.275
3.08 135.796 75.993
3.09 129.626 74.570
3.10 126.430 74.006
3.11 125.861 74.576
3.12 125.734 75.708
3.13 124.920 76.638
3.14 123.986 76.532
3.15 116.023 74.747
3.16 --undefined-- 70.828
3.17 --undefined-- 64.450
3.18 --undefined-- 56.075
3.19 --undefined-- 49.011
3.20 --undefined-- 44.872
3.21 --undefined-- 42.048
3.22 --undefined-- 41.025
3.23 --undefined-- 42.294
3.24 --undefined-- 44.475
3.25 --undefined-- 44.571
3.26 --undefined-- 42.096
3.27 --undefined-- 45.490
3.28 --undefined-- 57.995
3.29 --undefined-- 68.231
3.30 183.739 74.400
3.31 171.783 77.179
3.32 165.326 77.829
3.33 163.438 77.874
3.34 162.994 78.045
3.35 163.724 78.341
3.36 164.389 78.696
3.37 164.263 79.048
3.38 163.290 79.201
3.39 161.676 78.792
3.40 157.571 77.751
3.41 149.225 76.862
3.42 146.975 76.782
3.43 143.702 76.952
3.44 141.841 76.940
3.45 140.508 76.897
3.46 138.218 77.084
3.47 136.292 77.613
3.48 131.608 78.181
3.49 125.804 78.382
3.50 122.147 78.233
3.51 119.352 78.020
3.52 115.349 77.640
3.53 114.707 76.897
3.54 117.377 76.241
3.55 116.802 75.753
3.56 116.219 75.388
3.57 117.102 75.784
3.58 119.888 76.926
3.59 120.002 78.061
3.60 119.741 78.525
3.61 114.126 78.211
3.62 110.417 78.019
3.63 110.177 78.275
3.64 111.247 78.431
3.65 114.860 78.344
3.66 116.859 78.172
3.67 118.016 77.734
3.68 118.587 76.597
3.69 121.962 74.849
3.70 125.932 72.560
3.71 130.931 69.261
3.72 140.618 64.739
3.73 139.362 59.894
3.74 122.884 57.696
3.75 122.351 57.249
3.76 --undefined-- 56.288
3.77 --undefined-- 55.494
3.78 --undefined-- 55.615
3.79 --undefined-- 56.761
3.80 --undefined-- 57.736
3.81 --undefined-- 58.387
3.82 --undefined-- 59.495
3.83 --undefined-- 66.320
3.84 184.912 73.558
3.85 173.692 77.646
3.86 168.705 79.311
3.87 167.568 79.719
3.88 167.013 79.810
3.89 165.961 79.900
3.90 165.495 79.969
3.91 165.490 79.963
3.92 165.485 79.725
3.93 164.460 79.070
3.94 162.783 77.687
3.95 160.364 75.144
3.96 157.614 71.309
3.97 157.915 66.527
3.98 158.234 62.159
3.99 156.562 61.131
4.00 163.666 61.632
4.01 --undefined-- 65.252
4.02 --undefined-- 72.509
4.03 173.031 77.034
4.04 167.062 78.498
4.05 162.460 78.186
4.06 158.742 76.801
4.07 150.775 73.915
4.08 149.624 69.678
4.09 159.956 65.994
4.10 158.325 62.352
4.11 --undefined-- 56.733
4.12 --undefined-- 51.254
4.13 --undefined-- 49.319
4.14 --undefined-- 47.899
4.15 --undefined-- 48.867
4.16 --undefined-- 52.998
4.17 --undefined-- 59.068
4.18 --undefined-- 68.335
4.19 --undefined-- 74.465
4.20 145.935 77.129
4.21 132.278 77.514
4.22 123.289 77.409
4.23 118.182 77.762
4.24 114.715 78.111
4.25 111.746 78.248
4.26 110.030 78.338
4.27 109.143 78.356
4.28 109.649 78.320
4.29 110.901 78.342
4.30 112.291 78.375
4.31 112.460 78.347
4.32 111.573 78.225
4.33 111.667 78.065
4.34 111.700 78.090
4.35 112.090 78.320
4.36 111.640 78.329
4.37 110.255 77.865
4.38 113.018 77.237
4.39 115.416 76.928
4.40 118.722 76.683
4.41 118.605 76.089
4.42 117.562 75.244
4.43 116.501 74.259
4.44 115.226 73.317
4.45 115.320 72.683
4.46 116.781 72.174
4.47 117.064 71.049
4.48 130.459 69.250
4.49 147.843 67.308
4.50 153.891 64.774
4.51 --undefined-- 60.245
4.52 --undefined-- 53.354
4.53 --undefined-- 49.269
4.54 --undefined-- 48.327
4.55 --undefined-- 47.148
4.56 --undefined-- 45.587
4.57 --undefined-- 44.150
4.58 --undefined-- 46.266
4.59 --undefined-- 57.322
4.60 --undefined-- 66.053
4.61 --undefined-- 71.010
4.62 121.106 73.559
4.63 118.057 74.699
4.64 116.393 75.392
4.65 113.674 76.300
4.66 111.860 77.089
4.67 111.665 77.504
4.68 111.312 77.678
4.69 111.583 77.695
4.70 112.461 77.765
4.71 113.251 77.717
4.72 114.165 76.868
4.73 109.819 74.460
4.74 106.051 70.136
4.75 112.640 64.126
4.76 --undefined-- 56.764
4.77 --undefined-- 49.893
4.78 --undefined-- 49.063
4.79 --undefined-- 52.402
4.80 --undefined-- 56.434
4.81 --undefined-- 60.420
4.82 --undefined-- 68.245
4.83 152.061 74.794
4.84 147.870 77.786
4.85 139.179 77.880
4.86 134.421 75.842
4.87 122.937 72.622
4.88 124.894 72.254
4.89 138.728 75.402
4.90 135.502 77.478
4.91 133.645 78.274
4.92 131.980 78.480
4.93 131.123 78.544
4.94 130.539 78.484
4.95 130.906 78.162
4.96 130.657 77.203
4.97 128.147 74.832
4.98 125.689 70.289
4.99 --undefined-- 63.366
5.00 --undefined-- 57.480
5.01 --undefined-- 60.009
5.02 --undefined-- 68.737
5.03 --undefined-- 74.699
5.04 146.998 77.242
5.05 123.631 77.528
5.06 102.605 76.866
5.07 101.911 75.270
5.08 85.130 72.098
5.09 76.475 68.974
5.10 104.698 69.360
5.11 114.297 71.342
5.12 126.913 73.965
5.13 139.311 76.656
5.14 139.154 78.570
5.15 139.295 79.559
5.16 140.108 79.978
5.17 142.858 79.932
5.18 146.207 79.379
5.19 147.189 78.361
5.20 149.668 76.995
5.21 150.241 --undefined--
5.22 153.493 --undefined--
5.23 --undefined-- --undefined--
5.24 --undefined-- --undefined--
