Time Pitch Intensity
0.01 --undefined-- --undefined--
0.02 120.816 --undefined--
0.03 121.416 --undefined--
0.04 121.364 --undefined--
0.05 121.265 68.321
0.06 121.527 70.421
0.07 121.856 72.654
0.08 122.219 73.836
0.09 119.928 74.185
0.10 120.591 74.386
0.11 117.656 74.043
0.12 113.691 73.251
0.13 112.692 72.903
0.14 108.257 72.615
0.15 107.095 71.913
0.16 103.528 70.993
0.17 102.990 70.447
0.18 104.136 70.374
0.19 106.105 70.380
0.20 107.663 70.541
0.21 108.601 70.955
0.22 110.076 71.565
0.23 111.410 72.221
0.24 112.458 72.653
0.25 113.646 72.830
0.26 116.081 73.059
0.27 119.363 73.565
0.28 122.485 74.228
0.29 127.323 74.971
0.30 133.067 75.946
0.31 140.362 77.172
0.32 154.322 78.529
0.33 165.092 79.480
0.34 165.594 79.788
0.35 168.312 79.540
0.36 170.292 78.751
0.37 171.157 77.867
0.38 170.942 77.280
0.39 168.697 76.533
0.40 160.289 74.656
0.41 162.689 70.709
0.42 168.309 64.549
0.43 169.879 59.924
0.44 168.966 59.459
0.45 168.636 58.995
0.46 167.829 57.722
0.47 166.605 55.915
0.48 170.463 54.341
0.49 --undefined-- 53.572
0.50 --undefined-- 53.189
0.51 --undefined-- 52.770
0.52 --undefined-- 52.613
0.53 --undefined-- 52.631
0.54 --undefined-- 52.634
0.55 --undefined-- 52.507
0.56 --undefined-- 51.902
0.57 --undefined-- 51.085
0.58 --undefined-- 50.693
0.59 --undefined-- 50.335
0.60 --undefined-- 49.875
0.61 --undefined-- 49.565
0.62 --undefined-- 48.829
0.63 --undefined-- 47.322
0.64 --undefined-- 45.367
0.65 --undefined-- 42.497
0.66 --undefined-- 39.865
0.67 --undefined-- 44.387
0.68 --undefined-- 57.844
0.69 --undefined-- 67.891
0.70 147.755 74.152
0.71 145.686 77.465
0.72 144.809 78.350
0.73 143.391 76.982
0.74 139.924 74.001
0.75 147.920 73.515
0.76 156.053 76.477
0.77 156.028 78.690
0.78 156.737 79.702
0.79 155.770 80.075
0.80 153.181 80.031
0.81 150.616 79.734
0.82 149.943 79.331
0.83 149.876 79.261
0.84 147.438 79.467
0.85 146.282 78.856
0.86 150.507 77.192
0.87 154.126 75.628
0.88 154.911 75.128
0.89 154.777 75.324
0.90 154.358 75.752
0.91 154.898 76.294
0.92 155.571 76.971
0.93 156.182 77.632
0.94 157.162 78.099
0.95 158.189 78.279
0.96 158.464 78.244
0.97 158.025 78.110
0.98 157.733 77.761
0.99 157.142 76.964
1.00 153.349 76.034
1.01 157.159 75.756
1.02 158.840 75.721
1.03 162.839 75.330
1.04 166.562 74.434
1.05 169.086 72.922
1.06 170.370 71.366
1.07 168.924 70.398
1.08 163.754 69.104
1.09 156.046 66.415
1.10 146.153 62.581
1.11 154.916 60.777
1.12 160.366 61.596
1.13 159.924 61.846
1.14 163.169 61.077
1.15 162.444 59.983
1.16 --undefined-- 60.310
1.17 --undefined-- 61.905
1.18 --undefined-- 62.972
1.19 --undefined-- 63.676
1.20 --undefined-- 65.949
1.21 223.200 70.705
1.22 224.461 74.484
1.23 225.841 76.514
1.24 228.725 77.164
1.25 227.488 76.516
1.26 226.963 75.171
1.27 227.354 74.132
1.28 225.787 73.245
1.29 221.254 72.550
1.30 216.915 72.558
1.31 210.229 72.679
1.32 200.713 72.660
1.33 190.436 73.466
1.34 160.095 75.138
1.35 154.857 75.739
1.36 141.471 74.978
1.37 130.851 73.715
1.38 121.850 72.686
1.39 119.847 72.028
1.40 116.758 70.986
1.41 112.586 69.163
1.42 118.566 67.971
1.43 122.103 67.948
1.44 126.552 68.033
1.45 130.049 68.035
1.46 131.763 67.995
1.47 132.132 67.712
1.48 137.076 67.210
1.49 147.476 67.853
1.50 173.058 71.490
1.51 181.066 74.449
1.52 185.079 75.398
1.53 188.301 75.389
1.54 190.007 75.233
1.55 190.680 74.383
1.56 179.784 72.430
1.57 183.554 69.918
1.58 185.853 67.022
1.59 187.161 63.146
1.60 187.258 59.827
1.61 --undefined-- 57.719
1.62 --undefined-- 58.800
1.63 129.869 63.379
1.64 119.635 66.988
1.65 116.112 69.237
1.66 116.656 70.495
1.67 117.461 70.825
1.68 113.260 70.643
1.69 110.548 70.298
1.70 107.501 69.607
1.71 104.937 68.516
1.72 107.112 67.716
1.73 108.673 67.486
1.74 109.733 67.409
1.75 111.158 67.226
1.76 113.175 66.856
1.77 115.715 66.342
1.78 119.285 65.946
1.79 121.333 65.593
1.80 121.687 64.489
1.81 121.824 61.914
1.82 129.933 58.149
1.83 --undefined-- 55.039
1.84 --undefined-- 56.961
1.85 --undefined-- 65.502
1.86 207.005 72.199
1.87 208.619 75.734
1.88 207.854 76.910
1.89 208.696 76.891
1.90 210.264 76.627
1.91 210.963 76.203
1.92 209.346 75.128
1.93 207.585 73.232
1.94 213.599 71.987
1.95 213.978 72.209
1.96 213.511 72.639
1.97 212.787 72.944
1.98 211.709 72.989
1.99 208.882 72.238
2.00 204.329 69.883
2.01 194.842 65.347
2.02 198.978 60.852
2.03 205.644 59.421
2.04 206.874 58.383
2.05 208.491 57.289
2.06 --undefined-- 56.886
2.07 --undefined-- 58.356
2.08 --undefined-- 65.320
2.09 --undefined-- 72.306
2.10 166.023 75.875
2.11 148.645 76.542
2.12 136.061 75.575
2.13 125.788 74.213
2.14 123.034 73.044
2.15 121.043 72.572
2.16 121.142 72.388
2.17 119.907 72.077
2.18 117.673 71.011
2.19 111.649 69.119
2.20 114.921 67.856
2.21 114.869 67.683
2.22 115.150 68.055
2.23 115.063 68.938
2.24 116.737 70.347
2.25 114.771 71.182
2.26 112.106 71.070
2.27 110.030 70.448
2.28 108.096 69.325
2.29 106.044 67.874
2.30 109.645 67.245
2.31 112.079 67.423
2.32 115.131 67.715
2.33 120.867 68.344
2.34 125.682 70.021
2.35 132.267 72.397
2.36 139.931 74.647
2.37 148.268 76.586
2.38 158.435 77.933
2.39 165.624 78.338
2.40 169.389 78.021
2.41 171.014 77.321
2.42 171.274 76.329
2.43 171.395 74.893
2.44 164.654 72.437
2.45 168.052 68.325
2.46 169.427 62.595
2.47 164.514 58.966
2.48 167.287 58.597
2.49 168.385 57.523
2.50 169.510 55.681
2.51 167.563 54.216
2.52 172.980 53.141
2.53 --undefined-- 51.848
2.54 --undefined-- 50.872
2.55 --undefined-- 50.239
2.56 --undefined-- 50.006
2.57 --undefined-- 49.825
2.58 --undefined-- 49.546
2.59 --undefined-- 49.502
2.60 --undefined-- 48.707
2.61 --undefined-- 47.460
2.62 --undefined-- 46.533
2.63 --undefined-- 44.990
2.64 --undefined-- 42.505
2.65 --undefined-- 39.697
2.66 --undefined-- 40.698
2.67 --undefined-- 44.801
2.68 --undefined-- 46.994
2.69 --undefined-- 46.958
2.70 --undefined-- 46.424
2.71 --undefined-- 49.831
2.72 --undefined-- 59.602
2.73 157.884 67.459
2.74 161.603 72.271
2.75 163.916 74.607
2.76 166.163 75.008
2.77 170.799 74.217
2.78 176.201 73.526
2.79 181.265 73.703
2.80 182.942 74.066
2.81 184.733 74.225
2.82 185.258 74.498
2.83 185.790 74.956
2.84 187.005 75.368
2.85 188.035 75.491
2.86 189.637 75.071
2.87 191.462 73.932
2.88 195.565 72.028
2.89 184.651 69.594
2.90 182.230 67.028
2.91 183.149 63.918
2.92 186.584 59.652
2.93 188.358 54.864
2.94 --undefined-- 52.827
2.95 --undefined-- 53.878
2.96 --undefined-- 54.663
2.97 --undefined-- 56.748
2.98 --undefined-- 63.885
2.99 120.997 69.835
3.00 114.145 72.604
3.01 103.137 72.721
3.02 100.933 71.582
3.03 99.675 70.832
3.04 99.390 70.431
3.05 97.188 69.689
3.06 98.064 69.108
3.07 98.248 68.741
3.08 98.023 68.236
3.09 97.481 67.732
3.10 97.470 67.240
3.11 97.095 66.976
3.12 98.664 66.672
3.13 98.636 65.721
3.14 98.191 63.306
3.15 101.859 59.354
3.16 --undefined-- 55.031
3.17 --undefined-- 54.285
3.18 --undefined-- 59.127
3.19 --undefined-- 66.789
3.20 140.756 72.009
3.21 132.910 74.290
3.22 132.761 74.825
3.23 138.969 75.246
3.24 147.021 76.021
3.25 152.828 76.628
3.26 159.155 76.897
3.27 161.926 76.898
3.28 162.333 76.551
3.29 160.729 75.607
3.30 151.741 74.023
3.31 143.723 71.927
3.32 154.043 69.091
3.33 152.797 65.593
3.34 154.565 62.789
3.35 --undefined-- 61.016
3.36 --undefined-- 61.530
3.37 --undefined-- 64.778
3.38 --undefined-- 68.248
3.39 115.261 71.042
3.40 117.520 72.712
3.41 118.443 73.271
3.42 117.417 73.152
3.43 115.641 72.891
3.44 115.253 72.680
3.45 114.764 72.346
3.46 113.936 72.178
3.47 114.439 72.458
3.48 114.960 72.747
3.49 114.256 72.347
3.50 111.352 70.531
3.51 110.454 67.218
3.52 117.722 63.458
3.53 115.102 59.486
3.54 111.987 56.402
3.55 --undefined-- 62.577
3.56 --undefined-- 70.678
3.57 151.581 75.267
3.58 147.217 76.973
3.59 142.415 77.168
3.60 140.529 77.084
3.61 138.172 76.891
3.62 134.711 76.490
3.63 132.205 75.855
3.64 130.426 75.328
3.65 128.480 75.088
3.66 123.727 74.287
3.67 118.594 72.876
3.68 116.414 72.463
3.69 112.398 73.313
3.70 109.474 73.614
3.71 97.509 72.699
3.72 93.982 71.139
3.73 89.558 69.568
3.74 92.861 67.888
3.75 92.736 65.937
3.76 91.435 63.679
3.77 90.090 61.386
3.78 89.806 60.806
3.79 89.494 61.507
3.80 92.241 62.688
3.81 95.147 64.238
3.82 101.222 66.352
3.83 103.728 68.310
3.84 107.756 69.635
3.85 111.339 70.593
3.86 112.003 71.329
3.87 113.397 71.693
3.88 120.479 71.634
3.89 121.315 71.573
3.90 123.194 71.844
3.91 124.056 72.195
3.92 125.061 72.032
3.93 122.486 70.427
3.94 118.315 66.884
3.95 --undefined-- 62.653
3.96 --undefined-- 59.848
3.97 --undefined-- 57.330
3.98 --undefined-- 54.861
3.99 --undefined-- 52.757
4.00 --undefined-- 51.846
4.01 --undefined-- 51.934
4.02 --undefined-- 53.418
4.03 --undefined-- 56.199
4.04 --undefined-- 61.660
4.05 --undefined-- 67.593
4.06 --undefined-- 70.981
4.07 114.400 72.158
4.08 113.050 72.425
4.09 112.498 72.369
4.10 112.256 71.974
4.11 112.094 71.266
4.12 111.044 69.908
4.13 108.488 67.481
4.14 108.001 64.247
4.15 115.435 61.593
4.16 120.377 62.914
4.17 128.000 67.587
4.18 122.481 70.735
4.19 117.366 71.981
4.20 114.421 72.225
4.21 112.229 71.729
4.22 109.481 70.821
4.23 108.977 70.228
4.24 109.721 69.864
4.25 110.887 69.290
4.26 112.192 67.868
4.27 112.412 64.731
4.28 106.839 59.503
4.29 --undefined-- 53.364
4.30 --undefined-- 49.756
4.31 --undefined-- 48.369
4.32 --undefined-- 46.607
4.33 --undefined-- 46.736
4.34 --undefined-- 52.213
4.35 --undefined-- 57.050
4.36 --undefined-- 59.127
4.37 --undefined-- 58.991
4.38 --undefined-- 61.344
4.39 --undefined-- 66.681
4.40 145.190 68.899
4.41 138.439 67.623
4.42 123.693 63.356
4.43 --undefined-- 56.973
4.44 --undefined-- 52.549
4.45 --undefined-- 50.969
4.46 --undefined-- 48.305
4.47 --undefined-- 45.021
4.48 --undefined-- 46.906
4.49 --undefined-- 51.519
4.50 --undefined-- 54.415
4.51 --undefined-- 60.273
4.52 --undefined-- 67.371
4.53 139.404 71.333
4.54 138.140 72.296
4.55 132.605 70.859
4.56 123.431 67.291
4.57 --undefined-- 61.906
4.58 --undefined-- 55.511
4.59 --undefined-- 51.351
4.60 --undefined-- 51.782
4.61 --undefined-- 55.838
4.62 --undefined-- 60.066
4.63 --undefined-- 61.700
4.64 --undefined-- 61.124
4.65 --undefined-- 59.991
4.66 --undefined-- 59.239
4.67 --undefined-- 58.620
4.68 --undefined-- 58.116
4.69 --undefined-- 57.766
4.70 --undefined-- 59.797
4.71 --undefined-- 66.189
4.72 --undefined-- 71.986
4.73 --undefined-- 74.409
4.74 --undefined-- 73.285
4.75 --undefined-- 69.058
4.76 --undefined-- 63.194
4.77 --undefined-- 58.174
4.78 --undefined-- 54.888
4.79 --undefined-- 51.512
4.80 --undefined-- 47.769
4.81 --undefined-- 45.617
4.82 --undefined-- 47.403
4.83 --undefined-- 51.806
4.84 --undefined-- 54.225
4.85 --undefined-- 56.699
4.86 87.029 60.451
4.87 89.488 63.621
4.88 85.352 65.208
4.89 78.811 65.220
4.90 83.104 64.736
4.91 82.770 64.477
4.92 85.255 64.093
4.93 87.738 63.283
4.94 85.332 62.169
4.95 86.066 61.783
4.96 88.592 62.377
4.97 93.413 63.062
4.98 104.291 63.517
4.99 --undefined-- 63.550
5.00 --undefined-- 63.542
5.01 --undefined-- 63.359
5.02 --undefined-- 63.863
5.03 97.911 66.392
5.04 99.703 69.209
5.05 98.853 70.495
5.06 94.905 70.666
5.07 94.098 70.680
5.08 --undefined-- 70.556
5.09 --undefined-- 70.403
5.10 --undefined-- 69.742
5.11 --undefined-- 67.237
5.12 --undefined-- 63.487
5.13 --undefined-- 60.718
5.14 --undefined-- 57.806
5.15 --undefined-- 53.840
5.16 --undefined-- 50.106
5.17 --undefined-- 46.749
5.18 --undefined-- 43.466
5.19 --undefined-- 40.356
5.20 --undefined-- 38.457
5.21 --undefined-- 38.215
5.22 --undefined-- 37.711
5.23 --undefined-- 38.149
5.24 --undefined-- 39.795
5.25 --undefined-- 40.030
5.26 --undefined-- 38.954
5.27 --undefined-- 39.163
5.28 --undefined-- 40.413
5.29 --undefined-- 41.279
5.30 --undefined-- 42.508
5.31 --undefined-- 42.931
5.32 --undefined-- 41.454
5.33 --undefined-- 39.059
5.34 --undefined-- 38.890
5.35 --undefined-- 38.862
5.36 --undefined-- 37.097
5.37 --undefined-- 36.227
5.38 --undefined-- 39.240
5.39 --undefined-- 43.172
5.40 --undefined-- 45.363
5.41 --undefined-- 46.984
5.42 --undefined-- 47.811
5.43 --undefined-- 48.369
5.44 --undefined-- 48.599
5.45 --undefined-- 49.375
5.46 --undefined-- 50.639
5.47 --undefined-- --undefined--
5.48 --undefined-- --undefined--
5.49 --undefined-- --undefined--
5.50 --undefined-- --undefined--
