Time Pitch Intensity
0.01 --undefined-- --undefined--
0.02 148.242 --undefined--
0.03 150.056 --undefined--
0.04 150.705 --undefined--
0.05 151.089 63.352
0.06 152.421 61.684
0.07 76.976 59.848
0.08 77.901 58.770
0.09 77.770 58.673
0.10 77.210 58.414
0.11 76.178 57.054
0.12 --undefined-- 53.936
0.13 --undefined-- 50.467
0.14 --undefined-- 50.979
0.15 --undefined-- 52.864
0.16 --undefined-- 55.117
0.17 --undefined-- 58.896
0.18 --undefined-- 62.594
0.19 --undefined-- 65.706
0.20 --undefined-- 68.617
0.21 --undefined-- 71.173
0.22 --undefined-- 72.506
0.23 --undefined-- 72.234
0.24 109.311 70.898
0.25 110.286 69.086
0.26 107.605 66.757
0.27 105.693 62.754
0.28 --undefined-- 56.473
0.29 --undefined-- 49.790
0.30 --undefined-- 45.389
0.31 --undefined-- 41.975
0.32 --undefined-- 38.192
0.33 --undefined-- 34.968
0.34 --undefined-- 34.409
0.35 --undefined-- 38.088
0.36 --undefined-- 48.146
0.37 --undefined-- 56.335
0.38 111.383 61.567
0.39 115.666 64.623
0.40 116.163 66.249
0.41 116.348 66.505
0.42 115.942 64.827
0.43 115.770 60.586
0.44 --undefined-- 53.253
0.45 --undefined-- 46.107
0.46 --undefined-- 49.397
0.47 --undefined-- 54.572
0.48 --undefined-- 57.998
0.49 105.841 59.435
0.50 103.921 59.542
0.51 104.409 58.794
0.52 102.882 57.818
0.53 102.744 56.824
0.54 102.335 55.953
0.55 99.908 54.931
0.56 99.488 52.986
0.57 99.300 49.481
0.58 --undefined-- 44.005
0.59 --undefined-- 37.008
0.60 --undefined-- 32.245
0.61 --undefined-- 31.254
0.62 --undefined-- 29.923
0.63 --undefined-- 28.316
0.64 --undefined-- 29.269
0.65 --undefined-- 31.389
0.66 --undefined-- 32.651
0.67 --undefined-- 32.718
0.68 --undefined-- 33.302
0.69 --undefined-- 35.483
0.70 --undefined-- 37.804
0.71 --undefined-- 40.255
0.72 --undefined-- 42.377
0.73 --undefined-- 43.507
0.74 --undefined-- 43.420
0.75 --undefined-- 42.053
0.76 --undefined-- 41.260
0.77 --undefined-- 41.116
0.78 --undefined-- 39.991
0.79 --undefined-- 38.926
0.80 --undefined-- 38.138
0.81 --undefined-- 36.467
0.82 --undefined-- 34.049
0.83 --undefined-- 32.187
0.84 --undefined-- 30.603
0.85 --undefined-- 29.617
0.86 --undefined-- 31.024
0.87 --undefined-- 33.672
0.88 --undefined-- 34.601
0.89 --undefined-- 33.894
0.90 --undefined-- 33.536
0.91 --undefined-- 33.393
0.92 --undefined-- 34.076
0.93 --undefined-- 42.717
0.94 --undefined-- 50.388
0.95 --undefined-- 56.202
0.96 --undefined-- 64.154
0.97 --undefined-- 71.396
0.98 --undefined-- 75.807
0.99 --undefined-- 77.475
1.00 --undefined-- 76.442
1.01 --undefined-- 73.186
1.02 110.969 70.122
1.03 110.110 68.936
1.04 112.736 67.652
1.05 117.886 65.690
1.06 122.418 63.920
1.07 126.384 63.010
1.08 132.244 62.746
1.09 138.508 62.681
1.10 147.147 62.551
1.11 156.708 63.287
1.12 163.644 65.346
1.13 170.221 67.671
1.14 175.607 69.280
1.15 181.212 69.726
1.16 184.878 68.861
1.17 188.538 66.872
1.18 190.981 64.074
1.19 186.682 60.684
1.20 172.214 56.731
1.21 --undefined-- 52.811
1.22 --undefined-- 54.680
1.23 --undefined-- 62.828
1.24 --undefined-- 69.598
1.25 --undefined-- 73.431
1.26 --undefined-- 74.519
1.27 --undefined-- 73.437
1.28 --undefined-- 70.739
1.29 --undefined-- 66.798
1.30 --undefined-- 63.094
1.31 --undefined-- 60.710
1.32 --undefined-- 57.376
1.33 --undefined-- 51.881
1.34 --undefined-- 46.175
1.35 --undefined-- 41.961
1.36 --undefined-- 38.284
1.37 --undefined-- 36.040
1.38 --undefined-- 35.259
1.39 --undefined-- 35.838
1.40 --undefined-- 36.726
1.41 --undefined-- 37.162
1.42 --undefined-- 38.472
1.43 --undefined-- 40.225
1.44 --undefined-- 40.549
1.45 --undefined-- 38.992
1.46 --undefined-- 35.888
1.47 --undefined-- 33.202
1.48 --undefined-- 33.055
1.49 --undefined-- 34.272
1.50 --undefined-- 35.032
1.51 --undefined-- 34.881
1.52 --undefined-- 34.499
1.53 --undefined-- 33.337
1.54 --undefined-- 31.394
1.55 --undefined-- 31.232
1.56 --undefined-- 31.971
1.57 --undefined-- 31.290
1.58 --undefined-- 30.117
1.59 --undefined-- 30.483
1.60 --undefined-- 32.882
1.61 --undefined-- 35.358
1.62 --undefined-- 35.986
1.63 --undefined-- 36.846
1.64 --undefined-- 42.105
1.65 --undefined-- 53.075
1.66 --undefined-- 61.660
1.67 182.625 66.479
1.68 179.619 68.928
1.69 175.002 70.773
1.70 171.043 72.386
1.71 165.334 73.169
1.72 160.124 72.601
1.73 154.853 69.798
1.74 --undefined-- 63.980
1.75 --undefined-- 55.770
1.76 --undefined-- 50.320
1.77 --undefined-- 48.010
1.78 --undefined-- 46.307
1.79 --undefined-- 43.773
1.80 --undefined-- 40.024
1.81 --undefined-- 35.623
1.82 --undefined-- 32.326
1.83 --undefined-- 30.775
1.84 --undefined-- 32.090
1.85 --undefined-- 35.154
1.86 --undefined-- 37.534
1.87 --undefined-- 39.347
1.88 --undefined-- 40.626
1.89 --undefined-- 40.741
1.90 --undefined-- 39.557
1.91 --undefined-- 37.987
1.92 --undefined-- 37.071
1.93 --undefined-- 37.342
1.94 --undefined-- 38.111
1.95 --undefined-- 38.710
1.96 --undefined-- 38.305
1.97 --undefined-- 36.072
1.98 --undefined-- 37.070
1.99 --undefined-- 44.970
2.00 --undefined-- 50.118
2.01 --undefined-- 56.082
2.02 --undefined-- 63.853
2.03 185.603 69.534
2.04 177.853 73.499
2.05 174.512 76.134
2.06 171.962 77.327
2.07 169.977 77.373
2.08 168.360 76.864
2.09 166.647 76.259
2.10 164.711 75.509
2.11 162.350 74.308
2.12 159.967 72.667
2.13 157.894 71.101
2.14 158.164 70.693
2.15 157.982 71.010
2.16 155.673 70.546
2.17 153.579 68.379
2.18 148.810 64.266
2.19 141.829 58.861
2.20 --undefined-- 53.925
2.21 --undefined-- 51.205
2.22 --undefined-- 50.727
2.23 --undefined-- 51.409
2.24 --undefined-- 52.835
2.25 --undefined-- 56.475
2.26 172.132 62.566
2.27 173.653 67.988
2.28 176.903 71.675
2.29 174.587 73.715
2.30 171.350 74.378
2.31 169.362 74.235
2.32 166.681 73.969
2.33 165.831 74.040
2.34 165.086 74.480
2.35 164.020 74.615
2.36 163.284 73.805
2.37 162.298 71.874
2.38 160.764 69.047
2.39 160.829 66.406
2.40 162.256 65.172
2.41 162.692 64.846
2.42 163.253 64.517
2.43 163.048 63.870
2.44 162.365 62.884
2.45 159.356 61.367
2.46 154.447 58.982
2.47 147.929 55.659
2.48 --undefined-- 52.224
2.49 --undefined-- 49.611
2.50 --undefined-- 47.183
2.51 --undefined-- 44.543
2.52 --undefined-- 43.343
2.53 --undefined-- 48.986
2.54 --undefined-- 56.630
2.55 --undefined-- 62.228
2.56 --undefined-- 66.660
2.57 --undefined-- 69.753
2.58 --undefined-- 70.819
2.59 111.901 70.120
2.60 106.531 68.806
2.61 105.084 69.081
2.62 108.593 71.000
2.63 114.596 72.792
2.64 120.754 73.293
2.65 122.883 71.536
2.66 127.748 67.493
2.67 133.243 63.906
2.68 136.439 62.314
2.69 137.739 61.394
2.70 139.319 61.039
2.71 140.915 60.723
2.72 142.455 59.947
2.73 143.414 58.584
2.74 143.140 56.312
2.75 --undefined-- 52.726
2.76 --undefined-- 47.668
2.77 --undefined-- 42.148
2.78 --undefined-- 39.019
2.79 --undefined-- 37.722
2.80 --undefined-- 36.649
2.81 --undefined-- 36.726
2.82 --undefined-- 37.811
2.83 --undefined-- 41.877
2.84 --undefined-- 49.412
2.85 --undefined-- 54.718
2.86 --undefined-- 58.542
2.87 184.585 63.442
2.88 177.380 67.462
2.89 171.194 70.120
2.90 167.494 72.018
2.91 163.188 72.996
2.92 160.602 73.027
2.93 159.826 72.939
2.94 158.815 72.857
2.95 158.141 72.262
2.96 157.580 71.224
2.97 156.583 69.837
2.98 155.754 68.240
2.99 156.772 67.052
3.00 159.114 66.649
3.01 160.874 66.347
3.02 160.810 64.968
3.03 161.302 62.450
3.04 162.704 60.466
3.05 161.563 58.976
3.06 158.430 57.437
3.07 162.357 59.583
3.08 164.877 62.879
3.09 163.367 64.100
3.10 161.767 63.404
3.11 158.153 60.842
3.12 --undefined-- 56.255
3.13 --undefined-- 52.081
3.14 --undefined-- 56.727
3.15 138.611 63.474
3.16 139.329 67.815
3.17 --undefined-- 69.738
3.18 --undefined-- 70.475
3.19 --undefined-- 70.599
3.20 --undefined-- 69.320
3.21 --undefined-- 65.722
3.22 --undefined-- 58.995
3.23 --undefined-- 49.228
3.24 --undefined-- 44.577
3.25 --undefined-- 44.216
3.26 --undefined-- 42.848
3.27 --undefined-- 40.249
3.28 --undefined-- 36.728
3.29 --undefined-- 33.231
3.30 --undefined-- 30.876
3.31 --undefined-- 29.019
3.32 --undefined-- 29.016
3.33 --undefined-- 35.117
3.34 --undefined-- 43.372
3.35 --undefined-- 51.273
3.36 --undefined-- 57.238
3.37 123.359 60.582
3.38 118.077 61.683
3.39 113.676 61.461
3.40 109.952 60.977
3.41 109.029 60.707
3.42 107.131 60.361
3.43 105.559 59.621
3.44 102.174 58.147
3.45 97.943 55.499
3.46 --undefined-- 51.183
3.47 --undefined-- 44.569
3.48 --undefined-- 35.719
3.49 --undefined-- 29.365
3.50 --undefined-- 28.975
3.51 --undefined-- 29.746
3.52 --undefined-- 30.139
3.53 --undefined-- 30.857
3.54 --undefined-- 35.091
3.55 --undefined-- 42.310
3.56 --undefined-- 47.818
3.57 --undefined-- 52.658
3.58 --undefined-- 56.330
3.59 --undefined-- 58.021
3.60 --undefined-- 59.070
3.61 --undefined-- 63.296
3.62 --undefined-- 68.017
3.63 --undefined-- 70.366
3.64 --undefined-- 71.177
3.65 109.220 71.685
3.66 107.091 71.454
3.67 105.504 70.508
3.68 104.068 69.632
3.69 102.643 68.689
3.70 102.292 67.467
3.71 102.664 66.098
3.72 103.312 64.496
3.73 104.942 62.780
3.74 104.835 61.419
3.75 103.997 60.225
3.76 103.101 58.903
3.77 101.606 57.538
3.78 100.244 56.281
3.79 99.467 55.135
3.80 98.567 53.774
3.81 --undefined-- 51.748
3.82 --undefined-- 48.109
3.83 --undefined-- 42.421
3.84 --undefined-- 38.924
3.85 --undefined-- 40.232
3.86 --undefined-- 41.157
3.87 --undefined-- 40.735
3.88 --undefined-- 40.059
3.89 --undefined-- 38.631
3.90 --undefined-- 35.588
3.91 --undefined-- 32.268
3.92 --undefined-- 29.217
3.93 --undefined-- 27.740
3.94 --undefined-- 29.200
3.95 --undefined-- 30.278
3.96 --undefined-- 30.358
3.97 --undefined-- 30.398
3.98 --undefined-- 30.631
3.99 --undefined-- 31.498
4.00 --undefined-- 32.693
4.01 --undefined-- 32.746
4.02 --undefined-- 31.361
4.03 --undefined-- 30.372
4.04 --undefined-- 31.835
4.05 --undefined-- 33.279
4.06 --undefined-- 33.309
4.07 --undefined-- 31.892
4.08 --undefined-- 30.561
4.09 --undefined-- 29.541
4.10 --undefined-- 28.127
4.11 --undefined-- 28.653
4.12 --undefined-- 32.004
4.13 --undefined-- 34.179
4.14 --undefined-- 33.445
4.15 --undefined-- 30.248
4.16 --undefined-- 28.490
4.17 --undefined-- 29.076
4.18 --undefined-- 28.966
4.19 --undefined-- 28.074
4.20 --undefined-- 30.331
4.21 --undefined-- 32.294
4.22 --undefined-- 31.687
4.23 --undefined-- 29.078
4.24 --undefined-- 26.981
4.25 --undefined-- 26.902
4.26 --undefined-- 27.103
4.27 --undefined-- 27.574
4.28 --undefined-- 28.611
4.29 --undefined-- 29.623
4.30 --undefined-- 30.341
4.31 --undefined-- 30.860
4.32 --undefined-- 31.580
4.33 --undefined-- 31.836
4.34 --undefined-- 31.316
4.35 --undefined-- 31.349
4.36 --undefined-- 31.327
4.37 --undefined-- 32.583
4.38 --undefined-- 42.899
4.39 --undefined-- 51.338
4.40 --undefined-- 55.229
4.41 --undefined-- 57.704
4.42 --undefined-- 64.659
4.43 --undefined-- 70.725
4.44 185.097 74.427
4.45 183.865 77.002
4.46 183.173 78.960
4.47 181.742 80.090
4.48 179.521 80.097
4.49 177.296 79.336
4.50 174.728 78.875
4.51 171.760 78.640
4.52 169.914 77.320
4.53 166.644 74.001
4.54 156.466 68.579
4.55 145.706 62.930
4.56 142.883 59.997
4.57 --undefined-- 58.596
4.58 --undefined-- 57.089
4.59 --undefined-- 56.866
4.60 173.917 59.502
4.61 176.924 64.026
4.62 182.026 68.916
4.63 185.109 73.023
4.64 185.773 75.946
4.65 184.745 77.633
4.66 181.615 78.272
4.67 178.700 77.930
4.68 176.785 76.825
4.69 175.171 75.162
4.70 173.968 72.887
4.71 173.355 70.055
4.72 172.580 66.767
4.73 172.655 64.348
4.74 172.303 63.759
4.75 171.427 63.384
4.76 169.424 62.179
4.77 164.129 59.548
4.78 152.880 55.330
4.79 --undefined-- 50.481
4.80 --undefined-- 49.572
4.81 --undefined-- 57.150
4.82 --undefined-- 63.210
4.83 --undefined-- 66.652
4.84 --undefined-- 68.326
4.85 121.105 68.708
4.86 119.565 68.383
4.87 122.069 68.120
4.88 121.932 67.606
4.89 123.156 65.708
4.90 124.905 61.792
4.91 127.649 56.604
4.92 --undefined-- 52.955
4.93 --undefined-- 51.158
4.94 --undefined-- 49.057
4.95 --undefined-- 46.281
4.96 --undefined-- 43.130
4.97 --undefined-- 40.305
4.98 --undefined-- 38.185
4.99 --undefined-- 37.878
5.00 --undefined-- 45.420
5.01 --undefined-- 54.570
5.02 --undefined-- 61.417
5.03 --undefined-- 68.052
5.04 --undefined-- 72.414
5.05 --undefined-- 73.486
5.06 --undefined-- 71.595
5.07 --undefined-- 67.683
5.08 --undefined-- 63.015
5.09 --undefined-- 58.865
5.10 --undefined-- 58.555
5.11 --undefined-- 65.165
5.12 --undefined-- 71.041
5.13 155.523 74.468
5.14 156.261 75.882
5.15 157.982 76.059
5.16 158.096 75.687
5.17 157.549 74.660
5.18 157.489 72.625
5.19 157.329 69.561
5.20 154.622 65.121
5.21 147.994 59.150
5.22 144.358 54.180
5.23 147.953 56.276
5.24 156.624 63.612
5.25 162.438 69.791
5.26 162.938 73.493
5.27 159.659 75.060
5.28 155.557 75.495
5.29 154.191 75.762
5.30 154.540 75.873
5.31 155.374 75.486
5.32 155.550 74.509
5.33 154.489 72.745
5.34 152.553 69.517
5.35 150.680 64.574
5.36 147.880 61.084
5.37 144.652 59.623
5.38 141.307 57.282
5.39 --undefined-- 52.907
5.40 --undefined-- 47.015
5.41 --undefined-- 51.207
5.42 --undefined-- 58.639
5.43 --undefined-- 62.659
5.44 --undefined-- 63.454
5.45 114.542 62.348
5.46 114.630 61.619
5.47 115.343 61.966
5.48 116.123 62.362
5.49 119.219 62.770
5.50 123.530 63.618
5.51 124.995 64.170
5.52 125.793 63.204
5.53 121.750 60.675
5.54 120.986 58.070
5.55 120.312 56.534
5.56 125.359 56.059
5.57 128.610 56.991
5.58 130.034 58.907
5.59 133.528 61.485
5.60 136.329 64.197
5.61 140.003 66.520
5.62 142.758 68.530
5.63 141.287 70.253
5.64 139.923 71.453
5.65 138.271 71.769
5.66 137.043 71.298
5.67 136.807 70.425
5.68 137.198 69.277
5.69 136.639 67.417
5.70 135.481 64.262
5.71 135.682 60.705
5.72 136.702 59.315
5.73 137.474 59.304
5.74 136.854 58.961
5.75 132.981 57.844
5.76 127.406 56.086
5.77 121.194 53.685
5.78 --undefined-- 52.580
5.79 --undefined-- 57.697
5.80 --undefined-- 62.938
5.81 --undefined-- 66.591
5.82 --undefined-- 67.643
5.83 --undefined-- 66.397
5.84 109.360 65.508
5.85 113.414 65.503
5.86 115.129 64.730
5.87 116.885 62.492
5.88 117.155 58.998
5.89 118.385 55.946
5.90 118.295 54.667
5.91 115.973 53.173
5.92 --undefined-- 50.472
5.93 --undefined-- 48.401
5.94 --undefined-- 52.366
5.95 --undefined-- 57.721
5.96 --undefined-- 62.583
5.97 --undefined-- 65.364
5.98 --undefined-- 65.846
5.99 --undefined-- 64.031
6.00 --undefined-- 60.174
6.01 --undefined-- 57.423
6.02 --undefined-- 55.385
6.03 --undefined-- 52.229
6.04 --undefined-- 46.558
6.05 --undefined-- 41.583
6.06 --undefined-- 41.722
6.07 --undefined-- 42.060
6.08 --undefined-- 42.425
6.09 --undefined-- 43.619
6.10 --undefined-- 44.742
6.11 --undefined-- 46.184
6.12 --undefined-- 48.319
6.13 --undefined-- 50.014
6.14 --undefined-- 52.711
6.15 --undefined-- 57.838
6.16 --undefined-- 61.628
6.17 117.898 63.505
6.18 118.728 65.175
6.19 118.851 66.873
6.20 119.383 68.086
6.21 120.228 68.896
6.22 121.500 69.549
6.23 121.932 70.053
6.24 121.968 70.127
6.25 121.909 69.496
6.26 121.238 68.471
6.27 120.692 67.371
6.28 120.682 65.878
6.29 120.618 63.865
6.30 120.522 61.685
6.31 119.890 59.728
6.32 118.822 58.083
6.33 117.686 57.010
6.34 117.353 56.039
6.35 117.980 54.108
6.36 --undefined-- 50.902
6.37 --undefined-- 47.522
6.38 --undefined-- 44.941
6.39 --undefined-- 42.479
6.40 --undefined-- 40.092
6.41 --undefined-- 38.345
6.42 --undefined-- 37.625
6.43 --undefined-- 37.179
6.44 --undefined-- 36.565
6.45 --undefined-- 36.551
6.46 --undefined-- 36.975
6.47 --undefined-- 36.584
6.48 --undefined-- 34.179
6.49 --undefined-- 30.272
6.50 --undefined-- 29.074
6.51 --undefined-- 30.490
6.52 --undefined-- 30.662
6.53 --undefined-- 29.757
6.54 --undefined-- 28.700
6.55 --undefined-- 27.403
6.56 --undefined-- 27.995
6.57 --undefined-- 28.898
6.58 --undefined-- 27.929
6.59 --undefined-- 26.238
6.60 --undefined-- 26.420
6.61 --undefined-- 27.093
6.62 --undefined-- 26.641
6.63 --undefined-- 27.001
6.64 --undefined-- 29.503
6.65 --undefined-- 31.357
6.66 --undefined-- 31.815
6.67 --undefined-- 30.803
6.68 --undefined-- 28.934
6.69 --undefined-- 29.077
6.70 --undefined-- 30.538
6.71 --undefined-- 30.786
6.72 --undefined-- 32.258
6.73 --undefined-- 43.673
6.74 --undefined-- 55.640
6.75 176.845 64.578
6.76 165.343 70.454
6.77 155.756 73.884
6.78 145.585 75.688
6.79 139.162 76.801
6.80 138.087 77.720
6.81 137.700 78.378
6.82 137.651 78.705
6.83 137.436 78.682
6.84 136.481 78.314
6.85 134.982 77.723
6.86 133.345 77.079
6.87 131.621 76.445
6.88 130.021 75.863
6.89 128.618 75.261
6.90 126.427 74.666
6.91 123.580 74.262
6.92 119.342 73.994
6.93 115.332 73.313
6.94 111.530 72.368
6.95 109.146 71.725
6.96 108.137 71.339
6.97 106.764 71.007
6.98 106.614 70.780
6.99 105.744 71.063
7.00 102.861 71.788
7.01 101.994 72.042
7.02 100.543 71.495
7.03 101.987 70.587
7.04 103.181 70.191
7.05 99.484 70.069
7.06 104.053 70.285
7.07 108.007 71.422
7.08 112.364 72.480
7.09 116.176 73.029
7.10 118.547 73.285
7.11 120.376 73.158
7.12 120.521 72.593
7.13 115.431 71.532
7.14 108.888 --undefined--
7.15 108.166 --undefined--
7.16 --undefined-- --undefined--
7.17 --undefined-- --undefined--
