Time Pitch Intensity
0.01 --undefined-- --undefined--
0.02 118.617 --undefined--
0.03 110.732 --undefined--
0.04 108.740 --undefined--
0.05 105.629 76.513
0.06 102.642 76.168
0.07 101.345 75.916
0.08 101.949 75.796
0.09 101.459 75.525
0.10 100.441 74.907
0.11 98.377 74.302
0.12 105.200 74.349
0.13 107.195 74.604
0.14 107.667 74.296
0.15 106.208 73.296
0.16 104.438 71.396
0.17 97.241 68.035
0.18 --undefined-- 63.202
0.19 --undefined-- 62.217
0.20 --undefined-- 69.603
0.21 --undefined-- 74.755
0.22 142.285 76.958
0.23 140.108 77.528
0.24 139.215 77.580
0.25 139.208 77.446
0.26 141.225 77.385
0.27 143.461 77.493
0.28 144.694 77.532
0.29 146.707 77.289
0.30 150.095 76.764
0.31 152.304 76.106
0.32 152.667 75.552
0.33 155.148 74.988
0.34 154.161 73.614
0.35 154.278 70.586
0.36 157.882 65.431
0.37 163.625 59.300
0.38 156.910 57.099
0.39 157.516 60.693
0.40 --undefined-- 68.723
0.41 --undefined-- 74.115
0.42 143.596 76.096
0.43 131.950 75.871
0.44 123.818 75.475
0.45 121.830 75.568
0.46 117.888 75.366
0.47 115.481 75.198
0.48 117.697 75.598
0.49 117.912 76.064
0.50 117.463 76.165
0.51 115.709 75.651
0.52 113.929 74.112
0.53 108.106 71.478
0.54 112.278 68.390
0.55 112.402 64.936
0.56 115.566 61.351
0.57 114.764 58.501
0.58 114.408 56.343
0.59 114.986 54.851
0.60 113.043 59.483
0.61 --undefined-- 67.558
0.62 127.127 72.661
0.63 129.526 75.336
0.64 130.584 76.297
0.65 130.376 76.282
0.66 131.281 75.984
0.67 132.068 75.510
0.68 131.568 74.722
0.69 131.485 74.191
0.70 133.284 74.873
0.71 135.828 76.479
0.72 136.542 77.715
0.73 134.425 78.143
0.74 129.251 78.240
0.75 126.108 78.322
0.76 121.816 78.122
0.77 118.500 77.366
0.78 117.730 76.029
0.79 116.700 74.469
0.80 112.295 72.784
0.81 108.168 70.814
0.82 107.936 68.449
0.83 --undefined-- 64.378
0.84 --undefined-- 57.126
0.85 --undefined-- 57.430
0.86 --undefined-- 66.576
0.87 --undefined-- 72.227
0.88 127.915 75.096
0.89 126.577 76.417
0.90 122.365 77.083
0.91 120.443 77.500
0.92 118.900 77.722
0.93 118.220 77.854
0.94 118.517 78.057
0.95 119.264 78.179
0.96 119.332 78.020
0.97 119.647 77.716
0.98 119.354 77.390
0.99 117.800 77.183
1.00 117.101 77.276
1.01 116.545 77.459
1.02 115.715 77.578
1.03 116.112 77.733
1.04 116.351 77.896
1.05 116.134 77.945
1.06 115.736 77.854
1.07 115.715 77.665
1.08 115.315 77.450
1.09 114.496 77.342
1.10 113.180 77.351
1.11 111.429 77.314
1.12 109.752 76.963
1.13 107.271 75.919
1.14 103.611 73.959
1.15 100.605 71.396
1.16 97.990 69.317
1.17 99.647 69.079
1.18 102.021 70.346
1.19 104.463 71.878
1.20 106.350 73.155
1.21 108.082 74.213
1.22 110.579 75.341
1.23 113.624 76.593
1.24 115.617 77.672
1.25 117.648 78.341
1.26 120.245 78.709
1.27 121.729 78.958
1.28 122.993 79.122
1.29 125.599 79.083
1.30 129.232 78.752
1.31 132.031 78.258
1.32 129.855 77.905
1.33 127.727 77.839
1.34 122.532 77.758
1.35 118.587 77.466
1.36 115.605 76.767
1.37 117.874 75.647
1.38 113.188 74.177
1.39 112.533 72.636
1.40 111.083 70.853
1.41 110.267 68.101
1.42 114.820 64.256
1.43 118.998 60.227
1.44 118.104 57.104
1.45 116.504 54.683
1.46 115.075 53.362
1.47 112.481 53.569
1.48 --undefined-- 54.144
1.49 --undefined-- 55.425
1.50 --undefined-- 57.999
1.51 --undefined-- 59.925
1.52 --undefined-- 59.475
1.53 --undefined-- 57.558
1.54 --undefined-- 57.438
1.55 --undefined-- 57.988
1.56 --undefined-- 57.269
1.57 --undefined-- 56.178
1.58 --undefined-- 55.842
1.59 --undefined-- 56.014
1.60 --undefined-- 55.919
1.61 --undefined-- 55.692
1.62 --undefined-- 55.303
1.63 --undefined-- 54.669
1.64 --undefined-- 53.740
1.65 --undefined-- 52.596
1.66 --undefined-- 51.474
1.67 --undefined-- 49.895
1.68 --undefined-- 47.312
1.69 --undefined-- 44.598
1.70 --undefined-- 45.148
1.71 --undefined-- 46.575
1.72 --undefined-- 47.317
1.73 --undefined-- 57.198
1.74 256.033 66.339
1.75 254.272 71.376
1.76 105.683 73.822
1.77 109.990 75.311
1.78 108.451 76.251
1.79 106.667 76.512
1.80 210.802 75.919
1.81 200.707 75.246
1.82 193.226 76.211
1.83 200.776 77.804
1.84 201.990 78.442
1.85 195.536 78.282
1.86 186.811 77.898
1.87 178.707 77.587
1.88 170.088 77.486
1.89 163.913 77.133
1.90 158.466 75.421
1.91 146.701 72.042
1.92 156.513 69.111
1.93 153.216 69.273
1.94 153.480 72.426
1.95 155.134 75.853
1.96 153.940 77.502
1.97 150.209 77.393
1.98 144.250 76.593
1.99 137.911 75.879
2.00 134.289 75.532
2.01 133.326 75.803
2.02 133.669 76.217
2.03 133.198 76.267
2.04 132.460 76.079
2.05 131.960 75.975
2.06 131.996 75.932
2.07 131.586 75.800
2.08 131.080 75.678
2.09 131.821 75.946
2.10 130.892 76.496
2.11 129.467 76.691
2.12 128.934 76.703
2.13 128.309 76.783
2.14 128.543 76.680
2.15 129.338 76.523
2.16 130.101 76.535
2.17 130.585 76.587
2.18 131.001 76.684
2.19 132.123 76.929
2.20 132.758 77.023
2.21 134.248 76.599
2.22 140.070 75.881
2.23 142.659 75.408
2.24 146.042 75.641
2.25 162.245 76.512
2.26 163.965 77.116
2.27 166.523 77.027
2.28 169.916 76.393
2.29 173.393 75.612
2.30 177.577 75.238
2.31 178.977 75.209
2.32 175.874 75.274
2.33 176.971 75.346
2.34 180.640 74.899
2.35 179.945 73.829
2.36 175.402 72.854
2.37 175.160 72.529
2.38 174.912 72.866
2.39 180.216 73.965
2.40 184.102 75.704
2.41 192.826 77.517
2.42 201.019 78.794
2.43 206.942 79.234
2.44 211.835 78.974
2.45 215.832 78.373
2.46 217.524 77.836
2.47 218.420 77.575
2.48 218.765 77.519
2.49 218.160 77.539
2.50 216.667 77.576
2.51 214.796 77.594
2.52 214.904 77.560
2.53 214.938 77.448
2.54 214.607 77.110
2.55 211.823 76.704
2.56 210.699 76.930
2.57 208.254 77.621
2.58 204.312 78.124
2.59 199.698 78.255
2.60 194.266 78.070
2.61 188.677 77.429
2.62 169.926 76.499
2.63 158.670 76.166
2.64 146.517 76.331
2.65 137.698 76.423
2.66 133.139 76.285
2.67 129.803 76.076
2.68 127.893 75.857
2.69 127.083 75.182
2.70 128.244 74.382
2.71 130.610 74.422
2.72 130.850 74.989
2.73 131.246 75.245
2.74 130.476 74.871
2.75 126.724 73.797
2.76 103.199 71.792
2.77 --undefined-- 68.036
2.78 --undefined-- 61.651
2.79 --undefined-- 54.721
2.80 --undefined-- 51.562
2.81 --undefined-- 57.595
2.82 --undefined-- 66.170
2.83 --undefined-- 71.132
2.84 --undefined-- 74.266
2.85 149.723 76.369
2.86 152.764 77.409
2.87 154.514 77.979
2.88 154.364 78.375
2.89 153.701 78.609
2.90 151.602 78.794
2.91 149.202 79.006
2.92 148.073 79.069
2.93 147.503 78.910
2.94 146.550 78.665
2.95 146.331 78.538
2.96 147.431 78.528
2.97 148.986 78.420
2.98 151.414 78.172
2.99 153.592 78.018
3.00 155.363 78.110
3.01 156.364 78.169
3.02 155.562 77.537
3.03 150.959 75.597
3.04 148.243 72.297
3.05 155.771 67.937
3.06 158.178 62.569
3.07 153.744 58.668
3.08 154.292 58.800
3.09 --undefined-- 59.971
3.10 --undefined-- 63.393
3.11 --undefined-- 70.400
3.12 207.129 75.392
3.13 193.233 77.214
3.14 186.759 77.077
3.15 181.174 76.908
3.16 177.570 77.177
3.17 175.838 77.228
3.18 175.351 76.900
3.19 174.915 76.367
3.20 175.370 75.973
3.21 176.353 76.045
3.22 176.845 76.428
3.23 177.663 76.647
3.24 176.630 76.498
3.25 175.975 76.320
3.26 177.299 76.600
3.27 182.329 77.004
3.28 181.794 76.868
3.29 179.359 76.523
3.30 176.995 76.428
3.31 176.672 76.426
3.32 175.445 76.325
3.33 172.855 76.156
3.34 169.732 75.954
3.35 164.270 75.453
3.36 155.789 74.475
3.37 147.242 74.184
3.38 146.232 75.429
3.39 141.141 76.286
3.40 133.236 76.229
3.41 124.006 75.995
3.42 118.549 75.909
3.43 116.956 75.869
3.44 112.654 75.684
3.45 111.885 75.355
3.46 112.003 75.230
3.47 112.803 75.358
3.48 113.147 75.691
3.49 112.272 76.086
3.50 111.326 76.326
3.51 111.545 76.403
3.52 112.069 76.440
3.53 113.158 76.510
3.54 113.158 76.583
3.55 113.264 76.586
3.56 114.295 76.493
3.57 115.877 76.318
3.58 117.841 76.009
3.59 119.069 75.223
3.60 118.245 73.483
3.61 115.224 70.519
3.62 112.406 66.573
3.63 111.114 63.640
3.64 --undefined-- 66.109
3.65 --undefined-- 70.194
3.66 173.901 74.190
3.67 158.781 76.612
3.68 153.314 77.238
3.69 151.076 76.965
3.70 152.213 76.660
3.71 154.299 76.636
3.72 156.521 76.739
3.73 157.794 76.993
3.74 158.810 77.364
3.75 158.977 77.323
3.76 157.596 76.123
3.77 154.655 73.326
3.78 157.722 69.553
3.79 159.950 65.582
3.80 156.543 60.842
3.81 157.363 56.498
3.82 157.247 53.684
3.83 157.933 51.989
3.84 --undefined-- 56.263
3.85 --undefined-- 65.352
3.86 --undefined-- 72.437
3.87 --undefined-- 76.340
3.88 199.499 77.785
3.89 198.271 78.035
3.90 195.947 77.965
3.91 194.443 77.942
3.92 193.547 78.003
3.93 193.308 78.003
3.94 192.893 77.881
3.95 192.485 77.627
3.96 191.975 77.309
3.97 191.272 77.033
3.98 191.006 76.850
3.99 192.134 76.810
4.00 193.570 76.917
4.01 194.391 77.149
4.02 195.077 77.323
4.03 194.468 77.410
4.04 192.813 77.548
4.05 190.229 77.484
4.06 186.333 76.695
4.07 178.638 74.694
4.08 166.962 71.401
4.09 172.338 67.304
4.10 182.336 63.586
4.11 --undefined-- 63.371
4.12 --undefined-- 64.600
4.13 --undefined-- 68.986
4.14 --undefined-- 74.312
4.15 --undefined-- 76.722
4.16 135.088 77.163
4.17 129.660 77.115
4.18 123.891 77.189
4.19 122.051 77.358
4.20 121.578 77.455
4.21 120.712 77.447
4.22 120.753 77.472
4.23 121.845 77.673
4.24 122.450 77.546
4.25 121.939 76.017
4.26 122.675 72.345
4.27 98.811 67.089
4.28 98.728 62.460
4.29 123.393 58.755
4.30 122.272 56.581
4.31 120.322 63.154
4.32 --undefined-- 71.314
4.33 139.436 75.914
4.34 133.986 77.610
4.35 128.571 77.722
4.36 127.765 77.499
4.37 127.865 77.300
4.38 131.389 77.123
4.39 139.871 77.401
4.40 146.404 77.819
4.41 153.451 77.589
4.42 160.647 76.821
4.43 165.236 76.075
4.44 168.061 75.299
4.45 175.990 74.775
4.46 182.519 75.357
4.47 184.180 76.289
4.48 181.579 76.841
4.49 176.968 76.930
4.50 172.055 76.911
4.51 166.722 77.187
4.52 163.676 77.625
4.53 163.836 77.875
4.54 144.016 77.644
4.55 132.954 77.210
4.56 120.799 76.922
4.57 117.007 76.431
4.58 111.451 75.626
4.59 110.160 74.814
4.60 106.465 73.574
4.61 104.190 72.891
4.62 107.918 73.820
4.63 106.807 74.784
4.64 106.852 75.362
4.65 107.001 75.731
4.66 105.156 75.941
4.67 105.303 76.067
4.68 106.926 76.167
4.69 108.528 76.242
4.70 108.854 76.301
4.71 108.940 76.347
4.72 109.345 76.276
4.73 109.414 75.950
4.74 110.147 75.261
4.75 109.674 74.002
4.76 107.941 72.024
4.77 107.549 69.307
4.78 110.563 65.674
4.79 111.982 60.753
4.80 --undefined-- 54.950
4.81 --undefined-- 50.899
4.82 --undefined-- 57.511
4.83 --undefined-- 65.133
4.84 --undefined-- 70.646
4.85 --undefined-- 74.913
4.86 --undefined-- 76.964
4.87 135.066 77.259
4.88 128.394 77.025
4.89 126.585 76.818
4.90 126.059 76.707
4.91 124.355 76.701
4.92 121.907 76.340
4.93 117.387 75.199
4.94 118.776 74.665
4.95 122.490 75.473
4.96 123.494 76.228
4.97 124.335 76.564
4.98 125.138 76.643
4.99 125.742 --undefined--
5.00 125.859 --undefined--
5.01 --undefined-- --undefined--
5.02 --undefined-- --undefined--
