Time Pitch Intensity
0.01 --undefined-- --undefined--
0.02 155.700 --undefined--
0.03 148.445 --undefined--
0.04 148.174 --undefined--
0.05 151.961 67.516
0.06 153.962 62.918
0.07 154.493 60.861
0.08 155.503 58.921
0.09 160.290 56.116
0.10 160.999 54.247
0.11 --undefined-- 55.028
0.12 --undefined-- 57.382
0.13 --undefined-- 61.086
0.14 --undefined-- 65.248
0.15 129.066 68.385
0.16 124.181 70.057
0.17 123.852 71.541
0.18 123.557 73.682
0.19 120.634 75.065
0.20 118.657 74.914
0.21 117.009 73.444
0.22 106.041 71.604
0.23 100.398 70.240
0.24 97.442 69.314
0.25 96.605 68.483
0.26 95.992 67.622
0.27 93.642 66.493
0.28 95.280 65.049
0.29 97.274 64.175
0.30 97.409 64.232
0.31 100.913 64.980
0.32 103.575 66.260
0.33 111.366 67.920
0.34 118.432 69.816
0.35 128.767 71.955
0.36 140.437 74.328
0.37 144.694 76.234
0.38 150.429 77.347
0.39 156.720 77.967
0.40 160.452 78.359
0.41 160.509 78.586
0.42 156.743 78.366
0.43 150.313 77.386
0.44 149.630 75.370
0.45 151.527 71.977
0.46 156.121 67.594
0.47 155.481 63.915
0.48 157.619 61.265
0.49 156.312 58.436
0.50 156.461 55.308
0.51 156.339 53.053
0.52 --undefined-- 51.164
0.53 --undefined-- 49.372
0.54 --undefined-- 49.129
0.55 --undefined-- 49.420
0.56 --undefined-- 49.467
0.57 --undefined-- 49.158
0.58 --undefined-- 48.625
0.59 --undefined-- 47.997
0.60 --undefined-- 47.219
0.61 --undefined-- 46.171
0.62 --undefined-- 44.799
0.63 --undefined-- 43.905
0.64 --undefined-- 43.696
0.65 --undefined-- 42.949
0.66 --undefined-- 41.284
0.67 --undefined-- 39.515
0.68 --undefined-- 38.084
0.69 --undefined-- 38.873
0.70 --undefined-- 42.856
0.71 --undefined-- 49.153
0.72 --undefined-- 61.129
0.73 --undefined-- 69.852
0.74 --undefined-- 74.645
0.75 --undefined-- 76.705
0.76 150.472 77.642
0.77 162.654 78.099
0.78 176.452 77.605
0.79 222.306 76.986
0.80 237.690 77.379
0.81 257.715 78.296
0.82 267.323 79.374
0.83 267.536 80.280
0.84 264.803 80.822
0.85 264.665 81.111
0.86 266.688 80.891
0.87 259.939 79.906
0.88 241.272 79.399
0.89 224.935 79.785
0.90 214.968 78.934
0.91 --undefined-- 76.785
0.92 158.571 75.557
0.93 152.173 74.138
0.94 127.120 71.198
0.95 124.193 68.798
0.96 120.467 68.089
0.97 113.829 67.793
0.98 113.007 67.575
0.99 113.169 67.337
1.00 112.896 67.395
1.01 112.748 67.745
1.02 112.210 67.914
1.03 113.346 68.084
1.04 114.512 68.964
1.05 115.432 70.741
1.06 117.833 72.823
1.07 118.581 74.496
1.08 119.443 75.503
1.09 120.205 75.949
1.10 120.796 76.108
1.11 121.383 75.908
1.12 121.106 74.956
1.13 118.722 72.765
1.14 116.630 69.109
1.15 121.131 64.876
1.16 125.654 63.628
1.17 130.686 68.125
1.18 136.295 72.939
1.19 136.137 75.650
1.20 129.292 76.686
1.21 125.284 76.943
1.22 121.042 76.731
1.23 117.194 75.982
1.24 112.301 74.583
1.25 113.735 72.901
1.26 114.410 71.946
1.27 116.649 72.498
1.28 119.569 73.637
1.29 119.674 74.361
1.30 121.173 75.013
1.31 122.096 76.050
1.32 122.890 76.887
1.33 123.588 77.190
1.34 124.467 77.028
1.35 125.590 76.523
1.36 127.118 75.820
1.37 130.455 75.234
1.38 132.085 75.074
1.39 133.193 75.211
1.40 134.067 75.285
1.41 133.635 74.892
1.42 129.892 74.270
1.43 135.774 74.163
1.44 136.789 74.138
1.45 137.685 73.792
1.46 138.648 73.370
1.47 139.618 73.065
1.48 140.482 72.841
1.49 140.629 72.383
1.50 131.473 71.584
1.51 131.791 71.240
1.52 130.657 71.730
1.53 126.702 72.539
1.54 123.941 73.204
1.55 123.384 73.498
1.56 122.634 73.891
1.57 121.552 74.298
1.58 120.316 74.168
1.59 119.779 73.971
1.60 121.307 74.216
1.61 121.928 74.364
1.62 122.869 74.280
1.63 123.903 74.255
1.64 124.012 74.243
1.65 122.932 73.993
1.66 121.833 73.178
1.67 122.752 72.118
1.68 125.489 71.590
1.69 125.502 71.296
1.70 124.690 70.411
1.71 117.753 68.181
1.72 112.813 64.567
1.73 --undefined-- 61.743
1.74 --undefined-- 63.329
1.75 --undefined-- 66.199
1.76 --undefined-- 67.989
1.77 --undefined-- 71.269
1.78 --undefined-- 74.865
1.79 128.352 76.495
1.80 122.485 76.543
1.81 122.036 76.008
1.82 124.531 75.336
1.83 127.558 74.407
1.84 129.968 73.612
1.85 135.436 73.358
1.86 140.846 73.423
1.87 143.883 73.602
1.88 146.898 74.274
1.89 151.610 75.560
1.90 154.427 76.682
1.91 157.941 77.433
1.92 165.611 78.160
1.93 169.229 78.694
1.94 169.775 78.691
1.95 168.929 78.074
1.96 166.753 76.696
1.97 164.197 74.621
1.98 160.780 72.340
1.99 157.147 69.947
2.00 150.759 69.208
2.01 155.535 72.942
2.02 156.604 76.823
2.03 155.903 78.895
2.04 150.949 79.251
2.05 143.868 78.685
2.06 140.614 77.832
2.07 137.806 76.701
2.08 133.988 75.697
2.09 130.223 75.246
2.10 126.370 74.780
2.11 123.240 74.153
2.12 128.170 73.855
2.13 127.914 73.791
2.14 128.242 73.890
2.15 129.404 74.048
2.16 130.134 74.130
2.17 130.818 74.159
2.18 131.310 74.240
2.19 132.039 74.506
2.20 133.217 74.972
2.21 133.310 75.466
2.22 134.632 75.898
2.23 137.452 75.984
2.24 127.593 75.448
2.25 122.262 74.808
2.26 116.179 74.065
2.27 112.988 72.803
2.28 107.883 71.071
2.29 105.997 69.309
2.30 104.860 68.319
2.31 105.026 68.191
2.32 105.260 68.647
2.33 106.811 69.321
2.34 107.610 70.028
2.35 108.180 71.074
2.36 109.435 72.231
2.37 111.050 72.970
2.38 112.358 73.144
2.39 108.218 72.874
2.40 112.837 72.903
2.41 113.798 73.377
2.42 114.036 73.751
2.43 114.299 74.022
2.44 114.434 74.241
2.45 114.152 74.409
2.46 114.911 74.511
2.47 115.286 74.433
2.48 114.724 73.854
2.49 112.704 72.397
2.50 110.651 69.637
2.51 105.399 65.108
2.52 102.617 60.024
2.53 --undefined-- 58.009
2.54 --undefined-- 56.934
2.55 --undefined-- 57.250
2.56 --undefined-- 64.451
2.57 --undefined-- 71.742
2.58 --undefined-- 75.432
2.59 126.338 76.145
2.60 125.373 75.496
2.61 122.742 74.710
2.62 120.806 73.150
2.63 117.976 70.738
2.64 119.183 69.308
2.65 120.078 69.285
2.66 120.502 69.432
2.67 120.355 69.419
2.68 119.902 69.250
2.69 119.425 69.048
2.70 119.053 68.687
2.71 118.113 67.959
2.72 115.400 66.904
2.73 112.920 66.307
2.74 118.428 68.020
2.75 118.949 70.997
2.76 117.893 73.370
2.77 117.600 74.711
2.78 117.049 74.929
2.79 114.993 73.842
2.80 112.564 70.965
2.81 104.522 66.499
2.82 112.590 62.888
2.83 113.624 60.422
2.84 115.163 57.287
2.85 --undefined-- 53.172
2.86 --undefined-- 49.915
2.87 --undefined-- 51.341
2.88 --undefined-- 55.099
2.89 --undefined-- 62.994
2.90 --undefined-- 70.189
2.91 --undefined-- 73.944
2.92 --undefined-- 74.754
2.93 --undefined-- 73.639
2.94 101.083 72.066
2.95 100.733 70.506
2.96 99.295 68.728
2.97 97.332 66.245
2.98 99.739 62.338
2.99 99.475 58.481
3.00 117.311 55.396
3.01 --undefined-- 51.820
3.02 --undefined-- 48.621
3.03 --undefined-- 46.659
3.04 --undefined-- 44.324
3.05 --undefined-- 42.278
3.06 --undefined-- 41.328
3.07 --undefined-- 40.296
3.08 --undefined-- 38.517
3.09 --undefined-- 36.986
3.10 --undefined-- 37.699
3.11 --undefined-- 48.950
3.12 --undefined-- 62.509
3.13 --undefined-- 71.116
3.14 --undefined-- 75.519
3.15 --undefined-- 76.740
3.16 112.644 76.096
3.17 109.352 74.898
3.18 103.394 73.650
3.19 98.182 72.786
3.20 96.933 72.302
3.21 95.597 71.755
3.22 94.484 70.911
3.23 94.623 69.747
3.24 92.336 68.406
3.25 87.132 66.783
3.26 87.082 64.680
3.27 87.007 62.070
3.28 --undefined-- 59.632
3.29 --undefined-- 57.538
3.30 --undefined-- 54.896
3.31 --undefined-- 51.925
3.32 --undefined-- 51.448
3.33 --undefined-- 53.590
3.34 --undefined-- 56.339
3.35 111.215 60.491
3.36 122.172 64.729
3.37 131.622 68.055
3.38 139.659 70.569
3.39 147.156 72.491
3.40 154.215 74.015
3.41 161.851 75.520
3.42 167.365 76.965
3.43 165.495 77.846
3.44 164.450 78.113
3.45 161.422 78.098
3.46 157.926 77.949
3.47 151.511 77.736
3.48 146.469 77.684
3.49 143.647 77.086
3.50 146.091 74.684
3.51 146.357 70.205
3.52 145.689 65.091
3.53 146.249 60.237
3.54 145.712 55.999
3.55 146.073 53.860
3.56 146.950 54.244
3.57 --undefined-- 60.877
3.58 --undefined-- 70.126
3.59 --undefined-- 75.615
3.60 175.437 77.760
3.61 170.167 78.136
3.62 166.415 78.550
3.63 163.476 79.206
3.64 162.589 79.404
3.65 163.787 79.001
3.66 169.387 78.271
3.67 174.081 77.712
3.68 173.106 77.602
3.69 169.704 77.445
3.70 164.510 76.521
3.71 157.144 74.528
3.72 151.526 72.135
3.73 144.371 70.956
3.74 141.991 71.201
3.75 133.985 71.879
3.76 125.179 73.358
3.77 121.525 74.770
3.78 116.229 75.193
3.79 111.442 75.043
3.80 108.268 74.628
3.81 107.279 74.068
3.82 106.892 73.589
3.83 107.680 73.322
3.84 109.463 73.096
3.85 110.320 72.116
3.86 106.927 69.732
3.87 110.705 66.926
3.88 123.680 68.608
3.89 140.055 73.316
3.90 139.459 76.228
3.91 138.532 77.125
3.92 137.435 76.785
3.93 134.960 75.745
3.94 131.854 73.705
3.95 123.202 69.941
3.96 130.572 64.579
3.97 137.432 59.449
3.98 134.849 55.751
3.99 133.575 53.175
4.00 --undefined-- 56.711
4.01 --undefined-- 65.126
4.02 --undefined-- 70.834
4.03 109.850 73.360
4.04 105.929 73.536
4.05 101.443 72.519
4.06 99.205 71.439
4.07 100.849 71.211
4.08 104.547 71.694
4.09 107.865 72.467
4.10 112.125 73.521
4.11 116.114 74.454
4.12 118.321 74.519
4.13 117.908 73.161
4.14 115.033 70.138
4.15 114.052 66.240
4.16 116.282 62.856
4.17 115.815 59.673
4.18 116.334 55.193
4.19 --undefined-- 51.588
4.20 --undefined-- 56.195
4.21 --undefined-- 63.025
4.22 --undefined-- 69.796
4.23 --undefined-- 74.653
4.24 137.142 76.917
4.25 131.358 77.367
4.26 127.826 77.432
4.27 125.487 77.905
4.28 122.835 78.565
4.29 121.602 79.195
4.30 121.853 79.308
4.31 121.696 78.639
4.32 120.351 77.676
4.33 119.047 76.903
4.34 117.679 76.253
4.35 116.264 75.745
4.36 115.560 75.541
4.37 115.137 75.422
4.38 115.135 75.163
4.39 114.812 74.810
4.40 114.052 74.168
4.41 112.307 72.886
4.42 109.201 70.971
4.43 105.949 68.996
4.44 104.501 68.889
4.45 107.917 71.039
4.46 108.570 73.063
4.47 103.298 73.813
4.48 102.073 73.703
4.49 100.976 73.518
4.50 97.884 73.277
4.51 94.767 72.786
4.52 91.985 71.900
4.53 88.785 70.533
4.54 82.344 68.876
4.55 82.151 67.561
4.56 81.300 66.620
4.57 81.112 65.331
4.58 91.695 63.393
4.59 --undefined-- 60.551
4.60 --undefined-- 56.493
4.61 --undefined-- 52.152
4.62 --undefined-- 47.951
4.63 --undefined-- 46.162
4.64 --undefined-- 46.663
4.65 --undefined-- 47.318
4.66 --undefined-- 51.614
4.67 --undefined-- 56.752
4.68 --undefined-- 58.571
4.69 --undefined-- 57.140
4.70 --undefined-- 54.408
4.71 --undefined-- 52.604
4.72 --undefined-- 51.152
4.73 --undefined-- 51.114
4.74 --undefined-- 52.694
4.75 --undefined-- 53.952
4.76 --undefined-- 54.695
4.77 --undefined-- 55.405
4.78 --undefined-- 56.028
4.79 --undefined-- 56.898
4.80 --undefined-- 57.483
4.81 --undefined-- 57.317
4.82 --undefined-- 57.793
4.83 --undefined-- 58.760
4.84 --undefined-- 58.953
4.85 --undefined-- 58.585
4.86 --undefined-- 58.079
4.87 --undefined-- 57.190
4.88 --undefined-- 55.460
4.89 --undefined-- 52.891
4.90 --undefined-- 49.547
4.91 --undefined-- 44.398
4.92 --undefined-- 40.542
4.93 --undefined-- 50.192
4.94 --undefined-- 60.413
4.95 --undefined-- 69.131
4.96 161.974 75.056
4.97 158.771 78.199
4.98 160.217 79.240
4.99 161.986 78.651
5.00 162.692 76.489
5.01 171.044 73.681
5.02 187.000 72.953
5.03 211.942 74.564
5.04 226.508 77.051
5.05 220.103 78.586
5.06 219.901 78.476
5.07 213.046 77.264
5.08 205.492 76.290
5.09 198.319 76.072
5.10 193.792 76.064
5.11 176.624 76.560
5.12 163.646 77.408
5.13 157.140 77.474
5.14 145.940 76.495
5.15 139.258 74.867
5.16 145.469 73.212
5.17 146.490 72.062
5.18 141.385 71.020
5.19 138.112 70.274
5.20 137.100 70.763
5.21 136.833 72.188
5.22 133.996 --undefined--
5.23 131.938 --undefined--
5.24 --undefined-- --undefined--
5.25 --undefined-- --undefined--
