Time Pitch Intensity
0.01 --undefined-- --undefined--
0.02 --undefined-- --undefined--
0.03 --undefined-- --undefined--
0.04 --undefined-- --undefined--
0.05 --undefined-- 52.148
0.06 --undefined-- 48.153
0.07 --undefined-- 45.576
0.08 --undefined-- 43.184
0.09 --undefined-- 47.832
0.10 --undefined-- 56.563
0.11 129.477 62.007
0.12 123.389 64.825
0.13 120.991 66.203
0.14 121.503 66.975
0.15 126.964 67.420
0.16 137.474 67.796
0.17 151.080 68.305
0.18 161.564 68.058
0.19 168.977 66.505
0.20 180.194 64.034
0.21 183.608 61.245
0.22 185.427 58.600
0.23 189.491 56.320
0.24 194.121 55.124
0.25 201.780 56.919
0.26 192.898 61.117
0.27 189.522 65.293
0.28 183.088 68.000
0.29 171.369 69.293
0.30 162.628 70.218
0.31 154.974 71.150
0.32 154.426 71.500
0.33 159.599 71.219
0.34 166.919 70.806
0.35 166.113 70.027
0.36 163.574 67.939
0.37 165.580 64.081
0.38 164.018 58.488
0.39 --undefined-- 51.599
0.40 --undefined-- 45.859
0.41 --undefined-- 44.088
0.42 --undefined-- 43.666
0.43 --undefined-- 44.236
0.44 --undefined-- 46.271
0.45 --undefined-- 54.877
0.46 --undefined-- 62.004
0.47 152.493 66.027
0.48 144.041 67.729
0.49 133.812 67.875
0.50 118.149 67.295
0.51 113.606 66.837
0.52 109.919 66.313
0.53 105.987 65.025
0.54 97.811 62.951
0.55 99.683 62.089
0.56 101.700 62.516
0.57 103.194 62.963
0.58 103.668 63.692
0.59 99.494 64.254
0.60 97.123 64.359
0.61 96.421 64.342
0.62 97.194 64.553
0.63 99.282 65.102
0.64 101.803 65.693
0.65 103.992 66.045
0.66 106.068 66.087
0.67 108.185 65.774
0.68 109.601 65.350
0.69 111.558 65.342
0.70 113.431 65.768
0.71 114.283 66.159
0.72 113.642 66.494
0.73 112.125 66.833
0.74 108.998 66.970
0.75 107.353 66.841
0.76 106.698 66.382
0.77 107.566 65.767
0.78 113.742 65.464
0.79 120.380 65.596
0.80 126.341 66.344
0.81 129.414 67.146
0.82 133.462 67.328
0.83 138.640 66.755
0.84 150.590 65.576
0.85 165.798 63.803
0.86 167.971 61.297
0.87 169.173 58.743
0.88 176.209 58.410
0.89 188.463 61.691
0.90 182.962 64.986
0.91 175.440 66.967
0.92 168.565 68.079
0.93 167.105 68.729
0.94 166.389 68.874
0.95 164.386 68.468
0.96 163.043 68.011
0.97 162.416 68.052
0.98 159.447 68.183
0.99 153.809 68.145
1.00 145.747 68.066
1.01 136.129 67.719
1.02 127.265 67.189
1.03 116.599 66.748
1.04 109.036 66.191
1.05 100.278 65.578
1.06 92.162 64.994
1.07 85.025 64.196
1.08 81.544 62.949
1.09 88.968 61.592
1.10 87.900 61.010
1.11 91.448 60.964
1.12 92.870 60.849
1.13 93.377 60.650
1.14 91.521 60.650
1.15 89.108 61.294
1.16 92.091 62.178
1.17 93.575 62.710
1.18 94.906 62.614
1.19 94.772 61.365
1.20 94.935 58.350
1.21 96.028 53.476
1.22 --undefined-- 48.301
1.23 --undefined-- 46.397
1.24 --undefined-- 45.856
1.25 --undefined-- 46.142
1.26 --undefined-- 47.565
1.27 --undefined-- 50.069
1.28 --undefined-- 54.795
1.29 124.454 59.440
1.30 124.543 62.349
1.31 115.680 63.537
1.32 114.551 63.588
1.33 89.469 63.317
1.34 89.328 63.116
1.35 85.590 63.103
1.36 81.160 63.405
1.37 78.743 63.624
1.38 79.026 63.797
1.39 79.450 63.823
1.40 80.270 63.165
1.41 84.104 62.265
1.42 90.267 61.836
1.43 95.010 61.858
1.44 94.201 61.765
1.45 99.420 61.288
1.46 98.896 60.555
1.47 97.195 59.182
1.48 95.108 56.949
1.49 102.507 55.287
1.50 116.085 55.271
1.51 119.939 56.401
1.52 125.435 58.798
1.53 125.421 61.801
1.54 127.967 64.462
1.55 128.501 66.239
1.56 134.866 67.096
1.57 143.419 67.350
1.58 144.809 67.414
1.59 154.079 67.888
1.60 155.170 68.846
1.61 156.231 69.872
1.62 158.082 70.699
1.63 158.837 71.154
1.64 159.961 71.199
1.65 157.052 71.202
1.66 152.520 71.354
1.67 151.256 71.383
1.68 151.326 71.299
1.69 149.214 71.002
1.70 148.953 70.312
1.71 150.950 69.122
1.72 152.190 67.404
1.73 150.405 64.935
1.74 148.484 61.059
1.75 --undefined-- 54.947
1.76 --undefined-- 46.927
1.77 --undefined-- 42.269
1.78 --undefined-- 41.381
1.79 --undefined-- 40.354
1.80 --undefined-- 39.907
1.81 --undefined-- 38.962
1.82 --undefined-- 38.369
1.83 --undefined-- 39.204
1.84 --undefined-- 39.890
1.85 --undefined-- 39.957
1.86 --undefined-- 39.980
1.87 --undefined-- 39.799
1.88 --undefined-- 38.936
1.89 --undefined-- 38.726
1.90 --undefined-- 40.465
1.91 --undefined-- 41.863
1.92 --undefined-- 42.053
1.93 --undefined-- 41.784
1.94 --undefined-- 41.536
1.95 --undefined-- 42.480
1.96 --undefined-- 44.058
1.97 --undefined-- 44.267
1.98 --undefined-- 43.666
1.99 --undefined-- 42.831
2.00 --undefined-- 41.166
2.01 --undefined-- 39.362
2.02 --undefined-- 39.306
2.03 --undefined-- 40.091
2.04 --undefined-- 40.349
2.05 --undefined-- 39.471
2.06 --undefined-- 37.481
2.07 --undefined-- 35.303
2.08 --undefined-- 34.384
2.09 --undefined-- 35.462
2.10 --undefined-- 38.372
2.11 --undefined-- 47.349
2.12 --undefined-- 58.184
2.13 --undefined-- 65.358
2.14 164.527 69.522
2.15 164.634 71.589
2.16 169.152 72.822
2.17 182.049 73.485
2.18 192.941 72.962
2.19 198.623 71.935
2.20 204.549 71.485
2.21 208.212 71.467
2.22 210.653 71.158
2.23 216.318 70.331
2.24 222.245 68.985
2.25 219.128 67.113
2.26 207.049 64.714
2.27 196.449 61.536
2.28 197.946 57.236
2.29 --undefined-- 52.632
2.30 --undefined-- 50.700
2.31 --undefined-- 53.246
2.32 --undefined-- 60.634
2.33 202.269 66.236
2.34 174.588 69.192
2.35 164.056 70.326
2.36 148.510 70.203
2.37 137.893 69.671
2.38 127.999 69.665
2.39 128.394 69.732
2.40 129.527 69.739
2.41 129.092 69.928
2.42 128.777 70.186
2.43 130.125 70.385
2.44 133.122 70.650
2.45 136.042 71.209
2.46 138.220 71.984
2.47 140.692 72.787
2.48 143.003 73.382
2.49 145.501 73.441
2.50 148.476 72.718
2.51 152.501 71.174
2.52 149.465 68.751
2.53 146.610 65.413
2.54 155.208 61.667
2.55 155.148 57.342
2.56 --undefined-- 51.411
2.57 --undefined-- 45.625
2.58 --undefined-- 44.045
2.59 --undefined-- 48.076
2.60 --undefined-- 56.282
2.61 --undefined-- 63.242
2.62 183.607 67.647
2.63 176.667 69.819
2.64 162.322 70.615
2.65 153.813 71.086
2.66 148.580 71.299
2.67 146.156 70.984
2.68 147.096 70.747
2.69 148.395 70.823
2.70 147.774 70.752
2.71 146.658 70.561
2.72 145.005 70.420
2.73 142.894 70.337
2.74 141.415 70.206
2.75 140.240 69.902
2.76 139.522 69.497
2.77 139.896 69.118
2.78 140.798 68.740
2.79 141.857 68.331
2.80 142.983 67.994
2.81 144.040 67.892
2.82 145.886 68.025
2.83 147.074 68.168
2.84 148.920 68.295
2.85 150.948 68.472
2.86 151.480 68.335
2.87 148.844 67.240
2.88 138.991 64.868
2.89 140.433 62.016
2.90 146.250 61.154
2.91 155.181 63.123
2.92 159.716 65.656
2.93 161.887 67.525
2.94 164.721 68.869
2.95 163.478 69.902
2.96 157.439 70.800
2.97 152.785 71.513
2.98 130.059 71.552
2.99 124.849 71.088
3.00 122.295 70.836
3.01 121.207 70.907
3.02 120.761 70.799
3.03 120.201 70.291
3.04 120.492 69.707
3.05 121.189 69.591
3.06 122.928 69.912
3.07 126.606 70.046
3.08 130.465 69.786
3.09 132.587 69.628
3.10 134.511 69.876
3.11 136.237 70.197
3.12 138.744 70.203
3.13 143.086 69.731
3.14 144.338 68.832
3.15 144.233 67.420
3.16 144.115 65.158
3.17 147.795 61.701
3.18 155.736 56.974
3.19 149.010 51.601
3.20 --undefined-- 47.040
3.21 --undefined-- 43.683
3.22 --undefined-- 41.175
3.23 --undefined-- 40.147
3.24 --undefined-- 40.771
3.25 --undefined-- 42.788
3.26 --undefined-- 45.730
3.27 --undefined-- 51.846
3.28 --undefined-- 60.598
3.29 220.753 66.643
3.30 213.748 69.824
3.31 201.656 71.054
3.32 190.702 71.668
3.33 183.230 72.293
3.34 178.415 72.591
3.35 176.121 72.550
3.36 175.604 72.399
3.37 175.478 72.328
3.38 174.910 72.289
3.39 174.873 72.043
3.40 175.635 71.247
3.41 175.914 70.099
3.42 188.026 69.734
3.43 192.001 69.899
3.44 192.774 69.778
3.45 191.709 69.153
3.46 188.390 67.731
3.47 183.504 65.167
3.48 178.776 61.365
3.49 174.955 56.824
3.50 176.376 52.869
3.51 181.498 49.400
3.52 --undefined-- 48.541
3.53 --undefined-- 55.852
3.54 --undefined-- 61.613
3.55 132.540 64.884
3.56 122.856 66.505
3.57 112.684 66.979
3.58 107.220 66.644
3.59 103.752 66.147
3.60 99.437 65.937
3.61 98.542 65.733
3.62 98.374 65.052
3.63 96.998 63.302
3.64 90.994 60.421
3.65 99.653 57.363
3.66 --undefined-- 53.943
3.67 --undefined-- 49.510
3.68 --undefined-- 45.464
3.69 --undefined-- 41.927
3.70 --undefined-- 43.887
3.71 --undefined-- 53.617
3.72 --undefined-- 61.280
3.73 180.349 66.129
3.74 173.072 68.703
3.75 167.804 69.613
3.76 166.614 69.783
3.77 167.499 69.964
3.78 168.053 70.163
3.79 168.287 70.293
3.80 169.292 70.418
3.81 170.494 70.552
3.82 171.313 70.575
3.83 171.579 70.481
3.84 172.021 70.401
3.85 173.195 70.349
3.86 173.870 70.353
3.87 173.120 70.371
3.88 171.703 70.283
3.89 171.385 70.016
3.90 171.020 69.338
3.91 169.137 67.978
3.92 --undefined-- 65.898
3.93 96.967 62.950
3.94 95.788 58.544
3.95 --undefined-- 52.377
3.96 --undefined-- 45.601
3.97 --undefined-- 40.899
3.98 --undefined-- 38.808
3.99 --undefined-- 37.331
4.00 --undefined-- 35.939
4.01 --undefined-- 35.886
4.02 --undefined-- 35.401
4.03 --undefined-- 33.441
4.04 --undefined-- 31.924
4.05 --undefined-- 33.905
4.06 --undefined-- 36.220
4.07 --undefined-- 37.120
4.08 --undefined-- 36.528
4.09 --undefined-- 35.277
4.10 --undefined-- 37.474
4.11 --undefined-- 46.988
4.12 --undefined-- 57.518
4.13 --undefined-- 63.731
4.14 131.625 66.700
4.15 131.693 67.787
4.16 130.567 68.238
4.17 124.288 68.274
4.18 118.036 68.040
4.19 113.115 67.387
4.20 109.676 66.059
4.21 100.680 65.007
4.22 100.896 65.509
4.23 101.004 66.156
4.24 100.968 66.381
4.25 100.802 66.440
4.26 101.755 66.435
4.27 102.143 66.448
4.28 103.473 66.600
4.29 104.926 66.754
4.30 106.794 66.709
4.31 110.717 66.199
4.32 113.904 64.870
4.33 112.512 62.236
4.34 111.671 57.851
4.35 106.430 51.993
4.36 --undefined-- 48.205
4.37 --undefined-- 47.292
4.38 --undefined-- 47.434
4.39 --undefined-- 54.857
4.40 --undefined-- 63.243
4.41 207.250 68.180
4.42 188.660 70.396
4.43 183.331 71.008
4.44 178.490 71.057
4.45 177.458 71.235
4.46 184.204 71.366
4.47 186.908 71.303
4.48 190.613 70.841
4.49 192.246 70.042
4.50 193.054 69.641
4.51 200.848 69.206
4.52 200.720 67.784
4.53 197.423 65.350
4.54 192.759 62.249
4.55 191.043 59.185
4.56 193.163 56.188
4.57 193.637 52.453
4.58 --undefined-- 47.762
4.59 --undefined-- 50.076
4.60 --undefined-- 58.026
4.61 --undefined-- 63.214
4.62 --undefined-- 66.005
4.63 --undefined-- 67.066
4.64 114.308 67.125
4.65 104.378 66.693
4.66 101.730 66.246
4.67 102.249 66.090
4.68 103.827 65.685
4.69 101.025 64.027
4.70 100.846 61.174
4.71 101.584 58.600
4.72 101.410 56.348
4.73 128.747 53.905
4.74 153.442 51.886
4.75 156.678 49.725
4.76 --undefined-- 45.612
4.77 --undefined-- 39.781
4.78 --undefined-- 39.655
4.79 --undefined-- 49.838
4.80 --undefined-- 58.599
4.81 199.961 64.726
4.82 185.610 68.772
4.83 173.003 71.182
4.84 170.984 72.153
4.85 172.839 72.365
4.86 174.255 72.484
4.87 175.364 72.502
4.88 178.330 72.289
4.89 181.646 71.929
4.90 181.978 71.292
4.91 183.164 69.882
4.92 183.261 67.302
4.93 179.724 63.441
4.94 178.324 59.367
4.95 179.288 55.076
4.96 --undefined-- 48.861
4.97 --undefined-- 42.208
4.98 --undefined-- 40.425
4.99 --undefined-- 39.313
5.00 --undefined-- 38.047
5.01 --undefined-- 37.688
5.02 --undefined-- 38.406
5.03 --undefined-- 39.062
5.04 --undefined-- 39.157
5.05 --undefined-- 39.148
5.06 --undefined-- 39.613
5.07 --undefined-- 40.738
5.08 --undefined-- 42.550
5.09 --undefined-- 48.808
5.10 --undefined-- 57.720
5.11 245.225 63.497
5.12 227.425 66.517
5.13 225.179 67.986
5.14 223.967 68.877
5.15 221.790 69.420
5.16 219.474 69.660
5.17 216.723 69.671
5.18 214.403 69.548
5.19 211.852 69.282
5.20 208.967 68.677
5.21 205.533 67.469
5.22 199.658 65.427
5.23 188.398 62.723
5.24 187.145 59.694
5.25 193.665 55.497
5.26 --undefined-- 49.428
5.27 --undefined-- 44.124
5.28 --undefined-- 41.067
5.29 --undefined-- 38.108
5.30 --undefined-- 36.012
5.31 --undefined-- 37.783
5.32 --undefined-- 40.113
5.33 --undefined-- 40.586
5.34 --undefined-- 40.692
5.35 --undefined-- 42.093
5.36 --undefined-- 44.616
5.37 --undefined-- 47.545
5.38 --undefined-- 49.897
5.39 --undefined-- 51.923
5.40 --undefined-- 53.952
5.41 --undefined-- 55.264
5.42 --undefined-- 54.749
5.43 --undefined-- 56.058
5.44 --undefined-- 62.921
5.45 --undefined-- 67.794
5.46 136.634 70.074
5.47 125.155 70.771
5.48 115.089 70.640
5.49 110.638 70.023
5.50 107.078 69.341
5.51 103.621 68.814
5.52 99.933 68.376
5.53 96.359 67.969
5.54 95.024 67.572
5.55 93.971 67.295
5.56 93.469 67.072
5.57 91.949 66.684
5.58 89.838 66.040
5.59 89.000 65.274
5.60 86.819 64.387
5.61 84.574 63.312
5.62 82.243 62.033
5.63 75.756 60.823
5.64 --undefined-- 60.002
5.65 --undefined-- 59.029
5.66 --undefined-- 57.034
5.67 --undefined-- 53.957
5.68 --undefined-- 49.923
5.69 --undefined-- 45.694
5.70 --undefined-- 41.255
5.71 --undefined-- 37.261
5.72 --undefined-- 35.807
5.73 --undefined-- 36.575
5.74 --undefined-- 39.555
5.75 --undefined-- 43.496
5.76 --undefined-- 44.815
5.77 --undefined-- --undefined--
5.78 --undefined-- --undefined--
5.79 --undefined-- --undefined--
5.80 --undefined-- --undefined--
