Time Pitch Intensity
0.01 --undefined-- --undefined--
0.02 122.901 --undefined--
0.03 121.588 --undefined--
0.04 --undefined-- --undefined--
0.05 --undefined-- 48.208
0.06 --undefined-- 54.559
0.07 132.173 63.518
0.08 131.370 69.793
0.09 132.495 72.897
0.10 132.418 73.558
0.11 131.104 72.944
0.12 133.295 71.887
0.13 134.777 70.258
0.14 137.910 67.854
0.15 138.405 64.562
0.16 139.476 61.732
0.17 138.163 61.212
0.18 136.717 61.322
0.19 134.169 61.482
0.20 133.524 62.206
0.21 132.497 62.693
0.22 --undefined-- 61.835
0.23 121.014 59.721
0.24 117.846 58.407
0.25 117.689 59.230
0.26 116.507 61.221
0.27 119.851 63.722
0.28 115.346 66.342
0.29 115.729 68.738
0.30 111.772 70.418
0.31 115.455 71.497
0.32 116.448 72.254
0.33 119.111 72.496
0.34 122.312 72.210
0.35 124.197 71.240
0.36 125.452 69.301
0.37 --undefined-- 66.218
0.38 --undefined-- 61.649
0.39 122.059 55.884
0.40 122.607 51.343
0.41 --undefined-- 47.654
0.42 --undefined-- 45.125
0.43 --undefined-- 49.834
0.44 --undefined-- 56.985
0.45 --undefined-- 64.271
0.46 --undefined-- 68.752
0.47 --undefined-- 70.728
0.48 121.225 71.024
0.49 119.563 70.687
0.50 --undefined-- 71.050
0.51 --undefined-- 71.891
0.52 118.478 72.657
0.53 118.676 73.466
0.54 120.399 74.110
0.55 124.438 74.143
0.56 127.237 73.368
0.57 126.071 71.538
0.58 127.925 68.284
0.59 118.937 63.562
0.60 118.546 58.277
0.61 127.030 53.408
0.62 --undefined-- 48.943
0.63 --undefined-- 46.387
0.64 --undefined-- 46.497
0.65 --undefined-- 45.814
0.66 --undefined-- 45.042
0.67 --undefined-- 46.838
0.68 --undefined-- 49.040
0.69 --undefined-- 50.049
0.70 --undefined-- 50.006
0.71 --undefined-- 49.197
0.72 --undefined-- 47.725
0.73 --undefined-- 47.228
0.74 --undefined-- 52.815
0.75 --undefined-- 59.443
0.76 152.147 63.502
0.77 149.532 65.681
0.78 146.577 66.805
0.79 142.642 67.307
0.80 140.740 67.469
0.81 139.338 67.578
0.82 139.076 67.641
0.83 138.859 67.500
0.84 138.739 67.359
0.85 139.683 67.563
0.86 140.201 68.041
0.87 140.943 68.386
0.88 142.625 68.588
0.89 143.172 68.521
0.90 143.488 67.811
0.91 142.919 66.238
0.92 141.594 63.559
0.93 140.178 59.970
0.94 --undefined-- 56.887
0.95 --undefined-- 56.643
0.96 --undefined-- 57.292
0.97 --undefined-- 57.252
0.98 --undefined-- 58.339
0.99 --undefined-- 62.155
1.00 --undefined-- 66.899
1.01 --undefined-- 70.119
1.02 --undefined-- 71.468
1.03 --undefined-- 71.138
1.04 103.911 69.710
1.05 99.926 68.148
1.06 97.819 67.017
1.07 94.922 65.874
1.08 92.615 64.689
1.09 92.748 63.800
1.10 92.692 62.995
1.11 92.219 61.939
1.12 92.245 60.661
1.13 89.120 58.843
1.14 106.618 56.255
1.15 106.573 53.797
1.16 108.491 51.744
1.17 110.264 49.852
1.18 --undefined-- 47.255
1.19 --undefined-- 43.912
1.20 --undefined-- 40.892
1.21 --undefined-- 38.486
1.22 --undefined-- 38.454
1.23 --undefined-- 43.395
1.24 --undefined-- 52.546
1.25 --undefined-- 58.695
1.26 --undefined-- 61.354
1.27 --undefined-- 61.489
1.28 --undefined-- 60.319
1.29 --undefined-- 57.795
1.30 --undefined-- 53.001
1.31 --undefined-- 46.369
1.32 --undefined-- 41.248
1.33 --undefined-- 38.338
1.34 --undefined-- 35.861
1.35 --undefined-- 34.643
1.36 --undefined-- 41.728
1.37 --undefined-- 48.605
1.38 --undefined-- 55.946
1.39 --undefined-- 63.331
1.40 --undefined-- 67.733
1.41 --undefined-- 69.115
1.42 --undefined-- 68.573
1.43 95.984 68.339
1.44 95.572 69.105
1.45 95.497 69.638
1.46 95.919 69.637
1.47 96.078 69.119
1.48 95.807 67.920
1.49 96.731 66.522
1.50 98.111 65.352
1.51 99.687 64.000
1.52 101.811 62.227
1.53 102.883 59.866
1.54 103.986 56.583
1.55 --undefined-- 52.202
1.56 --undefined-- 47.077
1.57 --undefined-- 42.405
1.58 --undefined-- 38.989
1.59 --undefined-- 37.107
1.60 --undefined-- 36.058
1.61 --undefined-- 35.080
1.62 --undefined-- 35.107
1.63 --undefined-- 36.234
1.64 --undefined-- 43.360
1.65 --undefined-- 54.462
1.66 --undefined-- 64.118
1.67 --undefined-- 70.142
1.68 --undefined-- 72.228
1.69 97.944 70.860
1.70 86.670 67.582
1.71 93.203 65.243
1.72 91.516 64.067
1.73 92.606 63.955
1.74 93.579 64.413
1.75 94.449 64.241
1.76 96.503 63.390
1.77 --undefined-- 62.449
1.78 --undefined-- 61.424
1.79 --undefined-- 59.414
1.80 --undefined-- 55.773
1.81 --undefined-- 50.365
1.82 --undefined-- 44.410
1.83 --undefined-- 40.556
1.84 --undefined-- 38.554
1.85 --undefined-- 37.444
1.86 --undefined-- 36.374
1.87 --undefined-- 34.961
1.88 --undefined-- 33.678
1.89 --undefined-- 32.518
1.90 --undefined-- 31.757
1.91 --undefined-- 31.624
1.92 --undefined-- 31.284
1.93 --undefined-- 31.961
1.94 --undefined-- 33.351
1.95 --undefined-- 40.002
1.96 --undefined-- 48.057
1.97 --undefined-- 52.087
1.98 --undefined-- 54.645
1.99 --undefined-- 60.150
2.00 --undefined-- 64.613
2.01 --undefined-- 67.819
2.02 --undefined-- 70.038
2.03 --undefined-- 70.078
2.04 --undefined-- 67.823
2.05 --undefined-- 65.321
2.06 89.591 65.079
2.07 89.316 64.507
2.08 89.133 62.791
2.09 92.480 60.891
2.10 93.477 59.447
2.11 93.775 58.604
2.12 97.575 58.172
2.13 92.805 58.096
2.14 90.574 58.170
2.15 89.029 57.637
2.16 --undefined-- 56.841
2.17 --undefined-- 55.483
2.18 --undefined-- 54.978
2.19 --undefined-- 55.713
2.20 105.938 55.310
2.21 110.782 55.002
2.22 115.705 55.750
2.23 116.296 56.586
2.24 116.560 57.094
2.25 115.610 57.326
2.26 117.655 58.784
2.27 117.062 61.277
2.28 116.695 62.914
2.29 115.304 63.397
2.30 112.477 62.953
2.31 108.266 61.792
2.32 102.683 60.393
2.33 97.511 58.995
2.34 94.742 57.694
2.35 95.710 56.391
2.36 --undefined-- 54.507
2.37 --undefined-- 53.553
2.38 --undefined-- 53.123
2.39 --undefined-- 50.989
2.40 --undefined-- 48.337
2.41 --undefined-- 46.803
2.42 --undefined-- 47.425
2.43 --undefined-- 49.713
2.44 --undefined-- 49.651
2.45 --undefined-- 47.642
2.46 --undefined-- 46.272
2.47 --undefined-- 45.961
2.48 --undefined-- 45.189
2.49 --undefined-- 45.970
2.50 --undefined-- 51.046
2.51 95.382 56.634
2.52 96.208 60.088
2.53 93.702 61.307
2.54 92.770 61.295
2.55 79.026 61.034
2.56 76.197 60.799
2.57 --undefined-- 60.236
2.58 --undefined-- 58.758
2.59 --undefined-- 56.113
2.60 --undefined-- 52.724
2.61 --undefined-- 50.151
2.62 --undefined-- 48.232
2.63 --undefined-- 45.977
2.64 --undefined-- 44.877
2.65 --undefined-- 44.458
2.66 --undefined-- 43.866
2.67 --undefined-- 43.344
2.68 --undefined-- 42.590
2.69 --undefined-- 41.442
2.70 --undefined-- 40.057
2.71 --undefined-- 38.363
2.72 --undefined-- 36.717
2.73 --undefined-- 35.539
2.74 --undefined-- 34.065
2.75 --undefined-- 32.729
2.76 --undefined-- 33.531
2.77 --undefined-- 34.395
2.78 --undefined-- 33.690
2.79 --undefined-- 33.217
2.80 --undefined-- 34.083
2.81 --undefined-- 34.661
2.82 --undefined-- 35.346
2.83 --undefined-- 37.268
2.84 --undefined-- 39.902
2.85 --undefined-- 42.094
2.86 --undefined-- 43.134
2.87 --undefined-- 43.485
2.88 --undefined-- 44.108
2.89 --undefined-- 44.627
2.90 --undefined-- 45.484
2.91 --undefined-- 53.896
2.92 --undefined-- 62.146
2.93 120.983 66.772
2.94 118.388 68.575
2.95 117.702 68.283
2.96 120.755 66.619
2.97 128.151 64.970
2.98 124.573 63.957
2.99 125.882 62.756
3.00 132.421 61.908
3.01 132.954 61.811
3.02 134.484 61.729
3.03 135.675 61.867
3.04 136.346 62.192
3.05 136.113 62.680
3.06 135.560 63.503
3.07 134.995 63.972
3.08 133.796 63.835
3.09 134.938 63.568
3.10 129.845 63.374
3.11 129.555 62.863
3.12 125.803 61.268
3.13 122.552 58.161
3.14 121.606 54.108
3.15 --undefined-- 50.081
3.16 --undefined-- 45.406
3.17 --undefined-- 41.631
3.18 --undefined-- 42.370
3.19 --undefined-- 46.371
3.20 --undefined-- 51.085
3.21 --undefined-- 57.702
3.22 --undefined-- 64.004
3.23 --undefined-- 67.845
3.24 --undefined-- 69.561
3.25 113.368 69.818
3.26 112.411 69.410
3.27 112.846 68.806
3.28 112.428 67.573
3.29 113.976 64.810
3.30 --undefined-- 59.888
3.31 --undefined-- 52.873
3.32 --undefined-- 46.596
3.33 --undefined-- 44.061
3.34 --undefined-- 44.199
3.35 --undefined-- 44.780
3.36 --undefined-- 45.805
3.37 --undefined-- 47.777
3.38 --undefined-- 48.987
3.39 --undefined-- 48.749
3.40 --undefined-- 47.518
3.41 --undefined-- 47.531
3.42 --undefined-- 54.210
3.43 --undefined-- 60.669
3.44 131.917 63.758
3.45 126.815 64.194
3.46 121.186 62.612
3.47 116.933 58.912
3.48 --undefined-- 52.989
3.49 --undefined-- 46.962
3.50 --undefined-- 44.282
3.51 --undefined-- 50.389
3.52 --undefined-- 59.053
3.53 --undefined-- 64.455
3.54 123.969 66.995
3.55 121.534 67.961
3.56 119.596 68.242
3.57 117.861 67.589
3.58 116.373 65.587
3.59 115.055 61.923
3.60 --undefined-- 56.315
3.61 --undefined-- 49.230
3.62 --undefined-- 44.349
3.63 --undefined-- 45.502
3.64 --undefined-- 50.245
3.65 112.921 54.253
3.66 108.851 56.491
3.67 105.326 57.093
3.68 101.691 56.312
3.69 101.433 54.759
3.70 101.815 52.988
3.71 103.444 51.871
3.72 105.975 52.781
3.73 108.832 54.046
3.74 108.799 53.413
3.75 --undefined-- 49.864
3.76 --undefined-- 44.524
3.77 --undefined-- 49.908
3.78 --undefined-- 56.075
3.79 --undefined-- 57.953
3.80 --undefined-- 56.649
3.81 --undefined-- 56.729
3.82 --undefined-- 59.264
3.83 --undefined-- 63.047
3.84 --undefined-- 65.312
3.85 83.630 65.405
3.86 93.844 65.351
3.87 88.239 65.278
3.88 --undefined-- 63.686
3.89 --undefined-- 60.582
3.90 --undefined-- 58.411
3.91 --undefined-- 58.448
3.92 --undefined-- 57.354
3.93 --undefined-- 54.571
3.94 --undefined-- 52.358
3.95 --undefined-- 51.515
3.96 89.733 52.448
3.97 89.365 53.918
3.98 101.235 56.206
3.99 97.090 57.959
4.00 96.985 58.028
4.01 85.718 56.847
4.02 91.282 55.828
4.03 85.706 54.286
4.04 85.595 51.937
4.05 --undefined-- 51.180
4.06 --undefined-- 51.343
4.07 --undefined-- 51.410
4.08 --undefined-- 51.171
4.09 --undefined-- 50.766
4.10 92.121 51.024
4.11 90.107 50.922
4.12 89.887 49.778
4.13 --undefined-- 47.465
4.14 --undefined-- 44.009
4.15 --undefined-- 41.974
4.16 --undefined-- 48.112
4.17 --undefined-- 52.406
4.18 --undefined-- 53.676
4.19 --undefined-- 55.179
4.20 --undefined-- 57.447
4.21 --undefined-- 57.984
4.22 --undefined-- 56.479
4.23 --undefined-- 55.398
4.24 78.285 55.353
4.25 75.180 55.091
4.26 75.399 55.610
4.27 75.534 56.323
4.28 80.203 56.555
4.29 88.187 57.096
4.30 89.916 57.966
4.31 89.667 58.041
4.32 92.238 56.891
4.33 89.904 54.961
4.34 90.943 53.155
4.35 90.233 52.270
4.36 91.462 53.082
4.37 94.205 55.179
4.38 97.075 57.570
4.39 95.376 60.169
4.40 95.287 62.185
4.41 94.187 62.849
4.42 92.096 62.229
4.43 90.336 61.289
4.44 92.799 61.332
4.45 91.753 61.698
4.46 90.372 60.988
4.47 89.009 58.967
4.48 --undefined-- 56.363
4.49 --undefined-- 52.706
4.50 --undefined-- 47.257
4.51 --undefined-- 42.624
4.52 --undefined-- 38.915
4.53 --undefined-- 35.875
4.54 --undefined-- 34.330
4.55 --undefined-- 34.395
4.56 --undefined-- 34.977
4.57 --undefined-- 36.300
4.58 --undefined-- 38.715
4.59 --undefined-- 40.622
4.60 --undefined-- 41.909
4.61 --undefined-- 43.301
4.62 --undefined-- 44.262
4.63 --undefined-- 44.442
4.64 --undefined-- 44.394
4.65 --undefined-- 43.519
4.66 --undefined-- 42.700
4.67 --undefined-- 43.203
4.68 --undefined-- 43.563
4.69 --undefined-- 43.028
4.70 --undefined-- 42.597
4.71 --undefined-- 42.388
4.72 --undefined-- 41.648
4.73 --undefined-- 41.071
4.74 --undefined-- 40.359
4.75 --undefined-- 40.233
4.76 --undefined-- 40.405
4.77 --undefined-- 39.604
4.78 --undefined-- 37.878
4.79 --undefined-- 35.997
4.80 --undefined-- 36.475
4.81 --undefined-- 37.443
4.82 --undefined-- 35.998
4.83 --undefined-- 33.448
4.84 --undefined-- 32.598
4.85 --undefined-- 32.164
4.86 --undefined-- 33.133
4.87 --undefined-- 34.501
4.88 --undefined-- 34.759
4.89 --undefined-- 36.864
4.90 --undefined-- 43.706
4.91 --undefined-- 50.271
4.92 --undefined-- 54.338
4.93 --undefined-- 55.479
4.94 --undefined-- 55.538
4.95 --undefined-- 59.632
4.96 106.566 62.955
4.97 104.645 63.490
4.98 103.095 62.063
4.99 103.141 59.852
5.00 102.937 58.030
5.01 100.252 56.950
5.02 99.052 56.032
5.03 98.237 55.332
5.04 98.257 54.885
5.05 98.534 54.113
5.06 98.276 52.626
5.07 97.307 50.151
5.08 --undefined-- 46.930
5.09 --undefined-- 50.217
5.10 --undefined-- 56.605
5.11 --undefined-- 62.426
5.12 112.393 68.144
5.13 112.391 71.669
5.14 97.550 72.750
5.15 95.768 72.179
5.16 96.580 71.599
5.17 96.445 71.566
5.18 96.111 71.493
5.19 97.343 71.085
5.20 97.911 70.107
5.21 98.724 68.557
5.22 98.881 67.127
5.23 96.912 66.055
5.24 97.107 63.808
5.25 97.677 59.274
5.26 97.177 53.061
5.27 --undefined-- 50.695
5.28 --undefined-- 54.950
5.29 --undefined-- 57.314
5.30 --undefined-- 60.580
5.31 --undefined-- 66.470
5.32 --undefined-- 70.236
5.33 110.504 71.623
5.34 109.207 71.347
5.35 109.117 70.115
5.36 109.080 68.767
5.37 108.964 67.952
5.38 107.753 67.446
5.39 106.446 66.915
5.40 104.578 66.573
5.41 102.795 67.160
5.42 101.573 68.792
5.43 99.788 69.871
5.44 99.426 69.996
5.45 98.748 69.976
5.46 99.441 70.191
5.47 98.430 70.249
5.48 98.132 69.943
5.49 99.355 69.765
5.50 100.194 69.902
5.51 101.450 70.132
5.52 104.491 70.479
5.53 105.145 71.026
5.54 108.876 70.989
5.55 112.270 69.258
5.56 --undefined-- 65.069
5.57 --undefined-- 58.388
5.58 --undefined-- 52.257
5.59 --undefined-- 51.510
5.60 --undefined-- 51.309
5.61 --undefined-- 50.243
5.62 --undefined-- 50.226
5.63 --undefined-- 54.328
5.64 --undefined-- 58.663
5.65 138.347 60.752
5.66 136.628 61.793
5.67 129.189 62.912
5.68 124.334 63.922
5.69 119.557 64.157
5.70 112.668 --undefined--
5.71 107.330 --undefined--
5.72 --undefined-- --undefined--
5.73 --undefined-- --undefined--
