Time Pitch Intensity
0.01 --undefined-- --undefined--
0.02 105.151 --undefined--
0.03 103.771 --undefined--
0.04 89.003 --undefined--
0.05 100.371 67.863
0.06 100.130 68.015
0.07 --undefined-- 68.502
0.08 --undefined-- 70.162
0.09 --undefined-- 70.358
0.10 --undefined-- 69.793
0.11 --undefined-- 69.690
0.12 --undefined-- 67.575
0.13 --undefined-- 63.634
0.14 --undefined-- 59.350
0.15 --undefined-- 54.982
0.16 --undefined-- 51.583
0.17 --undefined-- 49.661
0.18 --undefined-- 47.782
0.19 --undefined-- 45.394
0.20 --undefined-- 43.805
0.21 --undefined-- 49.088
0.22 --undefined-- 55.918
0.23 --undefined-- 60.845
0.24 --undefined-- 64.229
0.25 --undefined-- 67.038
0.26 99.298 69.114
0.27 99.320 70.079
0.28 100.530 70.201
0.29 102.714 69.209
0.30 --undefined-- 66.377
0.31 --undefined-- 62.657
0.32 114.094 61.822
0.33 116.864 62.961
0.34 116.996 65.516
0.35 116.459 69.225
0.36 116.949 71.627
0.37 117.564 72.000
0.38 118.187 70.932
0.39 118.014 68.972
0.40 117.516 65.827
0.41 115.607 61.424
0.42 118.969 58.684
0.43 117.653 58.561
0.44 116.348 58.105
0.45 114.887 56.647
0.46 110.602 54.894
0.47 --undefined-- 55.901
0.48 --undefined-- 56.864
0.49 106.400 56.214
0.50 103.984 55.963
0.51 98.149 55.653
0.52 97.024 55.622
0.53 --undefined-- 60.326
0.54 --undefined-- 64.780
0.55 --undefined-- 66.626
0.56 --undefined-- 67.675
0.57 --undefined-- 68.127
0.58 --undefined-- 66.572
0.59 --undefined-- 63.777
0.60 --undefined-- 63.464
0.61 --undefined-- 63.876
0.62 --undefined-- 63.770
0.63 --undefined-- 67.232
0.64 --undefined-- 70.863
0.65 119.505 72.831
0.66 122.353 73.608
0.67 127.136 73.678
0.68 130.168 73.376
0.69 132.583 72.584
0.70 133.059 71.479
0.71 130.736 70.530
0.72 127.515 69.266
0.73 124.216 66.630
0.74 120.650 62.685
0.75 114.536 59.492
0.76 106.801 57.841
0.77 103.000 56.282
0.78 98.426 53.996
0.79 --undefined-- 51.177
0.80 --undefined-- 48.879
0.81 --undefined-- 46.244
0.82 --undefined-- 44.735
0.83 --undefined-- 53.409
0.84 --undefined-- 62.087
0.85 122.804 68.257
0.86 123.790 71.796
0.87 123.014 72.797
0.88 123.258 71.727
0.89 123.283 68.975
0.90 119.879 64.537
0.91 121.413 60.177
0.92 120.633 58.798
0.93 116.252 58.354
0.94 113.994 57.592
0.95 109.021 56.331
0.96 105.795 58.456
0.97 --undefined-- 63.284
0.98 --undefined-- 66.636
0.99 121.893 68.478
1.00 123.414 69.355
1.01 122.149 69.548
1.02 119.540 69.162
1.03 118.089 68.142
1.04 117.659 66.408
1.05 117.888 64.846
1.06 117.866 64.121
1.07 117.570 64.171
1.08 113.312 65.094
1.09 111.970 66.544
1.10 105.024 68.037
1.11 105.002 68.911
1.12 103.846 68.680
1.13 98.705 67.802
1.14 97.052 66.709
1.15 92.066 64.801
1.16 91.746 63.168
1.17 197.377 64.000
1.18 199.268 65.034
1.19 --undefined-- 64.653
1.20 --undefined-- 62.552
1.21 --undefined-- 58.732
1.22 --undefined-- 54.673
1.23 --undefined-- 52.721
1.24 99.028 53.311
1.25 99.446 53.967
1.26 100.169 53.392
1.27 --undefined-- 54.424
1.28 --undefined-- 60.299
1.29 --undefined-- 66.066
1.30 111.076 69.684
1.31 110.293 71.039
1.32 109.481 70.664
1.33 108.805 68.685
1.34 105.754 65.111
1.35 105.695 60.824
1.36 106.591 57.280
1.37 107.733 56.255
1.38 107.385 56.379
1.39 105.694 56.599
1.40 105.315 58.898
1.41 106.664 63.526
1.42 103.805 67.067
1.43 101.902 68.711
1.44 101.093 68.942
1.45 98.163 67.997
1.46 --undefined-- 65.263
1.47 --undefined-- 59.919
1.48 --undefined-- 51.463
1.49 --undefined-- 43.366
1.50 --undefined-- 41.900
1.51 --undefined-- 47.271
1.52 --undefined-- 52.301
1.53 --undefined-- 57.046
1.54 --undefined-- 62.876
1.55 --undefined-- 66.265
1.56 --undefined-- 67.197
1.57 --undefined-- 67.855
1.58 --undefined-- 68.835
1.59 --undefined-- 69.015
1.60 --undefined-- 68.731
1.61 --undefined-- 66.914
1.62 --undefined-- 62.195
1.63 --undefined-- 54.778
1.64 --undefined-- 46.818
1.65 --undefined-- 42.086
1.66 --undefined-- 47.342
1.67 --undefined-- 56.009
1.68 --undefined-- 62.477
1.69 --undefined-- 65.926
1.70 --undefined-- 66.910
1.71 --undefined-- 66.915
1.72 --undefined-- 67.622
1.73 --undefined-- 68.312
1.74 --undefined-- 68.412
1.75 --undefined-- 68.666
1.76 --undefined-- 68.767
1.77 --undefined-- 67.488
1.78 --undefined-- 65.208
1.79 --undefined-- 62.161
1.80 --undefined-- 59.150
1.81 --undefined-- 54.953
1.82 --undefined-- 47.145
1.83 --undefined-- 39.271
1.84 --undefined-- 37.772
1.85 --undefined-- 40.744
1.86 --undefined-- 42.835
1.87 --undefined-- 44.833
1.88 --undefined-- 52.421
1.89 --undefined-- 59.420
1.90 93.002 63.646
1.91 92.998 65.356
1.92 92.988 64.625
1.93 89.910 61.619
1.94 91.118 58.329
1.95 90.847 57.023
1.96 88.742 55.747
1.97 88.511 53.253
1.98 --undefined-- 49.566
1.99 --undefined-- 47.606
2.00 --undefined-- 47.221
2.01 --undefined-- 45.479
2.02 --undefined-- 48.941
2.03 --undefined-- 58.337
2.04 --undefined-- 64.636
2.05 --undefined-- 66.963
2.06 --undefined-- 66.164
2.07 --undefined-- 64.505
2.08 --undefined-- 64.111
2.09 --undefined-- 65.447
2.10 --undefined-- 66.294
2.11 --undefined-- 64.977
2.12 --undefined-- 61.358
2.13 --undefined-- 55.187
2.14 --undefined-- 46.871
2.15 --undefined-- 41.413
2.16 --undefined-- 39.225
2.17 --undefined-- 37.492
2.18 --undefined-- 37.162
2.19 --undefined-- 38.228
2.20 --undefined-- 39.531
2.21 --undefined-- 39.865
2.22 --undefined-- 38.041
2.23 --undefined-- 34.543
2.24 --undefined-- 32.736
2.25 --undefined-- 32.920
2.26 --undefined-- 32.875
2.27 --undefined-- 33.415
2.28 --undefined-- 34.803
2.29 --undefined-- 36.485
2.30 --undefined-- 39.497
2.31 --undefined-- 43.903
2.32 --undefined-- 47.006
2.33 --undefined-- 48.125
2.34 --undefined-- 56.132
2.35 --undefined-- 65.028
2.36 --undefined-- 70.392
2.37 --undefined-- 73.058
2.38 --undefined-- 74.285
2.39 135.751 74.820
2.40 139.870 74.708
2.41 140.721 74.123
2.42 140.188 73.009
2.43 136.133 70.828
2.44 125.624 67.751
2.45 121.081 64.830
2.46 126.236 64.345
2.47 146.476 68.148
2.48 145.930 72.350
2.49 136.926 74.831
2.50 127.125 75.788
2.51 121.608 75.893
2.52 117.561 75.569
2.53 114.182 74.997
2.54 112.873 74.341
2.55 112.315 73.770
2.56 114.212 73.213
2.57 117.077 72.334
2.58 116.385 70.625
2.59 117.920 67.753
2.60 123.716 64.151
2.61 127.907 61.257
2.62 139.319 61.763
2.63 176.108 66.919
2.64 177.318 72.332
2.65 176.460 75.927
2.66 175.571 77.770
2.67 173.119 78.835
2.68 170.233 79.827
2.69 166.269 80.351
2.70 159.312 80.147
2.71 152.118 79.480
2.72 146.884 78.276
2.73 137.807 75.822
2.74 130.290 71.430
2.75 113.429 64.796
2.76 --undefined-- 57.036
2.77 --undefined-- 51.288
2.78 --undefined-- 48.291
2.79 --undefined-- 48.689
2.80 --undefined-- 56.679
2.81 --undefined-- 66.596
2.82 --undefined-- 73.533
2.83 --undefined-- 77.430
2.84 --undefined-- 79.046
2.85 129.090 79.304
2.86 125.630 78.928
2.87 123.949 78.047
2.88 121.218 76.226
2.89 116.538 72.970
2.90 108.919 68.381
2.91 103.585 63.341
2.92 105.470 58.307
2.93 --undefined-- 52.884
2.94 --undefined-- 48.948
2.95 --undefined-- 47.559
2.96 --undefined-- 46.236
2.97 --undefined-- 45.383
2.98 --undefined-- 48.043
2.99 --undefined-- 58.878
3.00 --undefined-- 67.792
3.01 174.508 73.281
3.02 149.690 76.109
3.03 144.958 77.180
3.04 142.047 77.440
3.05 141.907 77.550
3.06 143.884 77.399
3.07 146.826 76.781
3.08 148.958 75.928
3.09 149.363 75.198
3.10 149.166 74.797
3.11 149.719 74.899
3.12 151.028 75.514
3.13 151.239 76.464
3.14 151.070 77.532
3.15 150.140 78.235
3.16 147.406 78.041
3.17 142.815 77.118
3.18 139.176 76.532
3.19 137.388 76.629
3.20 135.656 76.937
3.21 134.033 77.317
3.22 132.149 77.650
3.23 130.415 77.794
3.24 129.232 77.702
3.25 128.251 77.391
3.26 127.150 76.717
3.27 126.376 75.543
3.28 126.724 74.220
3.29 128.565 73.122
3.30 127.330 71.740
3.31 121.334 69.258
3.32 119.307 65.874
3.33 118.569 62.746
3.34 115.237 59.834
3.35 113.556 57.053
3.36 --undefined-- 59.498
3.37 155.281 66.340
3.38 137.954 71.218
3.39 135.719 73.675
3.40 123.168 74.757
3.41 121.955 75.603
3.42 121.184 76.096
3.43 120.646 75.914
3.44 119.860 75.395
3.45 119.341 75.062
3.46 119.059 75.035
3.47 118.322 75.176
3.48 118.009 75.449
3.49 117.905 75.559
3.50 117.367 74.885
3.51 116.075 72.816
3.52 110.573 69.106
3.53 113.883 64.341
3.54 111.211 59.565
3.55 --undefined-- 54.762
3.56 --undefined-- 53.567
3.57 --undefined-- 61.589
3.58 --undefined-- 68.455
3.59 --undefined-- 72.256
3.60 110.083 73.862
3.61 110.176 74.488
3.62 111.307 74.810
3.63 113.328 74.807
3.64 116.518 74.679
3.65 119.212 74.490
3.66 121.689 73.597
3.67 120.524 71.271
3.68 117.085 67.540
3.69 124.054 64.311
3.70 129.173 64.922
3.71 143.615 69.263
3.72 145.300 73.192
3.73 141.199 75.375
3.74 138.753 76.158
3.75 137.239 76.105
3.76 135.507 75.603
3.77 134.771 75.140
3.78 134.571 75.032
3.79 133.052 75.091
3.80 131.671 75.211
3.81 129.806 75.328
3.82 127.470 75.207
3.83 125.153 74.627
3.84 124.333 73.694
3.85 122.490 72.771
3.86 119.708 71.696
3.87 117.003 69.739
3.88 112.857 66.669
3.89 111.011 62.956
3.90 107.348 59.127
3.91 111.327 55.898
3.92 123.253 57.511
3.93 133.794 63.100
3.94 118.888 67.414
3.95 113.718 70.028
3.96 110.486 71.443
3.97 109.539 72.128
3.98 108.849 72.363
3.99 108.261 72.291
4.00 107.454 71.926
4.01 106.723 71.187
4.02 106.053 69.781
4.03 102.307 67.068
4.04 96.837 62.810
4.05 101.160 57.611
4.06 --undefined-- 53.318
4.07 --undefined-- 53.076
4.08 --undefined-- 54.672
4.09 --undefined-- 55.723
4.10 --undefined-- 58.035
4.11 --undefined-- 63.432
4.12 108.409 67.759
4.13 108.423 70.071
4.14 103.611 71.112
4.15 102.845 71.653
4.16 102.717 72.154
4.17 103.690 72.602
4.18 106.079 72.963
4.19 106.502 73.311
4.20 109.014 73.658
4.21 110.151 73.987
4.22 112.973 74.287
4.23 116.040 74.416
4.24 118.941 74.119
4.25 122.027 73.377
4.26 124.313 72.427
4.27 122.813 71.229
4.28 120.162 69.387
4.29 118.376 67.336
4.30 121.431 66.991
4.31 120.957 68.583
4.32 116.506 70.780
4.33 115.414 72.356
4.34 114.531 72.697
4.35 112.859 72.168
4.36 111.225 71.069
4.37 107.794 69.024
4.38 113.106 66.528
4.39 118.943 65.375
4.40 125.006 66.504
4.41 127.010 69.104
4.42 127.611 71.289
4.43 126.128 72.325
4.44 123.797 72.559
4.45 121.874 72.534
4.46 120.202 71.830
4.47 116.689 69.657
4.48 112.660 65.549
4.49 112.291 59.711
4.50 --undefined-- 54.262
4.51 --undefined-- 56.377
4.52 --undefined-- 60.714
4.53 --undefined-- 66.322
4.54 152.577 70.519
4.55 138.519 72.322
4.56 130.269 72.820
4.57 127.796 72.979
4.58 126.912 73.114
4.59 126.629 73.225
4.60 126.150 73.270
4.61 126.220 73.248
4.62 125.437 73.222
4.63 124.256 73.248
4.64 124.096 73.296
4.65 123.970 73.307
4.66 124.076 73.242
4.67 123.828 73.092
4.68 123.295 72.896
4.69 122.786 72.701
4.70 122.340 72.500
4.71 121.859 72.199
4.72 121.763 71.561
4.73 121.977 70.325
4.74 119.526 68.309
4.75 113.657 65.490
4.76 111.028 62.258
4.77 114.651 58.824
4.78 --undefined-- 55.676
4.79 --undefined-- 58.577
4.80 145.612 66.007
4.81 141.064 71.064
4.82 130.661 73.391
4.83 121.436 73.932
4.84 117.869 73.668
4.85 116.544 73.280
4.86 116.117 72.927
4.87 114.968 72.540
4.88 112.861 72.083
4.89 111.118 71.623
4.90 110.215 71.431
4.91 109.999 71.676
4.92 109.785 72.266
4.93 108.774 72.872
4.94 106.725 73.052
4.95 103.556 72.595
4.96 101.543 71.366
4.97 99.468 69.059
4.98 99.612 65.655
4.99 102.582 61.864
5.00 104.965 58.176
5.01 --undefined-- 53.992
5.02 --undefined-- 51.247
5.03 --undefined-- 50.503
5.04 --undefined-- 50.908
5.05 --undefined-- 58.021
5.06 132.253 64.272
5.07 123.390 68.084
5.08 113.624 70.249
5.09 107.416 71.127
5.10 104.518 71.287
5.11 103.107 71.245
5.12 102.559 71.120
5.13 102.122 70.544
5.14 99.342 68.750
5.15 94.793 65.630
5.16 101.725 62.346
5.17 108.216 60.130
5.18 107.280 59.230
5.19 110.463 --undefined--
5.20 114.295 --undefined--
5.21 --undefined-- --undefined--
5.22 --undefined-- --undefined--
