Time Pitch Intensity
0.01 --undefined-- --undefined--
0.02 179.373 --undefined--
0.03 176.157 --undefined--
0.04 168.499 --undefined--
0.05 157.978 74.946
0.06 140.234 73.509
0.07 126.787 71.173
0.08 118.325 67.605
0.09 118.632 63.124
0.10 --undefined-- 58.637
0.11 --undefined-- 56.987
0.12 --undefined-- 57.808
0.13 --undefined-- 58.860
0.14 --undefined-- 59.774
0.15 --undefined-- 60.071
0.16 --undefined-- 59.518
0.17 --undefined-- 60.523
0.18 240.409 65.395
0.19 229.279 69.682
0.20 216.652 72.663
0.21 210.728 74.483
0.22 207.788 75.419
0.23 209.317 75.890
0.24 212.997 76.339
0.25 216.273 76.611
0.26 216.555 75.606
0.27 214.708 72.161
0.28 174.017 65.915
0.29 167.731 58.698
0.30 --undefined-- 53.649
0.31 --undefined-- 54.339
0.32 --undefined-- 59.861
0.33 160.384 65.833
0.34 160.371 69.490
0.35 152.444 71.247
0.36 146.060 72.156
0.37 137.053 72.562
0.38 131.763 72.208
0.39 123.627 71.219
0.40 118.539 70.272
0.41 116.428 69.626
0.42 116.001 68.924
0.43 116.969 67.913
0.44 118.676 66.198
0.45 118.651 63.105
0.46 113.696 58.897
0.47 102.391 54.891
0.48 97.858 51.577
0.49 --undefined-- 47.958
0.50 --undefined-- 44.109
0.51 --undefined-- 50.649
0.52 --undefined-- 58.357
0.53 --undefined-- 64.154
0.54 --undefined-- 68.375
0.55 157.997 70.757
0.56 150.247 71.973
0.57 146.206 72.980
0.58 143.975 73.976
0.59 143.628 74.900
0.60 145.477 75.576
0.61 147.542 75.833
0.62 148.921 75.966
0.63 149.935 76.125
0.64 149.401 75.846
0.65 148.851 74.822
0.66 148.518 73.475
0.67 146.514 71.760
0.68 143.214 68.657
0.69 134.063 63.406
0.70 --undefined-- 56.125
0.71 --undefined-- 53.751
0.72 152.773 61.721
0.73 160.684 67.234
0.74 155.615 70.005
0.75 142.914 70.979
0.76 136.430 70.867
0.77 129.159 70.598
0.78 126.093 70.876
0.79 130.793 71.357
0.80 131.313 71.605
0.81 132.431 71.678
0.82 132.757 71.828
0.83 132.746 71.822
0.84 131.727 71.520
0.85 130.696 71.315
0.86 131.073 71.663
0.87 132.339 72.636
0.88 134.110 73.733
0.89 133.717 74.346
0.90 130.880 74.466
0.91 129.051 74.164
0.92 128.340 73.841
0.93 127.608 73.873
0.94 126.513 73.878
0.95 126.466 73.742
0.96 127.307 73.589
0.97 128.094 73.322
0.98 130.079 72.895
0.99 132.901 72.530
1.00 134.853 72.259
1.01 136.455 71.916
1.02 136.578 71.308
1.03 136.916 70.225
1.04 137.160 68.539
1.05 136.184 66.286
1.06 134.668 63.753
1.07 --undefined-- 61.312
1.08 --undefined-- 57.865
1.09 --undefined-- 52.945
1.10 --undefined-- 48.743
1.11 --undefined-- 43.937
1.12 --undefined-- 38.141
1.13 --undefined-- 35.820
1.14 --undefined-- 35.435
1.15 --undefined-- 35.141
1.16 --undefined-- 35.730
1.17 --undefined-- 36.988
1.18 --undefined-- 37.544
1.19 --undefined-- 37.582
1.20 --undefined-- 37.556
1.21 --undefined-- 36.886
1.22 --undefined-- 36.031
1.23 --undefined-- 36.336
1.24 --undefined-- 36.814
1.25 --undefined-- 37.138
1.26 --undefined-- 37.596
1.27 --undefined-- 37.916
1.28 --undefined-- 38.076
1.29 --undefined-- 38.277
1.30 --undefined-- 37.803
1.31 --undefined-- 35.955
1.32 --undefined-- 33.617
1.33 --undefined-- 34.510
1.34 --undefined-- 36.958
1.35 --undefined-- 38.548
1.36 --undefined-- 38.576
1.37 --undefined-- 37.013
1.38 --undefined-- 34.430
1.39 --undefined-- 33.860
1.40 --undefined-- 36.640
1.41 --undefined-- 38.317
1.42 --undefined-- 37.515
1.43 --undefined-- 35.668
1.44 --undefined-- 35.005
1.45 --undefined-- 36.896
1.46 --undefined-- 37.944
1.47 --undefined-- 36.545
1.48 --undefined-- 35.855
1.49 --undefined-- 42.958
1.50 --undefined-- 48.620
1.51 --undefined-- 50.550
1.52 --undefined-- 50.689
1.53 --undefined-- 54.781
1.54 --undefined-- 63.078
1.55 193.439 68.785
1.56 175.502 71.464
1.57 166.984 72.302
1.58 165.901 72.877
1.59 166.826 73.657
1.60 166.244 73.776
1.61 164.123 72.409
1.62 149.543 69.294
1.63 143.031 64.328
1.64 --undefined-- 57.328
1.65 --undefined-- 52.092
1.66 --undefined-- 55.523
1.67 --undefined-- 62.775
1.68 225.366 69.951
1.69 205.522 74.443
1.70 191.271 76.489
1.71 187.088 76.739
1.72 181.456 75.736
1.73 179.125 73.605
1.74 165.859 69.708
1.75 143.426 63.453
1.76 145.031 56.082
1.77 --undefined-- 49.561
1.78 --undefined-- 44.603
1.79 --undefined-- 42.888
1.80 --undefined-- 45.424
1.81 --undefined-- 52.942
1.82 --undefined-- 62.275
1.83 --undefined-- 68.474
1.84 175.040 71.947
1.85 167.137 73.689
1.86 164.621 74.346
1.87 163.710 74.495
1.88 164.013 74.589
1.89 164.897 74.803
1.90 165.657 75.021
1.91 166.198 75.141
1.92 166.638 75.174
1.93 167.190 75.154
1.94 168.041 75.117
1.95 169.748 75.097
1.96 171.353 74.971
1.97 172.217 74.565
1.98 172.454 73.812
1.99 172.617 72.597
2.00 172.026 70.766
2.01 162.110 68.230
2.02 159.694 65.301
2.03 --undefined-- 61.947
2.04 116.650 57.251
2.05 --undefined-- 51.174
2.06 --undefined-- 45.395
2.07 --undefined-- 41.018
2.08 --undefined-- 40.764
2.09 --undefined-- 47.893
2.10 --undefined-- 54.698
2.11 --undefined-- 58.951
2.12 80.194 61.936
2.13 79.657 63.974
2.14 79.482 65.119
2.15 80.642 65.741
2.16 80.615 66.140
2.17 163.341 66.598
2.18 163.652 67.053
2.19 164.275 67.314
2.20 164.919 67.559
2.21 165.630 67.950
2.22 165.450 68.262
2.23 164.036 68.305
2.24 159.980 67.966
2.25 152.006 66.974
2.26 149.624 65.034
2.27 144.127 61.785
2.28 141.619 56.522
2.29 --undefined-- 49.313
2.30 --undefined-- 46.410
2.31 --undefined-- 52.707
2.32 --undefined-- 62.834
2.33 --undefined-- 69.807
2.34 --undefined-- 73.636
2.35 --undefined-- 75.233
2.36 --undefined-- 75.094
2.37 --undefined-- 72.941
2.38 --undefined-- 68.075
2.39 --undefined-- 60.162
2.40 --undefined-- 51.258
2.41 --undefined-- 44.610
2.42 --undefined-- 41.849
2.43 --undefined-- 41.425
2.44 --undefined-- 40.926
2.45 --undefined-- 39.454
2.46 --undefined-- 38.370
2.47 --undefined-- 37.655
2.48 --undefined-- 36.785
2.49 --undefined-- 42.418
2.50 --undefined-- 51.296
2.51 --undefined-- 59.127
2.52 --undefined-- 64.858
2.53 144.049 68.431
2.54 143.109 70.285
2.55 143.752 71.141
2.56 146.726 71.649
2.57 152.923 71.815
2.58 162.158 71.824
2.59 169.141 71.690
2.60 182.713 71.068
2.61 197.113 70.602
2.62 205.232 70.862
2.63 207.922 71.242
2.64 208.557 71.874
2.65 208.278 72.411
2.66 206.859 72.423
2.67 200.508 72.280
2.68 191.821 72.558
2.69 179.001 73.555
2.70 168.514 74.958
2.71 158.766 76.191
2.72 150.704 76.823
2.73 143.783 76.480
2.74 136.022 75.034
2.75 127.823 72.928
2.76 121.288 71.343
2.77 122.533 70.449
2.78 119.837 69.077
2.79 116.285 66.685
2.80 110.510 62.661
2.81 --undefined-- 56.836
2.82 --undefined-- 51.758
2.83 --undefined-- 52.391
2.84 --undefined-- 55.285
2.85 --undefined-- 57.280
2.86 --undefined-- 58.114
2.87 --undefined-- 57.646
2.88 --undefined-- 56.074
2.89 --undefined-- 56.074
2.90 --undefined-- 61.478
2.91 142.400 65.888
2.92 133.788 67.734
2.93 127.910 67.900
2.94 122.912 67.478
2.95 121.958 66.944
2.96 117.776 66.387
2.97 116.814 66.058
2.98 114.582 65.858
2.99 113.178 65.548
3.00 111.094 65.398
3.01 113.561 65.933
3.02 115.391 66.628
3.03 116.814 66.964
3.04 116.941 66.880
3.05 116.367 66.396
3.06 115.814 65.567
3.07 114.859 64.222
3.08 116.796 61.860
3.09 --undefined-- 57.745
3.10 --undefined-- 52.098
3.11 --undefined-- 46.179
3.12 --undefined-- 40.246
3.13 --undefined-- 38.440
3.14 --undefined-- 39.690
3.15 --undefined-- 40.314
3.16 --undefined-- 40.244
3.17 --undefined-- 40.218
3.18 --undefined-- 40.795
3.19 --undefined-- 42.069
3.20 --undefined-- 42.897
3.21 --undefined-- 43.796
3.22 --undefined-- 49.592
3.23 --undefined-- 59.286
3.24 --undefined-- 65.730
3.25 148.869 69.234
3.26 140.013 70.982
3.27 136.291 71.787
3.28 134.535 72.306
3.29 136.239 73.367
3.30 142.136 75.113
3.31 146.826 76.715
3.32 151.484 77.273
3.33 158.146 76.643
3.34 174.158 75.775
3.35 189.491 75.020
3.36 200.579 73.354
3.37 200.146 69.834
3.38 187.092 63.988
3.39 191.579 57.387
3.40 --undefined-- 54.531
3.41 --undefined-- 54.639
3.42 --undefined-- 55.998
3.43 --undefined-- 62.760
3.44 195.867 68.772
3.45 167.207 72.179
3.46 152.160 74.005
3.47 144.189 74.736
3.48 136.933 74.346
3.49 133.121 73.354
3.50 132.227 71.848
3.51 129.739 68.913
3.52 124.300 64.279
3.53 118.050 59.786
3.54 116.260 56.536
3.55 125.510 54.455
3.56 --undefined-- 58.366
3.57 181.856 64.473
3.58 170.479 68.752
3.59 154.415 71.420
3.60 146.112 73.139
3.61 142.542 73.907
3.62 138.884 73.819
3.63 136.865 73.573
3.64 137.120 73.351
3.65 139.266 72.862
3.66 141.891 72.099
3.67 142.820 71.015
3.68 142.452 69.459
3.69 --undefined-- 67.151
3.70 --undefined-- 63.396
3.71 --undefined-- 57.070
3.72 --undefined-- 48.598
3.73 --undefined-- 42.634
3.74 --undefined-- 42.430
3.75 --undefined-- 52.976
3.76 --undefined-- 61.737
3.77 162.736 67.165
3.78 159.230 69.987
3.79 159.873 71.154
3.80 159.073 71.428
3.81 157.691 71.316
3.82 157.065 71.187
3.83 157.473 71.079
3.84 157.658 70.679
3.85 157.241 69.217
3.86 151.933 65.781
3.87 145.948 59.917
3.88 --undefined-- 52.304
3.89 --undefined-- 47.924
3.90 --undefined-- 49.634
3.91 --undefined-- 55.284
3.92 232.729 63.528
3.93 216.556 69.090
3.94 200.272 71.949
3.95 197.390 73.601
3.96 198.320 74.816
3.97 200.965 75.118
3.98 202.516 74.498
3.99 203.082 73.639
4.00 200.614 73.084
4.01 196.144 72.408
4.02 191.029 70.775
4.03 183.296 67.371
4.04 163.628 61.925
4.05 148.820 54.920
4.06 --undefined-- 50.448
4.07 --undefined-- 53.088
4.08 --undefined-- 56.526
4.09 --undefined-- 58.557
4.10 --undefined-- 59.801
4.11 --undefined-- 60.629
4.12 --undefined-- 59.908
4.13 --undefined-- 57.756
4.14 --undefined-- 55.584
4.15 --undefined-- 53.984
4.16 --undefined-- 55.528
4.17 --undefined-- 61.265
4.18 --undefined-- 64.903
4.19 --undefined-- 65.627
4.20 116.987 64.621
4.21 105.830 62.986
4.22 98.587 61.555
4.23 100.869 61.945
4.24 114.842 63.479
4.25 113.977 64.678
4.26 116.999 65.351
4.27 117.042 65.682
4.28 115.921 65.424
4.29 115.116 63.981
4.30 --undefined-- 60.668
4.31 --undefined-- 54.653
4.32 --undefined-- 47.261
4.33 --undefined-- 49.737
4.34 --undefined-- 55.233
4.35 --undefined-- 61.468
4.36 --undefined-- 67.355
4.37 --undefined-- 71.538
4.38 143.762 74.314
4.39 143.274 75.807
4.40 142.177 75.819
4.41 140.093 74.751
4.42 136.951 73.202
4.43 132.843 71.114
4.44 129.293 67.987
4.45 --undefined-- 62.876
4.46 --undefined-- 55.056
4.47 --undefined-- 46.465
4.48 --undefined-- 41.660
4.49 --undefined-- 39.180
4.50 --undefined-- 37.639
4.51 --undefined-- 36.692
4.52 --undefined-- 36.261
4.53 --undefined-- 38.255
4.54 --undefined-- 45.397
4.55 --undefined-- 53.141
4.56 --undefined-- 59.161
4.57 180.225 64.400
4.58 160.848 68.068
4.59 152.436 70.016
4.60 146.959 70.800
4.61 140.711 70.861
4.62 135.157 70.854
4.63 135.176 71.009
4.64 134.425 71.343
4.65 137.203 71.851
4.66 138.990 72.237
4.67 139.191 72.386
4.68 138.965 72.411
4.69 139.471 72.377
4.70 140.873 72.226
4.71 143.370 71.713
4.72 144.923 70.199
4.73 143.377 66.759
4.74 141.869 60.699
4.75 --undefined-- 52.391
4.76 --undefined-- 47.329
4.77 --undefined-- 53.808
4.78 223.955 63.531
4.79 212.361 70.107
4.80 194.240 73.719
4.81 179.398 75.449
4.82 174.408 76.114
4.83 170.975 75.775
4.84 167.761 74.231
4.85 165.918 72.547
4.86 168.528 72.230
4.87 170.576 72.448
4.88 170.793 72.429
4.89 171.359 72.215
4.90 172.246 72.002
4.91 172.403 71.799
4.92 170.525 71.452
4.93 166.887 70.544
4.94 158.602 68.534
4.95 149.860 65.074
4.96 148.675 60.118
4.97 --undefined-- 53.441
4.98 --undefined-- 45.292
4.99 --undefined-- 42.110
5.00 --undefined-- 48.445
5.01 --undefined-- 52.467
5.02 --undefined-- 54.353
5.03 --undefined-- 59.774
5.04 161.237 64.753
5.05 133.071 67.177
5.06 122.895 68.066
5.07 122.549 68.470
5.08 124.387 68.687
5.09 125.886 68.592
5.10 123.367 68.769
5.11 133.437 69.352
5.12 142.730 69.744
5.13 148.538 69.946
5.14 155.764 70.005
5.15 163.035 69.803
5.16 162.572 68.824
5.17 154.940 66.307
5.18 141.056 61.776
5.19 142.845 57.909
5.20 --undefined-- 59.145
5.21 --undefined-- 61.781
5.22 124.226 65.110
5.23 120.197 67.282
5.24 122.322 68.125
5.25 127.279 68.818
5.26 137.853 69.633
5.27 134.626 69.829
5.28 130.938 69.371
5.29 134.975 69.175
5.30 140.766 69.629
5.31 151.133 70.010
5.32 157.183 70.091
5.33 158.857 70.172
5.34 155.257 70.045
5.35 159.127 69.186
5.36 159.933 68.156
5.37 157.541 67.868
5.38 151.066 68.027
5.39 146.725 68.351
5.40 141.003 68.682
5.41 136.080 68.716
5.42 131.909 68.375
5.43 127.650 67.798
5.44 123.969 67.638
5.45 123.383 68.349
5.46 128.288 69.386
5.47 129.457 70.062
5.48 134.114 70.586
5.49 134.249 71.402
5.50 133.824 71.610
5.51 127.568 70.623
5.52 122.462 69.651
5.53 122.595 --undefined--
5.54 123.201 --undefined--
5.55 --undefined-- --undefined--
5.56 --undefined-- --undefined--
