Time Pitch Intensity
0.01 --undefined-- --undefined--
0.02 108.773 --undefined--
0.03 109.115 --undefined--
0.04 108.365 --undefined--
0.05 107.152 62.763
0.06 105.488 61.594
0.07 105.290 60.105
0.08 --undefined-- 59.705
0.09 --undefined-- 62.627
0.10 --undefined-- 65.490
0.11 --undefined-- 66.943
0.12 --undefined-- 68.306
0.13 --undefined-- 68.632
0.14 --undefined-- 67.104
0.15 --undefined-- 64.754
0.16 --undefined-- 64.760
0.17 --undefined-- 66.846
0.18 --undefined-- 67.030
0.19 --undefined-- 65.027
0.20 --undefined-- 61.747
0.21 --undefined-- 58.643
0.22 --undefined-- 56.462
0.23 --undefined-- 54.971
0.24 --undefined-- 53.764
0.25 --undefined-- 51.554
0.26 --undefined-- 48.121
0.27 --undefined-- 47.693
0.28 --undefined-- 50.686
0.29 --undefined-- 53.747
0.30 --undefined-- 55.993
0.31 --undefined-- 57.827
0.32 --undefined-- 59.427
0.33 --undefined-- 61.850
0.34 --undefined-- 64.475
0.35 --undefined-- 66.020
0.36 --undefined-- 68.824
0.37 --undefined-- 72.023
0.38 --undefined-- 73.247
0.39 --undefined-- 72.669
0.40 110.185 70.621
0.41 96.441 66.861
0.42 96.809 61.752
0.43 --undefined-- 55.782
0.44 --undefined-- 47.926
0.45 --undefined-- 41.889
0.46 --undefined-- 39.809
0.47 --undefined-- 39.361
0.48 --undefined-- 41.756
0.49 --undefined-- 46.280
0.50 106.052 50.489
0.51 101.551 52.765
0.52 104.670 53.377
0.53 102.201 53.489
0.54 101.270 53.736
0.55 97.576 53.920
0.56 95.237 53.526
0.57 --undefined-- 53.303
0.58 --undefined-- 56.617
0.59 --undefined-- 60.261
0.60 --undefined-- 62.335
0.61 81.888 63.684
0.62 82.948 65.156
0.63 83.004 66.757
0.64 79.998 67.487
0.65 78.437 67.098
0.66 76.160 66.545
0.67 85.944 65.667
0.68 --undefined-- 64.357
0.69 80.720 63.688
0.70 82.028 63.259
0.71 81.286 61.891
0.72 80.631 59.990
0.73 79.115 58.614
0.74 --undefined-- 57.430
0.75 --undefined-- 55.211
0.76 --undefined-- 51.463
0.77 --undefined-- 47.381
0.78 --undefined-- 44.978
0.79 --undefined-- 44.715
0.80 --undefined-- 45.488
0.81 --undefined-- 48.086
0.82 --undefined-- 52.721
0.83 94.617 57.825
0.84 93.771 61.996
0.85 93.132 64.887
0.86 90.615 66.859
0.87 87.826 68.443
0.88 91.125 69.697
0.89 89.044 70.519
0.90 91.028 70.860
0.91 91.252 70.879
0.92 90.776 70.659
0.93 89.925 69.411
0.94 --undefined-- 65.859
0.95 --undefined-- 59.317
0.96 --undefined-- 52.356
0.97 --undefined-- 48.227
0.98 --undefined-- 43.882
0.99 --undefined-- 40.085
1.00 --undefined-- 38.762
1.01 --undefined-- 37.163
1.02 --undefined-- 34.233
1.03 --undefined-- 29.094
1.04 --undefined-- 20.873
1.05 --undefined-- 8.291
1.06 --undefined-- -2.361
1.07 --undefined-- -2.832
1.08 --undefined-- -2.679
1.09 --undefined-- -2.717
1.10 --undefined-- -2.517
1.11 --undefined-- -2.203
1.12 --undefined-- -2.310
1.13 --undefined-- -2.692
1.14 --undefined-- -2.619
1.15 --undefined-- -2.090
1.16 --undefined-- -1.710
1.17 --undefined-- -1.631
1.18 --undefined-- -1.789
1.19 --undefined-- -1.937
1.20 --undefined-- -1.920
1.21 --undefined-- -1.884
1.22 --undefined-- -2.007
1.23 --undefined-- -1.981
1.24 --undefined-- 10.337
1.25 --undefined-- 23.288
1.26 --undefined-- 31.486
1.27 --undefined-- 36.716
1.28 --undefined-- 40.426
1.29 --undefined-- 43.291
1.30 --undefined-- 45.258
1.31 --undefined-- 46.294
1.32 --undefined-- 46.641
1.33 --undefined-- 46.506
1.34 --undefined-- 45.203
1.35 --undefined-- 42.039
1.36 --undefined-- 38.163
1.37 --undefined-- 39.924
1.38 --undefined-- 49.852
1.39 --undefined-- 57.580
1.40 --undefined-- 62.286
1.41 --undefined-- 65.287
1.42 --undefined-- 69.363
1.43 --undefined-- 72.370
1.44 --undefined-- 72.707
1.45 --undefined-- 70.598
1.46 --undefined-- 65.790
1.47 107.993 57.829
1.48 109.408 52.381
1.49 111.179 52.837
1.50 108.906 53.625
1.51 108.969 54.442
1.52 109.440 56.122
1.53 --undefined-- 58.873
1.54 --undefined-- 61.556
1.55 --undefined-- 63.229
1.56 --undefined-- 63.652
1.57 --undefined-- 63.087
1.58 --undefined-- 61.546
1.59 --undefined-- 59.391
1.60 87.249 58.062
1.61 87.249 57.878
1.62 86.867 58.029
1.63 86.988 58.077
1.64 85.656 57.823
1.65 86.035 57.789
1.66 89.061 58.991
1.67 92.247 61.401
1.68 95.711 64.193
1.69 99.599 66.533
1.70 102.443 68.040
1.71 105.244 68.854
1.72 108.723 69.345
1.73 109.213 69.652
1.74 111.307 69.914
1.75 112.718 70.197
1.76 113.868 70.379
1.77 115.022 70.403
1.78 116.004 70.268
1.79 118.096 70.044
1.80 119.573 69.984
1.81 120.052 69.805
1.82 120.784 69.129
1.83 121.305 68.081
1.84 121.644 66.691
1.85 120.181 64.768
1.86 --undefined-- 62.458
1.87 --undefined-- 59.541
1.88 --undefined-- 55.086
1.89 --undefined-- 49.477
1.90 --undefined-- 43.242
1.91 --undefined-- 39.677
1.92 --undefined-- 39.562
1.93 --undefined-- 40.530
1.94 --undefined-- 42.002
1.95 --undefined-- 41.845
1.96 --undefined-- 40.066
1.97 --undefined-- 38.684
1.98 --undefined-- 46.709
1.99 --undefined-- 57.652
2.00 --undefined-- 63.691
2.01 --undefined-- 65.590
2.02 --undefined-- 64.398
2.03 --undefined-- 63.181
2.04 --undefined-- 66.816
2.05 --undefined-- 70.313
2.06 --undefined-- 70.775
2.07 104.292 68.397
2.08 107.306 64.937
2.09 109.681 62.849
2.10 110.560 62.494
2.11 110.958 62.185
2.12 112.603 60.989
2.13 113.494 59.329
2.14 113.314 57.098
2.15 109.270 53.915
2.16 109.154 51.836
2.17 107.711 51.879
2.18 103.191 52.363
2.19 101.958 52.534
2.20 98.279 52.209
2.21 97.037 51.869
2.22 96.266 51.825
2.23 94.740 51.962
2.24 91.867 52.291
2.25 89.085 52.393
2.26 89.575 52.143
2.27 86.706 52.812
2.28 88.899 56.408
2.29 91.839 60.321
2.30 90.443 62.105
2.31 92.288 61.925
2.32 92.085 60.305
2.33 90.902 57.196
2.34 92.169 52.756
2.35 --undefined-- 48.397
2.36 --undefined-- 46.312
2.37 --undefined-- 46.021
2.38 --undefined-- 49.556
2.39 --undefined-- 54.806
2.40 --undefined-- 62.019
2.41 --undefined-- 67.671
2.42 102.537 70.767
2.43 103.549 71.871
2.44 103.857 71.505
2.45 105.461 70.187
2.46 106.758 68.118
2.47 106.777 65.009
2.48 100.167 60.549
2.49 --undefined-- 54.418
2.50 --undefined-- 46.977
2.51 --undefined-- 42.423
2.52 --undefined-- 50.389
2.53 --undefined-- 59.533
2.54 --undefined-- 65.529
2.55 --undefined-- 68.766
2.56 --undefined-- 69.367
2.57 --undefined-- 69.026
2.58 --undefined-- 71.093
2.59 --undefined-- 72.702
2.60 --undefined-- 72.714
2.61 100.772 71.886
2.62 100.220 70.831
2.63 103.027 70.162
2.64 103.961 69.599
2.65 104.255 68.520
2.66 103.389 66.823
2.67 102.718 65.460
2.68 103.379 64.563
2.69 103.294 63.651
2.70 99.891 63.020
2.71 --undefined-- 64.004
2.72 --undefined-- 67.699
2.73 --undefined-- 71.221
2.74 --undefined-- 72.964
2.75 --undefined-- 73.381
2.76 --undefined-- 72.953
2.77 --undefined-- 72.413
2.78 --undefined-- 72.712
2.79 --undefined-- 72.224
2.80 --undefined-- 70.517
2.81 --undefined-- 69.753
2.82 --undefined-- 69.299
2.83 --undefined-- 68.211
2.84 --undefined-- 66.101
2.85 --undefined-- 62.978
2.86 --undefined-- 61.282
2.87 95.261 61.255
2.88 93.938 60.582
2.89 94.043 59.009
2.90 94.831 56.655
2.91 95.364 53.614
2.92 --undefined-- 50.663
2.93 --undefined-- 49.891
2.94 105.770 50.632
2.95 110.258 51.491
2.96 111.635 52.349
2.97 113.419 53.264
2.98 114.948 53.959
2.99 115.012 54.024
3.00 112.119 53.087
3.01 108.853 51.137
3.02 --undefined-- 48.524
3.03 --undefined-- 44.935
3.04 --undefined-- 41.095
3.05 --undefined-- 43.101
3.06 --undefined-- 53.791
3.07 --undefined-- 63.033
3.08 --undefined-- 68.919
3.09 --undefined-- 71.636
3.10 --undefined-- 71.419
3.11 --undefined-- 69.193
3.12 --undefined-- 69.150
3.13 --undefined-- 70.358
3.14 --undefined-- 70.129
3.15 97.770 69.182
3.16 95.353 68.119
3.17 93.113 66.907
3.18 90.934 65.612
3.19 90.207 64.169
3.20 90.707 62.657
3.21 90.093 61.257
3.22 89.007 60.252
3.23 88.864 59.405
3.24 89.167 57.939
3.25 --undefined-- 56.549
3.26 --undefined-- 56.803
3.27 --undefined-- 58.477
3.28 --undefined-- 59.937
3.29 --undefined-- 60.395
3.30 --undefined-- 60.564
3.31 --undefined-- 60.449
3.32 --undefined-- 59.452
3.33 --undefined-- 57.254
3.34 --undefined-- 54.055
3.35 --undefined-- 56.232
3.36 --undefined-- 62.342
3.37 106.428 66.306
3.38 101.444 68.547
3.39 100.770 69.588
3.40 100.636 69.651
3.41 100.177 68.939
3.42 99.577 67.146
3.43 97.795 63.441
3.44 --undefined-- 57.143
3.45 --undefined-- 48.541
3.46 --undefined-- 42.594
3.47 --undefined-- 42.730
3.48 --undefined-- 51.659
3.49 --undefined-- 60.819
3.50 --undefined-- 67.548
3.51 --undefined-- 71.089
3.52 --undefined-- 71.755
3.53 97.066 70.567
3.54 96.079 68.843
3.55 96.163 67.349
3.56 96.328 66.017
3.57 95.673 64.354
3.58 94.172 62.106
3.59 91.754 59.823
3.60 90.962 58.011
3.61 --undefined-- 55.567
3.62 --undefined-- 51.250
3.63 --undefined-- 49.418
3.64 --undefined-- 57.425
3.65 --undefined-- 65.250
3.66 --undefined-- 70.289
3.67 --undefined-- 72.134
3.68 --undefined-- 71.096
3.69 104.871 69.244
3.70 104.649 69.773
3.71 99.548 70.405
3.72 95.352 70.432
3.73 95.447 70.307
3.74 96.110 69.970
3.75 97.014 69.599
3.76 100.139 69.173
3.77 102.848 67.874
3.78 103.346 64.839
3.79 108.760 61.038
3.80 109.508 59.365
3.81 111.182 59.709
3.82 112.399 62.871
3.83 113.288 67.165
3.84 112.578 69.925
3.85 111.704 70.695
3.86 110.416 70.027
3.87 108.910 68.428
3.88 105.163 66.189
3.89 99.774 63.888
3.90 --undefined-- 60.621
3.91 --undefined-- 54.713
3.92 --undefined-- 47.071
3.93 --undefined-- 43.743
3.94 --undefined-- 49.853
3.95 --undefined-- 57.408
3.96 --undefined-- 62.422
3.97 --undefined-- 64.316
3.98 --undefined-- 65.785
3.99 --undefined-- 68.552
4.00 --undefined-- 69.835
4.01 --undefined-- 69.248
4.02 99.162 67.219
4.03 97.041 64.049
4.04 94.252 60.408
4.05 91.691 56.783
4.06 89.352 54.248
4.07 88.910 54.329
4.08 90.092 57.301
4.09 96.487 62.586
4.10 102.227 67.297
4.11 102.238 70.180
4.12 101.432 71.558
4.13 100.133 71.985
4.14 100.429 71.716
4.15 --undefined-- 70.331
4.16 --undefined-- 67.946
4.17 --undefined-- 65.935
4.18 --undefined-- 66.143
4.19 --undefined-- 67.631
4.20 --undefined-- 68.226
4.21 --undefined-- 67.717
4.22 --undefined-- 67.122
4.23 --undefined-- 67.207
4.24 --undefined-- 67.105
4.25 --undefined-- 66.859
4.26 --undefined-- 66.692
4.27 --undefined-- 66.380
4.28 88.926 66.171
4.29 89.532 66.016
4.30 89.773 65.967
4.31 90.069 66.238
4.32 92.607 66.042
4.33 95.866 65.078
4.34 101.660 65.274
4.35 107.781 67.399
4.36 108.487 68.721
4.37 109.673 68.096
4.38 113.182 67.101
4.39 113.845 67.098
4.40 111.467 66.960
4.41 107.392 66.979
4.42 109.628 68.860
4.43 114.453 70.770
4.44 108.241 71.090
4.45 103.405 70.307
4.46 99.163 68.990
4.47 96.579 67.489
4.48 95.050 66.006
4.49 94.923 64.460
4.50 94.269 62.870
4.51 91.343 61.660
4.52 87.790 60.986
4.53 88.667 60.495
4.54 88.434 59.112
4.55 87.996 56.785
4.56 88.598 54.704
4.57 91.828 53.968
4.58 92.236 54.200
4.59 96.839 54.924
4.60 100.939 56.650
4.61 101.266 58.123
4.62 --undefined-- 58.470
4.63 --undefined-- 58.636
4.64 --undefined-- 58.775
4.65 --undefined-- 59.994
4.66 102.378 62.853
4.67 100.828 65.529
4.68 101.302 67.839
4.69 96.479 69.207
4.70 95.776 69.327
4.71 95.238 68.471
4.72 91.091 67.338
4.73 90.851 66.914
4.74 88.741 67.154
4.75 87.790 67.262
4.76 85.731 67.109
4.77 86.268 66.949
4.78 84.160 66.987
4.79 84.513 66.829
4.80 84.619 66.550
4.81 84.889 66.703
4.82 82.795 66.809
4.83 82.298 66.185
4.84 84.423 65.363
4.85 87.528 64.764
4.86 --undefined-- 64.871
4.87 --undefined-- 64.642
4.88 --undefined-- 63.587
4.89 --undefined-- 62.228
4.90 --undefined-- 59.472
4.91 --undefined-- 54.059
4.92 --undefined-- 46.100
4.93 --undefined-- 42.072
4.94 --undefined-- 42.171
4.95 --undefined-- 42.564
4.96 --undefined-- 45.012
4.97 --undefined-- 45.969
4.98 --undefined-- 44.904
4.99 --undefined-- 43.222
5.00 --undefined-- 42.579
5.01 --undefined-- 43.514
5.02 --undefined-- 45.315
5.03 --undefined-- 46.830
5.04 --undefined-- 47.372
5.05 --undefined-- 47.316
5.06 --undefined-- 51.926
5.07 --undefined-- 61.811
5.08 --undefined-- 67.776
5.09 --undefined-- 69.860
5.10 --undefined-- 69.399
5.11 --undefined-- 68.904
5.12 --undefined-- 70.770
5.13 --undefined-- 73.000
5.14 --undefined-- 73.643
5.15 111.223 72.318
5.16 110.004 69.638
5.17 107.709 67.301
5.18 105.975 65.793
5.19 102.270 64.054
5.20 101.939 62.177
5.21 101.111 60.313
5.22 --undefined-- 57.541
5.23 --undefined-- 59.768
5.24 --undefined-- 67.271
5.25 --undefined-- 71.495
5.26 --undefined-- 72.931
5.27 --undefined-- 72.990
5.28 --undefined-- 71.909
5.29 --undefined-- 71.216
5.30 124.153 71.980
5.31 121.569 71.847
5.32 118.845 69.946
5.33 --undefined-- 65.650
5.34 --undefined-- 58.434
5.35 --undefined-- 48.218
5.36 --undefined-- 39.525
5.37 --undefined-- 39.033
5.38 --undefined-- 43.726
5.39 --undefined-- 49.738
5.40 --undefined-- 54.801
5.41 --undefined-- 59.152
5.42 --undefined-- 62.231
5.43 --undefined-- 63.306
5.44 --undefined-- 62.830
5.45 --undefined-- 62.493
5.46 --undefined-- 62.050
5.47 --undefined-- 61.417
5.48 --undefined-- 61.637
5.49 --undefined-- 62.618
5.50 --undefined-- 63.555
5.51 --undefined-- 63.824
5.52 --undefined-- 63.628
5.53 --undefined-- 63.920
5.54 --undefined-- 66.228
5.55 --undefined-- 69.775
5.56 117.468 --undefined--
5.57 116.138 --undefined--
5.58 --undefined-- --undefined--
5.59 --undefined-- --undefined--
