Time Pitch Intensity
0.01 --undefined-- --undefined--
0.02 --undefined-- --undefined--
0.03 --undefined-- --undefined--
0.04 --undefined-- --undefined--
0.05 --undefined-- 64.323
0.06 --undefined-- 63.158
0.07 --undefined-- 62.260
0.08 --undefined-- 62.216
0.09 --undefined-- 62.705
0.10 79.152 62.608
0.11 76.797 62.625
0.12 78.566 63.314
0.13 78.719 65.380
0.14 78.919 69.595
0.15 79.302 72.768
0.16 79.908 73.752
0.17 80.013 73.636
0.18 79.902 73.331
0.19 80.029 72.523
0.20 80.062 71.404
0.21 81.570 70.821
0.22 79.059 69.708
0.23 --undefined-- 66.979
0.24 --undefined-- 62.552
0.25 80.347 56.961
0.26 79.962 52.091
0.27 --undefined-- 47.927
0.28 --undefined-- 43.361
0.29 --undefined-- 40.107
0.30 --undefined-- 38.689
0.31 --undefined-- 37.721
0.32 --undefined-- 36.432
0.33 --undefined-- 35.241
0.34 --undefined-- 35.996
0.35 --undefined-- 38.735
0.36 --undefined-- 39.911
0.37 --undefined-- 39.042
0.38 --undefined-- 37.521
0.39 --undefined-- 36.886
0.40 --undefined-- 40.578
0.41 --undefined-- 46.296
0.42 --undefined-- 54.325
0.43 --undefined-- 63.549
0.44 --undefined-- 70.068
0.45 103.081 73.963
0.46 100.944 75.760
0.47 97.778 75.694
0.48 95.965 74.548
0.49 95.280 73.478
0.50 95.469 72.646
0.51 96.079 71.927
0.52 96.219 71.405
0.53 96.349 70.872
0.54 96.933 70.340
0.55 98.088 70.191
0.56 99.350 70.239
0.57 99.745 70.050
0.58 100.160 69.865
0.59 102.211 70.078
0.60 103.768 70.490
0.61 105.479 71.132
0.62 106.140 71.766
0.63 105.685 72.061
0.64 105.261 72.103
0.65 105.247 72.220
0.66 104.934 72.366
0.67 104.684 72.160
0.68 104.719 71.644
0.69 105.352 71.330
0.70 106.435 71.216
0.71 106.597 71.005
0.72 106.895 70.831
0.73 108.362 70.867
0.74 110.091 71.097
0.75 111.473 71.302
0.76 112.003 71.426
0.77 112.121 71.554
0.78 111.369 71.747
0.79 109.552 72.167
0.80 106.515 72.640
0.81 104.143 72.792
0.82 100.272 72.681
0.83 98.193 72.683
0.84 95.840 72.832
0.85 94.143 72.871
0.86 91.392 72.440
0.87 --undefined-- 71.067
0.88 --undefined-- 68.269
0.89 --undefined-- 63.442
0.90 --undefined-- 56.476
0.91 --undefined-- 48.126
0.92 --undefined-- 41.829
0.93 --undefined-- 41.465
0.94 --undefined-- 41.025
0.95 --undefined-- 39.481
0.96 --undefined-- 39.217
0.97 --undefined-- 41.419
0.98 --undefined-- 46.023
0.99 --undefined-- 51.897
1.00 86.106 57.315
1.01 85.861 61.533
1.02 86.080 65.062
1.03 --undefined-- 67.255
1.04 --undefined-- 66.610
1.05 --undefined-- 62.566
1.06 --undefined-- 59.861
1.07 --undefined-- 65.265
1.08 --undefined-- 70.005
1.09 97.933 72.364
1.10 98.644 73.018
1.11 95.544 73.004
1.12 93.295 72.828
1.13 90.674 72.312
1.14 87.563 71.467
1.15 83.083 70.534
1.16 80.615 69.416
1.17 77.985 67.677
1.18 75.540 64.871
1.19 --undefined-- 60.455
1.20 --undefined-- 53.848
1.21 --undefined-- 44.769
1.22 --undefined-- 38.246
1.23 --undefined-- 39.265
1.24 --undefined-- 41.376
1.25 --undefined-- 45.051
1.26 --undefined-- 51.258
1.27 --undefined-- 57.043
1.28 --undefined-- 62.425
1.29 82.745 67.292
1.30 82.159 70.848
1.31 82.342 72.782
1.32 80.024 73.183
1.33 79.663 72.721
1.34 79.264 72.023
1.35 79.605 71.217
1.36 80.049 70.099
1.37 80.767 68.339
1.38 81.080 66.411
1.39 81.134 64.987
1.40 81.321 63.751
1.41 82.505 63.860
1.42 84.410 65.603
1.43 85.219 67.199
1.44 83.433 67.711
1.45 81.767 66.679
1.46 78.749 63.738
1.47 77.222 59.306
1.48 79.308 55.228
1.49 --undefined-- 52.044
1.50 --undefined-- 47.453
1.51 --undefined-- 41.989
1.52 --undefined-- 38.571
1.53 --undefined-- 37.207
1.54 --undefined-- 39.843
1.55 --undefined-- 48.206
1.56 --undefined-- 55.398
1.57 --undefined-- 60.633
1.58 77.538 64.911
1.59 77.734 68.483
1.60 76.538 70.725
1.61 75.816 71.690
1.62 --undefined-- 71.214
1.63 --undefined-- 69.088
1.64 --undefined-- 64.992
1.65 --undefined-- 59.296
1.66 --undefined-- 54.678
1.67 --undefined-- 49.679
1.68 --undefined-- 42.785
1.69 --undefined-- 38.475
1.70 --undefined-- 36.797
1.71 --undefined-- 37.500
1.72 --undefined-- 45.167
1.73 --undefined-- 54.991
1.74 115.778 62.129
1.75 112.190 67.028
1.76 109.431 70.321
1.77 107.115 72.630
1.78 105.991 74.234
1.79 105.658 74.910
1.80 106.357 74.725
1.81 107.584 74.337
1.82 107.905 73.972
1.83 106.968 73.357
1.84 104.506 72.278
1.85 100.142 70.472
1.86 92.366 67.676
1.87 91.526 63.707
1.88 --undefined-- 58.189
1.89 --undefined-- 51.171
1.90 --undefined-- 45.077
1.91 --undefined-- 40.915
1.92 --undefined-- 39.702
1.93 --undefined-- 39.021
1.94 --undefined-- 38.194
1.95 --undefined-- 38.980
1.96 --undefined-- 45.120
1.97 --undefined-- 52.685
1.98 --undefined-- 59.475
1.99 90.454 64.987
2.00 87.084 68.927
2.01 88.111 71.562
2.02 89.599 72.794
2.03 --undefined-- 72.215
2.04 --undefined-- 69.295
2.05 --undefined-- 63.622
2.06 --undefined-- 55.124
2.07 --undefined-- 44.810
2.08 --undefined-- 40.382
2.09 --undefined-- 41.941
2.10 --undefined-- 41.171
2.11 --undefined-- 38.251
2.12 --undefined-- 38.250
2.13 --undefined-- 43.799
2.14 --undefined-- 50.388
2.15 --undefined-- 56.278
2.16 --undefined-- 61.424
2.17 --undefined-- 65.423
2.18 --undefined-- 67.629
2.19 --undefined-- 67.912
2.20 --undefined-- 66.608
2.21 --undefined-- 64.699
2.22 86.120 63.481
2.23 85.654 62.722
2.24 86.392 61.121
2.25 87.695 58.032
2.26 85.328 54.593
2.27 --undefined-- 52.475
2.28 --undefined-- 51.329
2.29 --undefined-- 50.755
2.30 --undefined-- 50.225
2.31 --undefined-- 49.678
2.32 --undefined-- 49.406
2.33 --undefined-- 49.511
2.34 --undefined-- 50.194
2.35 --undefined-- 50.970
2.36 --undefined-- 51.319
2.37 --undefined-- 51.644
2.38 --undefined-- 52.129
2.39 --undefined-- 52.469
2.40 --undefined-- 52.503
2.41 --undefined-- 52.227
2.42 --undefined-- 51.378
2.43 --undefined-- 49.536
2.44 --undefined-- 46.674
2.45 --undefined-- 43.431
2.46 --undefined-- 40.665
2.47 --undefined-- 38.546
2.48 --undefined-- 37.351
2.49 --undefined-- 37.250
2.50 --undefined-- 37.350
2.51 --undefined-- 38.711
2.52 --undefined-- 47.995
2.53 --undefined-- 60.131
2.54 --undefined-- 68.364
2.55 --undefined-- 73.082
2.56 --undefined-- 75.127
2.57 88.824 75.310
2.58 87.994 74.427
2.59 87.277 73.487
2.60 89.450 73.013
2.61 91.726 72.421
2.62 95.621 70.698
2.63 92.367 67.187
2.64 91.030 62.158
2.65 --undefined-- 60.813
2.66 105.565 66.635
2.67 107.694 70.930
2.68 106.029 73.015
2.69 101.516 73.607
2.70 97.855 73.410
2.71 93.556 73.212
2.72 89.106 73.592
2.73 82.670 74.036
2.74 81.201 73.896
2.75 79.780 72.821
2.76 75.930 70.911
2.77 75.735 68.751
2.78 76.662 66.223
2.79 77.781 62.522
2.80 --undefined-- 57.121
2.81 --undefined-- 49.525
2.82 --undefined-- 40.477
2.83 --undefined-- 37.415
2.84 --undefined-- 36.785
2.85 --undefined-- 34.932
2.86 --undefined-- 34.009
2.87 --undefined-- 35.443
2.88 --undefined-- 37.199
2.89 --undefined-- 45.584
2.90 --undefined-- 54.635
2.91 --undefined-- 61.178
2.92 98.487 65.895
2.93 96.223 69.275
2.94 92.939 71.519
2.95 93.039 72.919
2.96 92.546 73.245
2.97 92.006 72.587
2.98 91.339 71.808
2.99 89.873 71.049
3.00 88.999 70.325
3.01 90.852 70.061
3.02 90.815 69.758
3.03 90.472 69.044
3.04 90.850 68.578
3.05 90.402 68.562
3.06 90.272 68.521
3.07 90.618 68.559
3.08 90.616 68.705
3.09 90.424 68.797
3.10 90.150 68.768
3.11 88.812 68.708
3.12 88.634 69.035
3.13 89.131 69.958
3.14 89.459 70.921
3.15 89.699 71.432
3.16 90.331 71.555
3.17 90.403 71.570
3.18 89.901 71.740
3.19 89.014 71.985
3.20 88.950 72.072
3.21 89.592 71.847
3.22 89.379 71.259
3.23 89.242 70.347
3.24 89.690 68.771
3.25 89.167 65.986
3.26 87.747 61.661
3.27 --undefined-- 55.441
3.28 --undefined-- 46.910
3.29 --undefined-- 38.092
3.30 --undefined-- 36.482
3.31 --undefined-- 38.097
3.32 --undefined-- 41.293
3.33 --undefined-- 46.532
3.34 --undefined-- 52.121
3.35 84.751 57.284
3.36 84.737 61.858
3.37 84.346 65.613
3.38 83.348 67.918
3.39 --undefined-- 67.699
3.40 --undefined-- 64.120
3.41 --undefined-- 57.155
3.42 --undefined-- 49.888
3.43 --undefined-- 51.062
3.44 --undefined-- 60.869
3.45 --undefined-- 68.259
3.46 --undefined-- 72.218
3.47 91.776 73.343
3.48 88.361 72.786
3.49 86.876 71.831
3.50 83.656 70.573
3.51 83.373 68.217
3.52 --undefined-- 63.972
3.53 --undefined-- 57.068
3.54 --undefined-- 47.692
3.55 --undefined-- 41.034
3.56 --undefined-- 41.725
3.57 --undefined-- 42.643
3.58 --undefined-- 40.774
3.59 --undefined-- 43.575
3.60 --undefined-- 50.435
3.61 --undefined-- 56.358
3.62 88.190 61.694
3.63 83.430 66.117
3.64 83.018 69.209
3.65 81.480 70.867
3.66 79.793 71.110
3.67 78.940 70.190
3.68 78.530 68.767
3.69 80.235 67.373
3.70 --undefined-- 65.338
3.71 --undefined-- 61.110
3.72 --undefined-- 53.936
3.73 --undefined-- 44.778
3.74 --undefined-- 41.873
3.75 --undefined-- 46.170
3.76 --undefined-- 50.220
3.77 --undefined-- 59.882
3.78 --undefined-- 67.698
3.79 --undefined-- 72.019
3.80 --undefined-- 73.565
3.81 --undefined-- 73.348
3.82 --undefined-- 72.679
3.83 81.471 72.293
3.84 81.219 72.314
3.85 81.860 72.403
3.86 83.074 72.393
3.87 84.386 72.175
3.88 85.639 71.775
3.89 85.842 71.511
3.90 83.680 71.082
3.91 82.162 70.193
3.92 80.016 68.848
3.93 78.508 66.708
3.94 --undefined-- 63.389
3.95 --undefined-- 59.096
3.96 --undefined-- 54.769
3.97 --undefined-- 50.636
3.98 --undefined-- 46.577
3.99 --undefined-- 42.651
4.00 --undefined-- 38.821
4.01 --undefined-- 37.257
4.02 --undefined-- 37.282
4.03 --undefined-- 36.728
4.04 --undefined-- 36.177
4.05 --undefined-- 37.846
4.06 --undefined-- 42.285
4.07 --undefined-- 45.947
4.08 --undefined-- 51.760
4.09 --undefined-- 58.246
4.10 --undefined-- 63.186
4.11 81.682 66.967
4.12 80.326 69.647
4.13 80.316 71.209
4.14 80.292 71.845
4.15 83.161 71.239
4.16 --undefined-- 68.714
4.17 --undefined-- 63.479
4.18 --undefined-- 54.600
4.19 --undefined-- 43.671
4.20 --undefined-- 38.483
4.21 --undefined-- 40.644
4.22 --undefined-- 43.709
4.23 --undefined-- 45.137
4.24 --undefined-- 48.293
4.25 --undefined-- 55.517
4.26 --undefined-- 62.711
4.27 --undefined-- 67.286
4.28 --undefined-- 69.417
4.29 --undefined-- 70.313
4.30 --undefined-- 70.793
4.31 --undefined-- 70.619
4.32 --undefined-- 69.665
4.33 --undefined-- 68.118
4.34 --undefined-- 66.400
4.35 --undefined-- 65.268
4.36 --undefined-- 64.937
4.37 --undefined-- 65.221
4.38 --undefined-- 65.649
4.39 --undefined-- 65.579
4.40 --undefined-- 64.118
4.41 --undefined-- 59.931
4.42 --undefined-- 52.754
4.43 --undefined-- 49.006
4.44 --undefined-- 56.959
4.45 --undefined-- 62.625
4.46 --undefined-- 66.517
4.47 --undefined-- 69.889
4.48 --undefined-- 71.665
4.49 91.799 71.789
4.50 87.934 71.189
4.51 85.304 70.637
4.52 84.973 70.047
4.53 85.853 69.384
4.54 86.678 68.887
4.55 86.718 67.787
4.56 --undefined-- 64.698
4.57 --undefined-- 58.514
4.58 --undefined-- 49.094
4.59 --undefined-- 42.052
4.60 --undefined-- 40.192
4.61 --undefined-- 38.741
4.62 --undefined-- 37.679
4.63 --undefined-- 37.713
4.64 --undefined-- 37.193
4.65 --undefined-- 37.449
4.66 --undefined-- 38.018
4.67 --undefined-- 38.423
4.68 --undefined-- 38.822
4.69 --undefined-- 38.989
4.70 --undefined-- 45.865
4.71 --undefined-- 57.060
4.72 --undefined-- 64.590
4.73 --undefined-- 68.735
4.74 --undefined-- 70.787
4.75 80.107 71.949
4.76 80.113 72.233
4.77 79.770 71.443
4.78 79.612 70.052
4.79 76.881 68.350
4.80 76.192 65.523
4.81 --undefined-- 60.365
4.82 --undefined-- 53.217
4.83 --undefined-- 51.351
4.84 --undefined-- 52.325
4.85 --undefined-- 54.527
4.86 --undefined-- 62.481
4.87 --undefined-- 68.525
4.88 --undefined-- 71.923
4.89 --undefined-- 73.501
4.90 --undefined-- 73.864
4.91 78.198 73.617
4.92 79.087 73.082
4.93 79.001 72.311
4.94 78.533 71.214
4.95 76.843 69.594
4.96 74.619 67.443
4.97 --undefined-- 64.322
4.98 --undefined-- 59.209
4.99 --undefined-- 51.114
5.00 --undefined-- 42.129
5.01 --undefined-- 37.284
5.02 --undefined-- 36.605
5.03 --undefined-- 36.571
5.04 --undefined-- 35.390
5.05 --undefined-- 34.261
5.06 --undefined-- 34.014
5.07 --undefined-- 37.847
5.08 --undefined-- 47.867
5.09 --undefined-- 56.891
5.10 --undefined-- 63.496
5.11 --undefined-- 67.783
5.12 87.994 70.388
5.13 84.372 71.595
5.14 84.091 71.667
5.15 83.541 70.979
5.16 82.665 70.230
5.17 82.894 69.826
5.18 83.710 69.733
5.19 83.573 69.889
5.20 86.689 69.798
5.21 86.569 69.216
5.22 87.847 68.830
5.23 87.897 68.922
5.24 88.481 69.025
5.25 86.486 68.741
5.26 86.522 67.531
5.27 --undefined-- 64.285
5.28 --undefined-- 57.703
5.29 --undefined-- 47.279
5.30 --undefined-- 39.470
5.31 --undefined-- 38.816
5.32 --undefined-- 38.337
5.33 --undefined-- 36.913
5.34 --undefined-- 35.842
5.35 --undefined-- 34.829
5.36 --undefined-- 35.390
5.37 --undefined-- 36.119
5.38 --undefined-- 35.802
5.39 --undefined-- 35.283
5.40 --undefined-- 35.197
5.41 --undefined-- 36.217
5.42 --undefined-- 37.608
5.43 --undefined-- 38.427
5.44 --undefined-- 38.272
5.45 --undefined-- 37.432
5.46 --undefined-- 37.499
5.47 --undefined-- 37.900
5.48 --undefined-- 37.570
5.49 --undefined-- 37.777
5.50 --undefined-- 38.594
5.51 --undefined-- 39.155
5.52 --undefined-- 39.146
5.53 --undefined-- 38.755
5.54 --undefined-- 38.531
5.55 --undefined-- 38.609
5.56 --undefined-- 38.756
5.57 --undefined-- 38.678
5.58 --undefined-- 37.908
5.59 --undefined-- 37.205
5.60 --undefined-- 37.805
5.61 --undefined-- 38.219
5.62 --undefined-- 37.694
5.63 --undefined-- 37.394
5.64 --undefined-- 37.284
5.65 --undefined-- 36.932
5.66 --undefined-- 36.645
5.67 --undefined-- 36.671
5.68 --undefined-- 36.501
5.69 --undefined-- 34.876
5.70 --undefined-- 33.772
5.71 --undefined-- 34.276
5.72 --undefined-- 35.376
5.73 --undefined-- 37.668
5.74 --undefined-- 38.772
5.75 --undefined-- 38.106
5.76 --undefined-- 39.307
5.77 --undefined-- 48.013
5.78 --undefined-- 59.622
5.79 --undefined-- 67.329
5.80 --undefined-- 71.718
5.81 97.301 73.907
5.82 96.812 74.889
5.83 97.360 74.977
5.84 98.574 74.037
5.85 99.569 72.038
5.86 --undefined-- 68.731
5.87 --undefined-- 64.665
5.88 112.063 63.261
5.89 114.808 63.506
5.90 116.861 63.558
5.91 119.529 63.683
5.92 123.045 64.015
5.93 127.498 64.362
5.94 131.811 64.499
5.95 137.740 64.419
5.96 144.146 64.397
5.97 148.619 64.663
5.98 152.208 65.262
5.99 152.290 65.933
6.00 151.621 65.810
6.01 144.267 64.321
6.02 139.953 61.976
6.03 134.704 59.617
6.04 132.596 57.683
6.05 --undefined-- 55.179
6.06 --undefined-- 50.027
6.07 --undefined-- 41.919
6.08 --undefined-- 37.825
6.09 --undefined-- 38.104
6.10 --undefined-- 39.479
6.11 --undefined-- 44.690
6.12 --undefined-- 50.111
6.13 --undefined-- 55.400
6.14 --undefined-- 61.392
6.15 94.538 65.670
6.16 96.015 68.982
6.17 91.613 72.118
6.18 91.210 73.816
6.19 91.127 74.044
6.20 91.180 73.970
6.21 89.970 73.533
6.22 88.553 72.932
6.23 88.143 73.120
6.24 87.572 73.199
6.25 87.051 72.354
6.26 85.860 70.790
6.27 83.948 69.407
6.28 83.946 68.552
6.29 83.990 67.247
6.30 80.119 66.053
6.31 80.085 67.510
6.32 82.600 68.806
6.33 82.965 67.736
6.34 84.734 64.361
6.35 86.443 59.321
6.36 87.704 54.094
6.37 --undefined-- 48.551
6.38 --undefined-- 42.534
6.39 --undefined-- 42.737
6.40 --undefined-- 51.760
6.41 --undefined-- 58.339
6.42 --undefined-- 61.709
6.43 --undefined-- 63.829
6.44 --undefined-- 67.623
6.45 --undefined-- --undefined--
6.46 --undefined-- --undefined--
6.47 --undefined-- --undefined--
6.48 --undefined-- --undefined--
