Time Pitch Intensity
0.01 --undefined-- --undefined--
0.02 92.802 --undefined--
0.03 93.558 --undefined--
0.04 93.845 --undefined--
0.05 93.071 63.085
0.06 90.033 60.054
0.07 --undefined-- 58.082
0.08 --undefined-- 60.383
0.09 --undefined-- 62.431
0.10 --undefined-- 63.084
0.11 162.765 63.849
0.12 163.183 64.285
0.13 --undefined-- 63.210
0.14 --undefined-- 61.115
0.15 --undefined-- 59.385
0.16 --undefined-- 63.593
0.17 --undefined-- 68.997
0.18 --undefined-- 71.278
0.19 135.283 71.393
0.20 137.505 70.877
0.21 137.868 70.596
0.22 137.079 70.188
0.23 137.572 69.253
0.24 138.351 68.217
0.25 138.830 67.604
0.26 139.301 67.154
0.27 138.365 66.354
0.28 138.105 64.836
0.29 137.223 62.717
0.30 137.626 60.937
0.31 136.360 60.674
0.32 134.554 61.963
0.33 133.497 64.994
0.34 131.656 67.987
0.35 127.436 69.753
0.36 125.224 70.357
0.37 124.380 70.063
0.38 122.626 69.119
0.39 121.554 67.973
0.40 120.520 66.963
0.41 119.132 66.077
0.42 117.855 65.023
0.43 116.724 62.949
0.44 --undefined-- 58.728
0.45 --undefined-- 51.894
0.46 --undefined-- 44.062
0.47 --undefined-- 42.504
0.48 --undefined-- 49.623
0.49 --undefined-- 55.149
0.50 --undefined-- 58.345
0.51 --undefined-- 62.667
0.52 138.309 67.118
0.53 131.108 69.104
0.54 119.434 68.690
0.55 119.060 66.805
0.56 115.902 64.134
0.57 114.560 61.312
0.58 113.334 59.691
0.59 112.897 59.480
0.60 113.192 59.571
0.61 113.441 59.531
0.62 112.823 59.386
0.63 112.073 59.262
0.64 109.618 58.842
0.65 105.721 57.737
0.66 103.853 55.696
0.67 --undefined-- 52.930
0.68 --undefined-- 51.355
0.69 --undefined-- 51.777
0.70 --undefined-- 52.831
0.71 --undefined-- 53.551
0.72 --undefined-- 54.023
0.73 --undefined-- 53.874
0.74 --undefined-- 53.257
0.75 --undefined-- 52.666
0.76 --undefined-- 51.643
0.77 --undefined-- 52.179
0.78 --undefined-- 55.462
0.79 --undefined-- 58.325
0.80 --undefined-- 60.334
0.81 102.124 61.629
0.82 105.168 62.456
0.83 105.947 63.261
0.84 107.619 64.535
0.85 109.865 66.110
0.86 112.407 67.556
0.87 114.960 68.615
0.88 117.379 69.157
0.89 118.630 69.123
0.90 120.123 68.692
0.91 121.974 68.422
0.92 122.911 68.743
0.93 124.454 69.803
0.94 125.170 71.100
0.95 124.285 71.608
0.96 122.133 71.114
0.97 121.064 70.412
0.98 120.312 70.194
0.99 120.093 70.139
1.00 119.340 69.899
1.01 117.662 69.344
1.02 116.252 68.668
1.03 115.707 68.330
1.04 114.244 68.131
1.05 112.752 67.781
1.06 110.055 67.289
1.07 104.306 66.707
1.08 101.050 65.737
1.09 97.037 63.705
1.10 95.728 60.587
1.11 91.528 57.282
1.12 88.222 54.269
1.13 84.090 51.231
1.14 80.356 48.238
1.15 --undefined-- 46.315
1.16 --undefined-- 45.186
1.17 --undefined-- 44.866
1.18 --undefined-- 45.664
1.19 --undefined-- 47.117
1.20 --undefined-- 48.327
1.21 --undefined-- 49.359
1.22 --undefined-- 49.605
1.23 --undefined-- 47.256
1.24 --undefined-- 42.148
1.25 --undefined-- 38.352
1.26 --undefined-- 40.162
1.27 --undefined-- 44.004
1.28 --undefined-- 51.932
1.29 --undefined-- 58.240
1.30 --undefined-- 60.372
1.31 --undefined-- 60.943
1.32 --undefined-- 65.136
1.33 114.625 68.568
1.34 115.361 69.951
1.35 110.129 70.367
1.36 111.464 70.424
1.37 112.672 70.122
1.38 113.396 69.701
1.39 114.410 69.298
1.40 114.467 68.665
1.41 113.871 67.357
1.42 114.285 65.438
1.43 115.740 63.904
1.44 115.892 63.177
1.45 116.865 63.847
1.46 119.800 66.422
1.47 119.536 68.432
1.48 117.858 68.973
1.49 116.274 68.881
1.50 114.719 68.799
1.51 113.435 68.557
1.52 112.460 68.467
1.53 111.860 68.612
1.54 110.601 68.526
1.55 108.535 67.907
1.56 106.491 66.987
1.57 102.758 65.890
1.58 100.231 64.541
1.59 98.912 64.098
1.60 97.793 64.519
1.61 96.552 64.828
1.62 94.438 65.452
1.63 94.694 66.407
1.64 93.596 66.312
1.65 93.495 65.261
1.66 93.100 64.500
1.67 92.045 63.791
1.68 90.290 62.574
1.69 --undefined-- 60.578
1.70 --undefined-- 57.187
1.71 --undefined-- 52.461
1.72 --undefined-- 49.589
1.73 --undefined-- 50.544
1.74 --undefined-- 51.023
1.75 --undefined-- 49.994
1.76 --undefined-- 49.041
1.77 --undefined-- 48.659
1.78 --undefined-- 47.081
1.79 --undefined-- 46.276
1.80 --undefined-- 52.618
1.81 --undefined-- 59.287
1.82 96.797 63.177
1.83 98.067 64.935
1.84 97.264 65.100
1.85 95.841 64.256
1.86 95.939 63.336
1.87 97.241 62.957
1.88 100.642 63.073
1.89 105.081 63.471
1.90 109.727 63.809
1.91 112.283 63.661
1.92 114.214 62.943
1.93 115.852 61.560
1.94 116.848 59.132
1.95 118.714 55.583
1.96 121.271 51.632
1.97 126.257 48.401
1.98 --undefined-- 45.659
1.99 --undefined-- 42.251
2.00 --undefined-- 39.276
2.01 --undefined-- 37.865
2.02 --undefined-- 37.601
2.03 --undefined-- 38.053
2.04 --undefined-- 38.172
2.05 --undefined-- 37.923
2.06 --undefined-- 38.247
2.07 --undefined-- 38.453
2.08 --undefined-- 38.290
2.09 --undefined-- 38.290
2.10 --undefined-- 38.320
2.11 --undefined-- 38.276
2.12 --undefined-- 38.224
2.13 --undefined-- 38.367
2.14 --undefined-- 38.724
2.15 --undefined-- 39.075
2.16 --undefined-- 38.832
2.17 --undefined-- 38.203
2.18 --undefined-- 38.462
2.19 --undefined-- 39.159
2.20 --undefined-- 39.463
2.21 --undefined-- 39.633
2.22 --undefined-- 39.596
2.23 --undefined-- 39.107
2.24 --undefined-- 38.858
2.25 --undefined-- 38.967
2.26 --undefined-- 39.000
2.27 --undefined-- 38.991
2.28 --undefined-- 39.181
2.29 --undefined-- 39.384
2.30 --undefined-- 39.294
2.31 --undefined-- 38.881
2.32 --undefined-- 38.927
2.33 --undefined-- 39.206
2.34 --undefined-- 39.056
2.35 --undefined-- 38.788
2.36 --undefined-- 39.073
2.37 --undefined-- 39.637
2.38 --undefined-- 39.798
2.39 --undefined-- 39.284
2.40 --undefined-- 38.564
2.41 --undefined-- 37.995
2.42 --undefined-- 37.574
2.43 --undefined-- 37.486
2.44 --undefined-- 38.170
2.45 --undefined-- 46.113
2.46 --undefined-- 55.517
2.47 --undefined-- 62.284
2.48 --undefined-- 67.072
2.49 --undefined-- 68.939
2.50 --undefined-- 69.527
2.51 144.594 71.990
2.52 141.326 73.431
2.53 136.392 72.870
2.54 134.179 71.575
2.55 134.765 70.616
2.56 137.890 69.663
2.57 137.634 67.903
2.58 135.493 65.295
2.59 134.060 62.579
2.60 132.913 60.776
2.61 133.160 60.238
2.62 134.089 60.433
2.63 134.612 60.595
2.64 134.865 60.325
2.65 135.231 59.592
2.66 134.662 58.533
2.67 133.713 57.579
2.68 134.565 57.190
2.69 134.494 57.087
2.70 133.606 56.779
2.71 132.037 55.732
2.72 130.108 53.015
2.73 --undefined-- 48.031
2.74 --undefined-- 42.307
2.75 --undefined-- 39.026
2.76 --undefined-- 37.902
2.77 --undefined-- 40.067
2.78 --undefined-- 50.319
2.79 --undefined-- 57.724
2.80 --undefined-- 62.976
2.81 --undefined-- 67.634
2.82 --undefined-- 70.258
2.83 --undefined-- 70.394
2.84 --undefined-- 69.260
2.85 97.295 68.315
2.86 96.070 67.025
2.87 94.530 65.509
2.88 92.318 64.578
2.89 90.472 63.837
2.90 90.534 63.042
2.91 90.709 62.425
2.92 89.215 61.864
2.93 88.017 60.961
2.94 88.447 59.989
2.95 88.416 59.737
2.96 90.331 59.899
2.97 90.483 59.767
2.98 90.248 59.057
2.99 90.547 57.356
3.00 91.096 54.171
3.01 91.373 49.561
3.02 --undefined-- 44.731
3.03 --undefined-- 42.236
3.04 --undefined-- 41.392
3.05 --undefined-- 39.964
3.06 --undefined-- 38.947
3.07 --undefined-- 39.244
3.08 --undefined-- 42.628
3.09 --undefined-- 51.458
3.10 --undefined-- 56.944
3.11 --undefined-- 58.504
3.12 --undefined-- 57.787
3.13 --undefined-- 60.502
3.14 124.516 65.835
3.15 123.194 69.510
3.16 122.338 71.411
3.17 123.384 71.979
3.18 126.482 71.617
3.19 126.194 70.723
3.20 124.033 70.147
3.21 122.660 69.892
3.22 121.741 69.638
3.23 121.433 69.663
3.24 121.482 69.552
3.25 121.357 69.084
3.26 122.179 68.725
3.27 123.642 68.689
3.28 125.413 68.595
3.29 126.643 67.858
3.30 127.054 66.194
3.31 126.656 63.707
3.32 126.027 60.463
3.33 125.782 56.487
3.34 125.188 53.516
3.35 123.580 53.017
3.36 121.267 53.072
3.37 119.954 53.067
3.38 119.865 53.225
3.39 119.962 53.395
3.40 119.075 53.479
3.41 118.613 53.701
3.42 118.505 53.985
3.43 118.103 53.959
3.44 115.729 53.590
3.45 115.135 52.783
3.46 113.241 50.981
3.47 --undefined-- 47.601
3.48 --undefined-- 43.063
3.49 --undefined-- 42.231
3.50 --undefined-- 44.206
3.51 --undefined-- 44.859
3.52 --undefined-- 48.019
3.53 --undefined-- 51.990
3.54 --undefined-- 53.810
3.55 --undefined-- 54.630
3.56 --undefined-- 56.150
3.57 --undefined-- 57.315
3.58 --undefined-- 57.012
3.59 --undefined-- 55.406
3.60 --undefined-- 53.098
3.61 --undefined-- 51.332
3.62 --undefined-- 50.430
3.63 --undefined-- 49.889
3.64 --undefined-- 50.850
3.65 --undefined-- 52.394
3.66 95.996 53.380
3.67 97.814 54.139
3.68 97.731 55.201
3.69 97.290 56.595
3.70 96.548 58.093
3.71 98.071 59.344
3.72 99.362 59.981
3.73 101.601 59.952
3.74 102.791 59.217
3.75 103.134 57.619
3.76 101.012 55.505
3.77 104.661 54.719
3.78 110.813 57.502
3.79 110.966 62.392
3.80 115.138 66.769
3.81 115.741 69.469
3.82 115.899 70.505
3.83 115.433 70.189
3.84 113.962 69.094
3.85 112.744 68.147
3.86 111.942 67.620
3.87 111.612 67.198
3.88 111.894 67.031
3.89 111.061 67.157
3.90 110.518 67.274
3.91 106.769 66.712
3.92 107.015 64.840
3.93 111.197 62.431
3.94 110.808 61.014
3.95 108.979 60.793
3.96 105.385 61.571
3.97 104.455 63.663
3.98 108.225 66.616
3.99 107.547 68.730
4.00 104.505 69.440
4.01 103.028 69.303
4.02 96.022 68.723
4.03 94.019 68.253
4.04 92.071 68.126
4.05 92.110 67.807
4.06 93.127 67.252
4.07 94.790 66.953
4.08 95.721 66.636
4.09 97.419 65.541
4.10 98.349 63.685
4.11 97.593 61.339
4.12 96.539 57.877
4.13 96.889 52.948
4.14 --undefined-- 47.452
4.15 --undefined-- 43.424
4.16 --undefined-- 40.315
4.17 --undefined-- 37.391
4.18 --undefined-- 36.586
4.19 --undefined-- 38.400
4.20 --undefined-- 43.440
4.21 --undefined-- 49.415
4.22 --undefined-- 53.162
4.23 --undefined-- 54.970
4.24 --undefined-- 57.988
4.25 --undefined-- 63.509
4.26 105.860 67.430
4.27 108.043 69.353
4.28 108.476 70.062
4.29 109.583 70.305
4.30 109.659 69.961
4.31 109.185 68.904
4.32 109.095 68.093
4.33 108.744 67.790
4.34 108.015 67.652
4.35 108.000 67.656
4.36 108.383 67.372
4.37 108.874 66.712
4.38 110.237 66.114
4.39 111.918 65.416
4.40 112.837 64.107
4.41 112.475 61.833
4.42 112.378 58.592
4.43 113.394 55.589
4.44 113.427 54.852
4.45 112.419 54.980
4.46 111.561 55.085
4.47 111.181 55.175
4.48 110.738 55.261
4.49 110.846 56.020
4.50 113.102 59.201
4.51 113.622 63.373
4.52 112.331 65.997
4.53 111.494 66.891
4.54 110.928 66.942
4.55 110.175 66.900
4.56 109.285 66.960
4.57 108.930 67.166
4.58 108.548 67.318
4.59 107.991 67.291
4.60 107.305 67.130
4.61 106.749 66.463
4.62 105.502 64.655
4.63 103.675 61.446
4.64 99.848 57.278
4.65 96.751 54.416
4.66 93.260 53.796
4.67 90.599 53.623
4.68 90.746 52.619
4.69 88.609 50.764
4.70 87.154 48.408
4.71 86.446 46.006
4.72 --undefined-- 47.806
4.73 --undefined-- 52.568
4.74 --undefined-- 54.746
4.75 87.634 54.463
4.76 87.817 53.444
4.77 86.801 52.547
4.78 82.907 51.326
4.79 82.116 50.026
4.80 81.901 49.146
4.81 79.682 49.412
4.82 79.267 50.463
4.83 76.750 50.756
4.84 78.286 50.596
4.85 76.528 50.268
4.86 76.342 50.146
4.87 77.087 50.572
4.88 77.092 51.116
4.89 77.594 51.114
4.90 77.802 50.898
4.91 80.310 51.058
4.92 79.761 51.159
4.93 80.264 50.998
4.94 81.002 50.904
4.95 81.312 50.499
4.96 81.325 48.988
4.97 --undefined-- 46.264
4.98 --undefined-- 44.002
4.99 --undefined-- 45.921
5.00 --undefined-- 51.957
5.01 --undefined-- 56.687
5.02 --undefined-- 59.439
5.03 --undefined-- 61.633
5.04 --undefined-- 63.007
5.05 --undefined-- 62.225
5.06 --undefined-- 59.644
5.07 --undefined-- 57.900
5.08 --undefined-- 58.192
5.09 --undefined-- 60.343
5.10 --undefined-- 63.834
5.11 128.283 66.206
5.12 128.426 67.117
5.13 134.933 66.600
5.14 130.294 64.650
5.15 130.326 61.974
5.16 130.154 59.604
5.17 129.794 58.394
5.18 128.351 57.872
5.19 127.360 57.741
5.20 126.170 57.878
5.21 124.761 58.062
5.22 123.592 58.226
5.23 121.908 58.199
5.24 120.633 57.854
5.25 119.632 57.447
5.26 119.002 57.224
5.27 118.953 57.303
5.28 118.521 57.581
5.29 118.238 57.790
5.30 118.442 57.905
5.31 118.456 57.927
5.32 117.399 57.853
5.33 115.978 57.750
5.34 113.524 57.595
5.35 110.228 57.271
5.36 105.548 57.261
5.37 103.243 58.021
5.38 99.714 59.150
5.39 96.199 60.891
5.40 93.180 62.924
5.41 93.430 64.697
5.42 --undefined-- 65.776
5.43 --undefined-- 65.913
5.44 --undefined-- 65.040
5.45 --undefined-- 63.354
5.46 --undefined-- 60.494
5.47 --undefined-- 56.402
5.48 --undefined-- 54.358
5.49 --undefined-- 52.854
5.50 --undefined-- 49.664
5.51 --undefined-- 46.456
5.52 --undefined-- 45.622
5.53 --undefined-- 45.150
5.54 --undefined-- 44.069
5.55 --undefined-- 43.009
5.56 --undefined-- 41.896
5.57 --undefined-- 41.054
5.58 --undefined-- 40.748
5.59 --undefined-- 40.133
5.60 --undefined-- 39.593
5.61 --undefined-- 39.696
5.62 --undefined-- 39.902
5.63 --undefined-- 40.010
5.64 --undefined-- 39.980
5.65 --undefined-- 40.153
5.66 --undefined-- 39.900
5.67 --undefined-- 39.312
5.68 --undefined-- 39.625
5.69 --undefined-- 40.837
5.70 --undefined-- 45.219
5.71 --undefined-- 49.087
5.72 --undefined-- 49.731
5.73 --undefined-- 49.435
5.74 --undefined-- 51.728
5.75 --undefined-- 54.458
5.76 --undefined-- --undefined--
5.77 --undefined-- --undefined--
5.78 --undefined-- --undefined--
5.79 --undefined-- --undefined--
