Time Pitch Intensity
0.01 --undefined-- --undefined--
0.02 221.365 --undefined--
0.03 204.418 --undefined--
0.04 196.501 --undefined--
0.05 191.703 67.457
0.06 188.157 67.639
0.07 185.706 67.693
0.08 184.974 67.599
0.09 184.959 67.558
0.10 184.303 67.805
0.11 182.563 67.930
0.12 181.528 67.337
0.13 179.723 65.928
0.14 176.760 64.143
0.15 174.285 62.947
0.16 175.091 63.140
0.17 176.037 64.214
0.18 176.563 65.380
0.19 176.955 66.750
0.20 176.066 68.572
0.21 174.370 70.586
0.22 173.766 72.189
0.23 173.290 73.169
0.24 174.750 73.801
0.25 177.877 74.254
0.26 182.398 74.693
0.27 187.643 75.293
0.28 193.204 75.709
0.29 197.462 75.786
0.30 199.913 75.792
0.31 201.656 76.026
0.32 201.101 76.116
0.33 199.077 75.437
0.34 195.703 74.134
0.35 188.574 72.802
0.36 181.630 71.806
0.37 173.214 70.830
0.38 164.923 69.907
0.39 158.055 68.941
0.40 153.726 67.067
0.41 150.825 63.855
0.42 152.748 59.542
0.43 154.858 55.156
0.44 --undefined-- 51.848
0.45 --undefined-- 50.639
0.46 --undefined-- 49.628
0.47 --undefined-- 48.676
0.48 --undefined-- 50.357
0.49 --undefined-- 52.439
0.50 --undefined-- 53.211
0.51 --undefined-- 52.396
0.52 --undefined-- 51.027
0.53 --undefined-- 49.395
0.54 --undefined-- 47.939
0.55 --undefined-- 49.625
0.56 --undefined-- 50.117
0.57 --undefined-- 48.900
0.58 --undefined-- 48.581
0.59 --undefined-- 48.033
0.60 --undefined-- 46.115
0.61 --undefined-- 42.662
0.62 --undefined-- 40.177
0.63 --undefined-- 42.513
0.64 --undefined-- 45.729
0.65 --undefined-- 46.778
0.66 --undefined-- 46.350
0.67 --undefined-- 46.589
0.68 --undefined-- 49.121
0.69 --undefined-- 51.464
0.70 --undefined-- 52.484
0.71 --undefined-- 53.219
0.72 --undefined-- 54.166
0.73 --undefined-- 57.675
0.74 --undefined-- 64.560
0.75 166.148 69.800
0.76 170.939 72.558
0.77 176.418 73.557
0.78 178.856 73.650
0.79 179.663 73.664
0.80 180.155 74.102
0.81 181.379 74.575
0.82 183.317 74.828
0.83 184.541 75.078
0.84 185.056 75.423
0.85 184.834 75.639
0.86 183.916 75.393
0.87 181.774 74.470
0.88 178.021 72.587
0.89 170.190 69.446
0.90 160.773 65.663
0.91 161.588 61.663
0.92 177.262 57.165
0.93 176.603 55.665
0.94 176.912 55.049
0.95 --undefined-- 53.567
0.96 --undefined-- 51.744
0.97 --undefined-- 55.829
0.98 --undefined-- 62.600
0.99 285.829 66.582
1.00 265.040 68.100
1.01 257.652 68.322
1.02 253.431 68.242
1.03 252.007 68.098
1.04 253.400 67.765
1.05 255.304 67.072
1.06 255.673 65.668
1.07 254.973 63.318
1.08 239.997 60.037
1.09 237.389 56.025
1.10 --undefined-- 52.315
1.11 --undefined-- 53.190
1.12 --undefined-- 57.527
1.13 --undefined-- 61.142
1.14 --undefined-- 62.686
1.15 --undefined-- 62.062
1.16 --undefined-- 60.204
1.17 --undefined-- 61.587
1.18 156.520 65.452
1.19 162.852 67.820
1.20 165.210 68.627
1.21 164.745 68.518
1.22 164.770 68.047
1.23 164.295 67.218
1.24 160.937 65.475
1.25 156.224 62.628
1.26 --undefined-- 59.905
1.27 --undefined-- 57.974
1.28 --undefined-- 55.310
1.29 --undefined-- 53.522
1.30 --undefined-- 53.014
1.31 --undefined-- 52.396
1.32 --undefined-- 52.211
1.33 --undefined-- 51.412
1.34 --undefined-- 50.069
1.35 --undefined-- 53.871
1.36 276.231 61.129
1.37 247.911 66.210
1.38 228.751 69.256
1.39 210.559 71.216
1.40 197.201 72.558
1.41 191.033 73.096
1.42 189.201 72.383
1.43 190.790 70.439
1.44 194.833 68.497
1.45 196.492 67.622
1.46 194.247 67.333
1.47 191.158 66.857
1.48 189.305 65.969
1.49 190.832 65.650
1.50 196.685 66.398
1.51 200.377 67.136
1.52 198.121 67.920
1.53 196.166 68.762
1.54 196.019 68.955
1.55 198.007 68.295
1.56 203.106 67.080
1.57 208.383 65.659
1.58 211.396 63.880
1.59 211.330 61.146
1.60 209.162 56.967
1.61 --undefined-- 51.593
1.62 --undefined-- 47.761
1.63 --undefined-- 47.399
1.64 --undefined-- 49.074
1.65 --undefined-- 50.553
1.66 --undefined-- 50.915
1.67 --undefined-- 50.038
1.68 --undefined-- 48.042
1.69 --undefined-- 47.365
1.70 --undefined-- 49.299
1.71 --undefined-- 51.793
1.72 --undefined-- 54.037
1.73 --undefined-- 55.196
1.74 --undefined-- 57.800
1.75 287.509 62.777
1.76 275.982 66.261
1.77 272.520 68.326
1.78 270.781 69.769
1.79 266.008 70.864
1.80 260.337 71.960
1.81 256.393 73.037
1.82 255.620 73.493
1.83 256.942 73.157
1.84 259.113 72.172
1.85 262.176 70.771
1.86 263.455 69.639
1.87 264.352 68.815
1.88 266.100 67.674
1.89 269.339 66.700
1.90 269.635 66.692
1.91 269.181 66.888
1.92 267.909 66.874
1.93 265.939 66.664
1.94 262.538 66.083
1.95 257.550 65.396
1.96 254.098 65.053
1.97 248.474 64.557
1.98 241.971 62.821
1.99 234.528 59.434
2.00 --undefined-- 56.211
2.01 --undefined-- 54.385
2.02 --undefined-- 52.839
2.03 --undefined-- 56.460
2.04 206.615 62.223
2.05 189.379 65.942
2.06 179.542 68.141
2.07 174.311 69.590
2.08 169.463 70.842
2.09 168.542 72.218
2.10 169.460 73.439
2.11 172.478 74.076
2.12 176.830 73.947
2.13 180.712 73.148
2.14 184.592 71.826
2.15 191.382 70.029
2.16 202.066 67.858
2.17 209.343 65.129
2.18 211.087 61.544
2.19 --undefined-- 57.351
2.20 --undefined-- 53.485
2.21 --undefined-- 50.564
2.22 --undefined-- 48.902
2.23 --undefined-- 49.415
2.24 --undefined-- 51.602
2.25 --undefined-- 52.584
2.26 --undefined-- 56.165
2.27 --undefined-- 62.123
2.28 --undefined-- 65.882
2.29 206.050 67.987
2.30 200.792 69.168
2.31 195.304 69.677
2.32 191.650 69.989
2.33 191.140 70.204
2.34 192.034 70.320
2.35 193.012 70.524
2.36 193.163 70.617
2.37 189.363 70.400
2.38 182.342 69.438
2.39 179.591 67.393
2.40 --undefined-- 64.218
2.41 --undefined-- 60.536
2.42 --undefined-- 58.388
2.43 --undefined-- 57.737
2.44 --undefined-- 57.582
2.45 74.733 58.466
2.46 --undefined-- 60.113
2.47 --undefined-- 61.455
2.48 --undefined-- 62.514
2.49 204.636 63.614
2.50 218.684 65.034
2.51 223.779 66.614
2.52 224.417 67.964
2.53 224.449 69.309
2.54 226.334 71.113
2.55 229.978 73.059
2.56 232.125 74.560
2.57 233.812 75.439
2.58 235.699 75.760
2.59 237.409 75.754
2.60 239.586 75.810
2.61 241.836 75.956
2.62 243.647 76.014
2.63 244.861 75.932
2.64 245.469 75.772
2.65 245.013 75.833
2.66 242.534 76.167
2.67 238.972 76.466
2.68 234.937 76.401
2.69 230.789 75.557
2.70 224.298 73.282
2.71 216.467 69.641
2.72 219.029 66.676
2.73 213.819 63.998
2.74 221.655 60.284
2.75 --undefined-- 57.200
2.76 --undefined-- 54.170
2.77 --undefined-- 49.822
2.78 --undefined-- 47.241
2.79 --undefined-- 48.637
2.80 --undefined-- 49.258
2.81 --undefined-- 47.927
2.82 --undefined-- 45.989
2.83 --undefined-- 47.635
2.84 --undefined-- 51.433
2.85 --undefined-- 53.398
2.86 --undefined-- 52.888
2.87 --undefined-- 50.536
2.88 --undefined-- 50.229
2.89 --undefined-- 52.826
2.90 --undefined-- 53.827
2.91 --undefined-- 54.113
2.92 --undefined-- 54.479
2.93 --undefined-- 53.704
2.94 --undefined-- 57.626
2.95 256.765 62.628
2.96 248.125 65.300
2.97 243.837 66.804
2.98 242.182 68.234
2.99 240.076 69.664
3.00 239.296 70.827
3.01 238.577 71.495
3.02 238.221 71.760
3.03 238.704 71.845
3.04 238.974 71.858
3.05 239.314 71.961
3.06 239.502 72.195
3.07 239.547 72.423
3.08 239.689 72.626
3.09 240.433 72.802
3.10 241.594 72.636
3.11 242.434 71.753
3.12 242.705 70.125
3.13 242.682 67.944
3.14 239.460 65.100
3.15 236.894 61.321
3.16 236.620 56.697
3.17 236.509 52.896
3.18 --undefined-- 55.206
3.19 --undefined-- 59.846
3.20 --undefined-- 61.838
3.21 --undefined-- 60.844
3.22 --undefined-- 57.720
3.23 187.021 55.576
3.24 185.151 56.015
3.25 177.154 56.500
3.26 169.385 57.455
3.27 189.990 59.305
3.28 189.688 62.583
3.29 187.205 66.274
3.30 185.421 69.197
3.31 183.249 70.977
3.32 182.563 71.789
3.33 182.915 72.133
3.34 183.694 72.192
3.35 184.313 71.719
3.36 184.866 70.589
3.37 187.220 69.080
3.38 190.381 67.842
3.39 191.604 66.682
3.40 190.589 64.550
3.41 187.375 61.005
3.42 186.712 56.422
3.43 --undefined-- 51.805
3.44 --undefined-- 48.677
3.45 --undefined-- 49.784
3.46 --undefined-- 53.158
3.47 --undefined-- 54.385
3.48 --undefined-- 53.926
3.49 --undefined-- 52.843
3.50 --undefined-- 51.134
3.51 --undefined-- 50.513
3.52 --undefined-- 54.957
3.53 --undefined-- 60.200
3.54 192.014 63.768
3.55 187.028 65.999
3.56 183.670 67.177
3.57 181.352 67.601
3.58 180.715 67.856
3.59 181.458 68.234
3.60 182.577 68.678
3.61 182.854 69.036
3.62 182.899 69.135
3.63 182.215 68.826
3.64 182.396 68.305
3.65 181.349 67.925
3.66 178.841 67.522
3.67 176.179 67.133
3.68 175.123 67.553
3.69 175.147 69.220
3.70 174.467 70.962
3.71 174.138 71.945
3.72 174.288 72.395
3.73 175.308 72.666
3.74 174.997 72.955
3.75 173.658 73.209
3.76 173.481 73.199
3.77 173.732 72.898
3.78 174.500 72.304
3.79 176.526 71.256
3.80 178.328 70.209
3.81 176.884 69.782
3.82 176.458 69.539
3.83 175.055 68.998
3.84 172.996 67.862
3.85 171.982 66.032
3.86 173.649 64.429
3.87 --undefined-- 63.848
3.88 88.931 62.901
3.89 --undefined-- 61.265
3.90 --undefined-- 60.007
3.91 --undefined-- 58.636
3.92 --undefined-- 56.424
3.93 --undefined-- 54.378
3.94 --undefined-- 53.918
3.95 --undefined-- 55.362
3.96 --undefined-- 56.268
3.97 --undefined-- 54.823
3.98 --undefined-- 51.392
3.99 --undefined-- 49.172
4.00 --undefined-- 47.997
4.01 --undefined-- 48.362
4.02 --undefined-- 51.186
4.03 --undefined-- 54.102
4.04 --undefined-- 57.336
4.05 269.909 62.272
4.06 258.626 66.326
4.07 253.744 68.836
4.08 253.317 70.515
4.09 252.885 71.548
4.10 252.319 71.775
4.11 252.929 71.269
4.12 254.149 70.384
4.13 255.323 69.486
4.14 255.491 68.842
4.15 258.211 69.018
4.16 260.068 69.313
4.17 260.702 69.226
4.18 263.120 69.124
4.19 265.566 69.158
4.20 268.246 69.303
4.21 272.228 69.628
4.22 274.164 70.043
4.23 274.045 70.067
4.24 273.078 68.919
4.25 267.158 65.715
4.26 248.444 60.008
4.27 253.148 54.441
4.28 269.705 52.791
4.29 --undefined-- 51.118
4.30 --undefined-- 51.240
4.31 --undefined-- 52.463
4.32 --undefined-- 55.407
4.33 --undefined-- 61.551
4.34 155.588 65.883
4.35 150.408 67.914
4.36 149.327 68.414
4.37 148.234 68.298
4.38 147.216 68.140
4.39 147.092 68.166
4.40 147.774 68.293
4.41 149.264 68.415
4.42 152.881 68.519
4.43 156.174 68.553
4.44 158.400 68.362
4.45 158.099 68.052
4.46 159.432 68.179
4.47 162.613 68.655
4.48 164.906 69.773
4.49 168.096 71.976
4.50 167.812 73.679
4.51 165.306 74.120
4.52 163.396 74.132
4.53 161.601 74.453
4.54 159.208 74.979
4.55 155.681 75.118
4.56 151.424 74.958
4.57 289.095 75.061
4.58 272.355 75.235
4.59 250.189 75.054
4.60 220.682 74.592
4.61 209.698 73.245
4.62 202.851 70.080
4.63 197.211 65.239
4.64 --undefined-- 59.721
4.65 --undefined-- 55.992
4.66 --undefined-- 55.317
4.67 --undefined-- 54.299
4.68 --undefined-- 52.442
4.69 --undefined-- 51.723
4.70 --undefined-- 51.208
4.71 --undefined-- 52.708
4.72 --undefined-- 55.582
4.73 --undefined-- 56.536
4.74 --undefined-- 55.466
4.75 --undefined-- 54.048
4.76 --undefined-- 53.203
4.77 --undefined-- 52.047
4.78 --undefined-- 51.182
4.79 --undefined-- 52.682
4.80 --undefined-- 54.074
4.81 --undefined-- 54.053
4.82 --undefined-- 53.415
4.83 --undefined-- 52.961
4.84 --undefined-- 52.613
4.85 --undefined-- 52.808
4.86 --undefined-- 53.710
4.87 --undefined-- 53.739
4.88 --undefined-- 53.121
4.89 --undefined-- 52.457
4.90 --undefined-- 50.604
4.91 --undefined-- 48.399
4.92 --undefined-- 47.459
4.93 --undefined-- 47.805
4.94 --undefined-- 49.143
4.95 --undefined-- 52.458
4.96 --undefined-- --undefined--
4.97 --undefined-- --undefined--
4.98 --undefined-- --undefined--
4.99 --undefined-- --undefined--
