Time Pitch Intensity
0.01 --undefined-- --undefined--
0.02 146.002 --undefined--
0.03 144.681 --undefined--
0.04 143.393 --undefined--
0.05 141.306 77.697
0.06 138.909 76.742
0.07 138.560 75.694
0.08 136.575 74.428
0.09 135.665 72.943
0.10 136.886 71.430
0.11 134.872 69.303
0.12 132.538 65.945
0.13 130.790 61.274
0.14 --undefined-- 55.643
0.15 --undefined-- 51.114
0.16 --undefined-- 50.124
0.17 --undefined-- 49.789
0.18 --undefined-- 48.939
0.19 --undefined-- 51.679
0.20 --undefined-- 60.989
0.21 --undefined-- 68.856
0.22 131.483 73.599
0.23 127.011 76.040
0.24 122.565 77.103
0.25 120.064 77.551
0.26 118.562 77.571
0.27 117.944 77.183
0.28 117.727 76.844
0.29 118.114 76.816
0.30 117.518 76.729
0.31 115.440 76.513
0.32 113.446 76.589
0.33 112.712 76.936
0.34 113.303 76.903
0.35 107.589 76.242
0.36 106.563 75.703
0.37 103.655 75.032
0.38 95.663 73.360
0.39 --undefined-- 70.635
0.40 --undefined-- 67.365
0.41 --undefined-- 66.717
0.42 --undefined-- 70.120
0.43 109.184 72.525
0.44 109.623 73.536
0.45 103.179 74.217
0.46 102.111 74.592
0.47 99.441 74.383
0.48 99.132 73.881
0.49 99.131 73.215
0.50 99.523 72.579
0.51 102.366 72.312
0.52 106.896 72.646
0.53 110.555 73.579
0.54 113.219 74.680
0.55 116.504 75.625
0.56 121.706 76.549
0.57 128.320 77.633
0.58 133.204 78.517
0.59 135.221 78.872
0.60 136.651 79.002
0.61 139.907 79.157
0.62 141.459 79.115
0.63 140.872 78.648
0.64 137.816 77.756
0.65 132.029 76.399
0.66 128.789 74.447
0.67 129.080 71.369
0.68 119.726 66.431
0.69 137.218 59.282
0.70 141.378 52.915
0.71 --undefined-- 51.260
0.72 --undefined-- 50.422
0.73 --undefined-- 49.198
0.74 --undefined-- 47.875
0.75 --undefined-- 47.110
0.76 --undefined-- 47.859
0.77 --undefined-- 49.537
0.78 --undefined-- 50.069
0.79 --undefined-- 49.019
0.80 --undefined-- 47.477
0.81 --undefined-- 46.241
0.82 --undefined-- 45.385
0.83 --undefined-- 45.271
0.84 --undefined-- 45.665
0.85 --undefined-- 45.842
0.86 --undefined-- 45.355
0.87 --undefined-- 44.785
0.88 --undefined-- 44.380
0.89 --undefined-- 43.299
0.90 --undefined-- 41.875
0.91 --undefined-- 42.163
0.92 --undefined-- 53.081
0.93 --undefined-- 63.026
0.94 157.537 69.205
0.95 154.137 72.727
0.96 156.430 74.720
0.97 160.241 75.979
0.98 163.784 76.835
0.99 167.312 77.209
1.00 171.553 76.932
1.01 173.511 75.907
1.02 168.991 74.287
1.03 165.385 72.452
1.04 164.675 70.135
1.05 163.613 66.594
1.06 --undefined-- 63.259
1.07 --undefined-- 70.081
1.08 --undefined-- 76.025
1.09 184.745 78.540
1.10 172.113 79.052
1.11 160.105 78.994
1.12 154.238 78.368
1.13 149.024 76.638
1.14 145.684 74.244
1.15 144.836 72.271
1.16 143.722 70.792
1.17 148.285 70.402
1.18 151.774 71.470
1.19 153.133 72.655
1.20 155.367 73.517
1.21 156.270 74.266
1.22 156.270 74.853
1.23 156.095 75.073
1.24 154.155 74.771
1.25 153.120 73.725
1.26 151.435 71.297
1.27 150.742 67.142
1.28 162.151 62.753
1.29 156.769 60.417
1.30 155.490 59.011
1.31 155.428 56.418
1.32 --undefined-- 55.749
1.33 --undefined-- 63.734
1.34 --undefined-- 70.281
1.35 120.463 73.708
1.36 116.703 74.914
1.37 109.706 74.791
1.38 101.224 74.090
1.39 98.020 73.171
1.40 97.190 71.736
1.41 96.053 69.549
1.42 96.400 67.082
1.43 99.639 65.016
1.44 104.248 63.542
1.45 106.983 61.934
1.46 119.860 59.555
1.47 120.811 56.286
1.48 --undefined-- 52.713
1.49 --undefined-- 59.152
1.50 --undefined-- 68.380
1.51 163.128 74.035
1.52 159.397 77.008
1.53 156.419 78.403
1.54 154.917 79.060
1.55 153.206 79.004
1.56 147.956 78.170
1.57 141.896 77.215
1.58 138.500 76.611
1.59 134.705 76.005
1.60 130.921 75.535
1.61 128.711 75.708
1.62 126.851 76.052
1.63 125.134 76.468
1.64 124.252 76.928
1.65 123.439 76.872
1.66 124.126 76.230
1.67 125.522 74.952
1.68 124.972 72.354
1.69 126.223 68.072
1.70 --undefined-- 63.024
1.71 --undefined-- 58.605
1.72 --undefined-- 56.122
1.73 --undefined-- 54.899
1.74 --undefined-- 54.509
1.75 --undefined-- 55.154
1.76 --undefined-- 57.513
1.77 --undefined-- 66.156
1.78 --undefined-- 73.126
1.79 147.297 76.799
1.80 141.497 77.921
1.81 134.307 77.637
1.82 129.158 77.220
1.83 126.663 77.226
1.84 124.827 77.255
1.85 123.015 76.998
1.86 122.154 76.520
1.87 119.899 75.353
1.88 111.648 72.635
1.89 113.133 68.733
1.90 113.071 67.263
1.91 117.674 68.843
1.92 115.071 70.494
1.93 112.570 71.811
1.94 109.564 72.643
1.95 103.502 72.599
1.96 98.893 71.951
1.97 95.280 71.260
1.98 94.738 70.523
1.99 92.354 69.629
2.00 93.170 68.519
2.01 95.431 67.531
2.02 95.708 67.331
2.03 95.944 67.635
2.04 96.449 67.930
2.05 96.523 68.043
2.06 96.912 68.100
2.07 98.786 68.323
2.08 99.710 68.643
2.09 100.748 68.892
2.10 101.337 69.128
2.11 101.659 69.443
2.12 102.215 69.698
2.13 103.065 69.726
2.14 104.000 69.640
2.15 104.947 69.722
2.16 109.083 70.199
2.17 108.981 70.763
2.18 104.422 70.902
2.19 103.162 70.414
2.20 101.712 69.438
2.21 100.513 68.393
2.22 99.930 67.658
2.23 101.292 67.383
2.24 102.628 67.343
2.25 103.347 67.313
2.26 104.457 67.287
2.27 104.670 67.288
2.28 104.769 67.444
2.29 105.313 67.890
2.30 105.708 68.420
2.31 105.905 68.833
2.32 106.737 69.216
2.33 108.144 69.739
2.34 109.993 70.547
2.35 112.109 71.415
2.36 113.798 71.950
2.37 115.416 72.054
2.38 116.396 71.875
2.39 115.773 71.443
2.40 116.086 70.932
2.41 122.103 72.065
2.42 130.138 74.961
2.43 124.896 76.909
2.44 122.008 77.559
2.45 120.904 77.650
2.46 120.304 77.645
2.47 120.061 77.656
2.48 120.493 77.597
2.49 120.948 77.470
2.50 120.957 77.275
2.51 120.216 76.797
2.52 119.265 75.740
2.53 117.051 73.879
2.54 116.316 71.720
2.55 119.858 70.833
2.56 121.845 70.933
2.57 122.688 71.113
2.58 123.237 71.238
2.59 124.087 71.351
2.60 124.595 71.465
2.61 124.620 71.556
2.62 124.708 71.513
2.63 123.992 71.085
2.64 122.159 70.010
2.65 120.287 68.226
2.66 119.321 65.762
2.67 121.533 62.485
2.68 125.500 58.567
2.69 --undefined-- 55.458
2.70 --undefined-- 57.701
2.71 --undefined-- 62.345
2.72 --undefined-- 69.004
2.73 --undefined-- 74.135
2.74 138.970 76.661
2.75 136.520 77.436
2.76 133.322 77.327
2.77 130.202 77.163
2.78 129.477 77.251
2.79 128.575 77.188
2.80 128.504 76.983
2.81 128.607 76.821
2.82 128.410 76.536
2.83 126.936 75.733
2.84 119.026 74.288
2.85 123.568 73.295
2.86 122.400 73.255
2.87 120.416 73.388
2.88 117.597 73.461
2.89 115.463 73.467
2.90 114.505 73.471
2.91 116.569 73.520
2.92 113.132 73.690
2.93 109.502 73.991
2.94 108.990 74.220
2.95 111.963 74.409
2.96 115.909 74.871
2.97 119.067 75.575
2.98 122.581 76.145
2.99 125.996 76.616
3.00 130.058 77.256
3.01 132.355 77.544
3.02 131.353 76.365
3.03 128.290 73.290
3.04 136.077 69.403
3.05 132.871 65.663
3.06 --undefined-- 63.511
3.07 --undefined-- 66.678
3.08 --undefined-- 71.417
3.09 --undefined-- 76.028
3.10 164.241 78.640
3.11 158.652 79.297
3.12 152.601 78.984
3.13 148.658 78.289
3.14 145.848 77.130
3.15 143.457 75.443
3.16 144.035 73.887
3.17 144.179 73.261
3.18 143.770 73.389
3.19 142.977 73.417
3.20 142.446 72.781
3.21 144.555 71.462
3.22 147.474 69.406
3.23 148.160 65.985
3.24 149.257 60.653
3.25 --undefined-- 61.099
3.26 153.261 69.535
3.27 158.722 74.732
3.28 137.343 76.842
3.29 128.211 76.938
3.30 120.522 76.299
3.31 115.604 75.636
3.32 112.945 74.807
3.33 108.422 73.564
3.34 108.285 72.503
3.35 108.447 72.228
3.36 107.089 72.183
3.37 106.126 71.763
3.38 103.771 70.445
3.39 99.374 67.819
3.40 97.247 64.005
3.41 99.874 59.851
3.42 102.040 56.754
3.43 101.053 56.885
3.44 --undefined-- 59.375
3.45 --undefined-- 64.952
3.46 125.653 70.472
3.47 115.470 73.839
3.48 116.725 75.632
3.49 120.256 76.496
3.50 120.872 76.614
3.51 121.069 76.071
3.52 121.077 75.867
3.53 126.841 76.880
3.54 129.479 77.959
3.55 132.395 78.607
3.56 135.992 78.767
3.57 133.353 78.367
3.58 132.622 77.944
3.59 132.343 77.854
3.60 130.656 77.875
3.61 125.440 77.107
3.62 122.961 74.414
3.63 121.691 69.266
3.64 125.458 62.310
3.65 125.157 56.903
3.66 --undefined-- 58.572
3.67 --undefined-- 60.573
3.68 --undefined-- 59.961
3.69 --undefined-- 63.872
3.70 --undefined-- 69.876
3.71 123.735 73.560
3.72 118.663 75.337
3.73 116.527 75.973
3.74 115.747 75.895
3.75 115.050 75.220
3.76 114.732 74.283
3.77 113.503 73.441
3.78 111.271 72.767
3.79 111.958 72.431
3.80 113.620 72.565
3.81 115.886 72.927
3.82 118.642 73.212
3.83 121.016 73.276
3.84 123.111 73.145
3.85 123.987 72.598
3.86 123.608 71.395
3.87 125.378 70.321
3.88 126.559 69.784
3.89 124.326 68.576
3.90 119.729 65.854
3.91 113.464 63.301
3.92 125.297 66.798
3.93 123.803 71.586
3.94 116.918 74.432
3.95 113.252 75.386
3.96 109.467 75.265
3.97 108.540 75.144
3.98 107.915 75.276
3.99 107.788 74.918
4.00 107.461 73.337
4.01 105.218 70.277
4.02 109.762 65.603
4.03 109.517 59.556
4.04 --undefined-- 55.194
4.05 --undefined-- 56.276
4.06 --undefined-- 61.787
4.07 --undefined-- 69.295
4.08 --undefined-- 73.944
4.09 131.389 76.049
4.10 128.156 76.595
4.11 125.481 76.583
4.12 124.370 76.541
4.13 122.475 76.261
4.14 120.631 75.049
4.15 122.413 73.072
4.16 125.940 71.990
4.17 125.511 71.997
4.18 125.634 72.096
4.19 124.882 71.669
4.20 123.839 70.559
4.21 122.713 68.621
4.22 122.332 65.694
4.23 124.955 62.376
4.24 125.541 61.235
4.25 128.822 68.870
4.26 146.864 75.267
4.27 145.880 78.245
4.28 142.403 78.764
4.29 137.821 78.193
4.30 137.017 77.472
4.31 135.224 76.588
4.32 130.779 75.739
4.33 127.146 74.955
4.34 119.462 74.046
4.35 115.540 72.981
4.36 111.411 71.704
4.37 104.898 70.121
4.38 99.908 68.486
4.39 88.964 66.430
4.40 86.644 62.941
4.41 --undefined-- 57.334
4.42 --undefined-- 50.651
4.43 --undefined-- 49.129
4.44 --undefined-- 52.392
4.45 --undefined-- 54.331
4.46 --undefined-- 54.278
4.47 --undefined-- 52.352
4.48 --undefined-- 50.288
4.49 --undefined-- 50.815
4.50 --undefined-- 51.684
4.51 --undefined-- 51.748
4.52 --undefined-- 51.937
4.53 --undefined-- 52.726
4.54 --undefined-- 53.687
4.55 --undefined-- 54.139
4.56 --undefined-- 53.824
4.57 --undefined-- 53.283
4.58 --undefined-- 53.344
4.59 --undefined-- 54.577
4.60 --undefined-- 55.915
4.61 --undefined-- 56.815
4.62 --undefined-- 56.988
4.63 --undefined-- 55.876
4.64 --undefined-- 55.315
4.65 --undefined-- 56.261
4.66 --undefined-- 56.508
4.67 --undefined-- 55.530
4.68 --undefined-- 53.189
4.69 --undefined-- 49.967
4.70 --undefined-- 47.859
4.71 --undefined-- 47.467
4.72 --undefined-- 49.445
4.73 --undefined-- 59.981
4.74 212.332 67.931
4.75 213.457 72.500
4.76 220.847 74.849
4.77 228.954 76.012
4.78 233.339 76.298
4.79 230.697 75.569
4.80 221.333 74.058
4.81 209.927 72.007
4.82 206.508 69.004
4.83 207.489 64.138
4.84 --undefined-- 57.975
4.85 --undefined-- 57.188
4.86 --undefined-- 60.555
4.87 --undefined-- 65.081
4.88 265.411 71.642
4.89 253.085 76.896
4.90 254.518 79.694
4.91 251.205 80.575
4.92 243.137 80.448
4.93 235.490 80.631
4.94 231.766 81.061
4.95 227.881 80.458
4.96 199.730 79.053
4.97 196.728 78.220
4.98 181.786 78.014
4.99 170.176 77.880
5.00 160.319 77.630
5.01 150.496 77.349
5.02 145.996 76.983
5.03 142.958 76.713
5.04 136.929 76.576
5.05 130.832 76.250
5.06 130.417 75.951
5.07 140.149 76.365
5.08 145.745 77.633
5.09 150.176 78.998
5.10 153.432 79.667
5.11 163.761 79.557
5.12 171.348 79.448
5.13 173.795 --undefined--
5.14 177.765 --undefined--
5.15 --undefined-- --undefined--
5.16 --undefined-- --undefined--
