Time Pitch Intensity
0.01 --undefined-- --undefined--
0.02 119.118 --undefined--
0.03 118.035 --undefined--
0.04 117.520 --undefined--
0.05 117.751 73.435
0.06 118.051 73.420
0.07 118.128 73.302
0.08 119.666 73.122
0.09 121.917 72.979
0.10 123.701 72.915
0.11 124.145 72.867
0.12 122.912 72.678
0.13 120.735 72.218
0.14 119.171 71.601
0.15 117.626 71.068
0.16 116.119 70.828
0.17 114.863 71.024
0.18 113.620 71.538
0.19 113.082 72.074
0.20 112.692 72.334
0.21 110.725 72.170
0.22 110.718 71.819
0.23 110.193 71.321
0.24 109.849 70.404
0.25 107.458 69.289
0.26 108.783 68.107
0.27 108.138 66.483
0.28 102.499 64.979
0.29 --undefined-- 64.292
0.30 --undefined-- 63.399
0.31 --undefined-- 62.705
0.32 --undefined-- 63.112
0.33 --undefined-- 65.143
0.34 146.775 69.059
0.35 146.691 72.039
0.36 139.343 73.255
0.37 130.148 73.160
0.38 126.297 72.279
0.39 127.947 71.467
0.40 128.624 71.033
0.41 127.848 70.745
0.42 127.489 70.546
0.43 126.393 70.499
0.44 127.924 71.000
0.45 131.294 72.186
0.46 131.617 73.293
0.47 125.748 73.899
0.48 118.737 74.172
0.49 118.654 74.316
0.50 118.567 74.377
0.51 119.099 74.392
0.52 119.524 74.246
0.53 117.118 73.708
0.54 114.902 73.017
0.55 117.928 72.632
0.56 117.897 72.424
0.57 117.350 72.307
0.58 115.956 72.368
0.59 115.173 72.575
0.60 114.626 72.753
0.61 113.960 72.880
0.62 114.810 73.103
0.63 110.597 73.293
0.64 108.414 73.226
0.65 106.008 72.982
0.66 104.396 72.856
0.67 104.314 73.055
0.68 104.265 73.412
0.69 104.210 73.657
0.70 104.372 73.758
0.71 105.210 73.946
0.72 104.620 74.088
0.73 103.404 74.026
0.74 104.303 73.879
0.75 106.015 73.485
0.76 105.383 72.592
0.77 105.141 71.430
0.78 104.613 70.460
0.79 105.105 69.958
0.80 104.478 69.817
0.81 104.543 70.438
0.82 105.499 72.123
0.83 105.145 73.397
0.84 104.936 73.765
0.85 100.694 73.629
0.86 100.319 73.194
0.87 94.800 72.609
0.88 93.229 71.980
0.89 92.131 71.400
0.90 92.037 70.909
0.91 92.014 70.391
0.92 92.116 69.723
0.93 93.157 69.185
0.94 93.565 69.007
0.95 94.218 68.966
0.96 95.220 68.875
0.97 94.622 68.778
0.98 95.948 68.680
0.99 95.813 68.397
1.00 98.311 67.986
1.01 98.051 67.476
1.02 109.055 66.766
1.03 110.967 65.498
1.04 115.305 63.536
1.05 117.598 61.224
1.06 117.638 59.165
1.07 123.175 57.089
1.08 133.112 54.963
1.09 132.421 55.380
1.10 127.422 62.083
1.11 146.099 68.746
1.12 138.481 72.520
1.13 125.384 74.085
1.14 118.354 74.663
1.15 118.008 75.076
1.16 118.919 75.314
1.17 120.253 75.175
1.18 120.313 74.347
1.19 115.885 72.465
1.20 113.751 70.440
1.21 117.207 70.360
1.22 121.140 71.997
1.23 122.756 73.765
1.24 117.763 74.685
1.25 115.671 74.862
1.26 114.304 74.737
1.27 113.805 74.464
1.28 113.364 74.013
1.29 113.284 73.459
1.30 112.342 72.913
1.31 111.479 72.469
1.32 110.512 72.012
1.33 107.829 71.291
1.34 105.262 70.251
1.35 102.801 69.036
1.36 100.810 67.769
1.37 103.621 66.925
1.38 101.680 66.877
1.39 98.065 67.217
1.40 99.362 67.558
1.41 98.741 67.518
1.42 99.102 67.174
1.43 96.551 66.967
1.44 96.162 67.120
1.45 97.581 67.540
1.46 99.556 68.040
1.47 101.890 67.831
1.48 102.398 66.357
1.49 106.416 64.206
1.50 107.345 61.542
1.51 116.479 58.592
1.52 118.701 58.909
1.53 --undefined-- 64.372
1.54 --undefined-- 69.368
1.55 161.513 73.328
1.56 154.578 75.785
1.57 136.125 76.796
1.58 132.513 77.224
1.59 132.797 77.736
1.60 133.349 78.249
1.61 134.065 78.340
1.62 135.280 77.922
1.63 133.242 77.073
1.64 131.645 76.162
1.65 140.046 75.635
1.66 143.550 75.443
1.67 144.935 75.532
1.68 145.026 75.789
1.69 145.198 76.054
1.70 145.372 76.253
1.71 145.082 76.349
1.72 144.613 76.326
1.73 143.728 76.158
1.74 142.589 75.889
1.75 141.572 75.530
1.76 141.397 75.090
1.77 141.380 74.661
1.78 141.668 74.189
1.79 141.029 73.404
1.80 145.120 72.156
1.81 146.402 70.478
1.82 147.028 68.004
1.83 145.653 63.875
1.84 --undefined-- 57.405
1.85 --undefined-- 48.388
1.86 --undefined-- 41.310
1.87 --undefined-- 39.646
1.88 --undefined-- 38.965
1.89 --undefined-- 39.896
1.90 --undefined-- 43.845
1.91 --undefined-- 46.767
1.92 --undefined-- 47.825
1.93 --undefined-- 48.210
1.94 --undefined-- 47.756
1.95 --undefined-- 46.666
1.96 --undefined-- 46.317
1.97 --undefined-- 46.698
1.98 --undefined-- 47.982
1.99 --undefined-- 49.941
2.00 --undefined-- 52.737
2.01 --undefined-- 58.105
2.02 --undefined-- 67.507
2.03 --undefined-- 74.087
2.04 158.773 77.352
2.05 150.396 78.412
2.06 142.695 78.461
2.07 138.442 78.352
2.08 133.437 78.186
2.09 126.769 77.810
2.10 121.615 77.318
2.11 118.076 76.923
2.12 113.525 76.607
2.13 106.547 76.156
2.14 102.418 75.323
2.15 97.607 74.071
2.16 93.847 72.728
2.17 93.634 71.511
2.18 91.338 70.453
2.19 90.788 69.769
2.20 90.846 69.645
2.21 92.274 69.943
2.22 93.888 70.448
2.23 96.615 71.008
2.24 99.309 71.417
2.25 101.603 71.388
2.26 103.867 70.547
2.27 105.087 68.686
2.28 102.618 65.832
2.29 117.776 62.349
2.30 --undefined-- 60.441
2.31 --undefined-- 63.850
2.32 --undefined-- 68.615
2.33 152.620 73.051
2.34 136.624 75.923
2.35 129.186 77.116
2.36 127.926 77.438
2.37 127.959 77.661
2.38 124.533 77.755
2.39 127.892 77.709
2.40 131.444 77.615
2.41 133.726 77.415
2.42 136.063 77.114
2.43 136.797 76.782
2.44 136.771 76.478
2.45 135.566 76.201
2.46 133.935 75.914
2.47 131.773 75.513
2.48 129.361 74.910
2.49 126.571 73.951
2.50 123.573 72.377
2.51 118.640 70.017
2.52 114.254 68.778
2.53 139.403 71.986
2.54 141.826 75.501
2.55 142.803 77.545
2.56 138.818 78.370
2.57 122.644 78.729
2.58 119.824 78.835
2.59 118.310 78.494
2.60 117.755 78.086
2.61 117.665 77.951
2.62 117.797 77.930
2.63 117.329 77.867
2.64 117.227 77.769
2.65 116.640 77.587
2.66 116.142 77.260
2.67 115.706 76.707
2.68 114.293 75.932
2.69 112.330 75.198
2.70 111.773 74.307
2.71 111.275 72.217
2.72 108.174 68.111
2.73 100.369 62.182
2.74 98.899 55.811
2.75 --undefined-- 51.089
2.76 --undefined-- 49.575
2.77 --undefined-- 54.295
2.78 --undefined-- 64.804
2.79 --undefined-- 71.859
2.80 130.996 75.429
2.81 119.801 76.710
2.82 116.679 77.115
2.83 116.641 77.409
2.84 117.825 77.499
2.85 117.256 77.128
2.86 111.819 75.766
2.87 105.999 73.064
2.88 104.057 69.871
2.89 103.825 67.704
2.90 106.989 67.676
2.91 130.973 70.402
2.92 130.282 73.395
2.93 126.868 75.242
2.94 116.219 76.170
2.95 113.153 76.460
2.96 111.416 76.116
2.97 111.862 75.629
2.98 112.461 75.370
2.99 112.516 75.111
3.00 112.469 74.602
3.01 111.619 73.377
3.02 103.500 70.833
3.03 115.433 66.909
3.04 124.375 62.216
3.05 127.956 58.172
3.06 --undefined-- 61.819
3.07 178.615 69.257
3.08 155.813 73.985
3.09 149.502 76.242
3.10 135.102 76.959
3.11 134.012 77.102
3.12 133.707 77.166
3.13 131.849 77.026
3.14 130.849 76.694
3.15 128.965 76.524
3.16 124.754 76.291
3.17 121.190 75.489
3.18 117.286 74.401
3.19 113.606 73.672
3.20 111.311 73.456
3.21 109.934 73.828
3.22 108.484 74.184
3.23 106.852 73.485
3.24 101.472 71.355
3.25 98.138 68.580
3.26 102.931 66.710
3.27 110.902 66.726
3.28 124.940 69.328
3.29 123.356 72.496
3.30 114.378 74.415
3.31 108.752 75.096
3.32 106.551 74.917
3.33 105.329 73.827
3.34 103.763 71.596
3.35 101.271 68.251
3.36 99.559 64.039
3.37 100.514 59.222
3.38 --undefined-- 54.155
3.39 --undefined-- 50.661
3.40 --undefined-- 50.125
3.41 --undefined-- 51.623
3.42 --undefined-- 54.047
3.43 --undefined-- 55.427
3.44 --undefined-- 57.859
3.45 --undefined-- 63.466
3.46 --undefined-- 67.542
3.47 104.086 69.026
3.48 97.742 68.447
3.49 88.148 66.529
3.50 95.960 64.179
3.51 113.076 61.579
3.52 --undefined-- 60.433
3.53 --undefined-- 65.470
3.54 --undefined-- 71.146
3.55 124.208 74.783
3.56 116.412 76.594
3.57 113.848 77.213
3.58 113.306 77.372
3.59 114.821 77.498
3.60 115.268 77.657
3.61 115.335 77.813
3.62 116.623 78.054
3.63 116.802 78.400
3.64 116.520 78.415
3.65 116.151 77.871
3.66 116.347 77.120
3.67 115.355 76.311
3.68 112.088 75.061
3.69 110.007 72.677
3.70 104.974 68.494
3.71 101.713 62.378
3.72 --undefined-- 55.273
3.73 --undefined-- 50.076
3.74 --undefined-- 47.813
3.75 --undefined-- 47.502
3.76 --undefined-- 47.925
3.77 --undefined-- 48.850
3.78 --undefined-- 50.346
3.79 --undefined-- 50.818
3.80 --undefined-- 50.329
3.81 --undefined-- 49.873
3.82 --undefined-- 49.337
3.83 --undefined-- 47.944
3.84 --undefined-- 46.110
3.85 --undefined-- 44.073
3.86 --undefined-- 42.025
3.87 --undefined-- 40.528
3.88 --undefined-- 40.060
3.89 --undefined-- 41.659
3.90 --undefined-- 44.633
3.91 --undefined-- 51.237
3.92 --undefined-- 58.040
3.93 163.336 64.209
3.94 161.987 68.640
3.95 131.046 70.949
3.96 127.889 71.448
3.97 117.622 70.798
3.98 122.989 70.307
3.99 129.602 70.574
4.00 135.085 71.478
4.01 140.589 72.615
4.02 142.113 73.320
4.03 141.344 73.226
4.04 139.035 72.292
4.05 135.025 70.526
4.06 130.053 67.920
4.07 126.283 65.915
4.08 133.682 68.100
4.09 151.781 72.060
4.10 139.505 74.489
4.11 132.627 75.095
4.12 127.878 74.774
4.13 125.560 74.459
4.14 124.276 74.213
4.15 122.491 73.692
4.16 120.480 72.661
4.17 117.375 71.353
4.18 118.340 70.493
4.19 118.174 70.170
4.20 118.134 69.960
4.21 119.905 70.240
4.22 117.698 70.877
4.23 116.486 71.204
4.24 117.514 71.437
4.25 117.684 71.732
4.26 115.052 71.736
4.27 114.918 71.590
4.28 116.287 71.633
4.29 116.528 71.665
4.30 117.325 71.590
4.31 118.339 71.341
4.32 115.784 70.304
4.33 109.746 67.790
4.34 108.327 64.003
4.35 107.744 59.806
4.36 --undefined-- 57.022
4.37 --undefined-- 56.878
4.38 --undefined-- 62.762
4.39 143.415 69.121
4.40 133.273 72.439
4.41 119.948 73.574
4.42 118.412 73.725
4.43 119.191 73.792
4.44 120.084 73.939
4.45 121.278 74.086
4.46 120.616 73.947
4.47 119.012 73.006
4.48 114.829 70.697
4.49 109.462 67.006
4.50 113.836 63.079
4.51 109.157 60.125
4.52 --undefined-- 60.609
4.53 --undefined-- 65.368
4.54 148.171 70.218
4.55 134.932 72.933
4.56 128.939 74.188
4.57 121.385 74.876
4.58 119.910 75.081
4.59 118.841 74.778
4.60 117.208 74.448
4.61 116.846 74.425
4.62 117.063 74.552
4.63 117.898 74.658
4.64 118.226 74.753
4.65 117.987 74.687
4.66 117.722 74.288
4.67 113.925 73.049
4.68 108.386 70.328
4.69 108.961 66.726
4.70 108.972 62.949
4.71 104.979 58.332
4.72 --undefined-- 52.626
4.73 --undefined-- 47.175
4.74 --undefined-- 48.317
4.75 --undefined-- 52.511
4.76 --undefined-- 55.846
4.77 --undefined-- 59.022
4.78 --undefined-- 61.749
4.79 --undefined-- 65.522
4.80 --undefined-- 70.508
4.81 126.548 74.298
4.82 125.012 76.526
4.83 124.260 77.644
4.84 126.197 77.927
4.85 128.825 77.492
4.86 129.792 76.450
4.87 136.147 75.171
4.88 141.744 74.151
4.89 143.087 73.553
4.90 142.646 73.200
4.91 141.446 72.874
4.92 139.002 72.506
4.93 137.198 72.321
4.94 139.601 73.294
4.95 141.973 75.383
4.96 145.238 77.221
4.97 145.443 78.040
4.98 142.680 77.796
4.99 140.439 76.940
5.00 139.447 75.983
5.01 139.390 75.084
5.02 139.701 74.073
5.03 139.442 72.568
5.04 140.197 70.527
5.05 131.198 67.669
5.06 108.575 --undefined--
5.07 --undefined-- --undefined--
5.08 --undefined-- --undefined--
5.09 --undefined-- --undefined--
