Time Pitch Intensity
0.01 --undefined-- --undefined--
0.02 --undefined-- --undefined--
0.03 --undefined-- --undefined--
0.04 --undefined-- --undefined--
0.05 --undefined-- 56.094
0.06 --undefined-- 56.452
0.07 92.442 57.832
0.08 94.409 58.922
0.09 93.208 59.331
0.10 94.052 59.211
0.11 --undefined-- 57.974
0.12 88.078 54.565
0.13 88.195 49.902
0.14 88.046 48.328
0.15 87.940 48.485
0.16 85.937 49.603
0.17 --undefined-- 54.842
0.18 --undefined-- 60.197
0.19 --undefined-- 63.082
0.20 --undefined-- 63.827
0.21 --undefined-- 62.921
0.22 --undefined-- 60.513
0.23 --undefined-- 56.828
0.24 --undefined-- 52.297
0.25 --undefined-- 48.143
0.26 --undefined-- 47.215
0.27 --undefined-- 47.266
0.28 --undefined-- 46.842
0.29 --undefined-- 46.194
0.30 --undefined-- 46.251
0.31 --undefined-- 46.014
0.32 --undefined-- 43.939
0.33 --undefined-- 43.454
0.34 --undefined-- 53.245
0.35 --undefined-- 59.728
0.36 --undefined-- 61.839
0.37 --undefined-- 60.878
0.38 --undefined-- 59.715
0.39 --undefined-- 60.084
0.40 --undefined-- 60.465
0.41 --undefined-- 60.339
0.42 --undefined-- 59.545
0.43 --undefined-- 58.377
0.44 --undefined-- 58.724
0.45 --undefined-- 59.880
0.46 --undefined-- 60.208
0.47 --undefined-- 60.173
0.48 --undefined-- 59.233
0.49 --undefined-- 57.009
0.50 77.080 54.747
0.51 77.082 52.761
0.52 --undefined-- 50.271
0.53 --undefined-- 47.093
0.54 --undefined-- 49.452
0.55 --undefined-- 56.443
0.56 --undefined-- 60.600
0.57 88.430 62.022
0.58 89.454 62.222
0.59 88.877 62.211
0.60 90.247 61.950
0.61 90.812 61.071
0.62 91.678 59.095
0.63 89.236 55.968
0.64 --undefined-- 54.562
0.65 --undefined-- 56.875
0.66 --undefined-- 58.624
0.67 --undefined-- 58.863
0.68 --undefined-- 59.796
0.69 --undefined-- 60.740
0.70 --undefined-- 59.986
0.71 --undefined-- 58.999
0.72 --undefined-- 60.037
0.73 --undefined-- 60.418
0.74 --undefined-- 58.256
0.75 --undefined-- 54.167
0.76 --undefined-- 53.991
0.77 --undefined-- 60.025
0.78 --undefined-- 64.752
0.79 --undefined-- 66.969
0.80 85.226 67.365
0.81 76.581 66.585
0.82 76.212 65.116
0.83 75.526 63.604
0.84 --undefined-- 62.157
0.85 75.612 60.798
0.86 77.215 59.944
0.87 77.570 59.278
0.88 77.753 58.181
0.89 79.720 56.651
0.90 79.843 55.392
0.91 82.821 55.554
0.92 82.364 56.205
0.93 79.772 55.273
0.94 83.507 53.705
0.95 86.199 54.154
0.96 89.552 57.391
0.97 --undefined-- 61.652
0.98 --undefined-- 63.546
0.99 --undefined-- 62.903
1.00 --undefined-- 62.059
1.01 --undefined-- 61.991
1.02 --undefined-- 60.811
1.03 --undefined-- 58.498
1.04 --undefined-- 55.843
1.05 --undefined-- 52.608
1.06 --undefined-- 48.769
1.07 --undefined-- 43.448
1.08 --undefined-- 38.539
1.09 --undefined-- 37.670
1.10 --undefined-- 38.260
1.11 --undefined-- 38.392
1.12 --undefined-- 38.174
1.13 --undefined-- 38.509
1.14 --undefined-- 39.547
1.15 --undefined-- 40.297
1.16 --undefined-- 40.743
1.17 --undefined-- 41.421
1.18 --undefined-- 42.020
1.19 --undefined-- 42.286
1.20 --undefined-- 42.553
1.21 --undefined-- 43.190
1.22 --undefined-- 43.439
1.23 --undefined-- 43.178
1.24 --undefined-- 42.813
1.25 --undefined-- 42.348
1.26 --undefined-- 41.850
1.27 --undefined-- 41.108
1.28 --undefined-- 40.386
1.29 --undefined-- 41.031
1.30 --undefined-- 48.882
1.31 --undefined-- 55.321
1.32 --undefined-- 57.056
1.33 --undefined-- 54.185
1.34 --undefined-- 46.441
1.35 --undefined-- 37.321
1.36 --undefined-- 34.918
1.37 --undefined-- 34.154
1.38 --undefined-- 34.978
1.39 --undefined-- 46.444
1.40 --undefined-- 56.295
1.41 --undefined-- 60.762
1.42 --undefined-- 60.530
1.43 --undefined-- 58.135
1.44 --undefined-- 63.543
1.45 --undefined-- 67.997
1.46 108.485 69.256
1.47 109.565 67.894
1.48 109.064 64.055
1.49 116.097 59.361
1.50 118.543 58.341
1.51 121.066 58.205
1.52 124.068 57.396
1.53 127.310 56.540
1.54 127.370 56.324
1.55 125.921 57.501
1.56 --undefined-- 59.945
1.57 --undefined-- 60.244
1.58 --undefined-- 57.481
1.59 --undefined-- 56.447
1.60 --undefined-- 59.501
1.61 99.375 61.135
1.62 94.817 61.057
1.63 89.424 60.985
1.64 88.979 61.917
1.65 89.153 62.919
1.66 89.492 63.755
1.67 89.798 64.721
1.68 90.581 66.057
1.69 92.379 67.208
1.70 94.468 67.919
1.71 96.488 68.564
1.72 98.022 69.543
1.73 100.108 70.337
1.74 100.711 70.024
1.75 99.502 67.856
1.76 --undefined-- 63.264
1.77 --undefined-- 55.736
1.78 --undefined-- 50.937
1.79 --undefined-- 57.285
1.80 --undefined-- 61.464
1.81 --undefined-- 65.002
1.82 --undefined-- 67.732
1.83 92.142 68.578
1.84 88.666 68.160
1.85 84.780 67.063
1.86 84.422 65.131
1.87 84.951 62.658
1.88 85.225 60.464
1.89 85.463 59.656
1.90 84.303 59.706
1.91 84.144 59.399
1.92 84.255 59.136
1.93 87.176 58.946
1.94 86.861 57.998
1.95 82.616 55.959
1.96 84.476 55.285
1.97 90.622 58.501
1.98 91.553 62.349
1.99 101.816 66.203
2.00 101.482 68.801
2.01 106.306 70.067
2.02 108.242 70.707
2.03 111.263 70.837
2.04 111.535 70.416
2.05 111.306 69.855
2.06 109.761 69.582
2.07 104.371 69.203
2.08 100.671 68.235
2.09 96.729 66.664
2.10 91.485 64.390
2.11 88.854 61.519
2.12 87.790 58.260
2.13 --undefined-- 53.884
2.14 --undefined-- 47.855
2.15 --undefined-- 42.055
2.16 --undefined-- 44.892
2.17 --undefined-- 52.227
2.18 --undefined-- 55.883
2.19 --undefined-- 56.173
2.20 --undefined-- 56.657
2.21 --undefined-- 62.114
2.22 --undefined-- 66.542
2.23 83.761 68.248
2.24 86.518 68.002
2.25 86.072 66.725
2.26 84.040 64.873
2.27 80.431 62.645
2.28 79.942 60.554
2.29 79.028 58.920
2.30 79.663 57.930
2.31 78.427 57.887
2.32 77.129 58.463
2.33 78.160 58.506
2.34 78.414 57.802
2.35 78.031 56.735
2.36 77.591 55.359
2.37 76.581 53.604
2.38 75.548 51.550
2.39 76.904 49.807
2.40 78.470 49.088
2.41 79.274 49.244
2.42 79.029 49.317
2.43 --undefined-- 49.886
2.44 --undefined-- 50.320
2.45 --undefined-- 48.970
2.46 --undefined-- 47.201
2.47 --undefined-- 47.276
2.48 --undefined-- 47.594
2.49 --undefined-- 46.796
2.50 --undefined-- 45.519
2.51 --undefined-- 44.713
2.52 --undefined-- 43.669
2.53 --undefined-- 42.453
2.54 --undefined-- 42.177
2.55 --undefined-- 41.908
2.56 --undefined-- 41.352
2.57 --undefined-- 41.468
2.58 --undefined-- 42.230
2.59 --undefined-- 42.998
2.60 --undefined-- 43.494
2.61 --undefined-- 45.413
2.62 --undefined-- 48.479
2.63 --undefined-- 51.021
2.64 --undefined-- 53.090
2.65 --undefined-- 55.851
2.66 --undefined-- 59.891
2.67 --undefined-- 63.252
2.68 --undefined-- 64.887
2.69 88.125 64.833
2.70 84.838 63.656
2.71 84.268 62.402
2.72 82.444 61.556
2.73 81.635 60.719
2.74 80.328 60.459
2.75 79.328 60.196
2.76 82.266 59.355
2.77 78.560 58.956
2.78 79.733 59.348
2.79 --undefined-- 59.800
2.80 --undefined-- 60.446
2.81 --undefined-- 60.822
2.82 --undefined-- 61.689
2.83 --undefined-- 62.199
2.84 --undefined-- 59.903
2.85 --undefined-- 54.004
2.86 --undefined-- 45.445
2.87 --undefined-- 39.270
2.88 --undefined-- 37.195
2.89 --undefined-- 37.541
2.90 --undefined-- 49.144
2.91 --undefined-- 56.917
2.92 --undefined-- 60.556
2.93 --undefined-- 62.796
2.94 --undefined-- 64.866
2.95 97.267 65.525
2.96 99.755 65.191
2.97 100.893 64.879
2.98 102.539 63.768
2.99 --undefined-- 60.723
3.00 --undefined-- 55.838
3.01 --undefined-- 51.310
3.02 --undefined-- 49.199
3.03 --undefined-- 51.375
3.04 --undefined-- 59.034
3.05 --undefined-- 64.749
3.06 --undefined-- 67.223
3.07 --undefined-- 66.879
3.08 86.321 65.105
3.09 84.531 63.894
3.10 83.659 63.148
3.11 83.007 62.820
3.12 81.840 62.952
3.13 79.914 62.948
3.14 81.553 62.635
3.15 81.690 61.983
3.16 81.791 61.270
3.17 80.392 61.198
3.18 80.784 61.315
3.19 80.180 60.935
3.20 78.947 60.386
3.21 78.425 60.150
3.22 77.503 59.914
3.23 75.526 59.280
3.24 86.714 57.700
3.25 86.394 55.219
3.26 74.433 53.569
3.27 74.995 53.035
3.28 77.038 52.322
3.29 --undefined-- 51.236
3.30 --undefined-- 48.928
3.31 --undefined-- 45.343
3.32 --undefined-- 43.112
3.33 --undefined-- 42.071
3.34 --undefined-- 40.146
3.35 --undefined-- 37.239
3.36 --undefined-- 35.167
3.37 --undefined-- 34.906
3.38 --undefined-- 34.876
3.39 --undefined-- 34.769
3.40 --undefined-- 34.551
3.41 --undefined-- 33.234
3.42 --undefined-- 31.647
3.43 --undefined-- 31.633
3.44 --undefined-- 31.909
3.45 --undefined-- 31.828
3.46 --undefined-- 32.718
3.47 --undefined-- 33.802
3.48 --undefined-- 33.438
3.49 --undefined-- 33.498
3.50 --undefined-- 38.492
3.51 --undefined-- 50.166
3.52 --undefined-- 57.613
3.53 --undefined-- 60.338
3.54 --undefined-- 59.621
3.55 --undefined-- 58.700
3.56 93.889 59.237
3.57 93.952 59.458
3.58 92.029 58.723
3.59 89.153 56.737
3.60 87.053 53.864
3.61 86.943 51.380
3.62 85.788 49.545
3.63 84.927 48.282
3.64 84.325 48.715
3.65 84.651 51.365
3.66 --undefined-- 56.016
3.67 --undefined-- 59.526
3.68 87.870 61.914
3.69 91.229 63.620
3.70 92.172 64.020
3.71 94.821 63.197
3.72 95.122 61.479
3.73 94.909 59.652
3.74 95.578 60.640
3.75 98.750 63.778
3.76 96.022 66.211
3.77 95.601 66.798
3.78 92.422 65.507
3.79 92.220 64.354
3.80 92.923 65.282
3.81 93.320 66.772
3.82 93.993 66.772
3.83 95.920 64.720
3.84 95.920 60.806
3.85 --undefined-- 55.245
3.86 --undefined-- 48.790
3.87 --undefined-- 46.592
3.88 --undefined-- 46.874
3.89 --undefined-- 49.878
3.90 --undefined-- 57.124
3.91 --undefined-- 62.948
3.92 101.557 66.100
3.93 100.302 67.037
3.94 98.163 66.630
3.95 95.753 65.621
3.96 --undefined-- 63.299
3.97 --undefined-- 58.749
3.98 --undefined-- 53.848
3.99 --undefined-- 53.251
4.00 --undefined-- 54.639
4.01 --undefined-- 57.450
4.02 93.211 61.424
4.03 91.251 64.567
4.04 89.851 66.187
4.05 89.445 66.596
4.06 88.819 66.164
4.07 88.823 65.324
4.08 89.609 64.300
4.09 88.144 62.748
4.10 94.253 61.642
4.11 97.948 61.505
4.12 99.592 60.812
4.13 103.248 60.027
4.14 106.395 60.761
4.15 106.147 62.477
4.16 105.392 64.859
4.17 100.009 67.261
4.18 96.818 68.395
4.19 92.748 67.783
4.20 89.682 66.396
4.21 88.684 65.037
4.22 --undefined-- 62.527
4.23 --undefined-- 57.773
4.24 --undefined-- 50.577
4.25 --undefined-- 46.335
4.26 --undefined-- 53.025
4.27 --undefined-- 56.422
4.28 --undefined-- 55.743
4.29 --undefined-- 54.257
4.30 --undefined-- 60.877
4.31 --undefined-- 68.076
4.32 108.388 72.257
4.33 104.670 74.094
4.34 102.486 74.420
4.35 101.726 73.710
4.36 100.587 71.862
4.37 98.263 69.070
4.38 99.031 66.629
4.39 98.976 65.455
4.40 99.740 64.646
4.41 100.745 62.834
4.42 101.006 59.474
4.43 102.219 54.418
4.44 103.688 50.314
4.45 102.951 50.130
4.46 98.840 50.445
4.47 --undefined-- 50.620
4.48 --undefined-- 52.627
4.49 --undefined-- 55.221
4.50 --undefined-- 57.208
4.51 93.615 58.821
4.52 90.471 59.745
4.53 87.936 59.857
4.54 82.736 59.468
4.55 78.877 58.707
4.56 78.127 57.264
4.57 --undefined-- 55.105
4.58 --undefined-- 53.781
4.59 --undefined-- 55.760
4.60 76.533 58.454
4.61 75.292 59.971
4.62 --undefined-- 60.163
4.63 --undefined-- 59.095
4.64 --undefined-- 56.981
4.65 --undefined-- 53.977
4.66 --undefined-- 51.512
4.67 --undefined-- 53.478
4.68 --undefined-- 56.154
4.69 --undefined-- 56.899
4.70 --undefined-- 56.777
4.71 --undefined-- 56.742
4.72 --undefined-- 55.971
4.73 --undefined-- 54.747
4.74 --undefined-- 56.202
4.75 --undefined-- 59.781
4.76 --undefined-- 61.612
4.77 --undefined-- 60.574
4.78 --undefined-- 58.927
4.79 --undefined-- 58.092
4.80 --undefined-- 55.826
4.81 --undefined-- 53.639
4.82 --undefined-- 52.255
4.83 --undefined-- 50.623
4.84 --undefined-- 50.062
4.85 --undefined-- 52.004
4.86 --undefined-- 53.825
4.87 --undefined-- 56.431
4.88 --undefined-- 59.104
4.89 --undefined-- 60.140
4.90 77.317 60.267
4.91 78.277 60.409
4.92 76.961 59.684
4.93 75.789 58.237
4.94 78.866 58.002
4.95 80.052 58.770
4.96 76.379 58.858
4.97 77.701 58.330
4.98 77.431 57.290
4.99 --undefined-- 56.397
5.00 --undefined-- 55.089
5.01 --undefined-- 51.227
5.02 --undefined-- 44.585
5.03 --undefined-- 48.316
5.04 --undefined-- 54.373
5.05 --undefined-- 57.210
5.06 --undefined-- 57.444
5.07 --undefined-- 56.710
5.08 --undefined-- 60.242
5.09 --undefined-- 63.764
5.10 --undefined-- 64.770
5.11 --undefined-- 64.095
5.12 --undefined-- 62.621
5.13 --undefined-- 61.168
5.14 --undefined-- 59.208
5.15 --undefined-- 55.818
5.16 --undefined-- 53.725
5.17 --undefined-- 54.519
5.18 --undefined-- 55.446
5.19 76.381 55.539
5.20 76.335 56.139
5.21 --undefined-- 56.615
5.22 --undefined-- 56.051
5.23 --undefined-- 54.975
5.24 --undefined-- 53.689
5.25 --undefined-- 52.317
5.26 --undefined-- 50.575
5.27 --undefined-- 48.888
5.28 --undefined-- 48.813
5.29 --undefined-- 48.996
5.30 --undefined-- 47.281
5.31 --undefined-- 45.040
5.32 --undefined-- 44.392
5.33 --undefined-- 45.489
5.34 --undefined-- 47.184
5.35 --undefined-- 48.352
5.36 --undefined-- 49.058
5.37 --undefined-- 50.286
5.38 --undefined-- 52.898
5.39 --undefined-- 54.712
5.40 --undefined-- 56.628
5.41 --undefined-- 59.039
5.42 75.020 --undefined--
5.43 75.011 --undefined--
5.44 --undefined-- --undefined--
5.45 --undefined-- --undefined--
