Time Pitch Intensity
0.01 --undefined-- --undefined--
0.02 126.145 --undefined--
0.03 126.194 --undefined--
0.04 126.524 --undefined--
0.05 126.113 76.623
0.06 123.481 75.237
0.07 120.544 72.222
0.08 122.173 68.014
0.09 124.364 64.037
0.10 124.452 59.899
0.11 --undefined-- 59.338
0.12 --undefined-- 64.610
0.13 --undefined-- 70.611
0.14 --undefined-- 74.252
0.15 120.991 75.505
0.16 116.315 75.126
0.17 110.614 74.291
0.18 106.029 73.776
0.19 102.368 72.593
0.20 97.143 70.057
0.21 104.970 68.010
0.22 107.154 67.905
0.23 110.250 68.576
0.24 113.334 69.388
0.25 116.068 69.728
0.26 122.485 69.824
0.27 138.196 71.180
0.28 138.872 72.991
0.29 140.577 73.978
0.30 146.051 74.444
0.31 149.597 74.951
0.32 152.105 75.760
0.33 153.527 76.584
0.34 154.113 77.138
0.35 150.317 77.216
0.36 146.630 76.549
0.37 143.172 74.963
0.38 141.120 72.716
0.39 134.880 71.743
0.40 135.499 73.597
0.41 131.652 75.402
0.42 126.268 75.910
0.43 122.379 75.318
0.44 115.726 74.251
0.45 114.653 73.692
0.46 114.884 73.559
0.47 118.477 73.562
0.48 122.154 73.712
0.49 124.657 73.668
0.50 128.206 72.768
0.51 129.401 70.690
0.52 133.669 67.787
0.53 151.663 64.289
0.54 159.332 59.786
0.55 133.217 56.790
0.56 124.865 57.576
0.57 166.846 62.550
0.58 182.407 68.311
0.59 182.543 71.490
0.60 181.664 72.531
0.61 182.474 72.908
0.62 179.971 73.260
0.63 180.808 72.917
0.64 179.851 72.089
0.65 179.397 71.839
0.66 178.737 72.135
0.67 176.620 72.410
0.68 176.345 72.733
0.69 176.592 72.795
0.70 171.770 72.352
0.71 174.163 72.249
0.72 176.499 72.704
0.73 178.297 73.185
0.74 179.913 73.354
0.75 179.800 72.967
0.76 176.700 71.944
0.77 169.845 70.651
0.78 165.417 69.965
0.79 166.213 69.857
0.80 167.134 69.450
0.81 168.944 68.844
0.82 174.309 68.886
0.83 179.935 69.810
0.84 185.671 70.764
0.85 195.601 71.482
0.86 202.427 72.999
0.87 204.081 74.954
0.88 207.609 76.415
0.89 210.240 77.596
0.90 210.121 78.537
0.91 207.556 79.139
0.92 204.628 79.501
0.93 201.680 79.688
0.94 197.232 79.854
0.95 193.239 80.227
0.96 188.697 80.603
0.97 182.906 80.375
0.98 173.022 79.151
0.99 160.795 77.168
1.00 155.094 75.406
1.01 148.115 74.348
1.02 140.464 73.883
1.03 138.164 73.969
1.04 133.648 74.299
1.05 128.218 75.175
1.06 122.910 76.026
1.07 117.324 76.161
1.08 112.130 75.770
1.09 108.455 75.140
1.10 104.961 74.374
1.11 100.759 73.486
1.12 96.971 72.577
1.13 93.589 71.813
1.14 92.276 71.003
1.15 90.777 70.077
1.16 90.628 69.537
1.17 92.269 69.468
1.18 93.956 69.608
1.19 94.592 69.391
1.20 95.086 68.476
1.21 105.173 66.766
1.22 98.673 64.424
1.23 98.715 62.688
1.24 --undefined-- 62.846
1.25 --undefined-- 64.577
1.26 --undefined-- 65.779
1.27 --undefined-- 66.062
1.28 --undefined-- 68.419
1.29 --undefined-- 72.785
1.30 124.794 75.543
1.31 120.015 76.136
1.32 113.827 75.615
1.33 110.078 75.299
1.34 108.410 75.103
1.35 105.524 74.815
1.36 104.391 74.340
1.37 101.985 73.108
1.38 94.790 70.607
1.39 98.209 67.711
1.40 100.391 66.141
1.41 101.511 66.231
1.42 107.749 68.222
1.43 110.273 70.835
1.44 109.113 72.687
1.45 107.323 73.456
1.46 106.693 73.516
1.47 106.616 73.220
1.48 105.350 72.602
1.49 104.602 71.732
1.50 104.870 70.984
1.51 105.623 70.613
1.52 106.167 70.290
1.53 105.748 69.483
1.54 104.176 67.841
1.55 102.457 65.672
1.56 103.418 65.457
1.57 116.932 69.206
1.58 122.669 72.935
1.59 121.713 75.020
1.60 119.935 75.600
1.61 117.274 75.497
1.62 116.420 75.364
1.63 114.983 75.057
1.64 114.042 73.704
1.65 106.688 70.352
1.66 103.864 65.486
1.67 113.514 61.478
1.68 113.432 57.995
1.69 112.665 53.605
1.70 --undefined-- 49.040
1.71 --undefined-- 46.202
1.72 --undefined-- 51.268
1.73 --undefined-- 60.389
1.74 --undefined-- 67.617
1.75 132.794 72.179
1.76 120.864 73.978
1.77 112.478 73.918
1.78 111.433 73.361
1.79 109.596 72.982
1.80 106.445 72.947
1.81 106.920 73.311
1.82 106.628 73.727
1.83 107.422 74.096
1.84 108.281 74.447
1.85 108.949 74.712
1.86 113.043 74.828
1.87 114.414 74.705
1.88 114.795 74.392
1.89 113.865 74.148
1.90 113.046 74.036
1.91 112.460 73.816
1.92 112.452 73.474
1.93 112.185 73.172
1.94 110.922 72.712
1.95 107.857 71.782
1.96 106.128 71.070
1.97 107.158 71.899
1.98 109.467 73.934
1.99 110.701 75.785
2.00 111.909 76.693
2.01 109.011 76.417
2.02 105.138 75.525
2.03 97.146 74.914
2.04 91.811 74.662
2.05 90.364 73.788
2.06 85.624 72.095
2.07 --undefined-- 70.301
2.08 --undefined-- 67.898
2.09 --undefined-- 63.881
2.10 --undefined-- 57.941
2.11 --undefined-- 53.501
2.12 --undefined-- 55.289
2.13 --undefined-- 59.568
2.14 --undefined-- 62.213
2.15 --undefined-- 65.640
2.16 99.841 69.275
2.17 108.768 71.683
2.18 109.837 72.929
2.19 109.958 73.220
2.20 103.643 72.945
2.21 101.803 72.670
2.22 95.268 72.436
2.23 93.611 71.861
2.24 90.182 70.909
2.25 88.232 70.281
2.26 86.963 70.549
2.27 86.663 70.520
2.28 --undefined-- 68.734
2.29 --undefined-- 65.290
2.30 --undefined-- 61.453
2.31 --undefined-- 57.097
2.32 --undefined-- 51.467
2.33 --undefined-- 47.872
2.34 --undefined-- 47.010
2.35 --undefined-- 46.039
2.36 --undefined-- 47.561
2.37 --undefined-- 56.228
2.38 --undefined-- 63.016
2.39 125.121 66.793
2.40 128.955 68.839
2.41 137.673 70.474
2.42 143.682 72.133
2.43 146.109 73.511
2.44 147.222 74.508
2.45 147.290 75.218
2.46 146.191 75.626
2.47 144.024 75.518
2.48 140.293 74.538
2.49 133.139 72.662
2.50 128.089 71.069
2.51 127.446 70.822
2.52 123.874 71.417
2.53 118.983 72.516
2.54 115.230 73.883
2.55 111.994 75.018
2.56 108.390 75.541
2.57 106.151 75.414
2.58 99.918 74.597
2.59 95.971 73.583
2.60 99.656 73.565
2.61 100.906 74.171
2.62 102.702 74.361
2.63 108.176 74.235
2.64 112.353 74.009
2.65 113.643 73.700
2.66 118.250 73.456
2.67 122.706 73.093
2.68 126.217 72.476
2.69 130.983 72.500
2.70 143.222 73.468
2.71 146.232 74.398
2.72 150.654 75.247
2.73 152.910 76.069
2.74 154.122 76.655
2.75 154.783 77.109
2.76 158.460 77.628
2.77 151.895 77.646
2.78 147.257 76.586
2.79 142.731 74.817
2.80 131.250 72.864
2.81 125.629 71.096
2.82 119.751 69.693
2.83 116.430 68.590
2.84 114.622 68.520
2.85 111.882 68.800
2.86 111.870 69.325
2.87 114.434 70.660
2.88 114.405 72.046
2.89 116.861 73.078
2.90 119.755 74.007
2.91 120.255 74.867
2.92 122.085 75.527
2.93 125.420 75.883
2.94 125.844 75.919
2.95 126.319 75.117
2.96 126.373 72.448
2.97 125.061 67.925
2.98 125.290 63.726
2.99 128.737 60.015
3.00 126.977 55.501
3.01 --undefined-- 51.878
3.02 --undefined-- 49.675
3.03 --undefined-- 52.602
3.04 --undefined-- 60.851
3.05 --undefined-- 66.818
3.06 117.752 70.392
3.07 116.968 72.476
3.08 116.386 73.741
3.09 117.023 74.605
3.10 118.317 75.151
3.11 120.140 75.181
3.12 122.815 74.496
3.13 124.883 73.007
3.14 124.304 71.468
3.15 136.460 71.474
3.16 140.780 72.249
3.17 144.854 72.846
3.18 148.209 73.443
3.19 149.194 74.464
3.20 156.089 75.828
3.21 157.630 76.724
3.22 150.053 76.792
3.23 148.340 76.540
3.24 147.680 76.280
3.25 147.896 76.103
3.26 148.170 76.099
3.27 148.959 76.216
3.28 150.889 76.575
3.29 152.137 77.055
3.30 153.401 77.390
3.31 155.690 77.672
3.32 158.227 77.993
3.33 159.600 78.116
3.34 159.103 77.633
3.35 157.392 76.347
3.36 156.107 74.198
3.37 151.936 71.388
3.38 155.855 68.992
3.39 155.885 66.895
3.40 157.583 64.165
3.41 158.129 61.444
3.42 157.360 63.443
3.43 --undefined-- 69.637
3.44 --undefined-- 73.197
3.45 154.766 74.126
3.46 149.827 73.929
3.47 148.205 73.850
3.48 148.002 73.808
3.49 149.839 73.824
3.50 152.055 74.072
3.51 154.438 74.316
3.52 154.321 74.357
3.53 155.624 74.519
3.54 160.593 74.854
3.55 161.076 74.535
3.56 156.961 72.788
3.57 150.163 69.374
3.58 148.804 65.243
3.59 157.113 62.762
3.60 158.580 62.048
3.61 158.994 60.980
3.62 163.595 58.624
3.63 164.461 55.453
3.64 --undefined-- 52.223
3.65 --undefined-- 49.889
3.66 --undefined-- 53.842
3.67 --undefined-- 64.076
3.68 166.226 71.005
3.69 167.510 74.810
3.70 165.979 76.774
3.71 164.421 77.954
3.72 163.508 78.861
3.73 163.099 79.596
3.74 162.563 80.077
3.75 162.323 80.209
3.76 162.346 80.043
3.77 162.391 79.790
3.78 161.983 79.534
3.79 160.817 79.147
3.80 158.812 78.483
3.81 154.218 77.446
3.82 148.825 75.756
3.83 151.448 73.470
3.84 152.827 71.562
3.85 150.335 69.703
3.86 149.622 66.491
3.87 151.512 62.714
3.88 139.084 62.562
3.89 127.660 63.627
3.90 118.119 64.664
3.91 113.880 66.191
3.92 109.989 67.773
3.93 107.757 68.998
3.94 105.286 69.578
3.95 104.512 69.338
3.96 101.023 68.497
3.97 97.813 67.692
3.98 95.691 67.034
3.99 95.187 66.378
4.00 93.777 65.487
4.01 92.319 64.331
4.02 92.766 63.613
4.03 94.786 63.747
4.04 96.005 64.261
4.05 96.725 64.773
4.06 98.132 65.216
4.07 98.736 65.598
4.08 100.075 65.799
4.09 102.185 65.895
4.10 104.370 65.959
4.11 105.614 65.988
4.12 105.887 65.842
4.13 104.640 65.163
4.14 103.412 63.787
4.15 105.123 62.304
4.16 108.357 60.888
4.17 107.008 58.788
4.18 105.642 55.707
4.19 --undefined-- 53.611
4.20 --undefined-- 57.674
4.21 --undefined-- 64.493
4.22 --undefined-- 70.892
4.23 --undefined-- 74.583
4.24 143.249 75.635
4.25 134.962 75.277
4.26 132.648 74.824
4.27 130.396 74.360
4.28 128.892 73.566
4.29 127.190 72.656
4.30 128.334 72.300
4.31 130.457 72.765
4.32 131.564 73.558
4.33 131.536 74.436
4.34 130.431 75.034
4.35 128.122 75.203
4.36 126.866 75.028
4.37 123.815 74.575
4.38 119.213 74.271
4.39 122.229 73.979
4.40 123.280 73.552
4.41 124.028 73.428
4.42 123.597 73.383
4.43 122.402 72.414
4.44 118.052 69.525
4.45 100.715 64.652
4.46 93.152 63.023
4.47 109.454 67.976
4.48 120.539 71.612
4.49 113.792 72.948
4.50 109.285 72.903
4.51 109.682 72.568
4.52 109.099 71.944
4.53 101.593 70.842
4.54 102.380 69.859
4.55 99.640 69.191
4.56 96.343 68.741
4.57 96.026 68.777
4.58 95.671 69.002
4.59 93.982 68.867
4.60 93.125 68.218
4.61 92.340 67.687
4.62 93.159 67.889
4.63 94.013 68.454
4.64 98.591 69.106
4.65 99.290 69.642
4.66 102.068 69.933
4.67 104.554 70.124
4.68 109.772 70.126
4.69 111.625 69.300
4.70 112.901 67.499
4.71 120.614 65.563
4.72 131.317 64.707
4.73 133.629 65.219
4.74 135.991 65.775
4.75 140.305 65.714
4.76 147.240 65.879
4.77 154.593 67.506
4.78 158.105 70.122
4.79 162.153 72.264
4.80 169.152 73.453
4.81 174.909 74.086
4.82 179.139 75.005
4.83 180.860 76.389
4.84 181.367 77.362
4.85 176.272 77.681
4.86 165.254 77.973
4.87 162.962 78.031
4.88 152.240 77.358
4.89 141.570 76.383
4.90 135.702 75.364
4.91 127.381 73.987
4.92 118.726 72.670
4.93 112.924 71.120
4.94 104.663 68.067
4.95 99.984 63.798
4.96 109.918 61.363
4.97 113.556 60.462
4.98 116.319 58.421
4.99 118.688 54.494
5.00 --undefined-- 49.422
5.01 --undefined-- 47.620
5.02 --undefined-- --undefined--
5.03 --undefined-- --undefined--
5.04 --undefined-- --undefined--
5.05 --undefined-- --undefined--
