Time Pitch Intensity
0.01 --undefined-- --undefined--
0.02 154.757 --undefined--
0.03 155.305 --undefined--
0.04 155.566 --undefined--
0.05 152.229 68.919
0.06 142.370 66.613
0.07 --undefined-- 62.188
0.08 --undefined-- 56.141
0.09 193.305 54.976
0.10 197.961 56.062
0.11 --undefined-- 53.784
0.12 --undefined-- 48.900
0.13 --undefined-- 47.139
0.14 --undefined-- 49.491
0.15 --undefined-- 53.979
0.16 --undefined-- 58.203
0.17 --undefined-- 61.032
0.18 --undefined-- 62.774
0.19 --undefined-- 64.432
0.20 150.186 65.522
0.21 151.210 65.476
0.22 149.037 64.983
0.23 148.709 65.968
0.24 159.470 69.731
0.25 165.288 73.309
0.26 164.007 75.559
0.27 160.912 76.534
0.28 157.990 76.188
0.29 153.350 74.633
0.30 145.689 73.266
0.31 142.242 73.103
0.32 138.614 72.418
0.33 137.020 70.554
0.34 135.475 68.393
0.35 133.047 66.388
0.36 131.521 64.381
0.37 131.962 63.170
0.38 131.287 62.941
0.39 129.461 62.773
0.40 127.998 62.545
0.41 126.986 62.328
0.42 127.521 62.130
0.43 128.280 62.066
0.44 128.550 62.046
0.45 127.232 61.901
0.46 127.186 61.680
0.47 127.835 61.564
0.48 127.918 61.591
0.49 126.330 61.447
0.50 125.626 60.883
0.51 125.888 59.944
0.52 128.545 58.780
0.53 128.177 57.295
0.54 --undefined-- 56.841
0.55 --undefined-- 61.188
0.56 144.106 66.579
0.57 142.619 70.211
0.58 135.201 72.582
0.59 134.637 74.332
0.60 134.844 75.311
0.61 134.805 75.472
0.62 135.384 75.226
0.63 137.454 74.933
0.64 139.617 74.672
0.65 140.729 74.115
0.66 142.190 72.866
0.67 144.338 71.046
0.68 143.543 68.627
0.69 139.235 64.432
0.70 150.455 57.947
0.71 153.622 52.288
0.72 --undefined-- 48.781
0.73 --undefined-- 48.505
0.74 --undefined-- 54.763
0.75 --undefined-- 62.050
0.76 --undefined-- 67.540
0.77 163.718 70.587
0.78 160.079 72.047
0.79 160.069 72.860
0.80 159.896 73.371
0.81 159.128 73.606
0.82 158.061 73.766
0.83 157.136 74.173
0.84 156.207 74.944
0.85 155.413 75.911
0.86 155.369 76.466
0.87 152.201 76.211
0.88 141.118 76.041
0.89 140.000 75.862
0.90 133.587 74.483
0.91 130.201 72.214
0.92 129.887 68.927
0.93 --undefined-- 63.705
0.94 --undefined-- 57.643
0.95 --undefined-- 53.044
0.96 --undefined-- 47.733
0.97 --undefined-- 41.934
0.98 --undefined-- 38.576
0.99 --undefined-- 36.219
1.00 --undefined-- 34.852
1.01 --undefined-- 34.857
1.02 --undefined-- 34.487
1.03 --undefined-- 34.098
1.04 --undefined-- 33.464
1.05 --undefined-- 32.717
1.06 --undefined-- 32.104
1.07 --undefined-- 32.094
1.08 --undefined-- 33.597
1.09 --undefined-- 35.582
1.10 --undefined-- 36.672
1.11 --undefined-- 37.324
1.12 --undefined-- 38.242
1.13 --undefined-- 38.522
1.14 --undefined-- 37.693
1.15 --undefined-- 37.304
1.16 --undefined-- 38.594
1.17 --undefined-- 39.535
1.18 --undefined-- 39.147
1.19 --undefined-- 38.248
1.20 --undefined-- 38.036
1.21 --undefined-- 38.313
1.22 --undefined-- 38.569
1.23 --undefined-- 38.205
1.24 --undefined-- 37.239
1.25 --undefined-- 36.918
1.26 --undefined-- 37.122
1.27 --undefined-- 37.103
1.28 --undefined-- 37.287
1.29 --undefined-- 37.805
1.30 --undefined-- 37.749
1.31 --undefined-- 36.846
1.32 --undefined-- 36.805
1.33 --undefined-- 37.967
1.34 --undefined-- 37.833
1.35 --undefined-- 36.641
1.36 --undefined-- 36.773
1.37 --undefined-- 37.142
1.38 --undefined-- 36.367
1.39 --undefined-- 36.398
1.40 --undefined-- 36.541
1.41 --undefined-- 35.413
1.42 --undefined-- 34.806
1.43 --undefined-- 35.144
1.44 --undefined-- 35.012
1.45 --undefined-- 34.398
1.46 --undefined-- 37.099
1.47 --undefined-- 48.606
1.48 --undefined-- 56.445
1.49 --undefined-- 60.279
1.50 163.085 63.347
1.51 159.247 67.854
1.52 157.782 71.453
1.53 159.284 73.797
1.54 163.068 75.254
1.55 165.163 75.786
1.56 166.538 75.493
1.57 166.492 74.839
1.58 166.020 74.316
1.59 165.446 74.119
1.60 166.554 74.066
1.61 168.855 73.785
1.62 169.938 73.338
1.63 172.016 73.041
1.64 182.385 73.503
1.65 189.474 74.958
1.66 200.597 76.603
1.67 214.911 77.834
1.68 223.634 78.327
1.69 232.479 78.150
1.70 239.247 77.798
1.71 245.506 77.540
1.72 254.417 77.379
1.73 260.500 77.156
1.74 264.371 76.336
1.75 269.088 74.064
1.76 275.353 69.947
1.77 269.132 65.933
1.78 260.118 65.805
1.79 252.126 66.841
1.80 241.433 67.466
1.81 221.499 67.899
1.82 200.872 68.298
1.83 184.489 70.058
1.84 --undefined-- 72.615
1.85 --undefined-- 74.139
1.86 --undefined-- 74.457
1.87 --undefined-- 74.154
1.88 --undefined-- 73.443
1.89 --undefined-- 71.537
1.90 125.099 68.730
1.91 125.814 66.739
1.92 --undefined-- 66.269
1.93 --undefined-- 67.782
1.94 --undefined-- 69.337
1.95 --undefined-- 70.629
1.96 --undefined-- 71.539
1.97 --undefined-- 71.338
1.98 --undefined-- 70.182
1.99 --undefined-- 67.589
2.00 --undefined-- 63.359
2.01 --undefined-- 58.831
2.02 --undefined-- 53.694
2.03 --undefined-- 47.057
2.04 --undefined-- 41.167
2.05 --undefined-- 39.173
2.06 --undefined-- 42.267
2.07 --undefined-- 46.572
2.08 --undefined-- 49.888
2.09 --undefined-- 52.104
2.10 --undefined-- 53.449
2.11 --undefined-- 54.591
2.12 --undefined-- 55.335
2.13 --undefined-- 55.503
2.14 --undefined-- 56.351
2.15 --undefined-- 57.534
2.16 --undefined-- 57.875
2.17 --undefined-- 61.664
2.18 --undefined-- 67.614
2.19 164.545 71.329
2.20 165.355 72.856
2.21 172.314 72.758
2.22 180.813 72.105
2.23 186.921 72.381
2.24 190.576 72.939
2.25 193.514 72.149
2.26 200.064 69.801
2.27 207.498 67.261
2.28 208.281 66.374
2.29 204.711 66.902
2.30 197.709 68.019
2.31 189.762 69.095
2.32 181.911 69.172
2.33 171.182 68.054
2.34 157.125 66.924
2.35 150.061 66.554
2.36 142.538 66.137
2.37 133.810 65.590
2.38 131.694 65.083
2.39 129.075 64.184
2.40 134.156 62.763
2.41 143.206 61.004
2.42 --undefined-- 62.027
2.43 --undefined-- 65.057
2.44 --undefined-- 65.590
2.45 --undefined-- 64.317
2.46 --undefined-- 64.060
2.47 --undefined-- 64.618
2.48 --undefined-- 64.402
2.49 --undefined-- 66.207
2.50 --undefined-- 68.791
2.51 --undefined-- 70.320
2.52 --undefined-- 71.433
2.53 111.035 71.922
2.54 113.832 72.036
2.55 118.316 72.106
2.56 124.758 71.665
2.57 131.572 70.919
2.58 137.378 70.322
2.59 143.410 69.872
2.60 147.424 69.505
2.61 151.391 69.384
2.62 157.037 69.735
2.63 161.864 70.635
2.64 166.424 72.263
2.65 170.463 74.306
2.66 172.248 75.981
2.67 172.438 76.967
2.68 171.560 77.451
2.69 169.325 77.407
2.70 166.626 76.686
2.71 164.234 75.719
2.72 163.022 75.030
2.73 164.522 74.161
2.74 167.028 72.970
2.75 167.839 72.658
2.76 169.633 74.121
2.77 171.390 75.955
2.78 170.664 76.537
2.79 168.711 75.821
2.80 168.633 74.907
2.81 168.875 74.485
2.82 168.534 74.306
2.83 168.784 74.163
2.84 169.849 74.005
2.85 170.612 73.879
2.86 168.509 73.782
2.87 166.468 73.534
2.88 164.641 72.862
2.89 164.026 71.589
2.90 160.909 69.594
2.91 157.006 67.374
2.92 153.246 66.393
2.93 146.344 67.443
2.94 142.959 69.458
2.95 139.838 71.025
2.96 137.819 72.138
2.97 137.311 73.620
2.98 137.379 74.911
2.99 137.670 75.068
3.00 136.331 74.189
3.01 133.456 72.857
3.02 131.301 71.326
3.03 132.018 69.231
3.04 133.114 66.351
3.05 131.989 62.730
3.06 131.195 57.883
3.07 --undefined-- 52.508
3.08 --undefined-- 49.623
3.09 --undefined-- 50.398
3.10 --undefined-- 54.815
3.11 182.543 60.564
3.12 171.383 65.323
3.13 170.831 68.119
3.14 171.357 69.546
3.15 172.131 70.475
3.16 173.218 71.367
3.17 174.510 72.368
3.18 174.230 73.474
3.19 173.533 74.804
3.20 172.052 76.022
3.21 169.340 76.313
3.22 162.920 75.570
3.23 149.714 74.890
3.24 145.338 74.883
3.25 137.767 74.287
3.26 --undefined-- 72.297
3.27 115.419 69.380
3.28 115.563 66.451
3.29 115.528 63.161
3.30 113.695 59.173
3.31 --undefined-- 55.345
3.32 --undefined-- 53.026
3.33 --undefined-- 51.977
3.34 --undefined-- 51.014
3.35 --undefined-- 49.800
3.36 --undefined-- 48.408
3.37 --undefined-- 47.418
3.38 --undefined-- 47.176
3.39 --undefined-- 47.686
3.40 --undefined-- 55.370
3.41 --undefined-- 61.920
3.42 --undefined-- 64.975
3.43 --undefined-- 65.955
3.44 --undefined-- 66.423
3.45 113.912 66.602
3.46 111.043 66.500
3.47 109.570 65.981
3.48 110.525 64.950
3.49 113.825 63.442
3.50 --undefined-- 60.803
3.51 --undefined-- 56.612
3.52 --undefined-- 52.358
3.53 --undefined-- 49.494
3.54 --undefined-- 49.575
3.55 --undefined-- 50.326
3.56 --undefined-- 49.423
3.57 --undefined-- 48.105
3.58 --undefined-- 48.511
3.59 --undefined-- 51.552
3.60 --undefined-- 54.768
3.61 --undefined-- 57.763
3.62 --undefined-- 63.566
3.63 --undefined-- 68.454
3.64 --undefined-- 70.212
3.65 --undefined-- 69.399
3.66 --undefined-- 67.134
3.67 --undefined-- 63.619
3.68 --undefined-- 58.569
3.69 --undefined-- 54.262
3.70 --undefined-- 53.437
3.71 --undefined-- 50.471
3.72 --undefined-- 44.936
3.73 --undefined-- 49.150
3.74 --undefined-- 54.780
3.75 124.336 58.683
3.76 134.225 62.409
3.77 146.616 65.965
3.78 154.941 68.787
3.79 154.961 70.859
3.80 156.306 72.178
3.81 156.502 72.603
3.82 156.040 72.065
3.83 156.132 70.606
3.84 157.292 68.689
3.85 161.295 68.183
3.86 163.672 69.780
3.87 165.652 71.718
3.88 166.805 73.073
3.89 167.145 73.718
3.90 166.801 73.893
3.91 166.702 73.903
3.92 166.075 73.851
3.93 164.971 73.731
3.94 164.442 73.547
3.95 164.684 73.143
3.96 165.307 72.109
3.97 165.333 69.879
3.98 165.864 66.143
3.99 166.919 61.395
4.00 166.110 56.433
4.01 --undefined-- 51.274
4.02 --undefined-- 48.964
4.03 --undefined-- 53.470
4.04 --undefined-- 57.951
4.05 --undefined-- 60.070
4.06 --undefined-- 60.367
4.07 --undefined-- 60.919
4.08 --undefined-- 62.296
4.09 --undefined-- 64.221
4.10 --undefined-- 68.110
4.11 --undefined-- 71.845
4.12 --undefined-- 73.800
4.13 --undefined-- 73.944
4.14 124.177 72.896
4.15 123.916 71.828
4.16 123.896 71.472
4.17 131.370 71.043
4.18 137.305 69.741
4.19 143.121 67.044
4.20 150.079 62.880
4.21 --undefined-- 57.380
4.22 --undefined-- 50.511
4.23 --undefined-- 50.145
4.24 --undefined-- 54.731
4.25 --undefined-- 56.772
4.26 --undefined-- 55.549
4.27 --undefined-- 53.346
4.28 --undefined-- 59.653
4.29 --undefined-- 67.229
4.30 --undefined-- 71.460
4.31 148.406 73.296
4.32 139.384 74.132
4.33 133.370 74.671
4.34 131.233 74.572
4.35 129.829 73.550
4.36 130.962 71.277
4.37 133.135 67.503
4.38 --undefined-- 62.245
4.39 --undefined-- 55.006
4.40 --undefined-- 46.655
4.41 --undefined-- 43.080
4.42 --undefined-- 44.664
4.43 --undefined-- 47.221
4.44 --undefined-- 49.523
4.45 --undefined-- 55.855
4.46 --undefined-- 64.724
4.47 --undefined-- 70.382
4.48 --undefined-- 73.062
4.49 148.548 73.792
4.50 145.109 73.421
4.51 139.349 71.754
4.52 136.390 68.116
4.53 145.920 63.716
4.54 147.059 62.634
4.55 147.606 63.059
4.56 146.836 63.337
4.57 145.546 63.577
4.58 144.847 63.959
4.59 144.114 64.558
4.60 143.995 65.713
4.61 144.177 68.158
4.62 142.762 71.223
4.63 141.412 73.484
4.64 141.241 74.446
4.65 141.029 74.119
4.66 140.354 72.679
4.67 139.591 70.067
4.68 140.199 66.747
4.69 138.229 64.602
4.70 138.663 63.198
4.71 141.748 61.831
4.72 147.779 62.603
4.73 150.260 65.723
4.74 138.021 68.740
4.75 135.839 70.918
4.76 134.229 72.303
4.77 130.285 73.412
4.78 130.294 74.141
4.79 129.054 74.105
4.80 130.108 73.352
4.81 131.656 71.916
4.82 143.333 70.557
4.83 149.327 71.150
4.84 153.388 72.813
4.85 158.623 74.156
4.86 163.791 75.116
4.87 165.010 75.658
4.88 161.777 75.573
4.89 158.937 75.046
4.90 154.628 74.271
4.91 150.361 73.129
4.92 145.050 71.635
4.93 138.310 70.017
4.94 133.769 68.027
4.95 129.424 65.230
4.96 125.251 61.839
4.97 117.077 58.133
4.98 101.553 55.620
4.99 102.018 55.097
5.00 --undefined-- 56.871
5.01 --undefined-- 60.205
5.02 78.065 62.922
5.03 77.497 64.981
5.04 --undefined-- 66.161
5.05 --undefined-- 66.553
5.06 --undefined-- 66.149
5.07 128.839 64.884
5.08 133.707 63.174
5.09 135.980 60.223
5.10 --undefined-- 54.584
5.11 --undefined-- 47.385
5.12 --undefined-- 51.744
5.13 --undefined-- 59.144
5.14 --undefined-- 63.457
5.15 --undefined-- 66.397
5.16 135.427 70.638
5.17 134.997 73.715
5.18 132.952 74.701
5.19 130.213 74.251
5.20 128.124 73.098
5.21 126.184 70.697
5.22 --undefined-- 65.922
5.23 261.968 58.574
5.24 266.788 52.599
5.25 --undefined-- 49.790
5.26 --undefined-- 49.534
5.27 --undefined-- 58.209
5.28 --undefined-- 67.734
5.29 --undefined-- 73.495
5.30 154.634 76.057
5.31 154.630 76.621
5.32 155.209 76.254
5.33 155.764 75.433
5.34 155.672 73.991
5.35 155.888 71.487
5.36 156.796 68.364
5.37 161.584 66.330
5.38 164.818 65.762
5.39 164.162 65.430
5.40 163.243 65.209
5.41 162.267 65.205
5.42 161.557 65.368
5.43 160.916 66.616
5.44 162.412 69.771
5.45 156.700 72.708
5.46 153.790 74.657
5.47 151.985 75.485
5.48 145.131 75.472
5.49 139.144 75.858
5.50 135.428 76.274
5.51 131.337 75.819
5.52 125.582 74.239
5.53 118.949 71.149
5.54 113.670 --undefined--
5.55 111.832 --undefined--
5.56 --undefined-- --undefined--
5.57 --undefined-- --undefined--
