Time Pitch Intensity
0.01 --undefined-- --undefined--
0.02 202.989 --undefined--
0.03 175.548 --undefined--
0.04 170.475 --undefined--
0.05 165.247 78.500
0.06 159.091 78.504
0.07 157.576 78.064
0.08 156.787 77.748
0.09 154.818 77.756
0.10 151.678 77.309
0.11 152.368 76.252
0.12 154.490 74.793
0.13 157.227 72.553
0.14 157.248 69.878
0.15 155.918 68.468
0.16 156.219 68.656
0.17 150.347 69.760
0.18 145.205 71.508
0.19 144.962 73.393
0.20 143.253 74.950
0.21 137.557 75.524
0.22 133.928 74.993
0.23 126.690 74.082
0.24 124.150 73.686
0.25 123.729 73.518
0.26 119.823 73.242
0.27 117.663 72.993
0.28 118.083 72.753
0.29 118.430 72.494
0.30 118.223 72.232
0.31 118.302 71.720
0.32 117.908 70.362
0.33 110.892 68.028
0.34 110.689 66.089
0.35 109.632 65.530
0.36 109.879 65.257
0.37 110.951 64.608
0.38 115.597 63.585
0.39 121.886 61.818
0.40 79.941 58.617
0.41 --undefined-- 54.346
0.42 --undefined-- 48.953
0.43 --undefined-- 42.325
0.44 --undefined-- 40.282
0.45 --undefined-- 40.630
0.46 --undefined-- 39.706
0.47 --undefined-- 38.476
0.48 --undefined-- 39.895
0.49 --undefined-- 43.105
0.50 --undefined-- 48.684
0.51 --undefined-- 54.573
0.52 189.008 59.773
0.53 174.377 64.266
0.54 168.087 68.368
0.55 169.010 72.366
0.56 168.630 75.968
0.57 167.921 78.458
0.58 166.279 79.476
0.59 164.997 79.303
0.60 164.029 78.680
0.61 164.436 78.239
0.62 165.477 77.963
0.63 166.166 77.466
0.64 166.135 76.202
0.65 162.668 73.332
0.66 149.724 68.608
0.67 150.697 63.477
0.68 154.866 58.698
0.69 --undefined-- 55.343
0.70 --undefined-- 56.085
0.71 --undefined-- 56.915
0.72 --undefined-- 57.698
0.73 --undefined-- 60.074
0.74 224.258 67.173
0.75 222.701 73.635
0.76 211.318 77.193
0.77 204.800 78.653
0.78 201.797 79.631
0.79 198.469 80.202
0.80 194.439 79.719
0.81 191.819 78.650
0.82 189.814 77.582
0.83 188.324 76.362
0.84 185.207 75.029
0.85 181.729 74.278
0.86 180.671 74.082
0.87 178.235 73.875
0.88 174.408 73.672
0.89 171.340 73.825
0.90 166.978 74.041
0.91 160.633 73.887
0.92 150.235 73.943
0.93 143.726 74.466
0.94 138.412 74.912
0.95 127.009 74.908
0.96 123.162 74.645
0.97 120.835 74.359
0.98 120.793 73.965
0.99 121.840 73.374
1.00 122.628 72.494
1.01 124.723 71.469
1.02 130.408 70.891
1.03 132.239 70.699
1.04 131.563 70.162
1.05 129.720 69.212
1.06 125.058 68.571
1.07 125.243 69.222
1.08 128.860 70.670
1.09 128.208 71.413
1.10 121.068 71.037
1.11 112.231 69.812
1.12 106.918 67.794
1.13 103.061 65.474
1.14 103.853 63.880
1.15 104.294 63.271
1.16 104.353 63.339
1.17 105.119 63.828
1.18 109.579 64.829
1.19 113.352 65.864
1.20 116.365 66.046
1.21 121.279 64.691
1.22 81.534 61.756
1.23 75.596 59.327
1.24 74.714 59.443
1.25 85.182 61.152
1.26 102.668 63.698
1.27 118.078 65.637
1.28 126.747 66.351
1.29 121.190 66.634
1.30 116.447 67.238
1.31 115.896 67.874
1.32 120.713 68.584
1.33 129.847 69.629
1.34 143.470 70.914
1.35 147.306 72.343
1.36 153.836 73.487
1.37 158.479 73.779
1.38 160.746 72.596
1.39 157.948 69.199
1.40 --undefined-- 62.938
1.41 --undefined-- 54.081
1.42 --undefined-- 48.105
1.43 --undefined-- 55.744
1.44 --undefined-- 64.751
1.45 --undefined-- 70.602
1.46 133.937 73.514
1.47 131.347 74.117
1.48 116.381 73.145
1.49 106.345 71.727
1.50 109.558 70.997
1.51 116.430 71.447
1.52 116.957 72.140
1.53 117.546 72.309
1.54 119.289 72.358
1.55 121.160 72.648
1.56 124.320 73.016
1.57 129.184 73.328
1.58 138.486 73.734
1.59 144.673 74.052
1.60 152.450 73.854
1.61 160.273 73.868
1.62 168.375 74.367
1.63 174.163 74.454
1.64 180.426 73.532
1.65 184.701 71.582
1.66 187.260 69.154
1.67 171.307 67.201
1.68 168.200 65.183
1.69 165.185 61.437
1.70 --undefined-- 55.482
1.71 --undefined-- 49.046
1.72 --undefined-- 43.660
1.73 --undefined-- 39.678
1.74 --undefined-- 37.947
1.75 --undefined-- 37.345
1.76 --undefined-- 38.603
1.77 --undefined-- 40.241
1.78 --undefined-- 40.460
1.79 --undefined-- 39.615
1.80 --undefined-- 38.811
1.81 --undefined-- 38.876
1.82 --undefined-- 39.773
1.83 --undefined-- 39.367
1.84 --undefined-- 37.525
1.85 --undefined-- 36.488
1.86 --undefined-- 36.253
1.87 --undefined-- 36.503
1.88 --undefined-- 37.449
1.89 --undefined-- 38.451
1.90 --undefined-- 39.891
1.91 --undefined-- 40.977
1.92 --undefined-- 41.527
1.93 --undefined-- 40.421
1.94 --undefined-- 38.886
1.95 --undefined-- 40.030
1.96 --undefined-- 41.331
1.97 --undefined-- 41.636
1.98 --undefined-- 41.887
1.99 --undefined-- 41.246
2.00 --undefined-- 40.235
2.01 --undefined-- 40.569
2.02 --undefined-- 41.860
2.03 --undefined-- 42.822
2.04 --undefined-- 42.389
2.05 --undefined-- 41.431
2.06 --undefined-- 41.537
2.07 --undefined-- 41.813
2.08 --undefined-- 41.874
2.09 --undefined-- 41.380
2.10 --undefined-- 40.172
2.11 --undefined-- 38.684
2.12 --undefined-- 37.684
2.13 --undefined-- 37.731
2.14 --undefined-- 38.846
2.15 --undefined-- 39.038
2.16 --undefined-- 37.714
2.17 --undefined-- 38.055
2.18 --undefined-- 39.414
2.19 --undefined-- 39.544
2.20 --undefined-- 44.438
2.21 --undefined-- 52.972
2.22 --undefined-- 58.646
2.23 123.795 62.026
2.24 116.652 64.379
2.25 117.489 66.410
2.26 120.062 68.100
2.27 122.184 69.574
2.28 129.591 71.163
2.29 134.680 72.548
2.30 137.191 72.920
2.31 136.668 71.547
2.32 122.852 68.091
2.33 117.081 63.197
2.34 --undefined-- 58.302
2.35 --undefined-- 53.863
2.36 --undefined-- 49.733
2.37 --undefined-- 45.566
2.38 --undefined-- 42.227
2.39 --undefined-- 46.129
2.40 --undefined-- 55.599
2.41 --undefined-- 61.819
2.42 --undefined-- 66.747
2.43 153.743 71.234
2.44 149.203 74.204
2.45 144.492 75.492
2.46 137.422 75.438
2.47 132.393 75.045
2.48 134.761 75.144
2.49 136.769 75.266
2.50 138.604 74.961
2.51 145.543 74.502
2.52 150.609 74.241
2.53 164.601 74.040
2.54 175.359 73.884
2.55 184.642 73.751
2.56 194.961 73.527
2.57 203.073 73.268
2.58 209.413 73.097
2.59 214.625 73.247
2.60 218.514 73.672
2.61 218.153 73.774
2.62 212.528 72.646
2.63 197.984 69.630
2.64 190.691 64.751
2.65 --undefined-- 58.681
2.66 --undefined-- 53.753
2.67 --undefined-- 52.556
2.68 --undefined-- 51.630
2.69 --undefined-- 50.926
2.70 --undefined-- 54.607
2.71 --undefined-- 64.856
2.72 --undefined-- 73.246
2.73 --undefined-- 78.531
2.74 --undefined-- 81.784
2.75 204.431 83.994
2.76 200.914 85.259
2.77 199.404 85.632
2.78 198.465 85.452
2.79 197.376 85.026
2.80 196.610 84.595
2.81 196.643 84.266
2.82 198.219 83.852
2.83 200.762 82.760
2.84 203.804 80.432
2.85 204.888 77.106
2.86 202.721 73.889
2.87 205.534 71.592
2.88 207.944 70.048
2.89 208.122 68.927
2.90 205.723 67.831
2.91 200.604 66.316
2.92 192.386 64.341
2.93 --undefined-- 62.135
2.94 --undefined-- 59.263
2.95 --undefined-- 55.911
2.96 --undefined-- 54.092
2.97 --undefined-- 51.838
2.98 --undefined-- 46.797
2.99 --undefined-- 43.329
3.00 --undefined-- 49.446
3.01 --undefined-- 53.224
3.02 --undefined-- 54.343
3.03 --undefined-- 56.759
3.04 149.777 59.931
3.05 151.031 62.912
3.06 149.666 66.014
3.07 146.875 69.006
3.08 144.708 71.331
3.09 143.021 72.555
3.10 136.606 72.795
3.11 134.301 72.241
3.12 131.872 70.425
3.13 115.394 66.793
3.14 105.503 61.523
3.15 --undefined-- 55.405
3.16 --undefined-- 49.351
3.17 --undefined-- 45.250
3.18 --undefined-- 43.591
3.19 --undefined-- 42.446
3.20 --undefined-- 41.460
3.21 --undefined-- 40.795
3.22 --undefined-- 40.986
3.23 --undefined-- 42.841
3.24 --undefined-- 53.331
3.25 --undefined-- 64.177
3.26 --undefined-- 70.954
3.27 189.298 74.241
3.28 179.417 75.319
3.29 176.345 75.707
3.30 177.859 75.877
3.31 180.641 75.983
3.32 179.899 76.133
3.33 176.713 75.603
3.34 170.359 73.628
3.35 159.072 69.999
3.36 148.552 65.017
3.37 --undefined-- 59.121
3.38 --undefined-- 53.530
3.39 --undefined-- 50.361
3.40 --undefined-- 49.205
3.41 --undefined-- 49.564
3.42 --undefined-- 49.969
3.43 --undefined-- 50.160
3.44 --undefined-- 58.777
3.45 --undefined-- 68.075
3.46 190.075 73.445
3.47 178.387 75.704
3.48 171.482 76.083
3.49 167.638 75.764
3.50 164.309 75.288
3.51 163.165 74.890
3.52 162.734 74.626
3.53 161.743 74.434
3.54 159.707 74.250
3.55 158.913 74.059
3.56 157.617 73.624
3.57 156.859 72.602
3.58 157.873 71.001
3.59 151.560 69.559
3.60 141.325 69.197
3.61 136.050 69.831
3.62 133.049 71.001
3.63 130.969 72.205
3.64 129.917 72.860
3.65 127.931 73.016
3.66 125.974 73.320
3.67 124.345 73.951
3.68 123.984 74.557
3.69 122.947 75.022
3.70 121.896 75.309
3.71 120.826 75.285
3.72 119.616 74.874
3.73 118.364 74.137
3.74 116.919 73.266
3.75 115.665 72.397
3.76 114.600 71.495
3.77 112.025 70.281
3.78 106.780 68.704
3.79 97.826 67.506
3.80 95.534 66.467
3.81 95.709 64.000
3.82 --undefined-- 59.110
3.83 --undefined-- 51.870
3.84 --undefined-- 44.109
3.85 --undefined-- 40.342
3.86 --undefined-- 41.079
3.87 --undefined-- 41.421
3.88 --undefined-- 40.139
3.89 --undefined-- 39.830
3.90 --undefined-- 39.601
3.91 --undefined-- 37.568
3.92 --undefined-- 35.211
3.93 --undefined-- 35.939
3.94 --undefined-- 40.454
3.95 --undefined-- 49.234
3.96 --undefined-- 59.314
3.97 --undefined-- 66.668
3.98 --undefined-- 70.955
3.99 --undefined-- 72.926
4.00 --undefined-- 73.396
4.01 115.347 72.981
4.02 113.519 72.379
4.03 115.962 72.279
4.04 116.410 72.452
4.05 115.274 72.429
4.06 114.724 72.105
4.07 115.131 71.665
4.08 115.195 71.168
4.09 114.345 70.546
4.10 114.514 69.984
4.11 115.250 69.391
4.12 115.365 68.217
4.13 118.869 65.687
4.14 113.584 61.287
4.15 --undefined-- 56.059
4.16 --undefined-- 51.066
4.17 --undefined-- 48.337
4.18 --undefined-- 53.488
4.19 --undefined-- 58.548
4.20 180.910 63.689
4.21 168.012 69.091
4.22 153.129 72.726
4.23 151.502 74.516
4.24 149.057 75.169
4.25 147.983 75.322
4.26 147.969 75.238
4.27 148.202 75.137
4.28 148.909 75.213
4.29 149.452 75.261
4.30 148.309 74.680
4.31 147.641 73.055
4.32 147.381 71.050
4.33 147.821 70.032
4.34 145.240 70.356
4.35 141.189 71.265
4.36 137.361 72.111
4.37 133.443 72.450
4.38 127.024 72.549
4.39 125.623 73.001
4.40 122.029 73.344
4.41 118.015 73.101
4.42 116.152 72.414
4.43 115.616 71.357
4.44 115.133 69.691
4.45 112.968 66.725
4.46 95.393 61.839
4.47 --undefined-- 55.428
4.48 --undefined-- 51.009
4.49 --undefined-- 52.505
4.50 --undefined-- 55.371
4.51 --undefined-- 60.936
4.52 161.530 67.513
4.53 162.416 71.766
4.54 161.800 74.097
4.55 153.315 75.802
4.56 151.160 77.740
4.57 149.962 79.103
4.58 149.132 79.228
4.59 148.756 77.936
4.60 147.817 75.165
4.61 145.359 71.785
4.62 144.214 69.620
4.63 138.797 69.186
4.64 135.072 69.109
4.65 130.993 68.291
4.66 125.185 65.877
4.67 115.810 61.507
4.68 --undefined-- 59.391
4.69 --undefined-- 62.337
4.70 --undefined-- 62.750
4.71 --undefined-- 62.914
4.72 147.835 67.733
4.73 138.174 71.256
4.74 135.101 72.497
4.75 126.935 72.664
4.76 122.882 72.519
4.77 121.325 71.844
4.78 119.890 70.338
4.79 118.226 67.523
4.80 112.632 63.627
4.81 105.193 61.116
4.82 104.243 64.426
4.83 137.377 68.798
4.84 120.848 70.905
4.85 117.325 71.565
4.86 112.609 71.679
4.87 108.276 71.038
4.88 103.824 69.599
4.89 104.311 67.964
4.90 104.577 66.262
4.91 102.142 63.477
4.92 --undefined-- 58.767
4.93 --undefined-- 51.844
4.94 --undefined-- 46.570
4.95 --undefined-- 52.452
4.96 --undefined-- 60.896
4.97 --undefined-- 65.503
4.98 --undefined-- 66.183
4.99 --undefined-- 65.886
5.00 114.544 68.171
5.01 112.127 69.627
5.02 107.690 69.786
5.03 106.521 69.624
5.04 107.165 69.813
5.05 110.607 70.609
5.06 113.553 71.672
5.07 116.550 72.344
5.08 124.064 72.853
5.09 130.756 73.046
5.10 137.037 72.024
5.11 135.313 69.085
5.12 118.169 63.968
5.13 --undefined-- 58.099
5.14 --undefined-- 52.795
5.15 --undefined-- 47.340
5.16 --undefined-- 52.138
5.17 --undefined-- 62.461
5.18 --undefined-- 69.487
5.19 --undefined-- 73.281
5.20 --undefined-- 74.747
5.21 125.375 75.023
5.22 123.575 75.134
5.23 121.915 75.465
5.24 120.900 75.946
5.25 120.611 76.277
5.26 120.876 76.210
5.27 122.703 75.787
5.28 124.318 75.553
5.29 124.696 75.430
5.30 124.459 74.687
5.31 125.322 73.443
5.32 125.874 72.785
5.33 126.672 72.509
5.34 127.117 71.690
5.35 125.294 70.154
5.36 121.151 68.421
5.37 112.698 66.720
5.38 112.038 64.610
5.39 113.305 60.812
5.40 --undefined-- 55.222
5.41 --undefined-- 50.624
5.42 --undefined-- 45.812
5.43 --undefined-- 40.810
5.44 --undefined-- 40.365
5.45 --undefined-- 39.639
5.46 --undefined-- 36.791
5.47 --undefined-- 34.584
5.48 --undefined-- 36.284
5.49 --undefined-- 39.166
5.50 --undefined-- 40.275
5.51 --undefined-- 39.607
5.52 --undefined-- 38.539
5.53 --undefined-- 36.875
5.54 --undefined-- 36.451
5.55 --undefined-- 38.909
5.56 --undefined-- 40.493
5.57 --undefined-- 40.919
5.58 --undefined-- 40.558
5.59 --undefined-- 39.158
5.60 --undefined-- 38.625
5.61 --undefined-- 38.507
5.62 --undefined-- 38.607
5.63 --undefined-- 39.966
5.64 --undefined-- 41.244
5.65 --undefined-- 41.055
5.66 --undefined-- 40.279
5.67 --undefined-- 39.745
5.68 --undefined-- 39.135
5.69 --undefined-- 38.037
5.70 --undefined-- 36.640
5.71 --undefined-- 35.857
5.72 --undefined-- 36.386
5.73 --undefined-- 36.948
5.74 --undefined-- 37.574
5.75 --undefined-- 37.426
5.76 --undefined-- 36.939
5.77 --undefined-- 37.743
5.78 --undefined-- 37.554
5.79 --undefined-- 37.135
5.80 --undefined-- 38.306
5.81 --undefined-- 39.447
5.82 --undefined-- 39.366
5.83 --undefined-- 39.049
5.84 --undefined-- 40.555
5.85 --undefined-- 42.101
5.86 --undefined-- 41.280
5.87 --undefined-- 39.108
5.88 --undefined-- 38.854
5.89 --undefined-- 39.741
5.90 --undefined-- 39.563
5.91 --undefined-- 39.548
5.92 --undefined-- 43.521
5.93 --undefined-- 48.314
5.94 --undefined-- 49.335
5.95 --undefined-- 47.682
5.96 --undefined-- 46.768
5.97 --undefined-- 45.295
5.98 --undefined-- 42.546
5.99 --undefined-- 40.862
6.00 --undefined-- 40.832
6.01 --undefined-- 40.820
6.02 --undefined-- 40.319
6.03 --undefined-- 40.174
6.04 --undefined-- 41.012
6.05 --undefined-- 42.021
6.06 --undefined-- 43.252
6.07 --undefined-- 44.454
6.08 --undefined-- 45.192
6.09 --undefined-- 45.542
6.10 --undefined-- 45.793
6.11 --undefined-- 45.921
6.12 --undefined-- 45.980
6.13 --undefined-- 45.980
6.14 --undefined-- 46.310
6.15 --undefined-- 46.780
6.16 --undefined-- 46.917
6.17 --undefined-- 46.926
6.18 --undefined-- 46.799
6.19 --undefined-- 46.523
6.20 --undefined-- 45.387
6.21 --undefined-- 43.750
6.22 --undefined-- 42.851
6.23 --undefined-- 42.275
6.24 --undefined-- 40.704
6.25 --undefined-- 38.258
6.26 --undefined-- 36.491
6.27 --undefined-- 35.456
6.28 --undefined-- 34.819
6.29 --undefined-- 36.943
6.30 --undefined-- 40.129
6.31 --undefined-- --undefined--
6.32 --undefined-- --undefined--
6.33 --undefined-- --undefined--
6.34 --undefined-- --undefined--
