Time Pitch Intensity
0.01 --undefined-- --undefined--
0.02 145.495 --undefined--
0.03 145.341 --undefined--
0.04 145.085 --undefined--
0.05 144.901 70.402
0.06 145.785 70.654
0.07 147.690 71.623
0.08 149.224 72.289
0.09 151.199 72.527
0.10 155.195 72.509
0.11 166.424 72.625
0.12 174.279 73.041
0.13 176.438 73.269
0.14 178.426 73.140
0.15 180.061 72.799
0.16 180.738 72.172
0.17 180.748 70.790
0.18 181.248 68.183
0.19 181.488 64.176
0.20 189.862 58.918
0.21 193.281 53.303
0.22 --undefined-- 47.184
0.23 --undefined-- 41.366
0.24 --undefined-- 40.544
0.25 --undefined-- 41.775
0.26 --undefined-- 50.779
0.27 --undefined-- 60.974
0.28 204.071 67.082
0.29 196.825 69.922
0.30 185.742 70.636
0.31 182.327 70.265
0.32 177.265 69.290
0.33 174.851 68.260
0.34 177.739 68.819
0.35 178.667 70.217
0.36 178.644 71.069
0.37 177.621 71.491
0.38 178.447 71.676
0.39 178.412 71.352
0.40 180.670 70.308
0.41 183.524 68.400
0.42 179.424 65.028
0.43 175.406 59.376
0.44 --undefined-- 52.690
0.45 --undefined-- 52.690
0.46 --undefined-- 53.943
0.47 193.580 58.688
0.48 183.918 63.776
0.49 161.508 66.433
0.50 144.752 67.848
0.51 126.760 69.090
0.52 112.150 69.854
0.53 100.381 69.678
0.54 94.100 68.585
0.55 91.757 67.054
0.56 90.315 65.674
0.57 87.281 64.572
0.58 86.417 63.710
0.59 84.856 63.123
0.60 83.915 62.762
0.61 83.475 62.758
0.62 85.818 63.001
0.63 88.782 63.188
0.64 92.118 63.311
0.65 95.370 63.420
0.66 98.133 63.559
0.67 99.523 63.852
0.68 100.709 64.371
0.69 101.562 64.988
0.70 101.804 65.602
0.71 102.464 66.068
0.72 102.405 66.154
0.73 102.316 65.888
0.74 102.181 65.442
0.75 101.271 64.557
0.76 96.068 62.598
0.77 90.168 59.261
0.78 89.697 55.740
0.79 81.396 53.324
0.80 --undefined-- 51.036
0.81 --undefined-- 46.940
0.82 --undefined-- 40.332
0.83 --undefined-- 35.529
0.84 --undefined-- 36.949
0.85 --undefined-- 42.511
0.86 --undefined-- 54.089
0.87 --undefined-- 62.914
0.88 --undefined-- 68.229
0.89 --undefined-- 70.888
0.90 --undefined-- 71.743
0.91 --undefined-- 71.671
0.92 --undefined-- 70.772
0.93 --undefined-- 68.747
0.94 --undefined-- 65.610
0.95 --undefined-- 62.509
0.96 --undefined-- 60.334
0.97 --undefined-- 56.279
0.98 --undefined-- 49.024
0.99 --undefined-- 42.325
1.00 --undefined-- 40.035
1.01 --undefined-- 38.362
1.02 --undefined-- 36.683
1.03 --undefined-- 44.247
1.04 --undefined-- 53.143
1.05 --undefined-- 58.949
1.06 --undefined-- 62.856
1.07 124.924 65.643
1.08 125.066 67.731
1.09 122.321 69.120
1.10 119.260 69.675
1.11 117.251 69.614
1.12 116.188 69.285
1.13 114.625 68.421
1.14 109.422 66.425
1.15 102.511 63.080
1.16 103.278 59.295
1.17 103.356 56.136
1.18 132.141 52.783
1.19 --undefined-- 48.456
1.20 --undefined-- 43.553
1.21 --undefined-- 40.458
1.22 --undefined-- 42.367
1.23 --undefined-- 52.222
1.24 --undefined-- 60.232
1.25 146.081 64.714
1.26 138.321 66.994
1.27 137.296 68.166
1.28 142.564 68.673
1.29 143.611 68.861
1.30 144.298 68.795
1.31 146.579 68.389
1.32 156.532 68.272
1.33 157.850 68.592
1.34 157.827 68.821
1.35 157.281 68.815
1.36 155.926 68.682
1.37 150.895 68.525
1.38 145.770 68.264
1.39 134.258 67.766
1.40 133.611 67.287
1.41 120.061 66.982
1.42 111.984 66.467
1.43 106.190 65.288
1.44 --undefined-- 62.801
1.45 --undefined-- 59.028
1.46 --undefined-- 55.485
1.47 --undefined-- 52.614
1.48 --undefined-- 49.047
1.49 --undefined-- 44.914
1.50 --undefined-- 47.441
1.51 --undefined-- 51.068
1.52 --undefined-- 51.821
1.53 --undefined-- 52.177
1.54 152.784 58.572
1.55 152.759 63.963
1.56 145.205 66.666
1.57 137.275 67.713
1.58 129.527 67.903
1.59 121.550 67.520
1.60 115.129 66.566
1.61 107.534 65.574
1.62 111.001 66.250
1.63 112.430 67.738
1.64 113.427 68.709
1.65 114.721 69.165
1.66 115.980 69.059
1.67 115.991 68.127
1.68 113.459 66.105
1.69 108.850 62.792
1.70 115.095 60.414
1.71 133.166 63.318
1.72 137.160 66.274
1.73 130.644 67.474
1.74 124.328 67.478
1.75 113.946 67.035
1.76 106.761 66.605
1.77 95.420 66.125
1.78 83.607 65.131
1.79 82.382 63.839
1.80 77.214 62.479
1.81 86.120 60.678
1.82 83.889 58.951
1.83 94.975 58.205
1.84 --undefined-- 58.728
1.85 --undefined-- 59.351
1.86 --undefined-- 60.293
1.87 79.419 60.997
1.88 85.242 61.305
1.89 91.200 61.499
1.90 94.185 61.658
1.91 99.263 61.680
1.92 111.829 61.867
1.93 122.224 62.594
1.94 123.905 63.364
1.95 125.870 63.856
1.96 127.354 64.282
1.97 128.069 64.786
1.98 129.105 65.067
1.99 129.572 64.459
2.00 125.229 62.352
2.01 116.584 58.611
2.02 138.445 54.878
2.03 149.611 52.895
2.04 149.569 50.289
2.05 --undefined-- 45.255
2.06 --undefined-- 39.423
2.07 --undefined-- 39.227
2.08 --undefined-- 45.914
2.09 --undefined-- 55.956
2.10 --undefined-- 63.278
2.11 --undefined-- 67.599
2.12 --undefined-- 69.594
2.13 --undefined-- 69.911
2.14 --undefined-- 69.192
2.15 --undefined-- 68.004
2.16 --undefined-- 66.335
2.17 --undefined-- 63.191
2.18 --undefined-- 58.412
2.19 --undefined-- 53.843
2.20 --undefined-- 48.479
2.21 --undefined-- 43.651
2.22 --undefined-- 41.154
2.23 --undefined-- 38.694
2.24 --undefined-- 36.936
2.25 --undefined-- 37.548
2.26 --undefined-- 39.982
2.27 --undefined-- 43.111
2.28 --undefined-- 44.539
2.29 --undefined-- 42.711
2.30 --undefined-- 39.984
2.31 --undefined-- 40.686
2.32 --undefined-- 41.305
2.33 --undefined-- 41.653
2.34 --undefined-- 42.539
2.35 --undefined-- 43.537
2.36 --undefined-- 44.166
2.37 --undefined-- 44.592
2.38 --undefined-- 45.087
2.39 --undefined-- 45.412
2.40 --undefined-- 44.891
2.41 --undefined-- 43.777
2.42 --undefined-- 43.072
2.43 --undefined-- 42.563
2.44 --undefined-- 41.891
2.45 --undefined-- 40.625
2.46 --undefined-- 38.273
2.47 --undefined-- 35.060
2.48 --undefined-- 34.582
2.49 --undefined-- 37.113
2.50 --undefined-- 38.242
2.51 --undefined-- 37.826
2.52 --undefined-- 36.729
2.53 --undefined-- 34.835
2.54 --undefined-- 34.435
2.55 --undefined-- 38.313
2.56 --undefined-- 48.872
2.57 --undefined-- 58.912
2.58 --undefined-- 65.637
2.59 --undefined-- 69.940
2.60 --undefined-- 72.574
2.61 --undefined-- 73.876
2.62 --undefined-- 74.151
2.63 141.069 73.731
2.64 143.720 72.644
2.65 147.751 70.870
2.66 148.539 69.096
2.67 151.048 68.117
2.68 153.428 67.837
2.69 154.934 68.077
2.70 157.309 68.449
2.71 167.240 68.552
2.72 169.410 68.694
2.73 169.601 69.293
2.74 165.516 70.205
2.75 153.286 70.960
2.76 146.418 71.218
2.77 142.848 71.041
2.78 141.435 70.822
2.79 144.522 70.841
2.80 147.140 70.655
2.81 148.663 69.583
2.82 149.385 67.207
2.83 149.225 63.343
2.84 148.807 58.102
2.85 144.362 52.516
2.86 144.740 49.306
2.87 --undefined-- 47.621
2.88 --undefined-- 46.055
2.89 --undefined-- 45.677
2.90 --undefined-- 47.267
2.91 --undefined-- 50.084
2.92 --undefined-- 53.738
2.93 --undefined-- 61.201
2.94 --undefined-- 67.073
2.95 --undefined-- 70.137
2.96 --undefined-- 71.475
2.97 --undefined-- 71.986
2.98 136.516 72.169
2.99 130.652 72.381
3.00 128.114 72.363
3.01 127.809 71.876
3.02 130.276 71.192
3.03 134.331 71.126
3.04 139.725 71.496
3.05 146.172 71.913
3.06 149.532 72.664
3.07 153.741 73.317
3.08 160.491 73.287
3.09 173.508 72.718
3.10 178.316 72.358
3.11 182.340 72.386
3.12 185.926 72.342
3.13 191.105 72.058
3.14 194.951 71.811
3.15 205.676 72.257
3.16 209.332 73.276
3.17 210.279 73.968
3.18 209.706 73.986
3.19 210.213 73.331
3.20 211.172 72.043
3.21 211.662 70.283
3.22 212.384 68.659
3.23 211.447 67.543
3.24 209.300 66.629
3.25 208.340 65.598
3.26 209.534 64.257
3.27 208.175 62.204
3.28 206.190 58.785
3.29 --undefined-- 53.660
3.30 --undefined-- 49.486
3.31 --undefined-- 47.495
3.32 --undefined-- 43.912
3.33 --undefined-- 40.413
3.34 --undefined-- 39.111
3.35 --undefined-- 37.827
3.36 --undefined-- 35.864
3.37 --undefined-- 36.500
3.38 --undefined-- 46.482
3.39 --undefined-- 56.855
3.40 --undefined-- 63.144
3.41 --undefined-- 66.409
3.42 --undefined-- 67.817
3.43 --undefined-- 68.218
3.44 --undefined-- 68.170
3.45 116.551 68.059
3.46 114.267 67.833
3.47 113.190 67.290
3.48 114.053 66.803
3.49 114.657 66.888
3.50 115.717 67.388
3.51 118.560 67.720
3.52 120.996 67.439
3.53 123.657 66.580
3.54 126.345 65.723
3.55 126.792 65.247
3.56 127.052 64.934
3.57 127.608 64.757
3.58 128.532 65.029
3.59 130.036 65.757
3.60 130.393 66.754
3.61 130.594 67.832
3.62 131.917 68.762
3.63 132.742 69.329
3.64 133.100 69.377
3.65 132.998 69.034
3.66 132.613 68.657
3.67 131.345 68.394
3.68 129.665 68.263
3.69 128.548 68.255
3.70 128.089 68.312
3.71 129.271 68.340
3.72 131.789 67.993
3.73 132.584 66.559
3.74 126.900 63.370
3.75 126.777 58.305
3.76 --undefined-- 51.839
3.77 --undefined-- 45.281
3.78 --undefined-- 41.988
3.79 --undefined-- 42.504
3.80 --undefined-- 43.576
3.81 --undefined-- 47.019
3.82 --undefined-- 56.632
3.83 --undefined-- 64.024
3.84 193.809 68.197
3.85 190.943 69.950
3.86 178.295 70.325
3.87 175.070 70.284
3.88 172.764 70.492
3.89 170.198 71.113
3.90 167.222 71.421
3.91 161.207 70.935
3.92 154.735 70.022
3.93 149.094 69.406
3.94 143.688 69.299
3.95 138.622 69.265
3.96 134.028 69.072
3.97 128.418 68.365
3.98 124.230 66.213
3.99 100.711 62.302
4.00 107.832 58.457
4.01 --undefined-- 55.345
4.02 171.767 51.913
4.03 168.213 49.411
4.04 --undefined-- 47.566
4.05 --undefined-- 49.448
4.06 --undefined-- 56.648
4.07 --undefined-- 62.678
4.08 126.118 66.321
4.09 125.225 68.054
4.10 123.624 68.638
4.11 123.527 68.824
4.12 124.007 68.833
4.13 123.918 68.638
4.14 124.093 68.462
4.15 124.582 68.538
4.16 125.449 68.698
4.17 128.951 68.681
4.18 135.029 68.263
4.19 136.748 67.098
4.20 137.819 64.712
4.21 143.549 60.798
4.22 --undefined-- 55.605
4.23 --undefined-- 51.033
4.24 --undefined-- 49.756
4.25 --undefined-- 49.308
4.26 --undefined-- 48.307
4.27 --undefined-- 48.215
4.28 --undefined-- 54.923
4.29 --undefined-- 62.238
4.30 --undefined-- 66.415
4.31 --undefined-- 68.060
4.32 --undefined-- 68.256
4.33 126.889 68.402
4.34 121.712 68.548
4.35 118.042 68.278
4.36 115.330 67.728
4.37 113.932 67.252
4.38 113.219 66.926
4.39 111.681 66.781
4.40 111.042 66.726
4.41 110.848 65.941
4.42 106.511 63.710
4.43 107.107 60.603
4.44 110.229 58.204
4.45 113.731 55.706
4.46 --undefined-- 52.580
4.47 --undefined-- 48.791
4.48 --undefined-- 44.199
4.49 --undefined-- 42.594
4.50 --undefined-- 47.224
4.51 --undefined-- 53.303
4.52 181.185 60.099
4.53 162.510 65.159
4.54 152.053 68.097
4.55 145.991 69.693
4.56 143.472 70.792
4.57 143.355 71.527
4.58 143.991 71.960
4.59 143.248 72.186
4.60 140.934 72.104
4.61 137.321 71.648
4.62 134.572 71.349
4.63 133.828 71.381
4.64 133.450 70.974
4.65 130.048 70.004
4.66 125.234 68.961
4.67 114.799 67.588
4.68 87.111 64.765
4.69 --undefined-- 60.007
4.70 --undefined-- 54.151
4.71 --undefined-- 48.942
4.72 --undefined-- 44.146
4.73 --undefined-- 41.201
4.74 --undefined-- 40.118
4.75 --undefined-- 41.040
4.76 --undefined-- 43.329
4.77 --undefined-- 43.175
4.78 --undefined-- 40.860
4.79 --undefined-- 40.799
4.80 --undefined-- 42.573
4.81 --undefined-- 42.816
4.82 --undefined-- 41.815
4.83 --undefined-- 41.841
4.84 --undefined-- 42.957
4.85 --undefined-- 43.845
4.86 --undefined-- 44.010
4.87 --undefined-- 44.110
4.88 --undefined-- 44.597
4.89 --undefined-- 45.163
4.90 --undefined-- 45.468
4.91 --undefined-- 45.197
4.92 --undefined-- 44.376
4.93 --undefined-- 43.159
4.94 --undefined-- 41.874
4.95 --undefined-- 40.857
4.96 --undefined-- 40.386
4.97 --undefined-- 39.704
4.98 --undefined-- 38.308
4.99 --undefined-- 36.251
5.00 --undefined-- 35.203
5.01 --undefined-- 37.356
5.02 --undefined-- 39.363
5.03 --undefined-- 40.412
5.04 --undefined-- 41.338
5.05 --undefined-- 42.046
5.06 --undefined-- 42.771
5.07 --undefined-- 44.391
5.08 --undefined-- 47.861
5.09 --undefined-- 57.534
5.10 --undefined-- 66.672
5.11 --undefined-- 71.870
5.12 214.780 73.958
5.13 197.019 74.202
5.14 198.817 74.030
5.15 200.436 74.247
5.16 199.676 74.824
5.17 199.062 75.374
5.18 199.785 75.586
5.19 207.100 75.223
5.20 207.372 73.958
5.21 205.734 71.064
5.22 201.442 66.583
5.23 203.831 63.280
5.24 204.572 61.721
5.25 208.546 59.986
5.26 225.608 58.656
5.27 229.166 58.037
5.28 229.022 57.100
5.29 238.077 57.607
5.30 268.762 62.444
5.31 233.880 67.866
5.32 226.996 71.999
5.33 224.218 74.461
5.34 222.456 75.382
5.35 221.938 75.411
5.36 222.828 75.231
5.37 224.164 75.129
5.38 224.467 75.113
5.39 224.679 75.229
5.40 224.605 75.453
5.41 223.849 75.632
5.42 223.146 75.453
5.43 222.985 74.533
5.44 223.009 73.298
5.45 223.593 73.142
5.46 224.244 73.892
5.47 225.142 74.288
5.48 225.580 74.199
5.49 225.053 74.106
5.50 222.660 74.158
5.51 219.674 74.165
5.52 217.053 73.916
5.53 216.093 73.310
5.54 216.245 72.398
5.55 213.502 71.092
5.56 207.198 68.693
5.57 201.536 65.114
5.58 202.989 61.898
5.59 200.490 59.721
5.60 199.868 58.117
5.61 208.127 59.011
5.62 207.203 62.979
5.63 204.586 66.406
5.64 193.843 68.266
5.65 177.360 69.138
5.66 165.496 69.591
5.67 158.452 69.643
5.68 143.062 69.070
5.69 139.694 68.034
5.70 136.596 66.313
5.71 133.845 65.137
5.72 140.374 66.486
5.73 142.292 68.010
5.74 145.289 68.989
5.75 146.997 69.688
5.76 148.338 70.152
5.77 149.610 70.401
5.78 150.193 --undefined--
5.79 148.498 --undefined--
5.80 --undefined-- --undefined--
5.81 --undefined-- --undefined--
