Time Pitch Intensity
0.01 --undefined-- --undefined--
0.02 172.013 --undefined--
0.03 168.736 --undefined--
0.04 166.004 --undefined--
0.05 169.048 73.937
0.06 172.697 73.722
0.07 176.278 73.285
0.08 176.806 72.679
0.09 174.503 71.661
0.10 170.961 69.996
0.11 170.263 69.758
0.12 194.280 73.428
0.13 193.877 75.979
0.14 192.485 76.384
0.15 190.884 75.981
0.16 188.459 75.713
0.17 184.622 75.194
0.18 179.724 73.427
0.19 171.924 69.780
0.20 166.625 64.457
0.21 183.853 60.292
0.22 --undefined-- 62.949
0.23 --undefined-- 66.738
0.24 --undefined-- 71.104
0.25 192.569 74.575
0.26 184.979 75.901
0.27 182.821 75.917
0.28 182.205 75.737
0.29 181.412 75.777
0.30 179.429 75.505
0.31 173.377 73.775
0.32 158.372 70.200
0.33 --undefined-- 68.492
0.34 --undefined-- 72.659
0.35 163.129 75.660
0.36 158.963 76.313
0.37 148.959 75.826
0.38 141.481 75.573
0.39 139.707 75.760
0.40 139.057 75.685
0.41 138.005 75.183
0.42 137.151 74.007
0.43 125.193 71.522
0.44 94.983 67.913
0.45 78.147 65.135
0.46 76.143 64.904
0.47 75.469 66.434
0.48 85.306 68.011
0.49 99.689 69.589
0.50 105.893 71.114
0.51 107.908 72.280
0.52 108.598 73.267
0.53 111.275 74.107
0.54 112.908 74.569
0.55 112.984 74.721
0.56 113.279 74.797
0.57 113.117 74.895
0.58 113.594 75.083
0.59 114.147 75.294
0.60 115.041 75.423
0.61 116.424 75.334
0.62 117.198 75.060
0.63 117.847 74.972
0.64 119.145 75.080
0.65 119.586 74.900
0.66 118.300 74.489
0.67 118.652 74.268
0.68 118.616 74.496
0.69 119.266 75.479
0.70 118.330 76.378
0.71 116.599 76.587
0.72 113.552 76.351
0.73 113.868 75.961
0.74 113.586 75.449
0.75 112.940 74.754
0.76 112.588 74.101
0.77 113.375 73.883
0.78 114.583 74.017
0.79 115.513 74.186
0.80 116.717 74.253
0.81 117.447 74.209
0.82 118.701 74.009
0.83 120.780 73.520
0.84 123.152 72.456
0.85 123.045 70.364
0.86 120.520 67.006
0.87 119.777 62.673
0.88 --undefined-- 59.730
0.89 --undefined-- 63.741
0.90 --undefined-- 69.173
0.91 165.843 73.416
0.92 164.692 75.492
0.93 153.977 75.728
0.94 147.420 75.680
0.95 146.230 75.917
0.96 146.694 75.974
0.97 147.289 75.777
0.98 147.919 75.510
0.99 148.538 75.368
1.00 149.043 75.015
1.01 147.522 73.854
1.02 142.629 71.657
1.03 140.471 68.194
1.04 144.656 63.106
1.05 --undefined-- 56.914
1.06 --undefined-- 53.499
1.07 --undefined-- 53.434
1.08 --undefined-- 52.523
1.09 --undefined-- 49.918
1.10 --undefined-- 47.773
1.11 --undefined-- 52.025
1.12 --undefined-- 60.152
1.13 --undefined-- 65.826
1.14 --undefined-- 70.472
1.15 166.174 73.617
1.16 158.306 74.506
1.17 150.760 74.079
1.18 144.237 73.813
1.19 143.245 74.081
1.20 141.991 74.520
1.21 140.097 74.911
1.22 138.518 75.300
1.23 134.480 75.406
1.24 133.001 75.159
1.25 132.832 75.175
1.26 133.742 75.448
1.27 133.381 75.491
1.28 132.360 75.379
1.29 132.256 75.434
1.30 132.716 75.606
1.31 132.953 75.706
1.32 132.902 75.815
1.33 133.313 75.956
1.34 133.275 75.875
1.35 132.227 75.376
1.36 130.984 74.399
1.37 128.831 72.701
1.38 124.671 69.959
1.39 123.856 66.016
1.40 126.447 60.863
1.41 139.521 56.361
1.42 128.248 57.208
1.43 --undefined-- 59.977
1.44 --undefined-- 62.355
1.45 --undefined-- 66.524
1.46 153.103 71.910
1.47 150.384 74.737
1.48 133.918 75.370
1.49 127.079 75.320
1.50 --undefined-- 74.572
1.51 --undefined-- 72.277
1.52 100.941 68.098
1.53 102.225 62.280
1.54 106.701 56.779
1.55 107.406 53.574
1.56 107.364 52.922
1.57 103.730 54.115
1.58 --undefined-- 56.010
1.59 --undefined-- 56.430
1.60 --undefined-- 56.170
1.61 --undefined-- 58.803
1.62 124.668 62.377
1.63 122.996 64.777
1.64 117.275 65.464
1.65 116.557 64.878
1.66 116.373 65.114
1.67 115.559 66.892
1.68 112.535 68.331
1.69 111.985 68.952
1.70 98.251 69.620
1.71 95.647 70.292
1.72 94.615 70.092
1.73 92.997 69.080
1.74 91.022 68.040
1.75 90.205 67.537
1.76 91.842 67.877
1.77 94.501 68.623
1.78 93.737 69.173
1.79 93.618 69.604
1.80 95.152 70.148
1.81 96.865 70.736
1.82 97.432 71.421
1.83 99.327 72.307
1.84 100.763 73.174
1.85 102.730 73.712
1.86 102.913 73.494
1.87 99.372 72.099
1.88 98.232 69.615
1.89 97.876 66.414
1.90 99.232 62.547
1.91 111.097 60.731
1.92 --undefined-- 67.352
1.93 --undefined-- 73.356
1.94 133.076 76.199
1.95 126.055 76.847
1.96 119.002 76.508
1.97 117.230 75.910
1.98 116.978 75.011
1.99 114.560 73.731
2.00 114.827 73.392
2.01 118.402 74.199
2.02 117.475 74.592
2.03 117.067 74.530
2.04 117.285 74.479
2.05 117.231 74.453
2.06 117.293 74.351
2.07 117.272 74.124
2.08 117.273 73.764
2.09 117.684 73.346
2.10 118.061 72.856
2.11 117.709 71.957
2.12 115.712 70.581
2.13 119.003 70.626
2.14 127.852 72.977
2.15 129.740 75.107
2.16 131.510 76.151
2.17 131.411 76.404
2.18 130.850 76.223
2.19 129.529 75.817
2.20 128.105 75.271
2.21 126.912 74.636
2.22 125.171 74.167
2.23 124.786 74.061
2.24 125.106 74.236
2.25 123.471 74.194
2.26 107.350 73.316
2.27 --undefined-- 70.947
2.28 --undefined-- 66.167
2.29 123.895 59.521
2.30 124.600 56.825
2.31 124.862 56.932
2.32 123.840 56.758
2.33 124.133 56.016
2.34 124.334 55.419
2.35 125.264 55.942
2.36 126.455 56.400
2.37 124.620 55.727
2.38 133.292 54.131
2.39 133.567 52.664
2.40 130.667 52.843
2.41 126.839 54.300
2.42 125.834 55.089
2.43 125.009 54.834
2.44 115.093 54.391
2.45 113.801 54.165
2.46 113.828 54.053
2.47 112.848 53.483
2.48 --undefined-- 52.872
2.49 --undefined-- 52.715
2.50 --undefined-- 52.823
2.51 --undefined-- 53.188
2.52 --undefined-- 52.954
2.53 --undefined-- 52.399
2.54 --undefined-- 51.414
2.55 102.194 50.302
2.56 101.566 49.731
2.57 103.290 50.603
2.58 114.438 53.053
2.59 116.229 54.738
2.60 124.078 56.303
2.61 121.090 61.860
2.62 185.803 67.126
2.63 179.956 70.136
2.64 183.627 71.698
2.65 186.685 72.500
2.66 185.022 72.540
2.67 178.382 71.572
2.68 171.823 69.333
2.69 --undefined-- 66.171
2.70 --undefined-- 65.811
2.71 --undefined-- 70.736
2.72 179.203 74.728
2.73 169.037 76.100
2.74 161.796 75.758
2.75 140.836 75.276
2.76 130.317 75.489
2.77 122.737 75.543
2.78 118.233 74.716
2.79 113.168 73.478
2.80 110.645 72.871
2.81 109.293 72.349
2.82 106.748 71.143
2.83 106.359 69.368
2.84 103.877 67.450
2.85 100.861 65.208
2.86 114.662 63.044
2.87 124.880 63.745
2.88 133.945 66.999
2.89 134.743 70.696
2.90 134.902 73.546
2.91 134.864 75.150
2.92 136.077 75.807
2.93 139.059 75.878
2.94 140.922 75.278
2.95 146.459 73.854
2.96 152.720 72.069
2.97 156.133 70.938
2.98 159.874 70.962
2.99 162.985 71.943
3.00 168.291 73.126
3.01 173.464 74.444
3.02 176.921 75.422
3.03 177.029 75.923
3.04 175.482 76.255
3.05 174.208 76.385
3.06 172.607 76.225
3.07 172.705 75.858
3.08 172.812 75.245
3.09 170.190 74.659
3.10 167.860 74.543
3.11 165.840 74.731
3.12 163.871 74.907
3.13 160.833 75.013
3.14 155.973 75.140
3.15 151.168 75.474
3.16 146.645 75.875
3.17 141.955 75.979
3.18 137.672 75.943
3.19 134.832 76.011
3.20 132.198 76.030
3.21 130.762 76.069
3.22 130.160 76.205
3.23 129.385 75.807
3.24 130.299 74.469
3.25 132.005 73.166
3.26 133.757 73.122
3.27 143.294 74.585
3.28 146.966 76.151
3.29 147.773 76.693
3.30 149.379 76.608
3.31 150.267 76.449
3.32 150.572 76.344
3.33 150.371 76.181
3.34 148.135 75.873
3.35 146.063 75.418
3.36 144.339 74.837
3.37 142.980 73.810
3.38 142.561 71.254
3.39 142.762 66.373
3.40 147.235 59.557
3.41 --undefined-- 55.070
3.42 --undefined-- 59.345
3.43 --undefined-- 63.093
3.44 --undefined-- 63.577
3.45 --undefined-- 62.651
3.46 --undefined-- 67.908
3.47 191.073 73.042
3.48 183.258 75.174
3.49 180.785 75.335
3.50 181.096 75.004
3.51 182.872 75.164
3.52 182.326 75.817
3.53 180.301 76.320
3.54 177.670 76.547
3.55 174.659 76.571
3.56 171.081 76.589
3.57 167.859 76.372
3.58 164.211 74.902
3.59 156.349 71.467
3.60 156.540 67.032
3.61 164.802 64.948
3.62 166.284 65.799
3.63 167.594 69.739
3.64 163.567 73.713
3.65 159.408 75.679
3.66 152.268 75.798
3.67 138.859 75.135
3.68 130.581 74.559
3.69 124.954 73.380
3.70 123.904 70.468
3.71 103.418 65.189
3.72 106.077 59.068
3.73 106.590 56.527
3.74 107.364 54.981
3.75 104.958 52.814
3.76 104.033 51.496
3.77 105.169 50.744
3.78 105.123 50.072
3.79 105.183 50.495
3.80 104.576 50.837
3.81 102.349 50.407
3.82 101.639 51.266
3.83 101.560 56.351
3.84 --undefined-- 62.865
3.85 --undefined-- 69.142
3.86 182.418 73.332
3.87 168.959 75.087
3.88 165.967 75.439
3.89 162.986 75.446
3.90 160.356 75.257
3.91 157.627 74.724
3.92 155.169 74.295
3.93 152.883 74.400
3.94 153.094 74.723
3.95 154.760 74.994
3.96 156.261 75.206
3.97 158.568 75.167
3.98 160.766 74.834
3.99 161.933 74.290
4.00 160.623 73.748
4.01 159.873 73.828
4.02 162.279 74.520
4.03 162.599 75.142
4.04 162.789 75.382
4.05 162.391 75.353
4.06 160.794 74.947
4.07 157.291 73.831
4.08 151.438 71.867
4.09 152.426 68.893
4.10 153.628 64.669
4.11 150.757 59.898
4.12 149.522 55.778
4.13 147.127 53.013
4.14 --undefined-- 52.263
4.15 --undefined-- 53.229
4.16 --undefined-- 58.634
4.17 186.684 65.831
4.18 178.050 70.621
4.19 171.686 73.144
4.20 167.544 74.557
4.21 166.264 75.371
4.22 164.603 75.255
4.23 161.894 73.689
4.24 159.762 70.379
4.25 159.605 65.895
4.26 157.801 62.222
4.27 --undefined-- 62.967
4.28 --undefined-- 69.437
4.29 180.787 74.053
4.30 170.944 75.918
4.31 165.112 76.248
4.32 159.655 76.324
4.33 158.075 76.523
4.34 156.976 76.582
4.35 155.158 76.421
4.36 153.560 76.236
4.37 152.691 76.091
4.38 152.210 76.030
4.39 152.781 76.105
4.40 153.739 75.875
4.41 154.418 75.191
4.42 155.343 74.522
4.43 154.920 73.970
4.44 152.613 73.652
4.45 154.085 73.728
4.46 152.990 73.682
4.47 152.371 73.131
4.48 150.586 71.807
4.49 146.302 69.228
4.50 142.869 64.990
4.51 157.009 59.528
4.52 --undefined-- 57.641
4.53 --undefined-- 61.760
4.54 --undefined-- 66.676
4.55 --undefined-- 71.620
4.56 --undefined-- 74.590
4.57 141.396 75.392
4.58 130.127 75.560
4.59 127.570 76.085
4.60 126.718 76.649
4.61 126.590 77.004
4.62 126.886 77.177
4.63 126.634 77.179
4.64 126.303 77.099
4.65 125.318 77.072
4.66 125.202 77.079
4.67 124.761 76.856
4.68 123.675 76.072
4.69 122.418 74.248
4.70 122.948 70.733
4.71 124.993 65.693
4.72 125.188 60.860
4.73 126.006 57.386
4.74 124.891 55.421
4.75 125.109 53.402
4.76 --undefined-- 53.551
4.77 --undefined-- 59.579
4.78 --undefined-- 66.262
4.79 --undefined-- 72.206
4.80 150.929 75.416
4.81 144.212 76.158
4.82 134.759 76.096
4.83 132.917 76.135
4.84 130.291 75.878
4.85 129.402 75.294
4.86 129.014 73.763
4.87 128.063 70.242
4.88 131.760 64.372
4.89 129.689 58.708
4.90 128.709 57.096
4.91 128.284 55.593
4.92 126.755 --undefined--
4.93 123.133 --undefined--
4.94 --undefined-- --undefined--
4.95 --undefined-- --undefined--
