Time Pitch Intensity
0.01 --undefined-- --undefined--
0.02 --undefined-- --undefined--
0.03 --undefined-- --undefined--
0.04 --undefined-- --undefined--
0.05 --undefined-- 57.222
0.06 --undefined-- 51.489
0.07 --undefined-- 46.612
0.08 --undefined-- 41.412
0.09 --undefined-- 38.144
0.10 --undefined-- 36.955
0.11 --undefined-- 36.645
0.12 --undefined-- 36.713
0.13 --undefined-- 37.266
0.14 --undefined-- 39.019
0.15 --undefined-- 42.328
0.16 --undefined-- 44.422
0.17 --undefined-- 45.021
0.18 --undefined-- 45.217
0.19 --undefined-- 45.097
0.20 --undefined-- 44.664
0.21 --undefined-- 44.325
0.22 --undefined-- 44.388
0.23 --undefined-- 44.450
0.24 --undefined-- 44.053
0.25 --undefined-- 43.794
0.26 --undefined-- 43.943
0.27 --undefined-- 43.949
0.28 --undefined-- 43.773
0.29 --undefined-- 43.067
0.30 --undefined-- 42.193
0.31 --undefined-- 41.928
0.32 --undefined-- 41.873
0.33 --undefined-- 43.671
0.34 --undefined-- 51.273
0.35 --undefined-- 58.703
0.36 --undefined-- 63.091
0.37 --undefined-- 65.126
0.38 --undefined-- 65.854
0.39 --undefined-- 67.459
0.40 --undefined-- 70.296
0.41 125.137 72.057
0.42 126.078 72.237
0.43 126.727 71.389
0.44 130.358 70.312
0.45 131.017 69.894
0.46 --undefined-- 69.698
0.47 --undefined-- 69.450
0.48 --undefined-- 70.622
0.49 --undefined-- 73.167
0.50 --undefined-- 74.510
0.51 --undefined-- 72.973
0.52 --undefined-- 69.492
0.53 --undefined-- 68.842
0.54 --undefined-- 70.188
0.55 --undefined-- 70.094
0.56 --undefined-- 68.110
0.57 --undefined-- 64.147
0.58 --undefined-- 58.009
0.59 --undefined-- 50.726
0.60 --undefined-- 45.415
0.61 --undefined-- 43.615
0.62 --undefined-- 46.918
0.63 --undefined-- 52.279
0.64 --undefined-- 57.515
0.65 --undefined-- 64.120
0.66 --undefined-- 69.958
0.67 --undefined-- 73.367
0.68 --undefined-- 74.651
0.69 --undefined-- 74.743
0.70 145.299 74.028
0.71 150.437 72.076
0.72 --undefined-- 68.339
0.73 --undefined-- 62.298
0.74 --undefined-- 55.093
0.75 --undefined-- 54.166
0.76 --undefined-- 56.594
0.77 --undefined-- 59.023
0.78 --undefined-- 60.880
0.79 --undefined-- 61.681
0.80 --undefined-- 66.126
0.81 --undefined-- 72.134
0.82 --undefined-- 75.333
0.83 160.282 76.187
0.84 157.528 75.592
0.85 157.851 74.136
0.86 157.832 72.872
0.87 156.921 72.350
0.88 158.472 71.783
0.89 159.698 71.389
0.90 159.250 71.150
0.91 159.156 69.462
0.92 159.286 65.127
0.93 158.739 58.768
0.94 156.731 55.915
0.95 152.027 56.848
0.96 149.810 59.105
0.97 142.705 64.238
0.98 138.712 69.633
0.99 133.794 72.906
1.00 131.108 74.030
1.01 128.229 73.813
1.02 126.590 73.305
1.03 127.275 72.940
1.04 129.217 72.105
1.05 129.742 70.255
1.06 135.700 67.973
1.07 142.805 66.280
1.08 142.534 65.261
1.09 148.686 64.124
1.10 --undefined-- 62.199
1.11 --undefined-- 60.253
1.12 --undefined-- 59.834
1.13 --undefined-- 61.768
1.14 --undefined-- 64.303
1.15 --undefined-- 66.035
1.16 --undefined-- 66.546
1.17 --undefined-- 65.841
1.18 --undefined-- 64.090
1.19 101.502 62.207
1.20 100.382 61.332
1.21 98.473 60.870
1.22 97.961 59.752
1.23 94.504 57.356
1.24 95.575 54.790
1.25 95.412 53.987
1.26 95.311 53.760
1.27 96.442 53.710
1.28 96.212 53.492
1.29 96.745 52.409
1.30 --undefined-- 50.529
1.31 --undefined-- 53.464
1.32 --undefined-- 60.191
1.33 --undefined-- 66.342
1.34 --undefined-- 70.952
1.35 --undefined-- 73.484
1.36 --undefined-- 73.942
1.37 --undefined-- 72.886
1.38 --undefined-- 71.459
1.39 --undefined-- 70.184
1.40 --undefined-- 69.010
1.41 --undefined-- 68.269
1.42 121.312 67.579
1.43 113.691 67.540
1.44 113.825 68.849
1.45 113.868 69.784
1.46 114.323 69.987
1.47 114.842 69.746
1.48 114.964 69.233
1.49 115.255 68.374
1.50 115.021 66.664
1.51 113.521 63.633
1.52 112.469 59.293
1.53 112.845 56.991
1.54 112.048 58.005
1.55 107.312 58.224
1.56 103.318 57.591
1.57 100.273 59.177
1.58 --undefined-- 63.778
1.59 --undefined-- 67.160
1.60 95.852 68.187
1.61 92.562 67.792
1.62 89.874 66.851
1.63 89.344 65.070
1.64 --undefined-- 61.783
1.65 --undefined-- 56.381
1.66 --undefined-- 49.379
1.67 --undefined-- 45.974
1.68 --undefined-- 45.083
1.69 --undefined-- 44.956
1.70 --undefined-- 45.874
1.71 --undefined-- 47.661
1.72 --undefined-- 50.079
1.73 93.118 51.505
1.74 92.603 51.697
1.75 93.369 51.299
1.76 93.468 50.311
1.77 --undefined-- 48.771
1.78 --undefined-- 48.091
1.79 --undefined-- 48.696
1.80 --undefined-- 50.485
1.81 --undefined-- 52.838
1.82 --undefined-- 54.873
1.83 --undefined-- 56.318
1.84 --undefined-- 56.886
1.85 --undefined-- 57.665
1.86 99.691 59.722
1.87 99.877 61.842
1.88 103.898 63.536
1.89 108.639 64.989
1.90 109.658 66.312
1.91 112.023 67.470
1.92 113.565 68.472
1.93 114.496 69.229
1.94 132.320 69.192
1.95 117.419 68.919
1.96 116.428 69.331
1.97 --undefined-- 69.879
1.98 --undefined-- 69.663
1.99 110.122 68.784
2.00 109.589 68.449
2.01 107.166 68.852
2.02 104.630 69.162
2.03 102.311 69.185
2.04 98.060 68.403
2.05 94.550 66.551
2.06 94.400 64.203
2.07 91.930 61.921
2.08 91.255 59.248
2.09 90.662 55.817
2.10 90.826 53.688
2.11 93.514 53.586
2.12 94.076 53.793
2.13 93.528 54.002
2.14 93.042 53.636
2.15 --undefined-- 51.702
2.16 --undefined-- 47.898
2.17 --undefined-- 42.531
2.18 --undefined-- 39.496
2.19 --undefined-- 50.711
2.20 --undefined-- 60.512
2.21 --undefined-- 65.234
2.22 --undefined-- 66.427
2.23 --undefined-- 66.838
2.24 --undefined-- 67.450
2.25 --undefined-- 67.776
2.26 --undefined-- 69.046
2.27 --undefined-- 70.990
2.28 121.019 72.576
2.29 121.850 73.110
2.30 116.336 72.228
2.31 113.263 70.250
2.32 111.898 68.425
2.33 110.207 67.448
2.34 109.987 66.475
2.35 110.278 65.377
2.36 110.099 64.777
2.37 110.173 64.662
2.38 110.252 65.075
2.39 110.203 65.646
2.40 110.235 65.506
2.41 --undefined-- 63.199
2.42 --undefined-- 57.485
2.43 --undefined-- 48.007
2.44 --undefined-- 47.506
2.45 --undefined-- 58.387
2.46 --undefined-- 65.736
2.47 --undefined-- 70.891
2.48 --undefined-- 74.048
2.49 --undefined-- 74.842
2.50 --undefined-- 73.652
2.51 91.534 71.785
2.52 91.151 70.425
2.53 92.970 69.535
2.54 85.650 68.844
2.55 84.651 68.479
2.56 91.723 68.329
2.57 93.320 67.059
2.58 104.526 63.772
2.59 103.068 59.218
2.60 109.368 54.754
2.61 109.879 51.510
2.62 114.680 50.768
2.63 117.637 52.113
2.64 --undefined-- 54.983
2.65 --undefined-- 57.127
2.66 --undefined-- 56.693
2.67 --undefined-- 53.626
2.68 --undefined-- 49.063
2.69 --undefined-- 46.259
2.70 --undefined-- 51.228
2.71 --undefined-- 57.692
2.72 --undefined-- 62.476
2.73 --undefined-- 65.649
2.74 --undefined-- 67.132
2.75 --undefined-- 67.449
2.76 --undefined-- 66.976
2.77 --undefined-- 65.339
2.78 --undefined-- 63.336
2.79 --undefined-- 64.118
2.80 130.380 67.103
2.81 129.438 69.175
2.82 130.319 69.986
2.83 133.151 70.581
2.84 133.614 71.386
2.85 133.004 71.981
2.86 131.261 72.517
2.87 135.800 72.699
2.88 --undefined-- 71.751
2.89 --undefined-- 69.481
2.90 --undefined-- 66.953
2.91 --undefined-- 65.691
2.92 --undefined-- 65.819
2.93 --undefined-- 67.428
2.94 --undefined-- 69.076
2.95 --undefined-- 70.917
2.96 --undefined-- 72.039
2.97 108.854 71.547
2.98 106.784 69.439
2.99 96.281 65.900
3.00 90.831 61.918
3.01 91.833 58.971
3.02 90.167 57.205
3.03 89.310 57.007
3.04 89.397 58.073
3.05 93.786 60.543
3.06 96.149 63.239
3.07 97.347 64.664
3.08 96.899 64.547
3.09 100.533 63.752
3.10 101.788 63.351
3.11 101.638 63.682
3.12 101.581 66.557
3.13 --undefined-- 70.779
3.14 107.341 73.182
3.15 108.663 73.953
3.16 110.152 74.152
3.17 112.740 74.153
3.18 113.804 73.640
3.19 115.171 72.523
3.20 117.493 71.282
3.21 117.703 69.667
3.22 116.399 67.260
3.23 115.407 64.185
3.24 --undefined-- 60.206
3.25 --undefined-- 54.689
3.26 --undefined-- 47.646
3.27 --undefined-- 41.229
3.28 --undefined-- 38.115
3.29 --undefined-- 36.228
3.30 --undefined-- 34.388
3.31 --undefined-- 35.107
3.32 --undefined-- 37.016
3.33 --undefined-- 38.345
3.34 --undefined-- 40.059
3.35 --undefined-- 42.166
3.36 --undefined-- 43.716
3.37 --undefined-- 45.272
3.38 --undefined-- 46.698
3.39 --undefined-- 47.469
3.40 --undefined-- 48.275
3.41 --undefined-- 49.393
3.42 --undefined-- 50.382
3.43 --undefined-- 51.064
3.44 --undefined-- 51.335
3.45 --undefined-- 51.737
3.46 --undefined-- 52.879
3.47 --undefined-- 53.790
3.48 --undefined-- 53.577
3.49 --undefined-- 53.386
3.50 --undefined-- 53.445
3.51 --undefined-- 52.675
3.52 --undefined-- 51.648
3.53 --undefined-- 50.926
3.54 --undefined-- 50.005
3.55 --undefined-- 48.424
3.56 --undefined-- 46.753
3.57 --undefined-- 45.370
3.58 --undefined-- 43.690
3.59 --undefined-- 41.796
3.60 --undefined-- 41.076
3.61 --undefined-- 41.605
3.62 --undefined-- 42.017
3.63 --undefined-- 42.132
3.64 --undefined-- 42.262
3.65 --undefined-- 43.696
3.66 --undefined-- 49.468
3.67 --undefined-- 54.123
3.68 --undefined-- 56.654
3.69 --undefined-- 58.830
3.70 --undefined-- 60.986
3.71 --undefined-- 62.810
3.72 --undefined-- 64.534
3.73 --undefined-- 66.041
3.74 --undefined-- 66.914
3.75 --undefined-- 67.309
3.76 --undefined-- 67.297
3.77 --undefined-- 66.537
3.78 --undefined-- 66.777
3.79 --undefined-- 69.621
3.80 --undefined-- 72.137
3.81 155.431 73.448
3.82 154.036 73.509
3.83 152.401 72.454
3.84 150.251 71.456
3.85 149.748 71.526
3.86 149.945 72.320
3.87 150.634 73.222
3.88 150.977 73.654
3.89 151.569 73.243
3.90 151.173 72.193
3.91 150.616 71.484
3.92 150.231 71.625
3.93 150.076 72.045
3.94 150.138 72.438
3.95 150.264 72.776
3.96 149.625 72.937
3.97 146.953 72.344
3.98 144.564 70.031
3.99 --undefined-- 65.050
4.00 --undefined-- 56.602
4.01 --undefined-- 47.958
4.02 --undefined-- 52.972
4.03 --undefined-- 56.352
4.04 --undefined-- 57.178
4.05 --undefined-- 59.104
4.06 --undefined-- 62.068
4.07 --undefined-- 63.258
4.08 --undefined-- 63.995
4.09 159.010 67.965
4.10 149.492 71.257
4.11 147.264 72.122
4.12 143.528 71.201
4.13 142.293 70.319
4.14 141.890 70.791
4.15 141.734 71.446
4.16 141.745 71.612
4.17 141.818 71.547
4.18 141.770 71.786
4.19 141.407 72.258
4.20 140.699 72.309
4.21 141.062 71.226
4.22 138.072 69.145
4.23 139.012 68.348
4.24 138.109 69.342
4.25 138.730 71.121
4.26 138.576 73.007
4.27 137.846 74.363
4.28 137.896 74.949
4.29 137.895 74.837
4.30 137.138 74.331
4.31 135.536 73.492
4.32 133.526 72.218
4.33 129.775 70.514
4.34 128.476 68.982
4.35 129.562 68.238
4.36 129.114 67.290
4.37 126.797 64.988
4.38 124.684 60.965
4.39 --undefined-- 54.515
4.40 --undefined-- 46.503
4.41 --undefined-- 42.626
4.42 --undefined-- 41.332
4.43 --undefined-- 40.676
4.44 --undefined-- 39.157
4.45 --undefined-- 35.864
4.46 --undefined-- 35.113
4.47 --undefined-- 36.673
4.48 --undefined-- 36.398
4.49 --undefined-- 33.821
4.50 --undefined-- 33.088
4.51 --undefined-- 38.040
4.52 --undefined-- 42.901
4.53 --undefined-- 47.484
4.54 --undefined-- 52.722
4.55 --undefined-- 56.856
4.56 --undefined-- 59.390
4.57 --undefined-- 60.749
4.58 --undefined-- 62.343
4.59 --undefined-- 65.292
4.60 --undefined-- 68.433
4.61 --undefined-- 70.337
4.62 --undefined-- 71.108
4.63 --undefined-- 71.694
4.64 132.099 72.779
4.65 133.402 73.634
4.66 132.630 73.398
4.67 129.495 72.620
4.68 127.564 72.079
4.69 125.743 71.563
4.70 121.925 71.344
4.71 118.500 70.486
4.72 113.934 68.060
4.73 108.583 65.157
4.74 105.059 62.570
4.75 105.959 59.670
4.76 102.533 55.882
4.77 --undefined-- 51.143
4.78 --undefined-- 46.651
4.79 --undefined-- 44.442
4.80 --undefined-- 45.544
4.81 --undefined-- 48.620
4.82 --undefined-- 51.641
4.83 --undefined-- 54.785
4.84 --undefined-- 57.954
4.85 100.242 60.937
4.86 102.747 63.314
4.87 104.746 65.046
4.88 106.990 65.865
4.89 106.914 65.068
4.90 --undefined-- 61.966
4.91 --undefined-- 56.454
4.92 --undefined-- 50.564
4.93 --undefined-- 45.559
4.94 --undefined-- 41.780
4.95 --undefined-- 43.796
4.96 --undefined-- 46.600
4.97 --undefined-- 58.839
4.98 --undefined-- 68.395
4.99 --undefined-- 72.829
5.00 --undefined-- 73.059
5.01 --undefined-- 71.250
5.02 --undefined-- 71.100
5.03 83.999 70.761
5.04 85.523 69.314
5.05 --undefined-- 67.158
5.06 --undefined-- 63.732
5.07 --undefined-- 58.309
5.08 --undefined-- 50.851
5.09 --undefined-- 46.946
5.10 --undefined-- 46.351
5.11 --undefined-- 45.790
5.12 --undefined-- 45.468
5.13 --undefined-- 45.778
5.14 --undefined-- 47.236
5.15 --undefined-- 49.943
5.16 123.411 53.058
5.17 127.135 55.827
5.18 130.764 57.983
5.19 131.723 59.230
5.20 132.527 59.220
5.21 132.657 57.580
5.22 127.591 54.326
5.23 --undefined-- 54.179
5.24 --undefined-- 61.491
5.25 --undefined-- 68.021
5.26 --undefined-- 72.164
5.27 --undefined-- 73.800
5.28 --undefined-- 73.591
5.29 --undefined-- 72.254
5.30 102.382 69.955
5.31 101.355 66.571
5.32 101.911 62.229
5.33 --undefined-- 56.512
5.34 --undefined-- 50.169
5.35 --undefined-- 48.591
5.36 117.116 50.123
5.37 116.482 51.208
5.38 115.689 51.908
5.39 115.570 52.980
5.40 117.158 --undefined--
5.41 120.318 --undefined--
5.42 --undefined-- --undefined--
5.43 --undefined-- --undefined--
