Time Pitch Intensity
0.01 --undefined-- --undefined--
0.02 101.470 --undefined--
0.03 102.075 --undefined--
0.04 101.759 --undefined--
0.05 --undefined-- 69.102
0.06 --undefined-- 68.252
0.07 95.024 67.767
0.08 95.406 67.854
0.09 95.775 67.423
0.10 96.387 66.789
0.11 97.314 66.372
0.12 98.519 65.928
0.13 99.437 65.521
0.14 99.032 65.317
0.15 98.739 65.224
0.16 99.048 64.847
0.17 98.560 64.260
0.18 97.411 64.140
0.19 96.895 64.461
0.20 96.837 64.093
0.21 100.550 62.970
0.22 --undefined-- 62.086
0.23 --undefined-- 59.976
0.24 97.853 56.072
0.25 98.683 54.200
0.26 100.036 54.440
0.27 100.627 54.486
0.28 100.592 54.684
0.29 100.410 55.728
0.30 99.656 56.535
0.31 99.261 57.842
0.32 100.846 61.405
0.33 102.431 64.769
0.34 102.468 66.729
0.35 102.233 67.746
0.36 101.453 68.219
0.37 100.295 68.198
0.38 99.313 67.789
0.39 98.861 67.158
0.40 98.505 66.171
0.41 --undefined-- 64.003
0.42 --undefined-- 61.538
0.43 --undefined-- 61.274
0.44 --undefined-- 60.826
0.45 --undefined-- 60.120
0.46 --undefined-- 60.311
0.47 --undefined-- 58.401
0.48 --undefined-- 53.432
0.49 --undefined-- 50.276
0.50 --undefined-- 52.048
0.51 --undefined-- 53.742
0.52 --undefined-- 54.848
0.53 --undefined-- 55.533
0.54 --undefined-- 55.091
0.55 --undefined-- 53.703
0.56 --undefined-- 55.479
0.57 107.915 61.590
0.58 107.264 66.406
0.59 103.286 68.807
0.60 101.387 69.306
0.61 100.789 69.040
0.62 100.654 68.914
0.63 100.757 68.604
0.64 100.738 67.927
0.65 104.226 66.608
0.66 --undefined-- 63.664
0.67 --undefined-- 58.276
0.68 --undefined-- 51.324
0.69 --undefined-- 46.188
0.70 --undefined-- 43.255
0.71 --undefined-- 42.923
0.72 --undefined-- 48.429
0.73 --undefined-- 54.919
0.74 --undefined-- 59.840
0.75 --undefined-- 63.752
0.76 --undefined-- 67.581
0.77 --undefined-- 71.449
0.78 109.011 73.810
0.79 112.710 74.508
0.80 113.713 74.385
0.81 113.594 74.008
0.82 113.088 73.046
0.83 112.728 70.897
0.84 112.215 67.447
0.85 113.683 63.628
0.86 116.393 61.455
0.87 113.553 60.432
0.88 113.208 59.182
0.89 109.185 57.076
0.90 --undefined-- 57.393
0.91 --undefined-- 63.468
0.92 109.423 67.926
0.93 107.451 69.652
0.94 104.047 69.260
0.95 100.710 67.698
0.96 100.191 66.106
0.97 100.480 64.523
0.98 101.586 62.851
0.99 102.227 61.068
1.00 101.708 58.357
1.01 101.915 54.665
1.02 --undefined-- 50.895
1.03 --undefined-- 48.302
1.04 --undefined-- 46.876
1.05 --undefined-- 45.455
1.06 --undefined-- 44.889
1.07 --undefined-- 45.990
1.08 --undefined-- 47.684
1.09 --undefined-- 52.003
1.10 --undefined-- 59.405
1.11 --undefined-- 64.937
1.12 102.483 67.765
1.13 90.965 68.152
1.14 74.962 68.111
1.15 --undefined-- 68.847
1.16 --undefined-- 68.582
1.17 --undefined-- 66.837
1.18 --undefined-- 63.197
1.19 --undefined-- 62.598
1.20 --undefined-- 64.133
1.21 --undefined-- 63.825
1.22 --undefined-- 64.219
1.23 --undefined-- 65.067
1.24 --undefined-- 65.414
1.25 --undefined-- 64.731
1.26 --undefined-- 63.535
1.27 --undefined-- 63.323
1.28 --undefined-- 64.757
1.29 --undefined-- 65.320
1.30 --undefined-- 65.505
1.31 --undefined-- 66.566
1.32 --undefined-- 67.862
1.33 100.630 68.324
1.34 100.682 67.328
1.35 98.139 64.958
1.36 98.382 62.196
1.37 103.759 60.567
1.38 103.869 59.490
1.39 103.700 58.041
1.40 --undefined-- 56.076
1.41 --undefined-- 53.399
1.42 --undefined-- 49.775
1.43 --undefined-- 46.046
1.44 --undefined-- 42.799
1.45 --undefined-- 41.323
1.46 --undefined-- 40.515
1.47 --undefined-- 39.611
1.48 --undefined-- 39.715
1.49 --undefined-- 40.090
1.50 --undefined-- 41.699
1.51 --undefined-- 45.302
1.52 --undefined-- 48.103
1.53 --undefined-- 49.126
1.54 --undefined-- 54.081
1.55 --undefined-- 60.973
1.56 --undefined-- 65.169
1.57 128.781 67.184
1.58 128.557 68.155
1.59 129.587 68.896
1.60 130.326 69.280
1.61 131.399 68.858
1.62 133.729 67.332
1.63 135.459 64.562
1.64 137.990 61.173
1.65 141.555 59.794
1.66 144.433 61.507
1.67 150.536 64.184
1.68 156.231 66.548
1.69 158.335 67.873
1.70 159.291 68.025
1.71 162.031 67.649
1.72 164.636 67.580
1.73 165.923 67.761
1.74 166.048 67.756
1.75 166.664 67.345
1.76 166.883 66.162
1.77 165.298 63.418
1.78 162.303 58.402
1.79 --undefined-- 54.718
1.80 --undefined-- 58.430
1.81 --undefined-- 60.493
1.82 --undefined-- 59.798
1.83 --undefined-- 57.989
1.84 --undefined-- 56.907
1.85 --undefined-- 56.440
1.86 --undefined-- 56.202
1.87 --undefined-- 60.586
1.88 --undefined-- 67.647
1.89 --undefined-- 72.266
1.90 --undefined-- 74.450
1.91 --undefined-- 75.207
1.92 130.765 75.556
1.93 131.181 75.515
1.94 132.942 74.993
1.95 135.501 74.316
1.96 138.295 73.416
1.97 139.981 72.177
1.98 140.247 70.441
1.99 138.894 67.226
2.00 137.636 61.597
2.01 129.171 54.411
2.02 --undefined-- 53.934
2.03 --undefined-- 62.179
2.04 145.253 68.270
2.05 143.247 71.392
2.06 137.488 72.160
2.07 133.715 71.474
2.08 130.424 70.182
2.09 124.611 68.907
2.10 120.350 67.962
2.11 118.809 67.167
2.12 118.568 66.234
2.13 118.688 65.264
2.14 118.681 64.573
2.15 119.150 64.149
2.16 --undefined-- 62.798
2.17 --undefined-- 58.825
2.18 133.428 55.623
2.19 134.751 61.241
2.20 135.292 66.316
2.21 126.672 69.230
2.22 125.908 70.768
2.23 127.336 71.713
2.24 130.792 72.059
2.25 139.343 72.043
2.26 145.932 72.272
2.27 151.641 72.595
2.28 154.395 72.422
2.29 157.999 71.385
2.30 162.952 69.232
2.31 166.565 65.842
2.32 153.294 60.741
2.33 155.101 53.931
2.34 --undefined-- 48.064
2.35 --undefined-- 43.585
2.36 --undefined-- 38.914
2.37 --undefined-- 34.556
2.38 --undefined-- 42.193
2.39 --undefined-- 55.970
2.40 --undefined-- 65.020
2.41 --undefined-- 70.216
2.42 148.916 72.716
2.43 144.305 73.589
2.44 138.527 73.714
2.45 136.194 73.466
2.46 133.842 72.609
2.47 132.644 70.842
2.48 132.160 68.167
2.49 132.229 65.232
2.50 132.649 62.914
2.51 130.109 60.622
2.52 129.089 57.302
2.53 126.033 52.960
2.54 --undefined-- 48.656
2.55 --undefined-- 45.466
2.56 --undefined-- 43.206
2.57 --undefined-- 42.472
2.58 --undefined-- 44.407
2.59 --undefined-- 46.810
2.60 --undefined-- 47.977
2.61 --undefined-- 50.133
2.62 244.401 52.216
2.63 --undefined-- 52.906
2.64 --undefined-- 54.321
2.65 130.482 57.569
2.66 124.736 60.060
2.67 125.552 61.272
2.68 118.589 61.645
2.69 115.083 61.376
2.70 112.355 61.313
2.71 111.112 61.603
2.72 110.132 61.895
2.73 109.832 62.241
2.74 109.692 62.326
2.75 109.465 62.067
2.76 109.298 61.579
2.77 108.511 60.891
2.78 106.092 60.337
2.79 106.065 59.931
2.80 106.246 59.517
2.81 106.662 58.975
2.82 107.126 58.146
2.83 106.565 56.649
2.84 105.501 53.746
2.85 --undefined-- 48.984
2.86 --undefined-- 44.009
2.87 --undefined-- 41.480
2.88 --undefined-- 40.862
2.89 --undefined-- 47.284
2.90 --undefined-- 55.281
2.91 --undefined-- 60.343
2.92 --undefined-- 62.352
2.93 --undefined-- 62.099
2.94 --undefined-- 60.253
2.95 --undefined-- 58.422
2.96 116.221 59.120
2.97 115.819 60.684
2.98 115.601 61.886
2.99 115.274 62.695
3.00 115.008 63.168
3.01 114.558 63.374
3.02 114.526 63.543
3.03 113.997 63.664
3.04 113.548 63.066
3.05 111.744 61.427
3.06 113.233 60.389
3.07 114.292 60.951
3.08 113.650 61.538
3.09 111.960 61.734
3.10 108.858 63.053
3.11 106.225 66.716
3.12 --undefined-- 69.959
3.13 --undefined-- 71.328
3.14 --undefined-- 70.913
3.15 --undefined-- 68.958
3.16 --undefined-- 65.897
3.17 --undefined-- 62.518
3.18 --undefined-- 58.654
3.19 --undefined-- 55.351
3.20 --undefined-- 54.204
3.21 --undefined-- 53.500
3.22 --undefined-- 52.927
3.23 --undefined-- 52.214
3.24 --undefined-- 51.298
3.25 --undefined-- 51.427
3.26 --undefined-- 51.347
3.27 --undefined-- 51.413
3.28 --undefined-- 52.297
3.29 --undefined-- 52.412
3.30 --undefined-- 50.895
3.31 --undefined-- 49.100
3.32 --undefined-- 48.730
3.33 --undefined-- 48.407
3.34 --undefined-- 48.743
3.35 --undefined-- 53.338
3.36 140.289 58.330
3.37 138.096 61.368
3.38 138.999 62.764
3.39 139.941 63.297
3.40 141.012 63.515
3.41 141.654 63.531
3.42 141.725 63.158
3.43 141.268 62.173
3.44 140.724 60.308
3.45 139.215 57.264
3.46 --undefined-- 53.867
3.47 --undefined-- 52.408
3.48 --undefined-- 52.672
3.49 --undefined-- 53.254
3.50 --undefined-- 53.256
3.51 --undefined-- 53.707
3.52 --undefined-- 54.298
3.53 --undefined-- 53.668
3.54 --undefined-- 51.523
3.55 --undefined-- 51.518
3.56 --undefined-- 57.873
3.57 --undefined-- 63.042
3.58 116.002 66.462
3.59 113.149 69.073
3.60 111.423 70.629
3.61 109.856 70.653
3.62 109.357 69.731
3.63 110.816 69.147
3.64 112.054 69.219
3.65 114.259 70.085
3.66 115.059 70.866
3.67 115.113 70.573
3.68 116.218 69.461
3.69 117.538 67.903
3.70 121.646 65.677
3.71 124.128 62.656
3.72 135.208 58.767
3.73 138.625 54.696
3.74 143.467 51.895
3.75 --undefined-- 49.457
3.76 --undefined-- 46.461
3.77 --undefined-- 43.044
3.78 --undefined-- 40.708
3.79 --undefined-- 39.848
3.80 --undefined-- 38.481
3.81 --undefined-- 38.308
3.82 --undefined-- 44.664
3.83 --undefined-- 50.633
3.84 --undefined-- 52.856
3.85 --undefined-- 52.536
3.86 --undefined-- 51.538
3.87 --undefined-- 51.666
3.88 --undefined-- 56.555
3.89 121.387 61.297
3.90 113.292 64.434
3.91 110.633 65.770
3.92 --undefined-- 64.665
3.93 --undefined-- 60.760
3.94 --undefined-- 54.979
3.95 --undefined-- 51.514
3.96 --undefined-- 55.899
3.97 --undefined-- 60.936
3.98 95.033 63.848
3.99 96.972 64.941
4.00 90.786 64.047
4.01 90.726 62.135
4.02 90.959 60.833
4.03 79.156 59.700
4.04 --undefined-- 58.913
4.05 --undefined-- 57.017
4.06 --undefined-- 52.407
4.07 --undefined-- 47.324
4.08 --undefined-- 44.670
4.09 --undefined-- 42.493
4.10 --undefined-- 41.240
4.11 --undefined-- 40.202
4.12 --undefined-- 39.473
4.13 --undefined-- 38.929
4.14 --undefined-- 38.675
4.15 --undefined-- 38.167
4.16 --undefined-- 38.360
4.17 --undefined-- 40.046
4.18 --undefined-- 40.755
4.19 --undefined-- 40.963
4.20 --undefined-- 43.649
4.21 --undefined-- 51.412
4.22 --undefined-- 58.951
4.23 --undefined-- 63.825
4.24 --undefined-- 66.516
4.25 --undefined-- 67.544
4.26 90.427 67.290
4.27 90.877 66.469
4.28 87.819 65.616
4.29 88.017 65.075
4.30 87.591 64.879
4.31 88.548 64.690
4.32 88.675 64.465
4.33 87.730 63.975
4.34 86.253 62.685
4.35 85.603 60.715
4.36 87.769 59.220
4.37 84.723 59.119
4.38 --undefined-- 59.670
4.39 --undefined-- 59.557
4.40 --undefined-- 59.806
4.41 --undefined-- 59.846
4.42 86.556 58.499
4.43 87.280 57.692
4.44 87.614 57.818
4.45 84.695 58.058
4.46 87.247 58.145
4.47 75.392 57.582
4.48 76.716 55.797
4.49 --undefined-- 52.717
4.50 --undefined-- 49.478
4.51 --undefined-- 46.829
4.52 --undefined-- 43.254
4.53 --undefined-- 39.418
4.54 --undefined-- 37.588
4.55 --undefined-- 38.191
4.56 --undefined-- 38.307
4.57 --undefined-- 37.475
4.58 --undefined-- 37.147
4.59 --undefined-- 36.600
4.60 --undefined-- 36.190
4.61 --undefined-- 36.683
4.62 --undefined-- 36.893
4.63 --undefined-- 36.955
4.64 --undefined-- 37.030
4.65 --undefined-- 36.702
4.66 --undefined-- 36.580
4.67 --undefined-- 37.343
4.68 --undefined-- 39.495
4.69 --undefined-- 42.047
4.70 --undefined-- 44.691
4.71 --undefined-- 47.034
4.72 --undefined-- 48.351
4.73 --undefined-- 48.019
4.74 --undefined-- 47.615
4.75 --undefined-- 50.854
4.76 --undefined-- 54.060
4.77 --undefined-- 54.860
4.78 90.235 53.555
4.79 --undefined-- 51.183
4.80 --undefined-- 49.053
4.81 --undefined-- 46.570
4.82 --undefined-- 46.149
4.83 --undefined-- 47.674
4.84 --undefined-- 47.041
4.85 --undefined-- 44.882
4.86 --undefined-- 42.606
4.87 --undefined-- 39.825
4.88 --undefined-- 45.931
4.89 --undefined-- 56.499
4.90 --undefined-- 63.332
4.91 --undefined-- 66.942
4.92 118.910 68.719
4.93 117.997 70.199
4.94 119.471 71.212
4.95 121.494 71.500
4.96 123.527 71.512
4.97 123.725 71.362
4.98 123.622 70.744
4.99 123.822 69.527
5.00 124.029 68.225
5.01 123.588 67.236
5.02 123.312 65.843
5.03 124.264 63.378
5.04 123.461 59.809
5.05 120.572 55.347
5.06 --undefined-- 49.875
5.07 --undefined-- 44.592
5.08 --undefined-- 47.430
5.09 --undefined-- 53.744
5.10 --undefined-- 56.915
5.11 --undefined-- 56.838
5.12 --undefined-- 58.377
5.13 --undefined-- 63.234
5.14 --undefined-- 66.302
5.15 --undefined-- 67.254
5.16 93.350 66.555
5.17 91.922 65.189
5.18 94.299 64.494
5.19 --undefined-- 64.428
5.20 99.865 65.038
5.21 88.131 65.386
5.22 101.627 65.598
5.23 90.101 66.104
5.24 90.156 66.131
5.25 --undefined-- 65.972
5.26 --undefined-- 64.426
5.27 --undefined-- 61.228
5.28 --undefined-- 57.055
5.29 --undefined-- 51.403
5.30 --undefined-- 45.020
5.31 --undefined-- 41.312
5.32 --undefined-- 45.942
5.33 --undefined-- 51.492
5.34 --undefined-- 54.859
5.35 --undefined-- 59.274
5.36 --undefined-- 62.425
5.37 --undefined-- 63.518
5.38 --undefined-- 63.262
5.39 --undefined-- 61.117
5.40 104.563 58.745
5.41 104.252 58.411
5.42 103.440 --undefined--
5.43 101.238 --undefined--
5.44 --undefined-- --undefined--
5.45 --undefined-- --undefined--
