Time Pitch Intensity
0.01 --undefined-- --undefined--
0.02 --undefined-- --undefined--
0.03 112.636 --undefined--
0.04 119.360 --undefined--
0.05 118.799 68.920
0.06 118.006 69.731
0.07 118.166 70.372
0.08 115.332 70.680
0.09 114.278 70.440
0.10 111.396 69.947
0.11 109.194 69.554
0.12 107.255 69.189
0.13 104.950 68.784
0.14 103.964 68.555
0.15 102.419 68.404
0.16 101.708 68.349
0.17 104.111 68.627
0.18 105.196 68.876
0.19 107.022 68.594
0.20 109.509 67.666
0.21 110.221 66.304
0.22 111.336 64.884
0.23 112.561 63.733
0.24 114.577 63.237
0.25 118.171 63.840
0.26 123.279 65.889
0.27 128.631 69.031
0.28 133.176 72.196
0.29 135.582 74.356
0.30 134.957 75.074
0.31 132.191 74.799
0.32 128.245 74.468
0.33 126.640 73.265
0.34 --undefined-- 70.190
0.35 --undefined-- 65.860
0.36 --undefined-- 60.310
0.37 --undefined-- 52.100
0.38 --undefined-- 45.978
0.39 --undefined-- 46.039
0.40 --undefined-- 52.986
0.41 139.770 59.732
0.42 137.252 63.733
0.43 128.462 65.836
0.44 132.029 67.641
0.45 136.601 70.003
0.46 132.899 72.013
0.47 130.635 72.828
0.48 125.491 72.596
0.49 119.808 71.708
0.50 115.746 70.710
0.51 119.219 70.759
0.52 118.524 71.722
0.53 116.834 72.730
0.54 116.256 73.227
0.55 116.493 73.125
0.56 116.550 72.576
0.57 115.665 71.468
0.58 113.154 69.565
0.59 106.308 67.209
0.60 105.221 67.213
0.61 114.142 69.438
0.62 114.203 70.771
0.63 110.758 70.646
0.64 103.228 69.486
0.65 97.796 68.044
0.66 92.818 66.838
0.67 92.434 66.088
0.68 91.824 66.030
0.69 97.373 66.520
0.70 95.305 66.824
0.71 96.765 67.047
0.72 99.031 67.357
0.73 102.133 67.346
0.74 103.346 66.432
0.75 101.920 64.191
0.76 99.711 60.279
0.77 --undefined-- 54.378
0.78 --undefined-- 47.200
0.79 --undefined-- 46.271
0.80 --undefined-- 57.547
0.81 --undefined-- 66.490
0.82 148.492 71.862
0.83 140.970 74.766
0.84 138.032 76.311
0.85 135.895 77.085
0.86 134.807 77.367
0.87 135.331 77.415
0.88 135.969 77.315
0.89 136.144 77.285
0.90 136.016 77.445
0.91 135.971 77.425
0.92 136.306 76.663
0.93 135.990 74.969
0.94 134.876 73.733
0.95 138.357 74.015
0.96 139.583 74.563
0.97 139.752 74.942
0.98 139.529 75.151
0.99 138.723 75.238
1.00 138.732 75.138
1.01 136.262 74.660
1.02 131.170 74.002
1.03 130.428 74.005
1.04 138.132 74.797
1.05 140.161 75.497
1.06 135.088 76.074
1.07 136.132 76.795
1.08 135.666 77.266
1.09 134.561 77.610
1.10 133.299 78.038
1.11 132.994 78.338
1.12 132.499 78.262
1.13 133.107 77.945
1.14 134.143 77.558
1.15 135.581 77.174
1.16 136.839 76.753
1.17 137.258 76.118
1.18 138.713 75.244
1.19 139.935 74.334
1.20 141.294 73.427
1.21 141.627 72.182
1.22 140.451 70.449
1.23 137.631 68.136
1.24 131.280 65.097
1.25 --undefined-- 62.289
1.26 --undefined-- 59.317
1.27 --undefined-- 53.848
1.28 --undefined-- 45.649
1.29 --undefined-- 40.323
1.30 --undefined-- 38.424
1.31 --undefined-- 37.298
1.32 --undefined-- 37.980
1.33 --undefined-- 38.302
1.34 --undefined-- 37.473
1.35 --undefined-- 36.830
1.36 --undefined-- 36.229
1.37 --undefined-- 36.765
1.38 --undefined-- 37.978
1.39 --undefined-- 37.408
1.40 --undefined-- 37.424
1.41 --undefined-- 39.189
1.42 --undefined-- 39.345
1.43 --undefined-- 36.885
1.44 --undefined-- 34.455
1.45 --undefined-- 35.508
1.46 --undefined-- 36.547
1.47 --undefined-- 36.970
1.48 --undefined-- 35.897
1.49 --undefined-- 35.250
1.50 --undefined-- 37.333
1.51 --undefined-- 38.213
1.52 --undefined-- 36.547
1.53 --undefined-- 33.574
1.54 --undefined-- 32.685
1.55 --undefined-- 32.676
1.56 --undefined-- 32.832
1.57 --undefined-- 34.581
1.58 --undefined-- 37.100
1.59 --undefined-- 38.690
1.60 --undefined-- 38.722
1.61 --undefined-- 37.963
1.62 --undefined-- 38.098
1.63 --undefined-- 38.458
1.64 --undefined-- 38.419
1.65 --undefined-- 37.994
1.66 --undefined-- 37.661
1.67 --undefined-- 37.606
1.68 --undefined-- 36.280
1.69 --undefined-- 36.266
1.70 --undefined-- 37.887
1.71 --undefined-- 37.446
1.72 --undefined-- 35.939
1.73 --undefined-- 35.490
1.74 --undefined-- 36.743
1.75 --undefined-- 37.684
1.76 --undefined-- 37.741
1.77 --undefined-- 38.610
1.78 --undefined-- 39.432
1.79 --undefined-- 38.158
1.80 --undefined-- 36.112
1.81 --undefined-- 36.651
1.82 --undefined-- 37.083
1.83 --undefined-- 36.764
1.84 --undefined-- 37.810
1.85 --undefined-- 39.680
1.86 --undefined-- 40.599
1.87 --undefined-- 40.660
1.88 --undefined-- 41.430
1.89 --undefined-- 41.237
1.90 --undefined-- 39.339
1.91 --undefined-- 37.722
1.92 --undefined-- 37.410
1.93 --undefined-- 37.770
1.94 --undefined-- 38.213
1.95 --undefined-- 38.629
1.96 --undefined-- 39.116
1.97 --undefined-- 39.975
1.98 --undefined-- 40.138
1.99 --undefined-- 39.023
2.00 --undefined-- 37.908
2.01 --undefined-- 37.636
2.02 --undefined-- 37.928
2.03 --undefined-- 38.503
2.04 --undefined-- 39.359
2.05 --undefined-- 39.829
2.06 --undefined-- 39.769
2.07 --undefined-- 39.772
2.08 --undefined-- 39.379
2.09 --undefined-- 39.103
2.10 --undefined-- 39.309
2.11 --undefined-- 39.752
2.12 --undefined-- 39.879
2.13 --undefined-- 39.337
2.14 --undefined-- 39.181
2.15 --undefined-- 38.992
2.16 --undefined-- 37.870
2.17 --undefined-- 37.314
2.18 --undefined-- 37.315
2.19 --undefined-- 36.781
2.20 --undefined-- 35.821
2.21 --undefined-- 35.893
2.22 --undefined-- 36.483
2.23 --undefined-- 35.604
2.24 --undefined-- 35.568
2.25 --undefined-- 46.694
2.26 --undefined-- 60.181
2.27 --undefined-- 69.386
2.28 176.379 75.198
2.29 178.388 78.512
2.30 183.250 80.002
2.31 186.460 80.059
2.32 188.285 79.230
2.33 190.090 78.509
2.34 190.764 78.579
2.35 190.700 78.989
2.36 190.659 79.110
2.37 191.710 78.895
2.38 194.416 78.549
2.39 197.835 78.170
2.40 199.807 77.869
2.41 199.818 77.677
2.42 200.495 77.159
2.43 201.170 75.359
2.44 191.191 71.417
2.45 178.198 65.364
2.46 --undefined-- 58.268
2.47 --undefined-- 51.067
2.48 --undefined-- 54.269
2.49 --undefined-- 65.889
2.50 --undefined-- 74.343
2.51 236.618 79.066
2.52 221.891 80.861
2.53 214.594 81.072
2.54 210.212 81.165
2.55 207.210 81.183
2.56 207.934 80.394
2.57 211.085 78.793
2.58 210.613 77.561
2.59 206.042 76.942
2.60 201.378 75.288
2.61 197.396 71.154
2.62 186.189 63.881
2.63 --undefined-- 54.765
2.64 --undefined-- 47.437
2.65 --undefined-- 43.930
2.66 --undefined-- 46.935
2.67 --undefined-- 59.550
2.68 --undefined-- 68.727
2.69 --undefined-- 73.973
2.70 194.429 76.160
2.71 189.007 76.531
2.72 187.756 76.293
2.73 187.750 75.020
2.74 186.798 71.427
2.75 --undefined-- 64.511
2.76 --undefined-- 53.841
2.77 --undefined-- 45.346
2.78 --undefined-- 43.304
2.79 --undefined-- 41.180
2.80 --undefined-- 39.204
2.81 --undefined-- 37.995
2.82 --undefined-- 41.593
2.83 --undefined-- 56.132
2.84 --undefined-- 66.295
2.85 --undefined-- 72.471
2.86 --undefined-- 75.522
2.87 136.346 76.136
2.88 127.729 75.524
2.89 122.843 75.125
2.90 119.991 74.967
2.91 117.989 74.831
2.92 117.306 74.984
2.93 116.443 75.391
2.94 115.849 75.703
2.95 115.223 75.560
2.96 114.446 74.906
2.97 113.832 73.986
2.98 113.918 73.037
2.99 113.817 72.124
3.00 113.181 71.110
3.01 111.297 69.758
3.02 108.817 68.006
3.03 110.101 66.226
3.04 117.320 64.281
3.05 --undefined-- 60.667
3.06 --undefined-- 54.987
3.07 --undefined-- 48.181
3.08 --undefined-- 41.311
3.09 --undefined-- 38.137
3.10 --undefined-- 37.781
3.11 --undefined-- 40.287
3.12 --undefined-- 49.813
3.13 --undefined-- 57.997
3.14 --undefined-- 63.137
3.15 129.453 66.632
3.16 121.746 69.658
3.17 128.753 72.107
3.18 127.480 73.359
3.19 126.801 73.679
3.20 119.229 73.684
3.21 114.541 73.389
3.22 112.088 72.888
3.23 112.151 72.670
3.24 117.719 72.934
3.25 122.356 73.277
3.26 131.414 73.734
3.27 141.143 75.151
3.28 146.763 76.970
3.29 150.656 78.035
3.30 151.601 78.003
3.31 149.953 77.103
3.32 148.134 75.771
3.33 146.169 73.500
3.34 143.854 69.061
3.35 --undefined-- 61.613
3.36 --undefined-- 52.150
3.37 --undefined-- 48.871
3.38 --undefined-- 56.040
3.39 --undefined-- 63.341
3.40 --undefined-- 69.196
3.41 --undefined-- 72.969
3.42 128.040 74.899
3.43 124.063 76.017
3.44 120.662 76.878
3.45 117.755 77.051
3.46 115.799 75.882
3.47 115.745 73.061
3.48 117.628 69.133
3.49 103.606 64.918
3.50 91.210 60.823
3.51 --undefined-- 58.049
3.52 --undefined-- 56.783
3.53 105.067 57.611
3.54 104.056 61.086
3.55 103.504 64.699
3.56 106.380 67.448
3.57 97.838 69.345
3.58 99.498 70.235
3.59 98.500 70.123
3.60 96.323 69.389
3.61 95.457 68.900
3.62 95.999 69.163
3.63 99.757 70.230
3.64 104.752 71.655
3.65 109.221 72.841
3.66 113.556 73.574
3.67 120.869 74.007
3.68 125.663 74.138
3.69 126.490 73.360
3.70 123.642 71.529
3.71 119.341 69.456
3.72 119.711 68.550
3.73 128.665 69.822
3.74 139.770 72.797
3.75 144.210 76.073
3.76 145.171 78.817
3.77 145.708 80.673
3.78 144.886 81.498
3.79 144.271 81.652
3.80 145.656 81.566
3.81 147.045 81.345
3.82 148.401 81.033
3.83 148.566 80.634
3.84 147.872 80.072
3.85 147.513 79.411
3.86 148.746 78.921
3.87 150.824 78.567
3.88 152.758 77.917
3.89 154.560 76.727
3.90 155.545 74.945
3.91 152.304 72.725
3.92 153.139 71.713
3.93 155.682 72.035
3.94 153.878 71.880
3.95 150.212 71.013
3.96 146.497 69.634
3.97 143.238 67.822
3.98 143.100 65.177
3.99 141.910 61.220
4.00 --undefined-- 56.530
4.01 --undefined-- 52.264
4.02 --undefined-- 47.951
4.03 --undefined-- 42.711
4.04 --undefined-- 39.216
4.05 --undefined-- 37.236
4.06 --undefined-- 35.397
4.07 --undefined-- 35.238
4.08 --undefined-- 36.802
4.09 --undefined-- 37.127
4.10 --undefined-- 37.278
4.11 --undefined-- 38.731
4.12 --undefined-- 41.868
4.13 --undefined-- 46.905
4.14 --undefined-- 50.001
4.15 --undefined-- 50.233
4.16 --undefined-- 48.354
4.17 --undefined-- 44.773
4.18 --undefined-- 40.242
4.19 --undefined-- 36.758
4.20 --undefined-- 35.521
4.21 --undefined-- 39.910
4.22 --undefined-- 49.922
4.23 --undefined-- 57.089
4.24 --undefined-- 62.483
4.25 163.291 67.881
4.26 166.838 72.182
4.27 169.291 74.847
4.28 170.744 76.095
4.29 170.540 76.368
4.30 167.485 76.097
4.31 161.224 75.334
4.32 154.186 73.535
4.33 146.704 69.742
4.34 133.077 63.688
4.35 --undefined-- 57.819
4.36 --undefined-- 62.165
4.37 167.214 68.469
4.38 161.721 72.651
4.39 158.625 75.661
4.40 154.027 77.636
4.41 149.042 78.150
4.42 142.217 77.398
4.43 139.294 76.486
4.44 137.861 76.237
4.45 136.952 76.394
4.46 137.651 76.420
4.47 138.713 75.730
4.48 138.738 73.730
4.49 136.329 69.941
4.50 118.486 64.420
4.51 117.292 58.221
4.52 --undefined-- 51.676
4.53 --undefined-- 48.470
4.54 --undefined-- 58.455
4.55 --undefined-- 65.541
4.56 --undefined-- 68.465
4.57 --undefined-- 67.960
4.58 --undefined-- 65.272
4.59 --undefined-- 61.748
4.60 --undefined-- 59.114
4.61 --undefined-- 60.693
4.62 --undefined-- 66.232
4.63 155.175 70.883
4.64 142.860 73.738
4.65 141.975 75.306
4.66 141.486 75.715
4.67 140.329 74.192
4.68 120.793 70.038
4.69 122.461 65.605
4.70 123.118 66.681
4.71 130.316 70.664
4.72 142.646 74.195
4.73 141.519 75.947
4.74 136.172 76.106
4.75 129.485 75.615
4.76 131.685 75.153
4.77 130.770 74.441
4.78 127.735 73.120
4.79 123.702 70.816
4.80 115.022 66.973
4.81 114.574 61.031
4.82 --undefined-- 54.252
4.83 --undefined-- 51.965
4.84 --undefined-- 53.770
4.85 --undefined-- 55.113
4.86 --undefined-- 55.635
4.87 --undefined-- 55.673
4.88 --undefined-- 55.001
4.89 --undefined-- 53.286
4.90 --undefined-- 51.074
4.91 --undefined-- 49.556
4.92 --undefined-- 49.895
4.93 --undefined-- 52.876
4.94 --undefined-- 60.806
4.95 203.803 66.983
4.96 189.834 70.102
4.97 180.990 71.186
4.98 180.276 71.425
4.99 180.971 71.387
5.00 181.803 71.404
5.01 183.692 71.754
5.02 184.437 72.193
5.03 183.706 72.538
5.04 182.966 72.804
5.05 183.197 73.109
5.06 183.818 73.388
5.07 182.838 73.162
5.08 181.143 72.377
5.09 178.192 71.631
5.10 172.958 71.313
5.11 166.914 71.260
5.12 157.816 71.519
5.13 151.299 71.969
5.14 144.383 72.048
5.15 133.902 71.744
5.16 128.921 71.365
5.17 118.849 71.198
5.18 114.838 71.164
5.19 109.325 70.798
5.20 103.880 70.154
5.21 102.929 69.691
5.22 100.771 69.288
5.23 101.395 68.674
5.24 100.387 67.859
5.25 97.938 67.166
5.26 97.388 66.470
5.27 94.832 65.799
5.28 91.729 65.655
5.29 90.486 65.704
5.30 88.656 65.332
5.31 84.971 64.376
5.32 81.631 63.462
5.33 74.780 62.795
5.34 74.835 61.608
5.35 --undefined-- 59.693
5.36 --undefined-- 57.923
5.37 --undefined-- 55.060
5.38 --undefined-- 49.617
5.39 --undefined-- 45.555
5.40 --undefined-- 46.700
5.41 --undefined-- 46.726
5.42 --undefined-- 44.673
5.43 --undefined-- 40.721
5.44 --undefined-- 38.005
5.45 --undefined-- 38.842
5.46 --undefined-- 39.042
5.47 --undefined-- 37.361
5.48 --undefined-- 35.974
5.49 --undefined-- 37.597
5.50 --undefined-- 39.133
5.51 --undefined-- 38.866
5.52 --undefined-- 37.914
5.53 --undefined-- 37.037
5.54 --undefined-- 36.856
5.55 --undefined-- 37.480
5.56 --undefined-- 37.457
5.57 --undefined-- 36.845
5.58 --undefined-- 37.215
5.59 --undefined-- 39.437
5.60 --undefined-- 41.688
5.61 --undefined-- 42.598
5.62 --undefined-- 42.064
5.63 --undefined-- 39.716
5.64 --undefined-- 36.476
5.65 --undefined-- 35.266
5.66 --undefined-- 34.736
5.67 --undefined-- 35.280
5.68 --undefined-- 37.598
5.69 --undefined-- 39.787
5.70 --undefined-- 40.757
5.71 --undefined-- 40.716
5.72 --undefined-- 40.164
5.73 --undefined-- 38.880
5.74 --undefined-- 36.433
5.75 --undefined-- 33.509
5.76 --undefined-- 33.016
5.77 --undefined-- 35.431
5.78 --undefined-- 48.092
5.79 --undefined-- 57.310
5.80 --undefined-- 61.943
5.81 --undefined-- 63.076
5.82 --undefined-- 62.150
5.83 --undefined-- 61.001
5.84 --undefined-- 61.030
5.85 --undefined-- 64.621
5.86 191.005 69.697
5.87 186.466 73.202
5.88 180.506 75.229
5.89 178.351 76.446
5.90 179.887 76.841
5.91 180.338 75.730
5.92 176.963 72.239
5.93 178.032 65.830
5.94 176.031 61.369
5.95 172.848 62.209
5.96 172.277 64.054
5.97 215.278 70.093
5.98 200.380 75.186
5.99 185.489 77.634
6.00 179.786 78.211
6.01 178.894 77.762
6.02 177.707 76.879
6.03 178.249 76.320
6.04 177.617 76.269
6.05 177.821 76.356
6.06 177.394 76.355
6.07 175.740 75.951
6.08 171.015 74.465
6.09 163.866 71.144
6.10 154.471 65.186
6.11 --undefined-- 57.613
6.12 --undefined-- 56.514
6.13 --undefined-- 61.109
6.14 --undefined-- 64.536
6.15 137.695 66.851
6.16 132.181 67.690
6.17 121.707 66.398
6.18 121.137 64.725
6.19 127.853 66.758
6.20 138.774 70.618
6.21 136.612 73.521
6.22 133.358 74.947
6.23 132.124 75.084
6.24 --undefined-- 74.456
6.25 --undefined-- 73.319
6.26 --undefined-- 71.333
6.27 --undefined-- 67.346
6.28 --undefined-- 62.215
6.29 --undefined-- 59.374
6.30 --undefined-- 55.551
6.31 --undefined-- 56.087
6.32 155.178 62.984
6.33 151.500 67.216
6.34 123.194 69.089
6.35 123.219 70.377
6.36 122.572 71.574
6.37 118.838 71.819
6.38 116.719 71.519
6.39 117.907 71.442
6.40 118.133 71.531
6.41 118.243 71.529
6.42 119.400 71.357
6.43 118.599 71.000
6.44 118.434 70.470
6.45 118.009 69.638
6.46 116.847 68.602
6.47 --undefined-- 67.614
6.48 --undefined-- 66.536
6.49 --undefined-- 66.438
6.50 --undefined-- 67.071
6.51 --undefined-- 67.973
6.52 --undefined-- 69.461
6.53 116.621 71.046
6.54 120.917 72.118
6.55 122.028 72.819
6.56 122.368 73.300
6.57 122.643 73.820
6.58 122.841 74.359
6.59 123.251 74.687
6.60 124.837 74.818
6.61 126.312 75.010
6.62 126.142 75.425
6.63 124.410 75.467
6.64 123.389 --undefined--
6.65 122.584 --undefined--
6.66 --undefined-- --undefined--
6.67 --undefined-- --undefined--
