Time Pitch Intensity
0.01 --undefined-- --undefined--
0.02 138.582 --undefined--
0.03 140.439 --undefined--
0.04 --undefined-- --undefined--
0.05 108.298 63.612
0.06 108.764 63.263
0.07 107.803 62.753
0.08 107.064 62.160
0.09 106.195 61.983
0.10 110.899 62.673
0.11 76.843 64.034
0.12 79.957 65.562
0.13 82.799 67.600
0.14 84.175 70.751
0.15 174.926 73.567
0.16 176.178 74.798
0.17 163.710 75.276
0.18 165.500 76.289
0.19 157.834 77.319
0.20 156.910 78.592
0.21 156.742 79.590
0.22 156.306 79.591
0.23 156.105 78.616
0.24 156.583 76.810
0.25 157.228 74.206
0.26 156.472 70.518
0.27 152.620 65.129
0.28 --undefined-- 57.830
0.29 --undefined-- 51.372
0.30 --undefined-- 48.220
0.31 --undefined-- 45.235
0.32 --undefined-- 43.689
0.33 --undefined-- 43.293
0.34 --undefined-- 43.548
0.35 --undefined-- 46.074
0.36 --undefined-- 49.011
0.37 --undefined-- 51.838
0.38 --undefined-- 59.020
0.39 157.530 66.354
0.40 158.755 70.640
0.41 134.120 72.579
0.42 127.386 73.180
0.43 123.591 73.428
0.44 121.943 73.582
0.45 121.367 73.415
0.46 121.574 73.248
0.47 122.053 73.331
0.48 122.225 73.375
0.49 122.306 73.180
0.50 121.855 72.623
0.51 121.365 71.684
0.52 121.109 70.520
0.53 120.029 69.394
0.54 120.413 68.741
0.55 120.409 68.488
0.56 119.138 68.069
0.57 117.473 67.236
0.58 117.278 66.031
0.59 --undefined-- 64.469
0.60 142.714 62.969
0.61 145.295 61.453
0.62 148.908 59.333
0.63 --undefined-- 55.965
0.64 --undefined-- 52.154
0.65 --undefined-- 49.800
0.66 --undefined-- 47.754
0.67 --undefined-- 43.878
0.68 --undefined-- 38.181
0.69 --undefined-- 36.221
0.70 --undefined-- 37.045
0.71 --undefined-- 36.690
0.72 --undefined-- 42.781
0.73 --undefined-- 52.036
0.74 --undefined-- 57.456
0.75 --undefined-- 59.319
0.76 --undefined-- 58.532
0.77 --undefined-- 59.522
0.78 162.507 64.957
0.79 163.159 69.159
0.80 159.849 71.565
0.81 155.441 72.806
0.82 151.533 72.935
0.83 147.906 71.158
0.84 --undefined-- 66.423
0.85 --undefined-- 57.975
0.86 --undefined-- 47.093
0.87 --undefined-- 42.314
0.88 --undefined-- 41.911
0.89 --undefined-- 41.058
0.90 --undefined-- 40.138
0.91 --undefined-- 40.131
0.92 --undefined-- 38.816
0.93 --undefined-- 36.655
0.94 --undefined-- 36.458
0.95 --undefined-- 36.872
0.96 --undefined-- 38.116
0.97 --undefined-- 52.120
0.98 --undefined-- 64.431
0.99 236.715 72.235
1.00 221.536 76.247
1.01 213.183 77.180
1.02 201.090 75.953
1.03 195.179 73.149
1.04 166.086 68.530
1.05 151.984 61.931
1.06 --undefined-- 54.591
1.07 --undefined-- 49.610
1.08 --undefined-- 47.959
1.09 --undefined-- 45.920
1.10 --undefined-- 45.930
1.11 --undefined-- 47.646
1.12 --undefined-- 48.235
1.13 --undefined-- 47.690
1.14 --undefined-- 46.143
1.15 --undefined-- 44.499
1.16 --undefined-- 43.914
1.17 --undefined-- 43.694
1.18 --undefined-- 43.787
1.19 --undefined-- 49.757
1.20 --undefined-- 58.860
1.21 --undefined-- 64.942
1.22 141.029 68.471
1.23 137.372 70.173
1.24 134.059 70.561
1.25 133.511 70.435
1.26 134.730 70.694
1.27 138.840 71.461
1.28 141.685 72.259
1.29 145.108 72.669
1.30 148.184 72.295
1.31 157.781 70.831
1.32 166.956 68.714
1.33 170.131 67.119
1.34 173.441 66.128
1.35 174.374 65.141
1.36 173.584 63.871
1.37 172.559 62.321
1.38 167.475 60.663
1.39 164.529 59.358
1.40 158.725 59.109
1.41 153.176 59.946
1.42 147.795 61.757
1.43 142.876 64.748
1.44 141.019 68.294
1.45 139.856 70.876
1.46 135.447 71.621
1.47 129.849 70.504
1.48 --undefined-- 67.483
1.49 --undefined-- 62.167
1.50 --undefined-- 54.886
1.51 --undefined-- 47.799
1.52 --undefined-- 42.728
1.53 --undefined-- 40.803
1.54 --undefined-- 38.847
1.55 --undefined-- 39.371
1.56 --undefined-- 41.873
1.57 --undefined-- 41.781
1.58 --undefined-- 39.144
1.59 --undefined-- 39.563
1.60 --undefined-- 50.635
1.61 --undefined-- 58.939
1.62 --undefined-- 63.070
1.63 --undefined-- 65.788
1.64 148.694 68.818
1.65 145.802 70.612
1.66 133.403 71.100
1.67 126.014 71.074
1.68 123.485 70.917
1.69 123.811 70.536
1.70 124.479 69.799
1.71 122.245 69.093
1.72 118.275 68.564
1.73 116.246 67.555
1.74 116.346 65.408
1.75 114.736 61.759
1.76 109.860 57.069
1.77 --undefined-- 53.054
1.78 --undefined-- 54.521
1.79 --undefined-- 60.704
1.80 146.527 66.097
1.81 139.635 69.084
1.82 131.244 70.088
1.83 126.009 70.200
1.84 123.785 69.645
1.85 117.783 67.697
1.86 114.156 63.720
1.87 --undefined-- 57.457
1.88 --undefined-- 49.555
1.89 --undefined-- 43.463
1.90 --undefined-- 44.909
1.91 --undefined-- 53.419
1.92 --undefined-- 59.100
1.93 --undefined-- 60.752
1.94 --undefined-- 59.340
1.95 --undefined-- 57.368
1.96 --undefined-- 56.781
1.97 --undefined-- 59.113
1.98 --undefined-- 65.508
1.99 164.049 70.456
2.00 156.496 73.302
2.01 152.338 74.857
2.02 148.409 75.623
2.03 148.064 75.526
2.04 149.457 74.856
2.05 147.852 74.392
2.06 149.531 73.795
2.07 151.740 72.585
2.08 145.443 70.273
2.09 139.422 66.108
2.10 136.141 60.036
2.11 --undefined-- 53.053
2.12 --undefined-- 47.614
2.13 --undefined-- 52.423
2.14 --undefined-- 62.940
2.15 --undefined-- 70.303
2.16 189.846 74.599
2.17 181.568 76.718
2.18 175.645 77.728
2.19 173.936 78.161
2.20 172.129 77.559
2.21 170.259 75.635
2.22 167.892 72.779
2.23 164.649 69.570
2.24 156.482 66.828
2.25 151.888 64.975
2.26 --undefined-- 62.411
2.27 --undefined-- 57.973
2.28 --undefined-- 52.018
2.29 --undefined-- 47.621
2.30 --undefined-- 44.676
2.31 --undefined-- 41.574
2.32 --undefined-- 38.592
2.33 --undefined-- 36.970
2.34 --undefined-- 37.528
2.35 --undefined-- 37.800
2.36 --undefined-- 36.677
2.37 --undefined-- 36.373
2.38 --undefined-- 37.605
2.39 --undefined-- 37.701
2.40 --undefined-- 37.046
2.41 --undefined-- 36.329
2.42 --undefined-- 35.398
2.43 --undefined-- 35.025
2.44 --undefined-- 34.705
2.45 --undefined-- 34.260
2.46 --undefined-- 33.105
2.47 --undefined-- 32.784
2.48 --undefined-- 35.148
2.49 --undefined-- 36.293
2.50 --undefined-- 35.630
2.51 --undefined-- 34.403
2.52 --undefined-- 34.055
2.53 --undefined-- 34.269
2.54 --undefined-- 34.736
2.55 --undefined-- 35.249
2.56 --undefined-- 35.471
2.57 --undefined-- 37.179
2.58 --undefined-- 38.922
2.59 --undefined-- 38.709
2.60 --undefined-- 36.335
2.61 --undefined-- 33.245
2.62 --undefined-- 33.297
2.63 --undefined-- 35.436
2.64 --undefined-- 36.534
2.65 --undefined-- 36.263
2.66 --undefined-- 35.554
2.67 --undefined-- 35.430
2.68 --undefined-- 36.450
2.69 --undefined-- 38.302
2.70 --undefined-- 38.995
2.71 --undefined-- 38.399
2.72 --undefined-- 37.226
2.73 --undefined-- 36.008
2.74 --undefined-- 36.175
2.75 --undefined-- 37.004
2.76 --undefined-- 37.930
2.77 --undefined-- 38.752
2.78 --undefined-- 38.899
2.79 --undefined-- 38.775
2.80 --undefined-- 38.897
2.81 --undefined-- 39.323
2.82 --undefined-- 40.137
2.83 --undefined-- 40.438
2.84 --undefined-- 40.007
2.85 --undefined-- 39.580
2.86 --undefined-- 39.678
2.87 --undefined-- 39.880
2.88 --undefined-- 39.270
2.89 --undefined-- 38.295
2.90 --undefined-- 37.654
2.91 --undefined-- 37.002
2.92 --undefined-- 36.731
2.93 --undefined-- 36.197
2.94 --undefined-- 35.404
2.95 --undefined-- 34.716
2.96 --undefined-- 34.590
2.97 --undefined-- 35.326
2.98 --undefined-- 35.611
2.99 --undefined-- 35.085
3.00 --undefined-- 35.406
3.01 --undefined-- 35.935
3.02 --undefined-- 34.699
3.03 --undefined-- 34.136
3.04 --undefined-- 35.286
3.05 --undefined-- 40.081
3.06 --undefined-- 47.289
3.07 --undefined-- 51.245
3.08 --undefined-- 51.699
3.09 --undefined-- 50.939
3.10 --undefined-- 49.844
3.11 --undefined-- 46.343
3.12 --undefined-- 44.276
3.13 --undefined-- 49.538
3.14 --undefined-- 59.593
3.15 --undefined-- 68.146
3.16 --undefined-- 73.637
3.17 166.525 76.717
3.18 165.090 78.223
3.19 164.864 78.687
3.20 164.833 78.254
3.21 165.062 77.040
3.22 166.539 75.573
3.23 162.326 74.443
3.24 167.746 73.396
3.25 164.937 72.802
3.26 162.937 72.494
3.27 163.903 71.470
3.28 164.826 69.329
3.29 151.926 66.249
3.30 142.009 62.189
3.31 141.566 57.036
3.32 --undefined-- 55.113
3.33 --undefined-- 58.025
3.34 --undefined-- 59.524
3.35 --undefined-- 59.766
3.36 --undefined-- 60.995
3.37 --undefined-- 63.141
3.38 --undefined-- 66.813
3.39 152.687 69.938
3.40 151.110 71.535
3.41 133.742 71.877
3.42 126.069 71.533
3.43 124.100 71.116
3.44 123.612 70.562
3.45 121.606 69.823
3.46 120.423 69.544
3.47 117.768 69.727
3.48 117.136 69.660
3.49 117.563 69.243
3.50 118.328 68.898
3.51 118.261 68.570
3.52 121.286 68.037
3.53 120.424 67.104
3.54 --undefined-- 65.867
3.55 --undefined-- 64.293
3.56 --undefined-- 61.775
3.57 --undefined-- 57.864
3.58 --undefined-- 53.755
3.59 --undefined-- 50.635
3.60 --undefined-- 46.557
3.61 --undefined-- 41.280
3.62 --undefined-- 37.646
3.63 --undefined-- 44.924
3.64 --undefined-- 56.382
3.65 --undefined-- 63.141
3.66 --undefined-- 65.680
3.67 --undefined-- 65.127
3.68 --undefined-- 65.104
3.69 116.307 67.577
3.70 124.082 69.228
3.71 131.568 69.247
3.72 125.725 68.176
3.73 117.279 67.775
3.74 124.792 68.946
3.75 124.952 69.785
3.76 126.207 70.087
3.77 126.531 70.145
3.78 124.327 69.923
3.79 119.225 69.640
3.80 117.447 69.798
3.81 125.607 70.762
3.82 133.323 71.559
3.83 137.171 71.607
3.84 136.770 71.206
3.85 133.150 70.471
3.86 129.895 69.449
3.87 125.209 68.550
3.88 122.327 68.436
3.89 122.805 68.782
3.90 122.250 69.029
3.91 121.595 69.262
3.92 121.446 69.540
3.93 121.914 69.611
3.94 122.211 68.912
3.95 119.678 66.578
3.96 113.969 61.774
3.97 --undefined-- 54.341
3.98 --undefined-- 49.172
3.99 --undefined-- 53.339
4.00 --undefined-- 57.022
4.01 --undefined-- 58.019
4.02 --undefined-- 58.767
4.03 203.705 64.695
4.04 183.334 69.972
4.05 171.006 72.664
4.06 165.608 73.576
4.07 161.552 73.798
4.08 159.391 73.934
4.09 158.721 73.770
4.10 156.918 73.176
4.11 159.522 72.732
4.12 158.623 72.619
4.13 157.011 72.716
4.14 154.964 72.991
4.15 151.940 73.127
4.16 148.295 72.844
4.17 138.632 72.520
4.18 132.149 72.113
4.19 125.355 70.804
4.20 117.789 68.867
4.21 115.814 67.269
4.22 118.904 67.228
4.23 140.341 69.088
4.24 142.574 71.211
4.25 138.812 72.235
4.26 134.313 72.049
4.27 142.628 71.523
4.28 149.013 71.304
4.29 154.162 70.563
4.30 155.281 68.380
4.31 159.344 64.787
4.32 163.879 61.355
4.33 168.686 61.345
4.34 173.814 66.519
4.35 176.487 71.443
4.36 166.035 74.407
4.37 159.603 75.508
4.38 152.816 75.149
4.39 143.576 73.958
4.40 139.385 72.109
4.41 128.994 69.293
4.42 112.532 65.821
4.43 101.718 62.591
4.44 96.033 60.580
4.45 115.264 60.209
4.46 116.457 61.634
4.47 126.506 64.058
4.48 135.563 66.643
4.49 131.830 68.596
4.50 130.798 69.787
4.51 129.095 70.497
4.52 126.210 70.456
4.53 124.804 69.577
4.54 123.277 68.807
4.55 122.621 69.288
4.56 126.777 70.262
4.57 129.243 70.567
4.58 128.425 70.128
4.59 125.578 68.948
4.60 120.656 66.522
4.61 110.851 62.400
4.62 --undefined-- 56.482
4.63 --undefined-- 50.008
4.64 --undefined-- 48.079
4.65 --undefined-- 55.055
4.66 179.833 63.359
4.67 177.957 68.508
4.68 148.500 71.144
4.69 140.648 72.084
4.70 135.470 72.501
4.71 133.109 72.893
4.72 131.990 72.915
4.73 132.399 72.769
4.74 133.168 72.797
4.75 133.275 72.770
4.76 133.379 72.632
4.77 132.760 72.278
4.78 132.529 71.709
4.79 133.888 71.423
4.80 135.471 71.082
4.81 134.584 70.169
4.82 132.924 68.926
4.83 131.257 67.560
4.84 128.012 65.983
4.85 126.470 63.639
4.86 --undefined-- 60.080
4.87 --undefined-- 55.379
4.88 --undefined-- 49.616
4.89 --undefined-- 44.411
4.90 --undefined-- 42.855
4.91 --undefined-- 40.361
4.92 --undefined-- 37.888
4.93 --undefined-- 36.879
4.94 --undefined-- 35.691
4.95 --undefined-- 34.762
4.96 --undefined-- 35.312
4.97 --undefined-- 35.902
4.98 --undefined-- 35.403
4.99 --undefined-- 33.570
5.00 --undefined-- 33.154
5.01 --undefined-- 40.199
5.02 --undefined-- 49.443
5.03 161.233 55.897
5.04 142.340 60.443
5.05 131.467 63.431
5.06 128.035 65.241
5.07 132.986 66.542
5.08 137.203 67.891
5.09 138.141 69.223
5.10 139.947 70.367
5.11 143.844 71.280
5.12 146.871 71.820
5.13 149.844 71.479
5.14 149.400 69.627
5.15 142.384 65.772
5.16 139.841 59.560
5.17 --undefined-- 51.800
5.18 --undefined-- 51.517
5.19 --undefined-- 58.127
5.20 --undefined-- 61.131
5.21 --undefined-- 60.564
5.22 --undefined-- 57.930
5.23 --undefined-- 55.097
5.24 --undefined-- 52.925
5.25 --undefined-- 53.708
5.26 --undefined-- 58.326
5.27 142.450 62.437
5.28 131.998 64.272
5.29 118.319 64.348
5.30 115.391 63.935
5.31 112.566 63.523
5.32 108.947 62.956
5.33 108.862 62.599
5.34 109.019 62.519
5.35 108.426 61.922
5.36 106.416 60.017
5.37 100.378 56.749
5.38 --undefined-- 53.249
5.39 --undefined-- 49.770
5.40 --undefined-- 46.115
5.41 --undefined-- 49.840
5.42 --undefined-- 55.888
5.43 --undefined-- 60.962
5.44 179.568 66.691
5.45 162.204 71.210
5.46 159.760 73.676
5.47 159.931 74.540
5.48 158.450 74.545
5.49 157.318 74.137
5.50 155.918 73.312
5.51 152.849 71.629
5.52 147.334 68.544
5.53 139.821 64.464
5.54 139.230 60.822
5.55 137.833 57.334
5.56 --undefined-- 53.287
5.57 --undefined-- 52.738
5.58 --undefined-- 58.166
5.59 --undefined-- 63.700
5.60 171.295 67.968
5.61 152.052 70.282
5.62 143.260 71.128
5.63 132.630 70.918
5.64 128.124 70.024
5.65 121.662 69.364
5.66 117.698 69.359
5.67 116.430 69.693
5.68 116.544 70.098
5.69 117.829 70.307
5.70 118.043 70.218
5.71 120.578 70.139
5.72 124.270 70.172
5.73 125.988 69.695
5.74 125.042 67.877
5.75 119.343 63.998
5.76 --undefined-- 57.726
5.77 --undefined-- 51.349
5.78 --undefined-- 55.361
5.79 --undefined-- 63.864
5.80 183.797 69.576
5.81 172.707 73.051
5.82 168.257 75.402
5.83 166.073 76.638
5.84 165.048 76.463
5.85 164.501 75.445
5.86 164.201 74.464
5.87 163.848 73.574
5.88 163.063 72.881
5.89 165.821 72.547
5.90 169.177 72.209
5.91 171.799 71.638
5.92 172.299 70.928
5.93 172.036 70.060
5.94 170.865 68.874
5.95 166.308 67.072
5.96 163.710 64.582
5.97 --undefined-- 61.811
5.98 239.272 59.410
5.99 --undefined-- 55.639
6.00 --undefined-- 48.617
6.01 --undefined-- 40.199
6.02 --undefined-- 36.421
6.03 --undefined-- 35.791
6.04 --undefined-- 35.755
6.05 --undefined-- 34.788
6.06 --undefined-- 34.676
6.07 --undefined-- 35.333
6.08 --undefined-- 34.985
6.09 --undefined-- 35.399
6.10 --undefined-- 35.852
6.11 --undefined-- 35.910
6.12 --undefined-- 36.610
6.13 --undefined-- 36.609
6.14 --undefined-- 35.785
6.15 --undefined-- 35.717
6.16 --undefined-- 36.289
6.17 --undefined-- 36.046
6.18 --undefined-- 35.015
6.19 --undefined-- 34.265
6.20 --undefined-- 34.495
6.21 --undefined-- 36.463
6.22 --undefined-- 37.760
6.23 --undefined-- 37.208
6.24 --undefined-- 35.144
6.25 --undefined-- 32.744
6.26 --undefined-- 32.688
6.27 --undefined-- 33.273
6.28 --undefined-- 33.936
6.29 --undefined-- 35.495
6.30 --undefined-- 35.423
6.31 --undefined-- 34.684
6.32 --undefined-- 36.599
6.33 --undefined-- 38.117
6.34 --undefined-- 38.594
6.35 --undefined-- 38.565
6.36 --undefined-- 38.968
6.37 --undefined-- 39.699
6.38 --undefined-- 39.840
6.39 --undefined-- 38.678
6.40 --undefined-- 35.846
6.41 --undefined-- 33.575
6.42 --undefined-- 33.605
6.43 --undefined-- 34.151
6.44 --undefined-- 33.990
6.45 --undefined-- 33.730
6.46 --undefined-- 34.987
6.47 --undefined-- 36.595
6.48 --undefined-- 36.780
6.49 --undefined-- 36.140
6.50 --undefined-- 36.990
6.51 --undefined-- 37.819
6.52 --undefined-- 37.017
6.53 --undefined-- 34.729
6.54 --undefined-- 32.512
6.55 --undefined-- 32.702
6.56 --undefined-- 34.732
6.57 --undefined-- 36.237
6.58 --undefined-- 36.671
6.59 --undefined-- 38.773
6.60 --undefined-- 41.057
6.61 --undefined-- 40.710
6.62 --undefined-- 38.453
6.63 --undefined-- 38.538
6.64 --undefined-- 40.102
6.65 --undefined-- 40.150
6.66 --undefined-- 39.249
6.67 --undefined-- 38.630
6.68 --undefined-- 39.527
6.69 --undefined-- 40.625
6.70 --undefined-- 40.682
6.71 --undefined-- 40.290
6.72 --undefined-- 40.052
6.73 --undefined-- 39.521
6.74 --undefined-- 39.044
6.75 --undefined-- 39.457
6.76 --undefined-- 40.119
6.77 --undefined-- 40.777
6.78 --undefined-- 41.503
6.79 --undefined-- 41.845
6.80 --undefined-- 41.605
6.81 --undefined-- 40.116
6.82 --undefined-- 37.923
6.83 --undefined-- 37.374
6.84 --undefined-- 37.982
6.85 --undefined-- 39.062
6.86 --undefined-- 39.064
6.87 --undefined-- 37.791
6.88 --undefined-- 35.908
6.89 --undefined-- 34.084
6.90 --undefined-- 41.753
6.91 --undefined-- 54.851
6.92 --undefined-- 63.543
6.93 --undefined-- 69.319
6.94 180.006 73.346
6.95 174.854 76.474
6.96 171.837 78.743
6.97 170.885 80.160
6.98 172.278 80.763
6.99 174.413 80.587
7.00 177.393 79.619
7.01 182.140 78.419
7.02 183.336 77.887
7.03 183.294 --undefined--
7.04 183.029 --undefined--
7.05 --undefined-- --undefined--
7.06 --undefined-- --undefined--
