Time Pitch Intensity
0.01 --undefined-- --undefined--
0.02 --undefined-- --undefined--
0.03 --undefined-- --undefined--
0.04 --undefined-- --undefined--
0.05 --undefined-- 48.577
0.06 --undefined-- 48.244
0.07 --undefined-- 48.695
0.08 --undefined-- 52.186
0.09 294.654 59.334
0.10 277.862 64.656
0.11 279.942 67.518
0.12 283.401 68.711
0.13 285.896 69.132
0.14 289.441 69.510
0.15 293.097 70.013
0.16 296.676 70.425
0.17 298.042 70.658
0.18 298.586 70.789
0.19 298.570 70.872
0.20 298.567 70.909
0.21 298.535 70.935
0.22 298.210 70.843
0.23 296.644 70.453
0.24 294.687 69.830
0.25 293.731 69.271
0.26 293.252 68.793
0.27 292.068 67.800
0.28 290.241 65.352
0.29 289.241 60.702
0.30 293.143 53.918
0.31 292.799 49.784
0.32 294.535 48.892
0.33 --undefined-- 47.986
0.34 --undefined-- 48.376
0.35 --undefined-- 49.885
0.36 --undefined-- 49.626
0.37 --undefined-- 47.742
0.38 --undefined-- 47.231
0.39 --undefined-- 49.570
0.40 --undefined-- 52.135
0.41 --undefined-- 53.667
0.42 --undefined-- 53.539
0.43 --undefined-- 52.800
0.44 --undefined-- 52.556
0.45 --undefined-- 52.542
0.46 --undefined-- 52.893
0.47 --undefined-- 53.364
0.48 --undefined-- 53.599
0.49 221.655 55.449
0.50 211.579 58.034
0.51 196.191 59.571
0.52 177.192 60.370
0.53 167.200 60.933
0.54 159.813 61.281
0.55 152.095 61.200
0.56 143.937 60.583
0.57 140.383 59.454
0.58 142.190 58.181
0.59 --undefined-- 57.509
0.60 --undefined-- 56.897
0.61 --undefined-- 56.370
0.62 --undefined-- 57.204
0.63 --undefined-- 58.578
0.64 --undefined-- 59.490
0.65 --undefined-- 60.678
0.66 172.507 62.813
0.67 176.874 64.742
0.68 185.044 65.851
0.69 191.277 66.730
0.70 195.475 68.139
0.71 200.767 69.794
0.72 207.926 71.037
0.73 213.343 71.290
0.74 220.519 70.405
0.75 226.247 69.023
0.76 230.081 67.641
0.77 229.018 66.943
0.78 223.231 67.445
0.79 217.712 68.242
0.80 210.318 68.508
0.81 201.513 68.320
0.82 189.176 68.025
0.83 181.490 67.932
0.84 171.375 67.844
0.85 166.564 67.778
0.86 166.257 67.567
0.87 168.357 66.468
0.88 173.863 64.693
0.89 174.368 63.696
0.90 172.649 62.987
0.91 171.197 61.544
0.92 169.984 59.822
0.93 171.013 58.129
0.94 174.503 56.537
0.95 176.059 55.353
0.96 176.118 54.620
0.97 172.194 53.944
0.98 169.621 53.454
0.99 --undefined-- 53.689
1.00 --undefined-- 54.450
1.01 --undefined-- 54.996
1.02 --undefined-- 54.671
1.03 --undefined-- 54.781
1.04 200.482 56.230
1.05 195.066 57.491
1.06 190.790 58.110
1.07 197.842 58.901
1.08 188.923 60.414
1.09 182.195 61.934
1.10 180.053 62.942
1.11 179.008 63.456
1.12 178.990 63.685
1.13 181.612 64.184
1.14 184.797 65.221
1.15 187.090 66.051
1.16 188.194 66.091
1.17 189.066 65.623
1.18 191.051 65.274
1.19 194.615 65.378
1.20 196.507 65.843
1.21 198.048 66.275
1.22 200.456 66.555
1.23 209.604 66.754
1.24 212.007 66.400
1.25 228.639 65.276
1.26 230.728 64.337
1.27 230.263 64.125
1.28 229.597 64.331
1.29 227.040 64.577
1.30 209.785 64.066
1.31 --undefined-- 61.936
1.32 --undefined-- 59.070
1.33 --undefined-- 57.565
1.34 --undefined-- 55.849
1.35 --undefined-- 54.069
1.36 --undefined-- 52.980
1.37 --undefined-- 51.315
1.38 --undefined-- 50.115
1.39 --undefined-- 48.396
1.40 --undefined-- 48.469
1.41 --undefined-- 53.377
1.42 --undefined-- 56.136
1.43 --undefined-- 55.366
1.44 --undefined-- 53.259
1.45 --undefined-- 53.673
1.46 --undefined-- 52.523
1.47 --undefined-- 48.294
1.48 --undefined-- 44.872
1.49 --undefined-- 46.563
1.50 --undefined-- 48.939
1.51 --undefined-- 49.166
1.52 --undefined-- 48.267
1.53 --undefined-- 47.074
1.54 --undefined-- 44.976
1.55 --undefined-- 45.243
1.56 --undefined-- 48.289
1.57 --undefined-- 48.822
1.58 --undefined-- 47.240
1.59 --undefined-- 46.012
1.60 --undefined-- 44.674
1.61 --undefined-- 44.393
1.62 --undefined-- 47.065
1.63 --undefined-- 47.622
1.64 --undefined-- 47.496
1.65 --undefined-- 49.077
1.66 --undefined-- 50.551
1.67 --undefined-- 52.500
1.68 --undefined-- 55.077
1.69 --undefined-- 59.404
1.70 278.799 64.590
1.71 272.906 68.238
1.72 270.453 70.245
1.73 267.205 70.912
1.74 263.796 70.223
1.75 260.665 68.122
1.76 258.147 65.426
1.77 260.408 64.461
1.78 270.101 65.203
1.79 273.152 65.636
1.80 274.081 65.795
1.81 274.725 65.956
1.82 274.788 66.024
1.83 274.249 66.087
1.84 273.400 66.212
1.85 272.132 66.232
1.86 269.714 65.952
1.87 266.473 65.304
1.88 261.082 63.887
1.89 251.704 61.724
1.90 243.078 60.298
1.91 237.014 60.088
1.92 230.678 60.973
1.93 229.763 64.165
1.94 231.254 67.188
1.95 --undefined-- 69.067
1.96 --undefined-- 70.918
1.97 --undefined-- 72.159
1.98 --undefined-- 71.785
1.99 --undefined-- 70.085
2.00 --undefined-- 68.235
2.01 --undefined-- 67.098
2.02 --undefined-- 66.551
2.03 154.764 65.677
2.04 151.647 64.118
2.05 150.929 62.188
2.06 149.958 60.098
2.07 149.504 58.231
2.08 147.622 56.605
2.09 --undefined-- 54.893
2.10 --undefined-- 53.715
2.11 --undefined-- 52.616
2.12 95.929 52.651
2.13 95.124 53.808
2.14 282.687 54.339
2.15 292.482 54.256
2.16 --undefined-- 53.543
2.17 --undefined-- 51.031
2.18 --undefined-- 47.735
2.19 --undefined-- 46.030
2.20 --undefined-- 44.204
2.21 --undefined-- 46.419
2.22 --undefined-- 50.748
2.23 --undefined-- 53.322
2.24 --undefined-- 55.222
2.25 234.167 58.821
2.26 229.730 62.841
2.27 227.240 65.748
2.28 225.509 67.291
2.29 225.941 67.366
2.30 227.493 66.153
2.31 233.410 64.874
2.32 239.699 64.640
2.33 241.766 64.864
2.34 243.750 65.048
2.35 244.927 65.090
2.36 245.084 65.070
2.37 244.778 64.947
2.38 244.744 64.593
2.39 244.539 64.055
2.40 242.533 63.579
2.41 240.357 63.189
2.42 238.387 62.928
2.43 237.576 62.767
2.44 235.089 62.035
2.45 229.752 60.124
2.46 219.334 57.425
2.47 211.428 55.461
2.48 --undefined-- 55.129
2.49 --undefined-- 57.002
2.50 --undefined-- 60.366
2.51 238.943 63.019
2.52 232.071 64.001
2.53 228.804 63.985
2.54 227.893 63.609
2.55 229.923 63.206
2.56 232.785 63.177
2.57 231.584 63.276
2.58 228.952 63.218
2.59 225.712 63.107
2.60 222.070 63.306
2.61 215.814 63.914
2.62 207.944 64.678
2.63 199.141 65.583
2.64 194.313 66.340
2.65 191.715 66.642
2.66 188.750 66.412
2.67 186.636 65.595
2.68 179.369 63.710
2.69 179.186 60.009
2.70 --undefined-- 54.785
2.71 --undefined-- 50.225
2.72 --undefined-- 47.801
2.73 --undefined-- 48.672
2.74 --undefined-- 51.173
2.75 --undefined-- 54.256
2.76 215.258 58.288
2.77 206.962 61.562
2.78 198.327 63.832
2.79 189.978 65.382
2.80 182.951 65.960
2.81 --undefined-- 65.418
2.82 --undefined-- 64.127
2.83 --undefined-- 62.699
2.84 --undefined-- 61.642
2.85 --undefined-- 62.060
2.86 --undefined-- 63.222
2.87 --undefined-- 62.243
2.88 --undefined-- 58.784
2.89 --undefined-- 54.951
2.90 --undefined-- 51.884
2.91 --undefined-- 48.955
2.92 --undefined-- 46.354
2.93 --undefined-- 46.953
2.94 --undefined-- 48.549
2.95 --undefined-- 48.794
2.96 --undefined-- 48.751
2.97 --undefined-- 50.280
2.98 --undefined-- 53.923
2.99 164.677 57.196
3.00 159.981 59.594
3.01 158.425 61.504
3.02 156.888 63.078
3.03 157.602 64.350
3.04 160.035 65.269
3.05 161.906 65.664
3.06 161.575 65.543
3.07 159.912 65.287
3.08 160.538 65.163
3.09 165.194 65.169
3.10 170.491 65.987
3.11 179.581 67.704
3.12 184.527 68.774
3.13 189.346 68.878
3.14 210.324 69.596
3.15 216.862 71.031
3.16 221.806 71.785
3.17 236.473 71.683
3.18 237.335 71.163
3.19 232.257 70.629
3.20 223.998 69.352
3.21 215.809 66.252
3.22 --undefined-- 61.520
3.23 --undefined-- 56.841
3.24 --undefined-- 54.674
3.25 --undefined-- 53.899
3.26 --undefined-- 51.367
3.27 --undefined-- 46.630
3.28 --undefined-- 43.763
3.29 --undefined-- 46.772
3.30 --undefined-- 51.074
3.31 --undefined-- 52.792
3.32 --undefined-- 51.665
3.33 --undefined-- 48.910
3.34 --undefined-- 48.569
3.35 --undefined-- 49.313
3.36 --undefined-- 48.377
3.37 --undefined-- 46.687
3.38 --undefined-- 44.921
3.39 --undefined-- 44.846
3.40 --undefined-- 47.597
3.41 --undefined-- 50.021
3.42 --undefined-- 50.687
3.43 --undefined-- 52.111
3.44 --undefined-- 53.714
3.45 --undefined-- 52.905
3.46 --undefined-- 50.036
3.47 --undefined-- 49.452
3.48 --undefined-- 50.321
3.49 --undefined-- 50.655
3.50 --undefined-- 51.274
3.51 --undefined-- 52.342
3.52 --undefined-- 53.148
3.53 --undefined-- 52.843
3.54 --undefined-- 51.680
3.55 --undefined-- 50.287
3.56 --undefined-- 49.343
3.57 --undefined-- 49.975
3.58 --undefined-- 50.964
3.59 --undefined-- 51.245
3.60 --undefined-- 50.904
3.61 --undefined-- 52.117
3.62 --undefined-- 54.909
3.63 --undefined-- 56.379
3.64 --undefined-- 60.756
3.65 201.151 65.608
3.66 204.112 68.210
3.67 207.788 69.311
3.68 209.383 69.768
3.69 210.715 69.906
3.70 210.997 70.059
3.71 208.726 70.759
3.72 204.360 71.804
3.73 197.478 72.502
3.74 186.395 72.690
3.75 177.252 72.375
3.76 165.303 71.711
3.77 156.755 71.070
3.78 150.994 69.862
3.79 288.564 67.164
3.80 284.408 62.478
3.81 --undefined-- 56.181
3.82 --undefined-- 51.668
3.83 --undefined-- 51.347
3.84 --undefined-- 54.414
3.85 --undefined-- 56.634
3.86 --undefined-- 56.728
3.87 --undefined-- 54.864
3.88 --undefined-- 52.542
3.89 --undefined-- 53.963
3.90 --undefined-- 59.138
3.91 157.351 64.329
3.92 158.844 67.376
3.93 164.126 69.023
3.94 168.081 70.932
3.95 169.889 73.227
3.96 167.788 74.688
3.97 165.422 75.211
3.98 164.778 74.960
3.99 164.096 73.758
4.00 163.562 71.955
4.01 163.473 70.446
4.02 163.462 69.500
4.03 163.919 68.849
4.04 164.908 68.335
4.05 166.148 67.925
4.06 167.840 67.610
4.07 169.467 67.270
4.08 169.988 67.063
4.09 166.339 67.562
4.10 163.829 69.066
4.11 161.928 70.372
4.12 160.183 70.183
4.13 156.971 67.719
4.14 148.133 62.374
4.15 162.228 55.326
4.16 --undefined-- 52.419
4.17 --undefined-- 54.212
4.18 --undefined-- 56.246
4.19 --undefined-- 58.266
4.20 260.799 61.171
4.21 241.473 63.329
4.22 237.485 64.454
4.23 231.824 65.088
4.24 225.062 65.544
4.25 221.837 65.977
4.26 219.694 66.351
4.27 216.985 66.473
4.28 214.574 66.184
4.29 212.530 65.538
4.30 210.202 64.549
4.31 205.749 62.843
4.32 200.869 60.255
4.33 194.044 57.087
4.34 193.549 53.745
4.35 198.639 50.485
4.36 --undefined-- 50.079
4.37 --undefined-- 50.325
4.38 --undefined-- 49.066
4.39 --undefined-- 48.162
4.40 --undefined-- 50.579
4.41 --undefined-- 54.463
4.42 --undefined-- 56.420
4.43 --undefined-- 57.278
4.44 --undefined-- 59.622
4.45 187.637 62.144
4.46 179.063 63.253
4.47 166.709 63.649
4.48 159.307 64.183
4.49 155.987 64.630
4.50 155.466 64.711
4.51 158.246 64.487
4.52 165.016 64.251
4.53 174.283 64.577
4.54 180.263 64.767
4.55 185.556 63.659
4.56 187.364 60.924
4.57 183.811 57.187
4.58 185.393 53.263
4.59 185.632 49.469
4.60 --undefined-- 46.184
4.61 --undefined-- 45.515
4.62 --undefined-- 46.892
4.63 --undefined-- 52.564
4.64 195.825 58.851
4.65 186.365 62.772
4.66 179.429 65.020
4.67 176.882 66.275
4.68 175.044 66.866
4.69 175.576 66.942
4.70 177.915 66.619
4.71 181.335 65.947
4.72 184.003 65.137
4.73 187.615 64.249
4.74 189.233 63.364
4.75 194.721 62.523
4.76 200.455 60.939
4.77 201.969 57.681
4.78 188.397 53.245
4.79 189.520 52.068
4.80 190.565 54.096
4.81 --undefined-- 55.552
4.82 288.524 56.983
4.83 280.639 61.457
4.84 272.825 65.212
4.85 265.532 67.095
4.86 260.841 68.302
4.87 260.598 69.337
4.88 261.136 69.263
4.89 260.352 67.763
4.90 261.830 66.551
4.91 273.310 67.054
4.92 277.637 67.905
4.93 278.740 68.641
4.94 282.243 69.105
4.95 284.055 69.286
4.96 282.171 69.367
4.97 282.020 69.222
4.98 282.655 68.647
4.99 284.821 67.808
5.00 287.631 66.996
5.01 289.385 66.260
5.02 289.074 65.135
5.03 286.131 62.755
5.04 283.994 58.322
5.05 --undefined-- 52.142
5.06 --undefined-- 49.237
5.07 --undefined-- 50.560
5.08 --undefined-- 51.800
5.09 --undefined-- --undefined--
5.10 --undefined-- --undefined--
5.11 --undefined-- --undefined--
5.12 --undefined-- --undefined--
