Time Pitch Intensity
0.01 --undefined-- --undefined--
0.02 --undefined-- --undefined--
0.03 --undefined-- --undefined--
0.04 --undefined-- --undefined--
0.05 --undefined-- 61.287
0.06 --undefined-- 62.455
0.07 --undefined-- 62.149
0.08 --undefined-- 60.743
0.09 --undefined-- 58.850
0.10 --undefined-- 56.708
0.11 --undefined-- 53.797
0.12 --undefined-- 53.405
0.13 --undefined-- 56.455
0.14 --undefined-- 59.596
0.15 276.881 63.352
0.16 261.355 66.585
0.17 248.766 68.329
0.18 246.785 68.902
0.19 243.773 68.585
0.20 236.035 67.364
0.21 224.067 66.141
0.22 221.917 66.470
0.23 218.043 67.855
0.24 212.346 69.474
0.25 209.302 71.302
0.26 198.480 72.690
0.27 194.424 72.854
0.28 189.721 71.505
0.29 184.511 68.452
0.30 181.572 63.422
0.31 181.330 58.333
0.32 --undefined-- 57.752
0.33 --undefined-- 58.010
0.34 --undefined-- 57.977
0.35 --undefined-- 59.036
0.36 186.123 60.214
0.37 185.112 61.003
0.38 182.036 61.335
0.39 183.559 61.492
0.40 185.489 61.524
0.41 184.966 62.106
0.42 170.105 64.099
0.43 165.336 66.652
0.44 162.415 68.408
0.45 159.621 68.993
0.46 160.287 69.163
0.47 161.676 69.369
0.48 163.368 69.317
0.49 165.534 69.179
0.50 168.579 69.439
0.51 171.559 69.639
0.52 173.385 69.163
0.53 177.646 68.470
0.54 180.694 68.578
0.55 182.522 68.861
0.56 185.187 68.099
0.57 186.556 65.802
0.58 183.160 61.831
0.59 184.315 56.349
0.60 --undefined-- 50.447
0.61 --undefined-- 48.323
0.62 --undefined-- 49.030
0.63 --undefined-- 48.862
0.64 --undefined-- 50.575
0.65 --undefined-- 58.181
0.66 274.299 64.888
0.67 273.170 69.132
0.68 282.194 71.543
0.69 292.001 72.875
0.70 297.608 73.340
0.71 150.255 72.922
0.72 151.325 72.247
0.73 152.030 72.176
0.74 152.281 72.396
0.75 153.412 72.504
0.76 154.753 72.525
0.77 155.885 72.434
0.78 156.362 72.196
0.79 156.188 71.844
0.80 156.415 71.446
0.81 156.651 71.164
0.82 156.959 71.008
0.83 158.107 70.846
0.84 157.405 70.712
0.85 154.133 70.488
0.86 151.329 69.500
0.87 291.516 66.873
0.88 276.702 62.168
0.89 270.893 56.446
0.90 267.458 55.945
0.91 254.229 58.998
0.92 208.172 61.459
0.93 207.834 62.704
0.94 212.555 63.288
0.95 218.332 64.156
0.96 --undefined-- 65.892
0.97 --undefined-- 68.115
0.98 167.856 70.014
0.99 161.659 70.838
1.00 161.215 70.677
1.01 164.064 70.766
1.02 166.476 71.596
1.03 168.453 72.198
1.04 171.178 72.113
1.05 174.982 71.896
1.06 178.722 71.963
1.07 181.654 71.463
1.08 189.349 69.638
1.09 202.205 67.470
1.10 210.731 66.680
1.11 217.034 66.820
1.12 221.410 66.895
1.13 226.303 66.792
1.14 230.182 66.788
1.15 236.601 67.094
1.16 240.473 67.422
1.17 244.248 67.489
1.18 247.199 67.372
1.19 250.955 67.500
1.20 256.140 67.942
1.21 260.397 68.231
1.22 264.767 68.274
1.23 270.715 68.277
1.24 277.891 68.476
1.25 283.984 68.998
1.26 286.392 69.566
1.27 288.002 69.804
1.28 289.961 69.857
1.29 290.790 70.167
1.30 289.739 70.550
1.31 288.639 70.820
1.32 287.868 71.232
1.33 286.508 71.520
1.34 286.544 71.361
1.35 287.341 71.141
1.36 287.952 71.096
1.37 291.277 71.039
1.38 292.864 70.996
1.39 292.886 71.134
1.40 291.916 71.465
1.41 288.392 71.785
1.42 277.699 72.213
1.43 266.366 72.880
1.44 256.490 73.081
1.45 244.427 72.613
1.46 233.152 71.956
1.47 227.727 70.996
1.48 224.897 69.788
1.49 223.096 69.515
1.50 221.752 69.937
1.51 221.587 69.224
1.52 223.473 66.776
1.53 213.382 63.890
1.54 203.297 62.285
1.55 200.554 61.801
1.56 199.305 62.125
1.57 200.817 63.199
1.58 205.840 64.346
1.59 212.722 65.397
1.60 218.808 66.466
1.61 227.908 67.400
1.62 236.103 68.015
1.63 245.331 68.337
1.64 254.336 68.527
1.65 261.478 68.592
1.66 265.954 68.315
1.67 274.629 67.912
1.68 281.434 68.216
1.69 285.770 69.742
1.70 290.948 71.275
1.71 295.384 72.013
1.72 298.896 72.196
1.73 150.214 72.110
1.74 150.164 71.814
1.75 298.060 71.411
1.76 293.533 70.958
1.77 287.132 70.315
1.78 278.591 69.447
1.79 268.568 68.611
1.80 240.034 68.653
1.81 233.095 69.365
1.82 215.804 69.529
1.83 200.212 69.118
1.84 183.617 68.713
1.85 177.231 68.137
1.86 175.362 67.113
1.87 175.791 66.024
1.88 175.176 65.526
1.89 174.701 65.659
1.90 175.108 65.751
1.91 175.185 65.444
1.92 175.837 65.226
1.93 177.792 65.584
1.94 180.796 66.158
1.95 185.986 66.555
1.96 190.196 66.579
1.97 195.200 65.812
1.98 208.989 64.168
1.99 212.456 62.142
2.00 209.585 60.069
2.01 199.141 58.347
2.02 198.057 57.777
2.03 196.416 58.261
2.04 249.469 58.857
2.05 248.679 60.107
2.06 260.009 62.641
2.07 279.920 65.304
2.08 295.032 67.475
2.09 154.839 69.231
2.10 159.471 70.512
2.11 162.691 70.951
2.12 164.924 70.579
2.13 166.119 70.060
2.14 167.818 69.603
2.15 170.548 68.688
2.16 173.045 67.151
2.17 173.869 65.977
2.18 171.154 66.173
2.19 168.850 66.959
2.20 164.852 67.563
2.21 160.691 67.756
2.22 156.930 66.587
2.23 154.038 63.085
2.24 --undefined-- 58.569
2.25 --undefined-- 60.402
2.26 --undefined-- 65.129
2.27 215.059 68.589
2.28 203.642 70.673
2.29 191.784 71.947
2.30 185.185 72.457
2.31 183.204 71.849
2.32 183.812 70.319
2.33 188.203 68.665
2.34 194.873 67.307
2.35 200.979 65.942
2.36 207.720 64.910
2.37 214.489 64.920
2.38 221.083 65.596
2.39 227.645 66.071
2.40 232.434 65.825
2.41 233.776 64.591
2.42 230.772 62.014
2.43 222.274 58.105
2.44 --undefined-- 53.749
2.45 --undefined-- 49.367
2.46 --undefined-- 48.600
2.47 --undefined-- 52.455
2.48 --undefined-- 57.531
2.49 --undefined-- 61.375
2.50 --undefined-- 63.439
2.51 --undefined-- 63.894
2.52 --undefined-- 64.158
2.53 294.847 65.681
2.54 294.287 67.187
2.55 293.876 68.193
2.56 291.620 69.004
2.57 287.820 69.544
2.58 285.873 69.559
2.59 286.219 69.139
2.60 288.885 68.569
2.61 292.412 67.931
2.62 --undefined-- 67.618
2.63 155.186 68.224
2.64 155.318 69.240
2.65 152.849 69.603
2.66 294.786 68.989
2.67 285.904 67.644
2.68 266.328 65.727
2.69 257.222 63.564
2.70 246.161 63.102
2.71 250.355 65.067
2.72 250.783 66.629
2.73 247.386 67.581
2.74 236.723 68.327
2.75 222.605 69.052
2.76 207.717 70.567
2.77 200.642 72.608
2.78 195.565 74.112
2.79 191.983 74.986
2.80 189.220 75.495
2.81 187.910 75.399
2.82 187.459 74.323
2.83 188.621 72.612
2.84 189.860 71.524
2.85 190.146 71.395
2.86 191.155 71.435
2.87 192.204 71.493
2.88 193.107 71.560
2.89 194.719 71.426
2.90 196.261 70.645
2.91 196.934 68.749
2.92 195.575 65.747
2.93 193.338 62.077
2.94 187.346 58.946
2.95 196.516 61.862
2.96 --undefined-- 66.246
2.97 --undefined-- 68.245
2.98 --undefined-- 67.785
2.99 --undefined-- 64.974
3.00 --undefined-- 59.838
3.01 --undefined-- 54.996
3.02 281.564 58.605
3.03 282.112 64.855
3.04 279.207 68.731
3.05 279.669 70.090
3.06 289.049 69.530
3.07 --undefined-- 68.381
3.08 --undefined-- 68.202
3.09 --undefined-- 68.089
3.10 --undefined-- 66.317
3.11 --undefined-- 62.273
3.12 --undefined-- 59.468
3.13 --undefined-- 62.682
3.14 --undefined-- 67.599
3.15 --undefined-- 71.440
3.16 --undefined-- 73.382
3.17 --undefined-- 73.267
3.18 --undefined-- 71.272
3.19 --undefined-- 68.527
3.20 --undefined-- 66.970
3.21 --undefined-- 65.809
3.22 --undefined-- 64.712
3.23 --undefined-- 66.973
3.24 --undefined-- 69.210
3.25 156.794 70.456
3.26 157.040 72.033
3.27 159.061 73.601
3.28 160.679 74.395
3.29 162.103 74.455
3.30 163.636 74.345
3.31 164.967 74.313
3.32 166.584 74.189
3.33 167.922 73.804
3.34 168.504 73.256
3.35 168.566 72.631
3.36 168.525 71.889
3.37 168.443 71.175
3.38 168.545 70.565
3.39 168.448 70.079
3.40 168.376 69.717
3.41 168.112 69.447
3.42 167.415 69.322
3.43 166.224 69.195
3.44 162.470 68.344
3.45 156.817 65.839
3.46 --undefined-- 61.408
3.47 --undefined-- 58.150
3.48 --undefined-- 57.218
3.49 --undefined-- 54.236
3.50 --undefined-- 51.505
3.51 --undefined-- 55.436
3.52 --undefined-- 57.961
3.53 --undefined-- 57.385
3.54 297.722 55.112
3.55 299.606 53.745
3.56 --undefined-- 52.432
3.57 --undefined-- 53.651
3.58 --undefined-- 58.501
3.59 --undefined-- 61.957
3.60 --undefined-- 63.281
3.61 217.492 63.232
3.62 216.831 63.511
3.63 210.233 64.756
3.64 205.877 65.906
3.65 201.148 66.165
3.66 197.185 65.892
3.67 194.049 66.069
3.68 193.197 66.360
3.69 192.657 66.478
3.70 192.827 66.782
3.71 193.336 67.108
3.72 194.454 66.959
3.73 195.538 66.504
3.74 197.137 66.462
3.75 198.146 66.844
3.76 199.516 66.988
3.77 200.991 66.709
3.78 201.841 66.438
3.79 201.820 65.692
3.80 200.266 63.441
3.81 190.349 59.802
3.82 189.552 57.551
3.83 199.718 57.903
3.84 --undefined-- 60.241
3.85 --undefined-- 64.403
3.86 289.085 66.376
3.87 289.645 65.409
3.88 287.291 62.694
3.89 258.719 62.990
3.90 239.889 66.753
3.91 230.048 69.643
3.92 222.441 71.335
3.93 219.542 71.949
3.94 217.220 71.229
3.95 215.643 68.945
3.96 211.817 65.220
3.97 --undefined-- 61.042
3.98 --undefined-- 59.722
3.99 --undefined-- 63.397
4.00 --undefined-- 65.959
4.01 --undefined-- 66.569
4.02 --undefined-- 66.482
4.03 --undefined-- 66.917
4.04 --undefined-- 67.305
4.05 --undefined-- 66.394
4.06 --undefined-- 63.448
4.07 --undefined-- 58.950
4.08 --undefined-- 58.688
4.09 --undefined-- 61.551
4.10 --undefined-- 63.931
4.11 --undefined-- 65.284
4.12 --undefined-- 65.082
4.13 --undefined-- 63.196
4.14 --undefined-- 59.587
4.15 --undefined-- 55.078
4.16 --undefined-- 53.732
4.17 --undefined-- 56.841
4.18 --undefined-- 58.849
4.19 --undefined-- 59.199
4.20 --undefined-- 60.075
4.21 --undefined-- 61.800
4.22 --undefined-- 63.167
4.23 248.144 65.482
4.24 249.899 67.410
4.25 255.471 68.086
4.26 254.541 68.755
4.27 253.331 69.785
4.28 249.726 70.330
4.29 246.966 70.146
4.30 244.918 69.754
4.31 243.557 69.607
4.32 242.849 69.723
4.33 243.195 69.977
4.34 244.881 70.441
4.35 246.293 71.233
4.36 247.954 72.016
4.37 248.909 72.403
4.38 249.344 72.620
4.39 250.114 73.092
4.40 250.171 73.465
4.41 250.231 73.213
4.42 249.809 72.323
4.43 249.144 71.147
4.44 247.758 70.094
4.45 245.875 69.392
4.46 245.937 69.259
4.47 249.040 69.812
4.48 253.859 70.536
4.49 256.601 70.513
4.50 255.731 69.202
4.51 247.997 66.363
4.52 236.563 62.103
4.53 223.638 58.457
4.54 --undefined-- 61.828
4.55 --undefined-- 65.862
4.56 --undefined-- 67.884
4.57 --undefined-- 68.063
4.58 --undefined-- 66.873
4.59 --undefined-- 64.812
4.60 251.467 61.989
4.61 252.974 61.228
4.62 250.379 64.879
4.63 214.777 67.625
4.64 204.246 68.694
4.65 196.512 69.134
4.66 192.032 69.851
4.67 188.545 70.490
4.68 185.308 70.772
4.69 182.822 71.001
4.70 180.972 71.222
4.71 179.997 70.471
4.72 178.631 68.092
4.73 177.850 65.388
4.74 184.362 64.934
4.75 186.817 65.891
4.76 188.063 66.620
4.77 189.107 66.505
4.78 188.810 66.046
4.79 189.062 66.302
4.80 189.271 66.540
4.81 188.777 66.132
4.82 189.451 65.542
4.83 187.016 65.020
4.84 186.844 64.595
4.85 187.317 64.481
4.86 187.052 64.653
4.87 185.868 64.255
4.88 183.472 62.903
4.89 180.908 61.351
4.90 178.805 60.329
4.91 178.687 59.806
4.92 177.267 60.807
4.93 175.595 --undefined--
4.94 173.979 --undefined--
4.95 --undefined-- --undefined--
4.96 --undefined-- --undefined--
