Time Pitch Intensity
0.01 --undefined-- --undefined--
0.02 146.678 --undefined--
0.03 145.584 --undefined--
0.04 143.973 --undefined--
0.05 144.077 75.212
0.06 141.647 74.880
0.07 138.092 74.548
0.08 135.502 74.176
0.09 132.583 73.629
0.10 130.237 72.628
0.11 125.982 71.055
0.12 121.475 68.874
0.13 119.559 66.632
0.14 134.164 67.725
0.15 146.415 70.985
0.16 137.715 73.157
0.17 121.269 74.077
0.18 113.778 74.328
0.19 111.416 74.225
0.20 109.655 74.003
0.21 108.240 73.897
0.22 106.971 73.862
0.23 104.893 73.533
0.24 101.938 72.651
0.25 99.241 71.650
0.26 101.557 71.014
0.27 99.702 70.534
0.28 98.472 70.040
0.29 96.720 69.446
0.30 93.025 68.587
0.31 89.696 67.458
0.32 85.387 66.469
0.33 82.711 66.031
0.34 82.542 65.643
0.35 83.167 65.227
0.36 83.535 65.125
0.37 84.004 65.080
0.38 85.708 65.098
0.39 90.508 65.171
0.40 92.196 64.875
0.41 93.372 63.924
0.42 97.306 62.113
0.43 100.010 59.311
0.44 --undefined-- 59.250
0.45 --undefined-- 61.960
0.46 --undefined-- 62.340
0.47 --undefined-- 63.061
0.48 115.134 67.515
0.49 114.895 70.679
0.50 98.117 71.632
0.51 97.907 71.311
0.52 97.551 70.926
0.53 97.568 70.818
0.54 97.808 70.865
0.55 98.091 70.910
0.56 97.928 70.698
0.57 97.621 70.354
0.58 97.616 69.734
0.59 95.261 68.409
0.60 90.474 66.537
0.61 94.114 63.813
0.62 104.591 59.341
0.63 --undefined-- 53.092
0.64 --undefined-- 48.339
0.65 --undefined-- 47.500
0.66 --undefined-- 48.052
0.67 --undefined-- 48.310
0.68 --undefined-- 48.270
0.69 --undefined-- 48.326
0.70 --undefined-- 48.114
0.71 --undefined-- 47.785
0.72 --undefined-- 47.452
0.73 --undefined-- 47.061
0.74 --undefined-- 46.914
0.75 --undefined-- 46.554
0.76 --undefined-- 45.320
0.77 --undefined-- 43.750
0.78 --undefined-- 43.187
0.79 --undefined-- 43.738
0.80 --undefined-- 44.286
0.81 --undefined-- 44.271
0.82 --undefined-- 43.818
0.83 --undefined-- 43.072
0.84 --undefined-- 42.822
0.85 --undefined-- 42.465
0.86 --undefined-- 41.071
0.87 --undefined-- 39.479
0.88 --undefined-- 40.218
0.89 --undefined-- 44.029
0.90 --undefined-- 46.634
0.91 --undefined-- 47.107
0.92 --undefined-- 47.400
0.93 --undefined-- 48.165
0.94 --undefined-- 49.614
0.95 --undefined-- 52.312
0.96 --undefined-- 57.702
0.97 191.690 65.254
0.98 170.889 70.480
0.99 155.850 73.398
1.00 151.353 74.787
1.01 141.224 75.127
1.02 138.367 75.033
1.03 140.209 74.936
1.04 140.856 74.967
1.05 140.614 75.379
1.06 136.202 76.125
1.07 130.963 76.744
1.08 126.216 76.935
1.09 122.255 76.829
1.10 118.749 76.507
1.11 116.578 75.941
1.12 115.778 75.370
1.13 115.199 74.944
1.14 114.519 74.518
1.15 112.932 73.496
1.16 108.021 71.280
1.17 106.201 67.711
1.18 111.062 62.957
1.19 112.954 57.954
1.20 --undefined-- 56.019
1.21 --undefined-- 58.901
1.22 --undefined-- 61.467
1.23 --undefined-- 63.917
1.24 167.620 68.796
1.25 154.860 72.786
1.26 145.972 74.948
1.27 135.491 76.126
1.28 127.336 76.750
1.29 123.745 76.796
1.30 117.782 76.329
1.31 113.517 75.537
1.32 109.542 74.653
1.33 106.099 73.820
1.34 104.320 73.007
1.35 103.010 72.313
1.36 104.752 71.942
1.37 106.571 71.712
1.38 107.360 71.164
1.39 107.339 70.020
1.40 106.040 68.212
1.41 105.890 66.012
1.42 115.057 64.519
1.43 123.307 65.747
1.44 136.393 69.791
1.45 133.825 73.661
1.46 127.914 76.127
1.47 125.321 77.315
1.48 124.011 77.680
1.49 123.170 77.621
1.50 124.092 77.454
1.51 125.237 77.389
1.52 126.186 77.357
1.53 127.093 77.235
1.54 128.798 76.926
1.55 129.038 75.821
1.56 121.487 73.038
1.57 111.835 68.311
1.58 104.749 63.322
1.59 110.889 61.860
1.60 108.546 62.574
1.61 --undefined-- 63.940
1.62 --undefined-- 64.704
1.63 --undefined-- 63.342
1.64 --undefined-- 61.929
1.65 125.339 65.820
1.66 126.850 69.353
1.67 121.716 70.930
1.68 117.827 71.836
1.69 115.402 72.701
1.70 115.664 73.108
1.71 118.000 73.032
1.72 118.868 72.514
1.73 116.587 71.235
1.74 117.698 69.453
1.75 127.620 68.531
1.76 148.102 70.187
1.77 164.126 72.903
1.78 175.058 74.565
1.79 181.567 74.932
1.80 187.558 74.848
1.81 191.499 74.941
1.82 194.772 74.923
1.83 197.842 74.553
1.84 201.094 74.083
1.85 201.840 73.996
1.86 200.218 74.462
1.87 197.729 74.859
1.88 192.589 74.590
1.89 180.067 73.624
1.90 170.137 72.232
1.91 154.734 70.970
1.92 144.986 70.399
1.93 139.089 70.435
1.94 135.612 71.032
1.95 138.393 72.162
1.96 137.403 73.260
1.97 135.790 74.029
1.98 133.940 74.523
1.99 134.321 74.730
2.00 133.688 74.539
2.01 134.347 74.279
2.02 134.042 74.219
2.03 131.902 74.077
2.04 129.360 73.460
2.05 125.616 72.200
2.06 120.117 70.176
2.07 114.937 67.294
2.08 113.704 63.543
2.09 --undefined-- 58.460
2.10 --undefined-- 55.420
2.11 --undefined-- 59.000
2.12 --undefined-- 60.534
2.13 --undefined-- 61.208
2.14 --undefined-- 67.058
2.15 --undefined-- 71.648
2.16 118.969 73.555
2.17 113.995 73.926
2.18 112.272 74.002
2.19 110.606 74.167
2.20 107.324 74.263
2.21 103.796 74.132
2.22 103.317 73.852
2.23 103.642 73.668
2.24 103.790 73.585
2.25 103.991 73.301
2.26 101.890 72.803
2.27 104.162 72.455
2.28 103.943 72.040
2.29 103.749 71.232
2.30 103.279 69.772
2.31 105.765 67.158
2.32 --undefined-- 62.716
2.33 --undefined-- 60.202
2.34 144.317 66.493
2.35 140.482 71.217
2.36 144.701 73.693
2.37 148.416 75.050
2.38 151.502 75.832
2.39 157.995 76.203
2.40 165.165 76.441
2.41 168.310 76.523
2.42 173.155 76.581
2.43 176.659 76.934
2.44 177.438 77.219
2.45 177.481 76.888
2.46 177.235 75.848
2.47 176.040 74.440
2.48 176.810 73.166
2.49 178.350 72.015
2.50 173.453 70.187
2.51 152.375 67.424
2.52 149.786 64.763
2.53 147.158 63.132
2.54 --undefined-- 65.472
2.55 191.725 70.381
2.56 171.975 73.703
2.57 164.636 75.359
2.58 160.144 76.066
2.59 150.295 76.412
2.60 148.773 76.615
2.61 149.433 76.298
2.62 151.306 75.573
2.63 153.762 74.914
2.64 158.419 74.466
2.65 160.468 74.153
2.66 160.044 74.051
2.67 159.256 74.267
2.68 158.108 74.729
2.69 156.286 75.305
2.70 154.015 75.736
2.71 148.737 75.639
2.72 144.241 75.095
2.73 136.352 74.436
2.74 130.202 73.971
2.75 127.626 74.007
2.76 125.622 74.534
2.77 121.960 75.204
2.78 120.759 75.573
2.79 120.640 75.485
2.80 121.828 75.129
2.81 120.432 74.184
2.82 115.440 71.859
2.83 107.789 68.134
2.84 105.875 63.847
2.85 108.339 59.789
2.86 --undefined-- 56.958
2.87 --undefined-- 57.849
2.88 --undefined-- 62.603
2.89 --undefined-- 68.391
2.90 205.178 74.017
2.91 193.896 77.470
2.92 185.922 78.656
2.93 182.712 78.497
2.94 182.724 77.982
2.95 182.878 77.350
2.96 183.306 76.548
2.97 183.478 75.720
2.98 182.775 75.049
2.99 178.682 74.292
3.00 172.369 72.727
3.01 164.152 69.693
3.02 150.713 65.189
3.03 151.004 60.329
3.04 --undefined-- 57.083
3.05 --undefined-- 56.153
3.06 --undefined-- 60.358
3.07 152.879 67.349
3.08 152.606 71.567
3.09 135.000 73.348
3.10 129.852 73.889
3.11 120.253 73.830
3.12 117.091 73.005
3.13 115.285 71.105
3.14 114.356 68.374
3.15 110.482 65.327
3.16 133.778 62.055
3.17 148.414 58.675
3.18 192.500 56.396
3.19 204.014 56.996
3.20 --undefined-- 59.987
3.21 --undefined-- 64.701
3.22 194.614 69.075
3.23 176.574 71.557
3.24 163.482 72.338
3.25 155.009 71.786
3.26 148.410 69.670
3.27 133.094 65.838
3.28 99.673 60.520
3.29 99.945 54.363
3.30 --undefined-- 49.035
3.31 --undefined-- 46.728
3.32 --undefined-- 45.914
3.33 --undefined-- 44.842
3.34 --undefined-- 45.952
3.35 --undefined-- 52.732
3.36 --undefined-- 60.917
3.37 --undefined-- 66.427
3.38 124.864 69.630
3.39 112.982 71.484
3.40 106.295 72.384
3.41 103.533 72.558
3.42 104.585 72.425
3.43 106.556 72.186
3.44 107.006 71.614
3.45 104.700 70.280
3.46 101.864 68.129
3.47 108.165 65.677
3.48 114.347 63.880
3.49 133.846 65.769
3.50 137.612 70.084
3.51 123.787 73.102
3.52 115.206 74.483
3.53 111.065 74.812
3.54 109.653 74.719
3.55 109.891 74.577
3.56 109.687 74.179
3.57 105.418 73.172
3.58 104.041 71.783
3.59 103.872 70.774
3.60 103.449 70.392
3.61 103.389 70.443
3.62 106.101 71.020
3.63 108.731 72.096
3.64 107.348 73.070
3.65 106.533 73.673
3.66 105.390 74.019
3.67 102.847 74.243
3.68 103.098 74.381
3.69 103.867 74.323
3.70 104.884 74.242
3.71 105.615 74.213
3.72 103.766 73.942
3.73 104.308 73.596
3.74 104.448 73.181
3.75 101.501 72.382
3.76 100.041 71.422
3.77 99.786 71.421
3.78 97.415 72.531
3.79 97.483 73.419
3.80 91.782 73.619
3.81 97.734 73.445
3.82 100.277 73.062
3.83 99.803 71.754
3.84 101.372 69.222
3.85 97.728 66.408
3.86 --undefined-- 63.962
3.87 133.226 61.049
3.88 --undefined-- 56.772
3.89 --undefined-- 51.908
3.90 --undefined-- 47.768
3.91 --undefined-- 44.199
3.92 --undefined-- 43.039
3.93 --undefined-- 43.617
3.94 --undefined-- 43.805
3.95 --undefined-- 42.926
3.96 --undefined-- 42.594
3.97 --undefined-- 42.517
3.98 --undefined-- 40.785
3.99 --undefined-- 38.750
4.00 --undefined-- 39.547
4.01 --undefined-- 40.381
4.02 --undefined-- 40.654
4.03 --undefined-- 39.951
4.04 --undefined-- 41.728
4.05 --undefined-- 45.647
4.06 --undefined-- 47.243
4.07 --undefined-- 46.368
4.08 --undefined-- 43.854
4.09 --undefined-- 42.245
4.10 --undefined-- 43.231
4.11 --undefined-- 43.787
4.12 --undefined-- 42.857
4.13 --undefined-- 40.570
4.14 --undefined-- 39.294
4.15 --undefined-- 39.674
4.16 --undefined-- 39.905
4.17 --undefined-- 40.193
4.18 --undefined-- 41.032
4.19 --undefined-- 41.663
4.20 --undefined-- 42.254
4.21 --undefined-- 42.173
4.22 --undefined-- 40.474
4.23 --undefined-- 39.851
4.24 --undefined-- 41.208
4.25 --undefined-- 42.160
4.26 --undefined-- 42.008
4.27 --undefined-- 41.268
4.28 --undefined-- 41.561
4.29 --undefined-- 42.558
4.30 --undefined-- 42.066
4.31 --undefined-- 42.001
4.32 --undefined-- 54.421
4.33 --undefined-- 63.641
4.34 --undefined-- 68.603
4.35 127.890 71.222
4.36 118.611 72.730
4.37 107.633 73.358
4.38 110.672 73.119
4.39 110.450 72.171
4.40 111.179 70.656
4.41 112.510 68.186
4.42 111.758 64.860
4.43 --undefined-- 63.523
4.44 --undefined-- 65.380
4.45 --undefined-- 70.291
4.46 --undefined-- 75.082
4.47 138.094 77.613
4.48 127.164 78.346
4.49 121.781 78.296
4.50 120.700 78.117
4.51 120.195 77.833
4.52 120.507 77.520
4.53 120.930 77.260
4.54 121.401 76.887
4.55 120.046 75.840
4.56 114.624 73.247
4.57 108.421 69.275
4.58 112.665 65.948
4.59 134.026 67.116
4.60 149.108 71.466
4.61 135.732 74.296
4.62 124.443 75.560
4.63 118.809 76.020
4.64 119.066 76.127
4.65 119.044 76.014
4.66 118.598 75.681
4.67 117.696 75.202
4.68 116.347 74.645
4.69 113.514 74.260
4.70 117.179 74.245
4.71 118.132 74.394
4.72 118.368 74.454
4.73 118.782 74.384
4.74 119.139 74.270
4.75 118.123 74.133
4.76 116.542 73.948
4.77 114.986 73.770
4.78 114.380 73.651
4.79 114.609 73.657
4.80 113.186 73.915
4.81 112.999 74.260
4.82 112.691 74.349
4.83 112.565 73.852
4.84 109.688 72.338
4.85 109.050 69.392
4.86 112.954 65.183
4.87 117.497 59.866
4.88 --undefined-- 53.286
4.89 --undefined-- 48.731
4.90 --undefined-- 54.065
4.91 --undefined-- 63.041
4.92 204.744 70.594
4.93 189.002 75.214
4.94 175.058 77.418
4.95 170.263 78.413
4.96 169.965 78.751
4.97 168.715 78.580
4.98 167.170 78.193
4.99 165.589 77.731
5.00 165.007 76.984
5.01 162.467 75.778
5.02 156.092 74.410
5.03 152.657 73.752
5.04 149.417 74.069
5.05 148.069 75.071
5.06 145.979 76.409
5.07 145.837 77.028
5.08 140.092 76.665
5.09 134.406 76.214
5.10 131.714 76.112
5.11 125.682 76.001
5.12 124.206 75.818
5.13 124.249 75.621
5.14 125.388 75.426
5.15 126.169 75.313
5.16 126.052 75.269
5.17 125.521 74.981
5.18 124.444 73.861
5.19 119.860 71.403
5.20 117.637 67.865
5.21 121.377 64.324
5.22 121.379 61.238
5.23 130.031 59.327
5.24 131.624 60.510
5.25 145.719 65.624
5.26 154.359 70.290
5.27 140.951 73.369
5.28 140.411 75.027
5.29 122.851 75.422
5.30 121.122 75.217
5.31 120.222 74.872
5.32 121.483 74.473
5.33 122.825 74.201
5.34 122.768 74.156
5.35 121.908 74.005
5.36 117.420 72.817
5.37 109.654 70.556
5.38 112.785 69.268
5.39 125.759 70.655
5.40 129.040 73.060
5.41 127.626 74.534
5.42 121.353 74.917
5.43 116.825 74.884
5.44 114.240 74.834
5.45 113.439 74.730
5.46 112.558 74.561
5.47 111.501 74.428
5.48 111.537 74.242
5.49 111.941 73.865
5.50 112.587 --undefined--
5.51 112.160 --undefined--
5.52 --undefined-- --undefined--
5.53 --undefined-- --undefined--
