Time Pitch Intensity
0.01 --undefined-- --undefined--
0.02 252.705 --undefined--
0.03 270.044 --undefined--
0.04 275.720 --undefined--
0.05 280.973 75.973
0.06 284.809 77.232
0.07 286.852 77.252
0.08 286.715 76.821
0.09 282.447 76.803
0.10 276.923 76.710
0.11 268.361 75.668
0.12 250.593 74.083
0.13 239.076 72.351
0.14 225.514 70.171
0.15 203.494 67.935
0.16 194.754 65.515
0.17 186.760 62.226
0.18 --undefined-- 59.063
0.19 --undefined-- 56.508
0.20 --undefined-- 57.097
0.21 --undefined-- 59.903
0.22 281.281 60.777
0.23 282.819 60.725
0.24 291.143 60.509
0.25 290.718 58.629
0.26 237.224 57.593
0.27 220.515 61.004
0.28 216.850 63.548
0.29 217.541 65.121
0.30 211.743 66.698
0.31 209.461 67.698
0.32 208.409 67.758
0.33 206.768 67.380
0.34 206.682 67.223
0.35 206.809 67.387
0.36 207.921 67.826
0.37 209.011 68.427
0.38 211.050 68.867
0.39 213.375 69.094
0.40 215.563 69.231
0.41 216.883 69.413
0.42 217.971 69.695
0.43 219.295 69.907
0.44 220.438 70.059
0.45 221.316 70.070
0.46 222.163 69.899
0.47 223.208 69.653
0.48 225.159 69.384
0.49 228.174 68.662
0.50 230.010 66.704
0.51 229.253 63.179
0.52 227.240 59.122
0.53 --undefined-- 56.677
0.54 --undefined-- 57.236
0.55 --undefined-- 59.618
0.56 --undefined-- 59.669
0.57 --undefined-- 56.790
0.58 --undefined-- 54.448
0.59 --undefined-- 53.909
0.60 --undefined-- 54.342
0.61 --undefined-- 57.650
0.62 205.794 60.598
0.63 211.909 62.762
0.64 212.707 64.535
0.65 202.203 65.759
0.66 187.458 66.523
0.67 186.556 66.833
0.68 184.218 66.559
0.69 181.193 66.023
0.70 178.666 65.534
0.71 175.598 65.012
0.72 174.152 64.402
0.73 175.257 64.049
0.74 175.301 63.972
0.75 175.517 63.829
0.76 176.246 63.887
0.77 178.650 64.558
0.78 182.086 65.501
0.79 186.273 66.236
0.80 191.163 66.476
0.81 196.296 65.987
0.82 201.832 64.522
0.83 204.455 61.820
0.84 188.250 57.908
0.85 --undefined-- 55.600
0.86 --undefined-- 57.519
0.87 --undefined-- 61.309
0.88 143.471 64.786
0.89 143.191 66.830
0.90 146.128 67.830
0.91 148.923 68.457
0.92 152.451 69.219
0.93 157.669 70.289
0.94 161.538 71.141
0.95 164.472 71.484
0.96 165.555 71.660
0.97 165.204 71.886
0.98 163.816 72.075
0.99 160.008 71.998
1.00 155.952 71.177
1.01 --undefined-- 69.869
1.02 285.848 69.332
1.03 268.479 69.541
1.04 249.348 70.133
1.05 234.985 71.064
1.06 222.531 71.733
1.07 209.267 72.148
1.08 196.465 72.567
1.09 187.695 72.945
1.10 179.970 72.835
1.11 171.934 71.817
1.12 162.100 69.640
1.13 156.347 66.545
1.14 --undefined-- 64.603
1.15 --undefined-- 63.730
1.16 --undefined-- 61.941
1.17 --undefined-- 60.242
1.18 --undefined-- 59.911
1.19 --undefined-- 60.751
1.20 186.421 61.656
1.21 178.012 62.050
1.22 175.343 60.937
1.23 184.187 58.558
1.24 --undefined-- 57.075
1.25 --undefined-- 55.893
1.26 --undefined-- 55.759
1.27 --undefined-- 58.313
1.28 --undefined-- 58.996
1.29 --undefined-- 57.396
1.30 --undefined-- 57.307
1.31 --undefined-- 57.874
1.32 --undefined-- 56.142
1.33 --undefined-- 53.714
1.34 --undefined-- 58.270
1.35 232.673 63.619
1.36 228.083 66.563
1.37 222.025 67.942
1.38 217.544 68.441
1.39 215.750 68.498
1.40 214.920 68.299
1.41 214.657 67.738
1.42 215.133 67.188
1.43 214.590 67.536
1.44 214.304 68.463
1.45 215.396 69.075
1.46 215.550 69.066
1.47 214.743 68.754
1.48 214.108 68.452
1.49 213.002 67.888
1.50 212.112 67.072
1.51 210.785 66.602
1.52 209.119 66.130
1.53 198.203 64.557
1.54 188.662 61.061
1.55 --undefined-- 56.200
1.56 --undefined-- 55.289
1.57 --undefined-- 57.759
1.58 --undefined-- 59.730
1.59 --undefined-- 60.582
1.60 --undefined-- 62.881
1.61 225.735 66.818
1.62 211.395 69.654
1.63 205.357 71.061
1.64 201.482 71.213
1.65 201.413 70.666
1.66 202.534 70.134
1.67 203.983 69.656
1.68 205.104 69.078
1.69 204.899 68.141
1.70 203.879 66.746
1.71 202.828 64.697
1.72 203.300 61.844
1.73 204.706 60.728
1.74 204.141 62.396
1.75 202.904 62.937
1.76 --undefined-- 61.107
1.77 --undefined-- 58.787
1.78 --undefined-- 60.075
1.79 196.082 62.606
1.80 191.539 64.539
1.81 191.456 65.793
1.82 --undefined-- 67.007
1.83 --undefined-- 67.922
1.84 --undefined-- 67.522
1.85 --undefined-- 65.922
1.86 169.529 64.610
1.87 170.805 64.306
1.88 168.002 63.841
1.89 167.733 62.970
1.90 169.505 62.160
1.91 167.307 61.373
1.92 164.809 60.724
1.93 162.796 60.607
1.94 163.877 60.975
1.95 168.297 61.739
1.96 168.208 62.520
1.97 168.707 62.757
1.98 169.352 62.584
1.99 168.959 62.546
2.00 168.895 62.715
2.01 168.373 62.672
2.02 167.362 62.625
2.03 169.489 62.816
2.04 171.600 62.884
2.05 173.228 62.989
2.06 174.504 62.761
2.07 176.764 61.272
2.08 180.939 58.219
2.09 --undefined-- 54.460
2.10 --undefined-- 51.911
2.11 --undefined-- 51.791
2.12 --undefined-- 59.293
2.13 204.113 66.361
2.14 203.040 70.600
2.15 197.779 72.783
2.16 196.307 73.600
2.17 197.155 73.276
2.18 198.765 71.860
2.19 200.974 70.167
2.20 203.143 69.420
2.21 206.292 69.161
2.22 207.093 69.441
2.23 206.751 70.256
2.24 205.754 70.158
2.25 202.903 68.577
2.26 213.209 66.903
2.27 210.544 66.084
2.28 199.992 64.954
2.29 195.660 63.446
2.30 191.242 62.470
2.31 190.499 63.284
2.32 189.339 65.045
2.33 187.036 65.652
2.34 184.769 64.419
2.35 183.626 62.268
2.36 183.294 62.041
2.37 183.799 63.451
2.38 185.836 64.303
2.39 189.892 64.149
2.40 193.694 63.701
2.41 197.469 63.983
2.42 203.967 64.690
2.43 207.635 65.578
2.44 211.895 66.407
2.45 215.728 67.119
2.46 217.257 67.838
2.47 217.771 68.403
2.48 217.112 68.878
2.49 215.125 69.486
2.50 213.641 70.261
2.51 209.246 71.200
2.52 206.627 72.190
2.53 204.070 72.546
2.54 200.058 71.478
2.55 194.578 69.102
2.56 --undefined-- 66.425
2.57 --undefined-- 62.954
2.58 --undefined-- 57.872
2.59 --undefined-- 55.102
2.60 --undefined-- 59.581
2.61 --undefined-- 62.733
2.62 --undefined-- 62.504
2.63 228.304 59.789
2.64 258.446 59.842
2.65 --undefined-- 61.661
2.66 --undefined-- 61.658
2.67 --undefined-- 59.397
2.68 --undefined-- 55.586
2.69 --undefined-- 55.512
2.70 --undefined-- 56.959
2.71 --undefined-- 57.102
2.72 --undefined-- 56.991
2.73 --undefined-- 57.043
2.74 --undefined-- 56.766
2.75 --undefined-- 57.147
2.76 --undefined-- 57.567
2.77 --undefined-- 56.309
2.78 --undefined-- 54.102
2.79 --undefined-- 52.636
2.80 --undefined-- 53.702
2.81 --undefined-- 55.518
2.82 --undefined-- 56.519
2.83 --undefined-- 55.793
2.84 --undefined-- 53.638
2.85 --undefined-- 54.603
2.86 --undefined-- 56.110
2.87 --undefined-- 56.712
2.88 --undefined-- 60.484
2.89 279.488 65.531
2.90 286.333 69.046
2.91 284.143 71.032
2.92 288.475 72.079
2.93 294.380 72.533
2.94 152.192 72.521
2.95 157.593 72.607
2.96 160.233 73.058
2.97 161.138 73.633
2.98 162.807 74.219
2.99 162.901 74.748
3.00 162.776 75.263
3.01 162.752 75.577
3.02 162.373 75.549
3.03 162.156 75.458
3.04 162.037 75.389
3.05 162.292 75.235
3.06 163.067 75.123
3.07 164.513 75.132
3.08 167.747 75.121
3.09 170.807 74.815
3.10 172.685 74.081
3.11 173.974 73.295
3.12 174.094 73.152
3.13 173.715 73.619
3.14 173.525 74.098
3.15 173.279 74.361
3.16 172.291 74.461
3.17 170.912 74.402
3.18 169.642 74.086
3.19 168.271 73.573
3.20 166.992 73.240
3.21 166.208 73.075
3.22 165.458 72.839
3.23 165.091 72.674
3.24 166.509 72.885
3.25 168.112 73.427
3.26 168.933 73.720
3.27 169.184 73.273
3.28 169.894 71.888
3.29 167.402 69.634
3.30 158.061 66.498
3.31 162.588 62.055
3.32 167.508 57.309
3.33 169.136 55.335
3.34 168.734 54.296
3.35 --undefined-- 54.530
3.36 --undefined-- 60.326
3.37 192.295 66.913
3.38 189.213 71.298
3.39 191.431 73.553
3.40 194.825 74.287
3.41 197.321 73.859
3.42 198.601 72.499
3.43 199.310 70.747
3.44 200.519 69.557
3.45 199.172 69.877
3.46 195.644 71.624
3.47 191.405 73.403
3.48 186.911 73.706
3.49 184.165 71.506
3.50 186.854 66.298
3.51 178.640 58.946
3.52 --undefined-- 54.919
3.53 --undefined-- 55.805
3.54 --undefined-- 55.279
3.55 --undefined-- 53.287
3.56 --undefined-- 53.107
3.57 --undefined-- 56.935
3.58 297.990 61.960
3.59 276.613 64.688
3.60 257.299 65.523
3.61 252.382 65.589
3.62 248.544 65.443
3.63 246.274 65.215
3.64 245.650 64.896
3.65 244.868 64.007
3.66 241.101 62.292
3.67 226.636 60.655
3.68 230.139 58.653
3.69 --undefined-- 54.635
3.70 --undefined-- 52.364
3.71 --undefined-- 56.976
3.72 --undefined-- 62.526
3.73 296.103 66.452
3.74 293.634 68.680
3.75 294.975 69.455
3.76 296.929 69.263
3.77 298.662 68.785
3.78 150.437 68.742
3.79 149.765 69.913
3.80 297.990 71.091
3.81 295.341 71.539
3.82 293.397 71.637
3.83 291.355 71.584
3.84 288.348 71.399
3.85 283.462 71.108
3.86 276.931 70.670
3.87 258.482 70.257
3.88 248.173 70.263
3.89 226.064 70.611
3.90 209.362 71.210
3.91 190.505 72.037
3.92 185.560 72.544
3.93 170.683 72.287
3.94 164.267 71.481
3.95 161.462 70.258
3.96 166.247 68.670
3.97 168.833 67.124
3.98 171.605 65.788
3.99 193.673 64.581
4.00 199.724 64.344
4.01 --undefined-- 65.120
4.02 --undefined-- 65.038
4.03 --undefined-- 63.259
4.04 --undefined-- 61.225
4.05 --undefined-- 62.186
4.06 --undefined-- 64.392
4.07 --undefined-- 65.130
4.08 216.441 64.416
4.09 192.256 64.402
4.10 189.813 65.943
4.11 179.977 67.297
4.12 180.265 68.285
4.13 182.681 69.337
4.14 192.159 70.417
4.15 196.690 70.878
4.16 204.358 70.079
4.17 215.705 68.370
4.18 222.670 66.595
4.19 222.327 64.116
4.20 218.879 60.250
4.21 --undefined-- 56.528
4.22 --undefined-- 55.521
4.23 --undefined-- 57.640
4.24 --undefined-- 58.961
4.25 --undefined-- 58.407
4.26 --undefined-- 56.343
4.27 --undefined-- 53.658
4.28 --undefined-- 52.901
4.29 --undefined-- 53.929
4.30 --undefined-- 56.691
4.31 --undefined-- 59.488
4.32 --undefined-- 62.797
4.33 228.148 65.842
4.34 213.501 67.861
4.35 198.413 69.170
4.36 184.834 69.720
4.37 179.100 69.689
4.38 178.176 69.454
4.39 184.870 68.867
4.40 186.492 67.190
4.41 184.808 63.646
4.42 187.404 58.901
4.43 184.060 58.185
4.44 214.533 61.781
4.45 203.227 65.035
4.46 200.532 67.275
4.47 194.892 68.553
4.48 193.119 69.334
4.49 192.634 69.810
4.50 192.938 69.712
4.51 193.303 69.047
4.52 193.250 67.988
4.53 191.280 67.223
4.54 187.321 67.547
4.55 183.175 67.923
4.56 181.444 67.534
4.57 178.264 67.289
4.58 173.902 67.170
4.59 170.639 66.099
4.60 170.382 64.722
4.61 155.756 64.666
4.62 154.872 65.732
4.63 151.601 66.746
4.64 147.646 66.926
4.65 147.424 66.580
4.66 148.430 66.358
4.67 150.134 66.203
4.68 152.213 66.230
4.69 153.966 66.133
4.70 157.532 65.315
4.71 160.790 64.593
4.72 162.941 64.741
4.73 167.027 64.474
4.74 173.673 64.352
4.75 180.726 65.818
4.76 190.501 67.183
4.77 196.100 67.569
4.78 202.379 66.989
4.79 204.177 64.824
4.80 200.663 60.989
4.81 207.436 58.667
4.82 243.885 60.539
4.83 224.054 62.320
4.84 217.313 63.146
4.85 214.284 63.414
4.86 215.491 62.991
4.87 173.674 63.481
4.88 157.527 65.225
4.89 157.697 65.685
4.90 168.254 64.584
4.91 167.820 63.841
4.92 166.324 --undefined--
4.93 163.248 --undefined--
4.94 --undefined-- --undefined--
4.95 --undefined-- --undefined--
