Time Pitch Intensity
0.01 --undefined-- --undefined--
0.02 --undefined-- --undefined--
0.03 --undefined-- --undefined--
0.04 --undefined-- --undefined--
0.05 --undefined-- 52.800
0.06 --undefined-- 53.476
0.07 --undefined-- 54.145
0.08 --undefined-- 55.465
0.09 --undefined-- 58.809
0.10 202.030 65.323
0.11 182.597 69.680
0.12 173.887 71.334
0.13 168.278 71.515
0.14 165.185 71.307
0.15 162.661 71.040
0.16 160.924 70.885
0.17 161.222 71.051
0.18 162.643 71.431
0.19 163.724 71.733
0.20 163.458 71.842
0.21 163.335 71.869
0.22 163.409 71.900
0.23 163.412 71.910
0.24 163.923 71.860
0.25 164.700 71.751
0.26 166.845 71.566
0.27 164.201 71.505
0.28 162.675 71.952
0.29 161.640 72.532
0.30 159.612 72.785
0.31 157.999 72.860
0.32 157.056 72.961
0.33 156.930 72.986
0.34 156.730 72.724
0.35 156.023 72.196
0.36 155.409 71.738
0.37 154.929 71.510
0.38 154.407 71.408
0.39 153.614 71.435
0.40 152.649 71.530
0.41 151.634 71.448
0.42 150.698 71.167
0.43 150.492 70.863
0.44 150.607 70.513
0.45 150.618 70.097
0.46 150.828 69.630
0.47 151.047 69.037
0.48 151.676 68.290
0.49 150.565 67.416
0.50 147.814 66.284
0.51 140.082 64.315
0.52 145.382 61.007
0.53 --undefined-- 56.741
0.54 --undefined-- 51.552
0.55 --undefined-- 43.747
0.56 --undefined-- 34.934
0.57 --undefined-- 32.694
0.58 --undefined-- 33.583
0.59 --undefined-- 35.428
0.60 --undefined-- 35.817
0.61 --undefined-- 34.771
0.62 --undefined-- 35.405
0.63 --undefined-- 36.374
0.64 --undefined-- 35.309
0.65 --undefined-- 34.041
0.66 --undefined-- 35.631
0.67 --undefined-- 36.205
0.68 --undefined-- 35.096
0.69 --undefined-- 34.103
0.70 --undefined-- 33.382
0.71 --undefined-- 32.491
0.72 --undefined-- 32.227
0.73 --undefined-- 33.302
0.74 --undefined-- 33.492
0.75 --undefined-- 32.532
0.76 --undefined-- 31.921
0.77 --undefined-- 32.032
0.78 --undefined-- 31.804
0.79 --undefined-- 31.975
0.80 --undefined-- 33.545
0.81 --undefined-- 33.855
0.82 --undefined-- 33.638
0.83 --undefined-- 35.966
0.84 --undefined-- 37.447
0.85 --undefined-- 36.208
0.86 --undefined-- 33.918
0.87 --undefined-- 34.402
0.88 --undefined-- 36.594
0.89 --undefined-- 37.176
0.90 --undefined-- 35.622
0.91 --undefined-- 34.218
0.92 --undefined-- 33.959
0.93 --undefined-- 33.902
0.94 --undefined-- 35.309
0.95 --undefined-- 37.370
0.96 --undefined-- 48.244
0.97 --undefined-- 57.779
0.98 181.355 63.307
0.99 172.049 66.099
1.00 172.329 67.544
1.01 174.314 68.554
1.02 176.826 69.503
1.03 180.619 70.518
1.04 184.337 71.401
1.05 187.031 71.940
1.06 187.807 71.984
1.07 186.719 71.342
1.08 183.173 69.628
1.09 175.820 66.325
1.10 168.211 60.957
1.11 --undefined-- 53.195
1.12 --undefined-- 44.095
1.13 --undefined-- 47.775
1.14 --undefined-- 55.795
1.15 --undefined-- 63.167
1.16 262.404 70.011
1.17 262.923 74.850
1.18 264.464 77.568
1.19 266.005 78.506
1.20 269.270 78.146
1.21 275.040 77.150
1.22 281.852 76.080
1.23 289.257 75.001
1.24 293.635 73.701
1.25 295.652 72.068
1.26 293.983 70.231
1.27 285.464 68.259
1.28 257.376 65.725
1.29 251.927 61.947
1.30 --undefined-- 55.990
1.31 --undefined-- 48.086
1.32 --undefined-- 48.857
1.33 --undefined-- 56.837
1.34 --undefined-- 64.676
1.35 247.927 69.763
1.36 238.066 72.059
1.37 225.904 72.154
1.38 209.263 71.047
1.39 200.894 70.020
1.40 196.661 69.472
1.41 196.802 69.521
1.42 201.349 70.064
1.43 209.181 70.684
1.44 216.432 71.164
1.45 221.011 71.922
1.46 231.145 72.976
1.47 234.579 73.076
1.48 235.984 71.436
1.49 238.096 67.624
1.50 247.414 61.032
1.51 --undefined-- 52.227
1.52 --undefined-- 50.987
1.53 --undefined-- 59.054
1.54 230.112 65.610
1.55 216.685 68.874
1.56 199.534 69.449
1.57 173.022 68.605
1.58 154.128 67.745
1.59 144.683 67.323
1.60 139.091 67.202
1.61 136.960 66.757
1.62 134.544 64.940
1.63 124.973 60.762
1.64 --undefined-- 53.539
1.65 --undefined-- 43.703
1.66 --undefined-- 38.795
1.67 --undefined-- 39.620
1.68 --undefined-- 41.058
1.69 --undefined-- 47.200
1.70 --undefined-- 58.369
1.71 192.558 65.749
1.72 184.976 69.303
1.73 172.406 70.265
1.74 167.952 70.125
1.75 164.712 69.866
1.76 162.363 69.617
1.77 161.149 69.352
1.78 161.266 69.216
1.79 161.789 69.376
1.80 162.314 69.740
1.81 162.659 70.015
1.82 162.933 70.100
1.83 163.669 70.067
1.84 164.118 70.033
1.85 164.875 70.048
1.86 165.644 70.105
1.87 165.639 70.216
1.88 164.971 70.356
1.89 164.048 70.437
1.90 162.207 70.297
1.91 160.009 69.892
1.92 159.166 69.107
1.93 161.958 67.449
1.94 159.182 64.635
1.95 152.455 61.619
1.96 162.167 60.853
1.97 163.074 63.000
1.98 178.437 66.240
1.99 190.751 69.083
2.00 200.730 70.946
2.01 191.829 71.665
2.02 164.982 71.599
2.03 154.380 71.348
2.04 149.854 70.835
2.05 148.959 69.650
2.06 147.600 67.542
2.07 140.385 64.443
2.08 138.930 60.625
2.09 138.705 55.901
2.10 --undefined-- 49.175
2.11 --undefined-- 40.624
2.12 --undefined-- 37.957
2.13 --undefined-- 39.065
2.14 --undefined-- 40.079
2.15 --undefined-- 41.883
2.16 --undefined-- 44.261
2.17 --undefined-- 46.853
2.18 --undefined-- 49.709
2.19 222.720 53.887
2.20 196.099 59.874
2.21 162.738 64.126
2.22 158.282 66.355
2.23 160.525 67.579
2.24 160.055 68.181
2.25 158.900 68.280
2.26 156.719 68.043
2.27 155.285 67.616
2.28 154.591 67.133
2.29 153.541 66.592
2.30 151.794 66.033
2.31 150.014 65.615
2.32 150.158 65.391
2.33 151.229 65.368
2.34 153.151 65.526
2.35 154.333 65.797
2.36 155.064 66.179
2.37 155.126 66.707
2.38 156.208 67.436
2.39 155.483 68.237
2.40 154.520 68.809
2.41 153.116 69.019
2.42 152.479 69.085
2.43 153.051 69.494
2.44 154.025 70.110
2.45 154.244 70.564
2.46 154.303 70.898
2.47 155.408 71.157
2.48 154.612 71.224
2.49 153.795 71.092
2.50 153.075 70.795
2.51 153.207 70.292
2.52 153.191 69.352
2.53 152.550 67.490
2.54 151.122 64.082
2.55 --undefined-- 58.813
2.56 --undefined-- 59.096
2.57 --undefined-- 66.112
2.58 182.380 70.235
2.59 176.924 71.851
2.60 174.267 72.573
2.61 173.041 73.071
2.62 170.987 73.018
2.63 169.960 72.651
2.64 169.450 72.354
2.65 169.288 72.150
2.66 168.750 72.067
2.67 168.177 72.067
2.68 167.167 71.929
2.69 165.915 71.519
2.70 163.214 70.705
2.71 158.448 69.450
2.72 118.474 67.670
2.73 104.078 64.903
2.74 104.022 60.560
2.75 --undefined-- 53.768
2.76 --undefined-- 43.525
2.77 --undefined-- 34.523
2.78 --undefined-- 31.653
2.79 --undefined-- 30.197
2.80 --undefined-- 30.142
2.81 --undefined-- 29.638
2.82 --undefined-- 32.883
2.83 --undefined-- 36.765
2.84 --undefined-- 37.112
2.85 --undefined-- 34.240
2.86 --undefined-- 31.202
2.87 --undefined-- 31.350
2.88 --undefined-- 32.204
2.89 --undefined-- 33.250
2.90 --undefined-- 34.117
2.91 --undefined-- 34.287
2.92 --undefined-- 33.865
2.93 --undefined-- 33.048
2.94 --undefined-- 33.139
2.95 --undefined-- 33.644
2.96 --undefined-- 34.370
2.97 --undefined-- 34.559
2.98 --undefined-- 35.165
2.99 --undefined-- 37.017
3.00 --undefined-- 38.851
3.01 --undefined-- 39.334
3.02 --undefined-- 38.607
3.03 --undefined-- 38.097
3.04 --undefined-- 38.322
3.05 --undefined-- 38.077
3.06 --undefined-- 37.067
3.07 --undefined-- 36.604
3.08 --undefined-- 36.631
3.09 --undefined-- 35.626
3.10 --undefined-- 34.606
3.11 --undefined-- 34.935
3.12 --undefined-- 34.645
3.13 --undefined-- 32.871
3.14 --undefined-- 31.393
3.15 --undefined-- 32.294
3.16 --undefined-- 33.591
3.17 --undefined-- 33.668
3.18 --undefined-- 35.143
3.19 --undefined-- 48.406
3.20 --undefined-- 59.484
3.21 182.756 66.117
3.22 172.986 69.634
3.23 170.787 71.408
3.24 171.868 72.431
3.25 172.449 72.955
3.26 172.716 72.822
3.27 171.201 71.627
3.28 165.772 68.901
3.29 157.831 64.229
3.30 --undefined-- 57.274
3.31 --undefined-- 51.336
3.32 --undefined-- 53.157
3.33 --undefined-- 55.810
3.34 --undefined-- 58.657
3.35 --undefined-- 63.585
3.36 189.179 69.248
3.37 184.398 73.146
3.38 184.308 75.452
3.39 184.554 76.545
3.40 185.296 76.732
3.41 188.447 76.548
3.42 194.034 76.362
3.43 202.212 76.258
3.44 210.621 76.385
3.45 220.021 76.696
3.46 229.733 76.958
3.47 238.406 76.904
3.48 246.768 76.353
3.49 256.923 75.457
3.50 263.678 74.376
3.51 268.402 73.021
3.52 276.003 71.748
3.53 277.230 71.175
3.54 272.655 71.683
3.55 264.604 72.951
3.56 255.849 74.232
3.57 246.026 75.064
3.58 234.399 75.407
3.59 222.285 75.385
3.60 210.613 75.142
3.61 198.734 74.970
3.62 190.239 74.796
3.63 182.368 74.438
3.64 178.121 73.875
3.65 177.231 73.089
3.66 177.117 72.336
3.67 177.456 71.688
3.68 177.253 70.995
3.69 177.782 70.789
3.70 180.711 70.985
3.71 178.888 70.904
3.72 177.936 70.671
3.73 176.328 70.371
3.74 173.986 70.001
3.75 170.958 69.590
3.76 168.052 69.163
3.77 161.252 68.828
3.78 155.646 68.566
3.79 150.723 68.256
3.80 146.356 68.076
3.81 141.796 68.114
3.82 139.076 68.219
3.83 137.679 68.310
3.84 141.379 68.211
3.85 142.601 67.978
3.86 143.537 67.813
3.87 144.993 67.689
3.88 145.576 67.493
3.89 144.486 66.890
3.90 141.510 65.440
3.91 135.192 62.588
3.92 128.892 57.749
3.93 --undefined-- 51.271
3.94 --undefined-- 50.040
3.95 --undefined-- 51.938
3.96 --undefined-- 53.261
3.97 --undefined-- 53.652
3.98 --undefined-- 52.418
3.99 --undefined-- 54.487
4.00 167.240 61.087
4.01 180.150 65.902
4.02 183.088 68.632
4.03 160.397 69.680
4.04 148.022 69.662
4.05 149.007 69.422
4.06 151.232 69.449
4.07 153.866 69.484
4.08 158.883 69.363
4.09 167.304 69.449
4.10 175.906 69.410
4.11 183.559 68.340
4.12 184.121 65.834
4.13 183.272 62.453
4.14 193.649 58.360
4.15 --undefined-- 52.566
4.16 --undefined-- 51.188
4.17 --undefined-- 55.825
4.18 --undefined-- 58.261
4.19 --undefined-- 58.675
4.20 --undefined-- 61.639
4.21 203.436 66.046
4.22 191.231 68.186
4.23 182.494 68.349
4.24 175.685 67.146
4.25 166.891 64.495
4.26 162.639 60.250
4.27 --undefined-- 54.567
4.28 --undefined-- 47.112
4.29 --undefined-- 42.042
4.30 --undefined-- 50.008
4.31 --undefined-- 55.962
4.32 --undefined-- 61.386
4.33 --undefined-- 66.730
4.34 177.111 69.644
4.35 175.117 70.599
4.36 173.218 70.441
4.37 171.306 69.338
4.38 169.109 67.479
4.39 167.866 65.602
4.40 167.342 64.450
4.41 166.511 64.153
4.42 167.714 65.059
4.43 169.746 66.939
4.44 167.755 68.608
4.45 164.805 69.576
4.46 161.941 69.924
4.47 159.631 69.882
4.48 156.532 69.695
4.49 154.072 69.623
4.50 151.777 69.827
4.51 150.841 70.137
4.52 150.214 70.147
4.53 151.196 69.895
4.54 153.147 69.559
4.55 155.339 69.227
4.56 158.518 69.138
4.57 161.446 69.392
4.58 165.607 69.872
4.59 170.373 70.468
4.60 175.043 70.945
4.61 180.437 71.081
4.62 186.614 70.953
4.63 193.276 70.744
4.64 197.307 70.506
4.65 198.005 70.142
4.66 194.998 69.189
4.67 --undefined-- 67.027
4.68 --undefined-- 63.473
4.69 --undefined-- 59.139
4.70 --undefined-- 53.252
4.71 --undefined-- 44.723
4.72 --undefined-- 36.923
4.73 --undefined-- 33.376
4.74 --undefined-- 31.176
4.75 --undefined-- 30.038
4.76 --undefined-- 32.823
4.77 --undefined-- 36.074
4.78 --undefined-- 36.476
4.79 --undefined-- 34.142
4.80 --undefined-- 36.356
4.81 --undefined-- 42.307
4.82 --undefined-- 44.809
4.83 --undefined-- 43.297
4.84 --undefined-- 38.284
4.85 --undefined-- 33.911
4.86 --undefined-- 37.846
4.87 --undefined-- 44.512
4.88 --undefined-- 48.376
4.89 --undefined-- 49.927
4.90 --undefined-- 56.464
4.91 191.675 64.628
4.92 190.046 69.333
4.93 178.267 71.458
4.94 170.950 71.941
4.95 169.306 71.177
4.96 165.642 68.704
4.97 152.465 64.152
4.98 151.941 58.354
4.99 --undefined-- 60.828
5.00 184.710 67.240
5.01 175.502 70.521
5.02 169.301 71.640
5.03 165.204 71.872
5.04 160.900 71.575
5.05 154.672 70.677
5.06 147.311 69.260
5.07 141.366 67.205
5.08 139.006 64.031
5.09 133.801 59.697
5.10 --undefined-- 55.581
5.11 --undefined-- 53.460
5.12 --undefined-- 51.756
5.13 --undefined-- 54.383
5.14 173.405 61.326
5.15 162.159 65.696
5.16 156.625 67.703
5.17 154.156 68.597
5.18 153.568 69.352
5.19 153.522 70.040
5.20 154.812 70.635
5.21 158.849 71.221
5.22 163.969 71.604
5.23 167.209 71.457
5.24 171.855 70.928
5.25 176.360 70.498
5.26 180.156 69.975
5.27 185.320 68.691
5.28 184.320 66.228
5.29 187.464 63.052
5.30 188.871 59.317
5.31 --undefined-- 53.557
5.32 --undefined-- 45.031
5.33 --undefined-- 36.853
5.34 --undefined-- 36.183
5.35 --undefined-- 37.424
5.36 --undefined-- 39.510
5.37 --undefined-- 49.416
5.38 --undefined-- 59.438
5.39 185.325 65.422
5.40 166.055 68.199
5.41 160.389 69.325
5.42 158.362 69.866
5.43 156.486 70.147
5.44 155.253 70.270
5.45 155.561 70.394
5.46 157.234 70.585
5.47 158.105 70.756
5.48 158.620 70.853
5.49 159.311 70.937
5.50 159.135 71.015
5.51 158.700 71.045
5.52 158.092 71.037
5.53 157.725 71.026
5.54 157.930 71.048
5.55 158.353 71.119
5.56 159.156 71.262
5.57 160.933 71.408
5.58 162.730 71.350
5.59 162.543 70.772
5.60 161.151 69.228
5.61 149.036 66.239
5.62 81.979 61.881
5.63 77.745 58.637
5.64 --undefined-- 56.613
5.65 --undefined-- 54.212
5.66 --undefined-- 54.815
5.67 --undefined-- 57.087
5.68 97.569 59.931
5.69 120.690 62.621
5.70 148.208 65.187
5.71 152.424 67.669
5.72 140.915 69.142
5.73 138.971 69.316
5.74 134.966 68.651
5.75 132.347 67.668
5.76 130.572 66.770
5.77 129.444 66.078
5.78 127.711 65.390
5.79 129.196 64.325
5.80 125.990 62.565
5.81 129.468 59.974
5.82 137.085 56.036
5.83 --undefined-- 50.135
5.84 --undefined-- 46.070
5.85 --undefined-- 46.945
5.86 --undefined-- 47.088
5.87 --undefined-- 51.707
5.88 --undefined-- 62.437
5.89 233.049 69.440
5.90 223.853 72.629
5.91 218.631 73.291
5.92 218.000 72.909
5.93 217.991 72.524
5.94 217.515 72.277
5.95 216.676 72.136
5.96 216.328 72.119
5.97 216.253 72.208
5.98 216.363 72.322
5.99 214.964 72.488
6.00 213.636 73.454
6.01 218.826 75.026
6.02 219.429 76.038
6.03 218.864 --undefined--
6.04 219.897 --undefined--
6.05 --undefined-- --undefined--
6.06 --undefined-- --undefined--
