Time Pitch Intensity
0.01 --undefined-- --undefined--
0.02 173.320 --undefined--
0.03 171.982 --undefined--
0.04 172.132 --undefined--
0.05 172.191 64.167
0.06 172.254 63.716
0.07 172.374 63.698
0.08 173.589 64.244
0.09 177.209 65.237
0.10 180.006 65.943
0.11 181.342 66.104
0.12 181.710 65.620
0.13 183.302 63.885
0.14 189.567 61.151
0.15 --undefined-- 58.691
0.16 --undefined-- 56.087
0.17 --undefined-- 54.129
0.18 --undefined-- 53.607
0.19 224.564 57.698
0.20 215.379 62.158
0.21 204.415 64.674
0.22 192.185 66.150
0.23 186.223 67.162
0.24 178.039 67.669
0.25 180.063 67.770
0.26 180.689 67.935
0.27 179.987 68.255
0.28 180.051 68.518
0.29 180.824 68.738
0.30 181.083 69.047
0.31 182.313 69.541
0.32 183.861 70.149
0.33 185.161 70.427
0.34 186.435 69.950
0.35 186.829 68.234
0.36 186.715 64.805
0.37 185.821 59.686
0.38 --undefined-- 54.992
0.39 --undefined-- 54.740
0.40 --undefined-- 54.708
0.41 --undefined-- 54.215
0.42 --undefined-- 54.809
0.43 --undefined-- 55.518
0.44 --undefined-- 58.289
0.45 --undefined-- 62.731
0.46 --undefined-- 65.792
0.47 200.482 67.910
0.48 196.474 69.438
0.49 194.362 70.139
0.50 194.245 70.239
0.51 195.256 69.794
0.52 197.066 68.683
0.53 200.474 67.601
0.54 202.541 67.253
0.55 204.285 66.663
0.56 206.005 65.691
0.57 206.777 64.601
0.58 207.823 62.613
0.59 203.996 59.428
0.60 197.478 56.374
0.61 204.142 55.124
0.62 --undefined-- 53.361
0.63 --undefined-- 52.418
0.64 --undefined-- 53.425
0.65 --undefined-- 53.163
0.66 --undefined-- 53.268
0.67 --undefined-- 55.401
0.68 --undefined-- 60.788
0.69 160.399 66.163
0.70 157.913 69.168
0.71 158.775 70.252
0.72 159.996 70.161
0.73 161.118 69.273
0.74 161.464 67.488
0.75 159.306 64.733
0.76 --undefined-- 61.562
0.77 --undefined-- 57.993
0.78 --undefined-- 54.510
0.79 --undefined-- 53.289
0.80 --undefined-- 53.942
0.81 --undefined-- 58.164
0.82 --undefined-- 61.718
0.83 --undefined-- 62.263
0.84 --undefined-- 59.860
0.85 --undefined-- 58.057
0.86 --undefined-- 60.607
0.87 --undefined-- 63.005
0.88 299.438 63.816
0.89 299.535 62.263
0.90 --undefined-- 60.484
0.91 --undefined-- 63.387
0.92 --undefined-- 67.331
0.93 152.756 69.999
0.94 152.220 71.329
0.95 152.079 71.541
0.96 153.009 70.824
0.97 154.341 69.609
0.98 155.833 68.673
0.99 156.098 68.308
1.00 155.881 68.382
1.01 155.054 68.835
1.02 153.725 69.290
1.03 151.974 69.425
1.04 299.552 69.415
1.05 293.482 69.458
1.06 281.263 69.687
1.07 264.954 70.138
1.08 244.895 70.627
1.09 221.727 71.005
1.10 209.719 71.051
1.11 206.204 70.180
1.12 206.245 67.624
1.13 206.805 63.080
1.14 205.103 57.564
1.15 --undefined-- 52.975
1.16 --undefined-- 51.702
1.17 --undefined-- 54.123
1.18 --undefined-- 56.779
1.19 --undefined-- 58.018
1.20 --undefined-- 57.567
1.21 --undefined-- 57.915
1.22 --undefined-- 58.311
1.23 --undefined-- 56.333
1.24 --undefined-- 53.578
1.25 --undefined-- 55.998
1.26 225.477 61.634
1.27 214.265 66.078
1.28 204.709 68.807
1.29 199.549 70.290
1.30 195.727 70.952
1.31 194.072 71.067
1.32 192.765 70.836
1.33 192.405 70.253
1.34 192.532 69.262
1.35 193.338 68.220
1.36 192.900 67.705
1.37 194.484 67.686
1.38 196.537 67.565
1.39 197.798 67.104
1.40 199.186 66.389
1.41 201.139 65.781
1.42 203.307 65.552
1.43 203.936 65.614
1.44 203.878 65.818
1.45 202.428 66.022
1.46 201.523 66.109
1.47 200.152 66.320
1.48 196.984 66.979
1.49 193.437 67.509
1.50 189.387 66.706
1.51 183.681 64.376
1.52 176.818 63.319
1.53 176.020 65.693
1.54 178.713 68.873
1.55 180.249 71.657
1.56 181.697 73.656
1.57 183.998 74.634
1.58 187.098 74.702
1.59 189.439 74.251
1.60 193.464 73.268
1.61 199.626 71.645
1.62 202.755 70.473
1.63 212.944 70.749
1.64 218.139 71.283
1.65 222.507 71.941
1.66 228.048 73.143
1.67 233.587 74.397
1.68 239.227 75.022
1.69 244.879 74.460
1.70 251.965 73.213
1.71 250.263 72.717
1.72 243.614 72.639
1.73 238.144 72.294
1.74 230.592 71.392
1.75 --undefined-- 69.096
1.76 --undefined-- 65.566
1.77 --undefined-- 62.673
1.78 --undefined-- 60.989
1.79 --undefined-- 62.061
1.80 --undefined-- 63.671
1.81 --undefined-- 63.286
1.82 --undefined-- 61.894
1.83 --undefined-- 61.162
1.84 --undefined-- 60.535
1.85 --undefined-- 59.439
1.86 --undefined-- 58.122
1.87 --undefined-- 58.171
1.88 --undefined-- 59.530
1.89 --undefined-- 60.376
1.90 --undefined-- 60.363
1.91 --undefined-- 60.037
1.92 --undefined-- 60.490
1.93 --undefined-- 60.997
1.94 --undefined-- 61.698
1.95 --undefined-- 62.796
1.96 --undefined-- 63.063
1.97 --undefined-- 61.915
1.98 --undefined-- 60.157
1.99 --undefined-- 58.975
2.00 294.302 59.863
2.01 273.465 63.345
2.02 268.843 65.564
2.03 267.576 66.264
2.04 266.023 66.447
2.05 264.660 66.601
2.06 263.869 66.419
2.07 263.674 66.120
2.08 264.290 65.978
2.09 265.000 65.782
2.10 264.980 65.613
2.11 263.032 65.542
2.12 262.779 65.549
2.13 263.202 65.767
2.14 263.210 66.003
2.15 260.943 66.180
2.16 259.278 66.743
2.17 255.459 67.037
2.18 253.865 66.901
2.19 252.200 66.466
2.20 249.060 64.791
2.21 238.426 60.943
2.22 --undefined-- 56.516
2.23 --undefined-- 57.777
2.24 --undefined-- 60.578
2.25 --undefined-- 62.400
2.26 --undefined-- 65.900
2.27 --undefined-- 69.888
2.28 188.068 72.214
2.29 183.275 73.022
2.30 181.899 73.059
2.31 181.234 72.909
2.32 181.771 72.564
2.33 182.968 71.863
2.34 183.680 71.190
2.35 184.106 71.122
2.36 184.336 71.156
2.37 185.417 70.851
2.38 186.562 70.725
2.39 188.319 71.002
2.40 190.301 70.986
2.41 191.967 70.411
2.42 193.638 69.716
2.43 194.508 69.137
2.44 196.147 68.535
2.45 201.562 68.384
2.46 206.535 69.907
2.47 209.174 72.356
2.48 209.838 74.085
2.49 210.056 74.758
2.50 210.809 74.690
2.51 214.682 74.065
2.52 220.053 72.758
2.53 228.076 70.850
2.54 230.949 68.419
2.55 235.700 65.535
2.56 235.788 63.199
2.57 231.246 62.306
2.58 228.446 62.605
2.59 223.348 63.394
2.60 222.281 63.569
2.61 221.757 62.977
2.62 222.872 63.043
2.63 216.206 63.590
2.64 208.343 63.678
2.65 195.015 63.868
2.66 187.958 64.864
2.67 182.598 66.166
2.68 180.707 67.016
2.69 178.734 67.570
2.70 176.399 67.855
2.71 174.823 67.618
2.72 174.235 67.127
2.73 174.389 66.649
2.74 174.615 66.169
2.75 174.402 65.672
2.76 173.010 65.416
2.77 172.423 65.198
2.78 172.050 64.827
2.79 173.031 64.774
2.80 174.378 64.808
2.81 173.128 64.192
2.82 170.961 62.792
2.83 162.579 60.836
2.84 174.537 58.343
2.85 --undefined-- 55.822
2.86 --undefined-- 54.404
2.87 --undefined-- 53.589
2.88 --undefined-- 56.033
2.89 --undefined-- 58.258
2.90 --undefined-- 58.001
2.91 --undefined-- 57.669
2.92 --undefined-- 61.807
2.93 192.430 66.780
2.94 189.790 70.489
2.95 190.257 72.727
2.96 190.800 73.622
2.97 190.476 73.334
2.98 190.020 72.401
2.99 191.016 72.373
3.00 194.131 74.103
3.01 194.389 75.816
3.02 193.554 76.673
3.03 194.491 77.139
3.04 194.992 77.317
3.05 194.153 77.121
3.06 193.393 76.822
3.07 191.926 76.202
3.08 190.347 74.947
3.09 189.340 73.612
3.10 188.175 72.922
3.11 187.465 72.812
3.12 187.102 72.583
3.13 185.767 71.742
3.14 183.826 70.835
3.15 183.458 70.651
3.16 184.633 70.581
3.17 186.516 70.265
3.18 190.195 69.892
3.19 192.727 69.084
3.20 194.066 67.190
3.21 192.958 64.154
3.22 262.282 60.552
3.23 264.588 57.554
3.24 268.277 55.585
3.25 263.172 54.878
3.26 262.797 56.772
3.27 --undefined-- 58.863
3.28 --undefined-- 60.049
3.29 --undefined-- 61.072
3.30 --undefined-- 61.562
3.31 --undefined-- 60.797
3.32 --undefined-- 60.011
3.33 192.999 60.846
3.34 191.968 62.452
3.35 199.603 64.679
3.36 198.446 67.312
3.37 184.014 68.824
3.38 182.277 69.201
3.39 181.878 69.438
3.40 183.729 69.897
3.41 187.393 70.342
3.42 190.151 70.315
3.43 194.138 69.316
3.44 201.493 67.386
3.45 219.591 65.311
3.46 --undefined-- 62.932
3.47 --undefined-- 59.724
3.48 --undefined-- 55.836
3.49 --undefined-- 54.244
3.50 --undefined-- 56.578
3.51 --undefined-- 58.371
3.52 --undefined-- 58.502
3.53 --undefined-- 56.135
3.54 --undefined-- 51.763
3.55 --undefined-- 50.747
3.56 --undefined-- 52.436
3.57 --undefined-- 56.620
3.58 --undefined-- 61.726
3.59 --undefined-- 64.378
3.60 --undefined-- 63.686
3.61 --undefined-- 61.314
3.62 --undefined-- 61.878
3.63 --undefined-- 62.843
3.64 --undefined-- 62.401
3.65 230.379 61.413
3.66 230.902 63.275
3.67 224.637 66.579
3.68 202.720 68.387
3.69 196.012 68.383
3.70 192.456 67.644
3.71 191.636 67.681
3.72 191.648 68.020
3.73 190.207 68.349
3.74 189.567 69.164
3.75 189.517 70.209
3.76 191.119 70.994
3.77 193.652 71.301
3.78 194.925 71.121
3.79 195.950 70.525
3.80 196.735 69.800
3.81 197.188 69.499
3.82 197.666 69.369
3.83 197.200 68.539
3.84 195.936 67.090
3.85 195.010 66.244
3.86 192.809 66.602
3.87 189.571 67.452
3.88 183.441 67.936
3.89 182.971 68.775
3.90 189.792 71.191
3.91 185.999 72.880
3.92 185.733 72.640
3.93 186.012 71.075
3.94 178.458 69.352
3.95 174.460 67.677
3.96 165.967 65.554
3.97 166.470 63.174
3.98 176.315 60.823
3.99 187.764 59.452
4.00 185.546 59.516
4.01 --undefined-- 60.181
4.02 --undefined-- 59.403
4.03 --undefined-- 56.601
4.04 --undefined-- 54.870
4.05 276.188 56.443
4.06 271.927 60.514
4.07 270.502 62.347
4.08 270.285 61.218
4.09 272.010 58.442
4.10 267.899 57.206
4.11 --undefined-- 58.578
4.12 --undefined-- 60.361
4.13 --undefined-- 60.965
4.14 --undefined-- 60.890
4.15 --undefined-- 61.637
4.16 --undefined-- 62.058
4.17 --undefined-- 60.901
4.18 --undefined-- 58.874
4.19 --undefined-- 58.241
4.20 --undefined-- 60.824
4.21 --undefined-- 63.629
4.22 --undefined-- 65.313
4.23 238.869 66.972
4.24 228.267 68.416
4.25 222.428 69.195
4.26 219.890 69.624
4.27 220.378 69.587
4.28 222.350 69.128
4.29 224.107 68.935
4.30 225.296 68.958
4.31 227.499 68.875
4.32 229.968 68.825
4.33 232.414 68.781
4.34 233.828 68.659
4.35 234.995 68.515
4.36 235.932 68.510
4.37 236.035 68.650
4.38 235.905 68.765
4.39 235.551 68.933
4.40 234.776 69.384
4.41 233.921 70.103
4.42 233.611 70.771
4.43 232.137 71.483
4.44 231.580 72.504
4.45 230.264 73.124
4.46 226.748 72.897
4.47 224.873 72.306
4.48 224.085 71.756
4.49 224.734 71.210
4.50 226.232 70.554
4.51 227.207 70.177
4.52 227.028 70.368
4.53 226.135 70.383
4.54 226.029 69.366
4.55 226.564 67.057
4.56 210.970 64.067
4.57 214.547 62.064
4.58 250.857 61.654
4.59 245.419 61.888
4.60 --undefined-- 63.118
4.61 --undefined-- 64.221
4.62 240.625 65.864
4.63 238.372 67.896
4.64 240.127 68.570
4.65 245.834 68.114
4.66 254.140 67.790
4.67 261.211 67.955
4.68 273.122 68.266
4.69 282.456 68.668
4.70 289.422 68.911
4.71 292.746 69.621
4.72 298.993 70.718
4.73 151.615 71.324
4.74 154.308 71.559
4.75 156.766 71.654
4.76 159.128 71.645
4.77 161.862 71.542
4.78 164.408 71.481
4.79 166.997 71.707
4.80 176.262 72.218
4.81 185.937 73.135
4.82 187.356 74.356
4.83 188.109 74.984
4.84 188.055 75.098
4.85 185.904 75.120
4.86 183.150 74.387
4.87 178.605 72.069
4.88 --undefined-- 67.962
4.89 --undefined-- 63.198
4.90 --undefined-- 62.636
4.91 170.253 --undefined--
4.92 154.693 --undefined--
4.93 --undefined-- --undefined--
4.94 --undefined-- --undefined--
