Time Pitch Intensity
0.01 --undefined-- --undefined--
0.02 159.631 --undefined--
0.03 162.190 --undefined--
0.04 166.483 --undefined--
0.05 173.126 74.891
0.06 180.861 75.710
0.07 189.421 76.386
0.08 199.651 76.401
0.09 209.541 75.680
0.10 217.887 74.579
0.11 226.984 73.354
0.12 234.699 71.949
0.13 243.762 70.329
0.14 247.426 68.424
0.15 246.661 65.844
0.16 252.014 62.091
0.17 262.520 57.075
0.18 --undefined-- 51.348
0.19 --undefined-- 45.697
0.20 --undefined-- 40.512
0.21 --undefined-- 36.612
0.22 --undefined-- 33.791
0.23 --undefined-- 31.130
0.24 --undefined-- 28.777
0.25 --undefined-- 27.318
0.26 --undefined-- 26.411
0.27 --undefined-- 25.707
0.28 --undefined-- 25.620
0.29 --undefined-- 27.478
0.30 --undefined-- 29.925
0.31 --undefined-- 29.754
0.32 --undefined-- 26.891
0.33 --undefined-- 24.399
0.34 --undefined-- 22.939
0.35 --undefined-- 23.517
0.36 --undefined-- 25.542
0.37 --undefined-- 26.056
0.38 --undefined-- 25.184
0.39 --undefined-- 24.675
0.40 --undefined-- 25.024
0.41 --undefined-- 26.554
0.42 --undefined-- 28.489
0.43 --undefined-- 29.978
0.44 --undefined-- 31.416
0.45 --undefined-- 32.432
0.46 --undefined-- 33.039
0.47 --undefined-- 33.438
0.48 --undefined-- 33.513
0.49 --undefined-- 33.956
0.50 --undefined-- 34.850
0.51 --undefined-- 34.858
0.52 --undefined-- 34.329
0.53 --undefined-- 34.612
0.54 --undefined-- 35.094
0.55 --undefined-- 36.135
0.56 --undefined-- 37.476
0.57 --undefined-- 38.088
0.58 --undefined-- 38.061
0.59 --undefined-- 37.668
0.60 --undefined-- 36.888
0.61 --undefined-- 36.375
0.62 --undefined-- 36.636
0.63 --undefined-- 36.673
0.64 --undefined-- 35.948
0.65 --undefined-- 35.435
0.66 --undefined-- 35.452
0.67 --undefined-- 35.303
0.68 --undefined-- 35.070
0.69 --undefined-- 35.238
0.70 --undefined-- 35.087
0.71 --undefined-- 33.879
0.72 --undefined-- 31.981
0.73 --undefined-- 30.501
0.74 --undefined-- 29.156
0.75 --undefined-- 27.948
0.76 --undefined-- 27.610
0.77 --undefined-- 29.075
0.78 --undefined-- 42.282
0.79 --undefined-- 55.695
0.80 224.305 64.084
0.81 202.946 68.982
0.82 192.901 71.756
0.83 196.227 73.459
0.84 202.937 74.606
0.85 213.134 75.300
0.86 226.588 75.418
0.87 244.803 75.263
0.88 259.335 75.481
0.89 267.204 75.962
0.90 270.281 76.333
0.91 273.231 76.181
0.92 273.353 74.782
0.93 265.926 71.650
0.94 246.228 66.587
0.95 --undefined-- 60.292
0.96 --undefined-- 55.608
0.97 --undefined-- 54.358
0.98 --undefined-- 55.023
0.99 --undefined-- 60.894
1.00 291.604 69.336
1.01 281.545 74.519
1.02 262.903 76.910
1.03 242.667 77.498
1.04 232.730 77.341
1.05 227.404 76.744
1.06 222.781 75.631
1.07 219.070 74.570
1.08 217.156 74.073
1.09 216.447 73.882
1.10 217.673 73.721
1.11 220.127 73.614
1.12 223.171 73.486
1.13 224.292 73.188
1.14 222.889 72.908
1.15 223.946 72.963
1.16 222.697 73.007
1.17 217.244 72.447
1.18 205.648 70.895
1.19 194.649 68.039
1.20 188.672 63.312
1.21 --undefined-- 56.454
1.22 --undefined-- 55.538
1.23 --undefined-- 62.847
1.24 250.853 69.570
1.25 223.764 73.262
1.26 210.878 74.399
1.27 207.076 74.218
1.28 207.694 73.731
1.29 216.395 73.288
1.30 231.626 73.029
1.31 250.701 72.885
1.32 269.411 72.870
1.33 284.509 73.123
1.34 294.276 73.567
1.35 299.821 73.708
1.36 149.149 73.384
1.37 147.348 72.839
1.38 145.163 71.715
1.39 141.481 69.142
1.40 138.045 64.630
1.41 142.444 58.800
1.42 --undefined-- 60.425
1.43 --undefined-- 68.750
1.44 285.133 74.282
1.45 264.929 77.013
1.46 252.881 77.422
1.47 241.212 76.180
1.48 234.142 74.533
1.49 231.724 73.344
1.50 233.650 72.625
1.51 239.426 72.360
1.52 245.395 72.477
1.53 252.408 72.687
1.54 262.862 72.639
1.55 276.039 72.502
1.56 286.865 72.615
1.57 296.467 72.662
1.58 151.413 72.240
1.59 152.332 70.782
1.60 298.288 67.647
1.61 277.298 62.387
1.62 285.252 55.576
1.63 285.651 51.877
1.64 293.450 50.962
1.65 --undefined-- 50.398
1.66 --undefined-- 50.150
1.67 --undefined-- 49.797
1.68 --undefined-- 49.389
1.69 --undefined-- 49.411
1.70 --undefined-- 50.570
1.71 --undefined-- 55.209
1.72 257.294 63.042
1.73 238.742 68.311
1.74 225.533 71.101
1.75 220.943 72.533
1.76 214.906 73.397
1.77 209.251 74.094
1.78 204.491 74.672
1.79 199.969 75.012
1.80 197.803 75.122
1.81 196.636 75.019
1.82 196.164 74.621
1.83 195.213 73.620
1.84 191.568 71.590
1.85 187.426 68.178
1.86 179.675 63.231
1.87 170.181 57.213
1.88 177.531 53.545
1.89 177.006 52.251
1.90 --undefined-- 49.942
1.91 --undefined-- 47.201
1.92 --undefined-- 47.836
1.93 --undefined-- 51.995
1.94 --undefined-- 56.274
1.95 --undefined-- 61.386
1.96 204.999 66.140
1.97 191.411 69.526
1.98 184.661 71.879
1.99 180.358 73.342
2.00 175.781 73.897
2.01 174.280 73.692
2.02 173.908 73.122
2.03 174.206 72.581
2.04 176.056 72.316
2.05 180.219 72.488
2.06 187.273 72.987
2.07 195.774 73.371
2.08 207.446 73.376
2.09 220.758 73.019
2.10 226.316 72.132
2.11 240.498 71.238
2.12 250.102 70.944
2.13 255.731 70.256
2.14 260.354 68.144
2.15 262.514 63.819
2.16 --undefined-- 56.776
2.17 --undefined-- 47.551
2.18 --undefined-- 41.279
2.19 --undefined-- 39.366
2.20 --undefined-- 37.733
2.21 --undefined-- 36.845
2.22 --undefined-- 36.693
2.23 --undefined-- 37.029
2.24 --undefined-- 37.530
2.25 --undefined-- 38.134
2.26 --undefined-- 38.689
2.27 --undefined-- 39.357
2.28 --undefined-- 40.167
2.29 --undefined-- 40.313
2.30 --undefined-- 40.281
2.31 --undefined-- 40.257
2.32 --undefined-- 40.072
2.33 --undefined-- 39.861
2.34 --undefined-- 39.425
2.35 --undefined-- 38.477
2.36 --undefined-- 36.650
2.37 --undefined-- 34.427
2.38 --undefined-- 31.792
2.39 --undefined-- 28.457
2.40 --undefined-- 26.835
2.41 --undefined-- 30.588
2.42 --undefined-- 36.387
2.43 --undefined-- 41.548
2.44 --undefined-- 45.565
2.45 --undefined-- 48.510
2.46 --undefined-- 50.627
2.47 --undefined-- 51.683
2.48 --undefined-- 52.392
2.49 --undefined-- 58.333
2.50 202.451 65.471
2.51 180.436 69.632
2.52 173.968 71.376
2.53 169.161 71.681
2.54 166.083 71.329
2.55 164.207 70.691
2.56 163.146 70.003
2.57 163.281 69.632
2.58 165.574 69.580
2.59 169.361 69.587
2.60 174.826 69.737
2.61 181.929 70.309
2.62 188.198 71.217
2.63 194.912 71.872
2.64 204.501 72.136
2.65 207.168 72.122
2.66 202.130 70.949
2.67 196.273 67.478
2.68 193.120 61.097
2.69 --undefined-- 53.172
2.70 180.812 51.934
2.71 180.226 52.801
2.72 180.685 51.935
2.73 --undefined-- 50.427
2.74 --undefined-- 50.783
2.75 --undefined-- 53.073
2.76 --undefined-- 59.303
2.77 217.301 65.870
2.78 201.934 70.163
2.79 187.011 72.840
2.80 179.439 74.300
2.81 174.461 74.711
2.82 171.378 74.549
2.83 169.273 74.282
2.84 167.771 73.938
2.85 165.815 73.438
2.86 163.975 72.937
2.87 163.237 72.566
2.88 163.056 72.260
2.89 162.967 71.966
2.90 162.950 71.628
2.91 162.632 71.153
2.92 162.750 70.487
2.93 164.102 69.602
2.94 166.764 68.687
2.95 171.682 68.117
2.96 174.385 68.047
2.97 173.516 68.337
2.98 173.400 68.783
2.99 175.293 69.308
3.00 178.502 69.837
3.01 182.443 70.166
3.02 184.125 69.981
3.03 182.110 69.015
3.04 183.764 67.536
3.05 187.941 67.584
3.06 183.876 70.449
3.07 179.612 73.134
3.08 175.737 74.547
3.09 173.599 74.976
3.10 171.710 74.867
3.11 169.609 74.405
3.12 168.592 73.663
3.13 169.623 72.944
3.14 170.733 72.506
3.15 170.873 72.354
3.16 173.450 72.493
3.17 176.654 72.718
3.18 177.759 72.256
3.19 174.637 70.177
3.20 168.895 65.902
3.21 181.047 59.456
3.22 178.710 53.591
3.23 171.898 52.313
3.24 --undefined-- 54.724
3.25 --undefined-- 62.909
3.26 237.149 69.511
3.27 228.844 72.972
3.28 221.166 74.337
3.29 216.313 74.802
3.30 209.198 74.905
3.31 204.142 74.925
3.32 200.609 74.819
3.33 199.216 74.274
3.34 197.233 73.398
3.35 195.461 72.349
3.36 193.396 70.898
3.37 188.515 68.692
3.38 183.273 65.352
3.39 184.009 60.552
3.40 --undefined-- 54.393
3.41 --undefined-- 50.600
3.42 --undefined-- 50.182
3.43 --undefined-- 50.308
3.44 --undefined-- 54.801
3.45 --undefined-- 61.681
3.46 --undefined-- 67.217
3.47 193.399 70.305
3.48 183.434 71.690
3.49 177.320 72.292
3.50 173.867 72.345
3.51 171.214 72.003
3.52 167.925 71.572
3.53 165.108 71.075
3.54 161.749 70.575
3.55 161.431 70.228
3.56 161.821 70.067
3.57 162.971 70.194
3.58 164.900 70.354
3.59 161.622 69.724
3.60 158.307 67.729
3.61 153.061 64.003
3.62 155.712 58.684
3.63 156.128 54.411
3.64 162.857 52.656
3.65 162.569 51.313
3.66 --undefined-- 49.739
3.67 --undefined-- 48.392
3.68 --undefined-- 48.280
3.69 --undefined-- 49.426
3.70 --undefined-- 56.236
3.71 --undefined-- 64.311
3.72 187.278 69.337
3.73 175.780 71.732
3.74 167.460 72.223
3.75 155.447 71.599
3.76 147.494 71.042
3.77 146.234 71.027
3.78 145.452 70.952
3.79 146.039 70.712
3.80 147.545 70.625
3.81 151.973 70.649
3.82 155.342 70.545
3.83 162.075 70.556
3.84 165.956 70.949
3.85 166.501 70.821
3.86 163.923 69.114
3.87 161.749 65.907
3.88 172.642 63.010
3.89 178.968 61.864
3.90 182.123 62.196
3.91 182.045 62.963
3.92 181.266 63.283
3.93 178.789 63.325
3.94 168.356 63.981
3.95 163.836 65.571
3.96 163.781 67.242
3.97 164.464 68.346
3.98 164.998 68.837
3.99 165.571 69.010
4.00 166.216 69.092
4.01 168.656 69.180
4.02 172.358 69.322
4.03 176.124 69.571
4.04 182.316 70.157
4.05 188.745 71.038
4.06 194.556 71.524
4.07 199.594 71.141
4.08 202.554 69.788
4.09 197.872 67.628
4.10 200.507 65.087
4.11 200.854 61.687
4.12 200.664 56.465
4.13 --undefined-- 50.407
4.14 --undefined-- 48.769
4.15 --undefined-- 53.987
4.16 --undefined-- 61.580
4.17 --undefined-- 66.764
4.18 171.478 69.654
4.19 159.776 70.798
4.20 148.537 70.956
4.21 143.454 70.634
4.22 140.637 69.830
4.23 138.712 68.762
4.24 140.000 68.108
4.25 141.241 67.887
4.26 142.045 67.722
4.27 143.610 67.723
4.28 145.065 67.793
4.29 145.046 66.987
4.30 144.848 65.266
4.31 146.188 63.867
4.32 142.493 63.043
4.33 135.539 62.219
4.34 134.397 61.193
4.35 --undefined-- 59.922
4.36 --undefined-- 59.237
4.37 --undefined-- 59.176
4.38 --undefined-- 59.222
4.39 --undefined-- 59.063
4.40 --undefined-- 58.949
4.41 --undefined-- 60.441
4.42 174.692 62.422
4.43 162.197 63.474
4.44 159.050 64.337
4.45 159.767 65.667
4.46 160.103 67.032
4.47 157.124 67.951
4.48 155.250 68.392
4.49 153.605 68.429
4.50 149.620 68.034
4.51 145.821 67.405
4.52 143.292 66.479
4.53 137.961 64.886
4.54 135.513 62.979
4.55 136.423 61.218
4.56 139.611 59.105
4.57 152.861 56.676
4.58 --undefined-- 53.395
4.59 --undefined-- 49.309
4.60 --undefined-- 45.606
4.61 --undefined-- 41.162
4.62 --undefined-- 35.659
4.63 --undefined-- 33.146
4.64 --undefined-- 35.442
4.65 --undefined-- 37.775
4.66 --undefined-- 39.562
4.67 --undefined-- 41.028
4.68 --undefined-- 41.679
4.69 --undefined-- 41.573
4.70 --undefined-- 41.631
4.71 --undefined-- 42.161
4.72 --undefined-- 42.186
4.73 --undefined-- 41.610
4.74 --undefined-- 41.088
4.75 --undefined-- 40.330
4.76 --undefined-- 38.892
4.77 --undefined-- 37.620
4.78 --undefined-- 35.788
4.79 --undefined-- 32.317
4.80 --undefined-- 28.689
4.81 --undefined-- 28.617
4.82 --undefined-- 34.652
4.83 --undefined-- 40.450
4.84 --undefined-- 44.048
4.85 --undefined-- 46.207
4.86 --undefined-- 47.231
4.87 --undefined-- 47.246
4.88 --undefined-- 47.080
4.89 --undefined-- 47.200
4.90 --undefined-- 48.076
4.91 --undefined-- 50.562
4.92 --undefined-- 55.682
4.93 --undefined-- 63.286
4.94 202.098 68.468
4.95 187.085 70.906
4.96 180.830 71.544
4.97 173.436 71.363
4.98 168.975 70.929
4.99 164.261 70.345
5.00 158.114 69.526
5.01 152.832 68.539
5.02 148.816 67.524
5.03 147.433 66.421
5.04 150.194 65.242
5.05 150.748 64.227
5.06 154.481 63.028
5.07 153.131 60.520
5.08 157.848 56.454
5.09 --undefined-- 51.751
5.10 --undefined-- 46.085
5.11 --undefined-- 47.722
5.12 --undefined-- 57.047
5.13 --undefined-- 63.689
5.14 176.323 67.387
5.15 158.925 68.596
5.16 149.024 68.800
5.17 144.786 68.857
5.18 141.838 68.315
5.19 140.667 67.190
5.20 140.335 65.904
5.21 140.251 64.777
5.22 138.099 63.799
5.23 135.224 62.576
5.24 133.502 60.753
5.25 134.560 58.146
5.26 --undefined-- 54.710
5.27 --undefined-- 49.931
5.28 --undefined-- 44.186
5.29 --undefined-- 42.237
5.30 --undefined-- 40.834
5.31 --undefined-- 44.183
5.32 --undefined-- 52.154
5.33 --undefined-- 56.784
5.34 156.794 57.940
5.35 161.452 56.229
5.36 --undefined-- 52.080
5.37 --undefined-- 45.500
5.38 --undefined-- 40.065
5.39 --undefined-- 42.296
5.40 --undefined-- 46.716
5.41 --undefined-- 50.552
5.42 --undefined-- 53.900
5.43 --undefined-- 56.836
5.44 --undefined-- 58.204
5.45 --undefined-- 58.685
5.46 --undefined-- 61.200
5.47 --undefined-- 65.468
5.48 --undefined-- 69.130
5.49 193.265 71.259
5.50 188.243 71.702
5.51 184.561 71.034
5.52 181.400 70.020
5.53 178.891 69.110
5.54 177.178 68.615
5.55 176.339 68.814
5.56 174.765 69.372
5.57 172.129 69.843
5.58 170.712 70.127
5.59 169.379 70.119
5.60 167.751 69.770
5.61 167.729 69.168
5.62 168.034 68.503
5.63 169.515 68.027
5.64 170.207 67.824
5.65 169.880 67.766
5.66 170.284 67.648
5.67 170.696 67.159
5.68 168.714 65.823
5.69 170.083 63.252
5.70 176.529 59.211
5.71 --undefined-- 53.971
5.72 --undefined-- 51.661
5.73 --undefined-- 55.795
5.74 --undefined-- 59.935
5.75 --undefined-- 65.133
5.76 --undefined-- 70.470
5.77 191.715 73.945
5.78 190.010 75.927
5.79 186.922 76.956
5.80 186.947 77.142
5.81 188.993 76.607
5.82 189.762 75.491
5.83 190.424 73.871
5.84 190.233 71.839
5.85 188.887 69.192
5.86 178.707 65.479
5.87 --undefined-- 60.021
5.88 --undefined-- 52.793
5.89 --undefined-- 45.737
5.90 --undefined-- 42.865
5.91 --undefined-- 42.182
5.92 --undefined-- 42.215
5.93 --undefined-- 41.328
5.94 --undefined-- 38.803
5.95 --undefined-- 35.263
5.96 --undefined-- 32.500
5.97 --undefined-- 30.305
5.98 --undefined-- 28.026
5.99 --undefined-- 25.880
6.00 --undefined-- 23.838
6.01 --undefined-- 22.733
6.02 --undefined-- 21.796
6.03 --undefined-- 20.520
6.04 --undefined-- 20.060
6.05 --undefined-- 21.340
6.06 --undefined-- 23.184
6.07 --undefined-- 24.834
6.08 --undefined-- 24.791
6.09 --undefined-- 23.419
6.10 --undefined-- 23.930
6.11 --undefined-- 25.438
6.12 --undefined-- 26.411
6.13 --undefined-- 26.645
6.14 --undefined-- 26.264
6.15 --undefined-- 27.519
6.16 --undefined-- 29.267
6.17 --undefined-- 29.687
6.18 --undefined-- 29.387
6.19 --undefined-- 29.437
6.20 --undefined-- 30.094
6.21 --undefined-- 30.016
6.22 --undefined-- 28.682
6.23 --undefined-- 28.014
6.24 --undefined-- 28.657
6.25 --undefined-- 28.595
6.26 --undefined-- 27.310
6.27 --undefined-- 26.159
6.28 --undefined-- 26.617
6.29 --undefined-- 27.326
6.30 --undefined-- 27.702
6.31 --undefined-- 28.206
6.32 --undefined-- 28.923
6.33 --undefined-- 30.302
6.34 --undefined-- 32.090
6.35 --undefined-- 32.931
6.36 --undefined-- 32.529
6.37 --undefined-- 32.336
6.38 --undefined-- 33.119
6.39 --undefined-- 33.694
6.40 --undefined-- 33.375
6.41 --undefined-- 32.734
6.42 --undefined-- 32.616
6.43 --undefined-- 32.899
6.44 --undefined-- 33.188
6.45 --undefined-- 33.259
6.46 --undefined-- 32.983
6.47 --undefined-- 32.316
6.48 --undefined-- 31.561
6.49 --undefined-- 30.971
6.50 --undefined-- 30.382
6.51 --undefined-- 30.210
6.52 --undefined-- 29.806
6.53 --undefined-- 28.697
6.54 --undefined-- 27.768
6.55 --undefined-- 27.653
6.56 --undefined-- 29.098
6.57 --undefined-- 30.907
6.58 --undefined-- 30.894
6.59 --undefined-- 30.289
6.60 --undefined-- 31.869
6.61 --undefined-- 34.515
6.62 --undefined-- 37.355
6.63 --undefined-- 40.421
6.64 --undefined-- 43.358
6.65 --undefined-- 44.729
6.66 --undefined-- 44.836
6.67 --undefined-- 46.466
6.68 --undefined-- 49.660
6.69 --undefined-- 53.176
6.70 --undefined-- 59.904
6.71 --undefined-- 68.502
6.72 289.324 74.873
6.73 276.815 78.321
6.74 277.272 79.487
6.75 278.793 79.277
6.76 281.652 78.754
6.77 285.449 78.258
6.78 290.255 77.466
6.79 296.923 76.218
6.80 151.152 74.891
6.81 152.763 74.020
6.82 154.548 --undefined--
6.83 155.057 --undefined--
6.84 --undefined-- --undefined--
6.85 --undefined-- --undefined--
