Time Pitch Intensity
0.01 --undefined-- --undefined--
0.02 105.276 --undefined--
0.03 100.879 --undefined--
0.04 99.803 --undefined--
0.05 99.921 59.862
0.06 99.088 59.626
0.07 97.471 59.453
0.08 94.830 59.215
0.09 95.617 58.850
0.10 95.949 58.530
0.11 --undefined-- 58.094
0.12 --undefined-- 57.389
0.13 --undefined-- 57.144
0.14 --undefined-- 57.869
0.15 --undefined-- 58.711
0.16 --undefined-- 58.652
0.17 --undefined-- 58.522
0.18 --undefined-- 58.554
0.19 --undefined-- 58.391
0.20 --undefined-- 59.039
0.21 --undefined-- 59.159
0.22 --undefined-- 58.720
0.23 --undefined-- 58.962
0.24 --undefined-- 58.870
0.25 --undefined-- 58.508
0.26 --undefined-- 59.370
0.27 --undefined-- 64.160
0.28 --undefined-- 68.675
0.29 --undefined-- 70.609
0.30 --undefined-- 70.944
0.31 108.644 70.706
0.32 103.845 70.104
0.33 100.887 68.758
0.34 99.806 66.803
0.35 99.118 65.137
0.36 98.901 64.181
0.37 101.728 64.010
0.38 --undefined-- 64.269
0.39 --undefined-- 63.758
0.40 --undefined-- 61.453
0.41 --undefined-- 56.718
0.42 --undefined-- 50.377
0.43 --undefined-- 44.164
0.44 --undefined-- 38.314
0.45 --undefined-- 36.921
0.46 --undefined-- 37.483
0.47 --undefined-- 39.378
0.48 --undefined-- 41.201
0.49 --undefined-- 41.780
0.50 --undefined-- 43.152
0.51 103.389 45.729
0.52 103.314 48.099
0.53 103.518 50.262
0.54 106.379 52.397
0.55 109.282 55.034
0.56 114.792 57.957
0.57 114.927 60.776
0.58 118.145 63.673
0.59 119.702 66.478
0.60 125.511 68.463
0.61 124.758 69.368
0.62 119.383 69.793
0.63 119.112 69.994
0.64 117.757 69.265
0.65 113.686 66.964
0.66 110.424 62.538
0.67 --undefined-- 55.461
0.68 --undefined-- 47.255
0.69 --undefined-- 41.895
0.70 --undefined-- 39.686
0.71 --undefined-- 45.845
0.72 --undefined-- 54.628
0.73 --undefined-- 59.955
0.74 --undefined-- 64.447
0.75 --undefined-- 68.330
0.76 105.446 70.141
0.77 103.796 69.820
0.78 99.623 67.567
0.79 --undefined-- 63.131
0.80 98.709 56.249
0.81 98.152 50.810
0.82 95.001 49.888
0.83 93.177 49.465
0.84 92.066 49.158
0.85 89.678 49.427
0.86 89.348 53.212
0.87 --undefined-- 58.687
0.88 89.349 62.058
0.89 87.381 63.502
0.90 86.129 63.502
0.91 84.663 62.462
0.92 83.651 60.821
0.93 82.297 58.402
0.94 78.419 54.755
0.95 77.588 51.681
0.96 77.154 50.746
0.97 --undefined-- 50.465
0.98 75.053 50.051
0.99 76.698 49.705
1.00 78.439 49.660
1.01 78.852 49.808
1.02 79.815 50.036
1.03 79.711 50.031
1.04 80.038 49.781
1.05 81.408 49.287
1.06 81.236 48.211
1.07 81.020 46.211
1.08 --undefined-- 47.944
1.09 --undefined-- 54.980
1.10 --undefined-- 58.485
1.11 --undefined-- 58.439
1.12 --undefined-- 56.983
1.13 --undefined-- 56.487
1.14 --undefined-- 56.147
1.15 --undefined-- 55.584
1.16 --undefined-- 54.640
1.17 --undefined-- 52.581
1.18 --undefined-- 51.200
1.19 --undefined-- 52.213
1.20 --undefined-- 53.328
1.21 --undefined-- 54.265
1.22 --undefined-- 53.979
1.23 --undefined-- 51.182
1.24 --undefined-- 47.887
1.25 --undefined-- 47.957
1.26 --undefined-- 48.494
1.27 --undefined-- 47.778
1.28 --undefined-- 46.233
1.29 --undefined-- 45.235
1.30 --undefined-- 44.683
1.31 --undefined-- 43.040
1.32 --undefined-- 41.076
1.33 --undefined-- 40.613
1.34 --undefined-- 40.634
1.35 --undefined-- 39.878
1.36 --undefined-- 38.751
1.37 --undefined-- 38.549
1.38 --undefined-- 39.017
1.39 --undefined-- 39.380
1.40 --undefined-- 39.631
1.41 --undefined-- 40.062
1.42 --undefined-- 40.691
1.43 --undefined-- 41.061
1.44 --undefined-- 41.072
1.45 --undefined-- 41.165
1.46 --undefined-- 40.823
1.47 --undefined-- 40.294
1.48 --undefined-- 40.509
1.49 --undefined-- 40.997
1.50 --undefined-- 41.296
1.51 --undefined-- 41.686
1.52 --undefined-- 42.158
1.53 --undefined-- 41.975
1.54 --undefined-- 41.854
1.55 --undefined-- 42.452
1.56 --undefined-- 42.625
1.57 --undefined-- 42.574
1.58 --undefined-- 42.560
1.59 --undefined-- 42.514
1.60 --undefined-- 42.718
1.61 --undefined-- 44.035
1.62 --undefined-- 46.963
1.63 --undefined-- 49.561
1.64 --undefined-- 49.778
1.65 --undefined-- 47.700
1.66 --undefined-- 47.138
1.67 --undefined-- 49.019
1.68 --undefined-- 50.387
1.69 --undefined-- 50.199
1.70 --undefined-- 48.927
1.71 --undefined-- 47.522
1.72 --undefined-- 47.256
1.73 --undefined-- 47.474
1.74 --undefined-- 46.758
1.75 --undefined-- 45.828
1.76 --undefined-- 45.462
1.77 --undefined-- 45.825
1.78 --undefined-- 45.658
1.79 --undefined-- 44.724
1.80 --undefined-- 43.854
1.81 --undefined-- 42.993
1.82 --undefined-- 42.114
1.83 --undefined-- 41.204
1.84 --undefined-- 40.533
1.85 --undefined-- 40.663
1.86 --undefined-- 40.109
1.87 --undefined-- 39.022
1.88 --undefined-- 45.895
1.89 --undefined-- 53.525
1.90 --undefined-- 58.466
1.91 --undefined-- 61.253
1.92 --undefined-- 61.704
1.93 --undefined-- 63.051
1.94 --undefined-- 67.178
1.95 129.940 69.490
1.96 119.579 69.776
1.97 118.324 69.139
1.98 117.105 68.270
1.99 116.919 67.585
2.00 117.197 67.299
2.01 117.545 67.062
2.02 118.361 66.442
2.03 118.458 65.018
2.04 118.468 62.019
2.05 108.326 56.875
2.06 107.531 50.304
2.07 111.699 47.106
2.08 --undefined-- 53.258
2.09 --undefined-- 58.661
2.10 --undefined-- 60.411
2.11 --undefined-- 62.013
2.12 --undefined-- 66.852
2.13 --undefined-- 69.891
2.14 --undefined-- 70.605
2.15 --undefined-- 70.063
2.16 105.148 68.927
2.17 105.034 66.837
2.18 104.999 63.075
2.19 104.197 57.810
2.20 104.489 54.484
2.21 107.332 54.770
2.22 110.237 55.410
2.23 113.869 55.680
2.24 118.171 56.007
2.25 123.761 58.229
2.26 129.552 63.310
2.27 130.031 67.438
2.28 130.843 69.525
2.29 131.164 70.169
2.30 132.317 70.093
2.31 133.761 69.156
2.32 133.615 66.411
2.33 --undefined-- 60.961
2.34 --undefined-- 52.361
2.35 --undefined-- 43.231
2.36 --undefined-- 39.145
2.37 --undefined-- 37.718
2.38 --undefined-- 37.176
2.39 --undefined-- 36.558
2.40 --undefined-- 35.591
2.41 --undefined-- 35.304
2.42 --undefined-- 36.351
2.43 --undefined-- 42.906
2.44 --undefined-- 51.226
2.45 --undefined-- 55.544
2.46 --undefined-- 56.889
2.47 --undefined-- 57.885
2.48 --undefined-- 59.333
2.49 --undefined-- 59.804
2.50 --undefined-- 59.414
2.51 --undefined-- 59.330
2.52 --undefined-- 58.900
2.53 --undefined-- 56.926
2.54 --undefined-- 55.007
2.55 --undefined-- 59.097
2.56 147.184 62.902
2.57 146.046 64.213
2.58 143.305 63.952
2.59 137.450 63.170
2.60 135.502 62.494
2.61 134.686 61.667
2.62 134.173 61.040
2.63 134.607 60.872
2.64 134.967 60.865
2.65 136.463 61.253
2.66 135.940 61.765
2.67 135.135 61.998
2.68 134.520 61.938
2.69 133.436 61.717
2.70 132.528 61.440
2.71 131.598 61.245
2.72 131.031 61.249
2.73 130.923 61.278
2.74 130.659 61.234
2.75 130.567 61.240
2.76 129.808 61.219
2.77 128.428 60.940
2.78 125.269 60.185
2.79 121.904 58.778
2.80 118.767 56.471
2.81 114.526 53.140
2.82 113.223 53.703
2.83 --undefined-- 59.868
2.84 --undefined-- 62.680
2.85 --undefined-- 63.131
2.86 --undefined-- 66.096
2.87 --undefined-- 68.997
2.88 113.593 70.078
2.89 111.322 70.108
2.90 106.336 69.608
2.91 105.593 69.272
2.92 104.351 69.373
2.93 103.516 69.464
2.94 101.554 69.481
2.95 100.293 69.493
2.96 99.579 69.307
2.97 99.300 68.584
2.98 98.568 66.525
2.99 --undefined-- 62.152
3.00 --undefined-- 54.777
3.01 --undefined-- 45.409
3.02 --undefined-- 40.539
3.03 --undefined-- 39.095
3.04 --undefined-- 37.590
3.05 --undefined-- 36.159
3.06 --undefined-- 36.683
3.07 --undefined-- 43.217
3.08 --undefined-- 50.766
3.09 --undefined-- 59.422
3.10 --undefined-- 66.071
3.11 93.714 69.205
3.12 95.963 69.674
3.13 98.826 68.912
3.14 97.423 68.064
3.15 96.328 67.188
3.16 96.274 65.946
3.17 96.984 64.442
3.18 97.769 62.882
3.19 99.184 61.450
3.20 100.417 60.663
3.21 101.437 60.640
3.22 101.934 60.922
3.23 101.165 61.217
3.24 100.416 61.127
3.25 99.903 60.129
3.26 98.701 58.307
3.27 100.082 56.829
3.28 99.734 56.286
3.29 100.331 55.833
3.30 100.710 54.364
3.31 --undefined-- 50.864
3.32 --undefined-- 45.197
3.33 --undefined-- 40.773
3.34 --undefined-- 39.643
3.35 --undefined-- 42.603
3.36 --undefined-- 51.491
3.37 --undefined-- 57.408
3.38 --undefined-- 61.871
3.39 --undefined-- 66.283
3.40 --undefined-- 68.539
3.41 88.477 68.465
3.42 85.516 67.426
3.43 83.252 66.631
3.44 85.653 66.262
3.45 85.509 65.677
3.46 85.485 64.563
3.47 86.078 63.551
3.48 88.032 63.218
3.49 91.326 63.117
3.50 92.593 62.652
3.51 92.071 62.080
3.52 91.462 61.775
3.53 90.385 61.397
3.54 89.841 60.770
3.55 89.196 60.060
3.56 89.036 59.393
3.57 89.275 59.009
3.58 89.712 58.958
3.59 90.409 59.094
3.60 91.091 59.286
3.61 90.836 59.608
3.62 89.932 59.928
3.63 91.651 60.084
3.64 91.142 59.989
3.65 90.649 59.798
3.66 89.615 59.845
3.67 89.317 60.235
3.68 89.421 60.805
3.69 89.731 61.423
3.70 89.589 62.007
3.71 88.279 62.262
3.72 87.082 62.234
3.73 86.949 62.178
3.74 85.434 62.038
3.75 85.251 61.881
3.76 86.036 61.847
3.77 86.305 61.828
3.78 86.013 61.634
3.79 86.352 61.317
3.80 87.024 61.038
3.81 86.837 60.766
3.82 85.885 60.375
3.83 85.542 59.901
3.84 85.492 59.606
3.85 85.585 59.350
3.86 85.959 58.966
3.87 87.891 58.444
3.88 83.157 57.828
3.89 90.922 57.732
3.90 --undefined-- 57.549
3.91 --undefined-- 57.523
3.92 --undefined-- 58.211
3.93 --undefined-- 57.538
3.94 --undefined-- 56.153
3.95 --undefined-- 56.226
3.96 --undefined-- 56.624
3.97 --undefined-- 56.060
3.98 --undefined-- 54.236
3.99 --undefined-- 52.048
4.00 --undefined-- 52.331
4.01 --undefined-- 54.004
4.02 --undefined-- 56.146
4.03 --undefined-- 55.738
4.04 --undefined-- 53.011
4.05 --undefined-- 51.434
4.06 --undefined-- 51.513
4.07 --undefined-- 52.105
4.08 --undefined-- 52.763
4.09 --undefined-- 53.555
4.10 --undefined-- 55.573
4.11 92.106 58.512
4.12 97.876 61.444
4.13 96.120 63.158
4.14 95.596 63.351
4.15 98.230 62.757
4.16 96.949 62.193
4.17 97.373 61.482
4.18 101.445 60.456
4.19 105.047 59.416
4.20 107.557 58.717
4.21 113.169 58.776
4.22 118.643 59.176
4.23 121.300 59.364
4.24 123.693 59.474
4.25 124.228 59.586
4.26 123.738 59.415
4.27 122.680 58.760
4.28 121.615 57.515
4.29 118.229 55.585
4.30 116.179 53.275
4.31 --undefined-- 52.804
4.32 --undefined-- 55.128
4.33 --undefined-- 57.138
4.34 --undefined-- 58.453
4.35 --undefined-- 59.444
4.36 --undefined-- 59.061
4.37 --undefined-- 57.200
4.38 --undefined-- 55.249
4.39 --undefined-- 53.981
4.40 --undefined-- 53.202
4.41 --undefined-- 52.872
4.42 --undefined-- 52.443
4.43 --undefined-- 51.099
4.44 --undefined-- 49.584
4.45 --undefined-- 49.020
4.46 --undefined-- 50.268
4.47 --undefined-- 52.962
4.48 --undefined-- 54.123
4.49 --undefined-- 54.426
4.50 84.762 55.109
4.51 84.651 55.136
4.52 82.341 54.432
4.53 80.305 53.773
4.54 81.211 53.186
4.55 79.156 53.262
4.56 81.703 54.554
4.57 82.096 56.721
4.58 84.472 59.201
4.59 87.119 61.189
4.60 87.425 62.148
4.61 84.526 61.557
4.62 84.545 59.620
4.63 87.427 58.297
4.64 96.356 59.578
4.65 100.391 63.221
4.66 104.895 66.712
4.67 106.733 68.259
4.68 106.798 67.959
4.69 107.010 66.756
4.70 106.502 65.025
4.71 105.800 62.614
4.72 102.176 59.592
4.73 --undefined-- 57.034
4.74 --undefined-- 54.900
4.75 --undefined-- 52.768
4.76 --undefined-- 50.224
4.77 --undefined-- 46.497
4.78 --undefined-- 43.089
4.79 --undefined-- 40.586
4.80 --undefined-- 38.700
4.81 --undefined-- 37.934
4.82 --undefined-- 37.883
4.83 --undefined-- 39.024
4.84 --undefined-- 40.683
4.85 --undefined-- 42.301
4.86 --undefined-- 43.462
4.87 --undefined-- 44.128
4.88 --undefined-- 44.663
4.89 --undefined-- 44.997
4.90 --undefined-- 45.279
4.91 --undefined-- 45.533
4.92 --undefined-- 45.581
4.93 --undefined-- 46.086
4.94 --undefined-- 46.381
4.95 --undefined-- 46.119
4.96 --undefined-- 46.361
4.97 --undefined-- 46.646
4.98 --undefined-- 46.938
4.99 --undefined-- 47.563
5.00 --undefined-- 47.706
5.01 --undefined-- 47.920
5.02 --undefined-- 48.373
5.03 --undefined-- 47.950
5.04 --undefined-- 46.982
5.05 --undefined-- 47.209
5.06 --undefined-- 47.747
5.07 --undefined-- 47.138
5.08 --undefined-- 45.811
5.09 --undefined-- 44.698
5.10 --undefined-- 44.414
5.11 --undefined-- 44.641
5.12 --undefined-- 44.429
5.13 --undefined-- 43.626
5.14 --undefined-- 42.837
5.15 --undefined-- 42.901
5.16 --undefined-- 43.021
5.17 --undefined-- 42.526
5.18 --undefined-- 41.985
5.19 --undefined-- 41.378
5.20 --undefined-- 40.595
5.21 --undefined-- 40.081
5.22 --undefined-- 39.590
5.23 --undefined-- 38.874
5.24 --undefined-- 38.289
5.25 --undefined-- 38.127
5.26 --undefined-- 38.356
5.27 --undefined-- 38.819
5.28 --undefined-- 41.087
5.29 --undefined-- 47.117
5.30 --undefined-- 51.954
5.31 96.463 55.289
5.32 101.423 58.415
5.33 99.025 62.320
5.34 102.610 66.464
5.35 101.943 69.397
5.36 97.821 70.554
5.37 98.807 70.686
5.38 97.926 70.196
5.39 96.825 69.486
5.40 96.823 69.287
5.41 96.557 69.187
5.42 95.850 69.070
5.43 94.946 69.303
5.44 93.351 69.667
5.45 92.007 69.867
5.46 91.426 69.831
5.47 91.809 69.465
5.48 92.861 69.287
5.49 93.138 69.233
5.50 93.078 68.733
5.51 93.747 67.897
5.52 94.166 67.292
5.53 95.038 67.163
5.54 95.515 67.246
5.55 96.277 67.132
5.56 96.902 66.717
5.57 96.701 66.252
5.58 96.038 65.831
5.59 95.607 65.390
5.60 96.089 65.002
5.61 96.067 64.838
5.62 95.620 64.889
5.63 95.817 64.958
5.64 95.741 64.829
5.65 95.650 64.574
5.66 95.905 64.592
5.67 95.624 --undefined--
5.68 95.299 --undefined--
5.69 --undefined-- --undefined--
5.70 --undefined-- --undefined--
