Time Pitch Intensity
0.01 --undefined-- --undefined--
0.02 164.231 --undefined--
0.03 166.469 --undefined--
0.04 167.848 --undefined--
0.05 168.307 70.922
0.06 168.064 71.097
0.07 167.093 70.617
0.08 165.227 68.846
0.09 165.321 65.377
0.10 167.488 60.110
0.11 167.947 55.994
0.12 171.737 54.992
0.13 --undefined-- 54.433
0.14 --undefined-- 56.723
0.15 --undefined-- 65.657
0.16 --undefined-- 72.979
0.17 292.718 76.853
0.18 286.504 77.790
0.19 285.585 76.481
0.20 285.151 73.530
0.21 276.021 69.901
0.22 265.064 65.748
0.23 256.996 60.143
0.24 --undefined-- 53.126
0.25 --undefined-- 46.876
0.26 --undefined-- 43.742
0.27 --undefined-- 45.780
0.28 --undefined-- 49.588
0.29 --undefined-- 54.083
0.30 --undefined-- 57.842
0.31 --undefined-- 60.438
0.32 --undefined-- 62.418
0.33 --undefined-- 63.684
0.34 --undefined-- 64.456
0.35 --undefined-- 65.878
0.36 239.438 68.151
0.37 213.342 70.116
0.38 194.679 71.751
0.39 181.452 72.877
0.40 170.866 73.042
0.41 165.663 72.500
0.42 162.305 71.716
0.43 160.760 70.392
0.44 162.860 68.554
0.45 165.186 67.492
0.46 167.382 67.068
0.47 170.071 66.655
0.48 172.591 66.420
0.49 172.929 65.905
0.50 170.036 64.807
0.51 171.091 62.974
0.52 174.750 59.483
0.53 --undefined-- 53.622
0.54 --undefined-- 48.128
0.55 --undefined-- 46.978
0.56 --undefined-- 48.116
0.57 --undefined-- 52.213
0.58 --undefined-- 56.879
0.59 --undefined-- 60.326
0.60 --undefined-- 62.837
0.61 --undefined-- 64.027
0.62 --undefined-- 63.781
0.63 --undefined-- 63.209
0.64 --undefined-- 62.786
0.65 --undefined-- 61.943
0.66 --undefined-- 60.851
0.67 --undefined-- 60.397
0.68 208.738 61.172
0.69 196.740 65.067
0.70 182.567 68.835
0.71 171.480 70.605
0.72 164.292 70.927
0.73 157.623 70.323
0.74 150.439 69.129
0.75 144.364 67.954
0.76 141.634 66.785
0.77 140.330 65.512
0.78 141.610 64.898
0.79 142.512 64.824
0.80 142.501 64.726
0.81 144.096 64.662
0.82 147.546 64.764
0.83 150.685 65.123
0.84 153.262 65.776
0.85 153.175 66.265
0.86 150.760 65.796
0.87 152.857 63.555
0.88 158.454 59.050
0.89 --undefined-- 55.238
0.90 --undefined-- 58.939
0.91 --undefined-- 62.878
0.92 --undefined-- 65.529
0.93 --undefined-- 66.558
0.94 --undefined-- 66.177
0.95 --undefined-- 64.972
0.96 --undefined-- 64.190
0.97 --undefined-- 64.577
0.98 177.430 66.008
0.99 165.616 67.237
1.00 150.372 68.096
1.01 146.469 68.670
1.02 144.723 68.667
1.03 144.369 68.055
1.04 143.938 67.180
1.05 144.935 66.542
1.06 156.859 66.378
1.07 130.233 66.618
1.08 129.918 66.805
1.09 130.449 66.250
1.10 130.730 65.099
1.11 131.623 63.864
1.12 --undefined-- 62.614
1.13 77.592 61.444
1.14 82.440 60.356
1.15 79.206 58.875
1.16 194.414 57.245
1.17 194.139 56.654
1.18 187.834 56.392
1.19 187.408 55.564
1.20 194.484 55.462
1.21 192.956 57.355
1.22 187.781 59.996
1.23 186.209 62.520
1.24 177.351 64.584
1.25 174.742 65.932
1.26 174.838 66.723
1.27 176.584 67.148
1.28 182.065 67.203
1.29 188.854 66.895
1.30 195.953 66.331
1.31 200.977 65.910
1.32 201.396 66.129
1.33 201.212 66.511
1.34 202.118 66.517
1.35 198.944 66.382
1.36 186.759 66.404
1.37 183.638 66.248
1.38 186.537 65.717
1.39 192.919 65.112
1.40 195.964 64.567
1.41 196.924 64.179
1.42 196.513 64.228
1.43 198.052 64.782
1.44 202.091 65.628
1.45 205.894 66.537
1.46 207.562 67.294
1.47 205.815 67.698
1.48 200.220 68.038
1.49 189.263 68.825
1.50 180.383 69.378
1.51 170.368 68.535
1.52 149.933 66.115
1.53 134.217 63.111
1.54 123.690 60.625
1.55 104.834 58.568
1.56 92.667 56.912
1.57 98.229 56.126
1.58 89.956 56.083
1.59 87.156 56.125
1.60 90.227 56.042
1.61 96.420 55.857
1.62 103.237 55.841
1.63 124.388 55.979
1.64 142.461 55.112
1.65 --undefined-- 52.261
1.66 --undefined-- 48.064
1.67 --undefined-- 44.226
1.68 --undefined-- 44.063
1.69 --undefined-- 47.754
1.70 --undefined-- 51.121
1.71 --undefined-- 55.137
1.72 285.331 59.256
1.73 283.977 61.145
1.74 279.922 63.641
1.75 276.759 67.788
1.76 264.540 70.168
1.77 267.833 71.083
1.78 270.695 71.477
1.79 273.529 71.822
1.80 274.928 72.165
1.81 275.258 72.441
1.82 274.784 72.749
1.83 273.256 73.045
1.84 270.222 73.010
1.85 266.028 72.459
1.86 262.662 71.505
1.87 261.294 70.492
1.88 264.632 70.081
1.89 275.253 70.776
1.90 293.266 72.565
1.91 299.151 74.657
1.92 299.354 76.433
1.93 297.569 77.071
1.94 292.867 76.094
1.95 289.721 74.111
1.96 287.112 72.067
1.97 281.814 70.223
1.98 267.554 67.715
1.99 --undefined-- 63.385
2.00 --undefined-- 57.003
2.01 --undefined-- 49.575
2.02 --undefined-- 43.156
2.03 --undefined-- 40.005
2.04 --undefined-- 38.557
2.05 --undefined-- 36.370
2.06 --undefined-- 34.006
2.07 --undefined-- 31.771
2.08 --undefined-- 30.310
2.09 --undefined-- 30.166
2.10 --undefined-- 28.860
2.11 --undefined-- 27.058
2.12 --undefined-- 27.963
2.13 --undefined-- 28.879
2.14 --undefined-- 27.935
2.15 --undefined-- 26.431
2.16 --undefined-- 26.299
2.17 --undefined-- 26.144
2.18 --undefined-- 25.066
2.19 --undefined-- 23.500
2.20 --undefined-- 22.754
2.21 --undefined-- 24.077
2.22 --undefined-- 28.316
2.23 --undefined-- 32.068
2.24 --undefined-- 32.761
2.25 --undefined-- 31.883
2.26 --undefined-- 31.923
2.27 --undefined-- 31.607
2.28 --undefined-- 30.804
2.29 --undefined-- 29.507
2.30 --undefined-- 30.345
2.31 --undefined-- 33.357
2.32 --undefined-- 34.222
2.33 --undefined-- 34.852
2.34 --undefined-- 43.426
2.35 --undefined-- 49.913
2.36 --undefined-- 54.205
2.37 --undefined-- 57.237
2.38 --undefined-- 58.256
2.39 --undefined-- 61.452
2.40 213.485 66.918
2.41 212.600 70.039
2.42 196.379 71.250
2.43 178.847 71.847
2.44 176.540 72.128
2.45 178.339 71.913
2.46 185.976 71.520
2.47 196.695 71.433
2.48 205.804 71.393
2.49 218.366 71.049
2.50 214.086 70.151
2.51 208.487 69.433
2.52 210.702 69.748
2.53 216.137 70.417
2.54 227.560 71.066
2.55 226.104 71.458
2.56 215.815 71.508
2.57 209.249 71.669
2.58 203.029 72.007
2.59 194.175 72.132
2.60 186.853 72.027
2.61 180.132 71.901
2.62 176.952 71.873
2.63 175.009 71.926
2.64 175.149 71.822
2.65 176.175 71.329
2.66 176.876 70.560
2.67 177.719 69.662
2.68 179.204 68.222
2.69 177.713 65.701
2.70 183.357 62.134
2.71 180.153 57.588
2.72 --undefined-- 52.506
2.73 --undefined-- 49.425
2.74 --undefined-- 47.471
2.75 --undefined-- 44.899
2.76 --undefined-- 42.521
2.77 --undefined-- 50.863
2.78 --undefined-- 62.534
2.79 --undefined-- 69.990
2.80 222.677 73.947
2.81 210.603 75.447
2.82 199.198 75.745
2.83 194.887 75.633
2.84 191.434 75.093
2.85 188.967 74.639
2.86 188.288 74.621
2.87 190.173 74.418
2.88 196.701 74.047
2.89 206.063 73.679
2.90 218.724 73.304
2.91 231.994 73.587
2.92 247.885 74.869
2.93 259.192 76.139
2.94 265.209 76.344
2.95 271.141 75.555
2.96 277.462 74.763
2.97 284.664 74.341
2.98 288.726 73.905
2.99 290.398 73.185
3.00 288.847 72.048
3.01 284.878 71.392
3.02 287.664 71.524
3.03 289.774 71.824
3.04 289.019 72.071
3.05 285.571 72.108
3.06 279.898 71.863
3.07 272.496 71.493
3.08 264.164 71.669
3.09 249.611 72.317
3.10 232.791 72.676
3.11 214.035 72.496
3.12 200.774 71.605
3.13 180.617 69.993
3.14 163.641 67.812
3.15 146.635 65.223
3.16 132.606 62.485
3.17 118.979 59.767
3.18 112.063 57.401
3.19 120.411 55.759
3.20 --undefined-- 55.101
3.21 78.515 55.061
3.22 78.148 54.919
3.23 76.774 54.997
3.24 79.448 54.373
3.25 74.860 52.270
3.26 --undefined-- 48.479
3.27 --undefined-- 42.857
3.28 --undefined-- 37.796
3.29 --undefined-- 35.124
3.30 --undefined-- 33.486
3.31 --undefined-- 32.246
3.32 --undefined-- 30.942
3.33 --undefined-- 28.730
3.34 --undefined-- 26.021
3.35 --undefined-- 24.227
3.36 --undefined-- 24.113
3.37 --undefined-- 25.398
3.38 --undefined-- 26.878
3.39 --undefined-- 27.662
3.40 --undefined-- 28.820
3.41 --undefined-- 30.144
3.42 --undefined-- 30.844
3.43 --undefined-- 30.496
3.44 --undefined-- 27.856
3.45 --undefined-- 24.139
3.46 --undefined-- 23.789
3.47 --undefined-- 27.935
3.48 --undefined-- 33.772
3.49 --undefined-- 38.600
3.50 --undefined-- 42.924
3.51 --undefined-- 46.684
3.52 --undefined-- 49.035
3.53 --undefined-- 49.472
3.54 --undefined-- 48.198
3.55 --undefined-- 46.683
3.56 --undefined-- 45.694
3.57 --undefined-- 44.942
3.58 --undefined-- 44.981
3.59 --undefined-- 46.092
3.60 --undefined-- 48.393
3.61 --undefined-- 55.700
3.62 --undefined-- 64.362
3.63 --undefined-- 69.695
3.64 196.538 72.170
3.65 182.323 72.828
3.66 169.339 72.309
3.67 152.443 71.082
3.68 149.205 69.878
3.69 149.421 69.035
3.70 150.262 68.680
3.71 149.251 68.584
3.72 146.151 68.387
3.73 145.306 68.121
3.74 144.391 67.871
3.75 141.971 67.606
3.76 142.988 67.167
3.77 144.317 66.605
3.78 149.780 66.506
3.79 150.084 67.042
3.80 154.857 67.856
3.81 161.107 68.765
3.82 167.910 69.541
3.83 172.676 69.923
3.84 176.468 69.822
3.85 183.134 69.764
3.86 193.130 70.180
3.87 204.932 70.429
3.88 217.596 70.179
3.89 228.475 69.448
3.90 232.248 68.022
3.91 228.107 65.766
3.92 216.582 62.371
3.93 186.043 57.575
3.94 --undefined-- 51.494
3.95 --undefined-- 45.288
3.96 --undefined-- 41.305
3.97 --undefined-- 37.671
3.98 --undefined-- 47.788
3.99 --undefined-- 58.814
4.00 --undefined-- 65.454
4.01 --undefined-- 68.922
4.02 202.285 70.682
4.03 201.994 72.195
4.04 198.280 73.246
4.05 195.953 73.567
4.06 196.299 73.696
4.07 196.183 73.841
4.08 195.986 73.863
4.09 195.368 73.739
4.10 194.791 73.513
4.11 194.668 73.271
4.12 194.604 73.127
4.13 194.026 73.208
4.14 192.311 73.561
4.15 190.506 74.040
4.16 189.329 74.351
4.17 189.234 74.184
4.18 188.681 73.369
4.19 188.140 72.071
4.20 185.960 70.721
4.21 186.977 70.109
4.22 190.050 70.205
4.23 190.612 70.270
4.24 191.642 70.102
4.25 192.345 69.760
4.26 195.214 69.395
4.27 210.933 69.097
4.28 220.637 68.445
4.29 208.852 66.927
4.30 191.936 64.598
4.31 183.013 61.198
4.32 189.528 56.790
4.33 199.002 53.305
4.34 --undefined-- 52.120
4.35 --undefined-- 52.743
4.36 --undefined-- 53.934
4.37 --undefined-- 54.152
4.38 --undefined-- 53.645
4.39 --undefined-- 52.712
4.40 --undefined-- 52.371
4.41 --undefined-- 55.388
4.42 --undefined-- 59.190
4.43 --undefined-- 61.285
4.44 --undefined-- 62.356
4.45 --undefined-- 63.336
4.46 139.019 64.397
4.47 152.898 65.988
4.48 168.460 68.242
4.49 170.764 70.174
4.50 185.931 71.415
4.51 194.238 72.024
4.52 198.350 71.920
4.53 205.953 71.579
4.54 213.308 71.402
4.55 220.244 71.137
4.56 224.635 70.859
4.57 227.110 70.818
4.58 226.625 71.078
4.59 219.885 71.898
4.60 211.247 72.805
4.61 202.380 73.158
4.62 --undefined-- 73.073
4.63 --undefined-- 72.510
4.64 --undefined-- 71.304
4.65 --undefined-- 69.526
4.66 126.129 67.309
4.67 117.427 64.799
4.68 97.988 61.924
4.69 95.655 58.994
4.70 98.473 56.367
4.71 100.244 54.481
4.72 126.016 53.739
4.73 125.147 53.268
4.74 141.096 53.395
4.75 140.341 56.050
4.76 170.053 59.149
4.77 174.973 61.209
4.78 177.128 61.738
4.79 176.321 60.332
4.80 178.061 56.654
4.81 --undefined-- 50.727
4.82 --undefined-- 53.798
4.83 --undefined-- 60.783
4.84 --undefined-- 63.537
4.85 --undefined-- 63.848
4.86 248.941 68.317
4.87 232.978 73.367
4.88 230.824 75.893
4.89 229.360 76.418
4.90 228.103 75.821
4.91 227.810 74.905
4.92 226.552 74.049
4.93 225.597 73.296
4.94 225.464 72.591
4.95 225.485 72.081
4.96 226.458 71.871
4.97 227.695 71.740
4.98 228.911 71.381
4.99 229.636 70.624
5.00 230.685 69.329
5.01 229.442 67.228
5.02 221.866 64.168
5.03 205.764 60.622
5.04 199.834 56.809
5.05 --undefined-- 51.627
5.06 --undefined-- 44.591
5.07 --undefined-- 38.785
5.08 --undefined-- 36.494
5.09 --undefined-- 35.601
5.10 --undefined-- 33.138
5.11 --undefined-- 31.332
5.12 --undefined-- 36.099
5.13 --undefined-- 40.331
5.14 --undefined-- 42.117
5.15 --undefined-- 45.654
5.16 --undefined-- 49.516
5.17 --undefined-- 50.576
5.18 --undefined-- 50.195
5.19 --undefined-- 49.663
5.20 --undefined-- 48.011
5.21 --undefined-- 47.989
5.22 --undefined-- 49.931
5.23 --undefined-- 51.281
5.24 --undefined-- 52.654
5.25 --undefined-- 54.879
5.26 --undefined-- 58.680
5.27 --undefined-- 64.000
5.28 235.426 68.952
5.29 236.514 71.852
5.30 233.970 73.030
5.31 230.448 73.487
5.32 228.000 73.731
5.33 225.695 73.761
5.34 223.077 73.601
5.35 220.112 73.437
5.36 218.006 73.359
5.37 217.009 73.319
5.38 216.405 73.304
5.39 217.261 73.269
5.40 219.114 73.103
5.41 221.950 72.751
5.42 225.448 72.214
5.43 228.855 71.469
5.44 230.597 70.583
5.45 227.278 69.482
5.46 221.279 67.414
5.47 213.769 63.243
5.48 201.877 56.588
5.49 --undefined-- 50.047
5.50 --undefined-- 47.314
5.51 --undefined-- 47.251
5.52 --undefined-- 49.555
5.53 --undefined-- 54.798
5.54 --undefined-- 62.707
5.55 233.040 68.460
5.56 221.628 71.321
5.57 205.352 71.968
5.58 191.943 71.524
5.59 177.392 70.503
5.60 170.114 69.207
5.61 164.977 68.248
5.62 159.955 67.563
5.63 151.985 66.891
5.64 147.238 66.767
5.65 145.035 67.153
5.66 143.136 --undefined--
5.67 142.709 --undefined--
5.68 --undefined-- --undefined--
5.69 --undefined-- --undefined--
