Time Pitch Intensity
0.01 --undefined-- --undefined--
0.02 186.391 --undefined--
0.03 176.453 --undefined--
0.04 173.406 --undefined--
0.05 169.875 79.602
0.06 166.001 77.137
0.07 168.815 75.571
0.08 177.487 76.292
0.09 180.210 77.050
0.10 179.919 77.308
0.11 177.956 77.197
0.12 174.088 76.685
0.13 168.856 75.864
0.14 163.760 74.915
0.15 156.649 74.029
0.16 149.189 73.591
0.17 146.370 74.917
0.18 149.236 77.500
0.19 139.302 79.307
0.20 130.560 80.397
0.21 127.597 81.310
0.22 127.038 82.026
0.23 128.881 82.431
0.24 133.667 82.607
0.25 137.655 82.403
0.26 149.238 82.089
0.27 156.555 81.910
0.28 163.168 81.303
0.29 170.264 80.142
0.30 174.803 78.670
0.31 175.573 76.785
0.32 168.001 73.707
0.33 143.746 68.692
0.34 --undefined-- 61.571
0.35 --undefined-- 53.718
0.36 --undefined-- 49.819
0.37 --undefined-- 47.648
0.38 --undefined-- 46.202
0.39 --undefined-- 47.680
0.40 --undefined-- 48.817
0.41 --undefined-- 48.801
0.42 --undefined-- 48.933
0.43 --undefined-- 49.667
0.44 --undefined-- 50.607
0.45 --undefined-- 51.702
0.46 --undefined-- 52.195
0.47 --undefined-- 51.066
0.48 --undefined-- 49.264
0.49 --undefined-- 48.944
0.50 --undefined-- 49.576
0.51 --undefined-- 49.436
0.52 --undefined-- 47.450
0.53 --undefined-- 45.386
0.54 --undefined-- 46.677
0.55 --undefined-- 49.681
0.56 --undefined-- 52.801
0.57 --undefined-- 54.929
0.58 --undefined-- 61.333
0.59 --undefined-- 70.183
0.60 --undefined-- 75.834
0.61 160.494 78.787
0.62 152.118 79.939
0.63 146.134 79.897
0.64 142.066 79.150
0.65 138.594 78.109
0.66 134.187 76.431
0.67 129.328 73.511
0.68 124.468 69.533
0.69 119.972 65.321
0.70 116.495 60.652
0.71 --undefined-- 54.257
0.72 --undefined-- 48.964
0.73 --undefined-- 48.869
0.74 --undefined-- 48.686
0.75 --undefined-- 48.358
0.76 --undefined-- 49.426
0.77 --undefined-- 51.311
0.78 --undefined-- 53.586
0.79 --undefined-- 59.521
0.80 192.830 67.076
0.81 170.312 72.043
0.82 161.582 74.891
0.83 160.667 76.829
0.84 160.138 78.373
0.85 155.433 79.564
0.86 157.660 80.237
0.87 166.527 80.339
0.88 177.307 80.121
0.89 190.450 80.037
0.90 199.086 80.397
0.91 212.280 80.797
0.92 219.752 80.746
0.93 227.308 80.103
0.94 228.807 78.740
0.95 226.277 76.704
0.96 207.170 74.682
0.97 175.963 73.436
0.98 --undefined-- 71.977
0.99 --undefined-- 68.471
1.00 --undefined-- 62.085
1.01 --undefined-- 53.562
1.02 --undefined-- 47.491
1.03 --undefined-- 45.848
1.04 --undefined-- 45.277
1.05 --undefined-- 45.803
1.06 --undefined-- 44.988
1.07 --undefined-- 42.585
1.08 --undefined-- 41.001
1.09 --undefined-- 41.512
1.10 --undefined-- 44.213
1.11 --undefined-- 49.523
1.12 --undefined-- 54.648
1.13 --undefined-- 60.252
1.14 197.811 67.147
1.15 203.171 71.643
1.16 178.422 73.331
1.17 159.914 73.614
1.18 151.233 73.970
1.19 143.392 74.551
1.20 133.819 75.155
1.21 127.781 75.554
1.22 123.516 75.698
1.23 118.018 75.442
1.24 113.771 74.795
1.25 110.289 74.248
1.26 109.752 74.126
1.27 110.827 74.097
1.28 111.476 73.828
1.29 111.942 73.425
1.30 112.861 73.185
1.31 113.790 73.206
1.32 113.352 73.473
1.33 112.059 73.953
1.34 110.666 74.443
1.35 110.715 74.617
1.36 109.541 74.220
1.37 106.961 73.518
1.38 106.943 72.998
1.39 107.317 72.612
1.40 106.786 72.338
1.41 106.272 72.221
1.42 105.857 72.151
1.43 105.308 72.115
1.44 106.294 72.201
1.45 106.245 72.335
1.46 107.587 72.468
1.47 108.768 72.592
1.48 110.446 72.667
1.49 112.235 72.639
1.50 114.115 72.438
1.51 115.087 71.881
1.52 114.220 70.406
1.53 111.888 67.408
1.54 121.183 62.863
1.55 --undefined-- 57.750
1.56 --undefined-- 53.660
1.57 --undefined-- 58.078
1.58 --undefined-- 66.021
1.59 --undefined-- 70.995
1.60 116.935 73.579
1.61 117.898 74.768
1.62 119.305 75.207
1.63 122.757 75.359
1.64 127.173 75.548
1.65 133.005 75.840
1.66 139.801 76.069
1.67 147.487 76.226
1.68 154.629 76.422
1.69 162.514 76.337
1.70 175.816 75.662
1.71 185.072 74.799
1.72 191.326 74.372
1.73 194.360 74.268
1.74 195.133 74.105
1.75 194.823 73.875
1.76 194.853 73.973
1.77 197.262 74.689
1.78 195.846 75.625
1.79 192.745 76.209
1.80 186.903 76.546
1.81 178.528 76.783
1.82 171.854 76.135
1.83 161.285 73.727
1.84 150.181 69.988
1.85 152.618 66.011
1.86 153.230 61.578
1.87 --undefined-- 56.389
1.88 --undefined-- 58.383
1.89 193.511 66.922
1.90 184.044 72.531
1.91 159.752 75.468
1.92 152.061 76.771
1.93 145.756 77.022
1.94 144.000 76.474
1.95 143.828 75.798
1.96 145.234 75.563
1.97 145.751 75.502
1.98 145.985 75.302
1.99 145.406 74.828
2.00 143.081 73.790
2.01 139.602 71.704
2.02 133.090 68.612
2.03 124.965 64.941
2.04 110.363 60.373
2.05 --undefined-- 55.550
2.06 --undefined-- 56.464
2.07 --undefined-- 63.906
2.08 173.191 70.261
2.09 164.733 74.419
2.10 158.665 77.162
2.11 158.714 79.132
2.12 161.804 80.669
2.13 166.398 81.914
2.14 171.518 82.789
2.15 174.774 83.053
2.16 172.626 82.352
2.17 165.884 80.116
2.18 157.742 75.991
2.19 151.255 72.231
2.20 142.343 71.330
2.21 136.292 71.426
2.22 128.564 71.759
2.23 141.593 71.224
2.24 148.924 70.222
2.25 150.645 69.282
2.26 147.138 68.629
2.27 149.343 68.695
2.28 150.900 69.047
2.29 150.498 69.387
2.30 149.278 69.887
2.31 150.379 70.680
2.32 150.141 71.783
2.33 154.828 73.328
2.34 157.625 74.994
2.35 155.132 76.404
2.36 152.810 77.485
2.37 150.421 78.262
2.38 149.618 78.851
2.39 149.798 79.413
2.40 149.986 79.939
2.41 151.347 80.324
2.42 154.220 80.399
2.43 158.653 79.927
2.44 162.031 78.832
2.45 164.243 77.092
2.46 161.121 74.601
2.47 154.009 71.743
2.48 152.917 69.103
2.49 159.732 66.535
2.50 164.822 63.370
2.51 --undefined-- 58.310
2.52 --undefined-- 51.596
2.53 --undefined-- 46.437
2.54 --undefined-- 43.033
2.55 --undefined-- 40.637
2.56 --undefined-- 41.432
2.57 --undefined-- 42.692
2.58 --undefined-- 42.573
2.59 --undefined-- 41.465
2.60 --undefined-- 43.273
2.61 --undefined-- 50.626
2.62 --undefined-- 58.405
2.63 219.370 67.402
2.64 231.703 74.837
2.65 222.494 79.510
2.66 210.852 82.009
2.67 208.676 83.221
2.68 209.667 83.732
2.69 211.742 83.798
2.70 215.800 83.650
2.71 219.140 83.436
2.72 221.480 83.093
2.73 223.394 82.568
2.74 223.563 81.898
2.75 222.174 81.025
2.76 219.498 79.700
2.77 214.643 77.960
2.78 213.908 77.220
2.79 229.636 78.379
2.80 237.253 79.524
2.81 236.881 79.909
2.82 233.552 79.912
2.83 229.927 79.901
2.84 226.485 79.916
2.85 222.866 79.797
2.86 218.530 79.379
2.87 212.215 78.352
2.88 202.535 76.231
2.89 184.776 72.770
2.90 162.247 68.513
2.91 159.990 64.045
2.92 --undefined-- 59.769
2.93 --undefined-- 58.777
2.94 --undefined-- 58.604
2.95 173.791 64.510
2.96 187.465 72.376
2.97 182.405 76.950
2.98 167.017 79.051
2.99 155.914 79.728
3.00 149.956 79.642
3.01 146.959 79.093
3.02 143.885 78.055
3.03 139.283 76.289
3.04 128.416 73.362
3.05 126.897 69.274
3.06 --undefined-- 64.304
3.07 --undefined-- 57.923
3.08 --undefined-- 50.633
3.09 --undefined-- 45.854
3.10 --undefined-- 43.833
3.11 --undefined-- 43.576
3.12 --undefined-- 48.793
3.13 --undefined-- 58.500
3.14 --undefined-- 66.622
3.15 170.202 71.985
3.16 162.291 74.898
3.17 130.670 76.164
3.18 122.535 76.834
3.19 121.091 77.205
3.20 119.522 77.182
3.21 118.686 77.207
3.22 118.403 77.205
3.23 117.863 76.782
3.24 117.564 76.192
3.25 117.863 75.947
3.26 118.490 75.986
3.27 119.602 75.983
3.28 120.472 75.698
3.29 119.895 75.033
3.30 119.025 74.236
3.31 118.119 73.589
3.32 117.511 72.964
3.33 115.314 72.367
3.34 113.797 72.038
3.35 113.739 72.027
3.36 113.092 72.417
3.37 110.665 72.951
3.38 112.380 73.261
3.39 111.921 73.387
3.40 111.479 73.362
3.41 114.270 73.273
3.42 114.757 73.297
3.43 114.714 73.312
3.44 115.461 73.283
3.45 116.930 73.367
3.46 117.896 73.346
3.47 117.500 72.732
3.48 114.916 70.916
3.49 111.187 67.556
3.50 111.917 63.030
3.51 112.203 58.646
3.52 --undefined-- 55.477
3.53 --undefined-- 52.100
3.54 --undefined-- 48.399
3.55 --undefined-- 49.787
3.56 --undefined-- 56.025
3.57 --undefined-- 59.484
3.58 --undefined-- 59.523
3.59 --undefined-- 58.666
3.60 160.276 65.488
3.61 171.775 72.779
3.62 182.022 77.023
3.63 178.783 78.796
3.64 177.554 79.175
3.65 179.567 79.148
3.66 181.190 79.271
3.67 181.239 79.761
3.68 180.740 80.071
3.69 180.047 79.136
3.70 173.234 76.193
3.71 167.088 71.436
3.72 165.826 66.289
3.73 167.030 62.581
3.74 --undefined-- 61.935
3.75 --undefined-- 65.602
3.76 267.273 70.540
3.77 251.492 73.682
3.78 236.921 75.481
3.79 221.706 76.406
3.80 --undefined-- 76.731
3.81 92.999 76.853
3.82 92.195 76.499
3.83 172.133 75.820
3.84 174.110 75.445
3.85 172.197 75.588
3.86 169.549 75.724
3.87 165.492 75.103
3.88 158.139 73.297
3.89 160.348 71.018
3.90 158.414 69.396
3.91 161.574 68.786
3.92 167.357 69.639
3.93 187.677 72.503
3.94 196.305 75.361
3.95 200.397 76.978
3.96 199.191 77.411
3.97 195.752 77.058
3.98 193.865 76.179
3.99 192.740 74.548
4.00 178.999 71.606
4.01 166.582 67.417
4.02 170.616 62.603
4.03 --undefined-- 56.716
4.04 --undefined-- 50.341
4.05 --undefined-- 47.226
4.06 --undefined-- 52.347
4.07 --undefined-- 60.353
4.08 --undefined-- 67.338
4.09 237.469 73.508
4.10 218.515 77.430
4.11 205.482 79.314
4.12 198.360 80.067
4.13 194.632 80.101
4.14 191.629 79.646
4.15 190.149 78.576
4.16 189.764 76.616
4.17 190.266 74.825
4.18 190.043 74.014
4.19 189.310 73.799
4.20 186.330 74.138
4.21 181.942 74.881
4.22 177.797 75.567
4.23 172.435 75.785
4.24 164.925 75.501
4.25 156.626 75.014
4.26 148.435 74.505
4.27 138.797 73.768
4.28 128.796 73.142
4.29 123.181 73.170
4.30 119.438 73.203
4.31 102.373 72.906
4.32 97.787 72.075
4.33 92.763 70.626
4.34 89.735 68.937
4.35 88.524 67.407
4.36 88.595 66.658
4.37 90.056 66.457
4.38 90.920 66.475
4.39 93.500 66.782
4.40 94.453 67.199
4.41 96.709 67.675
4.42 101.055 68.389
4.43 103.943 69.162
4.44 101.131 69.164
4.45 98.428 68.004
4.46 97.247 65.693
4.47 90.340 62.296
4.48 --undefined-- 59.526
4.49 --undefined-- 60.160
4.50 --undefined-- 62.231
4.51 --undefined-- 65.516
4.52 --undefined-- 70.751
4.53 131.415 74.807
4.54 123.278 76.902
4.55 116.360 77.736
4.56 114.252 77.897
4.57 113.858 77.720
4.58 113.375 77.377
4.59 113.098 76.892
4.60 112.282 76.296
4.61 112.293 75.587
4.62 111.330 74.636
4.63 112.006 73.771
4.64 121.465 73.209
4.65 122.444 71.940
4.66 122.482 68.966
4.67 122.562 64.354
4.68 --undefined-- 58.713
4.69 --undefined-- 56.046
4.70 --undefined-- 64.119
4.71 196.333 71.815
4.72 181.282 77.174
4.73 172.414 81.022
4.74 163.426 83.613
4.75 161.683 84.968
4.76 161.880 85.507
4.77 163.308 85.640
4.78 165.912 85.334
4.79 167.172 84.312
4.80 166.026 82.226
4.81 158.355 78.835
4.82 143.990 74.592
4.83 139.716 69.137
4.84 --undefined-- 61.567
4.85 --undefined-- 53.890
4.86 --undefined-- 50.505
4.87 --undefined-- 48.294
4.88 --undefined-- 48.034
4.89 --undefined-- 48.694
4.90 --undefined-- 49.035
4.91 --undefined-- 48.676
4.92 --undefined-- 48.575
4.93 --undefined-- 48.707
4.94 --undefined-- 48.417
4.95 --undefined-- 48.068
4.96 --undefined-- 48.313
4.97 --undefined-- 48.585
4.98 --undefined-- 48.678
4.99 --undefined-- 48.849
5.00 --undefined-- 49.469
5.01 --undefined-- 50.550
5.02 --undefined-- 51.493
5.03 --undefined-- 51.616
5.04 --undefined-- 49.734
5.05 --undefined-- 45.834
5.06 --undefined-- 43.280
5.07 --undefined-- 43.401
5.08 --undefined-- 41.926
5.09 --undefined-- 47.859
5.10 --undefined-- 58.917
5.11 --undefined-- 65.230
5.12 --undefined-- 68.127
5.13 --undefined-- 69.270
5.14 136.974 70.108
5.15 127.606 71.418
5.16 119.501 73.437
5.17 113.634 75.051
5.18 113.141 75.533
5.19 112.118 74.679
5.20 105.620 72.717
5.21 103.973 70.348
5.22 104.489 68.083
5.23 113.298 66.851
5.24 134.375 --undefined--
5.25 132.495 --undefined--
5.26 --undefined-- --undefined--
5.27 --undefined-- --undefined--
