Time Pitch Intensity
0.01 --undefined-- --undefined--
0.02 --undefined-- --undefined--
0.03 --undefined-- --undefined--
0.04 --undefined-- --undefined--
0.05 --undefined-- 48.804
0.06 --undefined-- 47.666
0.07 --undefined-- 50.936
0.08 --undefined-- 57.050
0.09 142.336 60.763
0.10 141.834 62.536
0.11 135.262 62.922
0.12 133.810 61.945
0.13 129.629 60.144
0.14 132.117 59.155
0.15 132.098 58.568
0.16 133.389 57.320
0.17 137.360 55.675
0.18 142.076 55.053
0.19 141.988 55.205
0.20 139.575 54.763
0.21 137.390 54.542
0.22 137.836 55.826
0.23 136.853 58.167
0.24 131.044 60.511
0.25 126.988 62.088
0.26 122.619 62.301
0.27 116.368 60.341
0.28 --undefined-- 55.670
0.29 --undefined-- 49.288
0.30 --undefined-- 45.523
0.31 --undefined-- 46.558
0.32 --undefined-- 48.967
0.33 --undefined-- 55.050
0.34 117.029 60.294
0.35 112.978 62.457
0.36 108.494 61.994
0.37 106.482 60.297
0.38 106.884 58.554
0.39 103.357 56.833
0.40 99.512 54.606
0.41 --undefined-- 51.717
0.42 --undefined-- 49.510
0.43 --undefined-- 48.986
0.44 --undefined-- 49.562
0.45 --undefined-- 50.385
0.46 90.854 51.337
0.47 90.363 52.385
0.48 86.941 53.033
0.49 89.433 52.885
0.50 87.416 52.360
0.51 86.156 52.106
0.52 88.437 51.650
0.53 88.370 50.926
0.54 88.207 50.476
0.55 --undefined-- 50.776
0.56 --undefined-- 50.636
0.57 --undefined-- 48.501
0.58 --undefined-- 47.406
0.59 --undefined-- 51.134
0.60 100.675 54.958
0.61 101.723 58.219
0.62 103.517 60.831
0.63 102.988 62.742
0.64 103.678 63.977
0.65 104.588 64.493
0.66 104.559 64.123
0.67 105.005 62.664
0.68 105.836 59.971
0.69 107.689 57.143
0.70 108.076 56.302
0.71 107.681 56.005
0.72 108.503 55.528
0.73 108.672 55.195
0.74 108.548 54.873
0.75 109.133 54.695
0.76 108.957 54.883
0.77 109.164 55.727
0.78 110.816 58.469
0.79 111.190 61.889
0.80 110.554 64.088
0.81 111.721 65.102
0.82 111.521 65.527
0.83 110.503 65.501
0.84 110.209 65.023
0.85 109.761 64.216
0.86 111.079 63.363
0.87 111.352 62.925
0.88 111.503 62.935
0.89 111.987 62.914
0.90 111.622 62.212
0.91 109.846 60.565
0.92 111.874 58.447
0.93 116.492 56.213
0.94 117.251 54.153
0.95 --undefined-- 53.043
0.96 --undefined-- 50.401
0.97 --undefined-- 44.674
0.98 --undefined-- 45.340
0.99 --undefined-- 50.586
1.00 --undefined-- 53.777
1.01 99.646 57.084
1.02 98.401 60.213
1.03 107.738 62.261
1.04 95.344 63.274
1.05 97.812 63.692
1.06 95.671 63.472
1.07 92.242 62.531
1.08 94.264 61.571
1.09 99.935 61.544
1.10 101.292 62.340
1.11 105.171 63.371
1.12 107.142 63.782
1.13 110.282 62.884
1.14 --undefined-- 60.082
1.15 --undefined-- 54.974
1.16 --undefined-- 48.117
1.17 --undefined-- 43.278
1.18 --undefined-- 40.591
1.19 --undefined-- 37.736
1.20 --undefined-- 36.086
1.21 --undefined-- 35.553
1.22 --undefined-- 36.336
1.23 --undefined-- 43.149
1.24 --undefined-- 50.180
1.25 --undefined-- 54.426
1.26 --undefined-- 60.045
1.27 --undefined-- 65.319
1.28 --undefined-- 68.626
1.29 117.091 70.394
1.30 114.158 70.922
1.31 111.888 70.457
1.32 110.172 69.431
1.33 108.069 68.452
1.34 107.842 67.893
1.35 107.330 67.773
1.36 107.496 67.885
1.37 108.130 68.021
1.38 107.828 68.059
1.39 108.497 68.038
1.40 108.480 68.097
1.41 109.280 68.137
1.42 108.708 67.732
1.43 110.572 66.445
1.44 111.687 64.077
1.45 112.556 60.259
1.46 --undefined-- 54.820
1.47 --undefined-- 48.448
1.48 --undefined-- 43.718
1.49 --undefined-- 41.119
1.50 --undefined-- 39.287
1.51 --undefined-- 38.778
1.52 --undefined-- 39.165
1.53 --undefined-- 39.368
1.54 --undefined-- 40.272
1.55 --undefined-- 42.865
1.56 --undefined-- 45.179
1.57 --undefined-- 46.065
1.58 --undefined-- 46.071
1.59 --undefined-- 45.925
1.60 --undefined-- 45.449
1.61 --undefined-- 44.872
1.62 --undefined-- 47.325
1.63 --undefined-- 54.211
1.64 138.017 59.242
1.65 136.691 62.087
1.66 131.485 63.919
1.67 127.407 64.790
1.68 124.641 64.616
1.69 123.473 64.273
1.70 123.025 64.640
1.71 124.537 65.511
1.72 124.871 66.207
1.73 125.210 66.532
1.74 125.950 66.352
1.75 125.876 65.729
1.76 125.248 65.025
1.77 124.557 64.518
1.78 124.403 64.380
1.79 124.402 64.242
1.80 124.635 63.892
1.81 124.587 63.413
1.82 124.166 62.715
1.83 123.306 61.533
1.84 122.639 59.683
1.85 123.396 57.047
1.86 124.137 53.356
1.87 --undefined-- 48.078
1.88 --undefined-- 41.986
1.89 --undefined-- 38.114
1.90 --undefined-- 35.860
1.91 --undefined-- 34.751
1.92 --undefined-- 34.608
1.93 --undefined-- 35.090
1.94 --undefined-- 35.664
1.95 --undefined-- 36.331
1.96 --undefined-- 36.447
1.97 --undefined-- 35.754
1.98 --undefined-- 35.454
1.99 --undefined-- 35.709
2.00 --undefined-- 36.509
2.01 --undefined-- 37.470
2.02 --undefined-- 37.456
2.03 --undefined-- 37.132
2.04 --undefined-- 37.410
2.05 --undefined-- 37.938
2.06 --undefined-- 38.513
2.07 --undefined-- 38.853
2.08 --undefined-- 37.820
2.09 --undefined-- 35.699
2.10 --undefined-- 34.283
2.11 --undefined-- 34.143
2.12 --undefined-- 34.254
2.13 --undefined-- 35.064
2.14 --undefined-- 36.582
2.15 --undefined-- 36.441
2.16 --undefined-- 34.598
2.17 --undefined-- 32.759
2.18 --undefined-- 31.591
2.19 --undefined-- 31.547
2.20 --undefined-- 32.565
2.21 --undefined-- 33.630
2.22 --undefined-- 35.702
2.23 --undefined-- 44.443
2.24 --undefined-- 55.481
2.25 148.802 63.071
2.26 151.009 67.535
2.27 150.112 69.630
2.28 149.536 69.957
2.29 148.460 68.726
2.30 146.454 65.807
2.31 144.545 60.983
2.32 --undefined-- 54.468
2.33 --undefined-- 49.142
2.34 --undefined-- 47.746
2.35 --undefined-- 49.008
2.36 --undefined-- 50.595
2.37 --undefined-- 52.444
2.38 --undefined-- 55.504
2.39 --undefined-- 58.025
2.40 --undefined-- 58.667
2.41 --undefined-- 57.277
2.42 --undefined-- 57.092
2.43 --undefined-- 63.045
2.44 165.533 68.058
2.45 156.709 70.394
2.46 152.488 71.135
2.47 148.782 71.355
2.48 147.253 71.283
2.49 146.337 70.598
2.50 146.850 69.054
2.51 149.306 66.671
2.52 150.208 63.723
2.53 150.986 61.124
2.54 153.007 59.749
2.55 153.953 59.515
2.56 154.154 59.774
2.57 153.542 59.902
2.58 152.170 59.669
2.59 148.320 59.138
2.60 143.949 58.671
2.61 139.357 59.658
2.62 132.910 62.863
2.63 129.805 66.049
2.64 --undefined-- 68.121
2.65 --undefined-- 69.441
2.66 --undefined-- 69.745
2.67 --undefined-- 68.596
2.68 --undefined-- 66.688
2.69 --undefined-- 65.452
2.70 --undefined-- 64.931
2.71 --undefined-- 64.437
2.72 95.098 64.469
2.73 95.321 65.228
2.74 95.094 65.584
2.75 95.774 64.937
2.76 95.054 63.699
2.77 97.660 62.652
2.78 99.810 61.598
2.79 100.487 59.563
2.80 98.682 55.952
2.81 --undefined-- 50.467
2.82 --undefined-- 44.042
2.83 --undefined-- 40.109
2.84 --undefined-- 38.361
2.85 --undefined-- 36.228
2.86 --undefined-- 33.918
2.87 --undefined-- 33.106
2.88 --undefined-- 33.231
2.89 --undefined-- 34.665
2.90 --undefined-- 39.841
2.91 --undefined-- 43.775
2.92 --undefined-- 47.155
2.93 --undefined-- 53.448
2.94 102.284 58.296
2.95 101.067 60.604
2.96 100.085 61.045
2.97 99.557 60.737
2.98 99.567 60.306
2.99 100.192 59.681
3.00 100.403 58.805
3.01 100.888 57.370
3.02 100.585 55.148
3.03 103.343 53.773
3.04 105.541 53.859
3.05 107.348 54.327
3.06 108.880 54.735
3.07 111.549 55.127
3.08 114.356 55.882
3.09 114.821 56.089
3.10 118.258 54.889
3.11 118.969 52.063
3.12 --undefined-- 48.102
3.13 --undefined-- 45.186
3.14 --undefined-- 45.915
3.15 --undefined-- 48.158
3.16 --undefined-- 49.018
3.17 --undefined-- 50.336
3.18 --undefined-- 56.686
3.19 132.354 62.041
3.20 130.758 65.213
3.21 128.495 66.921
3.22 126.346 67.367
3.23 125.952 66.536
3.24 125.930 64.276
3.25 124.964 60.583
3.26 128.467 57.261
3.27 127.812 55.988
3.28 127.477 54.859
3.29 124.721 53.442
3.30 127.572 52.407
3.31 --undefined-- 51.342
3.32 --undefined-- 50.267
3.33 --undefined-- 49.807
3.34 --undefined-- 51.933
3.35 122.992 57.180
3.36 121.553 62.116
3.37 119.453 65.322
3.38 115.640 66.614
3.39 113.653 66.531
3.40 108.534 65.807
3.41 107.555 64.709
3.42 108.138 62.860
3.43 108.614 60.305
3.44 108.052 58.480
3.45 107.438 58.116
3.46 106.417 58.071
3.47 103.193 57.509
3.48 106.308 56.637
3.49 104.694 56.019
3.50 103.745 55.564
3.51 102.986 54.991
3.52 103.550 54.588
3.53 103.231 54.802
3.54 102.532 55.785
3.55 102.952 57.313
3.56 104.074 58.873
3.57 104.544 59.766
3.58 103.349 59.373
3.59 --undefined-- 57.523
3.60 --undefined-- 54.942
3.61 --undefined-- 53.944
3.62 --undefined-- 54.765
3.63 --undefined-- 55.248
3.64 --undefined-- 54.670
3.65 --undefined-- 53.232
3.66 --undefined-- 52.393
3.67 --undefined-- 55.005
3.68 101.342 59.194
3.69 89.591 62.310
3.70 89.758 63.960
3.71 82.370 64.237
3.72 98.019 63.809
3.73 --undefined-- 62.108
3.74 --undefined-- 58.333
3.75 --undefined-- 54.831
3.76 --undefined-- 52.326
3.77 --undefined-- 51.288
3.78 --undefined-- 52.142
3.79 --undefined-- 51.624
3.80 --undefined-- 50.279
3.81 --undefined-- 49.183
3.82 --undefined-- 48.551
3.83 --undefined-- 51.045
3.84 --undefined-- 56.299
3.85 --undefined-- 59.788
3.86 --undefined-- 60.417
3.87 --undefined-- 58.114
3.88 --undefined-- 52.998
3.89 --undefined-- 45.815
3.90 --undefined-- 39.481
3.91 --undefined-- 36.406
3.92 --undefined-- 35.829
3.93 --undefined-- 35.294
3.94 --undefined-- 34.297
3.95 --undefined-- 35.577
3.96 --undefined-- 37.175
3.97 --undefined-- 36.668
3.98 --undefined-- 35.180
3.99 --undefined-- 34.979
4.00 --undefined-- 42.528
4.01 --undefined-- 55.308
4.02 --undefined-- 63.809
4.03 --undefined-- 67.933
4.04 97.338 68.661
4.05 98.380 67.539
4.06 94.675 66.194
4.07 95.275 65.336
4.08 95.349 64.022
4.09 98.121 61.224
4.10 98.255 56.978
4.11 --undefined-- 51.914
4.12 --undefined-- 46.376
4.13 --undefined-- 41.717
4.14 --undefined-- 38.607
4.15 --undefined-- 42.492
4.16 --undefined-- 49.415
4.17 --undefined-- 53.151
4.18 --undefined-- 54.781
4.19 --undefined-- 56.446
4.20 --undefined-- 58.268
4.21 --undefined-- 58.569
4.22 110.340 58.187
4.23 111.716 58.472
4.24 112.650 58.996
4.25 112.244 59.307
4.26 110.175 59.235
4.27 108.966 58.890
4.28 107.661 58.460
4.29 108.748 58.020
4.30 107.162 58.158
4.31 106.510 59.668
4.32 101.808 61.192
4.33 101.059 61.757
4.34 97.490 61.561
4.35 91.813 60.704
4.36 89.398 59.561
4.37 99.685 59.497
4.38 98.750 60.022
4.39 98.330 60.211
4.40 98.671 59.978
4.41 --undefined-- 57.825
4.42 --undefined-- 55.316
4.43 --undefined-- 55.222
4.44 --undefined-- 54.177
4.45 --undefined-- 52.426
4.46 --undefined-- 50.998
4.47 --undefined-- 48.101
4.48 --undefined-- 43.529
4.49 --undefined-- 39.814
4.50 --undefined-- 39.011
4.51 --undefined-- 43.030
4.52 --undefined-- 48.474
4.53 --undefined-- 53.470
4.54 --undefined-- 59.377
4.55 248.527 63.468
4.56 255.210 64.498
4.57 252.224 62.034
4.58 --undefined-- 56.166
4.59 --undefined-- 48.634
4.60 --undefined-- 44.490
4.61 --undefined-- 42.931
4.62 --undefined-- 41.634
4.63 --undefined-- 40.500
4.64 --undefined-- 40.206
4.65 --undefined-- 41.001
4.66 --undefined-- 41.054
4.67 --undefined-- 39.117
4.68 --undefined-- 36.632
4.69 --undefined-- 36.105
4.70 --undefined-- 35.807
4.71 --undefined-- 35.375
4.72 --undefined-- 34.927
4.73 --undefined-- 35.075
4.74 --undefined-- 36.524
4.75 --undefined-- 38.563
4.76 --undefined-- 40.292
4.77 --undefined-- 41.156
4.78 --undefined-- 41.287
4.79 --undefined-- 41.905
4.80 --undefined-- 42.535
4.81 --undefined-- 42.711
4.82 --undefined-- 42.739
4.83 --undefined-- 42.496
4.84 --undefined-- 41.744
4.85 --undefined-- 40.878
4.86 --undefined-- 40.895
4.87 --undefined-- 40.549
4.88 --undefined-- 38.841
4.89 --undefined-- 36.566
4.90 --undefined-- 35.580
4.91 --undefined-- 36.310
4.92 --undefined-- 37.129
4.93 --undefined-- 37.175
4.94 --undefined-- 37.066
4.95 --undefined-- 36.939
4.96 --undefined-- 36.348
4.97 --undefined-- 37.334
4.98 --undefined-- 41.848
4.99 --undefined-- 44.766
5.00 --undefined-- 44.874
5.01 --undefined-- 43.114
5.02 --undefined-- 43.234
5.03 --undefined-- 47.992
5.04 --undefined-- 52.498
5.05 --undefined-- 59.620
5.06 --undefined-- 66.799
5.07 --undefined-- 71.420
5.08 133.319 74.028
5.09 136.249 75.336
5.10 140.303 76.325
5.11 144.714 77.540
5.12 147.258 78.453
5.13 149.415 78.078
5.14 162.171 76.080
5.15 165.466 73.012
5.16 165.589 68.573
5.17 --undefined-- 62.103
5.18 --undefined-- 55.220
5.19 --undefined-- 50.788
5.20 --undefined-- 48.511
5.21 --undefined-- 47.231
5.22 --undefined-- 47.860
5.23 --undefined-- 49.548
5.24 --undefined-- 50.606
5.25 --undefined-- 51.134
5.26 --undefined-- 51.832
5.27 --undefined-- 51.814
5.28 --undefined-- 50.886
5.29 --undefined-- 55.681
5.30 --undefined-- 61.792
5.31 155.666 65.100
5.32 147.541 66.202
5.33 141.445 66.544
5.34 136.026 66.923
5.35 133.517 67.025
5.36 131.986 67.038
5.37 131.197 67.502
5.38 129.962 68.166
5.39 129.375 69.089
5.40 129.576 70.450
5.41 130.140 71.926
5.42 131.379 72.903
5.43 132.644 72.509
5.44 133.557 70.010
5.45 134.625 65.312
5.46 --undefined-- 61.269
5.47 --undefined-- 61.103
5.48 --undefined-- 62.218
5.49 --undefined-- 63.202
5.50 --undefined-- 62.437
5.51 --undefined-- 61.204
5.52 --undefined-- 63.251
5.53 --undefined-- 68.510
5.54 --undefined-- 72.587
5.55 120.618 74.088
5.56 109.339 73.208
5.57 100.619 70.677
5.58 98.576 67.453
5.59 96.734 65.014
5.60 96.389 64.283
5.61 97.515 63.651
5.62 98.965 62.340
5.63 98.258 60.933
5.64 97.224 59.668
5.65 99.765 58.795
5.66 101.027 58.477
5.67 101.301 57.940
5.68 100.282 57.083
5.69 100.304 56.324
5.70 101.056 55.367
5.71 100.096 53.316
5.72 --undefined-- 50.014
5.73 --undefined-- 47.068
5.74 --undefined-- 50.907
5.75 --undefined-- 58.555
5.76 --undefined-- 64.777
5.77 --undefined-- 68.387
5.78 107.713 69.671
5.79 105.418 69.519
5.80 104.700 68.659
5.81 107.190 67.504
5.82 108.349 66.186
5.83 108.391 64.748
5.84 108.595 63.322
5.85 107.722 61.486
5.86 107.137 58.683
5.87 --undefined-- 54.699
5.88 --undefined-- 51.304
5.89 --undefined-- 50.701
5.90 --undefined-- 50.724
5.91 --undefined-- 48.943
5.92 --undefined-- 45.772
5.93 --undefined-- 43.339
5.94 --undefined-- 43.515
5.95 --undefined-- 52.592
5.96 --undefined-- 62.656
5.97 --undefined-- --undefined--
5.98 --undefined-- --undefined--
5.99 --undefined-- --undefined--
6.00 --undefined-- --undefined--
