Time Pitch Intensity
0.01 --undefined-- --undefined--
0.02 156.156 --undefined--
0.03 156.076 --undefined--
0.04 154.780 --undefined--
0.05 152.560 71.787
0.06 148.745 69.037
0.07 155.492 65.854
0.08 157.971 62.933
0.09 160.984 59.737
0.10 155.111 56.049
0.11 153.851 52.350
0.12 --undefined-- 49.127
0.13 --undefined-- 47.166
0.14 --undefined-- 52.492
0.15 --undefined-- 63.560
0.16 --undefined-- 71.170
0.17 --undefined-- 74.858
0.18 201.265 75.576
0.19 201.036 75.165
0.20 201.489 75.008
0.21 199.454 74.777
0.22 196.758 73.878
0.23 194.774 71.552
0.24 194.597 66.942
0.25 199.723 60.452
0.26 199.093 56.245
0.27 199.130 55.120
0.28 198.030 53.284
0.29 --undefined-- 50.106
0.30 --undefined-- 47.901
0.31 --undefined-- 46.693
0.32 --undefined-- 44.898
0.33 --undefined-- 42.906
0.34 --undefined-- 42.348
0.35 --undefined-- 44.291
0.36 --undefined-- 48.510
0.37 --undefined-- 53.024
0.38 --undefined-- 56.270
0.39 --undefined-- 57.948
0.40 --undefined-- 58.638
0.41 --undefined-- 58.938
0.42 --undefined-- 59.868
0.43 --undefined-- 63.902
0.44 148.051 68.222
0.45 135.541 70.361
0.46 125.657 70.903
0.47 115.756 71.687
0.48 103.019 73.335
0.49 99.428 74.707
0.50 97.836 75.333
0.51 98.491 75.599
0.52 97.967 75.711
0.53 99.525 75.277
0.54 100.896 74.376
0.55 100.158 73.671
0.56 100.221 72.951
0.57 99.196 71.602
0.58 95.941 69.151
0.59 92.365 65.026
0.60 --undefined-- 59.509
0.61 99.557 54.870
0.62 100.729 52.576
0.63 99.483 50.953
0.64 --undefined-- 49.233
0.65 --undefined-- 54.664
0.66 --undefined-- 63.929
0.67 --undefined-- 70.114
0.68 --undefined-- 73.571
0.69 --undefined-- 74.806
0.70 125.564 74.260
0.71 112.050 72.720
0.72 105.300 70.837
0.73 104.268 68.713
0.74 103.930 66.032
0.75 114.010 62.295
0.76 117.592 58.912
0.77 121.391 61.600
0.78 121.107 66.402
0.79 120.457 70.279
0.80 121.669 72.835
0.81 123.974 74.139
0.82 127.733 74.658
0.83 134.477 75.030
0.84 141.029 75.436
0.85 154.286 75.540
0.86 161.285 74.997
0.87 166.626 73.664
0.88 166.590 70.919
0.89 161.687 65.870
0.90 161.445 58.924
0.91 165.820 54.395
0.92 164.698 54.229
0.93 158.172 56.351
0.94 --undefined-- 60.135
0.95 --undefined-- 62.442
0.96 --undefined-- 63.139
0.97 --undefined-- 62.912
0.98 --undefined-- 63.430
0.99 168.824 68.662
1.00 168.791 73.278
1.01 163.299 75.552
1.02 153.634 76.191
1.03 146.488 75.667
1.04 141.751 73.900
1.05 137.360 70.234
1.06 117.378 63.876
1.07 144.010 55.943
1.08 142.992 53.149
1.09 146.572 53.088
1.10 148.115 51.423
1.11 --undefined-- 47.373
1.12 --undefined-- 42.744
1.13 --undefined-- 49.094
1.14 --undefined-- 58.412
1.15 --undefined-- 63.015
1.16 --undefined-- 63.175
1.17 --undefined-- 59.196
1.18 --undefined-- 53.424
1.19 --undefined-- 52.345
1.20 --undefined-- 53.539
1.21 --undefined-- 59.681
1.22 187.843 68.236
1.23 193.717 73.414
1.24 184.294 75.437
1.25 180.048 75.514
1.26 179.960 75.107
1.27 180.191 75.056
1.28 179.788 75.575
1.29 178.871 76.163
1.30 177.695 76.409
1.31 175.191 76.286
1.32 170.481 76.157
1.33 165.662 76.398
1.34 160.935 76.713
1.35 156.376 76.817
1.36 151.604 76.552
1.37 137.715 75.931
1.38 128.360 75.626
1.39 121.523 75.099
1.40 115.956 72.926
1.41 100.885 68.577
1.42 99.003 63.168
1.43 119.693 58.823
1.44 119.854 55.225
1.45 122.217 51.920
1.46 --undefined-- 49.167
1.47 --undefined-- 47.241
1.48 --undefined-- 47.728
1.49 --undefined-- 52.314
1.50 --undefined-- 55.868
1.51 --undefined-- 56.872
1.52 --undefined-- 57.279
1.53 --undefined-- 58.108
1.54 --undefined-- 57.435
1.55 --undefined-- 55.157
1.56 --undefined-- 53.922
1.57 --undefined-- 54.690
1.58 --undefined-- 55.670
1.59 --undefined-- 58.859
1.60 --undefined-- 66.648
1.61 155.251 72.126
1.62 154.704 74.407
1.63 131.419 74.648
1.64 130.142 74.272
1.65 128.114 73.726
1.66 126.318 72.874
1.67 123.143 72.313
1.68 127.086 72.909
1.69 126.448 73.581
1.70 125.788 73.835
1.71 126.036 73.966
1.72 126.716 73.994
1.73 127.319 73.840
1.74 127.195 73.466
1.75 125.682 72.664
1.76 123.293 71.068
1.77 118.788 68.158
1.78 100.377 64.101
1.79 --undefined-- 63.993
1.80 --undefined-- 69.354
1.81 133.113 73.296
1.82 125.976 75.268
1.83 124.465 76.217
1.84 122.953 76.681
1.85 121.089 76.765
1.86 120.562 76.598
1.87 119.739 75.885
1.88 118.134 73.866
1.89 103.259 70.692
1.90 117.307 69.873
1.91 121.617 71.720
1.92 119.056 73.094
1.93 118.255 73.780
1.94 117.758 74.064
1.95 116.770 74.172
1.96 116.082 74.479
1.97 109.977 74.917
1.98 108.739 75.081
1.99 106.814 75.002
2.00 105.874 74.699
2.01 105.328 74.141
2.02 103.564 73.328
2.03 101.352 72.165
2.04 100.659 71.322
2.05 101.563 71.549
2.06 101.857 72.010
2.07 102.078 72.264
2.08 102.709 72.325
2.09 102.580 72.269
2.10 103.350 72.251
2.11 104.823 72.185
2.12 104.335 71.562
2.13 101.638 69.867
2.14 98.348 66.703
2.15 109.012 61.991
2.16 128.933 59.190
2.17 --undefined-- 62.389
2.18 --undefined-- 66.629
2.19 132.051 69.837
2.20 125.351 71.266
2.21 125.145 71.525
2.22 111.964 71.753
2.23 108.962 72.482
2.24 103.126 73.305
2.25 92.252 73.555
2.26 88.264 73.483
2.27 80.325 73.492
2.28 79.696 73.326
2.29 79.568 72.683
2.30 76.845 71.733
2.31 75.218 70.497
2.32 74.473 68.272
2.33 91.367 65.196
2.34 100.484 62.002
2.35 106.830 58.410
2.36 --undefined-- 53.640
2.37 --undefined-- 49.598
2.38 --undefined-- 48.654
2.39 --undefined-- 48.490
2.40 --undefined-- 47.976
2.41 --undefined-- 48.617
2.42 --undefined-- 50.591
2.43 --undefined-- 52.395
2.44 --undefined-- 54.089
2.45 --undefined-- 55.071
2.46 --undefined-- 54.156
2.47 --undefined-- 51.945
2.48 --undefined-- 50.717
2.49 --undefined-- 50.304
2.50 --undefined-- 50.054
2.51 --undefined-- 49.790
2.52 --undefined-- 49.353
2.53 --undefined-- 49.347
2.54 --undefined-- 48.999
2.55 --undefined-- 48.059
2.56 --undefined-- 47.172
2.57 --undefined-- 46.666
2.58 --undefined-- 45.832
2.59 --undefined-- 44.285
2.60 --undefined-- 44.882
2.61 --undefined-- 46.872
2.62 --undefined-- 47.571
2.63 --undefined-- 53.662
2.64 --undefined-- 62.566
2.65 --undefined-- 67.880
2.66 137.533 70.506
2.67 145.790 71.781
2.68 145.576 72.373
2.69 145.153 71.968
2.70 142.099 69.777
2.71 130.473 65.975
2.72 145.892 65.653
2.73 166.250 70.131
2.74 153.570 74.020
2.75 148.323 75.924
2.76 144.997 76.421
2.77 142.313 76.497
2.78 138.524 76.633
2.79 134.758 76.923
2.80 132.330 77.101
2.81 129.292 76.745
2.82 124.030 75.961
2.83 119.644 75.569
2.84 117.487 75.750
2.85 114.678 76.039
2.86 112.448 76.148
2.87 111.351 75.881
2.88 111.882 75.112
2.89 110.133 74.187
2.90 111.852 74.148
2.91 115.920 75.389
2.92 117.724 76.646
2.93 115.326 76.956
2.94 113.601 76.835
2.95 111.861 76.766
2.96 111.035 76.546
2.97 110.782 76.232
2.98 111.102 75.898
2.99 111.918 75.762
3.00 112.659 75.737
3.01 113.166 75.496
3.02 113.983 75.042
3.03 114.930 74.549
3.04 119.508 74.708
3.05 129.028 75.717
3.06 133.057 76.559
3.07 137.289 76.954
3.08 140.658 77.070
3.09 143.889 76.680
3.10 147.544 75.839
3.11 149.944 75.273
3.12 150.778 75.130
3.13 150.173 74.626
3.14 151.063 73.679
3.15 149.998 72.910
3.16 148.766 72.380
3.17 149.127 71.761
3.18 153.119 72.348
3.19 160.629 74.617
3.20 159.937 76.217
3.21 159.809 76.619
3.22 160.980 76.134
3.23 164.867 75.089
3.24 167.824 73.552
3.25 166.506 71.098
3.26 160.957 67.698
3.27 161.362 64.775
3.28 163.552 63.998
3.29 172.364 66.591
3.30 178.922 71.075
3.31 175.718 74.324
3.32 173.941 75.882
3.33 170.887 76.207
3.34 166.121 75.343
3.35 161.382 72.651
3.36 159.113 67.715
3.37 165.556 61.719
3.38 167.926 57.093
3.39 169.331 53.545
3.40 --undefined-- 50.777
3.41 --undefined-- 53.485
3.42 --undefined-- 58.050
3.43 --undefined-- 63.495
3.44 --undefined-- 70.334
3.45 157.524 74.717
3.46 150.246 76.475
3.47 140.773 76.632
3.48 135.408 76.392
3.49 132.729 76.056
3.50 130.635 75.305
3.51 130.301 74.147
3.52 129.241 72.154
3.53 126.441 68.549
3.54 134.374 63.235
3.55 130.444 57.914
3.56 127.858 54.792
3.57 128.811 52.220
3.58 --undefined-- 49.114
3.59 --undefined-- 47.377
3.60 --undefined-- 48.220
3.61 --undefined-- 48.819
3.62 --undefined-- 48.753
3.63 --undefined-- 53.083
3.64 --undefined-- 59.754
3.65 --undefined-- 65.584
3.66 --undefined-- 70.963
3.67 159.259 74.222
3.68 156.620 75.348
3.69 154.840 75.411
3.70 153.110 75.206
3.71 150.643 74.839
3.72 149.566 74.410
3.73 148.824 74.171
3.74 148.803 74.225
3.75 149.264 74.242
3.76 149.397 73.884
3.77 150.375 73.706
3.78 151.174 74.349
3.79 152.529 75.308
3.80 150.724 75.743
3.81 148.189 75.567
3.82 146.517 75.218
3.83 146.185 74.874
3.84 148.496 74.759
3.85 149.460 74.465
3.86 148.198 73.137
3.87 148.804 70.392
3.88 147.864 65.775
3.89 147.218 59.189
3.90 --undefined-- 54.352
3.91 --undefined-- 53.893
3.92 --undefined-- 53.547
3.93 --undefined-- 53.104
3.94 --undefined-- 53.085
3.95 --undefined-- 52.843
3.96 --undefined-- 52.680
3.97 --undefined-- 58.938
3.98 204.917 66.849
3.99 195.876 71.433
4.00 193.205 73.423
4.01 193.493 73.998
4.02 192.121 73.968
4.03 189.025 73.531
4.04 183.115 72.866
4.05 177.713 72.508
4.06 176.728 73.278
4.07 180.789 74.646
4.08 180.332 75.479
4.09 177.618 75.697
4.10 174.876 75.633
4.11 172.202 75.105
4.12 168.531 73.306
4.13 163.427 69.460
4.14 157.454 63.089
4.15 172.209 57.511
4.16 171.669 56.800
4.17 173.753 56.977
4.18 174.113 62.857
4.19 180.205 69.826
4.20 154.999 73.780
4.21 143.710 75.377
4.22 137.995 75.749
4.23 127.500 75.979
4.24 126.224 76.247
4.25 120.800 76.223
4.26 116.834 76.307
4.27 112.043 76.531
4.28 109.742 76.788
4.29 109.252 76.949
4.30 109.522 76.789
4.31 107.213 76.312
4.32 104.740 75.041
4.33 102.536 72.535
4.34 100.797 69.534
4.35 100.846 67.521
4.36 99.222 66.693
4.37 97.914 66.274
4.38 98.579 66.874
4.39 98.884 69.458
4.40 99.719 72.561
4.41 97.692 74.465
4.42 97.371 75.043
4.43 96.260 74.921
4.44 96.175 74.474
4.45 98.291 73.957
4.46 101.791 73.625
4.47 100.948 73.530
4.48 99.897 73.538
4.49 100.122 73.321
4.50 100.693 72.781
4.51 100.588 72.091
4.52 100.366 71.516
4.53 101.796 71.090
4.54 104.333 70.839
4.55 108.928 71.080
4.56 116.196 72.181
4.57 127.452 73.878
4.58 135.285 75.138
4.59 139.124 75.565
4.60 143.480 75.910
4.61 147.865 76.266
4.62 149.444 75.875
4.63 146.842 74.432
4.64 --undefined-- 71.785
4.65 --undefined-- 68.136
4.66 --undefined-- 64.318
4.67 --undefined-- 61.529
4.68 --undefined-- 59.347
4.69 --undefined-- 60.714
4.70 --undefined-- 63.283
4.71 89.809 65.712
4.72 93.297 68.841
4.73 103.223 71.880
4.74 103.989 73.335
4.75 94.181 73.358
4.76 100.550 72.878
4.77 95.233 71.981
4.78 93.738 70.487
4.79 94.172 69.202
4.80 96.735 69.198
4.81 96.227 69.559
4.82 96.053 69.740
4.83 100.006 70.081
4.84 99.244 70.513
4.85 99.425 70.965
4.86 100.440 71.338
4.87 100.484 71.467
4.88 101.078 71.479
4.89 102.372 71.577
4.90 103.245 71.691
4.91 103.290 71.664
4.92 104.178 71.160
4.93 104.516 69.597
4.94 102.600 66.709
4.95 100.905 62.935
4.96 118.253 59.215
4.97 --undefined-- 54.945
4.98 --undefined-- 49.953
4.99 --undefined-- 52.642
5.00 --undefined-- 59.975
5.01 --undefined-- 65.570
5.02 --undefined-- --undefined--
5.03 --undefined-- --undefined--
5.04 --undefined-- --undefined--
5.05 --undefined-- --undefined--
