Time Pitch Intensity
0.01 --undefined-- --undefined--
0.02 --undefined-- --undefined--
0.03 --undefined-- --undefined--
0.04 --undefined-- --undefined--
0.05 --undefined-- 53.980
0.06 --undefined-- 55.923
0.07 --undefined-- 61.596
0.08 --undefined-- 67.612
0.09 112.405 70.688
0.10 128.182 71.846
0.11 119.248 71.987
0.12 113.351 70.861
0.13 107.457 67.655
0.14 98.291 62.076
0.15 --undefined-- 55.854
0.16 --undefined-- 52.225
0.17 --undefined-- 48.773
0.18 --undefined-- 45.902
0.19 --undefined-- 45.986
0.20 --undefined-- 46.853
0.21 --undefined-- 49.068
0.22 --undefined-- 56.822
0.23 --undefined-- 67.184
0.24 199.591 73.976
0.25 187.728 77.328
0.26 182.180 78.409
0.27 179.461 78.264
0.28 179.238 77.470
0.29 179.308 76.726
0.30 183.943 76.590
0.31 183.826 76.629
0.32 184.286 76.757
0.33 184.308 76.960
0.34 184.537 77.099
0.35 185.007 77.170
0.36 185.920 77.257
0.37 187.072 77.376
0.38 188.251 77.488
0.39 189.354 77.571
0.40 190.257 77.573
0.41 191.408 77.474
0.42 192.442 77.321
0.43 192.355 77.078
0.44 189.819 76.599
0.45 186.460 75.915
0.46 183.315 75.185
0.47 180.308 74.477
0.48 177.946 73.708
0.49 174.830 72.601
0.50 171.946 70.856
0.51 169.879 68.119
0.52 167.493 64.063
0.53 --undefined-- 58.293
0.54 --undefined-- 51.958
0.55 --undefined-- 46.916
0.56 --undefined-- 41.443
0.57 --undefined-- 39.283
0.58 --undefined-- 40.868
0.59 --undefined-- 41.370
0.60 --undefined-- 40.500
0.61 --undefined-- 40.735
0.62 --undefined-- 42.560
0.63 --undefined-- 44.580
0.64 --undefined-- 49.347
0.65 --undefined-- 55.841
0.66 --undefined-- 59.423
0.67 --undefined-- 59.537
0.68 --undefined-- 57.624
0.69 --undefined-- 56.858
0.70 --undefined-- 56.286
0.71 --undefined-- 57.042
0.72 --undefined-- 62.204
0.73 107.200 66.583
0.74 105.463 69.383
0.75 100.011 70.954
0.76 93.968 71.445
0.77 91.187 71.059
0.78 89.227 70.108
0.79 89.176 69.225
0.80 90.415 69.024
0.81 93.677 68.921
0.82 94.945 67.808
0.83 95.380 65.451
0.84 103.735 62.473
0.85 105.765 59.071
0.86 --undefined-- 55.065
0.87 --undefined-- 53.915
0.88 --undefined-- 58.266
0.89 --undefined-- 65.025
0.90 --undefined-- 70.984
0.91 120.601 74.473
0.92 115.530 75.811
0.93 112.007 75.793
0.94 111.382 75.454
0.95 112.136 75.627
0.96 114.194 76.151
0.97 114.855 76.524
0.98 115.447 76.614
0.99 116.113 76.445
1.00 116.476 75.968
1.01 115.681 75.010
1.02 114.496 73.405
1.03 112.768 71.110
1.04 109.210 68.059
1.05 103.019 64.243
1.06 97.367 61.709
1.07 --undefined-- 62.213
1.08 --undefined-- 63.128
1.09 --undefined-- 65.538
1.10 --undefined-- 71.245
1.11 126.238 74.806
1.12 124.671 75.902
1.13 122.562 76.050
1.14 118.599 76.263
1.15 116.081 76.371
1.16 117.885 76.168
1.17 118.022 75.559
1.18 117.212 74.325
1.19 116.103 72.068
1.20 113.941 68.395
1.21 106.115 63.247
1.22 97.735 57.601
1.23 --undefined-- 53.587
1.24 --undefined-- 51.862
1.25 --undefined-- 51.902
1.26 --undefined-- 56.228
1.27 --undefined-- 66.832
1.28 220.177 74.975
1.29 205.397 79.562
1.30 189.653 81.518
1.31 186.902 81.951
1.32 190.340 81.795
1.33 194.151 81.426
1.34 195.570 80.732
1.35 194.788 79.532
1.36 192.967 77.811
1.37 182.729 75.476
1.38 179.366 71.851
1.39 --undefined-- 65.877
1.40 --undefined-- 57.329
1.41 --undefined-- 51.630
1.42 --undefined-- 50.416
1.43 --undefined-- 50.478
1.44 --undefined-- 51.694
1.45 --undefined-- 52.503
1.46 --undefined-- 52.556
1.47 --undefined-- 52.644
1.48 --undefined-- 52.757
1.49 --undefined-- 52.390
1.50 --undefined-- 51.712
1.51 --undefined-- 51.451
1.52 --undefined-- 51.286
1.53 --undefined-- 50.682
1.54 --undefined-- 49.976
1.55 --undefined-- 49.601
1.56 --undefined-- 49.731
1.57 --undefined-- 50.222
1.58 --undefined-- 50.021
1.59 --undefined-- 48.176
1.60 --undefined-- 46.471
1.61 --undefined-- 45.878
1.62 --undefined-- 44.471
1.63 --undefined-- 53.793
1.64 --undefined-- 64.763
1.65 --undefined-- 71.714
1.66 148.367 75.990
1.67 140.980 78.367
1.68 128.951 79.199
1.69 126.105 78.825
1.70 122.266 77.498
1.71 120.802 75.932
1.72 121.145 75.081
1.73 121.724 74.605
1.74 122.471 74.004
1.75 121.775 73.360
1.76 120.787 72.895
1.77 120.537 72.876
1.78 122.274 73.418
1.79 123.969 74.192
1.80 124.908 75.021
1.81 124.817 75.738
1.82 124.306 76.201
1.83 124.259 76.308
1.84 124.217 76.045
1.85 124.273 75.520
1.86 123.986 74.941
1.87 124.711 74.448
1.88 126.150 74.017
1.89 126.411 73.630
1.90 129.226 73.439
1.91 130.331 73.440
1.92 131.772 73.496
1.93 133.336 73.607
1.94 133.561 73.860
1.95 133.613 74.345
1.96 135.383 75.156
1.97 137.244 75.925
1.98 130.918 76.230
1.99 130.716 76.291
2.00 129.542 76.275
2.01 128.445 76.148
2.02 127.503 76.043
2.03 126.500 75.895
2.04 125.737 75.433
2.05 123.967 74.531
2.06 119.007 73.475
2.07 122.963 72.979
2.08 122.176 73.006
2.09 119.705 72.955
2.10 116.225 72.862
2.11 112.343 72.776
2.12 109.417 72.632
2.13 107.969 72.385
2.14 107.226 71.966
2.15 107.471 71.418
2.16 111.617 70.910
2.17 112.705 70.192
2.18 113.859 68.825
2.19 114.650 66.844
2.20 115.348 64.271
2.21 115.163 61.356
2.22 120.233 60.012
2.23 --undefined-- 63.761
2.24 156.502 69.603
2.25 154.647 73.654
2.26 152.385 75.609
2.27 144.245 76.128
2.28 143.166 76.307
2.29 144.680 76.668
2.30 145.270 76.865
2.31 146.366 76.830
2.32 147.501 77.078
2.33 149.076 77.560
2.34 152.224 77.856
2.35 153.998 77.881
2.36 152.843 77.668
2.37 152.956 77.320
2.38 152.887 76.804
2.39 151.985 75.619
2.40 150.395 73.067
2.41 139.309 68.877
2.42 --undefined-- 63.624
2.43 --undefined-- 58.716
2.44 --undefined-- 56.243
2.45 --undefined-- 56.772
2.46 --undefined-- 60.284
2.47 --undefined-- 63.918
2.48 --undefined-- 65.337
2.49 --undefined-- 64.245
2.50 --undefined-- 61.202
2.51 --undefined-- 59.164
2.52 145.095 65.639
2.53 148.875 71.918
2.54 144.105 75.306
2.55 138.098 76.566
2.56 139.725 76.872
2.57 141.969 77.094
2.58 143.475 77.327
2.59 146.942 77.428
2.60 150.169 77.387
2.61 152.616 76.712
2.62 152.657 74.593
2.63 149.423 70.922
2.64 158.005 66.683
2.65 --undefined-- 64.226
2.66 --undefined-- 69.526
2.67 236.263 76.767
2.68 223.506 80.950
2.69 217.175 82.362
2.70 216.743 82.175
2.71 219.020 81.435
2.72 217.648 80.131
2.73 211.977 77.651
2.74 205.297 73.499
2.75 205.646 68.423
2.76 215.653 64.963
2.77 216.636 61.442
2.78 --undefined-- 55.266
2.79 --undefined-- 47.593
2.80 --undefined-- 43.729
2.81 --undefined-- 41.996
2.82 --undefined-- 40.524
2.83 --undefined-- 41.466
2.84 --undefined-- 47.836
2.85 --undefined-- 53.745
2.86 --undefined-- 57.223
2.87 --undefined-- 58.352
2.88 --undefined-- 58.953
2.89 --undefined-- 65.243
2.90 210.277 72.490
2.91 205.009 76.925
2.92 200.138 78.923
2.93 197.117 79.467
2.94 195.708 79.521
2.95 196.011 79.538
2.96 198.920 79.274
2.97 198.443 77.878
2.98 194.222 75.028
2.99 192.088 72.611
3.00 190.402 72.686
3.01 187.853 74.022
3.02 182.907 75.427
3.03 176.127 76.376
3.04 167.209 76.717
3.05 159.979 76.632
3.06 153.666 76.421
3.07 147.771 76.041
3.08 139.781 75.451
3.09 133.039 75.031
3.10 128.744 75.038
3.11 124.178 75.130
3.12 121.954 74.905
3.13 117.310 74.245
3.14 116.684 73.315
3.15 115.044 72.688
3.16 114.221 72.892
3.17 114.798 73.902
3.18 118.892 75.336
3.19 119.040 76.621
3.20 117.735 77.168
3.21 116.967 76.972
3.22 118.758 76.512
3.23 121.679 75.857
3.24 124.384 74.909
3.25 129.935 74.135
3.26 132.659 73.867
3.27 136.594 73.677
3.28 138.648 73.326
3.29 138.932 72.627
3.30 136.768 71.308
3.31 133.500 69.667
3.32 130.417 69.423
3.33 149.978 72.367
3.34 143.318 75.484
3.35 139.437 77.084
3.36 130.864 77.438
3.37 122.392 77.213
3.38 120.504 76.760
3.39 117.574 75.520
3.40 113.532 72.642
3.41 109.279 68.083
3.42 89.825 63.707
3.43 --undefined-- 62.280
3.44 --undefined-- 62.066
3.45 --undefined-- 61.593
3.46 --undefined-- 64.843
3.47 118.310 69.600
3.48 104.421 72.069
3.49 98.862 72.416
3.50 95.717 71.610
3.51 89.275 70.466
3.52 86.730 68.970
3.53 85.397 67.041
3.54 86.387 65.305
3.55 88.214 64.186
3.56 90.012 63.447
3.57 91.327 63.051
3.58 93.207 63.322
3.59 93.233 64.205
3.60 94.837 65.366
3.61 97.168 66.437
3.62 96.440 67.506
3.63 101.481 68.852
3.64 101.297 70.127
3.65 102.377 70.954
3.66 103.282 71.335
3.67 104.517 71.608
3.68 107.221 72.173
3.69 107.017 73.220
3.70 107.227 74.473
3.71 109.773 75.567
3.72 109.606 76.204
3.73 113.241 76.685
3.74 112.664 77.370
3.75 112.514 78.215
3.76 112.984 78.919
3.77 113.453 79.135
3.78 115.133 78.815
3.79 114.703 78.032
3.80 114.240 76.596
3.81 113.891 74.104
3.82 101.571 70.508
3.83 92.395 66.041
3.84 96.814 60.478
3.85 --undefined-- 54.486
3.86 --undefined-- 50.832
3.87 --undefined-- 49.465
3.88 --undefined-- 48.755
3.89 --undefined-- 48.454
3.90 --undefined-- 49.154
3.91 --undefined-- 49.097
3.92 --undefined-- 47.709
3.93 --undefined-- 46.634
3.94 --undefined-- 45.547
3.95 --undefined-- 43.455
3.96 --undefined-- 42.328
3.97 --undefined-- 43.214
3.98 --undefined-- 43.485
3.99 --undefined-- 42.524
4.00 --undefined-- 40.945
4.01 --undefined-- 38.494
4.02 --undefined-- 37.387
4.03 --undefined-- 39.355
4.04 --undefined-- 40.621
4.05 --undefined-- 40.419
4.06 --undefined-- 40.057
4.07 --undefined-- 40.855
4.08 --undefined-- 41.997
4.09 --undefined-- 43.231
4.10 --undefined-- 43.758
4.11 --undefined-- 43.827
4.12 --undefined-- 44.903
4.13 --undefined-- 46.184
4.14 --undefined-- 50.075
4.15 --undefined-- 55.054
4.16 --undefined-- 62.070
4.17 --undefined-- 68.682
4.18 --undefined-- 72.713
4.19 118.824 74.369
4.20 114.036 74.659
4.21 111.810 74.675
4.22 115.997 74.726
4.23 117.278 74.450
4.24 121.112 73.928
4.25 124.503 73.272
4.26 123.184 72.387
4.27 121.378 71.319
4.28 120.068 69.623
4.29 117.494 66.929
4.30 109.893 64.267
4.31 134.216 64.003
4.32 154.184 67.763
4.33 145.078 71.937
4.34 141.491 75.296
4.35 135.350 77.835
4.36 128.814 79.150
4.37 123.847 79.106
4.38 118.174 78.185
4.39 119.948 77.299
4.40 122.991 76.741
4.41 125.980 76.227
4.42 127.560 75.536
4.43 126.024 74.326
4.44 123.085 72.244
4.45 119.624 69.081
4.46 119.515 65.601
4.47 127.815 65.464
4.48 134.312 69.279
4.49 134.661 72.890
4.50 133.614 75.047
4.51 125.268 75.834
4.52 119.333 75.712
4.53 114.589 75.155
4.54 112.566 74.606
4.55 110.900 74.035
4.56 109.438 73.292
4.57 109.043 72.566
4.58 109.821 71.974
4.59 111.249 71.886
4.60 110.731 72.314
4.61 109.420 72.804
4.62 108.856 73.269
4.63 109.411 73.952
4.64 110.135 74.798
4.65 110.117 75.372
4.66 112.133 75.684
4.67 113.197 75.808
4.68 113.511 75.665
4.69 113.755 75.479
4.70 115.975 75.583
4.71 118.414 75.954
4.72 119.116 76.363
4.73 116.640 76.487
4.74 115.751 76.208
4.75 113.091 75.638
4.76 112.989 74.908
4.77 114.196 73.859
4.78 114.389 72.090
4.79 110.304 69.310
4.80 112.423 65.757
4.81 112.298 61.669
4.82 --undefined-- 58.473
4.83 --undefined-- 62.129
4.84 --undefined-- 67.310
4.85 --undefined-- 71.412
4.86 113.784 73.477
4.87 110.317 73.968
4.88 109.162 74.141
4.89 112.009 74.675
4.90 112.788 74.985
4.91 113.766 74.698
4.92 116.965 74.273
4.93 117.764 73.993
4.94 118.514 73.546
4.95 120.087 72.833
4.96 121.685 72.386
4.97 123.010 72.381
4.98 124.053 72.354
4.99 125.073 72.027
5.00 125.450 71.520
5.01 124.889 71.106
5.02 123.444 70.724
5.03 121.421 70.509
5.04 116.197 70.777
5.05 114.374 71.411
5.06 111.233 72.212
5.07 110.208 72.917
5.08 110.536 73.327
5.09 108.570 73.466
5.10 106.732 73.249
5.11 105.833 72.559
5.12 106.652 71.863
5.13 104.988 71.781
5.14 102.391 72.219
5.15 101.943 72.494
5.16 101.932 72.330
5.17 101.537 72.044
5.18 100.540 71.733
5.19 102.995 71.104
5.20 103.444 69.335
5.21 100.818 65.684
5.22 --undefined-- 60.765
5.23 --undefined-- 58.153
5.24 --undefined-- 60.618
5.25 --undefined-- 63.892
5.26 --undefined-- 65.770
5.27 --undefined-- 68.903
5.28 125.427 --undefined--
5.29 128.891 --undefined--
5.30 --undefined-- --undefined--
5.31 --undefined-- --undefined--
