Time Pitch Intensity
0.01 --undefined-- --undefined--
0.02 105.482 --undefined--
0.03 94.372 --undefined--
0.04 105.101 --undefined--
0.05 100.990 74.942
0.06 100.205 75.373
0.07 100.998 76.010
0.08 101.314 76.552
0.09 100.531 76.949
0.10 100.361 77.186
0.11 100.872 77.227
0.12 101.553 76.858
0.13 98.989 75.512
0.14 95.258 72.763
0.15 96.056 68.441
0.16 --undefined-- 62.516
0.17 --undefined-- 57.930
0.18 --undefined-- 66.057
0.19 --undefined-- 73.214
0.20 --undefined-- 76.728
0.21 122.154 77.524
0.22 124.827 77.382
0.23 125.866 77.294
0.24 127.575 77.110
0.25 129.603 77.042
0.26 131.522 77.340
0.27 132.411 77.659
0.28 132.915 77.715
0.29 133.601 77.475
0.30 133.435 76.931
0.31 132.378 75.926
0.32 129.229 73.838
0.33 121.955 70.191
0.34 126.608 65.384
0.35 136.685 60.790
0.36 132.408 57.134
0.37 130.577 53.358
0.38 --undefined-- 50.128
0.39 --undefined-- 49.032
0.40 --undefined-- 57.213
0.41 --undefined-- 66.006
0.42 --undefined-- 70.608
0.43 --undefined-- 73.204
0.44 --undefined-- 75.864
0.45 163.848 77.347
0.46 164.140 77.584
0.47 163.912 77.553
0.48 163.515 77.621
0.49 162.964 77.692
0.50 161.764 77.728
0.51 160.282 77.754
0.52 159.806 77.823
0.53 159.733 77.979
0.54 159.902 78.185
0.55 160.556 78.328
0.56 161.495 78.356
0.57 162.297 78.313
0.58 163.541 78.283
0.59 164.333 78.287
0.60 164.904 78.299
0.61 166.013 78.222
0.62 167.827 77.954
0.63 167.915 77.301
0.64 166.261 75.520
0.65 161.576 71.720
0.66 163.976 65.797
0.67 165.071 59.766
0.68 167.889 56.443
0.69 167.432 54.124
0.70 166.398 57.003
0.71 --undefined-- 65.295
0.72 --undefined-- 70.448
0.73 --undefined-- 72.119
0.74 --undefined-- 70.673
0.75 --undefined-- 67.364
0.76 --undefined-- 65.923
0.77 --undefined-- 66.919
0.78 --undefined-- 69.151
0.79 --undefined-- 70.686
0.80 --undefined-- 72.532
0.81 156.458 75.721
0.82 134.625 77.639
0.83 122.568 77.903
0.84 121.257 77.555
0.85 114.157 77.232
0.86 113.989 77.053
0.87 112.580 76.904
0.88 113.215 76.713
0.89 113.991 76.770
0.90 114.176 77.305
0.91 112.560 77.511
0.92 110.712 77.139
0.93 110.419 76.916
0.94 111.478 77.224
0.95 113.379 77.871
0.96 115.685 78.495
0.97 116.909 78.772
0.98 116.795 78.735
0.99 115.749 78.524
1.00 114.626 78.237
1.01 112.130 77.891
1.02 108.884 77.352
1.03 107.080 76.768
1.04 106.944 76.129
1.05 106.679 74.898
1.06 104.267 72.275
1.07 108.257 67.526
1.08 112.573 60.419
1.09 --undefined-- 54.473
1.10 --undefined-- 53.723
1.11 --undefined-- 55.044
1.12 --undefined-- 56.596
1.13 --undefined-- 57.849
1.14 --undefined-- 59.428
1.15 --undefined-- 60.215
1.16 --undefined-- 59.644
1.17 --undefined-- 58.867
1.18 --undefined-- 58.545
1.19 --undefined-- 58.006
1.20 --undefined-- 57.112
1.21 --undefined-- 56.369
1.22 --undefined-- 55.608
1.23 --undefined-- 54.694
1.24 --undefined-- 54.385
1.25 --undefined-- 53.996
1.26 --undefined-- 53.474
1.27 --undefined-- 53.087
1.28 --undefined-- 52.750
1.29 --undefined-- 53.078
1.30 --undefined-- 54.727
1.31 --undefined-- 56.733
1.32 --undefined-- 57.216
1.33 --undefined-- 55.201
1.34 --undefined-- 50.814
1.35 --undefined-- 46.668
1.36 --undefined-- 45.657
1.37 --undefined-- 44.356
1.38 --undefined-- 41.979
1.39 --undefined-- 42.044
1.40 --undefined-- 56.522
1.41 --undefined-- 67.734
1.42 --undefined-- 74.127
1.43 178.095 76.905
1.44 176.191 77.485
1.45 177.245 77.720
1.46 178.620 78.172
1.47 180.223 78.532
1.48 182.362 78.734
1.49 184.853 78.532
1.50 187.443 77.795
1.51 188.294 76.728
1.52 186.925 75.580
1.53 184.279 73.982
1.54 181.501 70.968
1.55 --undefined-- 66.734
1.56 --undefined-- 64.722
1.57 --undefined-- 64.607
1.58 --undefined-- 65.038
1.59 --undefined-- 65.839
1.60 --undefined-- 65.121
1.61 --undefined-- 62.730
1.62 --undefined-- 59.480
1.63 --undefined-- 58.266
1.64 --undefined-- 59.983
1.65 --undefined-- 61.006
1.66 --undefined-- 61.712
1.67 --undefined-- 62.783
1.68 --undefined-- 63.540
1.69 --undefined-- 64.483
1.70 --undefined-- 66.406
1.71 --undefined-- 68.156
1.72 --undefined-- 68.561
1.73 --undefined-- 67.836
1.74 --undefined-- 68.683
1.75 --undefined-- 73.117
1.76 147.473 76.285
1.77 130.708 76.946
1.78 114.381 76.327
1.79 102.074 76.044
1.80 95.058 76.051
1.81 98.200 75.954
1.82 95.867 75.842
1.83 95.496 75.789
1.84 91.994 75.602
1.85 88.099 75.253
1.86 87.298 74.992
1.87 87.143 74.746
1.88 89.056 74.345
1.89 91.293 73.724
1.90 91.925 72.292
1.91 --undefined-- 68.989
1.92 --undefined-- 62.982
1.93 --undefined-- 54.787
1.94 --undefined-- 49.984
1.95 --undefined-- 48.327
1.96 --undefined-- 47.658
1.97 --undefined-- 48.299
1.98 --undefined-- 49.516
1.99 --undefined-- 56.139
2.00 --undefined-- 65.158
2.01 --undefined-- 71.958
2.02 140.089 75.471
2.03 132.903 76.533
2.04 131.737 76.652
2.05 133.903 77.030
2.06 135.480 77.353
2.07 136.477 77.477
2.08 142.216 77.686
2.09 143.608 77.682
2.10 144.147 77.593
2.11 144.208 77.677
2.12 144.815 77.847
2.13 145.421 77.953
2.14 145.603 77.917
2.15 145.413 77.777
2.16 144.751 77.546
2.17 143.681 77.156
2.18 142.414 76.480
2.19 140.827 75.288
2.20 138.191 72.912
2.21 124.662 68.620
2.22 140.927 62.898
2.23 143.941 58.982
2.24 --undefined-- 61.487
2.25 --undefined-- 66.947
2.26 --undefined-- 71.704
2.27 154.484 75.198
2.28 149.741 76.519
2.29 143.046 76.075
2.30 140.106 74.766
2.31 137.072 73.038
2.32 141.921 72.760
2.33 153.770 74.702
2.34 155.713 76.346
2.35 156.326 76.965
2.36 156.197 77.050
2.37 155.080 76.947
2.38 150.963 76.614
2.39 145.309 76.051
2.40 141.002 75.678
2.41 136.625 75.679
2.42 132.487 75.854
2.43 126.513 75.873
2.44 121.836 74.954
2.45 119.018 72.199
2.46 122.711 67.297
2.47 125.283 61.359
2.48 124.305 57.764
2.49 128.382 56.766
2.50 129.487 56.253
2.51 --undefined-- 57.997
2.52 --undefined-- 61.915
2.53 --undefined-- 64.696
2.54 --undefined-- 65.830
2.55 --undefined-- 65.831
2.56 --undefined-- 65.027
2.57 --undefined-- 64.379
2.58 --undefined-- 68.420
2.59 --undefined-- 73.682
2.60 126.434 76.485
2.61 121.398 77.311
2.62 120.309 77.385
2.63 122.795 77.598
2.64 128.420 78.040
2.65 135.966 78.435
2.66 145.006 78.478
2.67 155.353 77.893
2.68 168.480 76.813
2.69 178.593 75.897
2.70 186.283 75.633
2.71 189.655 76.001
2.72 190.765 76.265
2.73 190.197 76.305
2.74 187.966 76.432
2.75 184.527 76.713
2.76 179.226 77.216
2.77 174.435 77.955
2.78 170.344 78.521
2.79 163.272 78.525
2.80 155.542 78.079
2.81 149.079 77.543
2.82 142.629 77.261
2.83 136.253 77.142
2.84 130.090 76.940
2.85 124.902 77.020
2.86 123.065 77.323
2.87 123.588 77.168
2.88 123.185 75.821
2.89 121.304 72.641
2.90 122.793 67.756
2.91 --undefined-- 64.488
2.92 --undefined-- 64.954
2.93 --undefined-- 65.812
2.94 --undefined-- 66.348
2.95 --undefined-- 66.755
2.96 --undefined-- 68.906
2.97 143.468 73.349
2.98 146.640 76.521
2.99 124.623 77.416
3.00 112.206 77.073
3.01 108.158 76.884
3.02 106.669 76.866
3.03 103.665 76.736
3.04 103.365 76.542
3.05 105.487 76.431
3.06 106.334 76.333
3.07 108.406 75.943
3.08 106.348 75.086
3.09 104.115 73.642
3.10 103.132 71.624
3.11 106.711 68.948
3.12 123.151 65.142
3.13 104.539 59.731
3.14 104.380 53.940
3.15 --undefined-- 50.404
3.16 --undefined-- 48.094
3.17 --undefined-- 46.130
3.18 --undefined-- 48.904
3.19 --undefined-- 55.156
3.20 --undefined-- 60.535
3.21 --undefined-- 67.169
3.22 --undefined-- 73.101
3.23 181.230 75.891
3.24 170.803 76.201
3.25 161.539 75.926
3.26 155.725 75.870
3.27 151.996 75.629
3.28 150.644 74.749
3.29 148.383 73.029
3.30 149.121 72.286
3.31 156.862 74.003
3.32 158.208 75.949
3.33 156.903 76.991
3.34 156.521 77.351
3.35 156.222 77.387
3.36 155.848 77.336
3.37 155.144 77.249
3.38 154.292 77.142
3.39 154.191 77.049
3.40 154.681 76.957
3.41 155.073 76.855
3.42 155.106 76.801
3.43 155.082 76.870
3.44 154.624 76.905
3.45 153.528 76.731
3.46 151.754 76.271
3.47 148.319 75.172
3.48 142.694 72.823
3.49 135.857 68.851
3.50 154.536 64.825
3.51 --undefined-- 68.326
3.52 --undefined-- 73.856
3.53 --undefined-- 76.454
3.54 132.689 76.746
3.55 125.950 76.671
3.56 122.542 77.291
3.57 120.832 77.813
3.58 119.698 77.659
3.59 119.192 76.889
3.60 119.700 76.153
3.61 120.235 75.779
3.62 121.249 75.346
3.63 122.182 74.882
3.64 123.693 75.107
3.65 130.626 76.286
3.66 138.059 77.241
3.67 141.238 77.449
3.68 143.181 77.340
3.69 145.282 77.103
3.70 146.162 76.554
3.71 143.732 75.394
3.72 139.698 73.546
3.73 138.015 72.248
3.74 140.044 73.904
3.75 141.621 76.287
3.76 138.920 77.325
3.77 133.552 77.273
3.78 126.391 76.927
3.79 121.870 76.177
3.80 121.430 74.212
3.81 120.403 70.634
3.82 99.668 65.912
3.83 123.420 61.712
3.84 126.152 59.801
3.85 125.391 58.516
3.86 --undefined-- 57.222
3.87 --undefined-- 56.930
3.88 --undefined-- 57.974
3.89 --undefined-- 62.308
3.90 --undefined-- 69.381
3.91 --undefined-- 73.927
3.92 105.293 75.408
3.93 97.169 75.217
3.94 102.794 75.051
3.95 102.490 75.170
3.96 102.741 75.362
3.97 100.485 75.559
3.98 100.731 75.620
3.99 103.483 75.362
4.00 113.686 75.087
4.01 119.376 75.070
4.02 126.013 75.401
4.03 133.906 76.205
4.04 142.058 76.982
4.05 146.451 77.353
4.06 149.901 77.031
4.07 152.641 76.385
4.08 152.693 75.548
4.09 150.535 73.677
4.10 146.709 69.913
4.11 151.163 63.973
4.12 154.929 56.659
4.13 --undefined-- 51.034
4.14 --undefined-- 49.161
4.15 --undefined-- 49.132
4.16 --undefined-- 48.540
4.17 --undefined-- 48.086
4.18 --undefined-- 50.004
4.19 --undefined-- 52.013
4.20 --undefined-- 53.409
4.21 --undefined-- 56.814
4.22 --undefined-- 60.568
4.23 --undefined-- 62.597
4.24 --undefined-- 63.473
4.25 --undefined-- 64.552
4.26 --undefined-- 65.580
4.27 --undefined-- 65.503
4.28 --undefined-- 66.179
4.29 --undefined-- 71.016
4.30 --undefined-- 74.937
4.31 103.328 76.574
4.32 100.403 76.877
4.33 101.184 76.894
4.34 103.453 76.778
4.35 105.966 76.459
4.36 109.488 76.125
4.37 113.243 75.980
4.38 120.862 76.002
4.39 125.589 75.986
4.40 130.552 75.787
4.41 134.933 75.472
4.42 137.651 75.393
4.43 137.868 75.123
4.44 138.982 73.642
4.45 --undefined-- 70.947
4.46 --undefined-- 69.623
4.47 --undefined-- 70.962
4.48 147.204 73.846
4.49 148.960 76.263
4.50 134.060 77.139
4.51 128.362 76.786
4.52 120.595 75.731
4.53 105.106 74.753
4.54 105.062 74.868
4.55 102.131 75.318
4.56 98.758 75.419
4.57 98.193 75.497
4.58 99.186 76.068
4.59 97.630 76.653
4.60 97.027 76.522
4.61 96.898 75.902
4.62 97.791 75.305
4.63 98.732 75.017
4.64 98.782 75.100
4.65 97.400 75.402
4.66 95.373 75.469
4.67 93.540 75.342
4.68 95.155 75.140
4.69 94.969 73.820
4.70 95.760 70.355
4.71 --undefined-- 64.510
4.72 --undefined-- 57.562
4.73 --undefined-- 52.869
4.74 --undefined-- 51.821
4.75 --undefined-- 59.792
4.76 --undefined-- 67.824
4.77 --undefined-- 71.876
4.78 --undefined-- 72.267
4.79 --undefined-- 69.680
4.80 --undefined-- 66.300
4.81 --undefined-- 64.647
4.82 --undefined-- 63.801
4.83 --undefined-- 62.822
4.84 --undefined-- 66.682
4.85 --undefined-- 72.512
4.86 --undefined-- 75.577
4.87 107.894 76.536
4.88 103.487 76.665
4.89 101.749 76.692
4.90 100.333 76.743
4.91 98.780 76.776
4.92 97.586 76.806
4.93 97.546 76.800
4.94 99.168 76.683
4.95 98.890 76.506
4.96 97.816 76.426
4.97 98.026 76.445
4.98 97.455 76.440
4.99 98.294 --undefined--
5.00 97.724 --undefined--
5.01 --undefined-- --undefined--
5.02 --undefined-- --undefined--
