Time Pitch Intensity
0.01 --undefined-- --undefined--
0.02 94.494 --undefined--
0.03 93.607 --undefined--
0.04 94.505 --undefined--
0.05 94.739 61.330
0.06 --undefined-- 59.804
0.07 --undefined-- 56.725
0.08 --undefined-- 51.616
0.09 --undefined-- 44.970
0.10 --undefined-- 40.651
0.11 --undefined-- 39.073
0.12 --undefined-- 42.521
0.13 --undefined-- 55.200
0.14 --undefined-- 62.723
0.15 --undefined-- 65.429
0.16 --undefined-- 64.455
0.17 --undefined-- 63.509
0.18 --undefined-- 66.890
0.19 103.591 69.193
0.20 100.904 69.259
0.21 100.411 68.081
0.22 96.997 66.727
0.23 96.877 64.985
0.24 95.313 62.815
0.25 95.455 61.791
0.26 96.761 62.150
0.27 97.970 62.775
0.28 99.327 63.510
0.29 99.998 64.811
0.30 100.335 65.913
0.31 101.013 66.389
0.32 101.109 66.493
0.33 101.211 65.636
0.34 101.445 63.420
0.35 101.751 61.132
0.36 103.465 60.822
0.37 105.381 61.127
0.38 107.292 61.337
0.39 108.400 61.734
0.40 112.270 62.177
0.41 112.400 62.517
0.42 113.372 62.976
0.43 115.847 63.752
0.44 113.857 65.064
0.45 113.249 66.145
0.46 112.306 66.357
0.47 111.546 65.879
0.48 111.881 65.002
0.49 112.952 64.593
0.50 113.230 64.610
0.51 112.595 64.981
0.52 113.659 66.061
0.53 113.540 66.909
0.54 112.902 66.696
0.55 112.856 65.902
0.56 112.763 65.359
0.57 112.546 64.920
0.58 112.633 64.370
0.59 113.007 64.039
0.60 112.669 63.795
0.61 112.914 63.232
0.62 112.642 62.427
0.63 110.234 61.552
0.64 107.677 60.313
0.65 103.807 58.188
0.66 99.754 54.889
0.67 --undefined-- 50.631
0.68 --undefined-- 46.098
0.69 --undefined-- 41.819
0.70 --undefined-- 41.025
0.71 --undefined-- 42.053
0.72 --undefined-- 42.365
0.73 --undefined-- 42.354
0.74 --undefined-- 42.430
0.75 --undefined-- 43.327
0.76 --undefined-- 43.495
0.77 --undefined-- 42.155
0.78 --undefined-- 41.619
0.79 --undefined-- 41.708
0.80 --undefined-- 41.360
0.81 --undefined-- 41.458
0.82 --undefined-- 41.131
0.83 --undefined-- 39.779
0.84 --undefined-- 39.007
0.85 --undefined-- 39.276
0.86 --undefined-- 39.367
0.87 --undefined-- 39.424
0.88 --undefined-- 44.688
0.89 --undefined-- 57.661
0.90 --undefined-- 65.702
0.91 --undefined-- 69.103
0.92 --undefined-- 69.692
0.93 --undefined-- 69.886
0.94 --undefined-- 69.987
0.95 --undefined-- 69.293
0.96 --undefined-- 67.785
0.97 --undefined-- 65.152
0.98 --undefined-- 60.520
0.99 --undefined-- 54.176
1.00 --undefined-- 47.551
1.01 --undefined-- 44.487
1.02 --undefined-- 44.065
1.03 --undefined-- 44.292
1.04 --undefined-- 45.248
1.05 --undefined-- 45.742
1.06 --undefined-- 45.869
1.07 --undefined-- 47.286
1.08 --undefined-- 48.447
1.09 --undefined-- 48.433
1.10 --undefined-- 48.093
1.11 --undefined-- 47.534
1.12 --undefined-- 46.465
1.13 --undefined-- 44.822
1.14 --undefined-- 42.677
1.15 --undefined-- 40.345
1.16 --undefined-- 38.310
1.17 --undefined-- 37.288
1.18 --undefined-- 37.403
1.19 --undefined-- 37.751
1.20 --undefined-- 38.486
1.21 --undefined-- 45.595
1.22 --undefined-- 54.748
1.23 --undefined-- 61.765
1.24 --undefined-- 66.328
1.25 --undefined-- 69.488
1.26 --undefined-- 72.331
1.27 --undefined-- 73.473
1.28 101.855 72.630
1.29 100.713 70.795
1.30 100.865 68.584
1.31 101.554 66.079
1.32 102.155 63.954
1.33 101.201 62.302
1.34 102.511 60.120
1.35 99.990 57.027
1.36 100.020 53.910
1.37 97.604 52.673
1.38 97.009 53.940
1.39 96.212 56.502
1.40 95.334 59.222
1.41 95.269 61.444
1.42 95.019 62.703
1.43 94.428 62.410
1.44 95.120 60.493
1.45 95.251 58.281
1.46 98.079 57.735
1.47 100.421 58.034
1.48 101.380 57.929
1.49 107.104 57.432
1.50 107.788 56.909
1.51 107.902 56.668
1.52 107.121 56.877
1.53 106.592 57.324
1.54 106.263 57.606
1.55 106.173 58.337
1.56 105.905 61.990
1.57 106.355 66.351
1.58 102.814 68.976
1.59 102.381 70.072
1.60 102.805 70.371
1.61 103.520 70.389
1.62 105.374 70.523
1.63 106.113 70.780
1.64 107.409 70.255
1.65 110.364 68.540
1.66 --undefined-- 66.005
1.67 --undefined-- 61.755
1.68 --undefined-- 57.406
1.69 --undefined-- 57.036
1.70 --undefined-- 56.620
1.71 --undefined-- 56.984
1.72 --undefined-- 57.026
1.73 --undefined-- 56.450
1.74 100.010 57.753
1.75 --undefined-- 61.596
1.76 --undefined-- 64.581
1.77 94.944 66.054
1.78 93.817 66.598
1.79 92.469 66.238
1.80 91.792 65.699
1.81 91.684 65.837
1.82 89.875 65.589
1.83 87.697 64.444
1.84 90.582 62.932
1.85 95.812 61.553
1.86 97.543 61.034
1.87 97.441 61.171
1.88 97.144 61.066
1.89 98.798 60.910
1.90 98.191 60.580
1.91 98.764 59.317
1.92 102.802 58.155
1.93 108.846 59.596
1.94 114.885 62.675
1.95 118.456 66.106
1.96 121.428 69.759
1.97 125.446 72.723
1.98 125.078 73.845
1.99 124.277 73.580
2.00 123.773 73.192
2.01 123.996 73.087
2.02 124.903 73.009
2.03 125.308 72.733
2.04 125.978 72.384
2.05 125.996 71.999
2.06 125.665 71.352
2.07 125.155 70.257
2.08 124.028 68.341
2.09 --undefined-- 64.818
2.10 --undefined-- 58.729
2.11 --undefined-- 49.671
2.12 --undefined-- 47.654
2.13 --undefined-- 54.197
2.14 --undefined-- 59.886
2.15 --undefined-- 65.266
2.16 --undefined-- 69.131
2.17 --undefined-- 70.713
2.18 --undefined-- 70.368
2.19 --undefined-- 68.553
2.20 --undefined-- 65.447
2.21 --undefined-- 60.875
2.22 --undefined-- 54.517
2.23 --undefined-- 46.325
2.24 --undefined-- 40.278
2.25 --undefined-- 38.500
2.26 --undefined-- 40.211
2.27 --undefined-- 51.586
2.28 --undefined-- 58.700
2.29 --undefined-- 61.039
2.30 --undefined-- 59.449
2.31 --undefined-- 58.484
2.32 --undefined-- 62.867
2.33 111.585 65.956
2.34 107.149 67.310
2.35 106.735 68.021
2.36 105.219 68.394
2.37 104.664 68.011
2.38 103.470 66.522
2.39 103.241 63.330
2.40 --undefined-- 57.596
2.41 --undefined-- 49.937
2.42 --undefined-- 45.059
2.43 --undefined-- 41.744
2.44 --undefined-- 40.536
2.45 --undefined-- 50.947
2.46 --undefined-- 60.802
2.47 --undefined-- 67.954
2.48 --undefined-- 72.236
2.49 --undefined-- 73.853
2.50 --undefined-- 73.336
2.51 112.335 71.345
2.52 112.476 69.304
2.53 113.550 68.864
2.54 114.750 69.153
2.55 115.738 68.685
2.56 117.958 67.090
2.57 118.098 64.943
2.58 117.701 61.927
2.59 --undefined-- 56.728
2.60 --undefined-- 49.287
2.61 --undefined-- 43.166
2.62 --undefined-- 44.875
2.63 --undefined-- 57.147
2.64 --undefined-- 64.994
2.65 --undefined-- 68.040
2.66 --undefined-- 67.457
2.67 --undefined-- 67.807
2.68 --undefined-- 70.934
2.69 129.048 72.833
2.70 123.440 72.766
2.71 121.550 71.273
2.72 120.083 69.938
2.73 119.265 69.309
2.74 118.000 68.776
2.75 116.572 67.929
2.76 115.783 65.943
2.77 115.011 62.994
2.78 113.686 61.834
2.79 110.593 63.820
2.80 106.699 67.417
2.81 --undefined-- 69.905
2.82 94.905 70.279
2.83 92.930 69.323
2.84 90.460 68.668
2.85 89.178 68.634
2.86 88.338 68.501
2.87 87.684 67.764
2.88 85.439 66.128
2.89 --undefined-- 63.466
2.90 --undefined-- 59.557
2.91 --undefined-- 54.605
2.92 --undefined-- 52.459
2.93 --undefined-- 52.401
2.94 --undefined-- 52.124
2.95 --undefined-- 52.314
2.96 --undefined-- 53.031
2.97 --undefined-- 57.804
2.98 --undefined-- 66.087
2.99 --undefined-- 70.839
3.00 --undefined-- 72.116
3.01 106.410 71.441
3.02 104.522 70.604
3.03 103.143 69.945
3.04 101.626 68.988
3.05 100.911 67.343
3.06 100.257 64.375
3.07 99.180 59.691
3.08 99.455 54.394
3.09 --undefined-- 50.658
3.10 --undefined-- 48.227
3.11 --undefined-- 45.921
3.12 --undefined-- 44.093
3.13 --undefined-- 48.751
3.14 --undefined-- 56.605
3.15 --undefined-- 63.511
3.16 --undefined-- 68.929
3.17 --undefined-- 71.827
3.18 104.577 72.602
3.19 104.021 72.523
3.20 103.378 72.371
3.21 103.321 71.892
3.22 102.649 70.746
3.23 102.034 69.074
3.24 100.710 67.167
3.25 101.526 64.868
3.26 101.141 61.954
3.27 101.351 58.289
3.28 105.301 55.366
3.29 107.975 56.868
3.30 110.531 61.537
3.31 114.868 66.915
3.32 118.538 71.160
3.33 126.683 73.269
3.34 119.761 73.329
3.35 119.523 72.385
3.36 119.238 71.627
3.37 118.692 71.033
3.38 117.961 70.248
3.39 117.744 69.507
3.40 116.692 68.924
3.41 114.670 68.022
3.42 113.037 66.756
3.43 --undefined-- 66.168
3.44 --undefined-- 65.083
3.45 --undefined-- 62.016
3.46 --undefined-- 59.177
3.47 --undefined-- 59.590
3.48 --undefined-- 61.763
3.49 --undefined-- 63.393
3.50 --undefined-- 65.756
3.51 --undefined-- 69.699
3.52 --undefined-- 71.499
3.53 --undefined-- 70.246
3.54 --undefined-- 65.895
3.55 --undefined-- 57.961
3.56 --undefined-- 45.985
3.57 --undefined-- 39.005
3.58 --undefined-- 37.950
3.59 --undefined-- 37.017
3.60 --undefined-- 39.891
3.61 --undefined-- 46.908
3.62 --undefined-- 51.653
3.63 --undefined-- 55.833
3.64 --undefined-- 60.754
3.65 114.677 64.713
3.66 114.927 67.561
3.67 114.728 70.142
3.68 114.061 72.124
3.69 112.577 72.604
3.70 110.968 71.460
3.71 109.039 68.581
3.72 --undefined-- 63.350
3.73 --undefined-- 54.944
3.74 --undefined-- 43.527
3.75 --undefined-- 38.501
3.76 --undefined-- 37.981
3.77 --undefined-- 37.464
3.78 --undefined-- 37.506
3.79 --undefined-- 37.688
3.80 --undefined-- 37.512
3.81 --undefined-- 38.751
3.82 --undefined-- 44.023
3.83 --undefined-- 51.499
3.84 --undefined-- 59.806
3.85 --undefined-- 64.519
3.86 --undefined-- 65.431
3.87 94.861 63.713
3.88 95.274 61.496
3.89 92.720 60.111
3.90 90.166 59.041
3.91 89.575 57.779
3.92 87.957 56.517
3.93 84.351 55.309
3.94 82.727 54.380
3.95 83.351 53.841
3.96 --undefined-- 53.434
3.97 --undefined-- 53.325
3.98 --undefined-- 53.956
3.99 --undefined-- 55.656
4.00 --undefined-- 57.739
4.01 --undefined-- 58.932
4.02 --undefined-- 58.938
4.03 --undefined-- 58.509
4.04 --undefined-- 58.618
4.05 --undefined-- 59.676
4.06 --undefined-- 60.976
4.07 --undefined-- 61.724
4.08 --undefined-- 61.312
4.09 --undefined-- 60.573
4.10 --undefined-- 62.794
4.11 --undefined-- 65.467
4.12 --undefined-- 65.780
4.13 --undefined-- 63.453
4.14 --undefined-- 60.688
4.15 --undefined-- 59.995
4.16 --undefined-- 59.784
4.17 --undefined-- 60.218
4.18 --undefined-- 59.662
4.19 --undefined-- 56.468
4.20 --undefined-- 50.144
4.21 --undefined-- 42.405
4.22 --undefined-- 40.324
4.23 --undefined-- 48.901
4.24 --undefined-- 57.764
4.25 --undefined-- 62.214
4.26 --undefined-- 64.549
4.27 --undefined-- 67.912
4.28 --undefined-- 70.913
4.29 100.863 72.389
4.30 100.198 72.743
4.31 98.727 72.570
4.32 96.079 72.281
4.33 94.210 71.667
4.34 92.826 70.757
4.35 93.664 70.028
4.36 94.769 69.576
4.37 95.526 69.192
4.38 97.090 68.697
4.39 97.756 68.087
4.40 98.583 67.792
4.41 98.941 68.055
4.42 98.832 68.237
4.43 98.461 67.934
4.44 97.939 67.170
4.45 96.238 66.410
4.46 97.124 65.534
4.47 97.308 63.996
4.48 98.803 62.492
4.49 98.455 60.484
4.50 96.379 56.994
4.51 100.095 53.696
4.52 101.334 52.279
4.53 --undefined-- 51.274
4.54 --undefined-- 49.722
4.55 --undefined-- 47.559
4.56 --undefined-- 46.321
4.57 --undefined-- 45.015
4.58 --undefined-- 42.262
4.59 --undefined-- 40.288
4.60 --undefined-- 40.246
4.61 --undefined-- 40.102
4.62 --undefined-- 40.774
4.63 --undefined-- 42.419
4.64 --undefined-- 43.011
4.65 --undefined-- 42.574
4.66 --undefined-- 41.943
4.67 --undefined-- 41.796
4.68 --undefined-- 41.798
4.69 --undefined-- 41.763
4.70 --undefined-- 41.708
4.71 --undefined-- 41.110
4.72 --undefined-- 45.009
4.73 --undefined-- 54.640
4.74 --undefined-- 60.189
4.75 --undefined-- 62.507
4.76 --undefined-- 64.728
4.77 --undefined-- 67.006
4.78 --undefined-- 67.927
4.79 --undefined-- 68.651
4.80 --undefined-- 69.244
4.81 --undefined-- 69.158
4.82 --undefined-- 67.757
4.83 --undefined-- 64.155
4.84 --undefined-- 58.499
4.85 94.059 53.618
4.86 95.613 54.036
4.87 96.243 55.092
4.88 99.762 55.528
4.89 102.348 55.972
4.90 104.798 56.586
4.91 105.588 57.181
4.92 107.196 57.862
4.93 108.765 58.683
4.94 111.828 59.327
4.95 111.852 60.028
4.96 111.888 60.715
4.97 112.125 60.903
4.98 112.079 60.841
4.99 112.304 60.811
5.00 113.071 60.748
5.01 114.476 60.912
5.02 115.800 61.319
5.03 116.865 61.706
5.04 116.958 61.975
5.05 116.269 62.127
5.06 116.267 62.063
5.07 116.285 61.871
5.08 115.368 61.993
5.09 114.897 62.358
5.10 115.008 62.791
5.11 115.617 63.059
5.12 116.201 62.963
5.13 116.050 62.845
5.14 116.073 62.952
5.15 116.819 63.197
5.16 116.911 63.380
5.17 116.383 63.361
5.18 116.197 63.281
5.19 116.027 63.175
5.20 115.593 63.080
5.21 115.940 63.031
5.22 116.716 62.986
5.23 116.858 62.839
5.24 117.746 62.712
5.25 118.446 62.644
5.26 118.398 62.305
5.27 117.851 61.581
5.28 116.726 60.473
5.29 115.471 58.967
5.30 114.538 57.193
5.31 113.031 55.280
5.32 111.472 53.290
5.33 --undefined-- 50.689
5.34 --undefined-- 47.553
5.35 --undefined-- 44.131
5.36 --undefined-- 40.281
5.37 --undefined-- 37.444
5.38 --undefined-- 36.860
5.39 --undefined-- 36.625
5.40 --undefined-- 36.236
5.41 --undefined-- 35.640
5.42 --undefined-- 34.800
5.43 --undefined-- 34.209
5.44 --undefined-- 35.529
5.45 --undefined-- 39.060
5.46 --undefined-- 42.070
5.47 --undefined-- 42.261
5.48 --undefined-- 40.640
5.49 --undefined-- 39.286
5.50 --undefined-- 40.334
5.51 --undefined-- 46.936
5.52 --undefined-- 50.766
5.53 --undefined-- 51.606
5.54 --undefined-- 58.332
5.55 --undefined-- 64.554
5.56 --undefined-- 66.980
5.57 --undefined-- 67.617
5.58 --undefined-- 69.747
5.59 --undefined-- 72.012
5.60 111.512 72.622
5.61 109.727 71.797
5.62 111.579 71.035
5.63 109.935 70.337
5.64 105.648 68.851
5.65 106.258 66.947
5.66 110.126 65.573
5.67 114.409 65.089
5.68 116.005 64.553
5.69 116.469 62.339
5.70 --undefined-- 57.456
5.71 --undefined-- 49.761
5.72 --undefined-- 42.089
5.73 --undefined-- 46.898
5.74 --undefined-- 57.359
5.75 --undefined-- 63.440
5.76 --undefined-- 65.743
5.77 --undefined-- 65.528
5.78 --undefined-- 66.240
5.79 --undefined-- 69.768
5.80 --undefined-- 71.821
5.81 --undefined-- 71.578
5.82 --undefined-- --undefined--
5.83 --undefined-- --undefined--
5.84 --undefined-- --undefined--
5.85 --undefined-- --undefined--
