Time Pitch Intensity
0.01 --undefined-- --undefined--
0.02 --undefined-- --undefined--
0.03 --undefined-- --undefined--
0.04 --undefined-- --undefined--
0.05 --undefined-- 53.749
0.06 --undefined-- 52.355
0.07 --undefined-- 51.208
0.08 --undefined-- 50.748
0.09 --undefined-- 49.881
0.10 --undefined-- 49.002
0.11 --undefined-- 50.012
0.12 --undefined-- 51.111
0.13 --undefined-- 51.867
0.14 --undefined-- 54.255
0.15 --undefined-- 56.859
0.16 236.362 59.733
0.17 242.794 62.490
0.18 251.452 64.089
0.19 256.445 64.358
0.20 256.079 63.193
0.21 247.448 60.251
0.22 246.595 55.985
0.23 --undefined-- 53.214
0.24 --undefined-- 51.415
0.25 --undefined-- 49.025
0.26 --undefined-- 47.073
0.27 --undefined-- 46.457
0.28 --undefined-- 50.599
0.29 --undefined-- 56.518
0.30 274.817 60.420
0.31 270.568 62.567
0.32 269.534 63.704
0.33 268.254 64.005
0.34 270.466 63.766
0.35 269.720 63.276
0.36 267.781 62.882
0.37 262.685 62.708
0.38 254.830 62.661
0.39 240.578 62.721
0.40 236.393 62.540
0.41 225.825 62.181
0.42 220.140 62.066
0.43 214.846 62.552
0.44 207.597 64.053
0.45 200.095 66.385
0.46 195.434 68.786
0.47 192.306 70.550
0.48 189.880 71.254
0.49 187.319 70.873
0.50 185.067 69.466
0.51 183.740 66.837
0.52 185.790 62.783
0.53 183.541 57.656
0.54 185.002 52.927
0.55 187.838 50.677
0.56 --undefined-- 52.490
0.57 --undefined-- 54.961
0.58 --undefined-- 55.478
0.59 --undefined-- 54.517
0.60 --undefined-- 54.778
0.61 248.128 58.984
0.62 238.877 63.560
0.63 237.217 66.480
0.64 239.055 67.886
0.65 241.505 68.358
0.66 244.460 68.589
0.67 246.422 68.817
0.68 249.304 68.515
0.69 254.404 67.542
0.70 255.428 66.617
0.71 254.777 65.807
0.72 253.101 64.799
0.73 247.835 64.558
0.74 243.721 65.034
0.75 236.795 65.053
0.76 230.663 64.694
0.77 223.469 64.218
0.78 214.204 63.979
0.79 195.307 64.494
0.80 187.504 65.070
0.81 177.909 64.914
0.82 153.972 64.038
0.83 151.795 62.326
0.84 151.992 60.257
0.85 152.627 58.641
0.86 150.916 57.211
0.87 151.214 57.350
0.88 152.284 58.016
0.89 156.580 57.786
0.90 158.615 57.468
0.91 162.319 58.226
0.92 167.021 58.598
0.93 172.376 58.120
0.94 180.125 58.805
0.95 188.243 61.011
0.96 198.787 62.824
0.97 207.545 63.491
0.98 213.344 63.438
0.99 218.840 63.621
1.00 222.633 64.157
1.01 225.503 64.712
1.02 226.876 65.235
1.03 226.532 65.613
1.04 223.861 65.926
1.05 219.614 66.364
1.06 215.132 66.674
1.07 209.769 66.555
1.08 205.459 66.156
1.09 202.681 65.631
1.10 201.253 64.788
1.11 201.042 63.299
1.12 201.066 61.391
1.13 199.635 59.424
1.14 197.154 57.473
1.15 --undefined-- 56.408
1.16 --undefined-- 54.793
1.17 --undefined-- 51.905
1.18 --undefined-- 50.441
1.19 --undefined-- 48.094
1.20 --undefined-- 44.888
1.21 --undefined-- 46.949
1.22 --undefined-- 49.130
1.23 --undefined-- 49.300
1.24 --undefined-- 48.369
1.25 --undefined-- 47.720
1.26 --undefined-- 50.618
1.27 --undefined-- 56.812
1.28 289.404 61.458
1.29 283.100 63.554
1.30 282.408 63.991
1.31 283.357 64.049
1.32 283.701 64.272
1.33 283.775 64.530
1.34 284.634 64.756
1.35 284.831 65.038
1.36 284.995 65.428
1.37 284.765 65.793
1.38 284.089 65.979
1.39 283.417 65.913
1.40 283.023 65.774
1.41 282.377 65.711
1.42 282.255 65.648
1.43 281.849 65.597
1.44 281.229 65.556
1.45 281.606 65.446
1.46 281.633 65.300
1.47 281.172 65.213
1.48 280.138 65.022
1.49 277.461 64.049
1.50 274.975 61.374
1.51 272.518 56.593
1.52 291.471 52.862
1.53 295.845 55.235
1.54 294.170 57.195
1.55 292.004 56.489
1.56 291.392 53.086
1.57 269.421 49.832
1.58 243.533 53.845
1.59 223.556 58.633
1.60 227.044 60.799
1.61 227.138 60.862
1.62 208.351 60.425
1.63 195.761 60.818
1.64 187.844 61.889
1.65 184.777 62.714
1.66 179.060 62.608
1.67 174.926 61.675
1.68 174.297 60.702
1.69 173.654 60.483
1.70 171.526 61.012
1.71 170.328 61.422
1.72 169.368 61.326
1.73 168.923 61.078
1.74 168.826 61.011
1.75 169.794 61.120
1.76 170.369 61.318
1.77 170.258 61.569
1.78 170.575 61.825
1.79 170.461 62.038
1.80 171.295 61.889
1.81 172.862 61.547
1.82 174.092 61.128
1.83 175.482 60.473
1.84 177.461 60.234
1.85 179.741 60.735
1.86 180.920 61.414
1.87 181.347 61.962
1.88 182.918 63.052
1.89 185.945 65.171
1.90 186.471 66.922
1.91 185.947 67.277
1.92 186.060 66.872
1.93 185.611 67.556
1.94 185.023 69.262
1.95 183.727 70.160
1.96 174.456 70.206
1.97 173.576 69.631
1.98 174.209 68.151
1.99 175.466 65.639
2.00 174.841 61.842
2.01 174.304 57.624
2.02 175.026 54.730
2.03 174.100 53.544
2.04 --undefined-- 53.112
2.05 --undefined-- 51.184
2.06 --undefined-- 48.182
2.07 --undefined-- 47.099
2.08 --undefined-- 48.671
2.09 --undefined-- 49.642
2.10 --undefined-- 48.205
2.11 --undefined-- 46.123
2.12 --undefined-- 50.563
2.13 --undefined-- 54.023
2.14 --undefined-- 54.377
2.15 --undefined-- 52.454
2.16 --undefined-- 50.143
2.17 --undefined-- 50.386
2.18 --undefined-- 51.664
2.19 --undefined-- 53.555
2.20 219.848 57.403
2.21 222.350 60.422
2.22 217.535 61.924
2.23 208.649 62.537
2.24 204.392 62.909
2.25 202.295 63.532
2.26 200.968 64.677
2.27 198.325 66.249
2.28 197.394 67.826
2.29 196.854 68.642
2.30 194.824 67.869
2.31 192.684 65.122
2.32 190.205 60.822
2.33 190.062 56.972
2.34 --undefined-- 56.286
2.35 --undefined-- 57.950
2.36 218.869 62.019
2.37 213.110 65.457
2.38 209.355 67.014
2.39 203.076 67.397
2.40 193.581 67.679
2.41 189.271 67.624
2.42 184.379 65.932
2.43 180.261 61.987
2.44 180.723 56.726
2.45 --undefined-- 53.829
2.46 --undefined-- 52.899
2.47 --undefined-- 53.286
2.48 --undefined-- 54.200
2.49 --undefined-- 54.967
2.50 --undefined-- 54.254
2.51 --undefined-- 51.374
2.52 --undefined-- 50.095
2.53 --undefined-- 51.101
2.54 --undefined-- 50.787
2.55 --undefined-- 49.274
2.56 --undefined-- 49.444
2.57 --undefined-- 48.845
2.58 --undefined-- 47.439
2.59 --undefined-- 47.637
2.60 --undefined-- 50.681
2.61 --undefined-- 57.121
2.62 251.709 61.390
2.63 248.557 63.739
2.64 253.711 65.509
2.65 257.059 67.749
2.66 258.593 70.225
2.67 259.094 71.814
2.68 256.610 71.881
2.69 252.052 70.808
2.70 249.253 69.816
2.71 247.805 69.410
2.72 248.060 69.043
2.73 250.189 68.804
2.74 252.815 69.248
2.75 254.259 69.755
2.76 255.445 69.519
2.77 257.755 68.364
2.78 259.139 66.785
2.79 258.672 65.804
2.80 257.726 65.360
2.81 256.089 64.726
2.82 253.589 64.059
2.83 253.037 64.030
2.84 252.840 64.416
2.85 252.555 64.632
2.86 252.729 64.687
2.87 251.755 64.494
2.88 250.284 63.700
2.89 246.883 62.034
2.90 241.593 59.024
2.91 223.320 54.512
2.92 --undefined-- 53.725
2.93 --undefined-- 56.556
2.94 --undefined-- 57.344
2.95 --undefined-- 58.616
2.96 227.408 62.931
2.97 221.118 66.854
2.98 218.478 69.441
2.99 216.238 71.134
3.00 214.316 72.121
3.01 212.188 72.311
3.02 210.044 71.694
3.03 207.283 70.523
3.04 205.996 69.605
3.05 206.813 69.546
3.06 207.824 69.988
3.07 208.775 70.656
3.08 209.852 71.478
3.09 210.408 72.204
3.10 210.872 72.416
3.11 211.401 72.026
3.12 212.079 71.341
3.13 213.258 70.594
3.14 214.122 69.636
3.15 214.142 68.103
3.16 212.719 65.806
3.17 212.060 62.857
3.18 216.415 59.548
3.19 224.068 57.392
3.20 215.127 56.591
3.21 215.700 55.044
3.22 215.850 54.463
3.23 224.144 54.122
3.24 227.009 53.627
3.25 --undefined-- 53.458
3.26 --undefined-- 52.928
3.27 --undefined-- 53.115
3.28 282.796 54.967
3.29 286.802 55.818
3.30 285.446 55.185
3.31 286.373 54.504
3.32 286.936 54.574
3.33 272.032 55.423
3.34 --undefined-- 54.580
3.35 --undefined-- 52.664
3.36 276.564 52.711
3.37 268.916 54.184
3.38 269.655 54.962
3.39 272.202 55.219
3.40 271.487 54.675
3.41 --undefined-- 52.963
3.42 --undefined-- 50.915
3.43 --undefined-- 49.370
3.44 284.598 51.588
3.45 287.212 55.448
3.46 269.964 56.876
3.47 270.411 55.417
3.48 275.822 52.945
3.49 275.230 53.049
3.50 266.356 54.448
3.51 265.761 55.650
3.52 271.120 56.910
3.53 270.231 56.233
3.54 268.031 53.363
3.55 275.988 52.764
3.56 --undefined-- 54.754
3.57 --undefined-- 55.382
3.58 --undefined-- 56.659
3.59 --undefined-- 58.044
3.60 --undefined-- 56.367
3.61 --undefined-- 51.466
3.62 --undefined-- 50.975
3.63 --undefined-- 53.998
3.64 --undefined-- 54.440
3.65 --undefined-- 55.284
3.66 236.635 59.090
3.67 234.233 63.201
3.68 227.652 66.998
3.69 223.182 70.045
3.70 224.887 71.556
3.71 229.405 71.315
3.72 234.786 70.051
3.73 245.818 68.937
3.74 256.193 68.235
3.75 267.554 68.399
3.76 274.933 69.004
3.77 285.893 69.033
3.78 163.177 68.884
3.79 169.918 69.036
3.80 174.689 69.104
3.81 180.209 69.193
3.82 184.790 70.233
3.83 188.425 71.717
3.84 192.529 72.208
3.85 195.537 71.580
3.86 197.958 70.448
3.87 198.334 69.692
3.88 197.774 69.550
3.89 197.645 69.383
3.90 197.113 69.120
3.91 194.730 68.923
3.92 191.560 68.023
3.93 189.189 65.176
3.94 191.704 59.659
3.95 185.523 53.013
3.96 186.460 49.650
3.97 --undefined-- 48.081
3.98 --undefined-- 48.788
3.99 --undefined-- 49.658
4.00 --undefined-- 49.942
4.01 --undefined-- 50.949
4.02 --undefined-- 57.494
4.03 --undefined-- 63.734
4.04 263.170 66.746
4.05 250.772 67.522
4.06 238.816 67.197
4.07 229.155 66.399
4.08 222.294 65.457
4.09 220.656 64.664
4.10 221.054 64.368
4.11 223.151 64.974
4.12 227.306 65.559
4.13 233.906 65.641
4.14 238.292 65.718
4.15 244.360 65.715
4.16 254.123 64.955
4.17 265.275 64.243
4.18 271.427 64.476
4.19 281.805 65.066
4.20 290.217 65.795
4.21 152.237 66.544
4.22 157.312 66.809
4.23 162.390 66.515
4.24 164.023 65.819
4.25 163.059 64.314
4.26 161.132 61.468
4.27 163.769 58.249
4.28 165.747 56.427
4.29 167.842 54.134
4.30 --undefined-- 52.000
4.31 --undefined-- 54.720
4.32 --undefined-- 57.170
4.33 --undefined-- 57.375
4.34 --undefined-- 57.103
4.35 --undefined-- 56.726
4.36 --undefined-- 55.420
4.37 --undefined-- 56.933
4.38 --undefined-- 60.218
4.39 --undefined-- 61.932
4.40 --undefined-- 62.132
4.41 --undefined-- 61.950
4.42 151.101 61.191
4.43 155.024 60.380
4.44 155.498 60.194
4.45 158.687 59.871
4.46 162.707 59.497
4.47 166.601 59.163
4.48 169.747 59.278
4.49 171.733 59.761
4.50 170.434 59.453
4.51 169.529 57.835
4.52 173.340 55.932
4.53 --undefined-- 53.835
4.54 --undefined-- 51.712
4.55 --undefined-- 52.487
4.56 293.338 54.428
4.57 293.368 54.735
4.58 290.030 55.563
4.59 --undefined-- 56.410
4.60 --undefined-- 54.660
4.61 --undefined-- 50.579
4.62 --undefined-- 50.236
4.63 --undefined-- 52.364
4.64 --undefined-- 52.578
4.65 --undefined-- 55.058
4.66 270.368 59.734
4.67 262.162 62.931
4.68 262.076 64.918
4.69 263.544 66.231
4.70 264.901 67.086
4.71 267.641 67.459
4.72 270.624 67.599
4.73 273.338 67.659
4.74 275.856 67.315
4.75 278.757 66.586
4.76 279.478 66.035
4.77 279.351 65.575
4.78 279.140 64.906
4.79 279.262 64.244
4.80 279.654 63.863
4.81 280.677 63.849
4.82 282.289 64.013
4.83 283.325 64.159
4.84 283.557 64.277
4.85 283.644 64.485
4.86 282.665 64.550
4.87 280.241 63.736
4.88 278.373 61.363
4.89 275.668 57.431
4.90 273.791 54.998
4.91 --undefined-- 57.349
4.92 --undefined-- 60.857
4.93 --undefined-- 61.923
4.94 --undefined-- 60.046
4.95 --undefined-- 56.252
4.96 --undefined-- 54.836
4.97 225.892 --undefined--
4.98 224.751 --undefined--
4.99 --undefined-- --undefined--
5.00 --undefined-- --undefined--
