Time Pitch Intensity
0.01 --undefined-- --undefined--
0.02 173.564 --undefined--
0.03 169.987 --undefined--
0.04 169.641 --undefined--
0.05 169.279 69.757
0.06 169.555 69.677
0.07 172.812 69.461
0.08 178.330 70.085
0.09 183.669 71.560
0.10 188.937 72.544
0.11 196.559 72.126
0.12 210.791 70.480
0.13 221.735 68.761
0.14 222.526 66.922
0.15 213.818 64.604
0.16 211.627 62.341
0.17 211.230 59.977
0.18 212.087 57.723
0.19 --undefined-- 55.562
0.20 --undefined-- 53.473
0.21 --undefined-- 52.989
0.22 --undefined-- 55.534
0.23 --undefined-- 59.235
0.24 252.351 63.200
0.25 256.264 67.651
0.26 253.081 72.319
0.27 252.324 75.169
0.28 251.925 76.157
0.29 250.155 75.978
0.30 250.809 74.737
0.31 256.030 72.247
0.32 257.333 69.360
0.33 256.334 67.955
0.34 258.173 67.746
0.35 260.773 67.221
0.36 256.870 65.902
0.37 256.414 64.406
0.38 251.841 62.842
0.39 200.083 61.315
0.40 --undefined-- 60.513
0.41 --undefined-- 61.081
0.42 --undefined-- 61.841
0.43 --undefined-- 64.018
0.44 219.845 67.121
0.45 203.977 69.057
0.46 192.803 70.367
0.47 189.089 71.324
0.48 186.013 71.444
0.49 183.415 70.550
0.50 182.474 69.330
0.51 182.362 68.665
0.52 182.174 68.487
0.53 180.002 68.020
0.54 175.848 66.604
0.55 171.057 64.183
0.56 167.614 61.584
0.57 159.973 59.360
0.58 157.607 58.367
0.59 158.562 59.222
0.60 161.640 61.180
0.61 163.371 63.590
0.62 162.510 65.005
0.63 159.080 65.161
0.64 154.105 64.485
0.65 152.496 63.568
0.66 151.748 63.017
0.67 149.697 62.582
0.68 145.405 61.954
0.69 144.028 61.695
0.70 150.929 62.683
0.71 154.177 63.750
0.72 154.305 64.282
0.73 152.410 64.603
0.74 152.197 64.730
0.75 152.350 64.591
0.76 153.166 64.463
0.77 153.011 64.692
0.78 153.526 65.461
0.79 155.484 65.986
0.80 156.057 65.933
0.81 158.347 65.982
0.82 160.378 66.064
0.83 163.069 65.157
0.84 162.313 62.992
0.85 158.857 61.148
0.86 160.822 61.266
0.87 166.777 63.737
0.88 174.331 67.379
0.89 178.085 70.711
0.90 178.590 73.498
0.91 177.155 75.164
0.92 175.663 75.233
0.93 174.268 73.932
0.94 173.732 72.470
0.95 174.231 71.993
0.96 174.787 72.032
0.97 175.186 71.978
0.98 175.803 71.754
0.99 176.277 71.461
1.00 176.162 71.030
1.01 175.538 70.174
1.02 174.681 68.775
1.03 176.173 67.323
1.04 --undefined-- 66.235
1.05 --undefined-- 64.707
1.06 --undefined-- 62.710
1.07 --undefined-- 60.501
1.08 --undefined-- 57.617
1.09 --undefined-- 55.500
1.10 --undefined-- 53.732
1.11 --undefined-- 52.565
1.12 --undefined-- 53.363
1.13 --undefined-- 54.198
1.14 --undefined-- 57.014
1.15 --undefined-- 60.210
1.16 --undefined-- 62.597
1.17 200.279 64.546
1.18 199.973 66.173
1.19 199.708 67.846
1.20 202.928 69.495
1.21 206.187 70.663
1.22 207.879 71.107
1.23 210.686 70.880
1.24 211.962 70.528
1.25 212.850 70.466
1.26 214.867 70.425
1.27 215.426 70.320
1.28 215.496 70.396
1.29 215.953 70.463
1.30 214.431 70.162
1.31 213.959 69.679
1.32 220.505 69.464
1.33 230.673 69.463
1.34 237.256 69.324
1.35 238.014 68.997
1.36 239.955 68.599
1.37 241.181 68.290
1.38 244.966 68.215
1.39 252.193 68.255
1.40 259.771 68.144
1.41 269.592 68.083
1.42 286.949 68.010
1.43 286.721 66.874
1.44 276.461 63.848
1.45 --undefined-- 60.431
1.46 --undefined-- 59.897
1.47 --undefined-- 58.834
1.48 --undefined-- 55.556
1.49 --undefined-- 53.842
1.50 --undefined-- 55.879
1.51 --undefined-- 59.058
1.52 --undefined-- 61.481
1.53 --undefined-- 61.731
1.54 --undefined-- 61.651
1.55 263.807 64.275
1.56 244.657 66.693
1.57 233.212 69.143
1.58 228.544 71.835
1.59 224.566 73.028
1.60 214.679 72.994
1.61 205.264 74.227
1.62 196.626 76.063
1.63 189.339 76.976
1.64 188.779 76.618
1.65 --undefined-- 74.597
1.66 --undefined-- 70.993
1.67 --undefined-- 66.293
1.68 --undefined-- 61.690
1.69 --undefined-- 59.288
1.70 --undefined-- 59.565
1.71 --undefined-- 60.888
1.72 --undefined-- 61.499
1.73 96.271 61.949
1.74 96.318 62.686
1.75 96.312 63.974
1.76 186.788 66.157
1.77 181.165 68.250
1.78 182.110 69.026
1.79 175.419 68.667
1.80 175.076 67.835
1.81 173.235 66.721
1.82 170.664 65.778
1.83 168.920 65.062
1.84 167.091 64.196
1.85 164.028 63.834
1.86 165.686 64.383
1.87 167.835 64.626
1.88 168.715 64.386
1.89 170.131 64.462
1.90 172.725 64.859
1.91 174.428 64.664
1.92 176.863 63.277
1.93 179.740 60.686
1.94 --undefined-- 58.751
1.95 --undefined-- 61.621
1.96 213.787 65.492
1.97 208.193 67.401
1.98 206.740 67.971
1.99 208.609 68.445
2.00 210.817 69.080
2.01 214.808 69.153
2.02 229.123 68.357
2.03 232.047 67.342
2.04 233.416 66.584
2.05 234.089 66.169
2.06 236.001 66.295
2.07 250.455 67.075
2.08 266.061 68.292
2.09 278.209 69.547
2.10 290.629 70.621
2.11 152.981 71.309
2.12 161.785 71.697
2.13 165.192 72.000
2.14 168.041 72.216
2.15 168.648 72.432
2.16 162.338 73.097
2.17 162.026 73.908
2.18 158.969 73.834
2.19 154.811 73.172
2.20 --undefined-- 72.873
2.21 289.420 72.873
2.22 272.505 72.327
2.23 251.934 70.841
2.24 231.490 69.432
2.25 --undefined-- 70.331
2.26 --undefined-- 71.973
2.27 142.084 72.407
2.28 140.429 71.971
2.29 --undefined-- 71.609
2.30 80.059 70.849
2.31 77.840 70.353
2.32 76.918 70.310
2.33 84.048 70.241
2.34 83.876 70.498
2.35 83.201 70.468
2.36 164.502 69.852
2.37 164.816 68.074
2.38 166.525 65.349
2.39 169.595 63.788
2.40 169.783 64.696
2.41 174.800 66.349
2.42 185.711 68.009
2.43 193.074 68.855
2.44 201.273 68.195
2.45 211.883 66.363
2.46 209.884 63.785
2.47 199.589 61.111
2.48 --undefined-- 60.601
2.49 --undefined-- 60.690
2.50 --undefined-- 59.872
2.51 --undefined-- 59.056
2.52 223.863 61.551
2.53 223.537 64.297
2.54 218.819 65.295
2.55 213.736 65.843
2.56 216.251 66.426
2.57 227.036 66.722
2.58 191.236 66.980
2.59 181.844 66.758
2.60 173.005 65.735
2.61 164.839 64.920
2.62 156.868 64.296
2.63 152.832 62.566
2.64 152.023 59.775
2.65 150.597 57.353
2.66 155.600 58.580
2.67 180.929 62.963
2.68 189.719 66.697
2.69 189.397 69.286
2.70 189.216 70.990
2.71 190.345 72.005
2.72 192.456 72.744
2.73 187.548 72.993
2.74 190.103 71.910
2.75 195.723 69.436
2.76 196.840 66.934
2.77 194.844 66.221
2.78 192.025 66.981
2.79 190.388 67.839
2.80 189.458 68.187
2.81 188.533 68.428
2.82 188.934 68.671
2.83 190.283 68.557
2.84 192.754 68.428
2.85 193.925 68.569
2.86 193.375 68.783
2.87 190.739 68.987
2.88 186.525 68.363
2.89 183.836 65.883
2.90 184.166 61.193
2.91 --undefined-- 55.306
2.92 --undefined-- 52.591
2.93 --undefined-- 52.976
2.94 --undefined-- 56.014
2.95 --undefined-- 59.231
2.96 --undefined-- 59.179
2.97 --undefined-- 57.256
2.98 --undefined-- 58.977
2.99 --undefined-- 61.029
3.00 --undefined-- 60.937
3.01 --undefined-- 59.315
3.02 --undefined-- 60.110
3.03 228.921 63.106
3.04 215.866 64.422
3.05 216.356 64.794
3.06 205.887 65.471
3.07 182.622 66.565
3.08 176.250 67.209
3.09 170.091 66.897
3.10 162.220 65.715
3.11 158.878 64.025
3.12 157.565 62.720
3.13 159.446 63.098
3.14 163.934 63.997
3.15 165.930 64.386
3.16 167.653 64.520
3.17 173.394 65.278
3.18 179.723 67.004
3.19 187.579 68.815
3.20 192.541 69.637
3.21 202.919 69.597
3.22 204.722 70.296
3.23 205.355 71.992
3.24 206.521 73.466
3.25 208.396 74.432
3.26 209.939 74.995
3.27 210.215 75.169
3.28 208.320 74.886
3.29 204.534 74.187
3.30 195.023 73.608
3.31 187.009 73.189
3.32 --undefined-- 71.932
3.33 --undefined-- 69.277
3.34 --undefined-- 65.338
3.35 --undefined-- 61.557
3.36 --undefined-- 59.620
3.37 --undefined-- 59.396
3.38 --undefined-- 58.967
3.39 --undefined-- 58.797
3.40 --undefined-- 61.207
3.41 --undefined-- 61.886
3.42 --undefined-- 59.348
3.43 --undefined-- 54.812
3.44 --undefined-- 52.802
3.45 --undefined-- 53.683
3.46 --undefined-- 54.363
3.47 --undefined-- 53.906
3.48 --undefined-- 53.144
3.49 --undefined-- 54.494
3.50 290.531 58.100
3.51 289.445 60.019
3.52 290.173 59.458
3.53 292.078 58.476
3.54 --undefined-- 58.028
3.55 --undefined-- 57.195
3.56 --undefined-- 58.261
3.57 --undefined-- 59.230
3.58 285.804 59.260
3.59 285.315 60.348
3.60 287.355 60.498
3.61 289.817 58.005
3.62 --undefined-- 55.490
3.63 --undefined-- 58.222
3.64 --undefined-- 59.784
3.65 --undefined-- 59.956
3.66 --undefined-- 60.337
3.67 --undefined-- 58.516
3.68 --undefined-- 55.764
3.69 --undefined-- 60.142
3.70 --undefined-- 65.808
3.71 --undefined-- 69.887
3.72 149.736 72.151
3.73 151.863 73.309
3.74 155.816 74.258
3.75 156.857 75.147
3.76 156.523 75.598
3.77 153.715 75.250
3.78 --undefined-- 73.766
3.79 292.445 70.697
3.80 288.447 66.050
3.81 --undefined-- 62.465
3.82 --undefined-- 65.857
3.83 205.462 69.649
3.84 210.226 70.772
3.85 221.210 70.676
3.86 228.056 70.855
3.87 227.836 70.887
3.88 224.424 70.295
3.89 210.702 69.044
3.90 204.491 67.465
3.91 194.084 65.879
3.92 186.226 64.353
3.93 190.409 62.385
3.94 202.199 62.501
3.95 178.420 67.823
3.96 170.478 70.959
3.97 --undefined-- 70.964
3.98 258.280 69.452
3.99 233.574 68.690
4.00 216.838 68.427
4.01 202.291 68.315
4.02 193.162 68.384
4.03 187.333 68.085
4.04 182.363 67.469
4.05 175.520 66.719
4.06 169.101 66.010
4.07 166.426 65.382
4.08 165.869 65.236
4.09 165.311 65.540
4.10 164.011 65.056
4.11 161.993 64.143
4.12 160.815 63.745
4.13 159.621 63.579
4.14 159.890 63.577
4.15 161.499 63.592
4.16 164.257 63.354
4.17 167.710 63.391
4.18 172.480 64.405
4.19 181.723 65.993
4.20 189.318 67.425
4.21 196.427 67.993
4.22 221.633 68.079
4.23 229.016 69.080
4.24 238.205 70.491
4.25 246.581 71.474
4.26 253.821 72.094
4.27 258.336 72.326
4.28 261.440 71.815
4.29 264.293 70.604
4.30 266.333 69.038
4.31 266.730 67.193
4.32 255.937 65.257
4.33 251.426 62.803
4.34 257.714 59.777
4.35 --undefined-- 58.411
4.36 --undefined-- 57.936
4.37 --undefined-- 56.380
4.38 --undefined-- 56.600
4.39 253.807 59.478
4.40 238.210 63.234
4.41 234.463 65.881
4.42 223.545 67.365
4.43 211.921 67.988
4.44 206.479 68.295
4.45 203.756 68.541
4.46 201.742 68.454
4.47 199.566 68.193
4.48 196.075 68.080
4.49 193.713 68.302
4.50 191.479 68.860
4.51 188.825 69.595
4.52 186.996 70.261
4.53 186.974 70.326
4.54 186.480 69.086
4.55 185.816 66.360
4.56 186.735 62.619
4.57 186.945 58.305
4.58 187.439 53.611
4.59 --undefined-- 54.125
4.60 --undefined-- 58.218
4.61 --undefined-- 60.817
4.62 --undefined-- 62.475
4.63 298.804 65.197
4.64 288.673 67.404
4.65 285.668 68.487
4.66 285.456 69.122
4.67 287.571 69.386
4.68 291.628 69.540
4.69 294.749 69.985
4.70 298.819 70.539
4.71 152.058 70.741
4.72 154.161 70.292
4.73 152.799 68.656
4.74 296.712 65.334
4.75 267.710 62.233
4.76 --undefined-- 62.592
4.77 --undefined-- 63.786
4.78 --undefined-- 66.589
4.79 230.581 69.755
4.80 219.979 71.429
4.81 213.515 71.433
4.82 211.158 70.183
4.83 209.557 68.334
4.84 208.170 66.497
4.85 209.347 64.775
4.86 211.383 61.886
4.87 212.785 57.627
4.88 --undefined-- 56.058
4.89 --undefined-- 55.370
4.90 --undefined-- 53.339
4.91 --undefined-- 50.590
4.92 --undefined-- --undefined--
4.93 --undefined-- --undefined--
4.94 --undefined-- --undefined--
4.95 --undefined-- --undefined--
