Time Pitch Intensity
0.01 --undefined-- --undefined--
0.02 197.236 --undefined--
0.03 197.270 --undefined--
0.04 197.174 --undefined--
0.05 197.772 77.930
0.06 198.944 77.612
0.07 199.058 76.621
0.08 196.486 75.202
0.09 190.172 75.062
0.10 188.931 76.044
0.11 190.571 77.297
0.12 191.613 77.915
0.13 190.752 77.739
0.14 189.279 77.537
0.15 187.354 77.498
0.16 185.291 77.507
0.17 183.371 77.792
0.18 181.973 78.258
0.19 179.530 78.168
0.20 170.541 76.818
0.21 165.244 74.150
0.22 167.016 71.077
0.23 168.305 68.268
0.24 168.958 64.501
0.25 176.927 60.156
0.26 179.879 63.393
0.27 181.890 70.987
0.28 157.506 75.702
0.29 150.333 77.363
0.30 134.281 77.174
0.31 127.953 76.983
0.32 123.566 77.380
0.33 119.684 77.458
0.34 117.430 76.491
0.35 114.597 74.705
0.36 116.681 73.499
0.37 115.152 72.858
0.38 114.293 71.881
0.39 114.987 71.001
0.40 116.433 71.337
0.41 119.060 72.873
0.42 120.004 74.288
0.43 119.047 74.950
0.44 117.144 75.188
0.45 116.496 75.084
0.46 116.617 74.498
0.47 116.368 73.509
0.48 116.701 72.312
0.49 117.079 71.155
0.50 118.194 70.353
0.51 119.020 70.002
0.52 119.441 69.798
0.53 119.545 69.520
0.54 119.429 69.256
0.55 119.278 69.077
0.56 118.767 68.982
0.57 117.805 68.977
0.58 116.775 69.018
0.59 115.184 69.076
0.60 112.732 69.316
0.61 110.875 70.183
0.62 110.054 71.537
0.63 108.780 72.572
0.64 107.300 72.888
0.65 104.510 72.730
0.66 103.379 72.472
0.67 103.351 72.006
0.68 102.854 71.419
0.69 102.097 71.135
0.70 101.016 71.155
0.71 99.923 71.300
0.72 99.725 71.465
0.73 101.409 71.572
0.74 103.186 71.831
0.75 107.434 72.657
0.76 114.115 74.017
0.77 118.190 75.367
0.78 123.183 76.284
0.79 125.913 76.673
0.80 130.481 76.896
0.81 133.535 77.463
0.82 134.616 78.118
0.83 135.005 78.398
0.84 133.139 78.206
0.85 129.756 77.622
0.86 125.376 76.976
0.87 118.037 76.158
0.88 112.163 74.785
0.89 99.140 72.865
0.90 98.973 70.459
0.91 93.127 67.461
0.92 99.017 63.994
0.93 100.308 60.147
0.94 --undefined-- 56.144
0.95 --undefined-- 53.461
0.96 --undefined-- 54.165
0.97 --undefined-- 56.007
0.98 --undefined-- 56.110
0.99 --undefined-- 54.603
1.00 --undefined-- 53.081
1.01 --undefined-- 52.554
1.02 --undefined-- 52.090
1.03 --undefined-- 51.333
1.04 --undefined-- 50.985
1.05 --undefined-- 51.177
1.06 --undefined-- 51.491
1.07 --undefined-- 51.250
1.08 --undefined-- 50.452
1.09 --undefined-- 49.598
1.10 --undefined-- 48.567
1.11 --undefined-- 47.778
1.12 --undefined-- 47.380
1.13 --undefined-- 46.712
1.14 --undefined-- 45.298
1.15 --undefined-- 42.859
1.16 --undefined-- 39.496
1.17 --undefined-- 37.962
1.18 --undefined-- 42.591
1.19 --undefined-- 56.561
1.20 225.351 67.366
1.21 222.726 74.211
1.22 224.537 77.874
1.23 218.901 79.190
1.24 217.819 78.972
1.25 216.678 77.130
1.26 215.002 73.035
1.27 205.433 67.828
1.28 203.933 64.843
1.29 206.547 65.451
1.30 200.440 69.259
1.31 195.057 73.606
1.32 186.068 76.462
1.33 178.168 77.929
1.34 170.018 79.074
1.35 163.572 79.929
1.36 159.218 80.037
1.37 156.815 79.406
1.38 152.634 78.461
1.39 152.795 77.323
1.40 150.666 74.914
1.41 152.411 71.443
1.42 154.878 68.276
1.43 158.255 64.647
1.44 161.173 60.784
1.45 156.250 58.392
1.46 156.387 56.791
1.47 --undefined-- 54.231
1.48 --undefined-- 52.541
1.49 --undefined-- 53.418
1.50 --undefined-- 53.711
1.51 --undefined-- 53.510
1.52 --undefined-- 54.792
1.53 --undefined-- 56.952
1.54 --undefined-- 59.096
1.55 --undefined-- 61.190
1.56 --undefined-- 62.884
1.57 --undefined-- 63.740
1.58 --undefined-- 63.814
1.59 --undefined-- 63.825
1.60 --undefined-- 63.197
1.61 --undefined-- 61.542
1.62 --undefined-- 60.057
1.63 --undefined-- 59.969
1.64 --undefined-- 61.402
1.65 109.696 63.762
1.66 105.668 65.616
1.67 105.374 66.699
1.68 102.829 67.526
1.69 102.105 68.190
1.70 101.750 68.640
1.71 102.194 69.028
1.72 102.348 69.407
1.73 102.491 69.725
1.74 102.532 69.931
1.75 103.538 70.054
1.76 103.292 70.212
1.77 104.415 70.480
1.78 105.628 70.794
1.79 105.816 70.803
1.80 104.768 69.949
1.81 102.631 67.994
1.82 102.323 65.748
1.83 108.193 64.194
1.84 108.421 62.349
1.85 103.134 60.198
1.86 --undefined-- 60.960
1.87 --undefined-- 63.227
1.88 --undefined-- 66.991
1.89 --undefined-- 71.535
1.90 131.154 74.096
1.91 122.215 74.536
1.92 118.199 73.076
1.93 117.497 69.493
1.94 102.019 63.800
1.95 99.869 57.315
1.96 121.644 52.729
1.97 --undefined-- 50.673
1.98 --undefined-- 50.005
1.99 --undefined-- 55.538
2.00 --undefined-- 65.345
2.01 157.924 72.090
2.02 150.205 75.409
2.03 141.276 76.189
2.04 135.422 75.586
2.05 135.440 74.813
2.06 136.443 73.943
2.07 135.614 71.958
2.08 126.504 68.074
2.09 137.091 62.726
2.10 137.993 57.462
2.11 136.391 53.428
2.12 --undefined-- 50.544
2.13 --undefined-- 48.513
2.14 --undefined-- 47.794
2.15 --undefined-- 46.960
2.16 --undefined-- 45.224
2.17 --undefined-- 42.847
2.18 --undefined-- 41.019
2.19 --undefined-- 41.118
2.20 --undefined-- 41.639
2.21 --undefined-- 40.714
2.22 --undefined-- 38.781
2.23 --undefined-- 40.567
2.24 --undefined-- 46.732
2.25 --undefined-- 52.491
2.26 --undefined-- 62.261
2.27 --undefined-- 69.973
2.28 196.786 74.251
2.29 190.489 76.108
2.30 186.611 76.671
2.31 185.756 76.643
2.32 187.508 76.179
2.33 189.793 75.690
2.34 189.104 75.637
2.35 188.039 75.797
2.36 186.940 75.969
2.37 185.744 76.143
2.38 184.566 76.301
2.39 183.643 76.420
2.40 183.050 76.513
2.41 182.849 76.595
2.42 182.821 76.695
2.43 182.631 76.852
2.44 182.551 76.966
2.45 182.649 76.883
2.46 181.884 76.440
2.47 179.580 75.377
2.48 173.930 73.508
2.49 165.648 71.026
2.50 163.032 68.228
2.51 164.024 64.629
2.52 --undefined-- 60.656
2.53 --undefined-- 61.664
2.54 --undefined-- 66.176
2.55 --undefined-- 72.160
2.56 192.918 75.907
2.57 188.325 77.127
2.58 175.447 77.184
2.59 170.032 77.450
2.60 165.460 77.443
2.61 161.186 75.869
2.62 158.997 72.578
2.63 164.834 70.045
2.64 167.606 69.940
2.65 169.485 70.472
2.66 170.653 71.181
2.67 170.817 72.115
2.68 170.220 73.076
2.69 168.888 73.797
2.70 167.921 74.228
2.71 168.098 74.601
2.72 167.712 75.243
2.73 161.670 75.965
2.74 158.126 76.234
2.75 153.001 76.207
2.76 149.844 76.252
2.77 145.489 76.128
2.78 140.653 75.191
2.79 132.823 73.515
2.80 129.965 72.646
2.81 123.091 72.811
2.82 121.495 72.457
2.83 114.118 71.494
2.84 107.445 70.747
2.85 99.980 70.459
2.86 98.193 70.426
2.87 95.485 70.253
2.88 94.039 69.685
2.89 92.622 68.841
2.90 93.730 68.074
2.91 94.294 68.042
2.92 101.778 68.903
2.93 104.086 69.683
2.94 107.427 70.256
2.95 109.945 70.967
2.96 111.509 71.641
2.97 114.409 72.335
2.98 118.717 72.993
2.99 122.357 73.651
3.00 125.627 74.412
3.01 128.630 75.085
3.02 130.941 75.528
3.03 132.991 75.534
3.04 133.603 74.456
3.05 127.814 71.747
3.06 130.502 67.824
3.07 128.738 63.839
3.08 126.035 61.072
3.09 --undefined-- 61.693
3.10 --undefined-- 62.716
3.11 --undefined-- 64.852
3.12 --undefined-- 70.167
3.13 129.647 73.806
3.14 120.646 74.981
3.15 110.033 74.239
3.16 101.539 72.494
3.17 92.764 70.367
3.18 90.610 67.773
3.19 88.618 65.210
3.20 89.974 63.489
3.21 92.350 63.221
3.22 94.420 63.793
3.23 95.582 64.371
3.24 96.693 64.951
3.25 97.190 65.561
3.26 97.715 66.085
3.27 97.986 66.381
3.28 97.823 66.494
3.29 97.565 66.451
3.30 97.596 66.334
3.31 98.991 66.731
3.32 100.309 68.019
3.33 102.624 69.645
3.34 102.581 70.950
3.35 104.154 71.813
3.36 104.177 72.481
3.37 104.571 73.111
3.38 106.326 73.581
3.39 106.039 73.679
3.40 103.973 73.499
3.41 104.027 73.489
3.42 103.910 73.692
3.43 103.624 73.932
3.44 103.938 74.215
3.45 103.873 74.416
3.46 103.961 74.143
3.47 102.971 72.896
3.48 101.036 70.504
3.49 98.495 67.657
3.50 99.835 65.863
3.51 102.401 66.280
3.52 110.196 70.024
3.53 116.976 73.920
3.54 115.417 76.012
3.55 112.462 76.622
3.56 110.991 76.448
3.57 109.847 76.098
3.58 108.987 75.728
3.59 108.763 75.272
3.60 108.122 74.993
3.61 107.774 74.917
3.62 106.860 74.721
3.63 106.598 74.439
3.64 106.351 74.028
3.65 105.792 73.379
3.66 106.653 72.572
3.67 105.782 71.496
3.68 102.097 69.844
3.69 93.463 67.647
3.70 85.983 65.402
3.71 --undefined-- 63.486
3.72 --undefined-- 61.402
3.73 --undefined-- 57.565
3.74 --undefined-- 54.308
3.75 --undefined-- 53.399
3.76 --undefined-- 53.526
3.77 74.967 56.342
3.78 101.181 59.090
3.79 106.044 61.775
3.80 115.382 64.572
3.81 120.988 66.668
3.82 122.968 67.782
3.83 125.145 68.308
3.84 124.633 68.393
3.85 122.983 67.792
3.86 121.274 66.479
3.87 122.352 64.383
3.88 124.258 61.350
3.89 --undefined-- 60.391
3.90 --undefined-- 63.785
3.91 --undefined-- 70.074
3.92 141.360 74.655
3.93 135.697 76.539
3.94 131.745 76.469
3.95 131.443 75.770
3.96 131.321 75.646
3.97 129.996 75.804
3.98 125.050 75.516
3.99 123.073 74.961
4.00 121.881 74.775
4.01 119.437 74.882
4.02 118.188 74.882
4.03 117.654 74.410
4.04 110.975 73.543
4.05 109.549 73.040
4.06 108.623 72.744
4.07 108.218 72.410
4.08 108.500 72.242
4.09 109.294 72.088
4.10 110.323 71.956
4.11 110.550 71.901
4.12 110.547 71.269
4.13 108.560 69.593
4.14 106.959 67.199
4.15 108.240 64.989
4.16 108.285 63.915
4.17 115.432 66.182
4.18 119.097 70.057
4.19 117.367 72.399
4.20 114.311 72.873
4.21 106.171 72.198
4.22 104.407 71.471
4.23 102.923 71.043
4.24 102.791 70.668
4.25 103.633 70.207
4.26 103.926 69.389
4.27 103.273 68.086
4.28 105.826 67.267
4.29 112.907 67.787
4.30 115.850 68.559
4.31 119.600 68.617
4.32 123.857 68.120
4.33 124.332 67.664
4.34 123.193 66.878
4.35 125.460 64.828
4.36 125.965 61.370
4.37 --undefined-- 59.775
4.38 --undefined-- 62.015
4.39 --undefined-- 63.853
4.40 --undefined-- 65.597
4.41 --undefined-- 69.934
4.42 134.685 73.223
4.43 122.911 74.617
4.44 117.108 74.850
4.45 112.519 74.368
4.46 107.332 73.401
4.47 108.135 72.370
4.48 112.035 71.915
4.49 118.155 72.261
4.50 123.846 73.012
4.51 128.517 73.760
4.52 136.217 74.437
4.53 140.471 74.960
4.54 142.938 74.502
4.55 143.216 72.579
4.56 152.069 70.144
4.57 153.853 68.676
4.58 151.577 67.655
4.59 155.035 68.864
4.60 164.385 72.801
4.61 157.229 75.723
4.62 147.894 76.687
4.63 132.740 76.077
4.64 122.880 74.731
4.65 118.366 73.577
4.66 113.273 72.197
4.67 107.757 70.133
4.68 109.277 68.694
4.69 111.118 68.428
4.70 110.743 68.382
4.71 110.559 68.196
4.72 110.920 67.590
4.73 109.020 66.206
4.74 109.156 64.305
4.75 114.462 61.869
4.76 109.440 57.822
4.77 --undefined-- 52.133
4.78 --undefined-- 48.883
4.79 --undefined-- 57.874
4.80 --undefined-- 67.135
4.81 --undefined-- 72.684
4.82 127.248 74.895
4.83 125.690 75.311
4.84 122.710 75.508
4.85 121.841 75.683
4.86 122.321 75.582
4.87 123.166 75.382
4.88 123.604 75.194
4.89 122.625 74.448
4.90 119.686 72.342
4.91 115.728 68.600
4.92 119.796 64.528
4.93 121.965 61.251
4.94 123.118 57.576
4.95 123.310 53.540
4.96 122.243 53.361
4.97 --undefined-- 59.448
4.98 --undefined-- 67.103
4.99 129.309 71.835
5.00 126.338 73.842
5.01 124.021 74.384
5.02 123.965 74.680
5.03 124.178 75.001
5.04 124.226 75.285
5.05 124.078 75.604
5.06 124.112 75.917
5.07 124.218 76.147
5.08 124.750 76.267
5.09 124.703 76.136
5.10 123.582 --undefined--
5.11 122.148 --undefined--
5.12 --undefined-- --undefined--
5.13 --undefined-- --undefined--
