Time Pitch Intensity
0.01 --undefined-- --undefined--
0.02 276.186 --undefined--
0.03 282.012 --undefined--
0.04 285.733 --undefined--
0.05 290.572 78.346
0.06 293.403 78.579
0.07 296.121 77.952
0.08 299.402 76.364
0.09 299.127 74.729
0.10 297.264 73.582
0.11 295.870 72.464
0.12 293.810 70.660
0.13 281.908 67.964
0.14 271.030 65.032
0.15 267.423 61.475
0.16 256.230 55.838
0.17 --undefined-- 49.689
0.18 --undefined-- 52.920
0.19 --undefined-- 57.186
0.20 --undefined-- 63.420
0.21 --undefined-- 68.727
0.22 296.461 71.429
0.23 292.995 72.402
0.24 289.667 72.553
0.25 286.953 72.540
0.26 285.727 72.874
0.27 285.671 73.464
0.28 284.496 73.940
0.29 283.044 74.276
0.30 280.918 74.568
0.31 277.476 74.747
0.32 271.014 74.573
0.33 264.146 73.659
0.34 257.207 71.517
0.35 249.454 67.546
0.36 247.502 61.673
0.37 --undefined-- 63.141
0.38 --undefined-- 70.469
0.39 212.092 74.320
0.40 197.963 75.576
0.41 178.214 75.849
0.42 170.520 76.104
0.43 165.103 76.204
0.44 161.005 76.189
0.45 157.874 76.037
0.46 155.714 75.594
0.47 153.863 75.001
0.48 152.913 74.561
0.49 153.320 74.275
0.50 155.113 73.802
0.51 158.787 72.884
0.52 165.024 71.776
0.53 174.678 71.054
0.54 183.740 71.288
0.55 193.925 72.266
0.56 202.119 73.444
0.57 207.876 74.589
0.58 213.753 75.576
0.59 218.429 76.223
0.60 220.963 76.471
0.61 220.645 76.329
0.62 218.080 75.810
0.63 213.148 74.777
0.64 206.041 73.071
0.65 197.413 70.946
0.66 189.250 69.620
0.67 187.331 69.699
0.68 182.761 69.824
0.69 176.545 69.757
0.70 173.528 69.940
0.71 170.863 70.202
0.72 169.366 70.415
0.73 168.547 70.622
0.74 168.616 70.722
0.75 169.055 70.656
0.76 170.518 70.392
0.77 172.081 69.875
0.78 172.187 69.039
0.79 171.379 67.880
0.80 168.882 66.605
0.81 165.500 65.466
0.82 164.544 64.532
0.83 161.613 63.841
0.84 158.949 63.570
0.85 156.977 63.779
0.86 152.205 64.350
0.87 151.068 65.176
0.88 150.820 66.177
0.89 147.398 67.246
0.90 146.607 68.299
0.91 144.609 69.208
0.92 143.192 69.809
0.93 142.750 70.108
0.94 143.016 70.242
0.95 143.078 70.290
0.96 142.912 70.297
0.97 142.919 70.303
0.98 142.401 70.353
0.99 141.284 70.493
1.00 140.957 70.659
1.01 140.874 70.794
1.02 141.118 70.827
1.03 141.378 70.689
1.04 141.450 70.392
1.05 141.099 69.894
1.06 138.424 69.327
1.07 138.047 69.097
1.08 141.344 69.250
1.09 142.297 69.600
1.10 143.142 69.983
1.11 143.707 70.229
1.12 144.805 70.242
1.13 145.611 69.996
1.14 146.788 69.450
1.15 143.796 68.577
1.16 128.522 67.265
1.17 115.079 64.778
1.18 122.335 60.021
1.19 129.476 52.615
1.20 --undefined-- 44.766
1.21 --undefined-- 38.977
1.22 --undefined-- 41.184
1.23 --undefined-- 48.880
1.24 --undefined-- 52.999
1.25 --undefined-- 53.709
1.26 --undefined-- 51.909
1.27 --undefined-- 50.715
1.28 --undefined-- 53.472
1.29 106.454 55.214
1.30 104.181 55.166
1.31 95.258 53.827
1.32 --undefined-- 51.489
1.33 --undefined-- 52.661
1.34 236.581 61.752
1.35 240.597 69.349
1.36 235.246 73.781
1.37 233.015 75.928
1.38 232.917 76.923
1.39 233.937 77.637
1.40 234.769 78.269
1.41 234.696 78.598
1.42 233.819 78.501
1.43 232.765 78.067
1.44 231.834 77.424
1.45 231.153 76.701
1.46 230.710 76.088
1.47 230.645 75.702
1.48 230.537 75.662
1.49 233.694 76.145
1.50 236.816 76.775
1.51 237.841 77.203
1.52 238.491 77.516
1.53 238.399 77.759
1.54 237.681 77.905
1.55 236.348 77.939
1.56 234.817 77.889
1.57 233.681 77.800
1.58 232.802 77.687
1.59 231.682 77.528
1.60 230.556 77.315
1.61 229.277 77.054
1.62 227.826 76.674
1.63 225.973 76.155
1.64 225.526 75.601
1.65 223.946 75.054
1.66 223.069 74.592
1.67 222.221 74.226
1.68 221.138 73.925
1.69 220.224 73.962
1.70 224.371 74.909
1.71 224.765 76.123
1.72 224.133 76.571
1.73 224.642 76.377
1.74 225.664 76.032
1.75 225.501 75.776
1.76 225.046 75.696
1.77 224.621 75.780
1.78 224.578 75.957
1.79 225.104 76.128
1.80 225.424 76.132
1.81 223.845 75.932
1.82 221.590 76.003
1.83 223.681 76.463
1.84 223.066 76.723
1.85 222.033 76.714
1.86 221.257 76.618
1.87 220.766 76.504
1.88 220.459 76.393
1.89 220.385 76.311
1.90 220.781 76.257
1.91 221.095 76.178
1.92 221.242 76.001
1.93 221.157 75.659
1.94 220.821 75.102
1.95 219.885 74.197
1.96 215.624 72.646
1.97 209.782 70.196
1.98 210.221 66.710
1.99 222.470 62.100
2.00 232.894 56.595
2.01 --undefined-- 50.319
2.02 --undefined-- 44.577
2.03 --undefined-- 41.076
2.04 --undefined-- 38.608
2.05 --undefined-- 36.669
2.06 --undefined-- 36.816
2.07 --undefined-- 38.202
2.08 --undefined-- 38.350
2.09 --undefined-- 37.108
2.10 --undefined-- 35.676
2.11 --undefined-- 35.865
2.12 --undefined-- 36.240
2.13 --undefined-- 35.359
2.14 --undefined-- 33.401
2.15 --undefined-- 30.996
2.16 --undefined-- 31.906
2.17 --undefined-- 34.263
2.18 --undefined-- 34.678
2.19 --undefined-- 33.214
2.20 --undefined-- 31.884
2.21 --undefined-- 31.739
2.22 --undefined-- 32.049
2.23 --undefined-- 34.071
2.24 --undefined-- 35.538
2.25 --undefined-- 36.103
2.26 --undefined-- 38.768
2.27 --undefined-- 42.245
2.28 --undefined-- 45.455
2.29 --undefined-- 47.455
2.30 --undefined-- 49.311
2.31 --undefined-- 57.104
2.32 211.081 65.218
2.33 206.139 70.002
2.34 198.160 72.150
2.35 193.338 72.749
2.36 190.416 72.844
2.37 189.099 72.970
2.38 188.326 72.873
2.39 186.630 72.179
2.40 182.985 71.197
2.41 183.600 70.453
2.42 181.334 69.734
2.43 179.788 69.262
2.44 179.648 69.537
2.45 174.746 69.951
2.46 169.924 69.657
2.47 163.845 68.751
2.48 156.451 67.881
2.49 151.672 67.301
2.50 148.093 66.897
2.51 145.674 66.543
2.52 145.095 66.187
2.53 145.758 65.864
2.54 148.448 65.594
2.55 151.183 65.138
2.56 151.905 63.922
2.57 149.831 61.596
2.58 154.324 58.465
2.59 154.558 54.418
2.60 --undefined-- 48.150
2.61 --undefined-- 39.180
2.62 --undefined-- 35.798
2.63 --undefined-- 38.127
2.64 --undefined-- 39.627
2.65 --undefined-- 40.469
2.66 --undefined-- 41.980
2.67 --undefined-- 43.264
2.68 --undefined-- 43.754
2.69 --undefined-- 43.998
2.70 --undefined-- 44.615
2.71 --undefined-- 47.844
2.72 --undefined-- 55.855
2.73 192.208 62.011
2.74 180.056 65.595
2.75 179.270 67.780
2.76 180.820 69.344
2.77 181.957 70.550
2.78 181.884 71.530
2.79 181.764 72.222
2.80 181.219 72.377
2.81 180.147 71.620
2.82 177.442 69.375
2.83 174.144 65.067
2.84 186.001 58.429
2.85 --undefined-- 49.642
2.86 --undefined-- 42.410
2.87 --undefined-- 50.624
2.88 --undefined-- 59.371
2.89 --undefined-- 65.923
2.90 187.759 69.760
2.91 181.558 71.509
2.92 177.040 72.204
2.93 174.801 72.392
2.94 173.656 72.317
2.95 174.499 72.167
2.96 177.243 72.000
2.97 182.394 71.852
2.98 191.395 71.635
2.99 198.147 71.307
3.00 204.657 71.331
3.01 216.349 72.760
3.02 225.569 74.386
3.03 231.252 74.944
3.04 237.587 74.255
3.05 241.008 71.900
3.06 244.507 67.273
3.07 253.705 60.205
3.08 --undefined-- 54.008
3.09 --undefined-- 58.026
3.10 241.938 65.166
3.11 233.329 69.249
3.12 220.086 70.741
3.13 199.330 70.852
3.14 179.273 70.626
3.15 168.232 70.392
3.16 163.539 69.754
3.17 160.391 67.975
3.18 155.887 64.206
3.19 --undefined-- 57.738
3.20 --undefined-- 48.537
3.21 --undefined-- 42.833
3.22 --undefined-- 51.308
3.23 --undefined-- 61.434
3.24 190.814 67.408
3.25 176.132 70.060
3.26 169.191 70.666
3.27 165.284 70.471
3.28 162.876 70.298
3.29 161.349 70.317
3.30 160.827 70.390
3.31 160.875 70.352
3.32 160.654 70.157
3.33 159.952 69.892
3.34 158.617 69.351
3.35 157.942 68.092
3.36 154.796 65.748
3.37 155.499 62.426
3.38 169.363 61.308
3.39 173.180 64.539
3.40 171.255 67.509
3.41 171.014 69.361
3.42 170.464 70.473
3.43 169.850 71.077
3.44 169.872 71.186
3.45 168.956 70.717
3.46 170.356 70.078
3.47 172.858 69.908
3.48 172.836 70.003
3.49 173.413 70.159
3.50 172.426 70.412
3.51 168.679 70.420
3.52 165.696 70.015
3.53 162.388 69.446
3.54 159.257 68.888
3.55 156.854 68.441
3.56 154.990 68.263
3.57 154.075 68.376
3.58 153.672 68.645
3.59 153.129 68.811
3.60 151.912 68.781
3.61 151.393 68.838
3.62 154.270 68.977
3.63 154.101 69.032
3.64 153.905 68.983
3.65 153.729 68.879
3.66 153.605 68.783
3.67 153.461 68.722
3.68 152.703 68.710
3.69 153.741 68.816
3.70 154.491 69.019
3.71 150.763 69.098
3.72 148.520 68.967
3.73 145.784 68.733
3.74 143.247 68.460
3.75 141.790 68.131
3.76 139.148 67.765
3.77 136.595 67.308
3.78 132.334 67.032
3.79 133.570 67.182
3.80 134.882 67.265
3.81 134.256 67.238
3.82 133.680 67.264
3.83 133.334 67.249
3.84 132.140 67.168
3.85 130.354 66.920
3.86 130.369 66.431
3.87 --undefined-- 65.866
3.88 --undefined-- 64.156
3.89 --undefined-- 60.889
3.90 --undefined-- 58.064
3.91 --undefined-- 54.350
3.92 --undefined-- 47.723
3.93 --undefined-- 39.231
3.94 --undefined-- 35.601
3.95 --undefined-- 38.247
3.96 --undefined-- 39.043
3.97 --undefined-- 37.229
3.98 --undefined-- 34.501
3.99 --undefined-- 32.761
4.00 --undefined-- 32.291
4.01 --undefined-- 32.872
4.02 --undefined-- 33.280
4.03 --undefined-- 31.997
4.04 --undefined-- 31.730
4.05 --undefined-- 33.151
4.06 --undefined-- 33.947
4.07 --undefined-- 35.129
4.08 --undefined-- 37.179
4.09 --undefined-- 38.518
4.10 --undefined-- 37.984
4.11 --undefined-- 36.203
4.12 --undefined-- 35.598
4.13 --undefined-- 36.622
4.14 --undefined-- 36.666
4.15 --undefined-- 36.416
4.16 --undefined-- 37.699
4.17 --undefined-- 38.306
4.18 --undefined-- 37.022
4.19 --undefined-- 35.620
4.20 --undefined-- 36.357
4.21 --undefined-- 36.648
4.22 --undefined-- 35.556
4.23 --undefined-- 35.673
4.24 --undefined-- 36.797
4.25 --undefined-- 37.569
4.26 --undefined-- 37.971
4.27 --undefined-- 37.749
4.28 --undefined-- 36.599
4.29 --undefined-- 35.906
4.30 --undefined-- 42.836
4.31 --undefined-- 49.361
4.32 --undefined-- 52.616
4.33 --undefined-- 53.393
4.34 --undefined-- 53.577
4.35 --undefined-- 62.109
4.36 241.235 70.519
4.37 232.138 75.196
4.38 222.162 77.095
4.39 218.996 77.493
4.40 221.906 77.345
4.41 229.671 76.986
4.42 227.976 76.476
4.43 225.763 75.941
4.44 225.583 75.625
4.45 226.406 75.577
4.46 226.240 75.685
4.47 224.319 75.835
4.48 220.434 76.045
4.49 216.308 76.135
4.50 212.452 75.750
4.51 209.750 74.937
4.52 208.114 73.903
4.53 206.135 72.742
4.54 202.365 71.901
4.55 202.163 71.905
4.56 203.963 72.320
4.57 204.078 72.569
4.58 203.993 72.668
4.59 203.277 72.658
4.60 201.370 72.515
4.61 198.786 72.250
4.62 195.584 71.784
4.63 190.534 71.066
4.64 183.475 70.349
4.65 178.499 70.359
4.66 176.066 71.170
4.67 173.465 71.934
4.68 170.632 72.124
4.69 167.187 71.836
4.70 164.387 71.436
4.71 162.838 70.935
4.72 160.757 70.275
4.73 159.697 69.616
4.74 158.961 69.122
4.75 157.853 68.774
4.76 157.058 68.518
4.77 156.839 68.356
4.78 157.398 68.253
4.79 157.675 68.095
4.80 158.147 67.882
4.81 158.614 67.799
4.82 158.916 67.942
4.83 159.212 68.131
4.84 159.812 68.298
4.85 161.100 68.426
4.86 161.996 68.391
4.87 162.139 68.034
4.88 161.053 67.214
4.89 154.532 65.825
4.90 145.761 64.396
4.91 228.070 63.713
4.92 229.853 62.830
4.93 230.345 60.464
4.94 --undefined-- 56.271
4.95 --undefined-- 52.813
4.96 --undefined-- 54.142
4.97 --undefined-- 57.465
4.98 108.814 60.571
4.99 --undefined-- 62.928
5.00 --undefined-- 64.482
5.01 182.295 66.018
5.02 188.637 67.643
5.03 191.332 69.006
5.04 191.685 70.109
5.05 189.894 71.037
5.06 187.368 71.722
5.07 185.490 71.998
5.08 183.948 72.029
5.09 182.366 72.137
5.10 180.772 72.323
5.11 179.142 72.340
5.12 178.174 71.914
5.13 178.305 70.713
5.14 177.669 68.405
5.15 174.324 65.138
5.16 175.404 61.265
5.17 178.301 56.593
5.18 --undefined-- 50.015
5.19 --undefined-- 41.594
5.20 --undefined-- 42.359
5.21 --undefined-- 53.836
5.22 --undefined-- 62.365
5.23 --undefined-- 67.037
5.24 186.751 69.071
5.25 190.246 69.838
5.26 193.350 70.265
5.27 196.723 70.588
5.28 200.576 70.864
5.29 205.688 71.187
5.30 211.071 71.181
5.31 213.253 69.707
5.32 210.018 65.685
5.33 225.359 58.587
5.34 --undefined-- 49.778
5.35 --undefined-- 50.507
5.36 --undefined-- 61.383
5.37 277.090 68.412
5.38 268.539 71.759
5.39 261.161 72.639
5.40 259.758 72.272
5.41 258.713 71.457
5.42 258.246 70.335
5.43 252.086 68.618
5.44 242.510 65.563
5.45 241.337 60.121
5.46 --undefined-- 51.564
5.47 --undefined-- 41.495
5.48 --undefined-- 38.112
5.49 --undefined-- 37.074
5.50 --undefined-- 37.099
5.51 --undefined-- 39.272
5.52 --undefined-- 46.021
5.53 --undefined-- 57.473
5.54 229.025 65.441
5.55 221.583 69.592
5.56 210.262 71.000
5.57 198.742 70.853
5.58 192.945 70.443
5.59 190.068 70.324
5.60 188.822 70.399
5.61 188.491 70.425
5.62 188.163 70.373
5.63 187.735 70.308
5.64 187.316 70.253
5.65 186.868 70.148
5.66 185.359 69.729
5.67 183.263 68.470
5.68 180.531 65.508
5.69 178.683 60.078
5.70 --undefined-- 51.418
5.71 --undefined-- 42.191
5.72 --undefined-- --undefined--
5.73 --undefined-- --undefined--
5.74 --undefined-- --undefined--
5.75 --undefined-- --undefined--
