Time Pitch Intensity
0.01 --undefined-- --undefined--
0.02 239.467 --undefined--
0.03 241.170 --undefined--
0.04 237.340 --undefined--
0.05 229.843 65.314
0.06 236.397 58.915
0.07 238.192 53.783
0.08 --undefined-- 52.717
0.09 --undefined-- 59.314
0.10 --undefined-- 68.161
0.11 --undefined-- 73.481
0.12 --undefined-- 75.728
0.13 --undefined-- 75.874
0.14 --undefined-- 74.545
0.15 --undefined-- 71.734
0.16 --undefined-- 66.911
0.17 --undefined-- 59.416
0.18 --undefined-- 51.791
0.19 --undefined-- 49.038
0.20 --undefined-- 47.915
0.21 --undefined-- 51.428
0.22 --undefined-- 56.768
0.23 --undefined-- 58.659
0.24 --undefined-- 56.901
0.25 --undefined-- 61.767
0.26 --undefined-- 70.229
0.27 --undefined-- 74.661
0.28 --undefined-- 76.102
0.29 204.005 76.531
0.30 205.285 77.095
0.31 206.415 77.385
0.32 208.396 77.175
0.33 211.714 76.431
0.34 216.627 75.246
0.35 217.202 74.066
0.36 215.182 73.329
0.37 213.022 72.454
0.38 209.383 70.608
0.39 201.216 67.439
0.40 181.932 63.160
0.41 180.999 58.657
0.42 --undefined-- 58.157
0.43 --undefined-- 65.085
0.44 202.072 70.914
0.45 190.871 74.095
0.46 186.073 75.687
0.47 180.192 76.280
0.48 173.532 76.023
0.49 171.660 75.738
0.50 170.901 75.833
0.51 170.406 75.961
0.52 170.322 75.932
0.53 170.339 75.715
0.54 169.931 75.446
0.55 169.330 75.136
0.56 169.196 74.543
0.57 169.210 73.423
0.58 168.574 71.536
0.59 167.344 68.550
0.60 168.908 64.167
0.61 168.463 58.555
0.62 168.634 53.494
0.63 168.668 50.680
0.64 165.783 49.021
0.65 --undefined-- 47.662
0.66 --undefined-- 47.764
0.67 --undefined-- 49.303
0.68 --undefined-- 50.504
0.69 --undefined-- 50.747
0.70 --undefined-- 50.338
0.71 --undefined-- 49.695
0.72 --undefined-- 49.238
0.73 --undefined-- 49.573
0.74 --undefined-- 50.257
0.75 --undefined-- 50.460
0.76 --undefined-- 49.826
0.77 --undefined-- 49.245
0.78 --undefined-- 49.137
0.79 --undefined-- 48.829
0.80 --undefined-- 48.267
0.81 --undefined-- 47.490
0.82 --undefined-- 47.076
0.83 --undefined-- 46.261
0.84 --undefined-- 45.048
0.85 --undefined-- 44.520
0.86 --undefined-- 43.525
0.87 --undefined-- 41.535
0.88 --undefined-- 40.089
0.89 --undefined-- 40.389
0.90 --undefined-- 43.060
0.91 --undefined-- 47.615
0.92 --undefined-- 51.458
0.93 --undefined-- 54.012
0.94 --undefined-- 56.153
0.95 --undefined-- 58.334
0.96 --undefined-- 61.050
0.97 --undefined-- 66.423
0.98 269.761 72.188
0.99 290.820 75.920
1.00 151.908 77.717
1.01 151.320 78.100
1.02 150.046 77.737
1.03 150.207 77.268
1.04 151.380 76.703
1.05 152.936 75.721
1.06 154.688 74.191
1.07 155.561 72.446
1.08 154.056 71.048
1.09 151.984 70.506
1.10 151.306 70.726
1.11 151.556 71.089
1.12 152.208 71.277
1.13 152.592 71.326
1.14 152.178 71.347
1.15 151.326 71.356
1.16 150.373 71.291
1.17 298.911 71.127
1.18 296.267 70.883
1.19 293.514 70.628
1.20 289.249 70.444
1.21 282.034 70.064
1.22 270.546 68.722
1.23 251.008 65.890
1.24 248.801 62.169
1.25 268.312 64.852
1.26 271.629 71.466
1.27 265.001 75.044
1.28 252.623 75.920
1.29 227.414 75.621
1.30 216.295 75.702
1.31 208.089 76.099
1.32 199.670 76.333
1.33 193.048 76.338
1.34 188.215 76.259
1.35 185.814 76.013
1.36 186.311 75.359
1.37 190.197 74.167
1.38 206.724 72.753
1.39 229.260 71.501
1.40 232.113 70.020
1.41 231.373 68.746
1.42 234.129 68.465
1.43 239.751 69.157
1.44 248.672 70.632
1.45 254.841 72.170
1.46 254.470 73.240
1.47 251.738 73.982
1.48 248.503 74.470
1.49 245.193 74.728
1.50 244.457 74.886
1.51 245.641 74.788
1.52 245.771 74.374
1.53 245.543 73.989
1.54 247.455 73.999
1.55 248.444 74.204
1.56 248.184 74.256
1.57 247.316 74.099
1.58 245.480 73.796
1.59 242.696 73.254
1.60 238.316 72.292
1.61 229.989 70.730
1.62 219.372 68.303
1.63 209.485 65.004
1.64 213.995 61.505
1.65 221.878 57.517
1.66 --undefined-- 52.102
1.67 --undefined-- 48.122
1.68 --undefined-- 49.775
1.69 --undefined-- 57.315
1.70 --undefined-- 65.493
1.71 --undefined-- 71.745
1.72 251.836 75.041
1.73 245.368 75.823
1.74 237.897 75.476
1.75 233.193 75.220
1.76 229.982 75.169
1.77 228.080 75.017
1.78 226.653 74.641
1.79 225.381 74.283
1.80 224.102 73.992
1.81 222.516 73.628
1.82 221.361 73.207
1.83 222.258 72.903
1.84 224.244 72.736
1.85 225.778 72.685
1.86 225.188 72.801
1.87 222.808 73.002
1.88 220.157 73.040
1.89 216.031 72.745
1.90 209.969 72.376
1.91 204.213 72.305
1.92 199.664 72.211
1.93 191.686 71.799
1.94 184.535 71.227
1.95 177.537 71.089
1.96 174.890 72.099
1.97 173.656 73.574
1.98 172.083 74.094
1.99 164.156 73.337
2.00 157.282 72.017
2.01 149.130 70.904
2.02 145.348 70.473
2.03 145.971 70.846
2.04 148.119 72.102
2.05 150.856 73.432
2.06 155.120 74.206
2.07 159.653 74.672
2.08 163.691 75.035
2.09 165.708 75.178
2.10 166.452 74.779
2.11 167.254 73.312
2.12 167.523 70.446
2.13 172.858 66.817
2.14 171.381 63.393
2.15 167.851 59.345
2.16 --undefined-- 54.287
2.17 --undefined-- 50.902
2.18 --undefined-- 49.255
2.19 --undefined-- 48.052
2.20 --undefined-- 54.505
2.21 --undefined-- 61.776
2.22 --undefined-- 67.999
2.23 226.133 72.830
2.24 214.927 75.116
2.25 207.014 75.496
2.26 203.456 75.380
2.27 201.882 75.408
2.28 199.246 75.487
2.29 197.049 75.464
2.30 195.046 75.390
2.31 193.230 75.338
2.32 192.195 75.222
2.33 191.699 74.996
2.34 191.108 74.620
2.35 191.086 74.097
2.36 190.453 73.461
2.37 189.916 73.023
2.38 191.490 73.176
2.39 191.971 73.797
2.40 192.093 74.588
2.41 191.457 75.206
2.42 189.376 75.545
2.43 186.969 75.661
2.44 185.197 75.650
2.45 183.941 75.446
2.46 183.888 74.856
2.47 181.496 73.825
2.48 179.892 72.440
2.49 183.073 71.092
2.50 183.771 70.383
2.51 173.796 70.361
2.52 166.697 70.922
2.53 162.518 71.870
2.54 157.824 72.724
2.55 152.705 73.095
2.56 149.040 73.064
2.57 147.011 72.853
2.58 146.022 72.040
2.59 144.148 69.628
2.60 142.179 64.812
2.61 --undefined-- 57.917
2.62 --undefined-- 51.641
2.63 --undefined-- 49.827
2.64 --undefined-- 55.839
2.65 --undefined-- 61.492
2.66 --undefined-- 63.578
2.67 --undefined-- 62.235
2.68 --undefined-- 59.583
2.69 --undefined-- 62.685
2.70 205.801 68.105
2.71 196.966 71.452
2.72 192.817 73.067
2.73 189.375 73.718
2.74 185.998 73.439
2.75 180.773 71.450
2.76 170.645 67.001
2.77 174.489 60.430
2.78 186.373 53.888
2.79 --undefined-- 49.199
2.80 --undefined-- 46.933
2.81 --undefined-- 46.078
2.82 --undefined-- 45.243
2.83 --undefined-- 44.008
2.84 --undefined-- 43.249
2.85 --undefined-- 42.407
2.86 --undefined-- 41.609
2.87 --undefined-- 46.072
2.88 --undefined-- 53.029
2.89 --undefined-- 61.674
2.90 --undefined-- 68.789
2.91 184.387 72.839
2.92 176.114 74.422
2.93 169.135 74.715
2.94 162.345 74.646
2.95 155.806 74.309
2.96 149.933 73.558
2.97 145.720 72.506
2.98 142.544 71.163
2.99 141.557 69.609
3.00 142.949 68.519
3.01 144.104 68.226
3.02 145.987 68.410
3.03 146.934 68.692
3.04 147.060 68.705
3.05 147.889 68.519
3.06 148.813 68.473
3.07 149.024 68.366
3.08 149.471 67.969
3.09 149.753 67.540
3.10 149.167 67.075
3.11 148.326 66.205
3.12 146.255 65.177
3.13 --undefined-- 66.183
3.14 --undefined-- 70.601
3.15 177.541 74.304
3.16 176.364 75.945
3.17 175.344 76.392
3.18 173.054 76.563
3.19 168.990 76.433
3.20 163.441 75.834
3.21 157.146 74.989
3.22 122.892 73.690
3.23 85.611 71.214
3.24 85.848 67.109
3.25 --undefined-- 61.188
3.26 --undefined-- 54.020
3.27 --undefined-- 51.104
3.28 --undefined-- 50.969
3.29 --undefined-- 50.972
3.30 --undefined-- 51.821
3.31 --undefined-- 53.227
3.32 --undefined-- 53.668
3.33 --undefined-- 52.522
3.34 --undefined-- 50.322
3.35 --undefined-- 49.417
3.36 --undefined-- 49.837
3.37 --undefined-- 49.933
3.38 --undefined-- 49.819
3.39 --undefined-- 49.691
3.40 --undefined-- 49.635
3.41 --undefined-- 50.322
3.42 --undefined-- 51.389
3.43 --undefined-- 51.900
3.44 --undefined-- 52.153
3.45 --undefined-- 52.259
3.46 --undefined-- 51.727
3.47 --undefined-- 51.195
3.48 --undefined-- 51.009
3.49 --undefined-- 51.217
3.50 --undefined-- 51.903
3.51 --undefined-- 52.208
3.52 --undefined-- 51.186
3.53 --undefined-- 49.064
3.54 --undefined-- 46.624
3.55 --undefined-- 44.358
3.56 --undefined-- 43.421
3.57 --undefined-- 43.511
3.58 --undefined-- 42.449
3.59 --undefined-- 40.695
3.60 --undefined-- 40.834
3.61 --undefined-- 46.701
3.62 --undefined-- 56.259
3.63 --undefined-- 64.360
3.64 184.572 70.115
3.65 186.924 73.453
3.66 188.520 75.089
3.67 190.134 75.793
3.68 190.139 75.771
3.69 189.162 74.979
3.70 191.024 74.290
3.71 201.078 74.584
3.72 208.551 74.935
3.73 214.053 74.862
3.74 219.120 74.402
3.75 224.042 73.802
3.76 227.869 73.439
3.77 231.132 73.279
3.78 235.379 73.190
3.79 239.616 73.401
3.80 243.924 73.786
3.81 249.306 74.024
3.82 251.997 73.925
3.83 253.257 73.492
3.84 253.575 73.283
3.85 255.807 74.044
3.86 256.607 75.206
3.87 254.352 75.911
3.88 247.491 76.445
3.89 234.327 76.860
3.90 219.198 76.830
3.91 205.679 76.658
3.92 198.363 76.510
3.93 190.330 76.104
3.94 181.601 75.621
3.95 176.047 75.277
3.96 170.266 74.788
3.97 167.588 74.181
3.98 167.017 74.168
3.99 166.740 74.597
4.00 167.628 74.587
4.01 168.355 74.096
4.02 169.358 73.662
4.03 169.959 73.396
4.04 169.574 73.138
4.05 169.413 72.693
4.06 169.574 71.553
4.07 167.647 69.251
4.08 165.929 65.615
4.09 165.910 60.963
4.10 167.022 56.728
4.11 173.208 53.987
4.12 168.954 52.143
4.13 --undefined-- 50.849
4.14 --undefined-- 50.389
4.15 --undefined-- 53.264
4.16 --undefined-- 61.906
4.17 231.122 68.997
4.18 226.325 73.146
4.19 224.013 74.902
4.20 222.372 75.347
4.21 221.422 75.424
4.22 221.016 75.636
4.23 220.865 75.893
4.24 221.474 75.929
4.25 222.362 75.693
4.26 222.992 75.241
4.27 222.993 74.671
4.28 223.253 74.092
4.29 222.316 73.529
4.30 219.181 73.125
4.31 216.616 73.116
4.32 213.940 73.395
4.33 210.447 73.629
4.34 206.231 73.755
4.35 202.633 73.952
4.36 199.250 74.264
4.37 194.940 74.615
4.38 190.327 75.075
4.39 185.754 75.752
4.40 182.930 76.233
4.41 178.921 76.210
4.42 174.723 76.194
4.43 170.846 76.394
4.44 167.308 76.347
4.45 164.312 75.897
4.46 162.405 74.957
4.47 162.105 73.672
4.48 162.588 72.495
4.49 162.168 71.434
4.50 161.770 69.979
4.51 161.184 68.213
4.52 162.694 67.171
4.53 164.707 66.710
4.54 165.308 65.931
4.55 170.708 64.251
4.56 185.563 61.181
4.57 196.046 56.918
4.58 166.840 53.863
4.59 157.635 52.124
4.60 --undefined-- 49.428
4.61 --undefined-- 46.347
4.62 --undefined-- 46.601
4.63 --undefined-- 56.817
4.64 --undefined-- 66.350
4.65 200.370 72.033
4.66 194.698 74.786
4.67 191.173 75.593
4.68 188.676 75.484
4.69 187.692 75.170
4.70 187.719 74.862
4.71 188.107 74.458
4.72 188.453 73.925
4.73 188.487 73.428
4.74 190.022 73.075
4.75 195.894 72.630
4.76 207.317 71.504
4.77 212.740 69.162
4.78 208.954 65.476
4.79 195.854 60.753
4.80 --undefined-- 56.055
4.81 --undefined-- 53.155
4.82 --undefined-- 51.894
4.83 --undefined-- 50.818
4.84 --undefined-- 50.111
4.85 --undefined-- 53.710
4.86 --undefined-- 62.248
4.87 224.883 68.590
4.88 224.244 72.380
4.89 221.692 74.395
4.90 216.094 75.136
4.91 211.981 75.328
4.92 209.583 75.347
4.93 206.660 75.068
4.94 205.005 74.725
4.95 205.411 74.870
4.96 206.248 75.440
4.97 204.956 75.989
4.98 203.978 76.354
4.99 203.614 76.475
5.00 202.088 76.482
5.01 201.143 76.616
5.02 200.491 76.665
5.03 200.241 76.329
5.04 200.543 75.671
5.05 201.451 75.071
5.06 202.848 74.626
5.07 204.603 74.099
5.08 205.658 73.385
5.09 205.816 72.470
5.10 204.715 71.276
5.11 203.894 70.347
5.12 203.420 70.043
5.13 201.260 70.027
5.14 199.384 70.000
5.15 196.952 69.677
5.16 193.286 68.809
5.17 191.838 67.186
5.18 191.920 64.372
5.19 198.881 60.207
5.20 --undefined-- 56.690
5.21 --undefined-- --undefined--
5.22 --undefined-- --undefined--
5.23 --undefined-- --undefined--
5.24 --undefined-- --undefined--
