Time Pitch Intensity
0.01 --undefined-- --undefined--
0.02 198.660 --undefined--
0.03 178.131 --undefined--
0.04 165.681 --undefined--
0.05 164.200 77.152
0.06 165.141 77.045
0.07 164.834 76.266
0.08 164.550 75.219
0.09 166.089 74.533
0.10 165.716 74.203
0.11 164.410 73.977
0.12 162.153 73.833
0.13 159.514 73.959
0.14 157.313 74.521
0.15 156.528 75.634
0.16 155.125 76.805
0.17 151.318 77.275
0.18 143.556 77.085
0.19 139.419 76.749
0.20 134.787 76.346
0.21 131.131 75.936
0.22 131.480 75.952
0.23 130.501 76.213
0.24 129.402 76.394
0.25 128.307 76.400
0.26 124.512 76.108
0.27 122.076 75.675
0.28 118.220 75.514
0.29 115.274 75.578
0.30 113.788 75.499
0.31 113.244 75.292
0.32 113.170 75.153
0.33 112.894 75.041
0.34 113.394 74.943
0.35 112.450 74.940
0.36 113.613 74.905
0.37 118.033 74.855
0.38 115.488 75.064
0.39 115.272 75.522
0.40 110.243 75.917
0.41 108.056 75.876
0.42 103.140 75.361
0.43 101.414 74.757
0.44 103.388 74.456
0.45 105.052 74.505
0.46 105.573 74.469
0.47 104.522 73.951
0.48 102.209 72.633
0.49 102.296 70.058
0.50 105.545 65.829
0.51 --undefined-- 59.617
0.52 --undefined-- 53.722
0.53 --undefined-- 52.096
0.54 --undefined-- 51.405
0.55 --undefined-- 51.151
0.56 --undefined-- 50.775
0.57 --undefined-- 50.093
0.58 --undefined-- 49.714
0.59 --undefined-- 49.534
0.60 --undefined-- 49.372
0.61 --undefined-- 49.238
0.62 --undefined-- 48.906
0.63 --undefined-- 48.287
0.64 --undefined-- 46.776
0.65 --undefined-- 43.820
0.66 --undefined-- 41.731
0.67 --undefined-- 41.607
0.68 --undefined-- 41.944
0.69 --undefined-- 43.817
0.70 --undefined-- 56.117
0.71 --undefined-- 67.028
0.72 203.540 73.476
0.73 170.704 77.043
0.74 151.822 78.903
0.75 147.436 79.204
0.76 141.330 77.672
0.77 135.819 74.616
0.78 144.619 71.451
0.79 146.004 69.073
0.80 153.895 67.461
0.81 166.635 66.617
0.82 179.239 65.502
0.83 187.702 63.831
0.84 193.374 65.232
0.85 248.685 72.771
0.86 254.125 78.913
0.87 240.454 82.171
0.88 231.202 83.184
0.89 229.345 82.940
0.90 231.239 82.105
0.91 232.196 80.816
0.92 230.790 79.248
0.93 227.449 77.877
0.94 215.852 77.118
0.95 207.708 76.814
0.96 197.511 76.293
0.97 185.765 75.622
0.98 175.461 75.386
0.99 166.763 75.646
1.00 158.975 76.185
1.01 154.220 77.051
1.02 151.668 78.201
1.03 150.245 79.390
1.04 150.735 80.324
1.05 149.872 80.656
1.06 147.036 80.229
1.07 145.010 79.499
1.08 145.423 79.096
1.09 146.282 78.837
1.10 145.937 77.877
1.11 141.300 75.530
1.12 135.821 71.986
1.13 135.668 68.030
1.14 --undefined-- 63.181
1.15 --undefined-- 56.758
1.16 --undefined-- 49.459
1.17 --undefined-- 47.150
1.18 --undefined-- 58.565
1.19 --undefined-- 67.649
1.20 --undefined-- 73.026
1.21 --undefined-- 75.623
1.22 122.374 76.371
1.23 119.446 76.244
1.24 118.488 76.000
1.25 116.899 75.880
1.26 115.290 75.864
1.27 114.759 75.875
1.28 115.891 75.863
1.29 116.272 75.598
1.30 114.429 74.532
1.31 110.006 72.150
1.32 107.628 68.360
1.33 114.726 64.365
1.34 108.778 63.198
1.35 --undefined-- 64.381
1.36 --undefined-- 64.801
1.37 --undefined-- 64.855
1.38 --undefined-- 68.653
1.39 127.964 72.430
1.40 120.481 74.123
1.41 118.127 74.467
1.42 117.529 74.193
1.43 118.055 73.724
1.44 121.726 73.448
1.45 124.429 73.458
1.46 125.981 73.666
1.47 126.988 74.012
1.48 127.800 74.171
1.49 125.486 73.757
1.50 125.567 72.692
1.51 125.422 70.657
1.52 124.579 67.083
1.53 122.557 61.578
1.54 --undefined-- 54.004
1.55 --undefined-- 47.996
1.56 --undefined-- 51.667
1.57 --undefined-- 60.207
1.58 --undefined-- 68.208
1.59 --undefined-- 72.924
1.60 140.021 74.925
1.61 120.201 75.728
1.62 117.146 76.410
1.63 115.866 76.800
1.64 115.411 76.686
1.65 115.775 76.266
1.66 117.175 75.878
1.67 118.098 75.582
1.68 119.028 75.014
1.69 117.458 73.922
1.70 116.818 72.646
1.71 118.179 71.920
1.72 116.571 71.902
1.73 120.913 72.490
1.74 131.337 73.691
1.75 142.627 75.737
1.76 152.640 77.900
1.77 158.396 79.490
1.78 162.201 80.586
1.79 163.121 81.392
1.80 163.758 81.854
1.81 165.169 81.832
1.82 168.805 81.532
1.83 175.747 81.104
1.84 179.535 80.477
1.85 182.556 79.746
1.86 183.814 78.891
1.87 185.632 77.779
1.88 188.191 76.435
1.89 190.143 75.074
1.90 191.768 73.860
1.91 95.729 72.665
1.92 93.561 71.609
1.93 90.170 70.803
1.94 259.795 69.835
1.95 236.491 68.556
1.96 236.798 68.748
1.97 235.244 70.480
1.98 240.877 71.241
1.99 232.237 71.336
2.00 217.032 71.963
2.01 --undefined-- 72.174
2.02 --undefined-- 71.348
2.03 130.205 70.124
2.04 131.242 69.040
2.05 127.988 69.291
2.06 124.899 70.757
2.07 119.510 72.185
2.08 112.806 73.257
2.09 112.452 74.046
2.10 112.428 74.595
2.11 113.234 74.990
2.12 114.774 75.232
2.13 114.730 75.199
2.14 115.111 75.276
2.15 118.452 75.568
2.16 120.844 75.669
2.17 121.393 75.465
2.18 121.205 75.080
2.19 120.110 74.757
2.20 119.040 74.778
2.21 117.756 75.160
2.22 117.442 75.506
2.23 117.591 75.574
2.24 117.314 75.277
2.25 115.167 74.302
2.26 111.957 72.190
2.27 106.191 68.734
2.28 113.681 64.279
2.29 116.059 59.888
2.30 --undefined-- 56.826
2.31 --undefined-- 55.121
2.32 --undefined-- 54.196
2.33 --undefined-- 55.088
2.34 --undefined-- 57.994
2.35 --undefined-- 60.049
2.36 --undefined-- 60.117
2.37 --undefined-- 58.651
2.38 --undefined-- 57.716
2.39 --undefined-- 59.126
2.40 --undefined-- 60.917
2.41 --undefined-- 62.414
2.42 --undefined-- 65.029
2.43 116.613 68.009
2.44 107.649 70.069
2.45 101.082 71.107
2.46 98.685 71.394
2.47 94.322 71.219
2.48 93.584 70.812
2.49 93.419 70.359
2.50 93.261 70.258
2.51 99.676 70.651
2.52 100.264 70.700
2.53 100.538 69.587
2.54 99.866 67.378
2.55 --undefined-- 64.662
2.56 96.149 62.249
2.57 93.653 62.483
2.58 89.403 67.473
2.59 165.496 72.617
2.60 148.624 75.380
2.61 135.446 76.266
2.62 133.828 76.100
2.63 133.949 75.564
2.64 135.685 75.253
2.65 140.126 75.490
2.66 144.963 76.022
2.67 148.878 76.560
2.68 153.895 77.039
2.69 160.345 77.260
2.70 163.719 77.033
2.71 166.314 76.515
2.72 166.903 75.784
2.73 162.794 74.178
2.74 154.499 70.832
2.75 148.897 65.267
2.76 --undefined-- 57.800
2.77 --undefined-- 51.348
2.78 --undefined-- 49.144
2.79 --undefined-- 49.612
2.80 --undefined-- 49.554
2.81 --undefined-- 48.280
2.82 --undefined-- 47.496
2.83 --undefined-- 48.006
2.84 --undefined-- 48.632
2.85 --undefined-- 49.221
2.86 --undefined-- 50.707
2.87 --undefined-- 55.638
2.88 --undefined-- 65.634
2.89 245.768 73.272
2.90 221.539 77.519
2.91 206.520 79.255
2.92 194.370 79.476
2.93 190.068 79.103
2.94 186.699 78.685
2.95 185.864 78.116
2.96 186.269 77.305
2.97 189.164 76.739
2.98 190.435 76.496
2.99 190.912 76.242
3.00 192.657 76.012
3.01 194.746 75.940
3.02 196.189 75.995
3.03 196.592 76.111
3.04 195.741 76.226
3.05 194.120 76.277
3.06 192.277 76.263
3.07 190.475 76.193
3.08 188.802 76.074
3.09 187.067 75.953
3.10 186.144 75.849
3.11 184.947 75.720
3.12 182.702 75.592
3.13 180.061 75.486
3.14 177.412 75.382
3.15 175.140 75.282
3.16 172.579 75.110
3.17 169.658 74.813
3.18 165.956 74.488
3.19 161.203 74.269
3.20 155.884 74.080
3.21 149.961 73.964
3.22 147.481 74.695
3.23 145.990 76.115
3.24 146.539 77.259
3.25 144.915 77.904
3.26 138.168 78.274
3.27 135.030 78.346
3.28 129.177 78.003
3.29 125.286 77.749
3.30 122.641 78.080
3.31 121.535 78.673
3.32 120.208 79.014
3.33 119.648 78.909
3.34 117.707 78.329
3.35 116.938 77.581
3.36 116.415 77.055
3.37 115.924 76.693
3.38 115.276 76.209
3.39 114.362 75.516
3.40 113.716 74.753
3.41 112.380 73.934
3.42 111.615 73.103
3.43 112.897 72.117
3.44 110.676 70.066
3.45 104.710 66.239
3.46 102.105 60.694
3.47 --undefined-- 54.671
3.48 --undefined-- 51.429
3.49 --undefined-- 52.068
3.50 --undefined-- 53.486
3.51 --undefined-- 53.809
3.52 --undefined-- 55.365
3.53 --undefined-- 58.477
3.54 --undefined-- 61.004
3.55 --undefined-- 64.834
3.56 --undefined-- 71.003
3.57 128.896 75.048
3.58 118.027 76.477
3.59 112.800 76.357
3.60 109.990 75.893
3.61 108.337 75.449
3.62 108.666 74.604
3.63 107.726 72.717
3.64 105.306 69.570
3.65 107.128 65.707
3.66 115.231 62.294
3.67 96.899 60.508
3.68 93.553 61.249
3.69 91.353 64.978
3.70 --undefined-- 69.859
3.71 118.181 73.393
3.72 109.821 75.168
3.73 107.730 75.824
3.74 105.556 76.057
3.75 105.118 76.169
3.76 105.003 76.215
3.77 105.467 76.189
3.78 105.939 76.103
3.79 106.914 75.986
3.80 107.547 75.901
3.81 108.396 75.891
3.82 110.746 75.877
3.83 112.145 75.607
3.84 113.128 74.930
3.85 115.977 74.539
3.86 123.932 74.749
3.87 130.828 75.079
3.88 134.709 75.633
3.89 138.327 76.070
3.90 142.159 76.115
3.91 145.036 76.018
3.92 144.807 75.777
3.93 143.563 75.001
3.94 138.627 73.265
3.95 135.134 70.146
3.96 139.688 66.194
3.97 --undefined-- 64.748
3.98 --undefined-- 64.500
3.99 --undefined-- 63.012
4.00 --undefined-- 61.034
4.01 --undefined-- 64.304
4.02 --undefined-- 69.492
4.03 103.406 72.465
4.04 99.391 73.628
4.05 95.269 73.825
4.06 89.921 73.438
4.07 89.565 72.570
4.08 89.412 71.358
4.09 91.638 70.459
4.10 94.931 69.885
4.11 94.600 68.602
4.12 92.536 66.414
4.13 102.190 64.323
4.14 118.610 62.651
4.15 127.624 62.521
4.16 131.343 65.858
4.17 125.918 69.630
4.18 115.152 72.320
4.19 110.934 73.747
4.20 107.343 74.358
4.21 106.922 74.558
4.22 106.744 74.742
4.23 109.558 75.101
4.24 110.905 75.513
4.25 111.945 75.901
4.26 112.424 76.074
4.27 113.888 75.844
4.28 114.952 75.053
4.29 114.136 73.499
4.30 113.842 70.912
4.31 --undefined-- 66.951
4.32 --undefined-- 63.997
4.33 --undefined-- 64.140
4.34 --undefined-- 64.045
4.35 --undefined-- 67.101
4.36 136.625 72.357
4.37 132.079 75.153
4.38 122.676 76.112
4.39 117.199 76.507
4.40 115.084 76.628
4.41 113.749 76.366
4.42 114.164 75.777
4.43 116.494 74.973
4.44 117.164 74.096
4.45 116.681 72.927
4.46 117.543 71.055
4.47 116.749 68.187
4.48 109.812 64.258
4.49 --undefined-- 59.886
4.50 --undefined-- 56.555
4.51 --undefined-- 55.132
4.52 --undefined-- 55.778
4.53 --undefined-- 62.041
4.54 201.193 71.256
4.55 200.264 77.313
4.56 180.329 80.753
4.57 169.445 82.398
4.58 178.970 82.753
4.59 184.234 82.024
4.60 187.625 80.808
4.61 188.782 79.786
4.62 188.459 79.030
4.63 184.792 78.281
4.64 176.136 76.963
4.65 173.245 74.651
4.66 168.052 70.549
4.67 --undefined-- 63.749
4.68 --undefined-- 54.795
4.69 --undefined-- 50.998
4.70 --undefined-- 49.328
4.71 --undefined-- 47.786
4.72 --undefined-- 47.475
4.73 --undefined-- 47.551
4.74 --undefined-- 48.129
4.75 --undefined-- 48.832
4.76 --undefined-- 49.058
4.77 --undefined-- 48.791
4.78 --undefined-- 48.576
4.79 --undefined-- 48.947
4.80 --undefined-- 49.654
4.81 --undefined-- 50.169
4.82 --undefined-- 49.652
4.83 --undefined-- 48.723
4.84 --undefined-- 48.470
4.85 --undefined-- 48.355
4.86 --undefined-- 48.224
4.87 --undefined-- 48.638
4.88 --undefined-- 49.111
4.89 --undefined-- 48.362
4.90 --undefined-- 47.285
4.91 --undefined-- 50.192
4.92 --undefined-- 51.852
4.93 --undefined-- 49.830
4.94 --undefined-- 51.292
4.95 --undefined-- 61.838
4.96 --undefined-- 68.382
4.97 --undefined-- 71.555
4.98 --undefined-- 73.126
4.99 115.150 74.643
5.00 114.533 76.142
5.01 114.450 77.155
5.02 115.284 --undefined--
5.03 115.379 --undefined--
5.04 --undefined-- --undefined--
5.05 --undefined-- --undefined--
