Time Pitch Intensity
0.01 --undefined-- --undefined--
0.02 --undefined-- --undefined--
0.03 --undefined-- --undefined--
0.04 --undefined-- --undefined--
0.05 --undefined-- 43.940
0.06 --undefined-- 42.020
0.07 --undefined-- 40.073
0.08 --undefined-- 40.453
0.09 --undefined-- 41.445
0.10 --undefined-- 41.010
0.11 --undefined-- 44.399
0.12 --undefined-- 54.931
0.13 --undefined-- 61.833
0.14 --undefined-- 64.455
0.15 --undefined-- 66.792
0.16 201.766 70.943
0.17 196.619 73.365
0.18 192.197 73.361
0.19 190.109 70.965
0.20 201.142 66.529
0.21 207.568 64.058
0.22 213.949 64.393
0.23 219.140 64.959
0.24 222.079 65.519
0.25 225.094 65.964
0.26 229.318 66.313
0.27 234.002 66.533
0.28 240.233 66.574
0.29 248.083 66.630
0.30 254.565 66.889
0.31 258.734 67.204
0.32 261.738 67.350
0.33 261.952 67.163
0.34 260.856 66.675
0.35 259.648 66.126
0.36 257.558 65.560
0.37 255.634 64.969
0.38 254.681 64.547
0.39 254.747 64.150
0.40 250.478 63.073
0.41 241.923 60.818
0.42 236.937 57.854
0.43 232.442 55.479
0.44 230.951 53.484
0.45 226.743 50.668
0.46 --undefined-- 47.992
0.47 --undefined-- 46.567
0.48 --undefined-- 45.159
0.49 --undefined-- 47.278
0.50 --undefined-- 54.575
0.51 --undefined-- 59.612
0.52 --undefined-- 60.758
0.53 --undefined-- 58.758
0.54 --undefined-- 55.989
0.55 --undefined-- 55.896
0.56 --undefined-- 58.585
0.57 194.066 62.691
0.58 183.806 67.259
0.59 166.440 70.723
0.60 151.865 72.293
0.61 143.230 72.052
0.62 137.726 70.682
0.63 135.757 69.046
0.64 133.834 67.184
0.65 132.022 64.750
0.66 131.252 62.493
0.67 131.839 61.571
0.68 132.204 60.843
0.69 132.680 59.513
0.70 133.331 58.303
0.71 134.223 57.524
0.72 135.178 57.067
0.73 135.850 56.969
0.74 137.206 57.023
0.75 137.794 56.942
0.76 137.484 56.238
0.77 137.790 53.960
0.78 --undefined-- 49.285
0.79 --undefined-- 43.671
0.80 --undefined-- 42.170
0.81 --undefined-- 44.923
0.82 --undefined-- 52.702
0.83 --undefined-- 58.176
0.84 --undefined-- 62.708
0.85 201.424 67.135
0.86 199.494 69.182
0.87 198.346 68.523
0.88 205.066 66.418
0.89 209.003 65.104
0.90 220.424 65.758
0.91 226.727 67.625
0.92 235.980 69.721
0.93 241.861 71.209
0.94 244.041 71.720
0.95 239.963 71.635
0.96 233.328 71.203
0.97 229.752 70.649
0.98 227.846 70.387
0.99 226.301 70.447
1.00 226.320 70.639
1.01 226.543 70.694
1.02 227.602 70.421
1.03 228.165 69.723
1.04 228.307 68.359
1.05 228.419 66.560
1.06 228.208 65.190
1.07 229.866 63.621
1.08 229.070 61.773
1.09 230.538 64.336
1.10 236.095 69.529
1.11 233.809 72.567
1.12 232.732 73.176
1.13 233.336 71.691
1.14 234.277 68.567
1.15 233.553 65.455
1.16 231.223 64.518
1.17 227.563 64.796
1.18 223.796 64.320
1.19 221.049 61.810
1.20 --undefined-- 56.773
1.21 --undefined-- 51.111
1.22 --undefined-- 48.759
1.23 --undefined-- 48.416
1.24 --undefined-- 50.393
1.25 --undefined-- 52.027
1.26 --undefined-- 52.203
1.27 --undefined-- 54.464
1.28 --undefined-- 63.447
1.29 274.920 69.689
1.30 262.985 72.240
1.31 248.642 72.221
1.32 236.463 71.269
1.33 230.226 70.518
1.34 226.342 69.969
1.35 223.429 69.490
1.36 220.896 69.043
1.37 218.246 68.419
1.38 216.743 67.386
1.39 214.956 65.914
1.40 214.114 64.400
1.41 210.787 63.239
1.42 205.595 61.984
1.43 197.808 60.277
1.44 190.596 59.838
1.45 186.633 63.949
1.46 179.862 68.013
1.47 173.154 69.582
1.48 164.973 68.924
1.49 160.097 66.564
1.50 156.313 62.543
1.51 --undefined-- 56.886
1.52 --undefined-- 51.298
1.53 --undefined-- 48.991
1.54 --undefined-- 48.631
1.55 --undefined-- 50.368
1.56 --undefined-- 57.444
1.57 --undefined-- 65.102
1.58 --undefined-- 69.419
1.59 --undefined-- 70.647
1.60 139.279 69.433
1.61 128.451 66.991
1.62 123.446 64.691
1.63 120.782 63.241
1.64 117.691 62.604
1.65 115.217 62.362
1.66 112.571 61.666
1.67 111.301 59.894
1.68 108.724 56.540
1.69 --undefined-- 51.978
1.70 --undefined-- 48.946
1.71 --undefined-- 48.085
1.72 --undefined-- 47.242
1.73 --undefined-- 47.337
1.74 --undefined-- 47.885
1.75 --undefined-- 48.410
1.76 --undefined-- 50.366
1.77 --undefined-- 56.320
1.78 147.237 62.509
1.79 144.009 67.126
1.80 143.479 70.331
1.81 145.222 72.053
1.82 146.661 72.294
1.83 147.475 71.061
1.84 146.517 68.281
1.85 147.582 64.470
1.86 --undefined-- 61.912
1.87 173.837 64.117
1.88 174.112 67.835
1.89 173.804 69.816
1.90 172.460 70.213
1.91 169.158 68.964
1.92 163.956 65.578
1.93 158.961 59.742
1.94 166.463 52.704
1.95 167.524 49.149
1.96 --undefined-- 48.504
1.97 --undefined-- 53.614
1.98 --undefined-- 62.237
1.99 --undefined-- 67.771
2.00 141.731 70.261
2.01 138.506 70.630
2.02 133.974 69.946
2.03 131.973 69.208
2.04 130.113 68.748
2.05 126.980 68.305
2.06 125.366 67.564
2.07 123.538 65.862
2.08 121.741 62.576
2.09 121.397 58.299
2.10 123.365 55.049
2.11 125.689 53.856
2.12 130.259 55.258
2.13 131.561 57.647
2.14 132.542 60.443
2.15 135.215 63.806
2.16 137.479 66.600
2.17 137.558 68.220
2.18 138.114 68.886
2.19 138.144 68.959
2.20 137.947 68.640
2.21 138.309 68.016
2.22 138.943 67.158
2.23 139.154 66.168
2.24 139.843 65.151
2.25 141.154 64.204
2.26 141.945 63.458
2.27 142.650 62.978
2.28 143.233 62.385
2.29 144.252 61.009
2.30 145.436 59.072
2.31 145.093 57.656
2.32 145.834 56.858
2.33 146.327 57.052
2.34 146.094 56.629
2.35 145.927 54.954
2.36 146.657 52.489
2.37 --undefined-- 49.535
2.38 --undefined-- 47.092
2.39 --undefined-- 46.417
2.40 --undefined-- 46.604
2.41 --undefined-- 45.876
2.42 --undefined-- 44.490
2.43 --undefined-- 43.360
2.44 --undefined-- 42.944
2.45 --undefined-- 43.585
2.46 --undefined-- 44.618
2.47 --undefined-- 47.574
2.48 --undefined-- 51.327
2.49 --undefined-- 56.106
2.50 --undefined-- 62.733
2.51 --undefined-- 67.325
2.52 --undefined-- 69.592
2.53 --undefined-- 70.437
2.54 136.653 70.442
2.55 139.597 69.844
2.56 147.985 68.948
2.57 155.690 67.980
2.58 162.777 67.092
2.59 169.391 66.591
2.60 175.230 66.182
2.61 182.218 65.277
2.62 189.212 64.719
2.63 191.585 65.707
2.64 187.919 67.495
2.65 180.285 68.455
2.66 165.644 68.876
2.67 152.033 69.565
2.68 142.098 69.651
2.69 131.609 68.942
2.70 126.801 68.119
2.71 123.482 66.939
2.72 122.499 64.284
2.73 --undefined-- 59.347
2.74 --undefined-- 52.021
2.75 --undefined-- 45.631
2.76 --undefined-- 44.490
2.77 --undefined-- 43.999
2.78 --undefined-- 43.248
2.79 --undefined-- 43.307
2.80 --undefined-- 50.241
2.81 --undefined-- 59.602
2.82 --undefined-- 66.413
2.83 --undefined-- 70.490
2.84 202.418 72.094
2.85 198.609 72.188
2.86 197.999 71.839
2.87 197.353 70.999
2.88 196.442 69.558
2.89 194.172 68.576
2.90 190.419 68.630
2.91 186.205 68.731
2.92 182.647 68.519
2.93 184.641 68.169
2.94 192.475 67.324
2.95 202.276 65.798
2.96 200.242 63.818
2.97 196.051 61.066
2.98 194.394 57.094
2.99 194.574 52.891
3.00 --undefined-- 50.640
3.01 --undefined-- 49.488
3.02 --undefined-- 47.752
3.03 --undefined-- 47.112
3.04 --undefined-- 48.351
3.05 --undefined-- 49.503
3.06 --undefined-- 52.695
3.07 --undefined-- 59.189
3.08 --undefined-- 63.739
3.09 153.073 66.173
3.10 149.068 67.472
3.11 148.996 67.775
3.12 150.248 67.060
3.13 151.970 65.864
3.14 154.133 64.702
3.15 156.550 63.586
3.16 160.826 62.149
3.17 165.940 59.932
3.18 167.667 56.692
3.19 --undefined-- 54.031
3.20 --undefined-- 53.459
3.21 --undefined-- 52.578
3.22 --undefined-- 51.105
3.23 --undefined-- 50.158
3.24 --undefined-- 50.267
3.25 --undefined-- 51.117
3.26 --undefined-- 52.835
3.27 --undefined-- 57.825
3.28 157.794 62.418
3.29 149.154 65.507
3.30 145.810 67.719
3.31 144.399 69.004
3.32 143.780 69.246
3.33 142.621 68.649
3.34 142.309 67.594
3.35 144.464 66.597
3.36 148.144 65.955
3.37 152.499 64.866
3.38 159.312 61.926
3.39 --undefined-- 56.160
3.40 --undefined-- 48.887
3.41 --undefined-- 48.124
3.42 --undefined-- 51.792
3.43 170.174 53.828
3.44 181.818 56.964
3.45 196.519 65.342
3.46 222.740 71.388
3.47 223.564 74.187
3.48 223.477 74.690
3.49 225.774 73.887
3.50 228.257 72.035
3.51 229.608 68.922
3.52 227.552 64.670
3.53 220.348 59.785
3.54 213.394 55.475
3.55 213.189 60.541
3.56 215.347 68.177
3.57 214.385 72.537
3.58 209.729 73.748
3.59 197.717 72.361
3.60 187.088 69.750
3.61 182.694 67.039
3.62 82.426 63.026
3.63 83.074 57.778
3.64 84.143 57.552
3.65 200.375 63.135
3.66 200.011 67.223
3.67 200.184 68.228
3.68 194.637 67.302
3.69 192.143 66.405
3.70 192.861 64.927
3.71 197.926 63.996
3.72 198.137 64.294
3.73 197.754 63.777
3.74 197.375 63.031
3.75 200.493 63.876
3.76 204.305 66.215
3.77 --undefined-- 68.798
3.78 --undefined-- 70.775
3.79 159.564 71.619
3.80 151.922 71.312
3.81 147.186 69.969
3.82 143.429 67.262
3.83 141.496 62.490
3.84 136.849 55.941
3.85 133.538 50.914
3.86 --undefined-- 47.339
3.87 --undefined-- 46.607
3.88 --undefined-- 52.343
3.89 --undefined-- 61.738
3.90 168.348 68.264
3.91 162.987 71.409
3.92 153.650 71.522
3.93 140.346 69.064
3.94 128.063 65.043
3.95 123.532 61.274
3.96 127.624 59.240
3.97 128.483 59.115
3.98 125.653 59.553
3.99 122.401 59.802
4.00 121.013 59.357
4.01 121.503 57.987
4.02 120.745 55.608
4.03 116.181 52.225
4.04 --undefined-- 48.849
4.05 --undefined-- 49.886
4.06 --undefined-- 54.721
4.07 152.566 58.809
4.08 147.426 61.753
4.09 149.548 64.139
4.10 155.136 66.138
4.11 163.330 67.598
4.12 173.108 68.291
4.13 183.995 67.689
4.14 191.607 65.309
4.15 192.545 63.107
4.16 196.714 64.794
4.17 195.702 66.335
4.18 193.253 66.752
4.19 188.774 66.659
4.20 181.483 65.932
4.21 170.915 64.469
4.22 161.422 63.266
4.23 155.079 63.098
4.24 150.853 63.347
4.25 146.977 63.549
4.26 142.900 63.359
4.27 141.891 62.910
4.28 142.351 62.755
4.29 142.179 62.789
4.30 143.212 62.725
4.31 144.145 62.489
4.32 145.334 62.315
4.33 146.321 61.896
4.34 145.906 60.025
4.35 144.790 56.092
4.36 --undefined-- 53.901
4.37 --undefined-- 56.813
4.38 --undefined-- 59.971
4.39 --undefined-- 62.681
4.40 --undefined-- 66.674
4.41 --undefined-- 70.183
4.42 --undefined-- 71.573
4.43 144.314 71.531
4.44 138.239 70.700
4.45 134.471 69.739
4.46 134.865 69.336
4.47 138.508 69.253
4.48 142.046 69.411
4.49 144.546 69.534
4.50 148.288 68.970
4.51 154.353 67.576
4.52 163.556 66.639
4.53 171.223 67.435
4.54 173.737 68.587
4.55 171.550 69.179
4.56 165.889 69.550
4.57 160.250 69.966
4.58 153.105 69.970
4.59 141.799 69.820
4.60 133.729 70.056
4.61 129.112 69.852
4.62 126.667 68.796
4.63 125.203 67.523
4.64 124.091 66.373
4.65 123.381 64.623
4.66 123.372 61.916
4.67 128.492 60.474
4.68 135.016 62.684
4.69 134.647 65.477
4.70 132.646 67.599
4.71 133.097 68.732
4.72 134.490 68.425
4.73 136.155 66.479
4.74 138.787 63.086
4.75 140.787 58.760
4.76 141.130 58.178
4.77 --undefined-- 64.203
4.78 150.462 68.253
4.79 154.840 69.603
4.80 158.636 69.016
4.81 161.942 67.378
4.82 162.848 65.930
4.83 160.390 65.386
4.84 157.121 66.180
4.85 155.286 68.464
4.86 154.630 70.552
4.87 151.230 71.373
4.88 145.093 71.578
4.89 142.394 72.050
4.90 141.141 72.237
4.91 140.189 71.628
4.92 139.775 70.018
4.93 139.028 67.018
4.94 135.984 62.893
4.95 135.366 58.296
4.96 137.463 53.173
4.97 138.939 49.098
4.98 --undefined-- 49.458
4.99 --undefined-- 57.816
5.00 --undefined-- 65.029
5.01 --undefined-- 68.681
5.02 --undefined-- 68.833
5.03 --undefined-- 65.417
5.04 --undefined-- 59.412
5.05 --undefined-- --undefined--
5.06 --undefined-- --undefined--
5.07 --undefined-- --undefined--
5.08 --undefined-- --undefined--
