Time Pitch Intensity
0.01 --undefined-- --undefined--
0.02 117.102 --undefined--
0.03 113.763 --undefined--
0.04 112.077 --undefined--
0.05 111.993 76.553
0.06 110.996 76.627
0.07 110.160 76.336
0.08 108.370 75.519
0.09 105.610 74.034
0.10 106.555 71.635
0.11 122.229 67.966
0.12 118.583 62.592
0.13 113.331 55.774
0.14 --undefined-- 51.389
0.15 --undefined-- 55.175
0.16 --undefined-- 65.556
0.17 --undefined-- 72.807
0.18 --undefined-- 76.188
0.19 181.344 76.764
0.20 180.282 76.162
0.21 183.381 75.421
0.22 185.673 73.870
0.23 186.050 70.621
0.24 185.626 65.795
0.25 184.619 60.631
0.26 182.794 56.259
0.27 181.301 54.076
0.28 181.367 51.902
0.29 181.225 50.265
0.30 182.367 49.188
0.31 --undefined-- 47.492
0.32 --undefined-- 45.130
0.33 --undefined-- 43.025
0.34 --undefined-- 42.424
0.35 --undefined-- 42.307
0.36 --undefined-- 49.574
0.37 --undefined-- 61.592
0.38 --undefined-- 69.130
0.39 --undefined-- 72.567
0.40 --undefined-- 72.523
0.41 --undefined-- 70.290
0.42 181.226 72.376
0.43 183.144 75.854
0.44 179.377 76.826
0.45 177.354 76.433
0.46 175.949 76.386
0.47 174.114 76.638
0.48 172.913 76.613
0.49 172.218 76.429
0.50 171.836 76.471
0.51 170.730 76.776
0.52 169.533 77.173
0.53 168.271 77.553
0.54 165.680 77.795
0.55 161.171 77.543
0.56 154.810 76.117
0.57 141.143 73.238
0.58 --undefined-- 69.988
0.59 --undefined-- 67.740
0.60 --undefined-- 65.442
0.61 --undefined-- 62.824
0.62 --undefined-- 61.511
0.63 --undefined-- 60.644
0.64 --undefined-- 60.226
0.65 --undefined-- 60.548
0.66 --undefined-- 60.772
0.67 --undefined-- 61.787
0.68 --undefined-- 64.093
0.69 --undefined-- 68.503
0.70 --undefined-- 74.126
0.71 --undefined-- 77.179
0.72 --undefined-- 77.566
0.73 --undefined-- 76.746
0.74 --undefined-- 75.525
0.75 --undefined-- 72.731
0.76 --undefined-- 67.216
0.77 --undefined-- 59.728
0.78 --undefined-- 55.697
0.79 --undefined-- 54.799
0.80 --undefined-- 53.187
0.81 --undefined-- 50.442
0.82 --undefined-- 48.912
0.83 --undefined-- 52.715
0.84 --undefined-- 60.137
0.85 --undefined-- 65.240
0.86 125.107 67.503
0.87 131.761 67.998
0.88 130.053 68.121
0.89 132.925 69.036
0.90 131.558 70.626
0.91 129.160 72.270
0.92 125.810 73.779
0.93 121.425 75.014
0.94 121.289 76.113
0.95 123.557 77.079
0.96 124.381 77.486
0.97 122.766 77.168
0.98 121.429 76.005
0.99 120.237 73.544
1.00 116.094 69.691
1.01 132.494 68.629
1.02 136.634 73.164
1.03 138.710 76.558
1.04 137.023 77.710
1.05 132.749 77.486
1.06 131.234 76.911
1.07 130.029 76.299
1.08 127.826 75.450
1.09 125.150 74.033
1.10 124.815 72.907
1.11 131.587 73.742
1.12 132.153 75.066
1.13 132.120 75.945
1.14 132.735 76.418
1.15 131.985 76.478
1.16 131.311 76.334
1.17 129.750 76.178
1.18 127.448 76.061
1.19 126.058 76.271
1.20 124.048 76.716
1.21 122.131 76.674
1.22 118.861 76.025
1.23 116.386 75.330
1.24 115.896 74.727
1.25 114.994 73.454
1.26 99.871 70.766
1.27 96.947 66.860
1.28 122.756 62.789
1.29 117.767 59.199
1.30 117.324 56.269
1.31 120.092 53.698
1.32 --undefined-- 50.788
1.33 --undefined-- 48.315
1.34 --undefined-- 47.773
1.35 --undefined-- 47.757
1.36 --undefined-- 47.745
1.37 --undefined-- 52.957
1.38 166.321 60.477
1.39 164.929 64.970
1.40 --undefined-- 67.541
1.41 --undefined-- 70.419
1.42 116.015 73.396
1.43 115.743 75.601
1.44 116.813 76.787
1.45 117.124 76.895
1.46 114.706 76.377
1.47 111.846 75.773
1.48 108.349 74.375
1.49 --undefined-- 70.895
1.50 --undefined-- 65.054
1.51 --undefined-- 61.503
1.52 --undefined-- 61.279
1.53 --undefined-- 58.710
1.54 --undefined-- 55.893
1.55 --undefined-- 62.896
1.56 --undefined-- 68.804
1.57 --undefined-- 72.204
1.58 128.268 74.381
1.59 134.936 76.117
1.60 139.057 77.245
1.61 139.256 77.487
1.62 139.665 77.293
1.63 140.779 77.060
1.64 142.623 76.617
1.65 142.049 75.773
1.66 138.194 74.775
1.67 138.252 74.260
1.68 137.656 74.297
1.69 136.334 74.661
1.70 134.806 75.166
1.71 132.785 75.618
1.72 127.723 75.892
1.73 123.221 75.984
1.74 119.618 76.183
1.75 116.090 76.414
1.76 111.326 76.043
1.77 108.768 74.464
1.78 104.623 71.641
1.79 104.968 68.215
1.80 110.254 64.023
1.81 116.686 60.034
1.82 118.656 61.117
1.83 --undefined-- 64.509
1.84 --undefined-- 68.049
1.85 --undefined-- 73.020
1.86 139.980 76.285
1.87 129.083 77.082
1.88 121.978 76.708
1.89 118.598 75.995
1.90 116.371 74.761
1.91 109.661 74.297
1.92 114.399 75.033
1.93 113.199 75.565
1.94 111.675 75.792
1.95 111.680 76.122
1.96 114.834 76.575
1.97 114.700 76.709
1.98 111.523 76.202
1.99 103.212 75.289
2.00 96.534 74.352
2.01 95.154 73.541
2.02 92.728 72.862
2.03 90.218 72.354
2.04 86.737 72.182
2.05 87.461 72.596
2.06 88.872 73.410
2.07 92.557 74.154
2.08 94.637 74.512
2.09 95.829 74.402
2.10 96.436 73.715
2.11 94.846 72.131
2.12 89.966 69.522
2.13 85.569 67.207
2.14 108.793 68.751
2.15 119.616 72.703
2.16 113.205 75.443
2.17 111.051 76.596
2.18 111.352 76.772
2.19 107.893 76.493
2.20 106.673 76.231
2.21 106.274 76.242
2.22 108.832 76.237
2.23 109.898 75.680
2.24 113.634 74.708
2.25 118.629 74.008
2.26 122.884 73.965
2.27 128.684 74.909
2.28 137.009 76.621
2.29 145.928 77.954
2.30 152.307 78.174
2.31 152.611 77.483
2.32 150.593 76.551
2.33 149.905 75.659
2.34 147.892 74.189
2.35 143.459 72.601
2.36 144.013 72.699
2.37 142.780 73.565
2.38 141.424 74.551
2.39 141.346 75.139
2.40 135.990 74.779
2.41 131.119 74.217
2.42 126.784 74.813
2.43 129.075 76.055
2.44 125.042 76.254
2.45 118.264 75.647
2.46 111.688 75.260
2.47 106.046 75.383
2.48 101.572 75.596
2.49 98.074 75.446
2.50 96.701 75.253
2.51 95.261 75.212
2.52 93.481 75.015
2.53 91.835 74.467
2.54 87.668 73.781
2.55 90.602 74.092
2.56 95.279 75.086
2.57 94.677 75.606
2.58 96.024 75.599
2.59 96.159 75.309
2.60 95.934 75.002
2.61 95.065 74.371
2.62 93.671 72.748
2.63 92.378 69.700
2.64 --undefined-- 66.013
2.65 --undefined-- 66.483
2.66 --undefined-- 68.949
2.67 --undefined-- 69.804
2.68 --undefined-- 70.002
2.69 --undefined-- 70.204
2.70 --undefined-- 69.928
2.71 --undefined-- 69.207
2.72 --undefined-- 67.676
2.73 --undefined-- 65.915
2.74 --undefined-- 66.542
2.75 --undefined-- 71.528
2.76 --undefined-- 75.116
2.77 119.048 76.120
2.78 112.302 75.775
2.79 109.464 75.367
2.80 107.524 75.037
2.81 106.448 74.868
2.82 106.929 74.956
2.83 106.409 75.062
2.84 106.738 75.164
2.85 107.188 75.424
2.86 108.947 75.720
2.87 109.944 75.798
2.88 109.981 75.658
2.89 108.949 75.182
2.90 106.518 73.815
2.91 102.224 71.126
2.92 100.680 67.889
2.93 --undefined-- 68.567
2.94 --undefined-- 70.930
2.95 --undefined-- 72.310
2.96 --undefined-- 74.959
2.97 125.205 76.941
2.98 118.752 77.593
2.99 117.365 77.389
3.00 111.127 76.979
3.01 110.697 76.924
3.02 110.214 76.891
3.03 109.928 76.808
3.04 109.569 76.841
3.05 108.943 76.934
3.06 108.183 77.000
3.07 107.583 77.019
3.08 107.197 76.951
3.09 107.589 76.875
3.10 108.368 76.845
3.11 108.151 76.768
3.12 107.198 76.544
3.13 106.481 76.080
3.14 106.079 75.147
3.15 104.978 73.089
3.16 --undefined-- 69.184
3.17 --undefined-- 63.532
3.18 --undefined-- 57.864
3.19 --undefined-- 53.761
3.20 --undefined-- 51.378
3.21 --undefined-- 49.720
3.22 --undefined-- 47.059
3.23 --undefined-- 44.740
3.24 --undefined-- 43.775
3.25 --undefined-- 50.312
3.26 --undefined-- 61.663
3.27 --undefined-- 69.565
3.28 --undefined-- 73.937
3.29 128.805 75.266
3.30 113.114 74.258
3.31 110.445 71.841
3.32 110.183 68.164
3.33 105.571 62.855
3.34 117.387 57.577
3.35 --undefined-- 54.050
3.36 --undefined-- 50.735
3.37 --undefined-- 48.163
3.38 --undefined-- 46.770
3.39 --undefined-- 44.784
3.40 --undefined-- 42.757
3.41 --undefined-- 44.897
3.42 --undefined-- 56.991
3.43 --undefined-- 66.740
3.44 164.450 72.902
3.45 154.071 76.128
3.46 141.778 77.027
3.47 137.165 76.548
3.48 133.604 75.501
3.49 127.243 73.507
3.50 112.769 69.737
3.51 --undefined-- 63.989
3.52 127.569 58.637
3.53 129.475 57.061
3.54 129.886 55.590
3.55 134.512 52.359
3.56 --undefined-- 48.538
3.57 --undefined-- 49.365
3.58 130.761 51.545
3.59 134.167 51.770
3.60 132.747 51.152
3.61 --undefined-- 51.278
3.62 --undefined-- 51.957
3.63 --undefined-- 54.055
3.64 --undefined-- 56.876
3.65 --undefined-- 58.621
3.66 --undefined-- 58.954
3.67 --undefined-- 58.658
3.68 --undefined-- 59.088
3.69 --undefined-- 60.009
3.70 --undefined-- 61.258
3.71 --undefined-- 65.734
3.72 --undefined-- 72.012
3.73 --undefined-- 75.277
3.74 --undefined-- 75.235
3.75 --undefined-- 72.841
3.76 --undefined-- 70.158
3.77 --undefined-- 70.609
3.78 --undefined-- 72.478
3.79 --undefined-- 72.885
3.80 --undefined-- 73.558
3.81 79.561 75.112
3.82 77.984 76.020
3.83 88.003 76.261
3.84 91.487 76.196
3.85 95.075 76.170
3.86 97.532 76.344
3.87 100.650 76.527
3.88 105.190 76.685
3.89 109.860 76.810
3.90 113.885 76.925
3.91 116.663 77.067
3.92 120.086 77.116
3.93 122.543 76.576
3.94 119.909 74.660
3.95 115.991 70.928
3.96 112.756 65.908
3.97 117.132 62.040
3.98 120.283 62.208
3.99 --undefined-- 64.419
4.00 --undefined-- 66.635
4.01 --undefined-- 68.135
4.02 --undefined-- 70.370
4.03 --undefined-- 73.125
4.04 141.318 74.867
4.05 151.526 76.125
4.06 150.231 76.736
4.07 143.790 76.531
4.08 116.078 75.882
4.09 104.629 74.686
4.10 91.878 72.502
4.11 89.553 70.187
4.12 85.533 68.887
4.13 86.940 68.514
4.14 88.070 69.610
4.15 89.450 71.487
4.16 88.615 72.706
4.17 87.368 72.924
4.18 85.938 72.293
4.19 85.138 71.061
4.20 85.816 69.252
4.21 83.882 66.864
4.22 83.460 64.323
4.23 86.301 61.768
4.24 97.030 60.690
4.25 136.930 66.590
4.26 125.790 72.220
4.27 104.743 75.521
4.28 104.076 76.533
4.29 101.155 75.417
4.30 92.775 72.766
4.31 90.253 69.355
4.32 --undefined-- 66.287
4.33 132.879 69.300
4.34 135.965 74.618
4.35 120.816 77.380
4.36 122.603 77.827
4.37 110.302 77.394
4.38 107.522 77.076
4.39 104.192 76.905
4.40 101.573 76.636
4.41 --undefined-- 75.925
4.42 94.442 75.061
4.43 92.995 74.091
4.44 90.931 72.168
4.45 87.474 69.575
4.46 84.213 66.880
4.47 --undefined-- 63.181
4.48 --undefined-- 58.170
4.49 --undefined-- 56.750
4.50 --undefined-- 58.542
4.51 --undefined-- 59.290
4.52 --undefined-- 59.377
4.53 --undefined-- 59.253
4.54 --undefined-- 58.602
4.55 --undefined-- 58.870
4.56 --undefined-- 59.792
4.57 --undefined-- 59.687
4.58 --undefined-- 59.370
4.59 --undefined-- 59.605
4.60 --undefined-- 59.751
4.61 --undefined-- 59.383
4.62 --undefined-- 58.922
4.63 --undefined-- 58.560
4.64 --undefined-- 58.232
4.65 --undefined-- 58.567
4.66 --undefined-- 58.397
4.67 --undefined-- 57.359
4.68 --undefined-- 56.566
4.69 --undefined-- 56.590
4.70 --undefined-- 57.520
4.71 --undefined-- 58.739
4.72 --undefined-- 59.462
4.73 --undefined-- 60.189
4.74 --undefined-- 60.688
4.75 --undefined-- 59.608
4.76 --undefined-- 55.920
4.77 --undefined-- 52.400
4.78 --undefined-- 53.897
4.79 --undefined-- 57.760
4.80 --undefined-- 66.365
4.81 244.766 72.554
4.82 220.112 75.684
4.83 224.129 77.006
4.84 229.696 77.381
4.85 234.315 77.332
4.86 237.189 77.212
4.87 238.981 77.057
4.88 236.247 76.539
4.89 222.961 75.191
4.90 205.915 73.180
4.91 201.231 71.389
4.92 199.829 71.572
4.93 222.961 75.048
4.94 218.023 77.255
4.95 198.934 77.168
4.96 165.600 76.840
4.97 158.916 77.363
4.98 148.349 77.436
4.99 142.795 77.335
5.00 142.841 77.275
5.01 144.259 76.811
5.02 146.211 76.434
5.03 146.888 76.706
5.04 147.458 77.200
5.05 147.525 77.413
5.06 146.808 76.710
5.07 146.018 74.219
5.08 140.435 69.510
5.09 147.684 64.249
5.10 --undefined-- --undefined--
5.11 --undefined-- --undefined--
5.12 --undefined-- --undefined--
5.13 --undefined-- --undefined--
