Time Pitch Intensity
0.01 --undefined-- --undefined--
0.02 144.404 --undefined--
0.03 143.384 --undefined--
0.04 144.893 --undefined--
0.05 147.316 69.994
0.06 147.743 69.835
0.07 147.575 69.575
0.08 147.984 69.277
0.09 148.185 68.765
0.10 148.286 67.497
0.11 145.688 64.824
0.12 --undefined-- 59.977
0.13 --undefined-- 52.390
0.14 --undefined-- 46.195
0.15 --undefined-- 46.153
0.16 --undefined-- 53.317
0.17 --undefined-- 62.421
0.18 190.042 67.787
0.19 183.233 70.186
0.20 179.964 70.905
0.21 177.765 71.073
0.22 175.201 71.385
0.23 173.340 71.901
0.24 172.207 72.295
0.25 171.521 72.375
0.26 171.948 72.243
0.27 172.990 72.049
0.28 174.214 71.839
0.29 175.265 71.650
0.30 174.997 71.473
0.31 173.278 71.326
0.32 173.770 71.201
0.33 173.517 70.888
0.34 170.607 69.987
0.35 165.421 68.178
0.36 158.718 66.173
0.37 156.865 66.371
0.38 157.634 68.433
0.39 154.067 69.573
0.40 150.347 69.597
0.41 146.666 69.192
0.42 144.114 68.891
0.43 142.040 68.948
0.44 140.822 69.367
0.45 140.486 69.732
0.46 139.893 69.673
0.47 138.097 69.465
0.48 138.234 69.379
0.49 139.352 69.318
0.50 140.348 69.235
0.51 142.069 69.122
0.52 143.379 69.026
0.53 143.942 69.007
0.54 144.254 69.046
0.55 144.240 69.033
0.56 143.978 68.934
0.57 144.205 68.755
0.58 144.253 68.515
0.59 144.207 68.338
0.60 141.700 68.521
0.61 141.164 68.938
0.62 140.613 69.150
0.63 140.030 69.112
0.64 139.443 68.945
0.65 139.203 68.680
0.66 138.865 68.289
0.67 138.889 67.768
0.68 138.377 67.284
0.69 137.732 66.946
0.70 136.487 66.862
0.71 136.330 67.065
0.72 136.325 67.243
0.73 135.606 67.361
0.74 135.159 67.481
0.75 134.932 67.537
0.76 133.923 67.529
0.77 132.196 67.445
0.78 130.096 67.142
0.79 127.759 66.583
0.80 124.971 65.725
0.81 --undefined-- 63.438
0.82 --undefined-- 58.277
0.83 --undefined-- 50.816
0.84 --undefined-- 48.661
0.85 --undefined-- 49.512
0.86 --undefined-- 47.014
0.87 --undefined-- 40.671
0.88 --undefined-- 36.933
0.89 --undefined-- 38.061
0.90 --undefined-- 37.416
0.91 --undefined-- 35.241
0.92 --undefined-- 34.653
0.93 --undefined-- 35.913
0.94 --undefined-- 36.103
0.95 --undefined-- 34.331
0.96 --undefined-- 31.836
0.97 --undefined-- 31.949
0.98 --undefined-- 33.219
0.99 --undefined-- 33.178
1.00 --undefined-- 31.990
1.01 --undefined-- 30.998
1.02 --undefined-- 30.683
1.03 --undefined-- 33.125
1.04 --undefined-- 35.645
1.05 --undefined-- 35.120
1.06 --undefined-- 31.909
1.07 --undefined-- 30.199
1.08 --undefined-- 30.820
1.09 --undefined-- 31.721
1.10 --undefined-- 32.946
1.11 --undefined-- 33.859
1.12 --undefined-- 38.165
1.13 --undefined-- 50.271
1.14 --undefined-- 60.805
1.15 --undefined-- 67.234
1.16 206.167 70.237
1.17 209.423 71.297
1.18 210.916 72.135
1.19 212.894 73.208
1.20 214.290 74.219
1.21 214.498 75.010
1.22 213.300 75.343
1.23 211.267 74.769
1.24 208.349 72.709
1.25 204.353 68.584
1.26 189.774 61.808
1.27 --undefined-- 52.780
1.28 --undefined-- 46.399
1.29 --undefined-- 43.588
1.30 --undefined-- 44.697
1.31 --undefined-- 50.052
1.32 --undefined-- 52.928
1.33 --undefined-- 52.527
1.34 --undefined-- 49.373
1.35 --undefined-- 49.940
1.36 --undefined-- 58.378
1.37 192.939 64.095
1.38 173.632 66.915
1.39 167.550 68.048
1.40 165.122 68.569
1.41 164.673 69.051
1.42 164.710 69.593
1.43 165.186 70.065
1.44 166.240 70.342
1.45 166.647 70.366
1.46 166.957 70.242
1.47 167.583 70.085
1.48 167.570 69.856
1.49 167.273 69.394
1.50 166.618 68.485
1.51 165.120 66.880
1.52 159.841 64.145
1.53 161.746 60.478
1.54 188.117 57.057
1.55 --undefined-- 53.801
1.56 --undefined-- 49.832
1.57 --undefined-- 43.798
1.58 --undefined-- 37.307
1.59 --undefined-- 36.283
1.60 --undefined-- 36.976
1.61 --undefined-- 37.873
1.62 --undefined-- 40.927
1.63 --undefined-- 48.256
1.64 --undefined-- 53.644
1.65 --undefined-- 56.992
1.66 --undefined-- 59.566
1.67 --undefined-- 61.257
1.68 151.761 62.250
1.69 150.320 63.297
1.70 148.227 64.335
1.71 145.362 65.187
1.72 145.341 65.841
1.73 145.547 66.267
1.74 144.463 66.128
1.75 142.863 64.896
1.76 136.343 62.231
1.77 127.777 57.918
1.78 --undefined-- 51.549
1.79 --undefined-- 42.992
1.80 --undefined-- 42.951
1.81 --undefined-- 48.536
1.82 --undefined-- 54.158
1.83 168.747 60.489
1.84 168.943 64.508
1.85 163.528 66.192
1.86 157.189 66.677
1.87 151.623 66.833
1.88 144.674 66.828
1.89 140.371 66.824
1.90 137.558 66.825
1.91 137.637 66.665
1.92 139.484 66.498
1.93 140.951 66.469
1.94 141.878 66.505
1.95 141.452 66.579
1.96 141.292 66.630
1.97 142.043 66.679
1.98 142.048 66.731
1.99 141.284 66.531
2.00 138.177 65.590
2.01 130.828 63.258
2.02 125.065 59.044
2.03 --undefined-- 52.517
2.04 --undefined-- 44.880
2.05 --undefined-- 46.919
2.06 --undefined-- 50.622
2.07 --undefined-- 50.751
2.08 --undefined-- 48.228
2.09 --undefined-- 47.039
2.10 --undefined-- 51.754
2.11 --undefined-- 59.832
2.12 174.507 64.761
2.13 160.410 66.661
2.14 153.301 66.837
2.15 149.811 66.505
2.16 147.019 65.985
2.17 142.466 65.443
2.18 139.070 65.331
2.19 141.721 65.561
2.20 142.230 65.839
2.21 143.164 66.131
2.22 144.408 66.405
2.23 145.893 66.581
2.24 147.455 66.642
2.25 149.226 66.571
2.26 150.290 66.309
2.27 150.685 65.825
2.28 151.459 65.271
2.29 154.671 65.244
2.30 161.253 66.368
2.31 163.057 68.282
2.32 162.879 69.900
2.33 162.389 70.778
2.34 161.921 70.949
2.35 162.248 70.615
2.36 163.308 70.079
2.37 164.185 69.698
2.38 164.456 69.688
2.39 164.295 69.988
2.40 164.191 70.403
2.41 164.095 70.674
2.42 163.739 70.645
2.43 163.416 70.358
2.44 163.105 69.969
2.45 162.572 69.618
2.46 162.540 69.336
2.47 162.468 69.093
2.48 161.713 68.883
2.49 161.121 68.690
2.50 161.137 68.438
2.51 161.210 68.100
2.52 161.449 67.690
2.53 161.262 67.128
2.54 159.498 66.336
2.55 156.498 65.211
2.56 149.591 63.610
2.57 159.027 61.558
2.58 --undefined-- 58.658
2.59 --undefined-- 54.633
2.60 --undefined-- 49.368
2.61 --undefined-- 42.563
2.62 --undefined-- 37.156
2.63 --undefined-- 33.796
2.64 --undefined-- 32.387
2.65 --undefined-- 33.426
2.66 --undefined-- 32.372
2.67 --undefined-- 31.746
2.68 --undefined-- 33.323
2.69 --undefined-- 33.576
2.70 --undefined-- 32.661
2.71 --undefined-- 32.214
2.72 --undefined-- 31.819
2.73 --undefined-- 30.704
2.74 --undefined-- 30.400
2.75 --undefined-- 31.109
2.76 --undefined-- 31.524
2.77 --undefined-- 32.519
2.78 --undefined-- 34.824
2.79 --undefined-- 35.816
2.80 --undefined-- 34.021
2.81 --undefined-- 30.624
2.82 --undefined-- 29.724
2.83 --undefined-- 40.734
2.84 --undefined-- 53.724
2.85 --undefined-- 61.567
2.86 172.243 65.690
2.87 171.309 67.647
2.88 168.390 68.911
2.89 164.970 69.911
2.90 162.528 70.292
2.91 161.232 70.167
2.92 160.985 69.993
2.93 160.656 69.778
2.94 158.110 69.724
2.95 161.087 70.111
2.96 160.269 70.437
2.97 158.835 70.500
2.98 157.639 70.384
2.99 156.860 70.162
3.00 156.748 69.861
3.01 155.914 69.429
3.02 154.102 68.745
3.03 151.246 67.459
3.04 144.235 64.962
3.05 131.796 60.716
3.06 --undefined-- 54.450
3.07 --undefined-- 47.380
3.08 --undefined-- 48.490
3.09 --undefined-- 52.080
3.10 --undefined-- 53.811
3.11 --undefined-- 53.843
3.12 --undefined-- 52.888
3.13 --undefined-- 52.552
3.14 --undefined-- 58.781
3.15 181.898 64.913
3.16 171.800 67.896
3.17 162.557 68.667
3.18 158.547 68.485
3.19 156.105 68.118
3.20 152.852 67.766
3.21 151.809 67.473
3.22 151.777 67.238
3.23 151.778 67.093
3.24 152.165 67.049
3.25 152.301 67.045
3.26 151.770 67.062
3.27 150.793 67.061
3.28 150.675 66.925
3.29 150.951 66.661
3.30 149.880 66.506
3.31 148.681 66.409
3.32 148.353 66.305
3.33 148.227 66.527
3.34 151.030 67.073
3.35 154.048 67.624
3.36 156.971 67.940
3.37 157.613 67.875
3.38 156.077 67.478
3.39 149.223 66.894
3.40 127.270 66.196
3.41 --undefined-- 64.713
3.42 --undefined-- 61.686
3.43 --undefined-- 56.762
3.44 --undefined-- 49.315
3.45 --undefined-- 40.843
3.46 --undefined-- 39.267
3.47 --undefined-- 38.597
3.48 --undefined-- 38.880
3.49 --undefined-- 39.927
3.50 --undefined-- 41.526
3.51 --undefined-- 44.873
3.52 --undefined-- 51.556
3.53 166.633 58.926
3.54 165.595 63.942
3.55 162.343 66.784
3.56 161.867 68.391
3.57 162.176 69.366
3.58 162.345 69.954
3.59 161.998 70.366
3.60 162.170 70.713
3.61 163.756 71.030
3.62 165.815 71.356
3.63 168.918 71.724
3.64 171.578 72.117
3.65 175.393 72.532
3.66 178.347 73.025
3.67 180.069 73.624
3.68 181.595 74.205
3.69 184.329 74.531
3.70 188.857 74.436
3.71 192.414 73.827
3.72 191.978 72.401
3.73 188.142 69.617
3.74 --undefined-- 65.256
3.75 --undefined-- 61.210
3.76 --undefined-- 59.616
3.77 --undefined-- 58.726
3.78 --undefined-- 58.573
3.79 --undefined-- 59.593
3.80 --undefined-- 61.589
3.81 --undefined-- 63.756
3.82 157.931 65.749
3.83 169.220 67.557
3.84 171.737 68.882
3.85 172.599 69.935
3.86 172.911 71.130
3.87 169.716 72.071
3.88 167.109 72.408
3.89 165.399 72.173
3.90 163.111 71.443
3.91 161.102 70.493
3.92 159.698 69.737
3.93 159.171 69.357
3.94 159.175 69.267
3.95 159.977 69.279
3.96 161.117 69.216
3.97 161.487 68.987
3.98 161.751 68.986
3.99 165.667 69.329
4.00 165.456 69.550
4.01 165.019 69.581
4.02 163.205 69.436
4.03 160.022 69.130
4.04 155.676 68.749
4.05 150.571 68.368
4.06 145.294 68.091
4.07 140.457 67.951
4.08 137.847 67.866
4.09 128.192 67.874
4.10 124.950 67.929
4.11 123.479 67.880
4.12 122.324 67.982
4.13 123.502 68.491
4.14 127.430 69.042
4.15 129.697 69.273
4.16 131.227 69.225
4.17 132.444 68.943
4.18 132.450 68.440
4.19 132.259 67.491
4.20 131.271 65.614
4.21 128.818 62.283
4.22 127.086 56.859
4.23 --undefined-- 49.013
4.24 --undefined-- 43.794
4.25 --undefined-- 46.966
4.26 --undefined-- 52.308
4.27 --undefined-- 56.473
4.28 --undefined-- 62.079
4.29 154.776 66.360
4.30 149.654 67.928
4.31 143.739 68.015
4.32 141.657 68.077
4.33 142.503 68.459
4.34 144.034 68.806
4.35 146.819 68.798
4.36 150.253 68.387
4.37 155.933 67.885
4.38 162.547 67.660
4.39 169.188 67.662
4.40 177.287 67.452
4.41 181.585 66.243
4.42 183.144 63.502
4.43 193.989 58.881
4.44 --undefined-- 51.987
4.45 --undefined-- 42.409
4.46 --undefined-- 39.502
4.47 --undefined-- 46.045
4.48 --undefined-- 57.895
4.49 --undefined-- 67.362
4.50 230.851 73.070
4.51 232.626 75.809
4.52 229.163 76.558
4.53 226.410 76.440
4.54 224.647 76.115
4.55 223.199 75.604
4.56 222.482 74.489
4.57 220.321 72.151
4.58 209.865 68.353
4.59 200.909 63.947
4.60 208.716 59.650
4.61 214.414 54.614
4.62 --undefined-- 47.333
4.63 --undefined-- 39.425
4.64 --undefined-- 36.145
4.65 --undefined-- 33.724
4.66 --undefined-- 33.377
4.67 --undefined-- 33.686
4.68 --undefined-- 33.848
4.69 --undefined-- 34.670
4.70 --undefined-- 34.755
4.71 --undefined-- 34.533
4.72 --undefined-- 36.300
4.73 --undefined-- 38.284
4.74 --undefined-- 39.024
4.75 --undefined-- 38.793
4.76 --undefined-- 38.398
4.77 --undefined-- 38.005
4.78 --undefined-- 37.197
4.79 --undefined-- 37.848
4.80 --undefined-- 39.267
4.81 --undefined-- 38.358
4.82 --undefined-- 35.529
4.83 --undefined-- 33.489
4.84 --undefined-- 33.907
4.85 --undefined-- 34.587
4.86 --undefined-- 33.374
4.87 --undefined-- 32.840
4.88 --undefined-- 33.651
4.89 --undefined-- 33.747
4.90 --undefined-- 34.197
4.91 --undefined-- 33.794
4.92 --undefined-- 31.961
4.93 --undefined-- 32.898
4.94 --undefined-- 35.086
4.95 --undefined-- 36.830
4.96 --undefined-- 40.439
4.97 --undefined-- 50.046
4.98 --undefined-- 61.240
4.99 219.306 68.508
5.00 217.067 72.380
5.01 214.714 73.938
5.02 211.835 74.433
5.03 209.051 74.681
5.04 207.599 74.680
5.05 205.267 74.489
5.06 202.791 74.789
5.07 204.328 75.482
5.08 203.766 75.853
5.09 203.679 75.894
5.10 203.450 75.737
5.11 202.943 75.477
5.12 202.829 75.208
5.13 202.953 74.945
5.14 203.160 74.610
5.15 202.494 74.131
5.16 202.012 73.502
5.17 201.622 72.704
5.18 200.314 71.495
5.19 196.193 69.653
5.20 192.917 67.024
5.21 195.213 63.301
5.22 202.042 57.793
5.23 --undefined-- 50.873
5.24 --undefined-- 46.579
5.25 --undefined-- 44.461
5.26 --undefined-- 48.126
5.27 --undefined-- 58.504
5.28 197.357 65.317
5.29 190.619 68.510
5.30 179.302 69.373
5.31 173.272 69.306
5.32 170.015 69.063
5.33 167.498 68.949
5.34 166.271 69.097
5.35 165.653 69.389
5.36 166.204 69.578
5.37 167.172 69.581
5.38 168.070 69.465
5.39 169.603 69.206
5.40 172.926 68.869
5.41 176.967 68.556
5.42 181.269 68.358
5.43 186.578 68.975
5.44 197.778 70.171
5.45 201.967 71.011
5.46 208.810 71.700
5.47 215.785 72.338
5.48 221.212 72.607
5.49 224.627 72.126
5.50 227.348 70.403
5.51 229.042 66.792
5.52 226.220 60.645
5.53 --undefined-- 52.994
5.54 --undefined-- 56.116
5.55 --undefined-- 63.364
5.56 210.601 67.622
5.57 206.260 68.982
5.58 198.486 68.753
5.59 193.974 68.218
5.60 190.829 67.925
5.61 188.115 67.876
5.62 185.404 67.893
5.63 183.170 67.995
5.64 181.700 68.272
5.65 180.356 68.602
5.66 179.457 68.864
5.67 179.185 69.072
5.68 179.338 69.267
5.69 179.588 69.355
5.70 180.093 68.975
5.71 181.006 67.688
5.72 188.212 66.455
5.73 199.554 67.358
5.74 208.267 69.086
5.75 214.228 70.244
5.76 218.987 70.866
5.77 223.565 71.366
5.78 228.257 71.867
5.79 230.177 72.031
5.80 228.786 71.444
5.81 224.566 69.954
5.82 218.135 67.569
5.83 211.269 64.602
5.84 207.207 62.219
5.85 196.725 61.364
5.86 196.392 62.564
5.87 199.864 65.210
5.88 199.118 67.247
5.89 187.218 --undefined--
5.90 172.600 --undefined--
5.91 --undefined-- --undefined--
5.92 --undefined-- --undefined--
