Time Pitch Intensity
0.01 --undefined-- --undefined--
0.02 --undefined-- --undefined--
0.03 --undefined-- --undefined--
0.04 --undefined-- --undefined--
0.05 --undefined-- 42.827
0.06 --undefined-- 42.145
0.07 --undefined-- 42.187
0.08 --undefined-- 41.451
0.09 --undefined-- 39.005
0.10 --undefined-- 37.168
0.11 --undefined-- 37.625
0.12 --undefined-- 37.165
0.13 --undefined-- 37.392
0.14 --undefined-- 41.949
0.15 --undefined-- 50.970
0.16 --undefined-- 59.766
0.17 --undefined-- 65.420
0.18 203.089 68.038
0.19 196.381 68.692
0.20 189.621 68.580
0.21 185.034 68.575
0.22 182.038 68.848
0.23 179.627 69.151
0.24 177.572 69.313
0.25 175.748 69.214
0.26 173.877 68.849
0.27 172.613 68.532
0.28 171.850 68.583
0.29 171.070 68.830
0.30 170.297 68.970
0.31 170.848 69.099
0.32 170.668 69.346
0.33 169.295 69.292
0.34 168.489 68.632
0.35 168.676 67.544
0.36 168.528 66.408
0.37 167.126 65.253
0.38 165.543 64.293
0.39 165.162 64.173
0.40 166.069 64.844
0.41 166.310 65.753
0.42 164.473 66.817
0.43 162.522 67.898
0.44 159.292 68.345
0.45 152.868 68.095
0.46 148.985 67.778
0.47 146.547 67.595
0.48 144.235 67.348
0.49 142.280 66.906
0.50 140.162 66.299
0.51 138.404 65.732
0.52 136.222 65.427
0.53 134.868 65.185
0.54 133.948 64.964
0.55 134.028 64.857
0.56 134.619 64.862
0.57 135.681 64.990
0.58 135.351 65.063
0.59 135.473 64.883
0.60 137.116 64.378
0.61 139.189 62.849
0.62 135.504 59.439
0.63 --undefined-- 53.663
0.64 --undefined-- 46.801
0.65 --undefined-- 44.192
0.66 --undefined-- 45.323
0.67 --undefined-- 45.616
0.68 --undefined-- 44.545
0.69 --undefined-- 44.030
0.70 --undefined-- 45.729
0.71 --undefined-- 53.998
0.72 --undefined-- 63.462
0.73 254.275 69.417
0.74 250.595 72.486
0.75 248.851 73.633
0.76 247.374 73.755
0.77 244.985 73.366
0.78 241.739 72.781
0.79 238.421 72.520
0.80 237.118 72.930
0.81 238.296 73.755
0.82 240.179 74.511
0.83 241.269 74.939
0.84 242.413 74.919
0.85 243.719 74.463
0.86 244.939 73.643
0.87 245.000 72.363
0.88 241.969 70.235
0.89 238.480 66.533
0.90 239.175 60.892
0.91 243.675 54.607
0.92 243.865 51.063
0.93 --undefined-- 50.801
0.94 --undefined-- 53.647
0.95 --undefined-- 57.077
0.96 255.364 61.345
0.97 249.571 64.839
0.98 245.134 67.095
0.99 240.739 68.859
1.00 233.699 70.300
1.01 222.850 71.069
1.02 207.093 71.099
1.03 195.725 70.745
1.04 187.954 70.619
1.05 186.721 70.812
1.06 184.172 70.734
1.07 181.762 70.204
1.08 179.960 69.258
1.09 177.656 67.546
1.10 173.533 64.380
1.11 171.096 59.132
1.12 --undefined-- 51.489
1.13 --undefined-- 43.779
1.14 --undefined-- 42.050
1.15 --undefined-- 42.765
1.16 --undefined-- 45.553
1.17 --undefined-- 50.093
1.18 --undefined-- 57.989
1.19 --undefined-- 64.356
1.20 175.104 67.636
1.21 168.223 68.592
1.22 159.199 68.117
1.23 152.758 67.297
1.24 151.704 67.037
1.25 150.777 67.102
1.26 150.016 66.492
1.27 148.398 64.210
1.28 141.281 59.716
1.29 --undefined-- 53.261
1.30 --undefined-- 47.192
1.31 --undefined-- 44.478
1.32 --undefined-- 42.631
1.33 --undefined-- 44.073
1.34 --undefined-- 48.446
1.35 --undefined-- 56.748
1.36 --undefined-- 64.556
1.37 208.476 68.815
1.38 200.365 70.241
1.39 199.466 70.254
1.40 201.138 70.238
1.41 203.088 70.576
1.42 204.274 71.092
1.43 205.643 71.676
1.44 205.997 72.267
1.45 205.943 72.871
1.46 205.577 73.454
1.47 205.511 73.894
1.48 206.609 74.012
1.49 208.733 73.688
1.50 209.854 73.035
1.51 210.552 72.345
1.52 210.987 71.736
1.53 210.477 71.134
1.54 209.573 70.412
1.55 208.013 69.411
1.56 203.995 67.889
1.57 193.030 65.673
1.58 178.007 62.891
1.59 --undefined-- 59.189
1.60 --undefined-- 53.997
1.61 --undefined-- 48.415
1.62 --undefined-- 44.279
1.63 --undefined-- 41.244
1.64 --undefined-- 40.098
1.65 --undefined-- 39.885
1.66 --undefined-- 39.535
1.67 --undefined-- 38.888
1.68 --undefined-- 37.809
1.69 --undefined-- 37.176
1.70 --undefined-- 38.165
1.71 --undefined-- 40.470
1.72 --undefined-- 41.665
1.73 --undefined-- 40.113
1.74 --undefined-- 38.057
1.75 --undefined-- 39.556
1.76 --undefined-- 41.033
1.77 --undefined-- 40.836
1.78 --undefined-- 40.334
1.79 --undefined-- 40.586
1.80 --undefined-- 40.399
1.81 --undefined-- 39.827
1.82 --undefined-- 40.007
1.83 --undefined-- 40.349
1.84 --undefined-- 39.665
1.85 --undefined-- 39.263
1.86 --undefined-- 40.911
1.87 --undefined-- 42.154
1.88 --undefined-- 42.234
1.89 --undefined-- 41.251
1.90 --undefined-- 40.030
1.91 --undefined-- 39.931
1.92 --undefined-- 39.064
1.93 --undefined-- 40.675
1.94 --undefined-- 54.098
1.95 --undefined-- 64.196
1.96 239.303 70.304
1.97 230.877 73.439
1.98 229.084 74.535
1.99 226.269 74.278
2.00 222.075 72.518
2.01 206.773 68.530
2.02 215.057 62.220
2.03 --undefined-- 54.451
2.04 --undefined-- 47.109
2.05 --undefined-- 43.474
2.06 --undefined-- 41.332
2.07 --undefined-- 40.166
2.08 --undefined-- 46.842
2.09 --undefined-- 55.437
2.10 --undefined-- 63.223
2.11 218.583 68.833
2.12 201.851 71.703
2.13 192.492 72.618
2.14 188.047 72.720
2.15 185.311 72.525
2.16 183.148 72.120
2.17 180.606 71.740
2.18 178.986 71.602
2.19 177.533 71.626
2.20 176.385 71.764
2.21 174.955 71.988
2.22 174.082 72.132
2.23 173.623 72.165
2.24 172.627 72.118
2.25 171.548 71.965
2.26 171.119 71.806
2.27 171.446 71.762
2.28 172.032 71.801
2.29 172.701 71.918
2.30 173.432 72.019
2.31 174.279 71.959
2.32 175.294 71.673
2.33 176.493 71.060
2.34 176.325 69.897
2.35 170.292 67.845
2.36 --undefined-- 64.703
2.37 --undefined-- 60.616
2.38 --undefined-- 55.435
2.39 --undefined-- 48.351
2.40 --undefined-- 41.593
2.41 --undefined-- 40.463
2.42 --undefined-- 40.811
2.43 --undefined-- 41.907
2.44 --undefined-- 43.298
2.45 --undefined-- 44.920
2.46 --undefined-- 45.171
2.47 --undefined-- 44.277
2.48 --undefined-- 44.367
2.49 --undefined-- 44.120
2.50 --undefined-- 43.200
2.51 --undefined-- 43.258
2.52 --undefined-- 43.163
2.53 --undefined-- 42.616
2.54 --undefined-- 43.301
2.55 --undefined-- 44.117
2.56 --undefined-- 44.184
2.57 --undefined-- 44.725
2.58 --undefined-- 47.139
2.59 --undefined-- 55.825
2.60 218.843 63.270
2.61 214.092 67.688
2.62 214.558 69.994
2.63 212.390 70.998
2.64 206.400 71.046
2.65 200.979 70.219
2.66 193.488 68.593
2.67 181.009 66.155
2.68 171.390 62.436
2.69 --undefined-- 56.867
2.70 --undefined-- 50.389
2.71 --undefined-- 46.248
2.72 --undefined-- 44.602
2.73 --undefined-- 45.427
2.74 --undefined-- 45.145
2.75 --undefined-- 42.639
2.76 --undefined-- 42.531
2.77 --undefined-- 49.905
2.78 --undefined-- 56.198
2.79 83.011 60.404
2.80 87.486 63.189
2.81 178.884 65.087
2.82 176.868 66.178
2.83 175.167 66.627
2.84 176.414 66.859
2.85 174.134 67.349
2.86 170.845 67.919
2.87 167.402 68.058
2.88 164.145 67.892
2.89 161.540 68.010
2.90 160.339 68.511
2.91 159.687 68.980
2.92 159.372 69.179
2.93 159.834 69.103
2.94 160.666 68.863
2.95 161.297 68.518
2.96 162.201 68.104
2.97 163.905 67.782
2.98 165.523 67.770
2.99 166.895 68.019
3.00 168.151 68.418
3.01 170.150 68.917
3.02 172.636 69.536
3.03 174.898 70.223
3.04 177.592 70.756
3.05 180.921 70.999
3.06 185.307 71.013
3.07 190.241 70.976
3.08 194.102 70.910
3.09 197.371 70.628
3.10 200.474 70.205
3.11 202.840 69.851
3.12 204.687 69.527
3.13 206.209 69.114
3.14 206.091 68.355
3.15 202.158 66.889
3.16 186.591 64.679
3.17 --undefined-- 61.975
3.18 --undefined-- 58.297
3.19 --undefined-- 52.587
3.20 --undefined-- 45.653
3.21 --undefined-- 42.736
3.22 --undefined-- 41.613
3.23 --undefined-- 41.276
3.24 --undefined-- 42.066
3.25 --undefined-- 42.667
3.26 --undefined-- 42.185
3.27 --undefined-- 42.011
3.28 --undefined-- 44.463
3.29 --undefined-- 54.111
3.30 275.119 62.668
3.31 263.769 67.564
3.32 259.037 69.596
3.33 258.218 69.857
3.34 256.220 70.094
3.35 250.229 71.373
3.36 249.345 72.743
3.37 251.076 73.575
3.38 251.295 73.877
3.39 251.443 73.874
3.40 252.790 73.738
3.41 253.827 73.567
3.42 253.849 73.365
3.43 252.500 72.966
3.44 249.352 71.937
3.45 243.632 69.548
3.46 237.468 65.010
3.47 232.639 57.918
3.48 --undefined-- 50.178
3.49 --undefined-- 47.456
3.50 --undefined-- 48.465
3.51 --undefined-- 50.271
3.52 --undefined-- 51.543
3.53 --undefined-- 55.061
3.54 230.423 60.079
3.55 218.636 63.155
3.56 215.591 64.770
3.57 208.586 66.238
3.58 203.535 67.785
3.59 195.484 68.780
3.60 190.119 69.160
3.61 182.628 68.923
3.62 177.111 67.887
3.63 175.734 66.253
3.64 176.396 63.914
3.65 179.080 59.891
3.66 --undefined-- 53.173
3.67 --undefined-- 44.267
3.68 --undefined-- 40.984
3.69 --undefined-- 41.422
3.70 --undefined-- 42.997
3.71 --undefined-- 43.180
3.72 --undefined-- 41.312
3.73 --undefined-- 40.656
3.74 --undefined-- 43.095
3.75 --undefined-- 48.348
3.76 --undefined-- 58.599
3.77 253.448 66.778
3.78 238.563 71.599
3.79 232.757 73.751
3.80 229.641 74.120
3.81 228.264 73.728
3.82 227.782 73.427
3.83 227.884 73.648
3.84 228.153 74.258
3.85 228.317 74.879
3.86 228.078 75.365
3.87 228.577 75.684
3.88 230.957 75.666
3.89 236.040 75.110
3.90 238.893 74.181
3.91 239.473 73.369
3.92 239.426 72.873
3.93 238.935 72.538
3.94 237.614 72.235
3.95 235.446 71.840
3.96 232.712 71.124
3.97 228.607 69.790
3.98 216.606 67.782
3.99 201.179 65.414
4.00 --undefined-- 62.383
4.01 --undefined-- 57.816
4.02 --undefined-- 51.958
4.03 --undefined-- 46.925
4.04 --undefined-- 43.134
4.05 --undefined-- 41.560
4.06 --undefined-- 41.757
4.07 --undefined-- 42.944
4.08 --undefined-- 42.856
4.09 --undefined-- 42.665
4.10 --undefined-- 42.834
4.11 --undefined-- 41.927
4.12 --undefined-- 40.682
4.13 --undefined-- 40.077
4.14 --undefined-- 40.418
4.15 --undefined-- 40.063
4.16 --undefined-- 39.718
4.17 --undefined-- 40.152
4.18 --undefined-- 40.245
4.19 --undefined-- 40.126
4.20 --undefined-- 40.061
4.21 --undefined-- 39.879
4.22 --undefined-- 39.506
4.23 --undefined-- 39.266
4.24 --undefined-- 39.579
4.25 --undefined-- 40.068
4.26 --undefined-- 39.781
4.27 --undefined-- 38.712
4.28 --undefined-- 38.585
4.29 --undefined-- 39.865
4.30 --undefined-- 40.294
4.31 --undefined-- 41.374
4.32 --undefined-- 45.269
4.33 --undefined-- 48.599
4.34 --undefined-- 51.403
4.35 --undefined-- 59.035
4.36 194.617 65.338
4.37 187.962 68.600
4.38 175.867 69.726
4.39 159.370 69.759
4.40 153.731 69.366
4.41 152.520 68.910
4.42 152.558 68.479
4.43 151.984 68.164
4.44 151.974 68.151
4.45 152.975 68.360
4.46 151.982 68.522
4.47 150.480 68.541
4.48 149.419 68.505
4.49 148.340 68.499
4.50 148.732 68.389
4.51 149.955 68.200
4.52 150.505 68.013
4.53 152.461 67.733
4.54 156.224 67.247
4.55 159.181 66.271
4.56 158.596 64.823
4.57 179.502 63.488
4.58 207.599 61.820
4.59 194.412 59.873
4.60 179.797 60.043
4.61 186.387 62.471
4.62 194.151 65.673
4.63 205.504 68.011
4.64 214.474 69.402
4.65 223.529 70.221
4.66 229.871 70.524
4.67 233.999 69.756
4.68 232.020 66.965
4.69 224.911 61.368
4.70 --undefined-- 52.626
4.71 --undefined-- 44.666
4.72 --undefined-- 42.747
4.73 --undefined-- 41.999
4.74 --undefined-- 41.889
4.75 --undefined-- 48.416
4.76 --undefined-- 58.584
4.77 --undefined-- 65.348
4.78 217.734 68.786
4.79 205.031 69.885
4.80 193.208 70.012
4.81 189.205 70.102
4.82 187.038 70.019
4.83 185.619 69.674
4.84 185.195 69.323
4.85 184.472 69.172
4.86 182.992 69.147
4.87 181.481 69.131
4.88 179.884 69.190
4.89 178.676 69.177
4.90 177.679 68.952
4.91 176.899 68.635
4.92 176.914 68.279
4.93 177.057 67.948
4.94 178.194 67.601
4.95 179.710 66.759
4.96 179.252 64.620
4.97 178.260 60.350
4.98 --undefined-- 53.417
4.99 --undefined-- 44.734
5.00 --undefined-- 40.703
5.01 --undefined-- 39.397
5.02 --undefined-- 38.125
5.03 --undefined-- 37.877
5.04 --undefined-- 38.582
5.05 --undefined-- 43.446
5.06 --undefined-- 53.427
5.07 --undefined-- 61.700
5.08 242.212 66.701
5.09 239.147 69.062
5.10 237.966 70.022
5.11 238.188 70.488
5.12 237.381 70.605
5.13 236.086 70.414
5.14 235.471 70.180
5.15 234.522 70.041
5.16 233.659 69.981
5.17 232.281 69.898
5.18 231.030 69.816
5.19 230.254 69.913
5.20 228.932 70.141
5.21 226.722 70.225
5.22 223.407 70.191
5.23 219.640 70.323
5.24 215.961 70.355
5.25 211.363 69.982
5.26 203.843 69.483
5.27 196.604 69.354
5.28 189.290 69.455
5.29 180.548 69.554
5.30 175.420 69.978
5.31 172.049 70.221
5.32 163.409 69.899
5.33 159.427 69.894
5.34 157.488 70.342
5.35 156.520 70.642
5.36 157.102 70.558
5.37 159.799 70.196
5.38 162.182 69.825
5.39 163.807 69.314
5.40 166.027 68.349
5.41 169.913 67.221
5.42 175.444 66.533
5.43 178.302 65.703
5.44 177.909 64.114
5.45 178.587 61.530
5.46 181.904 57.123
5.47 --undefined-- 50.233
5.48 --undefined-- 43.126
5.49 --undefined-- 40.536
5.50 --undefined-- 44.319
5.51 --undefined-- 50.265
5.52 --undefined-- 59.226
5.53 249.084 67.618
5.54 239.879 72.695
5.55 230.890 74.817
5.56 224.073 74.906
5.57 221.504 74.302
5.58 220.812 74.116
5.59 220.576 74.258
5.60 219.391 74.512
5.61 217.889 74.887
5.62 216.289 75.168
5.63 215.978 75.116
5.64 218.928 74.610
5.65 219.698 73.766
5.66 219.118 72.878
5.67 219.286 72.199
5.68 219.560 71.719
5.69 220.069 71.383
5.70 220.003 71.090
5.71 219.617 70.721
5.72 218.826 70.218
5.73 217.622 69.506
5.74 215.600 68.463
5.75 209.758 66.813
5.76 194.508 64.237
5.77 185.317 60.532
5.78 --undefined-- 56.029
5.79 --undefined-- 52.195
5.80 --undefined-- 48.632
5.81 --undefined-- 43.878
5.82 --undefined-- 40.965
5.83 --undefined-- 39.806
5.84 --undefined-- 39.175
5.85 --undefined-- 38.436
5.86 --undefined-- 38.006
5.87 --undefined-- 39.808
5.88 --undefined-- 41.205
5.89 --undefined-- 40.774
5.90 --undefined-- 40.099
5.91 --undefined-- 39.988
5.92 --undefined-- 40.367
5.93 --undefined-- 40.495
5.94 --undefined-- 39.212
5.95 --undefined-- 39.274
5.96 --undefined-- 40.960
5.97 --undefined-- 42.161
5.98 --undefined-- 43.026
5.99 --undefined-- 43.090
6.00 --undefined-- 43.104
6.01 --undefined-- 42.991
6.02 --undefined-- 42.753
6.03 --undefined-- 43.293
6.04 --undefined-- 43.546
6.05 --undefined-- 43.556
6.06 --undefined-- 44.394
6.07 --undefined-- 45.980
6.08 --undefined-- 47.108
6.09 --undefined-- 48.222
6.10 --undefined-- 52.094
6.11 --undefined-- 60.388
6.12 221.037 66.732
6.13 218.360 70.235
6.14 214.244 71.880
6.15 209.745 72.546
6.16 206.104 72.922
6.17 203.375 73.307
6.18 202.777 73.844
6.19 202.984 74.464
6.20 202.957 75.056
6.21 203.256 75.589
6.22 203.989 75.858
6.23 205.215 75.637
6.24 205.969 75.079
6.25 205.967 74.413
6.26 205.754 --undefined--
6.27 205.846 --undefined--
6.28 --undefined-- --undefined--
6.29 --undefined-- --undefined--
