Time Pitch Intensity
0.01 --undefined-- --undefined--
0.02 172.408 --undefined--
0.03 173.464 --undefined--
0.04 171.696 --undefined--
0.05 169.863 73.019
0.06 168.077 69.552
0.07 166.101 64.146
0.08 169.880 57.437
0.09 171.524 53.531
0.10 168.546 52.754
0.11 166.921 51.981
0.12 160.265 51.305
0.13 --undefined-- 50.878
0.14 --undefined-- 51.050
0.15 --undefined-- 51.456
0.16 --undefined-- 51.454
0.17 --undefined-- 51.512
0.18 --undefined-- 51.818
0.19 --undefined-- 52.383
0.20 --undefined-- 52.603
0.21 --undefined-- 52.026
0.22 --undefined-- 50.904
0.23 --undefined-- 49.889
0.24 --undefined-- 49.057
0.25 --undefined-- 47.739
0.26 --undefined-- 45.717
0.27 --undefined-- 43.394
0.28 --undefined-- 41.687
0.29 --undefined-- 43.895
0.30 --undefined-- 49.507
0.31 --undefined-- 54.340
0.32 --undefined-- 58.297
0.33 --undefined-- 61.265
0.34 --undefined-- 63.031
0.35 --undefined-- 64.519
0.36 --undefined-- 67.875
0.37 134.595 71.788
0.38 133.980 73.407
0.39 120.925 73.002
0.40 121.851 72.731
0.41 120.512 73.343
0.42 117.959 73.613
0.43 117.197 73.191
0.44 120.353 72.776
0.45 117.877 72.653
0.46 116.511 72.154
0.47 --undefined-- 70.377
0.48 --undefined-- 66.748
0.49 --undefined-- 60.857
0.50 --undefined-- 53.466
0.51 --undefined-- 48.111
0.52 --undefined-- 45.801
0.53 --undefined-- 47.104
0.54 --undefined-- 52.121
0.55 --undefined-- 57.505
0.56 97.424 61.177
0.57 105.927 64.046
0.58 107.062 66.341
0.59 106.917 67.951
0.60 106.392 68.963
0.61 105.462 69.461
0.62 103.973 69.484
0.63 102.503 69.161
0.64 101.018 68.721
0.65 99.469 68.293
0.66 98.311 68.040
0.67 98.524 67.962
0.68 98.505 67.925
0.69 98.373 67.956
0.70 99.478 68.046
0.71 100.484 68.184
0.72 101.763 68.230
0.73 103.206 67.851
0.74 104.311 66.880
0.75 108.194 65.506
0.76 115.344 63.571
0.77 113.994 60.696
0.78 --undefined-- 59.090
0.79 --undefined-- 62.570
0.80 --undefined-- 66.115
0.81 --undefined-- 68.221
0.82 --undefined-- 71.777
0.83 182.390 75.042
0.84 168.433 76.004
0.85 165.507 75.230
0.86 161.040 73.048
0.87 155.396 68.966
0.88 162.384 63.231
0.89 163.947 58.793
0.90 163.719 57.617
0.91 160.840 56.886
0.92 161.915 54.994
0.93 164.755 51.621
0.94 --undefined-- 50.829
0.95 --undefined-- 59.085
0.96 --undefined-- 67.551
0.97 --undefined-- 73.015
0.98 --undefined-- 75.103
0.99 138.955 74.601
1.00 131.091 73.523
1.01 127.606 73.359
1.02 123.303 73.335
1.03 121.023 73.257
1.04 119.725 73.427
1.05 118.225 73.477
1.06 117.322 73.330
1.07 117.338 73.531
1.08 116.667 73.628
1.09 115.522 72.603
1.10 114.515 69.947
1.11 113.814 66.169
1.12 114.413 63.233
1.13 113.406 62.116
1.14 116.933 65.027
1.15 135.859 70.753
1.16 134.832 74.181
1.17 130.656 75.022
1.18 127.589 74.757
1.19 125.705 74.511
1.20 125.981 74.236
1.21 125.933 73.904
1.22 125.367 73.513
1.23 124.350 73.267
1.24 123.013 73.356
1.25 121.579 73.593
1.26 120.991 73.418
1.27 121.353 72.729
1.28 120.761 71.838
1.29 116.909 70.883
1.30 106.939 69.902
1.31 90.918 68.547
1.32 --undefined-- 66.114
1.33 --undefined-- 62.172
1.34 --undefined-- 57.009
1.35 --undefined-- 52.031
1.36 --undefined-- 48.418
1.37 --undefined-- 45.748
1.38 --undefined-- 45.230
1.39 --undefined-- 48.940
1.40 --undefined-- 53.210
1.41 --undefined-- 55.708
1.42 --undefined-- 55.328
1.43 --undefined-- 52.857
1.44 --undefined-- 50.801
1.45 --undefined-- 49.203
1.46 --undefined-- 48.185
1.47 --undefined-- 48.677
1.48 --undefined-- 49.742
1.49 --undefined-- 50.435
1.50 --undefined-- 50.268
1.51 --undefined-- 49.630
1.52 --undefined-- 49.500
1.53 --undefined-- 49.309
1.54 --undefined-- 48.790
1.55 --undefined-- 48.852
1.56 --undefined-- 49.164
1.57 --undefined-- 49.366
1.58 --undefined-- 50.359
1.59 --undefined-- 51.704
1.60 --undefined-- 52.135
1.61 --undefined-- 52.604
1.62 --undefined-- 52.831
1.63 --undefined-- 52.000
1.64 --undefined-- 50.576
1.65 --undefined-- 48.495
1.66 --undefined-- 45.427
1.67 --undefined-- 42.658
1.68 --undefined-- 42.307
1.69 --undefined-- 44.807
1.70 --undefined-- 54.508
1.71 --undefined-- 62.105
1.72 --undefined-- 66.411
1.73 106.819 69.198
1.74 113.106 71.919
1.75 114.242 74.332
1.76 115.265 75.746
1.77 116.734 76.294
1.78 117.797 76.520
1.79 118.179 76.527
1.80 118.238 76.377
1.81 117.867 76.171
1.82 117.409 75.968
1.83 116.844 75.812
1.84 116.575 75.714
1.85 116.530 75.680
1.86 116.681 75.666
1.87 116.595 75.611
1.88 116.464 75.490
1.89 116.135 75.281
1.90 113.793 75.071
1.91 113.928 74.985
1.92 112.677 74.860
1.93 112.092 74.596
1.94 111.964 74.283
1.95 111.264 73.812
1.96 110.586 72.870
1.97 108.878 71.119
1.98 106.921 68.205
1.99 103.733 64.032
2.00 106.192 59.291
2.01 112.560 54.703
2.02 --undefined-- 50.347
2.03 --undefined-- 47.962
2.04 --undefined-- 49.881
2.05 --undefined-- 55.648
2.06 --undefined-- 59.748
2.07 --undefined-- 62.106
2.08 --undefined-- 64.904
2.09 --undefined-- 69.488
2.10 --undefined-- 73.475
2.11 132.554 74.968
2.12 132.274 74.790
2.13 132.385 74.678
2.14 131.153 74.829
2.15 131.207 74.990
2.16 136.739 74.998
2.17 139.641 73.790
2.18 130.604 70.154
2.19 134.726 64.222
2.20 135.664 62.438
2.21 162.046 68.720
2.22 163.626 73.846
2.23 150.429 76.075
2.24 144.557 76.085
2.25 135.135 75.205
2.26 130.594 74.854
2.27 130.611 74.952
2.28 131.015 74.905
2.29 130.463 74.911
2.30 136.328 75.583
2.31 142.084 76.224
2.32 147.508 76.466
2.33 149.689 76.605
2.34 156.724 76.625
2.35 158.988 76.574
2.36 161.233 76.568
2.37 164.640 76.414
2.38 168.516 76.157
2.39 170.310 75.978
2.40 171.647 75.728
2.41 173.052 75.371
2.42 172.045 74.804
2.43 170.632 73.939
2.44 168.308 72.877
2.45 154.466 71.192
2.46 140.703 68.827
2.47 129.394 67.147
2.48 129.938 67.944
2.49 137.802 70.938
2.50 137.928 73.775
2.51 136.659 75.412
2.52 142.875 75.873
2.53 142.490 75.325
2.54 140.228 74.084
2.55 133.285 72.913
2.56 128.068 72.835
2.57 121.952 73.660
2.58 121.509 74.195
2.59 119.961 74.203
2.60 120.969 74.073
2.61 120.929 74.030
2.62 121.156 74.047
2.63 121.526 73.882
2.64 121.581 73.257
2.65 119.053 71.877
2.66 114.693 69.938
2.67 119.372 68.613
2.68 118.810 68.551
2.69 122.319 69.988
2.70 125.719 71.798
2.71 124.954 73.005
2.72 124.705 73.742
2.73 124.597 74.206
2.74 124.520 74.490
2.75 124.407 74.696
2.76 124.753 74.948
2.77 124.964 75.263
2.78 124.898 75.609
2.79 127.300 75.969
2.80 137.394 76.113
2.81 123.287 75.693
2.82 122.912 75.134
2.83 121.343 74.866
2.84 120.749 74.760
2.85 120.057 74.603
2.86 119.534 74.451
2.87 119.280 74.408
2.88 119.325 74.355
2.89 119.687 74.401
2.90 120.008 74.549
2.91 119.855 74.698
2.92 119.492 74.907
2.93 118.971 75.171
2.94 118.827 75.366
2.95 118.685 75.393
2.96 118.324 75.335
2.97 118.317 75.201
2.98 118.491 74.806
2.99 118.470 74.187
3.00 118.468 73.781
3.01 119.443 74.248
3.02 121.127 75.309
3.03 122.159 75.762
3.04 122.636 75.281
3.05 121.599 74.486
3.06 117.352 73.434
3.07 110.029 72.308
3.08 109.240 71.851
3.09 107.400 71.842
3.10 107.890 72.183
3.11 108.820 72.885
3.12 111.763 73.674
3.13 114.770 74.525
3.14 118.005 75.115
3.15 119.338 75.008
3.16 122.444 74.548
3.17 126.572 74.429
3.18 129.180 74.694
3.19 132.136 75.065
3.20 135.195 75.511
3.21 137.881 75.900
3.22 139.754 75.808
3.23 140.362 74.799
3.24 140.042 72.217
3.25 136.079 67.458
3.26 138.334 60.933
3.27 142.669 54.956
3.28 145.760 52.827
3.29 140.403 53.534
3.30 --undefined-- 56.206
3.31 --undefined-- 58.849
3.32 --undefined-- 60.159
3.33 --undefined-- 61.663
3.34 --undefined-- 64.015
3.35 --undefined-- 65.155
3.36 --undefined-- 66.487
3.37 --undefined-- 71.925
3.38 226.692 76.028
3.39 218.803 77.213
3.40 216.791 76.294
3.41 214.246 73.983
3.42 211.908 70.080
3.43 206.041 64.087
3.44 212.515 57.281
3.45 215.301 55.233
3.46 216.350 55.644
3.47 215.688 55.284
3.48 216.510 53.557
3.49 218.417 50.643
3.50 --undefined-- 47.280
3.51 --undefined-- 44.061
3.52 --undefined-- 41.782
3.53 --undefined-- 39.702
3.54 --undefined-- 37.106
3.55 --undefined-- 37.287
3.56 --undefined-- 39.852
3.57 --undefined-- 41.217
3.58 --undefined-- 41.062
3.59 --undefined-- 39.548
3.60 --undefined-- 39.964
3.61 --undefined-- 50.822
3.62 --undefined-- 61.849
3.63 --undefined-- 69.669
3.64 --undefined-- 73.859
3.65 149.855 75.069
3.66 142.102 74.398
3.67 131.555 73.073
3.68 126.831 72.193
3.69 123.820 72.136
3.70 121.797 72.361
3.71 121.726 72.672
3.72 122.934 73.316
3.73 124.370 74.099
3.74 124.156 74.716
3.75 123.218 75.075
3.76 122.559 74.984
3.77 123.487 74.522
3.78 124.371 74.112
3.79 124.399 73.885
3.80 124.225 73.765
3.81 123.947 73.654
3.82 122.513 73.090
3.83 120.450 71.381
3.84 118.100 67.992
3.85 120.494 63.314
3.86 122.332 59.250
3.87 124.170 56.915
3.88 126.960 60.956
3.89 139.742 68.534
3.90 138.701 73.087
3.91 130.150 74.779
3.92 126.687 74.840
3.93 123.166 74.370
3.94 121.697 74.022
3.95 121.440 74.237
3.96 120.785 74.503
3.97 118.897 73.750
3.98 113.495 71.104
3.99 111.538 66.494
4.00 124.078 61.498
4.01 123.978 57.219
4.02 121.892 54.047
4.03 --undefined-- 55.325
4.04 --undefined-- 57.938
4.05 --undefined-- 60.122
4.06 --undefined-- 61.756
4.07 --undefined-- 66.226
4.08 --undefined-- 71.131
4.09 115.643 73.453
4.10 111.704 73.502
4.11 104.757 72.232
4.12 99.542 69.968
4.13 94.267 67.325
4.14 95.485 66.799
4.15 99.460 68.584
4.16 99.016 70.005
4.17 97.900 70.216
4.18 96.235 69.249
4.19 93.402 66.971
4.20 87.236 63.072
4.21 --undefined-- 58.784
4.22 --undefined-- 60.711
4.23 --undefined-- 67.545
4.24 --undefined-- 72.183
4.25 108.145 73.803
4.26 109.336 73.608
4.27 105.633 73.293
4.28 104.072 73.305
4.29 102.759 73.308
4.30 101.740 73.075
4.31 100.579 72.689
4.32 99.492 72.229
4.33 98.269 70.982
4.34 95.409 68.321
4.35 95.176 64.534
4.36 98.612 60.905
4.37 102.148 57.359
4.38 --undefined-- 58.950
4.39 --undefined-- 66.649
4.40 134.353 72.069
4.41 133.562 74.448
4.42 124.994 74.562
4.43 122.606 73.858
4.44 122.598 73.491
4.45 122.901 73.469
4.46 122.165 73.647
4.47 121.821 74.122
4.48 121.676 74.826
4.49 120.882 75.250
4.50 119.007 74.804
4.51 116.583 72.895
4.52 111.692 69.772
4.53 114.453 68.750
4.54 121.485 71.420
4.55 123.972 73.868
4.56 120.828 74.669
4.57 115.378 74.391
4.58 112.856 73.955
4.59 111.279 73.398
4.60 110.308 72.578
4.61 111.583 72.017
4.62 112.690 72.067
4.63 114.141 72.219
4.64 113.624 71.695
4.65 112.036 70.167
4.66 104.285 67.753
4.67 100.133 65.149
4.68 --undefined-- 63.321
4.69 --undefined-- 60.877
4.70 --undefined-- 55.609
4.71 --undefined-- 49.778
4.72 --undefined-- 51.789
4.73 --undefined-- 53.744
4.74 --undefined-- 53.426
4.75 --undefined-- 52.704
4.76 --undefined-- 53.120
4.77 --undefined-- 53.212
4.78 --undefined-- 52.736
4.79 --undefined-- 52.321
4.80 --undefined-- 52.166
4.81 --undefined-- 52.214
4.82 --undefined-- 52.257
4.83 --undefined-- 52.248
4.84 --undefined-- 51.909
4.85 --undefined-- 50.981
4.86 --undefined-- 49.934
4.87 --undefined-- 48.854
4.88 --undefined-- 47.214
4.89 --undefined-- 44.462
4.90 --undefined-- 41.295
4.91 --undefined-- 39.143
4.92 --undefined-- 38.484
4.93 --undefined-- 41.058
4.94 --undefined-- 47.082
4.95 --undefined-- 53.134
4.96 --undefined-- 57.934
4.97 --undefined-- 61.123
4.98 --undefined-- 65.017
4.99 --undefined-- 70.304
5.00 142.562 73.745
5.01 140.059 74.650
5.02 137.683 74.475
5.03 134.346 74.758
5.04 130.021 75.192
5.05 126.023 75.410
5.06 127.801 75.237
5.07 131.191 75.188
5.08 129.826 75.447
5.09 128.967 75.438
5.10 129.013 75.172
5.11 129.155 74.963
5.12 128.938 74.898
5.13 128.087 75.025
5.14 125.980 75.317
5.15 124.306 75.514
5.16 122.980 75.363
5.17 121.759 74.407
5.18 119.924 71.868
5.19 117.806 67.413
5.20 123.973 62.301
5.21 127.645 58.847
5.22 127.203 55.526
5.23 127.260 51.436
5.24 --undefined-- 48.302
5.25 --undefined-- --undefined--
5.26 --undefined-- --undefined--
5.27 --undefined-- --undefined--
5.28 --undefined-- --undefined--
