Time Pitch Intensity
0.01 --undefined-- --undefined--
0.02 107.491 --undefined--
0.03 107.092 --undefined--
0.04 106.402 --undefined--
0.05 106.513 71.492
0.06 106.298 71.731
0.07 106.043 71.858
0.08 105.545 71.950
0.09 105.522 71.941
0.10 105.635 71.924
0.11 105.854 71.933
0.12 106.421 71.779
0.13 106.641 71.231
0.14 106.554 70.117
0.15 106.327 68.605
0.16 105.628 67.188
0.17 106.521 66.435
0.18 108.641 66.317
0.19 110.199 66.418
0.20 108.167 67.056
0.21 100.090 68.611
0.22 97.904 70.081
0.23 96.505 70.803
0.24 92.702 70.786
0.25 92.684 70.452
0.26 94.054 70.158
0.27 94.614 69.733
0.28 95.365 69.055
0.29 95.163 68.022
0.30 95.889 66.994
0.31 97.479 66.234
0.32 97.685 65.436
0.33 100.626 64.290
0.34 97.554 62.878
0.35 92.158 64.418
0.36 113.719 68.986
0.37 108.143 72.077
0.38 103.612 72.938
0.39 99.465 72.272
0.40 98.352 71.563
0.41 100.750 71.638
0.42 101.133 72.097
0.43 101.491 72.246
0.44 102.130 71.661
0.45 100.983 70.263
0.46 97.243 68.058
0.47 95.728 65.022
0.48 93.544 61.153
0.49 --undefined-- 56.559
0.50 --undefined-- 53.356
0.51 --undefined-- 55.880
0.52 --undefined-- 65.921
0.53 153.591 73.063
0.54 143.762 77.054
0.55 136.369 78.947
0.56 135.337 79.766
0.57 135.794 80.225
0.58 136.690 80.565
0.59 136.979 80.776
0.60 137.255 80.873
0.61 137.963 80.879
0.62 139.235 80.777
0.63 140.718 80.596
0.64 141.175 80.446
0.65 140.882 80.412
0.66 140.871 80.468
0.67 140.840 80.550
0.68 140.681 80.642
0.69 141.000 80.723
0.70 141.336 80.768
0.71 141.314 80.784
0.72 141.009 80.788
0.73 140.691 80.817
0.74 140.690 80.849
0.75 140.269 80.775
0.76 139.412 80.558
0.77 138.066 80.201
0.78 136.627 79.646
0.79 134.766 78.953
0.80 132.513 78.382
0.81 129.766 78.016
0.82 127.441 77.677
0.83 125.806 77.248
0.84 126.677 76.753
0.85 123.981 76.199
0.86 121.562 75.677
0.87 118.954 74.917
0.88 113.843 73.668
0.89 112.588 72.755
0.90 111.144 72.358
0.91 110.791 72.116
0.92 110.490 72.056
0.93 109.861 72.205
0.94 109.150 72.537
0.95 108.585 72.815
0.96 108.484 72.698
0.97 109.302 72.036
0.98 111.090 71.175
0.99 111.281 70.586
1.00 111.455 69.883
1.01 110.131 68.380
1.02 112.072 66.590
1.03 113.257 65.233
1.04 118.002 64.362
1.05 129.978 65.577
1.06 132.801 68.673
1.07 136.348 71.321
1.08 136.359 72.837
1.09 133.609 73.715
1.10 134.548 74.424
1.11 135.328 74.535
1.12 135.157 74.015
1.13 134.886 73.617
1.14 134.604 73.502
1.15 134.991 73.382
1.16 135.459 73.348
1.17 135.049 73.433
1.18 134.021 73.551
1.19 131.927 73.559
1.20 127.239 73.174
1.21 129.801 72.494
1.22 129.098 71.885
1.23 127.615 71.494
1.24 127.098 71.872
1.25 125.941 73.167
1.26 125.888 74.103
1.27 123.953 73.929
1.28 122.256 73.201
1.29 120.959 72.796
1.30 119.822 72.845
1.31 119.023 73.071
1.32 118.179 73.116
1.33 118.049 73.127
1.34 118.153 73.412
1.35 118.476 73.549
1.36 118.941 72.920
1.37 118.903 71.291
1.38 107.714 69.477
1.39 107.697 68.832
1.40 113.068 68.593
1.41 113.743 68.244
1.42 115.981 67.929
1.43 122.895 67.976
1.44 131.329 68.908
1.45 133.019 70.197
1.46 134.424 71.092
1.47 138.026 71.560
1.48 137.880 71.294
1.49 136.252 70.178
1.50 133.146 68.453
1.51 --undefined-- 65.503
1.52 --undefined-- 60.123
1.53 --undefined-- 51.960
1.54 --undefined-- 49.598
1.55 --undefined-- 56.400
1.56 --undefined-- 63.671
1.57 --undefined-- 68.858
1.58 --undefined-- 71.458
1.59 105.822 72.241
1.60 99.543 71.877
1.61 98.389 71.209
1.62 96.738 70.802
1.63 97.856 70.479
1.64 99.071 69.885
1.65 99.827 68.778
1.66 100.656 66.772
1.67 99.347 63.408
1.68 99.934 58.630
1.69 --undefined-- 53.055
1.70 --undefined-- 49.052
1.71 --undefined-- 48.303
1.72 --undefined-- 52.354
1.73 --undefined-- 62.041
1.74 --undefined-- 69.102
1.75 --undefined-- 73.232
1.76 133.532 75.347
1.77 131.588 76.338
1.78 129.495 76.686
1.79 127.611 76.794
1.80 127.188 76.937
1.81 127.574 77.126
1.82 128.360 77.326
1.83 128.890 77.489
1.84 129.143 77.569
1.85 129.465 77.639
1.86 129.681 77.711
1.87 130.622 77.752
1.88 131.608 77.811
1.89 131.907 77.863
1.90 131.840 77.839
1.91 131.451 77.764
1.92 131.192 77.651
1.93 131.267 77.466
1.94 131.188 77.228
1.95 130.185 76.996
1.96 128.654 76.794
1.97 127.955 76.497
1.98 124.659 76.015
1.99 121.728 75.798
2.00 121.240 75.556
2.01 116.196 74.579
2.02 113.282 73.673
2.03 110.411 73.294
2.04 108.364 73.089
2.05 107.651 73.059
2.06 107.028 73.039
2.07 106.454 72.821
2.08 106.370 72.458
2.09 108.147 72.153
2.10 110.380 71.825
2.11 109.572 70.689
2.12 106.654 68.226
2.13 113.274 65.541
2.14 110.098 63.620
2.15 --undefined-- 62.773
2.16 159.404 66.085
2.17 150.991 70.395
2.18 144.200 73.050
2.19 137.132 74.134
2.20 135.085 74.439
2.21 132.344 74.402
2.22 126.964 74.277
2.23 124.655 74.384
2.24 122.532 73.989
2.25 121.454 71.971
2.26 108.915 67.696
2.27 110.789 61.638
2.28 --undefined-- 54.972
2.29 --undefined-- 50.577
2.30 --undefined-- 60.369
2.31 --undefined-- 68.725
2.32 --undefined-- 73.317
2.33 113.038 74.976
2.34 114.827 74.872
2.35 113.299 73.927
2.36 113.285 72.573
2.37 112.945 70.916
2.38 112.503 68.964
2.39 111.515 66.992
2.40 106.978 64.630
2.41 103.017 61.154
2.42 --undefined-- 56.773
2.43 --undefined-- 59.422
2.44 --undefined-- 65.976
2.45 --undefined-- 69.967
2.46 105.281 71.946
2.47 102.271 72.507
2.48 94.676 71.972
2.49 92.237 71.068
2.50 92.102 70.537
2.51 95.399 70.441
2.52 98.218 70.593
2.53 100.123 70.450
2.54 100.237 69.646
2.55 100.170 68.039
2.56 100.110 65.537
2.57 100.658 62.231
2.58 101.746 58.111
2.59 --undefined-- 52.783
2.60 --undefined-- 47.666
2.61 --undefined-- 51.343
2.62 --undefined-- 61.797
2.63 --undefined-- 68.753
2.64 148.472 72.636
2.65 141.473 74.519
2.66 140.776 75.388
2.67 139.844 75.906
2.68 139.032 76.288
2.69 138.076 76.564
2.70 136.793 76.750
2.71 135.248 76.798
2.72 134.092 76.665
2.73 132.727 76.418
2.74 131.534 76.163
2.75 130.706 75.949
2.76 130.222 75.748
2.77 129.917 75.618
2.78 130.058 75.639
2.79 130.419 75.630
2.80 128.476 75.326
2.81 123.848 74.997
2.82 120.715 74.994
2.83 118.520 74.839
2.84 116.359 74.355
2.85 115.232 73.946
2.86 115.616 73.520
2.87 114.561 72.662
2.88 112.859 71.522
2.89 110.307 70.596
2.90 107.632 70.093
2.91 106.615 70.102
2.92 106.023 70.479
2.93 104.237 70.835
2.94 102.007 70.891
2.95 99.634 70.485
2.96 96.848 69.726
2.97 94.953 68.892
2.98 94.225 67.990
2.99 91.722 67.285
3.00 94.120 67.346
3.01 97.332 67.836
3.02 98.194 68.352
3.03 99.946 68.953
3.04 101.770 69.577
3.05 103.097 69.859
3.06 104.063 69.411
3.07 104.036 68.144
3.08 103.691 66.377
3.09 106.730 64.011
3.10 114.267 60.235
3.11 --undefined-- 56.084
3.12 --undefined-- 58.755
3.13 --undefined-- 65.678
3.14 --undefined-- 70.596
3.15 120.856 73.382
3.16 117.104 74.788
3.17 114.233 75.474
3.18 112.248 75.743
3.19 110.964 75.699
3.20 110.319 75.495
3.21 109.782 75.229
3.22 109.081 74.940
3.23 108.442 74.673
3.24 108.616 74.457
3.25 109.442 74.263
3.26 110.852 74.050
3.27 112.576 73.934
3.28 115.122 73.967
3.29 119.672 73.990
3.30 122.903 74.009
3.31 126.732 74.142
3.32 129.854 74.382
3.33 132.051 74.684
3.34 131.764 74.796
3.35 129.405 74.679
3.36 126.122 74.567
3.37 122.476 74.646
3.38 119.816 74.985
3.39 116.382 75.182
3.40 113.591 75.117
3.41 110.900 74.881
3.42 107.462 74.437
3.43 105.330 73.879
3.44 104.536 73.377
3.45 104.445 73.142
3.46 103.493 73.108
3.47 102.900 73.132
3.48 104.407 73.369
3.49 106.494 73.998
3.50 107.250 74.756
3.51 107.948 75.093
3.52 108.321 74.758
3.53 110.892 74.177
3.54 115.219 74.038
3.55 117.573 74.338
3.56 118.760 74.406
3.57 118.875 73.942
3.58 124.179 74.106
3.59 129.910 75.371
3.60 130.424 76.538
3.61 129.897 77.611
3.62 130.257 78.655
3.63 130.010 79.118
3.64 128.959 78.819
3.65 128.282 77.882
3.66 127.755 76.480
3.67 127.622 74.628
3.68 123.472 71.999
3.69 120.806 68.559
3.70 113.391 64.441
3.71 106.935 59.679
3.72 --undefined-- 55.591
3.73 --undefined-- 53.681
3.74 --undefined-- 58.303
3.75 --undefined-- 66.413
3.76 --undefined-- 71.259
3.77 109.778 73.215
3.78 103.157 73.343
3.79 100.060 72.875
3.80 98.618 72.553
3.81 97.529 72.121
3.82 97.071 71.540
3.83 100.311 71.303
3.84 100.658 71.655
3.85 105.965 72.316
3.86 106.016 73.007
3.87 109.748 73.569
3.88 112.642 73.905
3.89 115.707 74.015
3.90 116.690 73.698
3.91 116.826 72.377
3.92 116.579 70.283
3.93 117.313 69.311
3.94 115.779 70.058
3.95 113.113 71.381
3.96 112.909 72.643
3.97 112.340 73.570
3.98 111.667 74.124
3.99 111.629 74.378
4.00 112.710 74.415
4.01 114.599 74.283
4.02 115.274 73.726
4.03 113.369 71.982
4.04 106.470 68.659
4.05 115.870 64.060
4.06 --undefined-- 58.657
4.07 --undefined-- 52.611
4.08 --undefined-- 57.439
4.09 --undefined-- 67.633
4.10 --undefined-- 74.228
4.11 --undefined-- 77.435
4.12 117.834 78.334
4.13 111.437 78.166
4.14 109.931 78.049
4.15 109.077 78.144
4.16 109.213 77.826
4.17 109.827 76.596
4.18 110.130 73.892
4.19 --undefined-- 69.188
4.20 --undefined-- 62.135
4.21 --undefined-- 55.438
4.22 --undefined-- 59.460
4.23 129.828 66.517
4.24 113.161 71.528
4.25 114.645 74.816
4.26 115.859 76.824
4.27 116.103 77.966
4.28 116.883 78.851
4.29 117.414 79.557
4.30 117.254 79.591
4.31 116.647 78.681
4.32 115.664 77.135
4.33 116.640 75.683
4.34 117.927 74.904
4.35 119.984 74.591
4.36 120.941 73.967
4.37 117.101 72.107
4.38 112.033 69.381
4.39 119.429 69.067
4.40 132.425 72.143
4.41 130.196 74.872
4.42 125.808 76.348
4.43 124.917 77.280
4.44 123.394 77.881
4.45 122.300 77.987
4.46 121.091 77.512
4.47 120.771 76.684
4.48 121.111 75.947
4.49 120.248 75.128
4.50 118.131 73.894
4.51 115.588 72.738
4.52 112.919 72.505
4.53 112.152 73.169
4.54 111.516 73.940
4.55 109.971 74.210
4.56 106.161 73.903
4.57 103.152 73.696
4.58 103.302 73.838
4.59 101.121 73.540
4.60 97.815 73.049
4.61 97.934 73.217
4.62 98.663 73.569
4.63 99.814 73.674
4.64 102.640 73.682
4.65 103.724 73.579
4.66 103.844 72.835
4.67 102.994 70.955
4.68 101.931 67.704
4.69 101.582 64.054
4.70 107.716 63.693
4.71 111.808 67.430
4.72 114.159 71.295
4.73 111.895 73.598
4.74 106.753 74.489
4.75 104.671 74.797
4.76 103.650 74.763
4.77 102.767 74.387
4.78 102.774 73.835
4.79 103.069 73.067
4.80 103.355 72.117
4.81 103.547 71.150
4.82 102.816 70.337
4.83 104.236 70.250
4.84 105.251 70.713
4.85 105.173 71.100
4.86 105.009 71.503
4.87 104.672 71.932
4.88 104.895 72.195
4.89 103.734 72.263
4.90 104.133 --undefined--
4.91 104.434 --undefined--
4.92 --undefined-- --undefined--
4.93 --undefined-- --undefined--
