Time Pitch Intensity
0.01 --undefined-- --undefined--
0.02 214.258 --undefined--
0.03 218.807 --undefined--
0.04 223.204 --undefined--
0.05 225.741 70.004
0.06 227.335 69.888
0.07 226.830 69.581
0.08 224.167 69.231
0.09 220.036 68.770
0.10 212.556 68.094
0.11 204.394 67.432
0.12 197.621 66.771
0.13 193.875 65.459
0.14 191.528 62.688
0.15 178.291 58.547
0.16 177.870 55.083
0.17 188.642 54.500
0.18 236.213 59.845
0.19 229.229 64.387
0.20 226.726 66.598
0.21 227.554 67.338
0.22 229.566 67.629
0.23 231.499 67.770
0.24 233.119 67.740
0.25 232.689 67.518
0.26 231.507 67.237
0.27 229.910 66.957
0.28 227.932 66.437
0.29 223.943 65.856
0.30 218.234 65.860
0.31 212.283 66.471
0.32 197.764 67.091
0.33 183.693 67.409
0.34 173.447 67.020
0.35 161.416 65.770
0.36 158.994 64.468
0.37 151.106 63.500
0.38 --undefined-- 62.518
0.39 --undefined-- 61.114
0.40 --undefined-- 58.652
0.41 --undefined-- 55.719
0.42 --undefined-- 54.851
0.43 --undefined-- 54.869
0.44 --undefined-- 57.944
0.45 --undefined-- 63.217
0.46 --undefined-- 66.222
0.47 --undefined-- 67.098
0.48 163.680 66.956
0.49 161.971 66.456
0.50 160.672 65.600
0.51 159.961 64.802
0.52 159.750 64.191
0.53 160.282 63.525
0.54 161.497 62.858
0.55 161.938 62.575
0.56 161.620 62.480
0.57 162.016 62.450
0.58 165.043 62.775
0.59 166.494 63.277
0.60 167.373 63.366
0.61 168.620 62.980
0.62 168.673 62.814
0.63 165.740 62.973
0.64 163.254 62.871
0.65 162.675 62.077
0.66 160.650 60.526
0.67 158.996 59.097
0.68 159.044 59.408
0.69 162.244 61.100
0.70 162.499 62.375
0.71 159.912 63.010
0.72 158.545 63.408
0.73 156.551 63.254
0.74 155.171 62.833
0.75 155.565 62.754
0.76 156.471 62.832
0.77 157.456 62.701
0.78 158.626 62.583
0.79 159.116 62.852
0.80 159.335 63.216
0.81 159.202 63.265
0.82 157.367 62.936
0.83 156.554 62.015
0.84 151.508 59.734
0.85 149.606 55.494
0.86 --undefined-- 50.790
0.87 --undefined-- 50.767
0.88 --undefined-- 53.171
0.89 --undefined-- 54.395
0.90 --undefined-- 56.684
0.91 170.585 59.653
0.92 170.795 60.903
0.93 156.576 61.025
0.94 157.395 61.533
0.95 157.966 62.177
0.96 158.637 62.024
0.97 160.303 61.007
0.98 160.042 59.561
0.99 156.891 58.211
1.00 160.698 58.046
1.01 179.019 59.625
1.02 179.431 61.288
1.03 182.423 62.386
1.04 184.086 62.838
1.05 187.862 62.647
1.06 189.022 61.679
1.07 188.567 59.378
1.08 192.603 55.868
1.09 --undefined-- 55.162
1.10 --undefined-- 57.796
1.11 254.848 62.159
1.12 240.182 65.806
1.13 233.525 67.879
1.14 232.460 69.562
1.15 232.371 71.375
1.16 231.102 72.445
1.17 228.614 72.123
1.18 226.897 70.677
1.19 226.969 69.272
1.20 228.478 68.847
1.21 230.618 69.035
1.22 232.585 69.243
1.23 233.879 69.366
1.24 234.679 69.357
1.25 235.279 68.864
1.26 235.716 67.993
1.27 235.872 67.276
1.28 236.253 66.825
1.29 234.981 66.658
1.30 234.280 66.647
1.31 232.177 66.464
1.32 229.055 66.019
1.33 223.696 65.086
1.34 214.630 63.076
1.35 201.254 60.834
1.36 211.690 63.024
1.37 207.793 66.786
1.38 202.923 69.529
1.39 196.248 71.590
1.40 192.516 73.194
1.41 190.621 74.336
1.42 190.885 74.917
1.43 191.226 75.007
1.44 191.800 74.817
1.45 191.799 74.677
1.46 191.061 74.767
1.47 189.341 74.911
1.48 186.742 74.792
1.49 184.304 74.130
1.50 181.091 72.980
1.51 177.435 71.571
1.52 --undefined-- 70.138
1.53 --undefined-- 68.428
1.54 --undefined-- 65.681
1.55 --undefined-- 61.918
1.56 --undefined-- 58.475
1.57 --undefined-- 55.553
1.58 --undefined-- 54.033
1.59 --undefined-- 54.870
1.60 --undefined-- 56.110
1.61 --undefined-- 57.740
1.62 --undefined-- 59.470
1.63 --undefined-- 59.725
1.64 --undefined-- 57.759
1.65 --undefined-- 53.468
1.66 --undefined-- 48.533
1.67 --undefined-- 47.856
1.68 --undefined-- 50.830
1.69 --undefined-- 54.516
1.70 --undefined-- 56.239
1.71 --undefined-- 55.492
1.72 --undefined-- 52.141
1.73 --undefined-- 48.380
1.74 --undefined-- 49.227
1.75 --undefined-- 49.493
1.76 --undefined-- 47.603
1.77 --undefined-- 48.203
1.78 --undefined-- 52.618
1.79 --undefined-- 55.338
1.80 --undefined-- 55.149
1.81 --undefined-- 52.670
1.82 --undefined-- 50.487
1.83 --undefined-- 50.337
1.84 --undefined-- 50.801
1.85 --undefined-- 52.861
1.86 --undefined-- 55.778
1.87 --undefined-- 57.301
1.88 --undefined-- 56.993
1.89 --undefined-- 54.781
1.90 --undefined-- 51.477
1.91 --undefined-- 49.856
1.92 --undefined-- 50.927
1.93 --undefined-- 53.419
1.94 --undefined-- 54.271
1.95 --undefined-- 52.710
1.96 --undefined-- 49.849
1.97 --undefined-- 49.454
1.98 --undefined-- 52.751
1.99 --undefined-- 54.188
2.00 --undefined-- 52.118
2.01 --undefined-- 51.570
2.02 285.535 59.152
2.03 264.091 64.044
2.04 246.679 66.489
2.05 248.650 67.846
2.06 254.175 68.839
2.07 258.863 69.635
2.08 263.340 69.880
2.09 266.722 69.477
2.10 265.224 69.450
2.11 267.665 70.304
2.12 267.530 70.817
2.13 266.265 70.747
2.14 263.612 70.357
2.15 259.665 70.086
2.16 255.558 70.756
2.17 250.923 71.910
2.18 244.577 72.532
2.19 232.347 72.265
2.20 220.737 71.301
2.21 204.809 70.422
2.22 201.083 69.968
2.23 196.204 69.524
2.24 193.779 69.133
2.25 192.178 68.749
2.26 191.503 68.469
2.27 192.353 68.527
2.28 194.285 68.669
2.29 194.321 68.553
2.30 194.190 68.290
2.31 194.585 68.203
2.32 194.997 68.222
2.33 195.210 68.112
2.34 195.561 67.973
2.35 196.542 67.884
2.36 197.769 67.682
2.37 198.579 67.386
2.38 198.787 67.198
2.39 198.306 67.068
2.40 197.862 66.894
2.41 197.574 66.757
2.42 198.416 66.622
2.43 200.455 66.368
2.44 203.282 66.175
2.45 207.278 66.130
2.46 209.622 65.607
2.47 210.462 64.175
2.48 208.158 61.972
2.49 208.672 59.370
2.50 --undefined-- 57.724
2.51 --undefined-- 58.085
2.52 --undefined-- 58.894
2.53 --undefined-- 58.896
2.54 --undefined-- 58.537
2.55 200.792 59.066
2.56 193.426 61.317
2.57 184.752 64.360
2.58 177.305 66.696
2.59 174.134 68.075
2.60 171.742 68.556
2.61 169.763 68.364
2.62 168.348 67.914
2.63 167.650 67.607
2.64 168.468 67.642
2.65 169.751 67.834
2.66 170.694 67.925
2.67 170.547 67.827
2.68 171.528 67.625
2.69 173.811 67.377
2.70 177.420 67.128
2.71 182.883 66.952
2.72 195.554 66.840
2.73 203.177 66.853
2.74 211.249 67.018
2.75 222.632 68.106
2.76 226.044 69.837
2.77 227.971 71.135
2.78 236.196 71.475
2.79 243.244 70.856
2.80 247.400 70.095
2.81 254.907 70.108
2.82 261.052 70.484
2.83 267.736 70.590
2.84 273.759 70.361
2.85 280.036 70.049
2.86 283.696 69.731
2.87 282.798 69.319
2.88 280.968 69.510
2.89 290.603 70.381
2.90 293.709 70.912
2.91 291.413 70.794
2.92 285.819 70.276
2.93 279.130 69.535
2.94 266.736 68.597
2.95 252.454 67.705
2.96 238.638 67.830
2.97 --undefined-- 69.290
2.98 --undefined-- 70.670
2.99 --undefined-- 71.140
3.00 --undefined-- 70.792
3.01 --undefined-- 70.296
3.02 157.499 69.747
3.03 152.659 68.975
3.04 150.530 67.973
3.05 149.857 66.754
3.06 151.956 65.731
3.07 154.458 65.192
3.08 158.125 64.577
3.09 160.683 63.609
3.10 162.255 62.664
3.11 161.910 61.742
3.12 163.073 61.300
3.13 166.198 61.598
3.14 167.527 62.070
3.15 167.946 62.056
3.16 168.272 61.636
3.17 169.519 61.268
3.18 174.190 61.209
3.19 176.774 61.422
3.20 177.389 61.471
3.21 175.973 61.302
3.22 171.330 60.774
3.23 162.065 59.511
3.24 160.082 57.297
3.25 165.759 55.634
3.26 175.653 56.750
3.27 184.110 59.294
3.28 182.103 62.554
3.29 176.894 65.922
3.30 174.329 68.633
3.31 173.675 70.362
3.32 173.176 71.052
3.33 174.038 71.344
3.34 177.266 72.244
3.35 182.151 72.844
3.36 186.349 71.786
3.37 193.702 69.404
3.38 214.243 67.693
3.39 222.367 67.279
3.40 235.963 67.371
3.41 241.804 67.593
3.42 256.047 67.992
3.43 273.115 68.334
3.44 276.766 67.774
3.45 270.869 65.818
3.46 245.912 62.882
3.47 241.499 60.726
3.48 239.376 59.553
3.49 236.555 58.310
3.50 229.965 57.944
3.51 231.704 58.577
3.52 240.923 59.798
3.53 245.124 62.642
3.54 237.370 66.428
3.55 218.437 69.440
3.56 209.854 70.537
3.57 206.595 70.016
3.58 205.660 69.260
3.59 206.208 68.886
3.60 208.260 68.588
3.61 212.112 68.499
3.62 217.952 69.070
3.63 225.048 69.741
3.64 231.768 69.682
3.65 240.994 68.550
3.66 253.840 66.642
3.67 260.547 65.055
3.68 262.395 63.409
3.69 254.311 60.123
3.70 238.816 55.060
3.71 --undefined-- 51.848
3.72 --undefined-- 55.327
3.73 --undefined-- 58.752
3.74 --undefined-- 59.460
3.75 --undefined-- 58.788
3.76 --undefined-- 59.288
3.77 --undefined-- 59.425
3.78 --undefined-- 58.238
3.79 --undefined-- 56.541
3.80 --undefined-- 54.316
3.81 --undefined-- 54.750
3.82 --undefined-- 56.673
3.83 --undefined-- 57.982
3.84 --undefined-- 61.002
3.85 208.668 64.210
3.86 206.056 66.136
3.87 203.291 66.823
3.88 201.891 66.827
3.89 203.158 66.645
3.90 204.825 66.367
3.91 206.298 66.235
3.92 208.289 66.507
3.93 210.079 67.253
3.94 211.461 68.901
3.95 213.859 71.074
3.96 215.633 72.061
3.97 215.590 71.047
3.98 215.158 69.411
3.99 214.460 69.813
4.00 211.171 70.886
4.01 207.270 72.164
4.02 205.405 73.941
4.03 202.855 74.902
4.04 199.509 74.533
4.05 195.734 73.504
4.06 192.951 72.398
4.07 188.907 70.731
4.08 185.374 68.059
4.09 182.815 64.379
4.10 181.547 61.026
4.11 187.602 61.120
4.12 190.589 62.857
4.13 --undefined-- 63.200
4.14 --undefined-- 61.972
4.15 --undefined-- 59.969
4.16 --undefined-- 57.545
4.17 270.665 56.034
4.18 --undefined-- 58.116
4.19 --undefined-- 60.665
4.20 --undefined-- 61.989
4.21 --undefined-- 62.524
4.22 --undefined-- 62.357
4.23 --undefined-- 61.444
4.24 --undefined-- 59.960
4.25 --undefined-- 57.997
4.26 --undefined-- 55.137
4.27 --undefined-- 52.089
4.28 --undefined-- 53.220
4.29 --undefined-- 55.186
4.30 --undefined-- 56.364
4.31 --undefined-- 57.005
4.32 --undefined-- 57.769
4.33 --undefined-- 58.273
4.34 --undefined-- 57.678
4.35 --undefined-- 55.373
4.36 --undefined-- 51.602
4.37 --undefined-- 52.032
4.38 --undefined-- 55.664
4.39 --undefined-- 58.435
4.40 --undefined-- 60.963
4.41 272.440 65.619
4.42 260.970 69.361
4.43 261.004 71.472
4.44 266.020 72.470
4.45 274.773 72.656
4.46 289.754 72.341
4.47 150.841 71.932
4.48 159.429 71.299
4.49 166.043 70.521
4.50 173.525 69.940
4.51 182.957 70.239
4.52 188.898 71.403
4.53 194.421 72.125
4.54 200.520 71.937
4.55 206.101 71.374
4.56 206.137 71.031
4.57 204.175 70.910
4.58 201.796 70.778
4.59 197.883 70.440
4.60 192.506 69.852
4.61 184.952 69.439
4.62 173.500 69.865
4.63 165.223 70.726
4.64 --undefined-- 71.530
4.65 275.076 72.781
4.66 261.792 73.809
4.67 249.528 73.908
4.68 238.912 73.315
4.69 231.355 72.307
4.70 226.171 70.862
4.71 222.302 69.517
4.72 221.850 68.901
4.73 222.633 68.445
4.74 224.189 67.694
4.75 226.153 66.927
4.76 229.939 66.592
4.77 233.907 66.511
4.78 236.407 66.175
4.79 238.760 65.745
4.80 244.221 65.778
4.81 246.699 65.916
4.82 247.325 65.384
4.83 244.373 63.783
4.84 236.860 61.113
4.85 --undefined-- 58.234
4.86 --undefined-- 59.473
4.87 253.161 63.266
4.88 247.201 66.138
4.89 244.227 67.706
4.90 241.149 68.165
4.91 241.221 68.058
4.92 242.144 67.764
4.93 242.164 67.553
4.94 243.112 67.167
4.95 247.886 66.190
4.96 242.638 64.955
4.97 226.316 63.890
4.98 219.993 63.198
4.99 215.308 63.382
5.00 214.332 --undefined--
5.01 213.943 --undefined--
5.02 --undefined-- --undefined--
5.03 --undefined-- --undefined--
