Time Pitch Intensity
0.01 --undefined-- --undefined--
0.02 125.316 --undefined--
0.03 129.419 --undefined--
0.04 129.985 --undefined--
0.05 128.634 72.477
0.06 126.192 73.558
0.07 124.751 74.198
0.08 123.273 74.702
0.09 122.722 75.073
0.10 121.713 75.015
0.11 119.462 74.763
0.12 118.405 74.814
0.13 117.874 75.255
0.14 117.621 75.791
0.15 116.700 75.993
0.16 117.862 75.653
0.17 115.354 74.228
0.18 110.082 70.962
0.19 116.957 66.478
0.20 118.586 62.758
0.21 115.799 59.211
0.22 117.746 55.010
0.23 --undefined-- 51.885
0.24 --undefined-- 51.169
0.25 --undefined-- 50.244
0.26 --undefined-- 50.282
0.27 --undefined-- 52.419
0.28 --undefined-- 56.058
0.29 --undefined-- 60.501
0.30 --undefined-- 63.087
0.31 --undefined-- 63.769
0.32 --undefined-- 66.463
0.33 127.904 71.615
0.34 126.544 75.127
0.35 120.805 76.433
0.36 117.025 76.317
0.37 114.431 75.970
0.38 113.686 75.815
0.39 112.662 75.493
0.40 108.914 75.069
0.41 115.340 75.247
0.42 118.400 75.694
0.43 121.989 75.905
0.44 121.572 75.891
0.45 119.780 75.743
0.46 118.971 75.486
0.47 119.790 75.225
0.48 119.582 75.178
0.49 118.500 75.182
0.50 117.567 75.053
0.51 117.191 74.327
0.52 113.760 72.022
0.53 106.757 67.347
0.54 124.307 61.178
0.55 126.481 57.029
0.56 127.951 54.054
0.57 --undefined-- 51.475
0.58 --undefined-- 56.773
0.59 --undefined-- 66.765
0.60 --undefined-- 72.983
0.61 158.247 75.820
0.62 153.076 76.271
0.63 146.282 75.551
0.64 142.622 74.838
0.65 140.119 74.242
0.66 138.214 73.427
0.67 137.354 72.719
0.68 136.949 72.362
0.69 137.114 72.064
0.70 137.412 71.790
0.71 139.048 72.047
0.72 141.901 72.874
0.73 144.410 73.781
0.74 145.572 74.458
0.75 145.975 74.892
0.76 146.363 75.282
0.77 146.709 75.703
0.78 146.626 75.983
0.79 146.189 75.949
0.80 144.249 75.417
0.81 141.568 73.952
0.82 137.751 71.013
0.83 127.653 66.619
0.84 123.981 62.730
0.85 130.406 62.750
0.86 --undefined-- 68.650
0.87 --undefined-- 73.417
0.88 116.216 75.459
0.89 112.050 75.503
0.90 106.304 74.536
0.91 102.294 73.614
0.92 99.923 72.925
0.93 98.783 72.397
0.94 97.745 72.080
0.95 97.693 71.858
0.96 97.950 71.667
0.97 99.059 71.500
0.98 100.810 71.434
0.99 101.271 71.318
1.00 99.871 70.618
1.01 96.715 68.732
1.02 95.240 65.568
1.03 98.131 61.944
1.04 101.146 59.159
1.05 106.435 57.504
1.06 115.742 55.805
1.07 115.246 53.268
1.08 --undefined-- 53.445
1.09 144.234 60.859
1.10 139.064 67.861
1.11 134.174 72.537
1.12 133.644 75.033
1.13 131.265 75.686
1.14 126.638 75.237
1.15 124.094 74.738
1.16 121.771 74.392
1.17 120.759 73.695
1.18 118.876 72.507
1.19 115.441 71.114
1.20 112.691 69.996
1.21 109.239 69.574
1.22 109.276 69.770
1.23 106.905 70.095
1.24 106.062 70.404
1.25 105.989 70.924
1.26 106.000 71.576
1.27 107.546 72.382
1.28 112.449 73.571
1.29 117.595 74.889
1.30 122.828 75.939
1.31 128.814 76.527
1.32 135.631 76.614
1.33 138.271 76.518
1.34 139.868 76.600
1.35 143.733 76.798
1.36 147.911 76.957
1.37 149.395 76.858
1.38 149.216 76.325
1.39 147.926 75.151
1.40 150.846 72.814
1.41 154.084 68.662
1.42 151.667 62.411
1.43 149.140 56.196
1.44 149.020 52.986
1.45 --undefined-- 50.403
1.46 --undefined-- 49.195
1.47 --undefined-- 50.492
1.48 --undefined-- 51.932
1.49 --undefined-- 52.631
1.50 --undefined-- 53.754
1.51 --undefined-- 54.558
1.52 --undefined-- 54.605
1.53 --undefined-- 54.617
1.54 --undefined-- 54.361
1.55 --undefined-- 54.388
1.56 --undefined-- 54.728
1.57 --undefined-- 54.636
1.58 --undefined-- 54.219
1.59 --undefined-- 53.782
1.60 --undefined-- 53.460
1.61 --undefined-- 53.213
1.62 --undefined-- 52.665
1.63 --undefined-- 52.280
1.64 --undefined-- 52.208
1.65 --undefined-- 51.756
1.66 --undefined-- 51.098
1.67 --undefined-- 50.408
1.68 --undefined-- 49.486
1.69 --undefined-- 47.823
1.70 --undefined-- 45.035
1.71 --undefined-- 41.834
1.72 --undefined-- 42.390
1.73 --undefined-- 45.563
1.74 --undefined-- 47.405
1.75 --undefined-- 47.089
1.76 --undefined-- 45.890
1.77 --undefined-- 46.349
1.78 --undefined-- 47.978
1.79 --undefined-- 49.722
1.80 --undefined-- 52.476
1.81 --undefined-- 55.395
1.82 --undefined-- 58.056
1.83 --undefined-- 64.887
1.84 232.597 72.859
1.85 226.475 77.565
1.86 222.694 79.306
1.87 218.688 79.533
1.88 220.851 79.600
1.89 221.274 79.736
1.90 221.155 79.791
1.91 220.723 79.720
1.92 219.884 79.563
1.93 219.041 79.356
1.94 219.305 79.165
1.95 220.091 79.015
1.96 220.500 78.896
1.97 220.332 78.767
1.98 219.516 78.619
1.99 218.867 78.556
2.00 218.991 78.602
2.01 219.302 78.682
2.02 219.440 78.758
2.03 219.267 78.811
2.04 217.785 78.791
2.05 216.129 78.681
2.06 213.786 78.364
2.07 210.464 77.565
2.08 203.712 75.848
2.09 188.849 73.100
2.10 182.984 70.469
2.11 187.722 68.076
2.12 195.609 64.211
2.13 194.842 59.957
2.14 197.576 56.293
2.15 --undefined-- 53.916
2.16 --undefined-- 56.546
2.17 --undefined-- 64.136
2.18 174.646 71.002
2.19 154.262 75.085
2.20 143.063 77.014
2.21 138.562 77.634
2.22 137.169 77.658
2.23 135.348 77.529
2.24 134.060 77.436
2.25 132.331 77.357
2.26 130.618 77.201
2.27 128.741 76.728
2.28 125.497 75.541
2.29 121.617 73.330
2.30 118.194 70.495
2.31 118.454 68.343
2.32 116.519 67.111
2.33 114.867 67.320
2.34 114.422 69.386
2.35 114.867 71.630
2.36 114.705 73.288
2.37 114.191 74.542
2.38 113.790 75.488
2.39 114.042 76.118
2.40 114.362 76.445
2.41 115.211 76.473
2.42 117.228 76.303
2.43 120.141 76.114
2.44 122.952 75.880
2.45 124.285 75.412
2.46 123.840 74.274
2.47 120.991 71.781
2.48 119.121 67.931
2.49 127.583 64.772
2.50 128.840 63.110
2.51 126.399 60.883
2.52 126.141 57.360
2.53 122.680 52.984
2.54 --undefined-- 52.338
2.55 --undefined-- 61.289
2.56 --undefined-- 70.029
2.57 --undefined-- 75.119
2.58 168.445 77.283
2.59 167.871 77.848
2.60 165.723 78.014
2.61 163.411 78.055
2.62 161.071 77.662
2.63 158.846 76.711
2.64 156.606 75.767
2.65 156.543 75.711
2.66 156.713 76.308
2.67 156.521 76.867
2.68 156.684 77.149
2.69 156.647 77.238
2.70 155.793 77.040
2.71 154.236 76.249
2.72 151.478 74.648
2.73 147.519 72.075
2.74 147.840 68.401
2.75 152.400 63.479
2.76 161.069 59.810
2.77 143.524 65.875
2.78 154.959 71.833
2.79 142.701 74.768
2.80 130.403 75.344
2.81 121.213 75.548
2.82 118.062 76.236
2.83 115.834 76.341
2.84 114.944 76.053
2.85 115.334 75.737
2.86 114.748 75.217
2.87 113.670 74.741
2.88 113.371 74.685
2.89 112.796 74.909
2.90 111.608 75.009
2.91 110.469 74.723
2.92 107.335 73.945
2.93 107.090 73.593
2.94 108.523 74.418
2.95 107.412 75.026
2.96 102.462 74.754
2.97 100.826 74.134
2.98 100.876 73.708
2.99 101.741 73.587
3.00 101.925 73.521
3.01 103.616 73.467
3.02 105.330 73.584
3.03 106.593 73.762
3.04 108.205 73.555
3.05 108.695 72.287
3.06 106.808 69.425
3.07 106.503 65.033
3.08 108.014 60.050
3.09 107.263 55.674
3.10 106.381 59.617
3.11 --undefined-- 67.828
3.12 147.865 72.777
3.13 134.490 74.802
3.14 131.150 75.142
3.15 130.559 75.205
3.16 130.237 75.309
3.17 130.092 75.273
3.18 131.059 75.290
3.19 131.683 75.402
3.20 130.897 75.522
3.21 128.531 75.507
3.22 124.837 75.016
3.23 120.495 73.865
3.24 118.311 72.445
3.25 116.963 72.048
3.26 118.180 73.312
3.27 117.064 74.586
3.28 113.384 75.088
3.29 110.151 74.794
3.30 106.948 73.484
3.31 103.250 70.913
3.32 96.926 67.075
3.33 103.688 62.886
3.34 103.809 59.250
3.35 --undefined-- 56.779
3.36 --undefined-- 57.084
3.37 --undefined-- 61.365
3.38 --undefined-- 67.551
3.39 --undefined-- 71.349
3.40 111.228 72.811
3.41 100.043 72.734
3.42 94.536 71.658
3.43 91.730 69.980
3.44 90.362 67.546
3.45 93.422 63.909
3.46 88.202 60.802
3.47 89.378 61.713
3.48 90.088 63.512
3.49 89.536 64.196
3.50 89.573 63.733
3.51 90.796 62.501
3.52 88.386 60.873
3.53 92.480 58.983
3.54 95.124 56.757
3.55 91.637 60.612
3.56 131.749 68.004
3.57 136.618 72.763
3.58 124.536 74.831
3.59 121.193 74.987
3.60 118.286 74.641
3.61 113.049 74.663
3.62 110.206 74.752
3.63 105.943 74.678
3.64 105.253 74.235
3.65 99.523 73.245
3.66 97.365 72.020
3.67 93.747 70.829
3.68 88.274 68.984
3.69 --undefined-- 66.293
3.70 --undefined-- 64.430
3.71 --undefined-- 62.848
3.72 --undefined-- 60.584
3.73 --undefined-- 57.881
3.74 --undefined-- 53.624
3.75 --undefined-- 49.286
3.76 --undefined-- 49.594
3.77 --undefined-- 52.647
3.78 --undefined-- 55.896
3.79 --undefined-- 57.735
3.80 --undefined-- 60.162
3.81 114.288 63.862
3.82 115.666 66.914
3.83 120.731 69.161
3.84 126.283 70.862
3.85 130.308 72.159
3.86 133.428 73.075
3.87 134.097 73.454
3.88 133.696 73.757
3.89 137.693 74.965
3.90 136.433 76.098
3.91 132.557 76.217
3.92 124.544 75.928
3.93 127.346 75.820
3.94 123.969 75.521
3.95 122.987 74.865
3.96 118.609 73.994
3.97 111.545 72.935
3.98 114.298 72.088
3.99 118.889 72.104
4.00 122.341 72.780
4.01 122.042 73.174
4.02 120.048 72.916
4.03 116.455 72.363
4.04 110.771 71.961
4.05 106.380 71.687
4.06 105.046 71.428
4.07 102.990 71.178
4.08 101.194 70.729
4.09 99.367 70.039
4.10 102.736 69.755
4.11 103.030 69.841
4.12 103.012 69.715
4.13 102.728 69.090
4.14 102.353 67.574
4.15 102.949 65.248
4.16 109.910 63.581
4.17 118.709 65.795
4.18 151.622 71.023
4.19 137.177 74.312
4.20 132.930 75.508
4.21 131.021 75.706
4.22 130.442 75.692
4.23 129.667 75.503
4.24 127.974 74.451
4.25 122.234 72.236
4.26 137.051 71.417
4.27 135.583 72.746
4.28 134.133 73.632
4.29 133.120 74.011
4.30 135.156 74.650
4.31 133.374 75.548
4.32 128.909 75.846
4.33 128.220 75.623
4.34 127.694 75.474
4.35 127.350 75.440
4.36 126.742 75.462
4.37 125.614 75.313
4.38 122.743 74.088
4.39 119.999 70.802
4.40 124.093 65.783
4.41 124.573 60.848
4.42 126.879 57.463
4.43 --undefined-- 63.591
4.44 --undefined-- 70.954
4.45 --undefined-- 74.924
4.46 125.820 76.213
4.47 122.926 76.084
4.48 118.785 75.512
4.49 115.475 74.983
4.50 113.849 75.002
4.51 112.800 75.221
4.52 111.759 75.342
4.53 111.325 75.421
4.54 111.215 75.275
4.55 110.945 75.024
4.56 110.855 74.941
4.57 111.205 75.055
4.58 111.633 75.156
4.59 112.403 74.998
4.60 112.668 74.351
4.61 110.582 72.955
4.62 --undefined-- 70.509
4.63 --undefined-- 66.781
4.64 240.390 62.110
4.65 254.932 60.240
4.66 254.502 59.500
4.67 --undefined-- 58.091
4.68 --undefined-- 63.480
4.69 --undefined-- 67.982
4.70 --undefined-- 70.061
4.71 114.457 71.451
4.72 116.552 72.741
4.73 117.084 73.269
4.74 115.494 73.150
4.75 113.956 73.023
4.76 113.555 73.013
4.77 113.590 73.128
4.78 113.514 73.452
4.79 113.911 73.979
4.80 114.778 74.635
4.81 115.522 75.298
4.82 115.840 75.605
4.83 114.830 74.690
4.84 109.035 71.676
4.85 120.655 66.549
4.86 120.919 61.752
4.87 --undefined-- 59.720
4.88 --undefined-- 66.387
4.89 149.077 72.927
4.90 148.924 76.105
4.91 142.891 76.713
4.92 136.645 76.234
4.93 135.897 76.104
4.94 134.911 76.263
4.95 133.284 76.213
4.96 130.688 75.742
4.97 129.484 75.104
4.98 130.216 74.529
4.99 129.851 --undefined--
5.00 125.484 --undefined--
5.01 --undefined-- --undefined--
5.02 --undefined-- --undefined--
