Time Pitch Intensity
0.01 --undefined-- --undefined--
0.02 203.049 --undefined--
0.03 193.475 --undefined--
0.04 187.305 --undefined--
0.05 184.350 73.401
0.06 184.006 73.631
0.07 185.507 73.903
0.08 185.921 74.033
0.09 187.043 73.592
0.10 187.620 72.116
0.11 179.638 68.934
0.12 174.215 63.922
0.13 174.211 57.383
0.14 --undefined-- 49.633
0.15 --undefined-- 48.398
0.16 --undefined-- 56.368
0.17 --undefined-- 62.985
0.18 178.276 66.027
0.19 178.419 66.349
0.20 175.959 65.395
0.21 175.006 65.014
0.22 178.434 65.877
0.23 182.331 67.100
0.24 185.525 67.909
0.25 186.536 67.857
0.26 183.676 66.543
0.27 178.028 63.635
0.28 173.981 58.878
0.29 --undefined-- 52.290
0.30 --undefined-- 46.315
0.31 --undefined-- 45.830
0.32 --undefined-- 48.159
0.33 --undefined-- 53.118
0.34 --undefined-- 61.747
0.35 196.700 67.894
0.36 191.476 70.934
0.37 184.813 71.942
0.38 179.771 72.050
0.39 176.422 71.915
0.40 173.394 71.577
0.41 170.456 71.315
0.42 171.012 71.837
0.43 172.878 72.552
0.44 173.460 72.942
0.45 173.809 73.080
0.46 173.756 73.063
0.47 174.309 72.956
0.48 175.037 72.845
0.49 175.596 72.905
0.50 175.153 73.019
0.51 172.975 72.873
0.52 169.140 72.157
0.53 166.269 70.434
0.54 160.072 67.278
0.55 153.178 62.849
0.56 152.470 58.547
0.57 --undefined-- 55.942
0.58 --undefined-- 55.107
0.59 --undefined-- 55.269
0.60 --undefined-- 55.457
0.61 --undefined-- 56.439
0.62 --undefined-- 60.413
0.63 195.295 65.993
0.64 197.531 69.619
0.65 194.571 71.228
0.66 182.824 71.712
0.67 173.360 71.709
0.68 167.040 71.347
0.69 162.109 70.766
0.70 160.446 70.473
0.71 159.509 70.790
0.72 159.450 71.333
0.73 159.526 71.603
0.74 159.497 71.387
0.75 160.090 70.839
0.76 161.115 70.284
0.77 161.771 69.606
0.78 161.093 68.067
0.79 158.437 64.823
0.80 155.140 59.436
0.81 --undefined-- 52.367
0.82 --undefined-- 46.834
0.83 --undefined-- 45.168
0.84 --undefined-- 42.890
0.85 --undefined-- 41.485
0.86 --undefined-- 42.448
0.87 --undefined-- 45.371
0.88 --undefined-- 55.600
0.89 --undefined-- 63.992
0.90 186.732 68.745
0.91 174.117 70.622
0.92 166.591 70.576
0.93 162.375 69.535
0.94 160.602 67.956
0.95 159.081 65.558
0.96 156.207 61.613
0.97 147.627 55.477
0.98 --undefined-- 47.281
0.99 --undefined-- 41.358
1.00 --undefined-- 40.146
1.01 --undefined-- 39.450
1.02 --undefined-- 40.472
1.03 --undefined-- 41.235
1.04 --undefined-- 39.904
1.05 --undefined-- 39.188
1.06 --undefined-- 40.995
1.07 --undefined-- 41.721
1.08 --undefined-- 42.166
1.09 --undefined-- 47.238
1.10 --undefined-- 52.202
1.11 --undefined-- 59.339
1.12 261.394 66.236
1.13 245.635 70.089
1.14 245.039 71.354
1.15 242.796 70.711
1.16 230.300 68.518
1.17 223.841 64.735
1.18 233.908 59.073
1.19 --undefined-- 51.823
1.20 --undefined-- 47.078
1.21 --undefined-- 44.580
1.22 --undefined-- 42.223
1.23 --undefined-- 41.889
1.24 --undefined-- 41.929
1.25 --undefined-- 40.990
1.26 --undefined-- 38.945
1.27 --undefined-- 38.213
1.28 --undefined-- 38.675
1.29 --undefined-- 39.161
1.30 --undefined-- 40.228
1.31 --undefined-- 49.248
1.32 --undefined-- 59.872
1.33 --undefined-- 66.477
1.34 170.413 69.784
1.35 162.842 70.634
1.36 150.788 70.399
1.37 148.430 70.202
1.38 148.087 70.258
1.39 150.498 70.608
1.40 154.007 70.992
1.41 156.836 70.977
1.42 159.225 70.525
1.43 164.186 70.142
1.44 173.962 70.160
1.45 184.315 70.209
1.46 192.406 69.739
1.47 194.923 68.655
1.48 195.292 67.365
1.49 197.817 66.392
1.50 205.020 65.942
1.51 212.064 65.838
1.52 213.999 65.809
1.53 214.209 65.830
1.54 215.101 66.095
1.55 210.164 66.451
1.56 201.604 66.579
1.57 192.811 66.682
1.58 182.910 67.019
1.59 171.549 67.350
1.60 158.217 67.180
1.61 146.667 66.653
1.62 135.706 66.717
1.63 131.738 67.540
1.64 128.287 68.188
1.65 124.516 68.236
1.66 124.184 67.781
1.67 126.693 67.171
1.68 124.621 66.764
1.69 126.209 66.688
1.70 127.281 66.702
1.71 129.788 66.685
1.72 132.749 66.632
1.73 135.353 66.081
1.74 134.849 64.415
1.75 129.456 60.870
1.76 --undefined-- 54.733
1.77 --undefined-- 46.139
1.78 --undefined-- 46.020
1.79 --undefined-- 51.669
1.80 --undefined-- 58.892
1.81 203.495 65.453
1.82 191.657 69.022
1.83 181.807 70.399
1.84 178.506 70.932
1.85 177.253 71.175
1.86 175.245 71.107
1.87 174.026 70.901
1.88 173.572 70.700
1.89 173.161 70.544
1.90 173.020 70.381
1.91 172.897 70.117
1.92 172.812 69.919
1.93 173.000 69.877
1.94 173.014 69.818
1.95 173.161 69.723
1.96 173.213 69.642
1.97 173.397 69.526
1.98 173.741 69.411
1.99 174.419 69.320
2.00 174.957 69.248
2.01 175.254 69.183
2.02 175.586 68.965
2.03 174.436 68.226
2.04 171.518 66.132
2.05 166.890 61.667
2.06 --undefined-- 54.173
2.07 --undefined-- 45.906
2.08 --undefined-- 42.979
2.09 --undefined-- 41.494
2.10 --undefined-- 40.809
2.11 --undefined-- 40.299
2.12 --undefined-- 38.181
2.13 --undefined-- 37.941
2.14 --undefined-- 41.084
2.15 --undefined-- 42.711
2.16 --undefined-- 41.648
2.17 --undefined-- 39.743
2.18 --undefined-- 44.779
2.19 --undefined-- 55.173
2.20 --undefined-- 62.766
2.21 181.114 66.905
2.22 176.389 68.638
2.23 170.398 69.033
2.24 165.729 68.513
2.25 161.216 66.894
2.26 151.210 63.865
2.27 142.082 59.279
2.28 --undefined-- 53.221
2.29 --undefined-- 46.994
2.30 --undefined-- 42.936
2.31 --undefined-- 41.324
2.32 --undefined-- 40.920
2.33 --undefined-- 40.801
2.34 --undefined-- 41.761
2.35 --undefined-- 45.767
2.36 --undefined-- 50.551
2.37 --undefined-- 54.823
2.38 --undefined-- 60.632
2.39 170.333 65.401
2.40 169.359 68.025
2.41 166.182 68.920
2.42 161.259 68.584
2.43 159.498 67.907
2.44 161.895 67.824
2.45 167.024 68.235
2.46 171.620 68.802
2.47 176.009 69.390
2.48 182.048 69.989
2.49 189.438 70.690
2.50 196.710 71.253
2.51 203.533 71.443
2.52 209.392 71.190
2.53 213.240 70.107
2.54 215.857 67.452
2.55 220.951 62.472
2.56 --undefined-- 54.915
2.57 --undefined-- 52.046
2.58 --undefined-- 60.978
2.59 233.931 67.208
2.60 205.551 70.039
2.61 189.880 70.665
2.62 173.820 70.362
2.63 160.152 69.568
2.64 150.750 68.668
2.65 149.053 68.206
2.66 151.382 67.683
2.67 154.423 66.388
2.68 157.284 64.324
2.69 159.757 61.692
2.70 152.519 57.410
2.71 --undefined-- 50.519
2.72 --undefined-- 44.337
2.73 --undefined-- 42.727
2.74 --undefined-- 48.840
2.75 --undefined-- 58.833
2.76 190.551 65.248
2.77 171.840 68.260
2.78 158.990 68.967
2.79 153.585 68.732
2.80 148.302 68.489
2.81 145.439 68.421
2.82 143.923 68.307
2.83 142.775 68.209
2.84 143.069 68.358
2.85 144.317 68.620
2.86 145.758 68.754
2.87 150.264 68.940
2.88 155.298 69.552
2.89 158.108 70.072
2.90 161.641 69.918
2.91 168.233 69.599
2.92 174.737 70.056
2.93 182.327 71.028
2.94 187.884 71.701
2.95 195.150 71.751
2.96 205.502 71.198
2.97 211.856 70.324
2.98 214.758 69.390
2.99 214.319 68.270
3.00 200.887 66.647
3.01 --undefined-- 64.189
3.02 --undefined-- 60.561
3.03 --undefined-- 55.931
3.04 --undefined-- 51.464
3.05 --undefined-- 46.659
3.06 --undefined-- 42.323
3.07 --undefined-- 40.770
3.08 --undefined-- 41.243
3.09 --undefined-- 41.598
3.10 --undefined-- 41.053
3.11 --undefined-- 40.850
3.12 --undefined-- 42.281
3.13 --undefined-- 42.015
3.14 --undefined-- 39.820
3.15 --undefined-- 40.070
3.16 --undefined-- 41.981
3.17 --undefined-- 41.759
3.18 --undefined-- 40.204
3.19 --undefined-- 40.667
3.20 --undefined-- 41.861
3.21 --undefined-- 42.601
3.22 --undefined-- 43.141
3.23 --undefined-- 43.443
3.24 --undefined-- 43.622
3.25 --undefined-- 43.882
3.26 --undefined-- 43.761
3.27 --undefined-- 42.347
3.28 --undefined-- 40.990
3.29 --undefined-- 42.729
3.30 --undefined-- 43.870
3.31 --undefined-- 42.754
3.32 --undefined-- 40.824
3.33 --undefined-- 41.075
3.34 --undefined-- 42.101
3.35 --undefined-- 41.226
3.36 --undefined-- 40.195
3.37 --undefined-- 40.812
3.38 --undefined-- 41.747
3.39 --undefined-- 42.130
3.40 --undefined-- 40.703
3.41 --undefined-- 38.909
3.42 --undefined-- 39.211
3.43 --undefined-- 40.477
3.44 --undefined-- 41.364
3.45 --undefined-- 40.739
3.46 --undefined-- 40.344
3.47 --undefined-- 41.161
3.48 --undefined-- 40.773
3.49 --undefined-- 39.822
3.50 --undefined-- 38.912
3.51 --undefined-- 39.766
3.52 --undefined-- 41.454
3.53 --undefined-- 41.071
3.54 --undefined-- 39.461
3.55 --undefined-- 39.498
3.56 --undefined-- 40.629
3.57 --undefined-- 41.498
3.58 --undefined-- 42.010
3.59 --undefined-- 41.286
3.60 --undefined-- 40.143
3.61 --undefined-- 39.569
3.62 --undefined-- 38.069
3.63 --undefined-- 36.589
3.64 --undefined-- 38.094
3.65 --undefined-- 39.334
3.66 --undefined-- 38.615
3.67 --undefined-- 36.981
3.68 --undefined-- 37.237
3.69 --undefined-- 39.440
3.70 --undefined-- 40.625
3.71 --undefined-- 40.379
3.72 --undefined-- 39.280
3.73 --undefined-- 37.797
3.74 --undefined-- 38.408
3.75 --undefined-- 39.758
3.76 --undefined-- 39.622
3.77 --undefined-- 39.318
3.78 --undefined-- 39.658
3.79 --undefined-- 40.140
3.80 --undefined-- 40.119
3.81 --undefined-- 39.280
3.82 --undefined-- 46.866
3.83 --undefined-- 58.006
3.84 225.233 64.990
3.85 219.967 68.530
3.86 215.739 69.825
3.87 215.452 70.372
3.88 218.239 71.194
3.89 220.614 72.110
3.90 220.959 72.775
3.91 220.830 73.319
3.92 219.892 73.872
3.93 219.309 74.410
3.94 218.528 74.949
3.95 217.035 75.410
3.96 215.494 75.412
3.97 213.735 74.289
3.98 209.705 71.498
3.99 190.123 67.897
4.00 190.104 66.580
4.01 203.056 68.734
4.02 208.425 72.130
4.03 209.596 74.688
4.04 206.930 75.835
4.05 202.542 75.962
4.06 200.052 75.582
4.07 198.582 75.088
4.08 198.220 74.722
4.09 198.725 74.433
4.10 198.679 73.852
4.11 198.239 72.967
4.12 197.832 72.076
4.13 197.532 71.442
4.14 197.017 71.202
4.15 196.115 71.393
4.16 195.460 71.804
4.17 195.101 72.149
4.18 194.053 72.341
4.19 193.445 72.416
4.20 192.852 72.417
4.21 191.549 72.297
4.22 190.857 71.969
4.23 190.372 71.535
4.24 189.760 71.242
4.25 189.415 71.089
4.26 189.353 70.916
4.27 189.212 70.645
4.28 189.152 70.286
4.29 189.013 69.779
4.30 186.218 68.854
4.31 178.958 67.081
4.32 173.327 64.419
4.33 172.391 61.315
4.34 --undefined-- 58.319
4.35 --undefined-- 53.885
4.36 --undefined-- 46.933
4.37 --undefined-- 41.885
4.38 --undefined-- 40.698
4.39 --undefined-- 39.975
4.40 --undefined-- 39.047
4.41 --undefined-- 39.153
4.42 --undefined-- 40.412
4.43 --undefined-- 40.300
4.44 --undefined-- 38.392
4.45 --undefined-- 35.657
4.46 --undefined-- 37.390
4.47 --undefined-- 40.672
4.48 --undefined-- 41.388
4.49 --undefined-- 40.987
4.50 --undefined-- 41.243
4.51 --undefined-- 40.623
4.52 --undefined-- 39.504
4.53 --undefined-- 40.117
4.54 --undefined-- 40.590
4.55 --undefined-- 40.192
4.56 --undefined-- 40.152
4.57 --undefined-- 39.999
4.58 --undefined-- 39.038
4.59 --undefined-- 38.272
4.60 --undefined-- 39.095
4.61 --undefined-- 40.269
4.62 --undefined-- 40.962
4.63 --undefined-- 41.323
4.64 --undefined-- 41.744
4.65 --undefined-- 42.266
4.66 --undefined-- 42.506
4.67 --undefined-- 44.562
4.68 --undefined-- 54.328
4.69 --undefined-- 64.595
4.70 243.174 71.016
4.71 243.321 74.326
4.72 242.922 75.687
4.73 243.370 76.276
4.74 243.390 76.745
4.75 243.678 76.982
4.76 245.079 76.637
4.77 248.023 75.597
4.78 251.213 74.198
4.79 252.769 73.054
4.80 254.438 72.237
4.81 257.917 71.376
4.82 258.488 70.236
4.83 248.711 68.315
4.84 236.257 65.281
4.85 235.326 60.700
4.86 --undefined-- 54.158
4.87 --undefined-- 47.288
4.88 --undefined-- 46.116
4.89 --undefined-- 47.807
4.90 --undefined-- 49.378
4.91 --undefined-- 57.703
4.92 --undefined-- 65.786
4.93 158.676 70.401
4.94 153.965 72.267
4.95 151.199 72.781
4.96 299.622 73.093
4.97 297.398 73.495
4.98 295.028 73.816
4.99 292.172 73.933
5.00 289.099 73.822
5.01 286.639 73.626
5.02 285.335 73.556
5.03 285.155 73.651
5.04 285.513 73.753
5.05 286.950 73.524
5.06 290.741 72.798
5.07 293.778 71.869
5.08 294.444 71.014
5.09 293.899 70.328
5.10 291.238 69.570
5.11 282.818 68.056
5.12 262.244 64.920
5.13 251.481 59.735
5.14 --undefined-- 52.320
5.15 --undefined-- 45.103
5.16 --undefined-- 41.604
5.17 --undefined-- 40.426
5.18 --undefined-- 42.862
5.19 --undefined-- 52.686
5.20 --undefined-- 63.023
5.21 --undefined-- 69.772
5.22 225.927 73.157
5.23 214.748 73.995
5.24 205.073 73.512
5.25 199.393 73.008
5.26 194.958 72.859
5.27 192.548 72.869
5.28 191.044 72.999
5.29 189.765 73.248
5.30 189.307 73.546
5.31 188.264 73.725
5.32 186.924 73.774
5.33 185.445 73.967
5.34 187.703 74.372
5.35 187.633 74.655
5.36 187.527 74.800
5.37 187.276 74.844
5.38 186.460 74.729
5.39 185.556 74.496
5.40 185.022 74.196
5.41 183.555 73.724
5.42 180.894 73.165
5.43 180.362 72.818
5.44 180.438 72.680
5.45 180.555 72.591
5.46 180.899 72.505
5.47 182.535 72.495
5.48 184.563 72.621
5.49 187.497 72.787
5.50 191.041 72.868
5.51 194.428 73.036
5.52 199.829 73.664
5.53 206.681 74.562
5.54 212.368 75.340
5.55 218.031 75.933
5.56 222.498 76.333
5.57 225.449 76.373
5.58 227.430 75.868
5.59 227.592 74.569
5.60 227.660 71.909
5.61 231.917 67.225
5.62 --undefined-- 59.738
5.63 --undefined-- 50.933
5.64 --undefined-- 52.650
5.65 --undefined-- 58.581
5.66 --undefined-- 65.464
5.67 270.112 71.047
5.68 264.022 74.306
5.69 260.200 75.481
5.70 259.665 75.627
5.71 259.673 75.472
5.72 259.219 75.162
5.73 257.582 74.704
5.74 252.854 74.586
5.75 251.962 75.421
5.76 252.713 76.255
5.77 251.698 76.553
5.78 251.455 76.605
5.79 250.980 76.576
5.80 249.677 76.486
5.81 247.482 76.314
5.82 244.033 75.946
5.83 238.959 75.117
5.84 234.735 73.344
5.85 234.398 69.845
5.86 240.445 64.144
5.87 243.024 57.576
5.88 225.476 61.065
5.89 234.063 67.645
5.90 188.037 71.134
5.91 177.932 72.111
5.92 163.998 71.783
5.93 157.875 71.296
5.94 155.640 71.195
5.95 154.637 71.428
5.96 155.149 71.762
5.97 157.622 72.197
5.98 159.420 72.650
5.99 161.176 72.892
6.00 161.858 72.764
6.01 162.701 72.287
6.02 165.156 71.604
6.03 167.819 71.155
6.04 171.388 71.377
6.05 174.484 71.972
6.06 177.780 72.598
6.07 182.334 73.140
6.08 186.790 73.451
6.09 191.608 73.489
6.10 197.753 73.183
6.11 203.523 72.512
6.12 208.735 71.654
6.13 212.548 70.781
6.14 213.509 69.807
6.15 212.346 68.419
6.16 210.728 66.037
6.17 188.403 62.574
6.18 186.679 59.049
6.19 209.728 56.705
6.20 222.998 53.872
6.21 --undefined-- 48.892
6.22 --undefined-- 43.422
6.23 --undefined-- 44.167
6.24 --undefined-- 48.465
6.25 --undefined-- 53.135
6.26 --undefined-- 56.659
6.27 --undefined-- 58.129
6.28 --undefined-- 58.070
6.29 --undefined-- 62.041
6.30 249.320 67.749
6.31 240.795 70.821
6.32 235.844 71.585
6.33 232.622 71.221
6.34 231.627 70.803
6.35 231.157 70.661
6.36 230.492 70.729
6.37 229.754 70.794
6.38 228.981 70.798
6.39 228.750 70.777
6.40 228.510 70.799
6.41 228.712 70.892
6.42 229.307 71.004
6.43 230.187 71.200
6.44 230.726 71.428
6.45 230.785 71.576
6.46 228.567 71.822
6.47 229.364 72.343
6.48 230.591 72.731
6.49 230.782 72.719
6.50 230.815 --undefined--
6.51 230.159 --undefined--
6.52 --undefined-- --undefined--
6.53 --undefined-- --undefined--
