Time Pitch Intensity
0.01 --undefined-- --undefined--
0.02 163.149 --undefined--
0.03 172.548 --undefined--
0.04 170.127 --undefined--
0.05 167.862 62.617
0.06 168.600 63.430
0.07 169.420 64.292
0.08 163.030 64.777
0.09 160.438 64.961
0.10 158.962 64.908
0.11 157.360 64.733
0.12 156.281 64.942
0.13 155.573 65.133
0.14 155.797 64.939
0.15 155.975 64.653
0.16 155.681 64.439
0.17 155.840 63.846
0.18 156.743 62.953
0.19 158.143 62.390
0.20 159.420 62.202
0.21 162.156 61.882
0.22 167.785 61.450
0.23 172.906 61.604
0.24 178.029 62.102
0.25 183.793 62.481
0.26 188.569 62.510
0.27 193.240 62.138
0.28 200.783 61.883
0.29 202.489 61.772
0.30 201.148 60.782
0.31 199.563 57.725
0.32 --undefined-- 52.677
0.33 --undefined-- 49.668
0.34 --undefined-- 49.788
0.35 --undefined-- 50.752
0.36 --undefined-- 52.945
0.37 --undefined-- 55.382
0.38 --undefined-- 56.830
0.39 152.369 57.396
0.40 144.668 58.087
0.41 144.313 58.846
0.42 146.553 59.227
0.43 144.956 59.661
0.44 143.394 59.752
0.45 148.368 59.395
0.46 151.763 59.331
0.47 152.499 59.070
0.48 152.248 57.618
0.49 --undefined-- 54.772
0.50 --undefined-- 52.642
0.51 --undefined-- 55.527
0.52 190.665 60.271
0.53 180.218 63.549
0.54 178.246 65.517
0.55 181.918 66.980
0.56 186.014 67.713
0.57 189.507 67.307
0.58 192.572 65.631
0.59 197.170 62.760
0.60 190.438 59.404
0.61 184.597 56.664
0.62 182.594 54.893
0.63 183.042 53.843
0.64 172.554 53.251
0.65 187.205 54.279
0.66 196.650 56.858
0.67 198.980 59.585
0.68 186.567 62.726
0.69 180.040 65.301
0.70 176.022 66.659
0.71 174.158 66.818
0.72 172.593 66.085
0.73 172.682 64.958
0.74 174.408 63.690
0.75 174.767 61.847
0.76 173.817 59.044
0.77 174.970 56.181
0.78 --undefined-- 54.127
0.79 --undefined-- 52.929
0.80 --undefined-- 51.576
0.81 --undefined-- 49.999
0.82 --undefined-- 50.043
0.83 --undefined-- 52.188
0.84 --undefined-- 54.001
0.85 --undefined-- 53.480
0.86 --undefined-- 51.272
0.87 --undefined-- 49.210
0.88 --undefined-- 47.333
0.89 --undefined-- 46.207
0.90 --undefined-- 47.229
0.91 --undefined-- 46.562
0.92 --undefined-- 45.379
0.93 --undefined-- 48.611
0.94 --undefined-- 55.623
0.95 269.077 62.640
0.96 261.877 67.576
0.97 259.000 70.806
0.98 257.227 72.851
0.99 256.906 74.090
1.00 256.985 74.844
1.01 257.832 75.186
1.02 259.873 75.134
1.03 262.958 74.890
1.04 266.443 74.803
1.05 268.910 74.400
1.06 271.836 72.717
1.07 274.752 69.934
1.08 274.659 67.378
1.09 274.724 65.727
1.10 275.073 64.893
1.11 276.929 64.261
1.12 278.336 63.156
1.13 278.334 60.986
1.14 279.983 57.041
1.15 --undefined-- 51.688
1.16 --undefined-- 48.100
1.17 --undefined-- 47.481
1.18 --undefined-- 47.413
1.19 --undefined-- 46.531
1.20 --undefined-- 46.834
1.21 --undefined-- 47.816
1.22 --undefined-- 48.985
1.23 --undefined-- 49.822
1.24 --undefined-- 50.441
1.25 --undefined-- 50.798
1.26 --undefined-- 50.466
1.27 --undefined-- 50.745
1.28 --undefined-- 51.800
1.29 --undefined-- 51.443
1.30 --undefined-- 49.651
1.31 --undefined-- 49.944
1.32 --undefined-- 51.582
1.33 --undefined-- 50.643
1.34 --undefined-- 49.382
1.35 --undefined-- 51.134
1.36 --undefined-- 51.249
1.37 --undefined-- 49.272
1.38 --undefined-- 47.666
1.39 --undefined-- 49.003
1.40 --undefined-- 52.028
1.41 --undefined-- 54.691
1.42 --undefined-- 56.051
1.43 --undefined-- 57.508
1.44 252.847 61.911
1.45 246.158 65.212
1.46 242.514 66.539
1.47 239.633 66.810
1.48 236.197 66.387
1.49 231.426 65.180
1.50 225.435 62.837
1.51 --undefined-- 58.922
1.52 --undefined-- 54.387
1.53 --undefined-- 55.159
1.54 --undefined-- 59.772
1.55 193.724 63.658
1.56 191.079 65.619
1.57 179.005 65.904
1.58 172.821 65.410
1.59 168.063 64.737
1.60 166.638 64.064
1.61 170.317 63.408
1.62 173.923 63.093
1.63 175.397 63.521
1.64 176.733 63.963
1.65 177.626 63.777
1.66 177.844 63.238
1.67 178.983 63.221
1.68 183.354 63.715
1.69 186.126 64.239
1.70 185.508 65.334
1.71 183.369 66.739
1.72 178.400 67.298
1.73 175.653 66.592
1.74 169.810 64.514
1.75 --undefined-- 61.514
1.76 --undefined-- 59.414
1.77 --undefined-- 58.345
1.78 --undefined-- 57.841
1.79 --undefined-- 57.867
1.80 139.153 57.737
1.81 146.344 57.770
1.82 174.704 58.289
1.83 181.179 58.883
1.84 180.059 59.836
1.85 178.794 61.200
1.86 177.915 62.797
1.87 175.988 64.389
1.88 173.246 65.799
1.89 173.522 66.496
1.90 174.979 65.809
1.91 175.805 63.253
1.92 154.140 58.821
1.93 --undefined-- 54.514
1.94 --undefined-- 54.460
1.95 --undefined-- 58.932
1.96 --undefined-- 64.327
1.97 188.468 67.638
1.98 184.629 68.692
1.99 183.529 68.230
2.00 184.679 66.896
2.01 184.326 64.614
2.02 182.480 61.039
2.03 182.584 55.961
2.04 --undefined-- 50.061
2.05 --undefined-- 47.703
2.06 --undefined-- 52.507
2.07 202.325 57.662
2.08 198.538 60.687
2.09 195.982 62.174
2.10 194.397 62.700
2.11 195.808 62.564
2.12 197.189 62.150
2.13 196.122 61.903
2.14 195.922 62.165
2.15 195.181 62.943
2.16 191.131 64.236
2.17 182.743 65.431
2.18 177.351 65.742
2.19 175.356 64.956
2.20 174.626 62.947
2.21 172.998 59.880
2.22 172.304 56.644
2.23 --undefined-- 54.166
2.24 --undefined-- 52.133
2.25 --undefined-- 49.715
2.26 --undefined-- 49.606
2.27 --undefined-- 50.015
2.28 --undefined-- 50.600
2.29 --undefined-- 51.370
2.30 --undefined-- 50.933
2.31 --undefined-- 49.167
2.32 --undefined-- 48.913
2.33 --undefined-- 54.727
2.34 258.498 60.877
2.35 246.823 64.645
2.36 245.468 66.861
2.37 244.492 68.121
2.38 245.475 68.451
2.39 249.202 68.217
2.40 252.397 67.809
2.41 253.807 67.222
2.42 254.576 66.280
2.43 253.747 64.694
2.44 251.005 62.938
2.45 253.424 63.124
2.46 257.126 64.279
2.47 256.157 64.679
2.48 254.224 64.609
2.49 253.923 64.770
2.50 251.160 65.215
2.51 245.332 65.540
2.52 238.542 65.517
2.53 230.239 65.354
2.54 220.819 65.313
2.55 211.624 65.393
2.56 203.533 65.399
2.57 192.624 65.274
2.58 184.626 64.826
2.59 176.128 63.671
2.60 170.775 61.279
2.61 --undefined-- 57.282
2.62 --undefined-- 52.975
2.63 --undefined-- 50.227
2.64 --undefined-- 49.176
2.65 --undefined-- 52.436
2.66 --undefined-- 55.564
2.67 183.404 56.751
2.68 177.867 56.685
2.69 165.517 56.770
2.70 149.236 57.425
2.71 --undefined-- 58.261
2.72 --undefined-- 59.079
2.73 --undefined-- 59.205
2.74 --undefined-- 58.863
2.75 --undefined-- 58.426
2.76 --undefined-- 57.344
2.77 --undefined-- 55.918
2.78 --undefined-- 54.980
2.79 --undefined-- 54.382
2.80 --undefined-- 52.729
2.81 --undefined-- 51.474
2.82 --undefined-- 52.303
2.83 --undefined-- 52.044
2.84 --undefined-- 51.422
2.85 --undefined-- 53.302
2.86 --undefined-- 54.896
2.87 --undefined-- 56.466
2.88 --undefined-- 57.972
2.89 153.033 59.199
2.90 156.098 60.587
2.91 151.609 61.643
2.92 152.219 62.307
2.93 153.493 62.791
2.94 154.826 63.285
2.95 157.521 63.788
2.96 159.676 63.818
2.97 160.897 62.904
2.98 161.374 60.485
2.99 151.846 56.235
3.00 --undefined-- 53.267
3.01 --undefined-- 53.223
3.02 --undefined-- 51.798
3.03 --undefined-- 52.131
3.04 --undefined-- 56.253
3.05 --undefined-- 57.865
3.06 201.640 57.955
3.07 198.852 59.638
3.08 205.641 61.345
3.09 212.312 62.816
3.10 211.202 64.573
3.11 199.685 66.137
3.12 188.100 67.000
3.13 177.721 67.036
3.14 175.088 66.741
3.15 174.606 67.055
3.16 175.631 67.818
3.17 175.939 68.312
3.18 175.661 68.560
3.19 174.982 68.143
3.20 174.195 66.803
3.21 173.600 64.613
3.22 170.236 61.345
3.23 --undefined-- 57.122
3.24 --undefined-- 54.035
3.25 --undefined-- 54.413
3.26 --undefined-- 57.561
3.27 199.789 62.482
3.28 191.757 66.840
3.29 187.742 69.905
3.30 186.517 71.631
3.31 185.405 72.504
3.32 184.258 73.364
3.33 183.586 74.206
3.34 183.628 74.717
3.35 183.732 74.972
3.36 184.278 75.172
3.37 183.978 75.331
3.38 182.626 75.225
3.39 179.768 74.836
3.40 174.904 74.391
3.41 170.574 73.370
3.42 165.911 71.542
3.43 165.467 68.930
3.44 --undefined-- 64.306
3.45 276.217 57.963
3.46 277.938 52.983
3.47 280.590 49.992
3.48 --undefined-- 49.180
3.49 --undefined-- 48.820
3.50 --undefined-- 47.619
3.51 --undefined-- 48.538
3.52 --undefined-- 50.049
3.53 --undefined-- 50.077
3.54 --undefined-- 51.055
3.55 --undefined-- 51.418
3.56 --undefined-- 48.903
3.57 --undefined-- 48.245
3.58 --undefined-- 53.096
3.59 --undefined-- 55.849
3.60 --undefined-- 55.612
3.61 --undefined-- 54.335
3.62 --undefined-- 54.948
3.63 --undefined-- 54.817
3.64 --undefined-- 52.272
3.65 --undefined-- 49.298
3.66 --undefined-- 51.279
3.67 --undefined-- 54.414
3.68 --undefined-- 55.408
3.69 --undefined-- 54.623
3.70 --undefined-- 54.508
3.71 --undefined-- 55.805
3.72 --undefined-- 55.769
3.73 --undefined-- 54.405
3.74 --undefined-- 53.306
3.75 --undefined-- 53.932
3.76 --undefined-- 56.036
3.77 --undefined-- 56.876
3.78 --undefined-- 56.162
3.79 --undefined-- 55.361
3.80 --undefined-- 54.461
3.81 --undefined-- 52.577
3.82 --undefined-- 50.665
3.83 --undefined-- 50.681
3.84 --undefined-- 52.700
3.85 --undefined-- 53.620
3.86 --undefined-- 52.562
3.87 --undefined-- 50.445
3.88 --undefined-- 50.668
3.89 --undefined-- 53.182
3.90 --undefined-- 53.678
3.91 --undefined-- 52.850
3.92 --undefined-- 53.639
3.93 --undefined-- 53.955
3.94 --undefined-- 58.616
3.95 175.144 65.686
3.96 175.014 70.579
3.97 174.575 73.510
3.98 173.515 75.030
3.99 173.006 75.755
4.00 173.952 76.290
4.01 176.022 76.989
4.02 178.300 77.689
4.03 180.421 77.541
4.04 182.935 76.330
4.05 182.723 74.903
4.06 183.011 73.522
4.07 184.729 71.919
4.08 185.089 70.790
4.09 185.692 70.376
4.10 185.891 70.270
4.11 186.480 70.218
4.12 187.033 70.180
4.13 187.241 70.113
4.14 186.433 69.876
4.15 183.700 69.182
4.16 179.850 67.623
4.17 178.441 65.171
4.18 172.821 61.973
4.19 159.740 57.835
4.20 --undefined-- 53.720
4.21 --undefined-- 55.160
4.22 --undefined-- 58.770
4.23 188.822 63.262
4.24 183.458 66.769
4.25 181.987 68.343
4.26 181.074 68.791
4.27 179.932 68.970
4.28 179.314 69.098
4.29 178.448 69.122
4.30 177.626 68.934
4.31 176.615 68.424
4.32 175.232 67.733
4.33 175.771 67.181
4.34 177.788 66.973
4.35 178.295 66.973
4.36 179.545 67.026
4.37 180.611 67.072
4.38 180.469 66.900
4.39 177.954 65.987
4.40 175.200 63.905
4.41 167.609 60.617
4.42 --undefined-- 56.244
4.43 --undefined-- 52.047
4.44 --undefined-- 51.061
4.45 --undefined-- 50.457
4.46 --undefined-- 51.274
4.47 --undefined-- 57.204
4.48 171.384 62.465
4.49 170.814 65.284
4.50 171.703 66.461
4.51 170.933 66.905
4.52 169.621 67.073
4.53 168.467 66.913
4.54 165.600 66.120
4.55 162.144 64.329
4.56 162.253 60.988
4.57 169.664 56.538
4.58 166.324 53.987
4.59 --undefined-- 53.488
4.60 --undefined-- 53.590
4.61 --undefined-- 54.967
4.62 --undefined-- 57.085
4.63 256.361 60.511
4.64 246.846 63.330
4.65 224.604 64.851
4.66 192.486 66.007
4.67 172.745 66.477
4.68 164.377 66.051
4.69 80.184 65.050
4.70 80.646 63.645
4.71 --undefined-- 62.634
4.72 --undefined-- 62.192
4.73 --undefined-- 61.045
4.74 --undefined-- 58.572
4.75 --undefined-- 55.254
4.76 --undefined-- 52.199
4.77 --undefined-- 48.758
4.78 --undefined-- 47.897
4.79 --undefined-- 50.276
4.80 --undefined-- 51.011
4.81 --undefined-- 49.443
4.82 --undefined-- 47.501
4.83 --undefined-- 52.728
4.84 --undefined-- 59.282
4.85 --undefined-- 63.587
4.86 170.726 65.668
4.87 169.946 66.625
4.88 170.558 67.189
4.89 172.485 67.459
4.90 173.534 67.511
4.91 172.748 67.283
4.92 171.727 66.838
4.93 170.060 66.820
4.94 169.098 67.198
4.95 169.597 67.298
4.96 170.155 66.802
4.97 171.290 66.081
4.98 171.459 --undefined--
4.99 171.351 --undefined--
5.00 --undefined-- --undefined--
5.01 --undefined-- --undefined--
