Time Pitch Intensity
0.01 --undefined-- --undefined--
0.02 110.628 --undefined--
0.03 108.251 --undefined--
0.04 108.047 --undefined--
0.05 108.233 75.355
0.06 107.582 74.919
0.07 107.222 74.254
0.08 106.854 73.183
0.09 108.981 71.317
0.10 113.544 67.971
0.11 --undefined-- 63.494
0.12 --undefined-- 60.747
0.13 --undefined-- 60.241
0.14 --undefined-- 59.834
0.15 --undefined-- 59.328
0.16 --undefined-- 59.185
0.17 --undefined-- 58.536
0.18 --undefined-- 57.831
0.19 --undefined-- 58.286
0.20 --undefined-- 59.007
0.21 --undefined-- 60.496
0.22 --undefined-- 61.810
0.23 --undefined-- 60.865
0.24 --undefined-- 59.550
0.25 --undefined-- 60.518
0.26 --undefined-- 60.797
0.27 --undefined-- 59.445
0.28 --undefined-- 57.283
0.29 --undefined-- 57.808
0.30 --undefined-- 64.404
0.31 --undefined-- 69.900
0.32 131.663 72.853
0.33 124.625 74.101
0.34 123.049 74.641
0.35 121.443 74.774
0.36 119.760 74.546
0.37 115.547 74.352
0.38 114.681 74.500
0.39 117.384 74.962
0.40 118.508 75.495
0.41 118.586 75.944
0.42 118.348 76.288
0.43 117.198 76.555
0.44 118.691 76.800
0.45 119.619 77.041
0.46 116.901 77.171
0.47 110.939 77.187
0.48 107.552 77.268
0.49 106.533 77.371
0.50 104.749 77.254
0.51 103.108 77.020
0.52 102.391 76.929
0.53 100.533 76.742
0.54 100.688 76.103
0.55 98.486 74.835
0.56 98.510 72.520
0.57 100.700 68.605
0.58 102.988 63.118
0.59 --undefined-- 58.852
0.60 --undefined-- 58.255
0.61 --undefined-- 57.653
0.62 --undefined-- 57.391
0.63 --undefined-- 57.795
0.64 --undefined-- 58.518
0.65 --undefined-- 59.087
0.66 --undefined-- 60.752
0.67 --undefined-- 66.813
0.68 --undefined-- 71.625
0.69 99.416 74.206
0.70 85.316 75.221
0.71 85.263 75.274
0.72 81.333 74.988
0.73 78.651 75.014
0.74 82.776 75.404
0.75 82.821 75.612
0.76 89.827 75.657
0.77 90.951 75.805
0.78 95.114 75.800
0.79 96.755 75.549
0.80 99.501 75.349
0.81 101.156 75.301
0.82 102.633 75.263
0.83 104.941 75.449
0.84 106.838 75.812
0.85 110.464 76.143
0.86 113.966 76.498
0.87 116.319 76.879
0.88 117.666 77.128
0.89 118.292 77.234
0.90 119.558 77.207
0.91 120.640 76.709
0.92 120.165 75.113
0.93 114.274 72.001
0.94 107.712 67.580
0.95 109.739 63.132
0.96 118.135 60.809
0.97 117.935 60.161
0.98 118.400 62.430
0.99 --undefined-- 69.053
1.00 --undefined-- 73.813
1.01 --undefined-- 75.872
1.02 --undefined-- 76.638
1.03 101.841 77.398
1.04 103.121 77.894
1.05 105.148 78.001
1.06 109.251 78.100
1.07 118.110 78.285
1.08 121.654 78.029
1.09 123.184 76.331
1.10 122.343 72.486
1.11 124.503 66.515
1.12 122.521 59.858
1.13 121.520 55.925
1.14 120.029 54.084
1.15 --undefined-- 51.920
1.16 --undefined-- 49.373
1.17 --undefined-- 47.655
1.18 --undefined-- 54.974
1.19 --undefined-- 64.028
1.20 --undefined-- 70.971
1.21 149.407 75.528
1.22 137.887 77.720
1.23 130.356 78.281
1.24 126.012 78.244
1.25 122.285 78.305
1.26 119.390 78.350
1.27 115.394 77.939
1.28 108.517 77.281
1.29 104.374 76.867
1.30 101.921 76.355
1.31 100.035 75.402
1.32 99.600 74.071
1.33 101.438 72.802
1.34 104.299 72.114
1.35 106.532 72.056
1.36 106.110 72.182
1.37 105.788 72.199
1.38 106.630 72.242
1.39 106.744 72.376
1.40 107.234 72.452
1.41 106.267 72.317
1.42 104.565 71.886
1.43 102.990 71.187
1.44 102.525 70.369
1.45 102.369 69.574
1.46 103.365 69.035
1.47 105.286 69.304
1.48 108.873 70.707
1.49 111.685 72.736
1.50 112.281 74.519
1.51 110.742 75.687
1.52 110.527 76.340
1.53 110.727 76.597
1.54 110.450 76.635
1.55 109.108 76.616
1.56 108.350 76.568
1.57 108.384 76.417
1.58 108.446 76.125
1.59 108.188 75.757
1.60 107.443 75.617
1.61 105.562 75.873
1.62 106.229 76.113
1.63 106.369 76.123
1.64 106.192 76.163
1.65 107.426 76.463
1.66 107.337 77.159
1.67 109.787 77.934
1.68 110.726 78.135
1.69 109.988 77.171
1.70 103.211 74.495
1.71 102.415 70.528
1.72 106.036 67.379
1.73 147.434 64.851
1.74 159.637 63.405
1.75 166.666 68.658
1.76 182.334 74.867
1.77 180.385 78.332
1.78 182.601 79.520
1.79 185.087 79.535
1.80 185.982 78.977
1.81 184.333 77.293
1.82 181.133 73.687
1.83 174.429 68.553
1.84 181.187 64.106
1.85 183.271 60.528
1.86 --undefined-- 61.458
1.87 --undefined-- 65.090
1.88 --undefined-- 70.595
1.89 --undefined-- 75.710
1.90 193.332 78.355
1.91 188.154 79.201
1.92 182.385 79.237
1.93 178.138 78.941
1.94 173.469 78.605
1.95 171.594 78.108
1.96 170.168 77.153
1.97 168.730 76.183
1.98 169.681 76.054
1.99 172.781 76.888
2.00 182.526 78.083
2.01 185.512 78.932
2.02 188.690 79.099
2.03 191.642 78.874
2.04 195.763 78.537
2.05 197.879 78.111
2.06 196.424 77.446
2.07 191.547 75.996
2.08 182.131 73.128
2.09 167.980 68.291
2.10 188.009 61.338
2.11 193.888 55.572
2.12 191.442 53.881
2.13 --undefined-- 51.838
2.14 --undefined-- 50.038
2.15 --undefined-- 51.074
2.16 --undefined-- 53.394
2.17 --undefined-- 54.695
2.18 --undefined-- 54.443
2.19 --undefined-- 53.859
2.20 --undefined-- 54.021
2.21 --undefined-- 54.282
2.22 --undefined-- 54.056
2.23 --undefined-- 53.997
2.24 --undefined-- 54.419
2.25 --undefined-- 54.447
2.26 --undefined-- 54.080
2.27 --undefined-- 54.059
2.28 --undefined-- 53.802
2.29 --undefined-- 52.735
2.30 --undefined-- 51.479
2.31 --undefined-- 49.906
2.32 --undefined-- 47.894
2.33 --undefined-- 45.885
2.34 --undefined-- 43.519
2.35 --undefined-- 41.109
2.36 --undefined-- 42.392
2.37 --undefined-- 47.153
2.38 --undefined-- 51.623
2.39 --undefined-- 56.058
2.40 --undefined-- 59.213
2.41 --undefined-- 60.066
2.42 --undefined-- 59.522
2.43 --undefined-- 59.962
2.44 --undefined-- 62.422
2.45 --undefined-- 69.152
2.46 --undefined-- 75.080
2.47 157.954 77.804
2.48 152.715 78.226
2.49 137.253 78.204
2.50 136.657 78.536
2.51 136.392 78.519
2.52 138.042 77.957
2.53 140.191 77.105
2.54 143.287 76.182
2.55 146.528 75.495
2.56 154.335 75.499
2.57 158.312 75.971
2.58 162.422 76.431
2.59 167.095 76.558
2.60 173.919 76.403
2.61 182.426 76.569
2.62 188.681 77.418
2.63 192.706 78.193
2.64 197.532 78.210
2.65 200.123 77.240
2.66 196.917 74.880
2.67 189.369 71.444
2.68 192.286 68.661
2.69 194.019 66.889
2.70 196.268 65.276
2.71 199.562 65.534
2.72 192.509 70.047
2.73 181.908 74.411
2.74 172.617 77.117
2.75 165.600 78.496
2.76 159.829 78.902
2.77 155.171 78.683
2.78 152.758 78.537
2.79 152.372 78.647
2.80 150.761 78.624
2.81 148.385 78.515
2.82 146.552 78.422
2.83 145.927 78.393
2.84 146.485 78.419
2.85 148.208 78.168
2.86 148.145 77.472
2.87 147.667 77.033
2.88 152.612 77.784
2.89 157.173 78.989
2.90 157.235 79.464
2.91 158.314 79.221
2.92 159.930 78.820
2.93 161.072 78.630
2.94 162.214 78.803
2.95 163.919 79.058
2.96 165.211 78.719
2.97 164.145 77.007
2.98 160.935 73.521
2.99 157.314 69.451
3.00 158.941 67.951
3.01 158.485 69.241
3.02 152.632 72.281
3.03 149.866 75.351
3.04 146.252 77.121
3.05 136.586 77.649
3.06 130.689 77.799
3.07 125.733 77.798
3.08 120.540 77.247
3.09 116.367 75.793
3.10 108.643 73.847
3.11 107.044 73.436
3.12 107.127 74.259
3.13 104.517 74.660
3.14 102.265 74.650
3.15 100.677 74.509
3.16 100.553 74.331
3.17 101.420 74.332
3.18 102.511 74.454
3.19 103.961 74.408
3.20 106.575 74.205
3.21 113.471 74.187
3.22 120.244 75.006
3.23 127.809 76.574
3.24 142.023 78.052
3.25 150.088 78.962
3.26 156.771 79.107
3.27 158.910 78.792
3.28 164.479 78.371
3.29 166.925 76.947
3.30 164.954 73.228
3.31 164.392 66.718
3.32 164.306 59.756
3.33 166.000 57.141
3.34 163.921 55.227
3.35 --undefined-- 51.812
3.36 --undefined-- 50.498
3.37 --undefined-- 59.492
3.38 --undefined-- 68.739
3.39 168.543 74.213
3.40 151.518 76.471
3.41 139.323 76.561
3.42 130.917 75.784
3.43 122.729 75.154
3.44 121.690 75.023
3.45 122.039 75.002
3.46 119.698 74.916
3.47 115.777 74.918
3.48 114.627 75.118
3.49 114.699 75.382
3.50 115.292 75.526
3.51 115.827 75.551
3.52 115.690 75.561
3.53 115.631 75.605
3.54 116.081 75.585
3.55 116.900 75.379
3.56 116.289 74.956
3.57 115.222 74.405
3.58 113.933 73.855
3.59 113.201 73.257
3.60 111.662 72.278
3.61 108.921 70.622
3.62 104.647 68.155
3.63 105.806 64.625
3.64 112.224 59.672
3.65 --undefined-- 54.359
3.66 --undefined-- 58.306
3.67 --undefined-- 67.820
3.68 --undefined-- 73.743
3.69 133.089 76.442
3.70 127.193 77.060
3.71 120.113 76.732
3.72 113.065 76.313
3.73 110.714 76.593
3.74 108.164 77.451
3.75 106.640 78.082
3.76 104.320 78.240
3.77 103.464 78.055
3.78 103.609 77.721
3.79 104.426 77.459
3.80 105.973 77.318
3.81 108.454 77.038
3.82 106.435 75.813
3.83 104.104 73.115
3.84 97.803 69.411
3.85 95.961 65.467
3.86 --undefined-- 60.867
3.87 --undefined-- 55.884
3.88 --undefined-- 56.996
3.89 --undefined-- 62.701
3.90 --undefined-- 67.596
3.91 112.093 70.913
3.92 114.267 73.103
3.93 113.219 74.358
3.94 111.416 74.944
3.95 111.574 75.192
3.96 112.228 75.269
3.97 113.642 75.282
3.98 116.391 75.294
3.99 120.611 75.287
4.00 124.525 75.032
4.01 125.296 74.181
4.02 126.587 73.259
4.03 140.154 74.477
4.04 144.852 76.722
4.05 143.248 77.947
4.06 143.231 78.253
4.07 143.076 78.214
4.08 142.803 78.104
4.09 142.424 77.907
4.10 141.443 77.306
4.11 139.519 75.560
4.12 125.089 71.812
4.13 112.052 66.163
4.14 --undefined-- 59.768
4.15 --undefined-- 55.927
4.16 --undefined-- 62.534
4.17 --undefined-- 70.355
4.18 --undefined-- 74.820
4.19 106.827 76.585
4.20 101.502 77.262
4.21 100.488 77.461
4.22 99.293 76.677
4.23 97.748 74.578
4.24 97.158 71.032
4.25 100.894 66.067
4.26 101.223 60.161
4.27 101.046 56.418
4.28 98.316 57.759
4.29 --undefined-- 59.700
4.30 --undefined-- 61.448
4.31 --undefined-- 62.182
4.32 --undefined-- 61.189
4.33 --undefined-- 59.705
4.34 --undefined-- 59.268
4.35 --undefined-- 63.348
4.36 --undefined-- 70.923
4.37 170.078 76.162
4.38 165.928 78.578
4.39 157.363 78.729
4.40 148.129 76.854
4.41 --undefined-- 73.094
4.42 --undefined-- 68.240
4.43 --undefined-- 62.414
4.44 --undefined-- 55.247
4.45 --undefined-- 50.821
4.46 --undefined-- 49.567
4.47 --undefined-- 50.910
4.48 --undefined-- 59.160
4.49 144.733 65.552
4.50 135.775 68.795
4.51 129.662 70.184
4.52 126.751 70.986
4.53 123.333 71.784
4.54 120.516 72.574
4.55 117.676 73.284
4.56 115.772 73.986
4.57 113.994 74.621
4.58 112.199 75.151
4.59 111.055 75.622
4.60 109.895 76.131
4.61 104.850 76.553
4.62 98.798 76.559
4.63 96.200 76.074
4.64 92.500 75.522
4.65 90.372 75.187
4.66 90.031 74.822
4.67 87.282 74.609
4.68 96.239 74.591
4.69 83.031 74.014
4.70 83.187 73.060
4.71 93.663 72.873
4.72 91.417 73.396
4.73 93.550 73.820
4.74 94.261 73.867
4.75 96.140 73.837
4.76 98.763 74.106
4.77 100.439 74.787
4.78 102.727 75.580
4.79 105.925 76.152
4.80 107.207 76.435
4.81 110.831 76.635
4.82 117.644 77.058
4.83 123.531 77.392
4.84 127.704 77.282
4.85 132.163 76.812
4.86 135.756 76.409
4.87 137.143 76.332
4.88 137.422 76.095
4.89 135.918 75.157
4.90 133.213 73.731
4.91 132.049 73.266
4.92 132.439 74.494
4.93 129.467 75.543
4.94 122.901 75.844
4.95 118.242 76.255
4.96 115.708 76.995
4.97 114.681 77.686
4.98 112.904 78.004
4.99 108.622 78.172
5.00 105.218 --undefined--
5.01 102.903 --undefined--
5.02 --undefined-- --undefined--
5.03 --undefined-- --undefined--
