Time Pitch Intensity
0.01 --undefined-- --undefined--
0.02 158.480 --undefined--
0.03 157.946 --undefined--
0.04 156.986 --undefined--
0.05 156.159 66.726
0.06 155.742 65.837
0.07 155.141 64.541
0.08 151.360 62.268
0.09 147.607 58.497
0.10 149.498 53.173
0.11 --undefined-- 48.581
0.12 --undefined-- 46.789
0.13 --undefined-- 47.887
0.14 --undefined-- 57.042
0.15 --undefined-- 64.958
0.16 179.961 69.253
0.17 179.732 70.464
0.18 175.374 69.937
0.19 173.543 69.718
0.20 172.368 70.055
0.21 169.701 70.293
0.22 166.701 70.376
0.23 164.170 70.240
0.24 161.412 69.819
0.25 157.658 68.911
0.26 153.918 67.166
0.27 149.329 64.870
0.28 147.390 63.697
0.29 146.991 65.022
0.30 147.146 67.823
0.31 146.347 69.883
0.32 142.944 70.569
0.33 139.071 70.336
0.34 136.698 69.689
0.35 135.227 69.001
0.36 134.557 68.434
0.37 134.092 67.841
0.38 132.931 66.933
0.39 131.928 65.685
0.40 130.028 63.822
0.41 127.543 60.574
0.42 129.679 55.779
0.43 --undefined-- 50.342
0.44 --undefined-- 45.750
0.45 --undefined-- 43.517
0.46 --undefined-- 43.216
0.47 --undefined-- 44.057
0.48 --undefined-- 46.391
0.49 --undefined-- 48.191
0.50 --undefined-- 48.336
0.51 --undefined-- 47.597
0.52 --undefined-- 47.236
0.53 --undefined-- 46.821
0.54 --undefined-- 45.787
0.55 --undefined-- 44.734
0.56 --undefined-- 43.650
0.57 --undefined-- 42.204
0.58 --undefined-- 41.110
0.59 --undefined-- 40.694
0.60 --undefined-- 39.840
0.61 --undefined-- 38.622
0.62 --undefined-- 38.010
0.63 --undefined-- 37.782
0.64 --undefined-- 37.051
0.65 --undefined-- 37.064
0.66 --undefined-- 37.631
0.67 --undefined-- 37.756
0.68 --undefined-- 37.989
0.69 --undefined-- 38.726
0.70 --undefined-- 39.325
0.71 --undefined-- 38.776
0.72 --undefined-- 37.562
0.73 --undefined-- 37.205
0.74 --undefined-- 38.185
0.75 --undefined-- 40.174
0.76 --undefined-- 43.413
0.77 --undefined-- 46.187
0.78 --undefined-- 48.499
0.79 --undefined-- 54.181
0.80 --undefined-- 59.930
0.81 245.788 65.360
0.82 261.910 69.161
0.83 276.059 70.166
0.84 291.009 69.084
0.85 295.841 67.494
0.86 296.034 65.909
0.87 290.504 64.706
0.88 284.321 65.401
0.89 281.455 68.388
0.90 278.026 71.343
0.91 273.225 72.499
0.92 263.258 71.754
0.93 260.125 70.420
0.94 257.271 69.479
0.95 253.112 68.969
0.96 251.594 69.382
0.97 252.074 70.301
0.98 245.321 71.355
0.99 236.699 72.174
1.00 218.491 72.213
1.01 202.612 70.722
1.02 191.298 67.144
1.03 179.660 63.028
1.04 176.083 61.150
1.05 174.993 60.396
1.06 173.977 61.250
1.07 --undefined-- 63.012
1.08 --undefined-- 64.241
1.09 175.259 67.512
1.10 175.625 70.839
1.11 176.081 72.020
1.12 178.174 71.896
1.13 183.817 71.594
1.14 192.075 71.680
1.15 199.989 72.107
1.16 208.800 72.210
1.17 218.866 71.955
1.18 231.936 71.621
1.19 241.502 70.844
1.20 245.670 69.730
1.21 251.539 69.779
1.22 256.577 71.539
1.23 252.896 73.164
1.24 241.319 73.736
1.25 231.935 73.685
1.26 225.115 73.437
1.27 220.473 72.872
1.28 216.319 71.576
1.29 212.265 69.042
1.30 208.212 64.726
1.31 210.741 58.660
1.32 212.920 53.503
1.33 --undefined-- 52.461
1.34 --undefined-- 53.594
1.35 --undefined-- 54.724
1.36 --undefined-- 59.814
1.37 --undefined-- 67.224
1.38 --undefined-- 71.461
1.39 186.966 72.852
1.40 184.141 72.587
1.41 182.848 71.911
1.42 185.646 71.103
1.43 191.057 70.069
1.44 197.762 69.292
1.45 205.612 69.391
1.46 210.930 69.606
1.47 214.769 68.701
1.48 221.721 66.499
1.49 242.863 64.014
1.50 258.217 61.369
1.51 259.203 57.883
1.52 246.937 54.013
1.53 229.489 50.656
1.54 --undefined-- 48.154
1.55 --undefined-- 46.825
1.56 --undefined-- 47.938
1.57 --undefined-- 52.387
1.58 212.743 58.039
1.59 199.753 62.877
1.60 190.743 66.067
1.61 182.767 67.497
1.62 175.499 67.323
1.63 169.541 65.904
1.64 165.577 63.955
1.65 164.211 63.142
1.66 166.020 66.016
1.67 168.431 69.996
1.68 169.933 72.285
1.69 167.198 72.631
1.70 161.776 71.882
1.71 159.628 70.562
1.72 157.826 68.256
1.73 161.583 65.207
1.74 163.043 62.397
1.75 163.777 61.100
1.76 166.673 62.046
1.77 --undefined-- 65.925
1.78 --undefined-- 69.296
1.79 164.611 70.182
1.80 156.423 69.087
1.81 150.562 66.586
1.82 146.749 62.035
1.83 --undefined-- 54.717
1.84 --undefined-- 48.856
1.85 --undefined-- 46.865
1.86 --undefined-- 44.895
1.87 --undefined-- 44.584
1.88 --undefined-- 44.519
1.89 --undefined-- 43.749
1.90 --undefined-- 42.164
1.91 --undefined-- 46.595
1.92 --undefined-- 56.257
1.93 --undefined-- 63.758
1.94 --undefined-- 69.014
1.95 153.200 71.655
1.96 148.714 72.097
1.97 145.537 71.663
1.98 143.755 71.386
1.99 143.439 71.175
2.00 144.201 70.773
2.01 144.937 70.065
2.02 145.376 69.027
2.03 145.759 67.943
2.04 145.661 67.140
2.05 146.306 66.704
2.06 147.805 66.550
2.07 148.846 66.597
2.08 149.081 66.770
2.09 149.444 66.875
2.10 150.967 66.697
2.11 152.099 66.099
2.12 --undefined-- 65.337
2.13 --undefined-- 64.850
2.14 --undefined-- 64.671
2.15 --undefined-- 64.650
2.16 77.916 65.416
2.17 81.041 66.815
2.18 82.867 68.390
2.19 107.662 69.940
2.20 107.610 70.369
2.21 --undefined-- 69.793
2.22 148.606 69.412
2.23 147.322 69.457
2.24 145.949 69.060
2.25 143.939 68.711
2.26 142.675 68.823
2.27 141.874 68.942
2.28 141.105 68.405
2.29 140.281 66.524
2.30 139.614 62.830
2.31 139.579 57.166
2.32 --undefined-- 50.977
2.33 --undefined-- 47.978
2.34 --undefined-- 45.150
2.35 --undefined-- 41.389
2.36 --undefined-- 39.632
2.37 --undefined-- 38.430
2.38 --undefined-- 38.265
2.39 --undefined-- 39.184
2.40 --undefined-- 39.943
2.41 --undefined-- 40.055
2.42 --undefined-- 39.556
2.43 --undefined-- 39.252
2.44 --undefined-- 39.170
2.45 --undefined-- 39.102
2.46 --undefined-- 38.906
2.47 --undefined-- 38.300
2.48 --undefined-- 38.300
2.49 --undefined-- 39.227
2.50 --undefined-- 40.445
2.51 --undefined-- 41.151
2.52 --undefined-- 41.040
2.53 --undefined-- 40.551
2.54 --undefined-- 40.628
2.55 --undefined-- 40.082
2.56 --undefined-- 46.943
2.57 --undefined-- 59.795
2.58 --undefined-- 67.671
2.59 --undefined-- 72.038
2.60 --undefined-- 73.709
2.61 265.816 72.722
2.62 261.158 68.969
2.63 262.799 62.740
2.64 266.739 55.432
2.65 --undefined-- 49.105
2.66 --undefined-- 45.255
2.67 --undefined-- 43.437
2.68 --undefined-- 42.157
2.69 --undefined-- 41.875
2.70 --undefined-- 42.031
2.71 --undefined-- 43.857
2.72 --undefined-- 53.365
2.73 --undefined-- 62.795
2.74 --undefined-- 68.913
2.75 --undefined-- 71.763
2.76 183.826 72.350
2.77 174.758 72.003
2.78 168.172 70.877
2.79 163.414 68.194
2.80 157.434 63.443
2.81 --undefined-- 56.799
2.82 --undefined-- 50.045
2.83 --undefined-- 51.575
2.84 --undefined-- 59.914
2.85 --undefined-- 64.620
2.86 --undefined-- 67.453
2.87 --undefined-- 70.561
2.88 165.960 72.361
2.89 160.985 72.546
2.90 159.124 71.737
2.91 157.821 69.568
2.92 158.868 65.390
2.93 167.339 60.732
2.94 172.321 59.609
2.95 177.589 60.530
2.96 183.093 62.491
2.97 188.530 65.555
2.98 193.504 68.542
2.99 193.509 70.401
3.00 194.380 71.094
3.01 194.791 70.930
3.02 194.915 70.164
3.03 194.562 68.619
3.04 193.337 66.039
3.05 193.917 62.988
3.06 194.303 60.984
3.07 192.399 62.250
3.08 191.461 66.281
3.09 189.207 69.161
3.10 184.498 69.772
3.11 177.863 68.353
3.12 170.716 65.606
3.13 --undefined-- 62.281
3.14 --undefined-- 59.800
3.15 --undefined-- 59.093
3.16 --undefined-- 58.634
3.17 --undefined-- 58.053
3.18 --undefined-- 58.602
3.19 --undefined-- 59.528
3.20 --undefined-- 59.257
3.21 --undefined-- 60.076
3.22 --undefined-- 64.218
3.23 --undefined-- 67.929
3.24 --undefined-- 69.867
3.25 146.043 70.595
3.26 144.722 71.003
3.27 143.064 71.391
3.28 141.807 71.454
3.29 140.461 70.991
3.30 139.448 70.145
3.31 139.477 68.983
3.32 139.626 67.119
3.33 140.188 64.130
3.34 140.068 59.976
3.35 137.378 54.663
3.36 --undefined-- 48.762
3.37 --undefined-- 44.076
3.38 --undefined-- 46.401
3.39 --undefined-- 56.049
3.40 --undefined-- 61.799
3.41 --undefined-- 63.572
3.42 --undefined-- 63.256
3.43 --undefined-- 63.032
3.44 80.930 64.206
3.45 --undefined-- 67.912
3.46 --undefined-- 70.782
3.47 --undefined-- 72.090
3.48 --undefined-- 72.068
3.49 151.061 71.384
3.50 152.570 70.629
3.51 153.972 69.661
3.52 154.432 68.104
3.53 153.720 65.786
3.54 155.865 64.041
3.55 158.696 63.917
3.56 162.754 64.117
3.57 167.553 65.148
3.58 176.643 67.875
3.59 180.347 70.451
3.60 183.285 71.845
3.61 188.561 72.029
3.62 194.089 71.032
3.63 197.405 68.718
3.64 198.740 64.677
3.65 --undefined-- 58.778
3.66 --undefined-- 52.596
3.67 --undefined-- 47.553
3.68 --undefined-- 43.479
3.69 --undefined-- 41.986
3.70 --undefined-- 42.762
3.71 --undefined-- 44.469
3.72 --undefined-- 46.397
3.73 --undefined-- 47.989
3.74 --undefined-- 48.852
3.75 --undefined-- 49.300
3.76 --undefined-- 49.982
3.77 --undefined-- 50.478
3.78 --undefined-- 50.523
3.79 --undefined-- 50.725
3.80 --undefined-- 50.973
3.81 --undefined-- 51.110
3.82 --undefined-- 52.054
3.83 --undefined-- 52.920
3.84 --undefined-- 53.024
3.85 --undefined-- 53.470
3.86 --undefined-- 54.213
3.87 --undefined-- 54.544
3.88 --undefined-- 54.493
3.89 --undefined-- 54.258
3.90 --undefined-- 54.119
3.91 --undefined-- 54.096
3.92 --undefined-- 54.389
3.93 --undefined-- 54.857
3.94 --undefined-- 54.979
3.95 --undefined-- 54.851
3.96 --undefined-- 54.441
3.97 --undefined-- 54.008
3.98 --undefined-- 54.241
3.99 --undefined-- 54.372
4.00 --undefined-- 54.098
4.01 --undefined-- 54.159
4.02 --undefined-- 54.207
4.03 --undefined-- 53.077
4.04 --undefined-- 50.507
4.05 --undefined-- 46.761
4.06 --undefined-- 42.036
4.07 --undefined-- 41.726
4.08 --undefined-- 53.443
4.09 --undefined-- 61.378
4.10 --undefined-- 64.913
4.11 --undefined-- 66.883
4.12 --undefined-- 69.383
4.13 --undefined-- 71.021
4.14 --undefined-- 71.450
4.15 171.804 71.235
4.16 167.195 71.154
4.17 166.483 70.935
4.18 166.736 70.424
4.19 166.764 69.908
4.20 166.092 69.079
4.21 163.845 66.914
4.22 158.307 62.645
4.23 158.632 57.093
4.24 164.894 60.080
4.25 --undefined-- 67.620
4.26 174.650 71.886
4.27 171.579 73.264
4.28 170.111 72.863
4.29 169.775 71.752
4.30 170.602 70.100
4.31 172.484 67.153
4.32 172.426 62.235
4.33 --undefined-- 55.081
4.34 --undefined-- 49.258
4.35 --undefined-- 47.851
4.36 --undefined-- 46.953
4.37 --undefined-- 48.207
4.38 --undefined-- 53.667
4.39 --undefined-- 61.880
4.40 243.823 67.490
4.41 236.898 70.081
4.42 237.208 70.570
4.43 243.061 69.860
4.44 252.956 68.592
4.45 264.559 67.387
4.46 267.936 66.265
4.47 263.425 65.163
4.48 264.134 64.234
4.49 --undefined-- 63.555
4.50 --undefined-- 63.304
4.51 --undefined-- 63.412
4.52 --undefined-- 64.897
4.53 254.766 67.051
4.54 246.753 68.837
4.55 241.658 70.541
4.56 235.382 71.928
4.57 225.416 72.290
4.58 213.519 71.723
4.59 202.730 70.641
4.60 193.244 69.579
4.61 185.002 68.885
4.62 177.880 68.083
4.63 171.815 67.009
4.64 165.819 65.789
4.65 161.463 64.768
4.66 158.185 64.042
4.67 156.245 63.520
4.68 154.800 63.106
4.69 155.202 63.171
4.70 156.109 63.761
4.71 157.288 64.377
4.72 160.250 64.763
4.73 162.106 64.667
4.74 163.815 63.723
4.75 169.014 61.180
4.76 --undefined-- 56.047
4.77 --undefined-- 51.151
4.78 --undefined-- 55.192
4.79 --undefined-- 58.209
4.80 94.304 59.270
4.81 105.728 62.059
4.82 111.162 66.445
4.83 111.159 70.229
4.84 226.324 72.559
4.85 230.273 73.494
4.86 232.657 73.307
4.87 234.266 72.233
4.88 233.053 70.200
4.89 229.583 67.355
4.90 227.015 64.996
4.91 225.404 64.491
4.92 225.619 65.914
4.93 224.396 68.355
4.94 216.850 70.852
4.95 208.871 72.315
4.96 202.445 71.833
4.97 195.715 69.106
4.98 186.772 64.357
4.99 --undefined-- 59.122
5.00 --undefined-- 56.414
5.01 --undefined-- 55.101
5.02 --undefined-- 54.635
5.03 --undefined-- 54.348
5.04 --undefined-- 54.559
5.05 --undefined-- 55.254
5.06 --undefined-- 54.746
5.07 --undefined-- 53.577
5.08 --undefined-- 57.763
5.09 --undefined-- 64.401
5.10 157.978 68.635
5.11 150.650 70.309
5.12 141.886 70.575
5.13 135.950 70.386
5.14 131.742 69.900
5.15 128.640 69.229
5.16 126.015 68.521
5.17 125.003 67.738
5.18 124.571 66.549
5.19 123.630 64.783
5.20 123.250 62.561
5.21 123.970 60.414
5.22 125.817 59.131
5.23 126.341 58.667
5.24 125.694 58.553
5.25 124.957 58.264
5.26 126.175 57.625
5.27 126.378 56.521
5.28 125.031 54.625
5.29 125.278 52.426
5.30 125.940 50.234
5.31 --undefined-- 46.957
5.32 --undefined-- 43.168
5.33 --undefined-- 43.450
5.34 --undefined-- 50.987
5.35 --undefined-- 59.483
5.36 --undefined-- 66.397
5.37 --undefined-- 70.227
5.38 --undefined-- 71.124
5.39 145.593 70.594
5.40 145.363 70.613
5.41 145.920 70.986
5.42 145.461 70.598
5.43 145.141 68.967
5.44 145.241 66.436
5.45 144.942 64.036
5.46 144.536 62.635
5.47 145.174 61.989
5.48 144.626 61.313
5.49 143.884 59.775
5.50 142.612 56.619
5.51 142.994 53.008
5.52 --undefined-- 53.723
5.53 --undefined-- 54.914
5.54 --undefined-- --undefined--
5.55 --undefined-- --undefined--
5.56 --undefined-- --undefined--
5.57 --undefined-- --undefined--
