Time Pitch Intensity
0.01 --undefined-- --undefined--
0.02 84.662 --undefined--
0.03 84.715 --undefined--
0.04 76.842 --undefined--
0.05 --undefined-- 70.239
0.06 --undefined-- 71.158
0.07 --undefined-- 70.889
0.08 --undefined-- 69.667
0.09 --undefined-- 68.236
0.10 --undefined-- 66.596
0.11 79.872 64.743
0.12 82.884 62.523
0.13 85.909 59.864
0.14 --undefined-- 55.700
0.15 --undefined-- 48.851
0.16 --undefined-- 41.328
0.17 --undefined-- 38.057
0.18 --undefined-- 37.689
0.19 --undefined-- 39.002
0.20 --undefined-- 39.938
0.21 --undefined-- 40.046
0.22 --undefined-- 41.930
0.23 --undefined-- 48.863
0.24 --undefined-- 55.755
0.25 81.823 61.112
0.26 75.706 65.499
0.27 75.743 68.567
0.28 --undefined-- 70.142
0.29 --undefined-- 69.983
0.30 --undefined-- 68.329
0.31 --undefined-- 69.049
0.32 --undefined-- 69.574
0.33 --undefined-- 66.407
0.34 --undefined-- 60.744
0.35 --undefined-- 58.697
0.36 --undefined-- 56.262
0.37 --undefined-- 51.035
0.38 --undefined-- 47.578
0.39 --undefined-- 45.400
0.40 --undefined-- 41.538
0.41 --undefined-- 37.725
0.42 --undefined-- 34.979
0.43 --undefined-- 33.512
0.44 --undefined-- 33.738
0.45 --undefined-- 34.619
0.46 --undefined-- 35.389
0.47 --undefined-- 37.832
0.48 --undefined-- 42.758
0.49 --undefined-- 45.926
0.50 --undefined-- 46.335
0.51 --undefined-- 44.796
0.52 --undefined-- 42.544
0.53 --undefined-- 41.821
0.54 --undefined-- 41.902
0.55 --undefined-- 41.319
0.56 --undefined-- 41.588
0.57 --undefined-- 42.545
0.58 --undefined-- 42.823
0.59 --undefined-- 42.900
0.60 --undefined-- 42.806
0.61 --undefined-- 42.780
0.62 --undefined-- 43.011
0.63 --undefined-- 43.135
0.64 --undefined-- 43.664
0.65 --undefined-- 44.385
0.66 --undefined-- 44.080
0.67 --undefined-- 43.064
0.68 --undefined-- 42.630
0.69 --undefined-- 43.135
0.70 --undefined-- 43.821
0.71 --undefined-- 43.645
0.72 --undefined-- 42.526
0.73 --undefined-- 41.496
0.74 --undefined-- 41.221
0.75 --undefined-- 41.557
0.76 --undefined-- 41.954
0.77 --undefined-- 41.363
0.78 --undefined-- 40.534
0.79 --undefined-- 40.873
0.80 --undefined-- 41.449
0.81 --undefined-- 40.902
0.82 --undefined-- 39.716
0.83 --undefined-- 39.051
0.84 --undefined-- 39.185
0.85 --undefined-- 39.906
0.86 --undefined-- 40.930
0.87 --undefined-- 41.361
0.88 --undefined-- 40.699
0.89 --undefined-- 39.976
0.90 --undefined-- 39.733
0.91 --undefined-- 39.727
0.92 --undefined-- 40.028
0.93 --undefined-- 41.981
0.94 --undefined-- 47.624
0.95 --undefined-- 53.802
0.96 --undefined-- 60.462
0.97 --undefined-- 67.527
0.98 --undefined-- 72.140
0.99 --undefined-- 73.686
1.00 89.271 73.431
1.01 87.834 72.728
1.02 86.971 70.975
1.03 --undefined-- 67.014
1.04 --undefined-- 61.387
1.05 100.200 58.535
1.06 100.175 57.931
1.07 100.160 57.347
1.08 99.897 56.872
1.09 100.215 56.726
1.10 100.631 57.680
1.11 104.585 61.550
1.12 103.950 65.738
1.13 99.573 68.683
1.14 95.478 70.744
1.15 93.288 71.905
1.16 89.972 72.173
1.17 88.208 71.953
1.18 83.875 71.357
1.19 81.059 70.944
1.20 77.314 71.069
1.21 --undefined-- 70.868
1.22 --undefined-- 69.660
1.23 --undefined-- 67.223
1.24 --undefined-- 63.570
1.25 --undefined-- 59.264
1.26 84.073 54.696
1.27 --undefined-- 50.100
1.28 --undefined-- 45.248
1.29 --undefined-- 41.006
1.30 --undefined-- 39.345
1.31 --undefined-- 39.749
1.32 --undefined-- 41.768
1.33 --undefined-- 46.780
1.34 --undefined-- 53.275
1.35 98.145 59.279
1.36 98.951 64.607
1.37 98.731 68.840
1.38 100.592 71.461
1.39 101.621 72.301
1.40 101.008 71.259
1.41 --undefined-- 68.146
1.42 --undefined-- 63.157
1.43 --undefined-- 57.478
1.44 --undefined-- 52.038
1.45 --undefined-- 46.377
1.46 --undefined-- 40.881
1.47 --undefined-- 36.760
1.48 --undefined-- 34.983
1.49 --undefined-- 34.349
1.50 --undefined-- 35.149
1.51 --undefined-- 36.082
1.52 --undefined-- 38.655
1.53 --undefined-- 45.717
1.54 --undefined-- 51.869
1.55 111.733 56.569
1.56 108.415 60.524
1.57 105.906 63.630
1.58 103.805 65.413
1.59 101.480 65.624
1.60 101.512 64.297
1.61 102.776 62.259
1.62 102.618 60.715
1.63 101.663 59.614
1.64 99.228 58.409
1.65 95.492 57.100
1.66 --undefined-- 56.010
1.67 --undefined-- 57.151
1.68 --undefined-- 63.077
1.69 --undefined-- 68.252
1.70 93.964 71.342
1.71 91.765 72.717
1.72 88.852 72.816
1.73 82.816 72.430
1.74 81.633 71.988
1.75 81.857 71.554
1.76 83.779 71.215
1.77 85.122 70.774
1.78 89.184 70.220
1.79 90.881 69.336
1.80 92.306 68.400
1.81 93.090 67.963
1.82 91.509 67.543
1.83 87.849 66.462
1.84 85.552 64.271
1.85 --undefined-- 59.929
1.86 --undefined-- 52.247
1.87 --undefined-- 42.807
1.88 --undefined-- 42.056
1.89 --undefined-- 45.303
1.90 --undefined-- 50.793
1.91 --undefined-- 60.030
1.92 --undefined-- 66.947
1.93 86.560 71.204
1.94 79.537 73.483
1.95 79.499 74.427
1.96 77.682 74.396
1.97 76.277 73.659
1.98 76.433 72.487
1.99 76.463 71.026
2.00 75.523 69.450
2.01 75.914 67.595
2.02 76.609 64.969
2.03 79.474 61.556
2.04 77.374 57.074
2.05 --undefined-- 50.778
2.06 --undefined-- 43.754
2.07 --undefined-- 40.967
2.08 --undefined-- 43.115
2.09 --undefined-- 50.243
2.10 88.970 56.243
2.11 86.981 60.658
2.12 83.391 64.249
2.13 81.860 67.017
2.14 81.191 68.438
2.15 78.844 68.145
2.16 79.672 66.709
2.17 --undefined-- 64.761
2.18 --undefined-- 61.080
2.19 --undefined-- 54.675
2.20 --undefined-- 47.285
2.21 --undefined-- 42.321
2.22 --undefined-- 40.606
2.23 --undefined-- 41.079
2.24 --undefined-- 48.703
2.25 --undefined-- 58.950
2.26 --undefined-- 66.764
2.27 --undefined-- 71.107
2.28 --undefined-- 72.458
2.29 78.944 71.956
2.30 75.326 70.803
2.31 74.854 69.423
2.32 74.472 67.739
2.33 85.667 65.849
2.34 85.360 64.049
2.35 85.302 62.204
2.36 85.553 59.935
2.37 74.872 57.519
2.38 75.287 55.354
2.39 75.385 52.823
2.40 75.065 50.696
2.41 75.593 50.946
2.42 75.101 53.975
2.43 --undefined-- 58.104
2.44 83.195 61.880
2.45 81.483 64.719
2.46 80.045 66.655
2.47 79.262 67.795
2.48 --undefined-- 68.392
2.49 --undefined-- 68.401
2.50 --undefined-- 67.454
2.51 --undefined-- 65.643
2.52 --undefined-- 63.846
2.53 --undefined-- 62.257
2.54 --undefined-- 59.356
2.55 --undefined-- 54.085
2.56 --undefined-- 47.993
2.57 --undefined-- 46.413
2.58 --undefined-- 48.248
2.59 --undefined-- 50.279
2.60 --undefined-- 51.748
2.61 --undefined-- 53.522
2.62 --undefined-- 56.761
2.63 --undefined-- 62.843
2.64 --undefined-- 69.706
2.65 130.081 73.803
2.66 123.253 75.191
2.67 119.059 74.944
2.68 118.844 74.539
2.69 120.825 74.741
2.70 122.917 74.960
2.71 124.377 74.383
2.72 127.063 72.793
2.73 130.829 71.321
2.74 130.191 70.870
2.75 130.191 69.869
2.76 131.180 67.461
2.77 127.474 64.549
2.78 123.929 62.667
2.79 122.112 61.725
2.80 112.721 61.626
2.81 107.552 63.234
2.82 103.652 65.781
2.83 99.236 67.787
2.84 95.101 69.073
2.85 91.902 70.360
2.86 88.664 71.935
2.87 87.113 73.128
2.88 87.032 73.854
2.89 83.040 73.840
2.90 82.824 72.738
2.91 86.262 70.865
2.92 89.345 68.461
2.93 92.447 65.044
2.94 --undefined-- 60.304
2.95 --undefined-- 55.522
2.96 --undefined-- 51.834
2.97 --undefined-- 49.336
2.98 --undefined-- 47.649
2.99 --undefined-- 46.102
3.00 --undefined-- 45.613
3.01 --undefined-- 46.368
3.02 --undefined-- 48.183
3.03 94.777 51.023
3.04 94.649 54.141
3.05 93.878 57.286
3.06 93.920 60.747
3.07 94.434 64.500
3.08 94.910 68.299
3.09 95.539 71.402
3.10 95.218 73.096
3.11 95.806 73.202
3.12 98.643 72.286
3.13 102.717 71.661
3.14 106.612 71.824
3.15 110.620 71.389
3.16 110.393 69.083
3.17 108.382 64.312
3.18 --undefined-- 56.629
3.19 --undefined-- 46.077
3.20 --undefined-- 38.781
3.21 --undefined-- 36.904
3.22 --undefined-- 37.916
3.23 --undefined-- 39.111
3.24 --undefined-- 38.552
3.25 --undefined-- 38.265
3.26 --undefined-- 38.844
3.27 --undefined-- 39.372
3.28 --undefined-- 46.534
3.29 --undefined-- 55.581
3.30 128.610 62.594
3.31 125.118 67.750
3.32 123.128 71.247
3.33 121.516 73.426
3.34 120.498 74.716
3.35 120.085 75.203
3.36 119.695 74.862
3.37 118.959 74.173
3.38 117.508 73.759
3.39 115.580 73.080
3.40 118.067 71.399
3.41 121.248 69.513
3.42 123.065 68.760
3.43 124.415 68.498
3.44 124.833 67.905
3.45 124.743 66.805
3.46 123.663 64.874
3.47 120.994 61.395
3.48 --undefined-- 55.825
3.49 --undefined-- 49.433
3.50 --undefined-- 47.424
3.51 --undefined-- 47.625
3.52 --undefined-- 47.164
3.53 --undefined-- 46.328
3.54 --undefined-- 52.114
3.55 --undefined-- 62.486
3.56 135.650 69.793
3.57 129.705 73.843
3.58 123.481 75.156
3.59 118.636 74.920
3.60 117.238 74.410
3.61 115.635 73.790
3.62 114.914 72.818
3.63 114.972 71.526
3.64 114.611 70.075
3.65 114.401 68.137
3.66 114.529 65.401
3.67 116.598 63.201
3.68 118.424 62.397
3.69 120.542 61.310
3.70 122.022 59.004
3.71 122.759 55.181
3.72 --undefined-- 50.517
3.73 --undefined-- 46.624
3.74 --undefined-- 44.381
3.75 --undefined-- 49.926
3.76 --undefined-- 55.355
3.77 --undefined-- 57.107
3.78 --undefined-- 59.278
3.79 --undefined-- 66.154
3.80 116.155 70.955
3.81 97.275 73.120
3.82 92.500 73.605
3.83 90.135 73.157
3.84 87.493 71.923
3.85 85.431 69.660
3.86 84.132 66.134
3.87 --undefined-- 61.115
3.88 --undefined-- 54.532
3.89 --undefined-- 46.890
3.90 --undefined-- 41.008
3.91 --undefined-- 39.661
3.92 --undefined-- 38.126
3.93 --undefined-- 34.965
3.94 --undefined-- 35.574
3.95 --undefined-- 37.103
3.96 --undefined-- 36.597
3.97 --undefined-- 35.269
3.98 --undefined-- 36.727
3.99 --undefined-- 40.944
4.00 --undefined-- 43.475
4.01 --undefined-- 45.004
4.02 --undefined-- 52.120
4.03 --undefined-- 59.418
4.04 104.735 64.646
4.05 102.190 68.065
4.06 99.436 69.532
4.07 97.819 70.007
4.08 97.469 70.549
4.09 97.887 71.098
4.10 97.630 71.510
4.11 98.240 71.980
4.12 98.879 72.477
4.13 98.474 72.674
4.14 97.826 72.439
4.15 97.107 71.345
4.16 --undefined-- 68.470
4.17 --undefined-- 63.051
4.18 --undefined-- 54.173
4.19 --undefined-- 44.973
4.20 --undefined-- 41.340
4.21 --undefined-- 38.719
4.22 --undefined-- 37.192
4.23 --undefined-- 36.741
4.24 --undefined-- 36.864
4.25 --undefined-- 37.560
4.26 --undefined-- 37.789
4.27 --undefined-- 37.009
4.28 --undefined-- 36.873
4.29 --undefined-- 39.735
4.30 --undefined-- 47.008
4.31 --undefined-- 53.315
4.32 --undefined-- 55.565
4.33 --undefined-- 54.519
4.34 --undefined-- 54.126
4.35 --undefined-- 58.684
4.36 --undefined-- 65.485
4.37 --undefined-- 70.056
4.38 97.463 72.044
4.39 93.810 72.563
4.40 90.540 72.367
4.41 88.389 71.727
4.42 87.401 71.247
4.43 86.480 71.043
4.44 85.266 70.679
4.45 84.407 69.991
4.46 82.624 69.299
4.47 81.143 69.329
4.48 78.689 70.091
4.49 77.916 70.684
4.50 --undefined-- 70.548
4.51 --undefined-- 70.322
4.52 --undefined-- 69.831
4.53 --undefined-- 67.838
4.54 --undefined-- 64.490
4.55 --undefined-- 60.256
4.56 --undefined-- 55.337
4.57 --undefined-- 51.609
4.58 --undefined-- 49.623
4.59 --undefined-- 49.365
4.60 77.873 52.209
4.61 77.708 55.825
4.62 76.301 58.434
4.63 74.606 60.929
4.64 74.938 63.868
4.65 75.467 66.589
4.66 76.872 68.752
4.67 77.530 69.831
4.68 78.794 69.630
4.69 81.172 68.884
4.70 85.423 68.664
4.71 89.734 68.803
4.72 93.073 69.148
4.73 94.337 70.265
4.74 95.204 71.594
4.75 96.033 72.301
4.76 244.848 71.560
4.77 251.321 68.484
4.78 --undefined-- 64.609
4.79 273.180 64.174
4.80 268.142 63.184
4.81 267.373 59.767
4.82 --undefined-- 53.723
4.83 --undefined-- 45.384
4.84 --undefined-- 40.530
4.85 --undefined-- 40.810
4.86 --undefined-- 45.935
4.87 --undefined-- 56.483
4.88 --undefined-- 64.462
4.89 --undefined-- 68.945
4.90 106.953 70.473
4.91 100.375 70.492
4.92 95.900 70.624
4.93 95.461 70.476
4.94 94.599 68.715
4.95 93.903 65.198
4.96 92.878 61.520
4.97 90.944 59.704
4.98 88.540 59.275
4.99 87.452 59.724
5.00 87.101 60.510
5.01 87.492 60.757
5.02 86.802 59.894
5.03 85.931 57.188
5.04 --undefined-- 52.011
5.05 --undefined-- 45.385
5.06 --undefined-- 41.712
5.07 --undefined-- 40.926
5.08 --undefined-- 41.886
5.09 --undefined-- 46.467
5.10 --undefined-- 50.671
5.11 --undefined-- 53.742
5.12 --undefined-- 60.849
5.13 --undefined-- 67.029
5.14 105.861 70.168
5.15 104.162 71.071
5.16 98.615 71.186
5.17 96.599 71.376
5.18 96.341 71.752
5.19 96.332 72.114
5.20 97.025 72.482
5.21 97.388 72.925
5.22 97.424 73.345
5.23 96.804 73.385
5.24 95.428 72.977
5.25 94.233 72.352
5.26 92.082 71.627
5.27 90.118 70.909
5.28 89.648 70.582
5.29 87.085 70.713
5.30 84.028 70.898
5.31 84.170 70.797
5.32 75.795 70.456
5.33 78.895 70.438
5.34 --undefined-- 70.213
5.35 --undefined-- 68.995
5.36 --undefined-- 67.336
5.37 --undefined-- 65.132
5.38 --undefined-- 61.054
5.39 --undefined-- 53.499
5.40 --undefined-- 43.630
5.41 --undefined-- 38.256
5.42 --undefined-- 37.237
5.43 --undefined-- 36.813
5.44 --undefined-- 36.654
5.45 --undefined-- 36.494
5.46 --undefined-- 37.915
5.47 --undefined-- 39.675
5.48 --undefined-- 44.559
5.49 --undefined-- 51.771
5.50 --undefined-- 55.683
5.51 --undefined-- 57.762
5.52 --undefined-- 62.424
5.53 --undefined-- 65.790
5.54 --undefined-- 66.636
5.55 --undefined-- 67.435
5.56 --undefined-- 68.275
5.57 --undefined-- 66.794
5.58 78.212 63.732
5.59 78.780 61.433
5.60 80.184 58.458
5.61 83.687 54.417
5.62 86.889 50.959
5.63 --undefined-- 49.027
5.64 --undefined-- 50.611
5.65 94.050 54.732
5.66 94.917 59.380
5.67 95.715 64.031
5.68 96.717 67.888
5.69 100.716 70.443
5.70 100.426 71.766
5.71 100.318 72.230
5.72 100.561 72.256
5.73 101.822 72.090
5.74 103.325 71.928
5.75 103.967 71.629
5.76 104.419 70.780
5.77 104.480 69.064
5.78 103.143 66.609
5.79 --undefined-- 63.598
5.80 --undefined-- 59.221
5.81 --undefined-- 52.341
5.82 --undefined-- 43.242
5.83 --undefined-- 40.171
5.84 --undefined-- 43.957
5.85 --undefined-- 51.952
5.86 --undefined-- 61.522
5.87 --undefined-- 68.204
5.88 103.768 72.205
5.89 97.618 74.150
5.90 94.027 74.280
5.91 91.718 72.921
5.92 88.980 70.344
5.93 --undefined-- 66.425
5.94 --undefined-- 61.069
5.95 --undefined-- 54.365
5.96 --undefined-- 47.253
5.97 --undefined-- 40.787
5.98 --undefined-- 37.459
5.99 --undefined-- 36.323
6.00 --undefined-- 35.279
6.01 --undefined-- 36.535
6.02 --undefined-- 43.667
6.03 --undefined-- --undefined--
6.04 89.557 --undefined--
6.05 --undefined-- --undefined--
6.06 --undefined-- --undefined--
