Time Pitch Intensity
0.01 --undefined-- --undefined--
0.02 162.918 --undefined--
0.03 161.297 --undefined--
0.04 156.772 --undefined--
0.05 155.195 75.873
0.06 157.111 75.081
0.07 159.405 74.025
0.08 159.623 71.296
0.09 153.492 66.018
0.10 --undefined-- 57.688
0.11 --undefined-- 49.718
0.12 --undefined-- 48.707
0.13 --undefined-- 48.536
0.14 --undefined-- 56.967
0.15 --undefined-- 66.156
0.16 --undefined-- 71.563
0.17 155.651 73.890
0.18 144.373 74.089
0.19 138.765 73.506
0.20 135.220 73.271
0.21 136.314 73.117
0.22 135.097 72.084
0.23 131.454 69.611
0.24 119.824 65.370
0.25 --undefined-- 59.577
0.26 --undefined-- 52.674
0.27 --undefined-- 48.060
0.28 --undefined-- 50.595
0.29 --undefined-- 59.410
0.30 201.659 66.580
0.31 183.449 70.511
0.32 181.832 72.211
0.33 182.712 72.842
0.34 184.408 73.158
0.35 186.492 73.382
0.36 188.543 73.699
0.37 190.027 74.069
0.38 190.917 74.012
0.39 190.850 73.058
0.40 188.216 71.094
0.41 181.671 67.936
0.42 179.215 63.094
0.43 181.164 56.328
0.44 --undefined-- 50.587
0.45 --undefined-- 48.729
0.46 --undefined-- 47.566
0.47 --undefined-- 47.070
0.48 --undefined-- 48.907
0.49 --undefined-- 58.052
0.50 --undefined-- 66.692
0.51 --undefined-- 71.622
0.52 145.627 73.621
0.53 139.390 73.800
0.54 139.174 73.313
0.55 141.842 72.828
0.56 140.900 71.768
0.57 135.190 69.152
0.58 128.777 64.146
0.59 --undefined-- 56.483
0.60 --undefined-- 49.289
0.61 --undefined-- 56.325
0.62 --undefined-- 65.159
0.63 --undefined-- 70.389
0.64 --undefined-- 72.606
0.65 118.932 72.941
0.66 116.018 72.067
0.67 114.123 69.293
0.68 103.349 63.986
0.69 86.681 56.712
0.70 --undefined-- 50.623
0.71 --undefined-- 50.111
0.72 --undefined-- 52.064
0.73 --undefined-- 52.862
0.74 --undefined-- 51.630
0.75 --undefined-- 49.001
0.76 --undefined-- 46.436
0.77 --undefined-- 45.449
0.78 --undefined-- 52.900
0.79 --undefined-- 63.363
0.80 --undefined-- 69.877
0.81 173.173 73.330
0.82 168.095 75.190
0.83 168.670 76.585
0.84 167.807 77.715
0.85 165.358 78.565
0.86 163.342 79.127
0.87 162.971 79.297
0.88 164.158 79.005
0.89 166.502 78.406
0.90 169.201 77.773
0.91 171.015 77.253
0.92 171.314 76.726
0.93 170.224 75.692
0.94 168.263 73.888
0.95 170.480 72.043
0.96 171.122 70.443
0.97 167.987 68.489
0.98 165.838 65.844
0.99 --undefined-- 62.556
1.00 95.659 58.802
1.01 98.286 54.492
1.02 --undefined-- 49.017
1.03 --undefined-- 43.261
1.04 --undefined-- 39.435
1.05 --undefined-- 36.451
1.06 --undefined-- 35.394
1.07 --undefined-- 34.707
1.08 --undefined-- 35.042
1.09 --undefined-- 36.040
1.10 --undefined-- 37.062
1.11 --undefined-- 38.160
1.12 --undefined-- 38.597
1.13 --undefined-- 38.746
1.14 --undefined-- 39.573
1.15 --undefined-- 39.474
1.16 --undefined-- 38.787
1.17 --undefined-- 39.791
1.18 --undefined-- 41.254
1.19 --undefined-- 43.486
1.20 --undefined-- 49.811
1.21 --undefined-- 56.157
1.22 --undefined-- 59.464
1.23 --undefined-- 61.412
1.24 139.536 64.987
1.25 140.076 68.352
1.26 146.333 70.489
1.27 150.452 72.336
1.28 148.613 74.065
1.29 144.355 75.083
1.30 141.819 75.394
1.31 142.530 74.931
1.32 141.463 73.026
1.33 140.785 68.918
1.34 --undefined-- 62.051
1.35 --undefined-- 56.939
1.36 --undefined-- 60.514
1.37 --undefined-- 62.557
1.38 --undefined-- 61.346
1.39 --undefined-- 57.132
1.40 --undefined-- 50.500
1.41 --undefined-- 44.755
1.42 --undefined-- 42.281
1.43 --undefined-- 40.218
1.44 --undefined-- 40.464
1.45 --undefined-- 41.662
1.46 --undefined-- 43.780
1.47 --undefined-- 53.942
1.48 --undefined-- 63.202
1.49 --undefined-- 68.516
1.50 170.239 71.063
1.51 168.118 72.188
1.52 167.598 72.855
1.53 167.374 73.341
1.54 168.061 73.838
1.55 169.519 74.648
1.56 168.024 75.416
1.57 166.542 75.041
1.58 162.619 73.290
1.59 164.689 71.589
1.60 163.981 71.050
1.61 162.170 70.879
1.62 158.543 70.830
1.63 155.349 70.961
1.64 152.029 71.295
1.65 147.939 72.025
1.66 150.236 73.188
1.67 136.002 73.899
1.68 128.018 73.567
1.69 124.215 72.900
1.70 121.666 72.717
1.71 119.688 72.815
1.72 119.556 73.043
1.73 119.332 73.486
1.74 118.093 73.922
1.75 116.219 73.829
1.76 114.458 72.893
1.77 113.621 71.441
1.78 113.864 70.521
1.79 110.648 70.821
1.80 113.881 71.425
1.81 112.600 71.568
1.82 111.244 71.349
1.83 113.321 70.844
1.84 114.764 69.885
1.85 109.013 68.293
1.86 103.958 65.776
1.87 89.004 61.831
1.88 88.229 57.108
1.89 --undefined-- 54.155
1.90 --undefined-- 53.771
1.91 --undefined-- 53.490
1.92 --undefined-- 52.392
1.93 --undefined-- 51.737
1.94 --undefined-- 54.907
1.95 --undefined-- 60.387
1.96 104.791 64.242
1.97 103.794 66.507
1.98 102.848 67.760
1.99 102.508 68.550
2.00 104.723 69.586
2.01 108.010 70.696
2.02 115.053 71.956
2.03 119.161 73.304
2.04 120.977 73.865
2.05 123.913 73.526
2.06 129.711 72.872
2.07 140.199 72.459
2.08 142.744 71.871
2.09 147.342 70.383
2.10 141.073 67.622
2.11 133.501 63.291
2.12 137.158 59.384
2.13 142.492 62.498
2.14 143.936 67.956
2.15 141.006 71.770
2.16 135.230 74.064
2.17 131.149 75.235
2.18 124.672 75.672
2.19 121.381 75.467
2.20 118.562 74.143
2.21 115.156 71.328
2.22 113.705 67.574
2.23 103.138 63.670
2.24 82.426 58.982
2.25 76.961 54.281
2.26 --undefined-- 52.962
2.27 --undefined-- 54.234
2.28 --undefined-- 56.847
2.29 97.700 59.903
2.30 99.192 62.486
2.31 101.829 64.879
2.32 101.548 67.121
2.33 102.033 68.739
2.34 104.060 69.731
2.35 105.838 70.337
2.36 106.598 70.462
2.37 107.988 70.391
2.38 110.509 70.492
2.39 114.884 70.839
2.40 120.158 71.430
2.41 128.002 72.037
2.42 137.941 72.847
2.43 143.245 73.793
2.44 142.543 74.272
2.45 146.941 74.399
2.46 150.458 74.321
2.47 148.599 73.972
2.48 144.967 73.655
2.49 142.367 73.813
2.50 141.251 74.301
2.51 137.204 74.137
2.52 131.201 73.567
2.53 130.377 73.893
2.54 131.054 74.542
2.55 128.117 74.316
2.56 127.191 73.604
2.57 126.360 73.193
2.58 125.170 72.899
2.59 123.325 72.558
2.60 122.186 72.268
2.61 123.322 71.855
2.62 124.300 70.857
2.63 124.630 68.866
2.64 119.549 65.529
2.65 120.269 60.750
2.66 --undefined-- 55.128
2.67 --undefined-- 51.429
2.68 --undefined-- 51.362
2.69 --undefined-- 50.561
2.70 --undefined-- 47.756
2.71 --undefined-- 47.115
2.72 --undefined-- 51.950
2.73 --undefined-- 57.889
2.74 --undefined-- 65.515
2.75 --undefined-- 71.131
2.76 140.866 74.130
2.77 136.573 75.303
2.78 130.337 75.609
2.79 126.654 75.687
2.80 123.883 75.196
2.81 122.283 73.588
2.82 123.180 71.203
2.83 122.086 69.122
2.84 120.179 68.279
2.85 119.990 69.309
2.86 122.281 71.646
2.87 124.921 73.767
2.88 122.404 74.826
2.89 120.257 75.024
2.90 118.686 74.617
2.91 116.713 73.676
2.92 115.128 72.344
2.93 113.557 70.889
2.94 111.293 69.966
2.95 112.241 69.964
2.96 111.989 70.235
2.97 112.092 70.341
2.98 116.786 70.488
2.99 118.584 70.756
3.00 118.549 70.808
3.01 117.828 70.211
3.02 116.213 68.109
3.03 101.267 63.707
3.04 --undefined-- 57.425
3.05 --undefined-- 51.345
3.06 --undefined-- 46.837
3.07 --undefined-- 43.877
3.08 --undefined-- 47.755
3.09 --undefined-- 58.783
3.10 --undefined-- 66.489
3.11 --undefined-- 70.721
3.12 119.604 72.638
3.13 117.385 73.644
3.14 116.055 74.334
3.15 115.506 74.547
3.16 116.472 74.496
3.17 117.861 74.521
3.18 119.319 74.837
3.19 119.367 75.508
3.20 118.945 76.155
3.21 118.457 76.054
3.22 119.143 74.984
3.23 120.415 73.674
3.24 120.975 72.870
3.25 121.228 72.202
3.26 122.147 71.236
3.27 121.994 70.066
3.28 118.668 68.965
3.29 --undefined-- 67.495
3.30 --undefined-- 64.849
3.31 --undefined-- 61.185
3.32 --undefined-- 56.625
3.33 --undefined-- 50.908
3.34 --undefined-- 46.136
3.35 --undefined-- 43.611
3.36 --undefined-- 42.299
3.37 --undefined-- 42.341
3.38 --undefined-- 43.030
3.39 --undefined-- 43.204
3.40 --undefined-- 41.867
3.41 --undefined-- 39.334
3.42 --undefined-- 38.112
3.43 --undefined-- 39.066
3.44 --undefined-- 39.680
3.45 --undefined-- 38.328
3.46 --undefined-- 35.979
3.47 --undefined-- 35.168
3.48 --undefined-- 35.646
3.49 --undefined-- 35.722
3.50 --undefined-- 35.381
3.51 --undefined-- 36.878
3.52 --undefined-- 38.880
3.53 --undefined-- 40.658
3.54 --undefined-- 41.092
3.55 --undefined-- 39.634
3.56 --undefined-- 38.136
3.57 --undefined-- 37.643
3.58 --undefined-- 36.980
3.59 --undefined-- 37.194
3.60 --undefined-- 40.094
3.61 --undefined-- 53.078
3.62 --undefined-- 64.480
3.63 --undefined-- 71.717
3.64 149.793 75.795
3.65 152.166 77.395
3.66 153.496 77.149
3.67 153.715 76.271
3.68 152.167 75.914
3.69 150.219 75.744
3.70 146.721 75.449
3.71 143.111 75.362
3.72 142.106 75.545
3.73 141.450 75.723
3.74 140.340 75.712
3.75 139.506 75.257
3.76 132.531 74.575
3.77 124.632 73.911
3.78 120.230 73.149
3.79 116.222 72.542
3.80 113.176 71.732
3.81 108.317 70.499
3.82 105.223 69.522
3.83 105.138 69.174
3.84 103.246 68.833
3.85 102.301 68.217
3.86 103.241 67.516
3.87 104.296 67.309
3.88 108.649 68.278
3.89 110.212 69.577
3.90 109.355 70.294
3.91 109.184 70.432
3.92 108.505 70.106
3.93 108.065 69.608
3.94 110.572 69.408
3.95 112.918 69.508
3.96 114.444 70.115
3.97 123.172 71.378
3.98 128.410 72.568
3.99 136.174 73.515
4.00 144.296 74.222
4.01 151.500 74.412
4.02 158.158 73.990
4.03 159.978 72.832
4.04 156.504 70.449
4.05 155.046 65.930
4.06 --undefined-- 60.103
4.07 --undefined-- 59.662
4.08 --undefined-- 60.337
4.09 --undefined-- 58.972
4.10 --undefined-- 57.003
4.11 --undefined-- 61.198
4.12 200.918 68.415
4.13 197.110 72.994
4.14 192.259 75.468
4.15 189.722 76.417
4.16 187.037 76.161
4.17 184.419 75.136
4.18 180.937 73.998
4.19 177.076 72.546
4.20 166.876 70.113
4.21 --undefined-- 66.726
4.22 --undefined-- 62.223
4.23 --undefined-- 55.612
4.24 --undefined-- 47.763
4.25 --undefined-- 43.682
4.26 --undefined-- 41.603
4.27 --undefined-- 40.994
4.28 --undefined-- 40.513
4.29 --undefined-- 39.190
4.30 --undefined-- 38.195
4.31 --undefined-- 36.535
4.32 --undefined-- 33.323
4.33 --undefined-- 32.414
4.34 --undefined-- 34.258
4.35 --undefined-- 35.665
4.36 --undefined-- 36.027
4.37 --undefined-- 37.847
4.38 --undefined-- 41.009
4.39 --undefined-- 42.439
4.40 --undefined-- 42.351
4.41 --undefined-- 45.249
4.42 --undefined-- 48.841
4.43 --undefined-- 51.089
4.44 --undefined-- 52.135
4.45 --undefined-- 52.252
4.46 --undefined-- 52.284
4.47 --undefined-- 52.816
4.48 --undefined-- 54.417
4.49 --undefined-- 59.192
4.50 --undefined-- 64.417
4.51 128.359 67.453
4.52 119.313 68.738
4.53 117.691 68.949
4.54 115.535 68.885
4.55 113.434 69.440
4.56 112.955 69.945
4.57 111.523 70.033
4.58 111.213 69.995
4.59 111.290 69.877
4.60 112.006 69.733
4.61 112.735 69.576
4.62 112.473 69.504
4.63 111.877 69.652
4.64 112.612 70.048
4.65 113.195 70.185
4.66 111.771 69.790
4.67 110.072 69.584
4.68 108.369 69.659
4.69 107.813 69.724
4.70 109.618 70.182
4.71 111.903 71.164
4.72 114.123 72.308
4.73 117.043 73.358
4.74 119.925 73.981
4.75 122.081 73.754
4.76 127.911 73.136
4.77 132.040 72.989
4.78 133.337 72.204
4.79 133.107 69.616
4.80 131.652 65.278
4.81 --undefined-- 59.253
4.82 --undefined-- 53.470
4.83 --undefined-- 51.197
4.84 --undefined-- 51.123
4.85 --undefined-- 52.307
4.86 --undefined-- 53.473
4.87 --undefined-- 58.310
4.88 --undefined-- 65.860
4.89 --undefined-- 70.615
4.90 --undefined-- 72.073
4.91 --undefined-- 71.896
4.92 --undefined-- 72.171
4.93 --undefined-- 72.543
4.94 127.328 72.414
4.95 128.720 72.564
4.96 129.659 73.198
4.97 129.474 73.488
4.98 130.160 72.912
4.99 130.010 70.976
5.00 125.464 67.244
5.01 118.946 62.345
5.02 119.480 58.520
5.03 127.899 55.373
5.04 --undefined-- 52.267
5.05 --undefined-- 55.588
5.06 --undefined-- 60.946
5.07 179.561 66.434
5.08 159.932 70.898
5.09 150.605 73.321
5.10 145.933 74.383
5.11 142.948 74.821
5.12 140.753 74.984
5.13 141.317 74.904
5.14 142.493 74.487
5.15 144.846 73.797
5.16 148.376 73.470
5.17 151.050 73.972
5.18 150.389 74.571
5.19 148.600 74.312
5.20 145.718 73.221
5.21 141.616 72.218
5.22 140.404 71.743
5.23 137.584 71.407
5.24 132.293 70.968
5.25 127.643 70.660
5.26 124.036 71.213
5.27 116.187 72.024
5.28 111.695 71.570
5.29 108.412 69.853
5.30 103.303 68.002
5.31 101.710 65.822
5.32 91.939 62.453
5.33 95.509 57.925
5.34 --undefined-- 53.113
5.35 --undefined-- 47.915
5.36 --undefined-- 42.813
5.37 --undefined-- 41.344
5.38 --undefined-- 43.198
5.39 --undefined-- 46.483
5.40 --undefined-- 51.041
5.41 --undefined-- 59.921
5.42 170.952 67.345
5.43 161.338 72.076
5.44 157.116 74.846
5.45 154.810 76.426
5.46 153.197 77.087
5.47 153.812 77.022
5.48 154.598 76.336
5.49 155.438 74.998
5.50 154.527 72.442
5.51 --undefined-- 68.248
5.52 --undefined-- 63.262
5.53 --undefined-- 57.936
5.54 --undefined-- 51.078
5.55 --undefined-- 45.710
5.56 --undefined-- 43.547
5.57 --undefined-- 41.534
5.58 --undefined-- 41.357
5.59 --undefined-- 41.399
5.60 --undefined-- 40.634
5.61 --undefined-- 39.912
5.62 --undefined-- 39.170
5.63 --undefined-- 37.175
5.64 --undefined-- 35.981
5.65 --undefined-- 35.917
5.66 --undefined-- 35.702
5.67 --undefined-- 36.811
5.68 --undefined-- 37.814
5.69 --undefined-- 38.150
5.70 --undefined-- 38.461
5.71 --undefined-- 39.441
5.72 --undefined-- 38.980
5.73 --undefined-- 36.521
5.74 --undefined-- 35.499
5.75 --undefined-- 35.207
5.76 --undefined-- 34.796
5.77 --undefined-- 35.483
5.78 --undefined-- 36.000
5.79 --undefined-- 36.644
5.80 --undefined-- 37.398
5.81 --undefined-- 37.940
5.82 --undefined-- 38.422
5.83 --undefined-- 38.930
5.84 --undefined-- 39.165
5.85 --undefined-- 39.251
5.86 --undefined-- 39.138
5.87 --undefined-- 39.292
5.88 --undefined-- 39.246
5.89 --undefined-- 39.075
5.90 --undefined-- 39.688
5.91 --undefined-- 39.867
5.92 --undefined-- 38.804
5.93 --undefined-- 37.058
5.94 --undefined-- 37.386
5.95 --undefined-- 38.276
5.96 --undefined-- 37.849
5.97 --undefined-- 36.949
5.98 --undefined-- 36.938
5.99 --undefined-- 36.905
6.00 --undefined-- 37.469
6.01 --undefined-- 38.768
6.02 --undefined-- 38.866
6.03 --undefined-- 38.310
6.04 --undefined-- 39.238
6.05 --undefined-- 40.207
6.06 --undefined-- 39.474
6.07 --undefined-- 38.449
6.08 --undefined-- 39.087
6.09 --undefined-- 39.647
6.10 --undefined-- 39.935
6.11 --undefined-- 39.012
6.12 --undefined-- 36.626
6.13 --undefined-- 36.180
6.14 --undefined-- 37.537
6.15 --undefined-- 38.176
6.16 --undefined-- 39.332
6.17 --undefined-- 48.533
6.18 --undefined-- 56.943
6.19 127.894 61.825
6.20 129.134 64.729
6.21 119.316 66.878
6.22 113.294 --undefined--
6.23 113.797 --undefined--
6.24 --undefined-- --undefined--
6.25 --undefined-- --undefined--
