Time Pitch Intensity
0.01 --undefined-- --undefined--
0.02 148.694 --undefined--
0.03 147.535 --undefined--
0.04 --undefined-- --undefined--
0.05 --undefined-- 57.855
0.06 --undefined-- 57.440
0.07 --undefined-- 56.536
0.08 --undefined-- 55.432
0.09 --undefined-- 54.662
0.10 --undefined-- 54.235
0.11 --undefined-- 54.695
0.12 --undefined-- 55.291
0.13 --undefined-- 55.453
0.14 --undefined-- 56.674
0.15 --undefined-- 60.802
0.16 --undefined-- 67.903
0.17 --undefined-- 73.047
0.18 136.015 75.225
0.19 128.535 75.348
0.20 117.503 74.490
0.21 108.275 73.714
0.22 107.285 73.445
0.23 104.995 73.185
0.24 106.300 72.967
0.25 107.515 73.014
0.26 107.772 73.156
0.27 108.262 73.290
0.28 109.607 73.439
0.29 110.678 73.638
0.30 111.537 73.817
0.31 112.280 73.931
0.32 112.392 74.027
0.33 112.690 74.137
0.34 113.515 74.229
0.35 114.479 74.247
0.36 116.126 74.189
0.37 117.351 74.036
0.38 119.887 73.643
0.39 121.522 72.776
0.40 122.029 71.273
0.41 121.685 68.911
0.42 120.038 65.425
0.43 116.464 60.990
0.44 115.519 57.175
0.45 119.880 55.569
0.46 118.683 56.810
0.47 --undefined-- 64.910
0.48 --undefined-- 70.805
0.49 --undefined-- 73.874
0.50 206.369 75.897
0.51 199.005 77.028
0.52 197.762 77.093
0.53 195.560 76.719
0.54 192.281 76.291
0.55 188.198 75.595
0.56 183.438 74.340
0.57 181.592 73.199
0.58 187.825 73.568
0.59 192.300 74.503
0.60 194.935 74.959
0.61 196.674 75.085
0.62 197.414 75.202
0.63 196.785 75.363
0.64 195.257 75.458
0.65 193.026 75.339
0.66 189.638 74.639
0.67 182.905 72.998
0.68 176.333 70.347
0.69 170.897 67.653
0.70 161.711 67.510
0.71 162.474 69.878
0.72 168.539 72.900
0.73 163.977 75.169
0.74 160.996 76.121
0.75 155.099 76.054
0.76 145.800 75.630
0.77 139.502 75.595
0.78 135.246 75.954
0.79 132.212 76.073
0.80 130.355 75.279
0.81 126.915 72.927
0.82 --undefined-- 68.498
0.83 --undefined-- 62.357
0.84 132.300 58.864
0.85 133.082 57.598
0.86 129.037 54.725
0.87 129.505 51.516
0.88 138.640 49.934
0.89 --undefined-- 49.312
0.90 139.843 50.813
0.91 135.961 52.931
0.92 135.912 54.458
0.93 138.499 55.119
0.94 138.667 55.675
0.95 --undefined-- 59.956
0.96 --undefined-- 64.522
0.97 112.213 66.999
0.98 110.517 68.395
0.99 110.295 69.716
1.00 109.673 70.957
1.01 110.753 71.977
1.02 112.499 72.827
1.03 114.246 73.535
1.04 116.573 74.178
1.05 120.133 74.829
1.06 125.098 75.554
1.07 132.907 76.327
1.08 139.436 77.031
1.09 145.979 77.367
1.10 154.380 76.828
1.11 167.612 75.647
1.12 177.670 74.479
1.13 184.458 72.798
1.14 180.516 70.056
1.15 167.253 67.014
1.16 173.858 64.500
1.17 179.335 61.996
1.18 178.809 59.370
1.19 172.447 61.877
1.20 206.188 68.834
1.21 199.927 73.378
1.22 195.448 75.578
1.23 193.446 76.417
1.24 191.106 76.773
1.25 190.264 77.075
1.26 189.547 77.252
1.27 188.234 77.275
1.28 187.286 77.201
1.29 185.939 77.051
1.30 185.600 76.930
1.31 185.465 76.984
1.32 185.047 77.146
1.33 183.361 77.131
1.34 181.564 76.757
1.35 178.085 75.964
1.36 173.983 75.340
1.37 177.775 75.646
1.38 181.087 76.139
1.39 179.765 76.312
1.40 176.771 76.564
1.41 173.941 76.930
1.42 171.571 77.158
1.43 169.931 77.169
1.44 167.507 76.849
1.45 162.828 75.831
1.46 160.821 73.460
1.47 165.533 69.261
1.48 164.630 64.048
1.49 165.450 59.574
1.50 168.778 56.472
1.51 169.479 55.422
1.52 --undefined-- 59.687
1.53 --undefined-- 67.275
1.54 159.845 72.376
1.55 153.957 74.655
1.56 140.512 75.332
1.57 133.948 75.726
1.58 128.409 76.061
1.59 124.423 76.015
1.60 124.061 75.631
1.61 125.104 75.303
1.62 125.563 75.334
1.63 125.577 75.674
1.64 124.736 76.053
1.65 123.291 76.326
1.66 123.034 76.430
1.67 123.198 76.313
1.68 123.445 76.178
1.69 121.860 75.754
1.70 122.737 74.612
1.71 124.962 73.359
1.72 124.829 72.211
1.73 124.825 71.225
1.74 126.179 71.120
1.75 127.369 71.797
1.76 129.876 73.050
1.77 134.824 74.689
1.78 136.564 76.078
1.79 138.468 76.714
1.80 140.372 76.641
1.81 142.010 76.237
1.82 142.430 75.923
1.83 142.721 75.877
1.84 142.737 75.895
1.85 142.282 75.840
1.86 141.777 75.721
1.87 140.660 75.548
1.88 139.484 75.293
1.89 137.733 74.471
1.90 133.555 72.292
1.91 123.092 68.487
1.92 131.149 63.531
1.93 135.891 57.856
1.94 134.423 54.743
1.95 --undefined-- 56.239
1.96 --undefined-- 57.904
1.97 --undefined-- 59.693
1.98 --undefined-- 60.625
1.99 --undefined-- 61.962
2.00 --undefined-- 68.199
2.01 146.161 73.234
2.02 131.971 75.460
2.03 126.896 75.969
2.04 107.923 75.672
2.05 102.854 75.431
2.06 99.493 75.949
2.07 102.253 76.558
2.08 106.097 76.779
2.09 108.702 76.597
2.10 113.473 76.137
2.11 119.783 76.290
2.12 127.619 76.977
2.13 133.780 76.792
2.14 144.110 76.143
2.15 155.109 76.429
2.16 168.367 76.996
2.17 179.126 76.734
2.18 186.575 75.635
2.19 188.164 74.716
2.20 185.037 73.963
2.21 177.959 71.938
2.22 167.108 68.065
2.23 177.296 62.725
2.24 186.354 57.400
2.25 183.830 55.755
2.26 181.931 55.121
2.27 --undefined-- 54.168
2.28 --undefined-- 54.486
2.29 --undefined-- 55.206
2.30 --undefined-- 55.436
2.31 --undefined-- 55.323
2.32 --undefined-- 54.704
2.33 --undefined-- 53.080
2.34 --undefined-- 51.471
2.35 --undefined-- 53.918
2.36 --undefined-- 61.454
2.37 --undefined-- 67.155
2.38 126.260 70.417
2.39 125.074 72.144
2.40 122.420 73.035
2.41 122.081 73.564
2.42 122.882 74.045
2.43 125.751 74.510
2.44 130.192 74.957
2.45 135.384 75.546
2.46 139.725 76.288
2.47 147.542 76.745
2.48 155.742 76.673
2.49 165.086 76.120
2.50 175.479 74.841
2.51 185.365 72.331
2.52 186.383 68.481
2.53 165.100 64.082
2.54 173.139 59.942
2.55 165.608 56.502
2.56 161.725 55.070
2.57 161.995 55.466
2.58 160.331 55.027
2.59 --undefined-- 52.816
2.60 --undefined-- 51.323
2.61 126.790 52.393
2.62 121.167 53.618
2.63 119.615 55.361
2.64 --undefined-- 59.771
2.65 --undefined-- 64.624
2.66 --undefined-- 69.561
2.67 146.551 73.109
2.68 137.589 74.324
2.69 131.426 73.327
2.70 --undefined-- 70.236
2.71 --undefined-- 65.031
2.72 --undefined-- 58.726
2.73 --undefined-- 55.046
2.74 --undefined-- 52.816
2.75 --undefined-- 50.016
2.76 --undefined-- 47.117
2.77 --undefined-- 47.012
2.78 --undefined-- 49.767
2.79 --undefined-- 51.017
2.80 --undefined-- 49.799
2.81 --undefined-- 46.423
2.82 --undefined-- 43.294
2.83 --undefined-- 44.514
2.84 --undefined-- 49.495
2.85 --undefined-- 58.774
2.86 --undefined-- 67.384
2.87 178.243 72.851
2.88 174.510 75.528
2.89 173.822 76.354
2.90 173.600 76.364
2.91 172.753 76.209
2.92 171.446 75.925
2.93 170.299 75.116
2.94 166.969 74.401
2.95 171.566 74.869
2.96 174.151 75.454
2.97 174.518 75.676
2.98 172.398 75.930
2.99 169.823 76.161
3.00 166.220 75.898
3.01 160.904 74.620
3.02 154.273 72.022
3.03 149.905 68.325
3.04 160.249 64.923
3.05 --undefined-- 63.976
3.06 --undefined-- 65.080
3.07 --undefined-- 69.314
3.08 152.565 73.649
3.09 149.433 75.343
3.10 130.320 75.428
3.11 122.285 75.347
3.12 113.868 74.907
3.13 112.745 74.629
3.14 115.574 74.681
3.15 117.427 74.281
3.16 119.956 73.802
3.17 124.163 73.603
3.18 127.420 73.503
3.19 129.548 73.315
3.20 130.166 72.670
3.21 127.277 70.795
3.22 126.934 67.544
3.23 134.968 63.714
3.24 143.931 59.672
3.25 --undefined-- 57.106
3.26 --undefined-- 59.118
3.27 --undefined-- 66.292
3.28 --undefined-- 72.232
3.29 160.149 75.120
3.30 157.566 75.751
3.31 156.509 75.209
3.32 156.856 74.333
3.33 156.784 73.350
3.34 153.041 71.674
3.35 150.282 68.340
3.36 157.619 62.776
3.37 153.203 57.187
3.38 155.649 55.726
3.39 153.924 55.403
3.40 103.612 54.321
3.41 105.714 52.746
3.42 105.709 50.710
3.43 --undefined-- 48.273
3.44 --undefined-- 46.850
3.45 --undefined-- 48.613
3.46 --undefined-- 50.448
3.47 --undefined-- 50.107
3.48 --undefined-- 48.305
3.49 --undefined-- 46.879
3.50 --undefined-- 47.217
3.51 --undefined-- 49.721
3.52 --undefined-- 56.979
3.53 166.703 62.783
3.54 163.455 65.447
3.55 158.425 65.739
3.56 154.933 65.238
3.57 153.685 66.016
3.58 157.571 67.877
3.59 158.738 69.870
3.60 162.043 71.638
3.61 167.176 72.901
3.62 168.512 73.644
3.63 168.944 74.003
3.64 169.060 74.173
3.65 169.691 74.241
3.66 169.660 74.209
3.67 169.539 74.120
3.68 169.595 73.928
3.69 169.141 73.491
3.70 167.997 72.881
3.71 167.473 72.538
3.72 166.321 72.821
3.73 165.694 73.103
3.74 164.147 72.988
3.75 160.515 72.148
3.76 154.415 70.045
3.77 152.050 66.567
3.78 159.046 62.316
3.79 157.606 59.667
3.80 155.163 59.442
3.81 155.645 58.981
3.82 --undefined-- 58.223
3.83 --undefined-- 57.941
3.84 --undefined-- 57.802
3.85 --undefined-- 57.264
3.86 --undefined-- 57.583
3.87 --undefined-- 63.215
3.88 --undefined-- 69.163
3.89 169.119 72.607
3.90 167.028 74.509
3.91 165.611 76.022
3.92 164.562 77.162
3.93 162.206 77.380
3.94 157.113 76.560
3.95 151.297 75.544
3.96 151.300 75.585
3.97 149.788 75.927
3.98 141.318 75.841
3.99 134.116 75.754
4.00 126.285 75.847
4.01 114.581 75.653
4.02 106.080 75.023
4.03 99.481 74.654
4.04 100.851 74.614
4.05 100.771 73.885
4.06 105.639 72.414
4.07 106.413 71.233
4.08 107.264 70.965
4.09 104.301 71.121
4.10 100.447 70.915
4.11 95.471 70.459
4.12 100.786 70.871
4.13 102.832 71.613
4.14 102.315 71.860
4.15 104.716 71.818
4.16 105.900 71.593
4.17 105.926 71.037
4.18 105.335 69.844
4.19 101.521 67.555
4.20 93.839 63.702
4.21 --undefined-- 58.183
4.22 --undefined-- 51.895
4.23 --undefined-- 47.934
4.24 --undefined-- 48.836
4.25 --undefined-- 54.190
4.26 --undefined-- 60.631
4.27 --undefined-- 67.521
4.28 142.007 72.681
4.29 137.013 75.328
4.30 133.309 76.218
4.31 132.267 76.556
4.32 131.957 76.851
4.33 131.121 76.983
4.34 129.820 76.929
4.35 128.649 76.677
4.36 128.258 76.100
4.37 127.417 74.944
4.38 125.734 72.834
4.39 121.373 69.279
4.40 125.877 64.195
4.41 125.801 58.212
4.42 125.172 53.774
4.43 125.966 50.741
4.44 126.167 49.189
4.45 --undefined-- 50.673
4.46 --undefined-- 56.402
4.47 --undefined-- 63.322
4.48 144.759 68.924
4.49 149.957 72.317
4.50 150.423 73.917
4.51 149.559 74.805
4.52 154.853 75.675
4.53 151.597 76.201
4.54 151.539 76.439
4.55 150.955 76.649
4.56 149.362 76.496
4.57 147.787 75.537
4.58 145.609 73.563
4.59 130.064 71.014
4.60 123.483 68.202
4.61 120.598 64.691
4.62 150.406 60.503
4.63 151.361 57.370
4.64 149.246 56.029
4.65 --undefined-- 55.414
4.66 --undefined-- 56.549
4.67 --undefined-- 58.685
4.68 --undefined-- 59.265
4.69 --undefined-- 58.402
4.70 --undefined-- 57.512
4.71 --undefined-- 56.817
4.72 --undefined-- 56.149
4.73 --undefined-- 56.080
4.74 --undefined-- 56.526
4.75 --undefined-- 56.749
4.76 --undefined-- 56.524
4.77 --undefined-- 56.197
4.78 --undefined-- 56.149
4.79 --undefined-- 56.261
4.80 --undefined-- 55.672
4.81 --undefined-- 54.689
4.82 --undefined-- 55.245
4.83 --undefined-- 56.905
4.84 --undefined-- 58.160
4.85 175.733 59.249
4.86 173.889 60.420
4.87 170.160 60.668
4.88 154.504 59.024
4.89 150.416 55.055
4.90 --undefined-- 49.827
4.91 --undefined-- 47.819
4.92 --undefined-- 50.585
4.93 --undefined-- 61.048
4.94 --undefined-- --undefined--
4.95 169.617 --undefined--
4.96 --undefined-- --undefined--
4.97 --undefined-- --undefined--
