Time Pitch Intensity
0.01 --undefined-- --undefined--
0.02 96.249 --undefined--
0.03 96.104 --undefined--
0.04 96.830 --undefined--
0.05 97.647 76.138
0.06 97.697 76.274
0.07 98.901 76.500
0.08 99.726 76.739
0.09 100.910 76.910
0.10 102.066 77.053
0.11 104.322 76.879
0.12 108.721 75.709
0.13 109.457 72.943
0.14 --undefined-- 69.246
0.15 --undefined-- 66.901
0.16 --undefined-- 64.653
0.17 --undefined-- 62.102
0.18 --undefined-- 61.814
0.19 --undefined-- 62.796
0.20 --undefined-- 64.290
0.21 --undefined-- 65.504
0.22 --undefined-- 65.569
0.23 --undefined-- 65.376
0.24 --undefined-- 69.895
0.25 --undefined-- 74.668
0.26 --undefined-- 76.441
0.27 132.825 76.131
0.28 130.863 75.663
0.29 129.413 75.772
0.30 127.217 76.116
0.31 124.347 76.460
0.32 122.604 76.546
0.33 122.411 76.434
0.34 122.124 76.341
0.35 123.010 76.249
0.36 124.725 76.100
0.37 124.747 75.936
0.38 124.537 75.605
0.39 123.449 74.471
0.40 120.602 71.680
0.41 99.532 66.712
0.42 97.728 60.576
0.43 --undefined-- 55.734
0.44 --undefined-- 61.416
0.45 --undefined-- 69.857
0.46 --undefined-- 74.658
0.47 --undefined-- 76.291
0.48 106.500 75.863
0.49 100.708 75.217
0.50 100.331 74.763
0.51 100.231 73.840
0.52 100.080 73.023
0.53 102.183 73.406
0.54 108.642 74.519
0.55 114.519 75.284
0.56 118.122 75.581
0.57 123.161 75.613
0.58 129.183 75.430
0.59 133.782 75.220
0.60 137.478 75.329
0.61 137.881 75.417
0.62 135.306 74.481
0.63 129.558 72.025
0.64 130.008 68.679
0.65 149.378 68.580
0.66 --undefined-- 73.437
0.67 --undefined-- 76.360
0.68 120.071 76.740
0.69 118.560 76.262
0.70 118.419 75.767
0.71 118.154 74.944
0.72 119.271 74.165
0.73 123.611 74.033
0.74 128.160 74.349
0.75 129.827 74.650
0.76 131.304 74.790
0.77 131.875 74.930
0.78 131.839 75.155
0.79 131.965 75.262
0.80 131.179 74.962
0.81 129.347 73.987
0.82 125.196 72.211
0.83 122.651 71.784
0.84 140.790 74.625
0.85 140.151 76.482
0.86 130.494 76.707
0.87 126.858 76.695
0.88 124.303 77.076
0.89 122.219 77.497
0.90 119.946 77.468
0.91 118.197 76.700
0.92 114.239 75.616
0.93 114.449 74.962
0.94 111.810 74.469
0.95 107.979 74.100
0.96 106.019 74.268
0.97 104.245 74.675
0.98 101.851 75.005
0.99 101.458 75.457
1.00 100.965 76.050
1.01 98.779 76.514
1.02 96.807 76.670
1.03 95.555 76.392
1.04 94.269 75.358
1.05 88.550 73.504
1.06 85.758 72.960
1.07 94.401 74.288
1.08 95.589 75.296
1.09 96.275 75.621
1.10 98.047 75.870
1.11 101.074 76.260
1.12 102.448 76.304
1.13 102.019 75.542
1.14 100.364 73.814
1.15 99.633 71.036
1.16 105.996 66.895
1.17 105.722 60.947
1.18 --undefined-- 56.345
1.19 --undefined-- 58.187
1.20 --undefined-- 60.640
1.21 --undefined-- 63.374
1.22 --undefined-- 69.148
1.23 --undefined-- 74.790
1.24 --undefined-- 77.463
1.25 117.651 77.589
1.26 110.668 76.613
1.27 107.719 75.530
1.28 101.896 74.115
1.29 99.319 72.814
1.30 104.507 72.953
1.31 108.623 73.980
1.32 109.416 74.763
1.33 108.399 75.030
1.34 107.442 75.104
1.35 106.889 75.165
1.36 106.879 75.187
1.37 106.930 75.289
1.38 107.451 75.525
1.39 107.958 75.697
1.40 108.579 75.741
1.41 109.160 75.785
1.42 109.661 75.924
1.43 110.021 76.158
1.44 110.134 76.450
1.45 110.063 76.674
1.46 109.886 76.718
1.47 109.379 76.660
1.48 108.818 76.600
1.49 109.346 76.382
1.50 109.354 75.580
1.51 105.402 73.816
1.52 102.274 71.402
1.53 --undefined-- 69.230
1.54 --undefined-- 66.089
1.55 --undefined-- 63.225
1.56 --undefined-- 63.419
1.57 --undefined-- 61.494
1.58 --undefined-- 61.448
1.59 --undefined-- 67.023
1.60 --undefined-- 70.968
1.61 --undefined-- 73.451
1.62 --undefined-- 75.030
1.63 --undefined-- 75.866
1.64 --undefined-- 75.941
1.65 104.927 75.421
1.66 93.779 75.482
1.67 94.413 75.606
1.68 97.662 75.563
1.69 96.387 75.618
1.70 96.258 75.729
1.71 96.953 75.663
1.72 99.232 75.536
1.73 98.833 75.510
1.74 99.076 75.743
1.75 99.737 76.039
1.76 99.557 76.008
1.77 99.227 75.519
1.78 98.768 74.314
1.79 102.940 71.915
1.80 108.088 67.967
1.81 --undefined-- 63.100
1.82 --undefined-- 60.816
1.83 --undefined-- 61.890
1.84 --undefined-- 63.356
1.85 --undefined-- 63.655
1.86 --undefined-- 63.444
1.87 --undefined-- 64.481
1.88 --undefined-- 66.016
1.89 --undefined-- 69.051
1.90 --undefined-- 74.120
1.91 --undefined-- 76.753
1.92 148.001 76.731
1.93 145.480 75.970
1.94 144.743 75.782
1.95 143.594 75.705
1.96 142.125 75.553
1.97 141.046 75.334
1.98 139.989 75.016
1.99 138.808 74.664
2.00 137.173 74.574
2.01 136.497 75.101
2.02 136.256 75.833
2.03 135.003 76.355
2.04 133.951 76.640
2.05 132.531 76.689
2.06 129.793 76.551
2.07 126.936 76.154
2.08 123.415 75.391
2.09 120.252 74.987
2.10 118.133 75.876
2.11 117.438 77.066
2.12 115.094 77.326
2.13 110.928 76.290
2.14 105.295 73.787
2.15 92.523 69.656
2.16 117.195 64.063
2.17 118.154 58.184
2.18 --undefined-- 53.592
2.19 --undefined-- 51.812
2.20 --undefined-- 55.728
2.21 --undefined-- 62.140
2.22 --undefined-- 69.660
2.23 --undefined-- 74.197
2.24 --undefined-- 75.685
2.25 --undefined-- 75.278
2.26 103.510 74.065
2.27 100.490 72.367
2.28 97.184 70.362
2.29 96.315 68.349
2.30 96.093 67.807
2.31 95.399 69.281
2.32 94.796 71.223
2.33 95.719 72.602
2.34 96.118 73.295
2.35 96.419 73.715
2.36 95.042 73.982
2.37 95.091 73.793
2.38 89.973 73.112
2.39 92.581 73.284
2.40 99.815 74.755
2.41 100.624 75.887
2.42 99.003 76.314
2.43 99.457 76.537
2.44 99.666 76.780
2.45 100.470 76.988
2.46 100.899 77.098
2.47 102.005 76.877
2.48 102.737 75.640
2.49 101.967 72.588
2.50 104.556 67.372
2.51 --undefined-- 61.955
2.52 --undefined-- 61.539
2.53 --undefined-- 63.041
2.54 --undefined-- 65.517
2.55 --undefined-- 71.177
2.56 --undefined-- 75.437
2.57 --undefined-- 76.813
2.58 100.855 76.600
2.59 97.512 76.472
2.60 97.887 76.546
2.61 98.629 76.559
2.62 98.111 76.473
2.63 97.459 76.172
2.64 97.331 75.536
2.65 95.866 74.309
2.66 95.109 72.752
2.67 97.052 72.559
2.68 103.857 74.646
2.69 108.183 76.796
2.70 108.625 77.657
2.71 107.686 77.548
2.72 105.749 77.261
2.73 105.210 76.816
2.74 103.307 75.690
2.75 99.357 73.784
2.76 98.677 72.261
2.77 105.867 71.993
2.78 107.440 71.777
2.79 104.863 71.352
2.80 104.075 71.128
2.81 101.425 70.924
2.82 100.250 71.333
2.83 100.553 73.131
2.84 101.361 75.266
2.85 99.831 76.598
2.86 97.694 76.982
2.87 96.594 76.528
2.88 96.530 74.751
2.89 98.842 70.696
2.90 --undefined-- 63.952
2.91 --undefined-- 56.282
2.92 --undefined-- 51.259
2.93 --undefined-- 48.155
2.94 --undefined-- 45.875
2.95 --undefined-- 44.666
2.96 --undefined-- 43.623
2.97 --undefined-- 45.090
2.98 --undefined-- 58.183
2.99 --undefined-- 68.558
3.00 --undefined-- 74.547
3.01 --undefined-- 76.975
3.02 105.911 76.965
3.03 98.468 76.329
3.04 97.570 75.761
3.05 97.673 74.883
3.06 98.487 74.401
3.07 98.396 74.570
3.08 96.596 74.756
3.09 96.637 74.883
3.10 97.264 74.977
3.11 97.229 75.184
3.12 98.195 75.637
3.13 98.582 76.113
3.14 99.167 76.425
3.15 100.013 76.461
3.16 100.663 76.082
3.17 100.838 75.131
3.18 100.098 73.611
3.19 100.062 72.915
3.20 103.501 75.193
3.21 125.766 77.425
3.22 119.782 77.979
3.23 118.935 77.512
3.24 120.971 76.926
3.25 123.146 76.435
3.26 124.684 76.110
3.27 124.830 75.693
3.28 --undefined-- 74.227
3.29 --undefined-- 71.067
3.30 124.116 66.232
3.31 123.904 60.621
3.32 122.840 56.904
3.33 --undefined-- 56.741
3.34 --undefined-- 58.186
3.35 --undefined-- 58.644
3.36 --undefined-- 58.547
3.37 --undefined-- 58.043
3.38 --undefined-- 56.760
3.39 --undefined-- 54.727
3.40 --undefined-- 52.652
3.41 --undefined-- 52.030
3.42 --undefined-- 52.775
3.43 --undefined-- 53.859
3.44 --undefined-- 54.732
3.45 --undefined-- 55.655
3.46 --undefined-- 56.527
3.47 --undefined-- 56.992
3.48 --undefined-- 57.146
3.49 --undefined-- 57.377
3.50 --undefined-- 57.832
3.51 --undefined-- 58.022
3.52 --undefined-- 57.837
3.53 --undefined-- 58.205
3.54 --undefined-- 58.939
3.55 --undefined-- 59.090
3.56 --undefined-- 58.392
3.57 --undefined-- 56.979
3.58 --undefined-- 55.884
3.59 --undefined-- 55.982
3.60 --undefined-- 55.867
3.61 --undefined-- 54.760
3.62 --undefined-- 53.546
3.63 --undefined-- 52.892
3.64 --undefined-- 51.916
3.65 --undefined-- 49.729
3.66 --undefined-- 46.794
3.67 --undefined-- 48.247
3.68 --undefined-- 52.216
3.69 --undefined-- 53.430
3.70 --undefined-- 55.095
3.71 --undefined-- 64.842
3.72 259.011 71.948
3.73 229.518 75.735
3.74 227.632 77.429
3.75 231.958 78.170
3.76 238.641 78.635
3.77 244.201 78.928
3.78 248.450 79.032
3.79 253.431 79.023
3.80 257.821 78.875
3.81 262.256 78.650
3.82 263.385 78.550
3.83 260.421 78.530
3.84 256.099 78.419
3.85 251.272 78.254
3.86 246.667 78.155
3.87 243.945 77.965
3.88 241.357 77.261
3.89 235.141 75.733
3.90 224.025 73.557
3.91 216.505 71.112
3.92 --undefined-- 68.314
3.93 --undefined-- 65.451
3.94 252.740 63.196
3.95 227.657 60.457
3.96 --undefined-- 55.726
3.97 --undefined-- 51.163
3.98 --undefined-- 53.970
3.99 --undefined-- 55.638
4.00 --undefined-- 53.160
4.01 --undefined-- 46.905
4.02 --undefined-- 41.549
4.03 --undefined-- 40.583
4.04 --undefined-- 40.079
4.05 --undefined-- 38.618
4.06 --undefined-- 36.830
4.07 --undefined-- 36.426
4.08 --undefined-- 37.140
4.09 --undefined-- 39.123
4.10 --undefined-- 45.298
4.11 --undefined-- 57.139
4.12 --undefined-- 64.435
4.13 --undefined-- 67.226
4.14 --undefined-- 67.233
4.15 --undefined-- 69.661
4.16 --undefined-- 72.427
4.17 --undefined-- 72.228
4.18 --undefined-- 70.541
4.19 --undefined-- 71.443
4.20 --undefined-- 72.369
4.21 --undefined-- 71.426
4.22 --undefined-- 71.257
4.23 --undefined-- 75.172
4.24 158.008 78.311
4.25 155.017 79.190
4.26 152.829 78.872
4.27 150.310 78.343
4.28 147.043 78.104
4.29 144.144 78.167
4.30 141.522 78.363
4.31 139.027 78.398
4.32 136.810 78.203
4.33 138.891 78.378
4.34 140.856 78.822
4.35 144.548 79.097
4.36 150.753 79.033
4.37 158.634 78.660
4.38 168.634 77.787
4.39 177.883 76.548
4.40 185.720 75.772
4.41 189.323 75.270
4.42 187.321 73.693
4.43 170.988 70.975
4.44 177.104 68.793
4.45 186.418 67.020
4.46 --undefined-- 68.264
4.47 --undefined-- 73.756
4.48 189.132 77.137
4.49 182.598 77.949
4.50 167.556 77.923
4.51 159.524 78.270
4.52 151.756 78.270
4.53 138.773 77.925
4.54 132.439 77.541
4.55 129.005 77.093
4.56 128.613 76.640
4.57 130.791 76.206
4.58 131.485 76.153
4.59 132.578 76.652
4.60 133.501 77.259
4.61 133.760 77.300
4.62 133.961 76.122
4.63 131.860 73.474
4.64 134.896 69.848
4.65 140.706 65.859
4.66 133.426 60.953
4.67 133.125 56.867
4.68 134.949 57.520
4.69 --undefined-- 65.656
4.70 213.078 73.047
4.71 205.639 76.671
4.72 194.751 77.481
4.73 192.700 77.151
4.74 192.239 76.839
4.75 192.084 76.575
4.76 192.013 76.372
4.77 193.087 76.428
4.78 193.890 76.663
4.79 194.154 76.749
4.80 195.096 76.603
4.81 196.321 76.218
4.82 194.159 75.563
4.83 191.252 75.482
4.84 191.568 76.436
4.85 191.326 77.355
4.86 190.572 77.719
4.87 188.932 77.741
4.88 185.292 77.652
4.89 179.627 77.650
4.90 173.461 77.793
4.91 165.831 77.699
4.92 154.870 77.239
4.93 145.120 76.755
4.94 138.993 76.388
4.95 133.583 76.028
4.96 126.940 75.833
4.97 122.211 75.654
4.98 120.357 75.220
4.99 118.445 74.694
5.00 118.404 74.657
5.01 125.402 75.305
5.02 128.670 75.821
5.03 132.777 76.036
5.04 138.102 76.369
5.05 142.470 76.649
5.06 149.665 76.604
5.07 157.374 76.472
5.08 160.565 76.407
5.09 165.704 76.343
5.10 169.380 76.094
5.11 171.907 75.666
5.12 173.584 75.480
5.13 172.603 --undefined--
5.14 170.211 --undefined--
5.15 --undefined-- --undefined--
5.16 --undefined-- --undefined--
