Time Pitch Intensity
0.01 --undefined-- --undefined--
0.02 115.605 --undefined--
0.03 113.945 --undefined--
0.04 110.684 --undefined--
0.05 107.113 66.801
0.06 110.739 62.351
0.07 100.494 57.648
0.08 --undefined-- 53.654
0.09 --undefined-- 50.875
0.10 --undefined-- 48.173
0.11 --undefined-- 47.903
0.12 --undefined-- 58.399
0.13 --undefined-- 67.798
0.14 169.978 73.227
0.15 166.000 75.798
0.16 164.541 76.827
0.17 162.588 77.568
0.18 161.268 78.307
0.19 160.084 78.712
0.20 158.517 78.734
0.21 156.772 78.501
0.22 155.619 78.229
0.23 155.043 78.131
0.24 155.171 78.254
0.25 155.913 78.517
0.26 157.094 78.838
0.27 158.766 79.117
0.28 159.518 79.311
0.29 159.869 79.432
0.30 159.204 79.354
0.31 157.355 78.664
0.32 156.424 77.110
0.33 156.897 74.904
0.34 152.386 71.645
0.35 150.929 66.643
0.36 157.485 61.290
0.37 159.077 58.174
0.38 157.861 55.998
0.39 156.683 53.210
0.40 --undefined-- 49.790
0.41 --undefined-- 46.327
0.42 --undefined-- 43.434
0.43 --undefined-- 48.581
0.44 --undefined-- 61.963
0.45 --undefined-- 70.719
0.46 171.720 75.412
0.47 170.745 77.209
0.48 164.554 77.185
0.49 158.534 76.619
0.50 157.266 75.957
0.51 157.119 75.297
0.52 156.575 75.236
0.53 156.131 75.082
0.54 154.813 73.398
0.55 149.840 69.078
0.56 158.760 62.052
0.57 157.119 55.715
0.58 --undefined-- 52.742
0.59 --undefined-- 50.888
0.60 --undefined-- 51.520
0.61 --undefined-- 53.931
0.62 --undefined-- 55.922
0.63 --undefined-- 58.220
0.64 --undefined-- 60.491
0.65 --undefined-- 61.718
0.66 --undefined-- 61.493
0.67 --undefined-- 59.680
0.68 --undefined-- 56.102
0.69 --undefined-- 50.258
0.70 --undefined-- 48.372
0.71 --undefined-- 58.349
0.72 --undefined-- 65.229
0.73 --undefined-- 68.917
0.74 110.704 70.371
0.75 106.053 70.478
0.76 102.586 69.888
0.77 102.754 69.211
0.78 101.116 68.757
0.79 97.825 68.635
0.80 97.504 69.031
0.81 97.346 69.221
0.82 95.451 68.685
0.83 94.180 67.862
0.84 93.371 67.258
0.85 93.291 66.851
0.86 93.965 66.456
0.87 94.243 66.101
0.88 94.940 66.032
0.89 95.342 66.333
0.90 96.975 66.770
0.91 96.971 66.803
0.92 95.022 65.492
0.93 88.206 62.368
0.94 93.780 58.335
0.95 --undefined-- 54.304
0.96 --undefined-- 49.460
0.97 --undefined-- 44.227
0.98 --undefined-- 45.849
0.99 --undefined-- 52.310
1.00 --undefined-- 56.429
1.01 --undefined-- 59.020
1.02 --undefined-- 60.983
1.03 --undefined-- 62.319
1.04 --undefined-- 63.126
1.05 --undefined-- 63.456
1.06 --undefined-- 63.510
1.07 --undefined-- 65.075
1.08 116.361 67.893
1.09 116.200 69.547
1.10 104.354 70.037
1.11 102.288 70.027
1.12 101.070 69.934
1.13 100.781 70.002
1.14 100.790 70.240
1.15 103.359 70.887
1.16 109.742 72.041
1.17 111.166 73.376
1.18 115.615 74.476
1.19 119.158 75.387
1.20 124.503 76.333
1.21 129.012 77.360
1.22 134.273 78.338
1.23 137.812 79.221
1.24 141.529 79.966
1.25 143.855 80.456
1.26 146.008 80.715
1.27 148.102 80.542
1.28 151.055 79.421
1.29 154.175 76.869
1.30 151.160 72.954
1.31 152.216 69.148
1.32 152.246 66.216
1.33 153.759 63.107
1.34 152.142 59.872
1.35 150.150 57.057
1.36 153.860 55.526
1.37 --undefined-- 54.988
1.38 --undefined-- 56.545
1.39 --undefined-- 65.254
1.40 --undefined-- 72.269
1.41 --undefined-- 75.760
1.42 --undefined-- 76.529
1.43 --undefined-- 75.370
1.44 116.967 72.834
1.45 114.542 69.739
1.46 133.419 67.386
1.47 161.449 65.934
1.48 163.915 65.195
1.49 161.928 64.725
1.50 --undefined-- 63.678
1.51 --undefined-- 61.140
1.52 --undefined-- 56.175
1.53 --undefined-- 49.585
1.54 --undefined-- 45.472
1.55 --undefined-- 43.608
1.56 --undefined-- 42.097
1.57 --undefined-- 39.689
1.58 --undefined-- 37.614
1.59 --undefined-- 44.286
1.60 --undefined-- 53.503
1.61 --undefined-- 59.844
1.62 --undefined-- 63.322
1.63 --undefined-- 64.692
1.64 --undefined-- 65.272
1.65 --undefined-- 64.964
1.66 --undefined-- 64.408
1.67 --undefined-- 68.171
1.68 --undefined-- 72.150
1.69 116.684 73.643
1.70 105.588 73.376
1.71 103.951 72.754
1.72 99.340 72.145
1.73 96.922 71.263
1.74 95.540 70.303
1.75 94.864 69.449
1.76 94.535 68.602
1.77 93.939 67.416
1.78 91.591 65.912
1.79 95.493 65.544
1.80 99.258 66.919
1.81 101.293 68.624
1.82 105.425 70.114
1.83 110.014 71.453
1.84 115.811 72.546
1.85 121.458 73.191
1.86 131.151 73.749
1.87 134.734 74.774
1.88 135.946 75.861
1.89 136.847 76.623
1.90 138.114 77.029
1.91 139.503 77.292
1.92 140.350 77.592
1.93 140.807 77.775
1.94 143.904 77.941
1.95 144.478 78.202
1.96 144.238 78.137
1.97 143.696 77.006
1.98 140.291 73.817
1.99 127.132 67.796
2.00 131.808 59.531
2.01 137.364 54.977
2.02 --undefined-- 58.387
2.03 --undefined-- 61.624
2.04 --undefined-- 62.557
2.05 --undefined-- 68.306
2.06 --undefined-- 74.100
2.07 136.365 76.743
2.08 129.440 77.145
2.09 128.757 76.819
2.10 128.571 76.560
2.11 127.860 75.615
2.12 122.615 72.862
2.13 119.527 68.681
2.14 122.875 66.168
2.15 120.601 67.383
2.16 128.319 71.757
2.17 126.806 75.201
2.18 121.306 76.793
2.19 117.526 77.203
2.20 116.040 77.082
2.21 115.196 76.823
2.22 115.944 76.562
2.23 117.746 76.280
2.24 122.059 76.030
2.25 125.810 75.667
2.26 131.850 75.223
2.27 139.676 75.180
2.28 146.206 75.615
2.29 153.099 76.192
2.30 159.790 76.786
2.31 164.249 77.226
2.32 168.384 76.621
2.33 163.663 73.933
2.34 165.094 69.074
2.35 164.845 63.795
2.36 163.645 59.151
2.37 --undefined-- 56.656
2.38 --undefined-- 64.103
2.39 --undefined-- 71.830
2.40 142.369 76.176
2.41 137.862 78.105
2.42 132.182 78.836
2.43 128.551 79.050
2.44 125.585 78.870
2.45 122.209 77.915
2.46 120.460 75.272
2.47 123.096 70.378
2.48 123.758 64.579
2.49 122.324 59.354
2.50 --undefined-- 54.005
2.51 --undefined-- 50.831
2.52 --undefined-- 53.363
2.53 --undefined-- 62.228
2.54 --undefined-- 68.678
2.55 117.809 72.334
2.56 115.299 74.235
2.57 113.723 75.276
2.58 114.494 75.959
2.59 116.023 76.245
2.60 115.833 75.529
2.61 118.848 73.709
2.62 135.367 72.385
2.63 142.361 72.753
2.64 145.928 73.964
2.65 156.457 75.281
2.66 168.613 76.288
2.67 177.844 76.479
2.68 185.620 75.552
2.69 182.981 73.557
2.70 176.368 70.427
2.71 178.153 66.759
2.72 --undefined-- 64.932
2.73 --undefined-- 64.372
2.74 --undefined-- 64.734
2.75 --undefined-- 64.231
2.76 --undefined-- 61.705
2.77 --undefined-- 58.276
2.78 --undefined-- 60.418
2.79 --undefined-- 68.516
2.80 --undefined-- 73.370
2.81 141.597 75.480
2.82 136.208 76.422
2.83 133.325 77.169
2.84 131.649 77.755
2.85 129.853 78.071
2.86 127.314 77.936
2.87 124.164 77.461
2.88 122.572 77.211
2.89 122.190 76.897
2.90 121.532 75.707
2.91 118.178 73.461
2.92 113.161 70.207
2.93 105.129 65.925
2.94 105.055 62.092
2.95 --undefined-- 61.074
2.96 --undefined-- 60.968
2.97 --undefined-- 61.522
2.98 --undefined-- 62.605
2.99 --undefined-- 66.318
3.00 --undefined-- 72.166
3.01 141.174 75.932
3.02 134.934 77.693
3.03 131.167 78.331
3.04 128.261 78.122
3.05 123.572 77.253
3.06 119.781 76.392
3.07 119.552 75.729
3.08 119.194 74.914
3.09 119.085 74.010
3.10 118.496 72.947
3.11 117.514 71.774
3.12 120.144 71.168
3.13 122.509 71.163
3.14 123.148 70.998
3.15 121.751 70.139
3.16 117.575 68.176
3.17 116.508 64.781
3.18 117.820 59.914
3.19 --undefined-- 54.212
3.20 --undefined-- 52.581
3.21 --undefined-- 60.206
3.22 --undefined-- 69.003
3.23 148.606 74.375
3.24 138.645 76.995
3.25 130.212 77.901
3.26 124.258 77.631
3.27 119.059 76.747
3.28 117.115 75.937
3.29 115.769 75.095
3.30 115.020 73.867
3.31 114.574 71.750
3.32 114.740 69.557
3.33 115.613 68.889
3.34 116.563 68.783
3.35 121.246 68.697
3.36 121.283 68.249
3.37 116.957 66.468
3.38 114.587 63.448
3.39 --undefined-- 61.446
3.40 --undefined-- 62.540
3.41 --undefined-- 65.214
3.42 --undefined-- 70.090
3.43 130.833 74.022
3.44 124.400 75.819
3.45 119.950 76.200
3.46 119.493 76.064
3.47 118.355 75.756
3.48 116.275 75.370
3.49 115.065 75.118
3.50 114.449 74.967
3.51 113.013 74.467
3.52 109.463 72.986
3.53 104.397 70.236
3.54 104.165 66.818
3.55 106.390 63.492
3.56 108.561 59.891
3.57 94.471 57.687
3.58 --undefined-- 59.558
3.59 --undefined-- 62.340
3.60 --undefined-- 65.854
3.61 --undefined-- 70.052
3.62 102.077 72.612
3.63 101.354 73.236
3.64 93.411 72.829
3.65 93.499 72.428
3.66 95.587 72.358
3.67 97.061 72.647
3.68 103.140 73.277
3.69 108.977 73.926
3.70 116.441 74.278
3.71 122.419 73.939
3.72 127.501 73.029
3.73 135.907 72.673
3.74 140.756 73.211
3.75 143.254 73.726
3.76 143.710 73.945
3.77 143.308 74.231
3.78 142.169 75.219
3.79 138.868 76.773
3.80 135.161 78.096
3.81 130.995 78.863
3.82 126.161 79.238
3.83 121.735 79.014
3.84 117.167 77.699
3.85 110.019 74.966
3.86 105.118 71.049
3.87 102.616 67.061
3.88 108.588 63.829
3.89 109.253 60.421
3.90 --undefined-- 55.931
3.91 --undefined-- 52.003
3.92 --undefined-- 50.087
3.93 --undefined-- 49.004
3.94 --undefined-- 51.037
3.95 --undefined-- 58.172
3.96 111.353 64.687
3.97 110.689 69.105
3.98 110.157 71.876
3.99 110.764 73.487
4.00 110.121 74.265
4.01 109.098 74.346
4.02 107.057 73.679
4.03 104.555 72.071
4.04 100.207 69.496
4.05 95.531 66.247
4.06 93.432 63.306
4.07 94.380 60.860
4.08 103.422 57.851
4.09 --undefined-- 55.648
4.10 --undefined-- 57.836
4.11 --undefined-- 60.514
4.12 --undefined-- 63.282
4.13 --undefined-- 66.166
4.14 --undefined-- 68.965
4.15 --undefined-- 70.853
4.16 87.669 71.466
4.17 93.411 71.756
4.18 99.481 72.637
4.19 107.590 73.777
4.20 110.661 74.066
4.21 109.327 73.143
4.22 118.572 72.700
4.23 123.271 73.526
4.24 126.243 74.514
4.25 128.900 75.435
4.26 127.847 76.238
4.27 123.113 76.667
4.28 118.300 76.675
4.29 113.840 76.474
4.30 109.183 76.221
4.31 102.958 75.578
4.32 95.660 74.182
4.33 93.011 71.931
4.34 84.327 68.905
4.35 --undefined-- 65.059
4.36 --undefined-- 60.180
4.37 --undefined-- 54.326
4.38 --undefined-- 51.855
4.39 --undefined-- 52.827
4.40 --undefined-- 53.038
4.41 --undefined-- 53.128
4.42 --undefined-- 54.061
4.43 --undefined-- 54.377
4.44 --undefined-- 53.982
4.45 --undefined-- 53.829
4.46 --undefined-- 54.047
4.47 --undefined-- 54.390
4.48 --undefined-- 55.138
4.49 --undefined-- 55.741
4.50 --undefined-- 56.216
4.51 --undefined-- 56.723
4.52 --undefined-- 56.873
4.53 --undefined-- 56.889
4.54 --undefined-- 56.771
4.55 --undefined-- 56.415
4.56 --undefined-- 56.434
4.57 --undefined-- 56.861
4.58 --undefined-- 56.949
4.59 --undefined-- 56.327
4.60 --undefined-- 55.205
4.61 --undefined-- 54.763
4.62 --undefined-- 54.666
4.63 --undefined-- 54.391
4.64 --undefined-- 53.417
4.65 --undefined-- 50.680
4.66 --undefined-- 46.049
4.67 --undefined-- 41.774
4.68 --undefined-- 46.736
4.69 --undefined-- 58.852
4.70 206.554 66.754
4.71 206.223 71.193
4.72 213.520 73.390
4.73 220.496 74.524
4.74 223.731 75.233
4.75 222.953 75.380
4.76 211.169 74.848
4.77 200.010 73.828
4.78 190.985 72.457
4.79 184.930 72.280
4.80 193.132 75.778
4.81 --undefined-- 78.792
4.82 --undefined-- 79.165
4.83 --undefined-- 77.926
4.84 153.278 76.797
4.85 142.286 76.297
4.86 136.488 76.041
4.87 135.154 75.731
4.88 134.867 75.246
4.89 135.932 74.413
4.90 129.222 72.523
4.91 133.670 69.635
4.92 137.405 67.234
4.93 146.357 66.749
4.94 170.964 70.219
4.95 180.693 74.536
4.96 180.621 77.172
4.97 179.810 78.168
4.98 180.123 78.268
4.99 182.068 78.100
5.00 184.065 78.085
5.01 186.266 78.465
5.02 188.068 78.932
5.03 190.153 79.260
5.04 188.325 79.747
5.05 186.656 80.318
5.06 185.720 80.379
5.07 186.757 79.460
5.08 186.567 77.741
5.09 184.558 76.269
5.10 186.744 75.734
5.11 187.557 75.561
5.12 187.214 75.166
5.13 185.925 74.203
5.14 183.141 --undefined--
5.15 178.496 --undefined--
5.16 --undefined-- --undefined--
5.17 --undefined-- --undefined--
