Time Pitch Intensity
0.01 --undefined-- --undefined--
0.02 91.193 --undefined--
0.03 94.623 --undefined--
0.04 93.444 --undefined--
0.05 93.160 54.063
0.06 92.894 54.648
0.07 92.607 55.215
0.08 92.171 55.580
0.09 92.227 55.520
0.10 92.155 55.483
0.11 91.905 55.746
0.12 91.990 55.905
0.13 92.325 56.063
0.14 92.663 58.366
0.15 96.480 61.668
0.16 96.783 64.083
0.17 97.313 65.916
0.18 97.418 67.071
0.19 93.550 67.436
0.20 93.277 67.182
0.21 93.066 66.329
0.22 94.917 64.874
0.23 --undefined-- 62.725
0.24 --undefined-- 59.237
0.25 --undefined-- 57.941
0.26 --undefined-- 59.406
0.27 --undefined-- 58.874
0.28 --undefined-- 56.894
0.29 --undefined-- 54.146
0.30 --undefined-- 50.027
0.31 --undefined-- 44.734
0.32 --undefined-- 40.552
0.33 --undefined-- 39.264
0.34 --undefined-- 37.946
0.35 --undefined-- 37.027
0.36 --undefined-- 36.974
0.37 --undefined-- 36.815
0.38 --undefined-- 36.750
0.39 --undefined-- 38.636
0.40 --undefined-- 45.243
0.41 --undefined-- 50.698
0.42 --undefined-- 53.965
0.43 --undefined-- 57.821
0.44 84.669 61.312
0.45 85.062 63.194
0.46 91.822 63.781
0.47 99.527 63.732
0.48 101.149 63.714
0.49 105.159 63.534
0.50 107.265 62.403
0.51 111.216 59.762
0.52 118.379 57.294
0.53 123.925 57.498
0.54 123.926 58.015
0.55 122.599 58.260
0.56 122.526 58.605
0.57 121.544 59.346
0.58 120.485 61.895
0.59 117.388 65.334
0.60 116.002 67.588
0.61 110.843 68.594
0.62 104.444 69.060
0.63 96.045 69.320
0.64 87.449 69.157
0.65 87.865 68.624
0.66 80.044 67.721
0.67 77.498 66.624
0.68 76.924 65.501
0.69 84.732 64.252
0.70 84.677 63.163
0.71 91.878 62.768
0.72 91.535 63.249
0.73 98.751 64.196
0.74 97.788 64.558
0.75 103.216 64.113
0.76 103.752 63.068
0.77 107.176 62.358
0.78 108.325 63.142
0.79 111.295 65.409
0.80 115.119 68.069
0.81 114.590 69.733
0.82 114.730 70.089
0.83 115.782 69.691
0.84 115.830 69.020
0.85 115.527 68.240
0.86 115.399 67.471
0.87 113.637 66.826
0.88 112.729 66.340
0.89 111.069 65.605
0.90 106.683 64.095
0.91 105.875 62.148
0.92 106.074 61.699
0.93 105.319 63.635
0.94 109.949 66.083
0.95 109.951 67.972
0.96 109.596 68.840
0.97 105.274 68.905
0.98 104.582 68.453
0.99 103.015 67.666
1.00 100.605 67.099
1.01 99.272 66.803
1.02 99.147 66.534
1.03 100.061 66.420
1.04 100.739 66.291
1.05 100.746 65.715
1.06 102.379 64.964
1.07 103.169 64.042
1.08 103.972 62.669
1.09 104.624 61.518
1.10 107.950 61.092
1.11 108.503 60.081
1.12 --undefined-- 56.731
1.13 --undefined-- 52.077
1.14 --undefined-- 58.287
1.15 --undefined-- 65.169
1.16 --undefined-- 68.731
1.17 118.556 69.810
1.18 117.895 69.491
1.19 117.762 68.799
1.20 115.588 67.769
1.21 115.662 65.630
1.22 115.097 61.917
1.23 114.815 56.443
1.24 --undefined-- 50.162
1.25 --undefined-- 45.258
1.26 --undefined-- 40.686
1.27 --undefined-- 37.215
1.28 --undefined-- 36.328
1.29 --undefined-- 41.611
1.30 --undefined-- 51.604
1.31 --undefined-- 58.477
1.32 --undefined-- 62.779
1.33 --undefined-- 65.904
1.34 --undefined-- 68.887
1.35 119.329 70.558
1.36 118.678 70.702
1.37 117.835 70.289
1.38 114.293 70.109
1.39 112.998 70.152
1.40 110.137 70.029
1.41 107.918 69.999
1.42 107.299 70.251
1.43 108.200 70.552
1.44 110.000 70.725
1.45 112.089 70.666
1.46 113.948 70.459
1.47 115.430 70.242
1.48 116.069 69.999
1.49 115.255 69.582
1.50 114.931 68.752
1.51 114.311 67.345
1.52 112.435 65.045
1.53 --undefined-- 61.100
1.54 --undefined-- 54.628
1.55 --undefined-- 45.691
1.56 --undefined-- 41.117
1.57 --undefined-- 46.508
1.58 --undefined-- 51.390
1.59 --undefined-- 52.772
1.60 --undefined-- 51.750
1.61 --undefined-- 51.201
1.62 --undefined-- 52.477
1.63 --undefined-- 56.973
1.64 --undefined-- 61.241
1.65 --undefined-- 63.120
1.66 --undefined-- 62.473
1.67 --undefined-- 59.658
1.68 --undefined-- 55.224
1.69 --undefined-- 51.593
1.70 --undefined-- 50.909
1.71 --undefined-- 50.829
1.72 79.345 50.757
1.73 84.589 50.436
1.74 84.652 50.198
1.75 86.854 50.847
1.76 89.449 51.568
1.77 91.824 51.837
1.78 94.957 51.982
1.79 96.630 52.675
1.80 99.572 54.037
1.81 101.731 55.441
1.82 103.175 57.075
1.83 110.509 59.945
1.84 110.334 63.018
1.85 110.111 65.005
1.86 110.432 65.921
1.87 110.161 66.220
1.88 109.480 66.306
1.89 109.044 66.345
1.90 108.043 66.315
1.91 106.166 66.392
1.92 105.253 66.542
1.93 104.042 66.543
1.94 102.592 66.333
1.95 102.045 66.015
1.96 101.648 65.993
1.97 99.257 66.291
1.98 --undefined-- 65.800
1.99 95.866 64.101
2.00 96.605 63.302
2.01 95.529 63.756
2.02 94.710 64.601
2.03 94.972 65.803
2.04 95.767 66.792
2.05 96.271 67.225
2.06 96.147 67.261
2.07 96.207 67.311
2.08 97.149 67.639
2.09 98.580 68.201
2.10 99.736 68.688
2.11 99.774 68.790
2.12 99.144 68.506
2.13 99.968 67.665
2.14 99.349 66.591
2.15 99.889 65.702
2.16 --undefined-- 63.313
2.17 --undefined-- 58.039
2.18 --undefined-- 51.129
2.19 --undefined-- 45.031
2.20 --undefined-- 39.283
2.21 --undefined-- 35.857
2.22 --undefined-- 35.715
2.23 --undefined-- 38.260
2.24 --undefined-- 41.848
2.25 --undefined-- 44.922
2.26 --undefined-- 46.985
2.27 --undefined-- 47.797
2.28 --undefined-- 47.701
2.29 --undefined-- 47.409
2.30 --undefined-- 47.486
2.31 --undefined-- 48.035
2.32 --undefined-- 48.573
2.33 --undefined-- 49.124
2.34 --undefined-- 49.560
2.35 --undefined-- 49.742
2.36 --undefined-- 49.553
2.37 --undefined-- 48.937
2.38 --undefined-- 48.961
2.39 --undefined-- 49.896
2.40 --undefined-- 50.340
2.41 --undefined-- 50.126
2.42 --undefined-- 49.522
2.43 --undefined-- 48.622
2.44 --undefined-- 48.183
2.45 --undefined-- 48.627
2.46 --undefined-- 49.208
2.47 --undefined-- 49.359
2.48 --undefined-- 49.047
2.49 --undefined-- 48.421
2.50 --undefined-- 48.172
2.51 --undefined-- 48.392
2.52 --undefined-- 48.170
2.53 --undefined-- 47.506
2.54 --undefined-- 47.272
2.55 --undefined-- 46.774
2.56 --undefined-- 45.581
2.57 --undefined-- 44.974
2.58 --undefined-- 45.441
2.59 --undefined-- 45.384
2.60 --undefined-- 44.454
2.61 --undefined-- 43.295
2.62 --undefined-- 42.175
2.63 --undefined-- 41.167
2.64 --undefined-- 40.004
2.65 --undefined-- 39.119
2.66 --undefined-- 38.494
2.67 --undefined-- 38.269
2.68 --undefined-- 38.449
2.69 --undefined-- 38.711
2.70 --undefined-- 38.728
2.71 --undefined-- 38.352
2.72 --undefined-- 38.779
2.73 --undefined-- 42.676
2.74 --undefined-- 49.700
2.75 --undefined-- 56.662
2.76 --undefined-- 60.848
2.77 --undefined-- 62.384
2.78 --undefined-- 64.336
2.79 --undefined-- 67.850
2.80 240.518 69.884
2.81 244.860 70.249
2.82 249.878 70.210
2.83 81.413 70.339
2.84 80.742 69.876
2.85 82.929 69.126
2.86 84.594 68.311
2.87 88.457 67.220
2.88 92.187 66.420
2.89 94.399 65.869
2.90 96.529 64.978
2.91 100.085 64.041
2.92 102.477 63.437
2.93 105.606 62.886
2.94 109.750 62.503
2.95 112.665 62.896
2.96 114.931 63.612
2.97 116.788 63.435
2.98 116.418 61.396
2.99 --undefined-- 56.804
3.00 --undefined-- 49.983
3.01 --undefined-- 45.544
3.02 --undefined-- 48.317
3.03 --undefined-- 55.689
3.04 --undefined-- 60.686
3.05 --undefined-- 62.797
3.06 --undefined-- 64.546
3.07 --undefined-- 68.036
3.08 126.420 70.507
3.09 125.865 70.589
3.10 121.751 68.586
3.11 113.707 65.139
3.12 113.999 60.377
3.13 --undefined-- 53.930
3.14 --undefined-- 46.379
3.15 --undefined-- 41.012
3.16 --undefined-- 40.693
3.17 --undefined-- 47.646
3.18 --undefined-- 51.859
3.19 --undefined-- 51.914
3.20 --undefined-- 50.060
3.21 --undefined-- 50.777
3.22 --undefined-- 57.530
3.23 --undefined-- 63.786
3.24 101.413 67.595
3.25 104.818 69.954
3.26 99.938 71.213
3.27 100.522 71.293
3.28 97.685 70.681
3.29 98.637 70.308
3.30 96.187 70.194
3.31 93.550 70.083
3.32 93.457 70.036
3.33 93.267 69.980
3.34 92.807 69.889
3.35 91.953 69.777
3.36 90.796 69.485
3.37 90.725 69.164
3.38 91.301 69.173
3.39 91.911 69.598
3.40 93.305 69.927
3.41 91.898 69.439
3.42 94.703 68.371
3.43 95.019 67.368
3.44 94.820 66.632
3.45 92.891 65.583
3.46 --undefined-- 63.345
3.47 --undefined-- 59.523
3.48 --undefined-- 53.485
3.49 --undefined-- 45.560
3.50 --undefined-- 40.098
3.51 --undefined-- 37.248
3.52 --undefined-- 36.725
3.53 --undefined-- 39.946
3.54 --undefined-- 46.552
3.55 --undefined-- 53.134
3.56 --undefined-- 57.102
3.57 --undefined-- 59.393
3.58 --undefined-- 63.867
3.59 --undefined-- 68.007
3.60 126.957 69.472
3.61 127.313 68.672
3.62 127.040 66.577
3.63 128.125 63.907
3.64 130.106 61.832
3.65 130.578 61.511
3.66 129.614 61.730
3.67 129.408 61.830
3.68 128.776 61.803
3.69 128.020 61.773
3.70 126.801 61.856
3.71 125.636 61.951
3.72 124.634 61.946
3.73 123.476 61.806
3.74 123.264 61.619
3.75 122.480 61.457
3.76 122.370 61.210
3.77 123.515 60.934
3.78 122.850 60.424
3.79 118.600 59.133
3.80 117.607 56.522
3.81 --undefined-- 52.363
3.82 --undefined-- 52.042
3.83 --undefined-- 57.363
3.84 --undefined-- 60.948
3.85 --undefined-- 62.638
3.86 --undefined-- 62.689
3.87 --undefined-- 61.735
3.88 --undefined-- 61.934
3.89 --undefined-- 63.360
3.90 --undefined-- 65.256
3.91 120.384 66.881
3.92 120.929 68.427
3.93 122.147 69.956
3.94 120.766 70.907
3.95 117.950 71.102
3.96 116.959 70.624
3.97 116.948 69.619
3.98 115.946 68.662
3.99 116.999 68.567
4.00 117.329 68.867
4.01 116.171 68.964
4.02 114.828 68.875
4.03 113.085 68.363
4.04 111.864 67.206
4.05 111.210 65.397
4.06 110.807 63.432
4.07 110.160 62.178
4.08 109.757 61.467
4.09 108.176 59.879
4.10 --undefined-- 56.169
4.11 --undefined-- 50.289
4.12 --undefined-- 44.391
4.13 --undefined-- 40.750
4.14 --undefined-- 39.157
4.15 --undefined-- 40.859
4.16 --undefined-- 45.211
4.17 --undefined-- 50.562
4.18 --undefined-- 54.202
4.19 --undefined-- 56.712
4.20 --undefined-- 58.882
4.21 --undefined-- 59.582
4.22 --undefined-- 58.959
4.23 --undefined-- 58.609
4.24 --undefined-- 58.755
4.25 104.138 59.375
4.26 104.318 60.653
4.27 108.217 61.423
4.28 102.501 60.742
4.29 98.455 58.451
4.30 --undefined-- 54.716
4.31 --undefined-- 49.419
4.32 --undefined-- 43.734
4.33 --undefined-- 40.328
4.34 --undefined-- 38.870
4.35 --undefined-- 38.367
4.36 --undefined-- 39.405
4.37 --undefined-- 41.393
4.38 --undefined-- 41.931
4.39 --undefined-- 40.239
4.40 --undefined-- 42.833
4.41 --undefined-- 53.094
4.42 --undefined-- 59.213
4.43 --undefined-- 62.130
4.44 --undefined-- 63.562
4.45 --undefined-- 63.299
4.46 --undefined-- 62.817
4.47 85.412 66.046
4.48 89.787 69.185
4.49 91.122 70.653
4.50 92.324 70.768
4.51 94.453 70.053
4.52 99.788 69.367
4.53 102.709 68.664
4.54 104.129 66.499
4.55 104.905 61.966
4.56 107.798 56.054
4.57 118.584 54.608
4.58 119.384 55.653
4.59 118.954 56.275
4.60 118.155 56.623
4.61 116.233 57.031
4.62 114.899 57.977
4.63 112.538 61.633
4.64 --undefined-- 66.391
4.65 102.901 69.208
4.66 103.210 70.249
4.67 96.388 69.834
4.68 90.680 68.442
4.69 88.060 67.205
4.70 88.314 66.420
4.71 87.732 65.912
4.72 86.732 65.539
4.73 87.606 65.613
4.74 92.639 65.695
4.75 91.980 64.977
4.76 95.668 63.852
4.77 94.619 62.488
4.78 94.934 60.004
4.79 95.490 56.385
4.80 97.074 53.243
4.81 97.302 52.215
4.82 96.065 52.184
4.83 95.251 51.995
4.84 95.728 51.516
4.85 96.597 52.233
4.86 --undefined-- 55.490
4.87 --undefined-- 58.907
4.88 --undefined-- 61.007
4.89 --undefined-- 61.689
4.90 --undefined-- 60.947
4.91 --undefined-- 59.526
4.92 --undefined-- 59.546
4.93 --undefined-- 63.160
4.94 --undefined-- 66.551
4.95 --undefined-- 68.182
4.96 81.448 68.474
4.97 78.868 67.996
4.98 79.345 67.273
4.99 81.269 66.163
5.00 82.187 64.139
5.01 82.252 61.407
5.02 83.061 58.344
5.03 85.869 54.767
5.04 --undefined-- 50.934
5.05 --undefined-- 49.166
5.06 --undefined-- 52.765
5.07 --undefined-- 55.126
5.08 --undefined-- 54.599
5.09 --undefined-- 53.542
5.10 --undefined-- 55.396
5.11 --undefined-- 58.601
5.12 96.925 61.018
5.13 96.151 62.311
5.14 96.299 62.637
5.15 95.788 61.820
5.16 95.866 59.881
5.17 --undefined-- 58.500
5.18 --undefined-- 59.402
5.19 --undefined-- 60.712
5.20 --undefined-- 61.515
5.21 --undefined-- 61.656
5.22 --undefined-- 62.268
5.23 --undefined-- 63.816
5.24 --undefined-- 63.691
5.25 --undefined-- 60.932
5.26 --undefined-- 59.872
5.27 --undefined-- 64.091
5.28 92.374 67.271
5.29 88.925 68.567
5.30 89.174 68.796
5.31 87.433 68.613
5.32 85.903 68.275
5.33 86.246 67.999
5.34 87.731 67.844
5.35 89.931 67.823
5.36 95.380 67.454
5.37 97.248 66.238
5.38 100.289 64.232
5.39 103.447 61.687
5.40 107.902 59.263
5.41 110.076 57.788
5.42 113.478 --undefined--
5.43 113.150 --undefined--
5.44 --undefined-- --undefined--
5.45 --undefined-- --undefined--
