Time Pitch Intensity
0.01 --undefined-- --undefined--
0.02 173.975 --undefined--
0.03 181.533 --undefined--
0.04 184.230 --undefined--
0.05 184.788 69.275
0.06 185.672 69.046
0.07 185.250 67.786
0.08 184.466 64.880
0.09 187.253 60.397
0.10 --undefined-- 58.083
0.11 --undefined-- 63.098
0.12 --undefined-- 67.897
0.13 96.913 69.909
0.14 95.527 70.135
0.15 93.807 69.935
0.16 185.186 69.694
0.17 182.853 69.322
0.18 181.018 68.608
0.19 181.130 68.146
0.20 182.133 68.314
0.21 182.049 68.611
0.22 183.147 68.915
0.23 183.194 69.054
0.24 182.115 68.696
0.25 181.299 67.377
0.26 180.011 64.391
0.27 170.335 60.059
0.28 164.679 59.487
0.29 169.332 63.002
0.30 170.208 65.944
0.31 169.623 67.145
0.32 166.107 66.777
0.33 163.132 66.322
0.34 161.944 66.558
0.35 161.432 66.770
0.36 160.732 66.872
0.37 160.233 66.972
0.38 159.811 66.799
0.39 159.042 66.395
0.40 157.865 66.049
0.41 156.368 65.521
0.42 155.700 64.686
0.43 155.144 64.119
0.44 157.542 63.827
0.45 157.218 63.406
0.46 --undefined-- 62.461
0.47 --undefined-- 60.734
0.48 --undefined-- 59.312
0.49 --undefined-- 58.228
0.50 --undefined-- 57.460
0.51 --undefined-- 56.418
0.52 --undefined-- 54.893
0.53 --undefined-- 54.355
0.54 --undefined-- 57.316
0.55 --undefined-- 63.153
0.56 --undefined-- 67.344
0.57 246.710 69.450
0.58 249.847 70.615
0.59 260.170 71.289
0.60 264.088 70.748
0.61 267.599 68.333
0.62 266.605 64.126
0.63 262.266 59.024
0.64 261.703 56.706
0.65 264.521 57.358
0.66 --undefined-- 57.889
0.67 --undefined-- 61.257
0.68 --undefined-- 67.155
0.69 240.084 71.902
0.70 237.267 74.289
0.71 232.859 74.704
0.72 227.471 73.590
0.73 224.014 70.797
0.74 --undefined-- 65.870
0.75 --undefined-- 59.753
0.76 --undefined-- 58.656
0.77 --undefined-- 60.672
0.78 --undefined-- 66.265
0.79 --undefined-- 71.377
0.80 --undefined-- 73.326
0.81 --undefined-- 72.666
0.82 --undefined-- 70.593
0.83 --undefined-- 68.820
0.84 --undefined-- 69.585
0.85 --undefined-- 71.389
0.86 --undefined-- 72.293
0.87 --undefined-- 72.180
0.88 211.078 71.389
0.89 220.477 70.267
0.90 230.743 69.396
0.91 249.129 69.220
0.92 248.648 69.518
0.93 247.060 69.966
0.94 245.424 70.185
0.95 242.785 70.220
0.96 239.658 70.053
0.97 236.745 69.457
0.98 226.841 69.082
0.99 212.408 70.156
1.00 201.796 72.095
1.01 185.093 73.899
1.02 171.672 75.394
1.03 166.258 76.260
1.04 163.305 76.218
1.05 164.287 75.503
1.06 170.790 74.325
1.07 178.460 73.004
1.08 183.362 72.453
1.09 183.205 72.231
1.10 184.212 71.224
1.11 189.653 69.975
1.12 197.265 69.392
1.13 208.473 68.955
1.14 220.602 68.605
1.15 220.552 67.623
1.16 212.670 65.029
1.17 --undefined-- 61.541
1.18 --undefined-- 59.523
1.19 235.323 61.472
1.20 238.849 64.323
1.21 247.723 65.425
1.22 247.963 65.190
1.23 238.430 64.698
1.24 199.041 65.743
1.25 188.616 68.259
1.26 181.474 70.192
1.27 177.247 70.669
1.28 174.053 70.039
1.29 172.805 69.076
1.30 173.289 68.280
1.31 173.694 67.956
1.32 172.636 67.993
1.33 171.551 67.954
1.34 171.609 67.323
1.35 170.803 65.541
1.36 167.404 62.431
1.37 167.509 58.895
1.38 167.444 56.675
1.39 170.422 58.169
1.40 211.021 63.927
1.41 217.359 69.208
1.42 218.361 72.970
1.43 216.585 75.428
1.44 215.885 77.181
1.45 216.564 78.467
1.46 217.583 79.082
1.47 219.701 79.315
1.48 222.366 79.488
1.49 225.470 79.589
1.50 226.330 79.688
1.51 224.940 79.420
1.52 221.771 78.333
1.53 214.676 76.773
1.54 --undefined-- 75.156
1.55 --undefined-- 72.731
1.56 --undefined-- 69.007
1.57 --undefined-- 64.834
1.58 --undefined-- 63.233
1.59 --undefined-- 64.125
1.60 --undefined-- 63.446
1.61 --undefined-- 59.767
1.62 --undefined-- 55.210
1.63 --undefined-- 55.893
1.64 --undefined-- 58.874
1.65 --undefined-- 60.886
1.66 --undefined-- 60.407
1.67 --undefined-- 57.998
1.68 --undefined-- 56.243
1.69 --undefined-- 55.743
1.70 --undefined-- 56.625
1.71 --undefined-- 59.286
1.72 --undefined-- 60.122
1.73 --undefined-- 58.530
1.74 --undefined-- 58.023
1.75 --undefined-- 58.218
1.76 --undefined-- 56.377
1.77 --undefined-- 55.566
1.78 --undefined-- 57.530
1.79 --undefined-- 58.310
1.80 --undefined-- 57.296
1.81 --undefined-- 57.350
1.82 --undefined-- 58.112
1.83 --undefined-- 58.682
1.84 --undefined-- 60.155
1.85 --undefined-- 60.662
1.86 --undefined-- 59.783
1.87 --undefined-- 59.046
1.88 --undefined-- 58.690
1.89 --undefined-- 57.811
1.90 --undefined-- 57.403
1.91 --undefined-- 57.170
1.92 --undefined-- 56.246
1.93 --undefined-- 56.648
1.94 --undefined-- 56.110
1.95 --undefined-- 53.726
1.96 --undefined-- 53.089
1.97 --undefined-- 53.041
1.98 --undefined-- 55.011
1.99 --undefined-- 63.441
2.00 155.230 69.885
2.01 156.914 74.093
2.02 163.671 76.793
2.03 170.343 78.386
2.04 177.580 79.063
2.05 187.926 79.277
2.06 195.229 78.937
2.07 198.664 77.221
2.08 202.099 74.425
2.09 193.964 72.527
2.10 186.074 70.796
2.11 192.172 67.419
2.12 191.908 62.635
2.13 --undefined-- 58.487
2.14 --undefined-- 56.142
2.15 --undefined-- 54.666
2.16 --undefined-- 55.224
2.17 --undefined-- 56.437
2.18 --undefined-- 58.443
2.19 --undefined-- 61.622
2.20 --undefined-- 63.838
2.21 --undefined-- 64.510
2.22 --undefined-- 66.330
2.23 283.193 70.184
2.24 279.051 72.902
2.25 274.832 73.905
2.26 268.069 73.681
2.27 264.488 72.934
2.28 264.193 72.118
2.29 265.176 71.100
2.30 265.607 69.443
2.31 263.884 68.405
2.32 267.331 69.561
2.33 269.645 70.627
2.34 270.766 70.800
2.35 270.802 70.550
2.36 270.572 70.257
2.37 270.199 70.076
2.38 269.969 70.062
2.39 269.677 70.037
2.40 269.436 69.800
2.41 269.121 69.531
2.42 268.722 69.276
2.43 269.542 68.899
2.44 269.338 68.558
2.45 270.627 68.384
2.46 271.174 68.374
2.47 271.962 68.658
2.48 271.182 68.960
2.49 268.512 68.858
2.50 266.542 68.404
2.51 264.621 68.040
2.52 261.476 68.049
2.53 257.636 68.047
2.54 253.931 67.887
2.55 249.881 68.296
2.56 247.291 69.647
2.57 247.477 72.155
2.58 247.172 74.852
2.59 245.501 75.972
2.60 243.479 75.598
2.61 242.006 74.766
2.62 239.262 73.304
2.63 229.043 70.415
2.64 --undefined-- 66.705
2.65 --undefined-- 63.605
2.66 --undefined-- 60.398
2.67 --undefined-- 56.456
2.68 --undefined-- 53.844
2.69 --undefined-- 53.756
2.70 --undefined-- 55.330
2.71 --undefined-- 58.627
2.72 --undefined-- 61.511
2.73 135.590 63.059
2.74 144.726 64.527
2.75 152.918 66.376
2.76 159.716 67.766
2.77 166.349 68.898
2.78 170.830 70.429
2.79 177.341 72.750
2.80 178.353 74.432
2.81 176.193 74.548
2.82 175.179 73.934
2.83 174.348 73.662
2.84 172.667 73.730
2.85 170.702 73.555
2.86 167.687 72.965
2.87 164.154 72.365
2.88 159.399 72.125
2.89 154.191 72.317
2.90 293.614 72.837
2.91 271.920 73.773
2.92 253.047 74.522
2.93 238.972 74.401
2.94 230.243 73.252
2.95 223.733 70.923
2.96 217.488 67.490
2.97 193.570 63.551
2.98 191.935 59.583
2.99 --undefined-- 56.257
3.00 --undefined-- 54.400
3.01 --undefined-- 55.972
3.02 --undefined-- 58.932
3.03 --undefined-- 61.476
3.04 235.379 64.777
3.05 225.244 67.046
3.06 219.273 67.688
3.07 216.042 67.688
3.08 214.979 67.838
3.09 214.869 67.949
3.10 214.472 67.731
3.11 214.747 67.683
3.12 218.854 68.225
3.13 220.666 68.768
3.14 220.183 68.991
3.15 220.454 69.014
3.16 220.360 68.735
3.17 218.396 67.582
3.18 212.514 64.835
3.19 202.095 60.238
3.20 202.064 56.120
3.21 --undefined-- 56.129
3.22 --undefined-- 58.023
3.23 --undefined-- 59.405
3.24 --undefined-- 59.341
3.25 --undefined-- 58.320
3.26 --undefined-- 57.129
3.27 --undefined-- 58.220
3.28 --undefined-- 61.864
3.29 --undefined-- 64.521
3.30 --undefined-- 65.002
3.31 198.439 64.406
3.32 202.891 65.865
3.33 200.021 68.285
3.34 189.519 70.053
3.35 181.672 70.893
3.36 177.538 70.519
3.37 174.003 69.293
3.38 173.101 68.421
3.39 172.273 67.859
3.40 171.952 67.070
3.41 171.626 66.451
3.42 172.065 66.099
3.43 173.016 65.818
3.44 173.409 65.855
3.45 177.476 66.795
3.46 182.638 68.484
3.47 183.512 69.945
3.48 184.834 70.789
3.49 186.800 71.211
3.50 188.418 71.540
3.51 191.036 71.659
3.52 193.884 71.138
3.53 196.831 69.997
3.54 204.841 68.982
3.55 205.411 68.736
3.56 204.337 68.399
3.57 191.224 67.555
3.58 188.483 66.841
3.59 188.752 66.075
3.60 --undefined-- 64.411
3.61 --undefined-- 61.246
3.62 --undefined-- 57.529
3.63 --undefined-- 56.279
3.64 --undefined-- 55.888
3.65 --undefined-- 54.696
3.66 --undefined-- 55.024
3.67 --undefined-- 56.422
3.68 --undefined-- 57.770
3.69 --undefined-- 59.385
3.70 --undefined-- 61.904
3.71 201.496 65.891
3.72 190.548 69.957
3.73 190.281 72.314
3.74 193.575 72.530
3.75 196.887 71.224
3.76 220.151 69.761
3.77 230.044 68.762
3.78 243.353 67.431
3.79 247.728 64.818
3.80 246.107 61.797
3.81 --undefined-- 59.887
3.82 --undefined-- 57.288
3.83 --undefined-- 55.294
3.84 --undefined-- 57.404
3.85 --undefined-- 59.851
3.86 --undefined-- 61.042
3.87 --undefined-- 61.442
3.88 --undefined-- 62.556
3.89 --undefined-- 64.593
3.90 --undefined-- 65.187
3.91 221.398 63.491
3.92 236.725 62.310
3.93 232.606 64.326
3.94 234.868 66.293
3.95 --undefined-- 67.654
3.96 --undefined-- 68.745
3.97 --undefined-- 68.805
3.98 --undefined-- 66.958
3.99 --undefined-- 63.505
4.00 --undefined-- 60.508
4.01 --undefined-- 58.920
4.02 --undefined-- 57.300
4.03 --undefined-- 56.632
4.04 --undefined-- 56.666
4.05 --undefined-- 55.300
4.06 --undefined-- 55.373
4.07 201.225 57.890
4.08 194.763 59.288
4.09 --undefined-- 59.773
4.10 --undefined-- 60.383
4.11 --undefined-- 60.991
4.12 --undefined-- 61.520
4.13 --undefined-- 61.926
4.14 --undefined-- 61.629
4.15 --undefined-- 60.058
4.16 219.363 60.724
4.17 216.842 64.550
4.18 197.370 67.352
4.19 191.453 68.823
4.20 185.339 69.429
4.21 183.856 69.124
4.22 183.056 68.020
4.23 181.490 66.847
4.24 180.869 66.183
4.25 180.383 65.842
4.26 179.832 65.533
4.27 179.192 65.569
4.28 181.047 66.021
4.29 181.657 66.046
4.30 181.026 65.041
4.31 179.235 62.663
4.32 180.032 60.371
4.33 --undefined-- 59.982
4.34 --undefined-- 61.417
4.35 --undefined-- 64.491
4.36 169.741 66.607
4.37 169.689 66.868
4.38 164.841 65.904
4.39 163.177 64.867
4.40 163.214 64.968
4.41 164.487 66.097
4.42 168.269 67.043
4.43 171.386 67.744
4.44 176.138 69.123
4.45 186.880 70.841
4.46 192.553 71.361
4.47 199.961 69.697
4.48 205.710 66.105
4.49 200.711 61.822
4.50 --undefined-- 56.631
4.51 --undefined-- 53.420
4.52 --undefined-- 58.050
4.53 --undefined-- 62.114
4.54 --undefined-- 63.318
4.55 --undefined-- 62.384
4.56 246.907 62.702
4.57 249.749 64.824
4.58 260.895 66.460
4.59 268.936 68.200
4.60 245.707 71.025
4.61 223.167 73.873
4.62 212.706 75.774
4.63 205.298 76.685
4.64 200.747 76.817
4.65 196.489 76.570
4.66 193.974 76.422
4.67 193.211 76.483
4.68 192.270 76.457
4.69 189.279 76.103
4.70 185.211 75.335
4.71 177.849 73.836
4.72 176.062 71.871
4.73 --undefined-- 69.797
4.74 --undefined-- 66.592
4.75 --undefined-- 62.567
4.76 --undefined-- 59.672
4.77 --undefined-- 57.044
4.78 --undefined-- 53.058
4.79 --undefined-- 50.005
4.80 --undefined-- 55.179
4.81 --undefined-- 60.646
4.82 --undefined-- 62.372
4.83 --undefined-- 60.971
4.84 --undefined-- 60.055
4.85 --undefined-- 61.884
4.86 207.319 64.343
4.87 212.322 66.250
4.88 228.559 67.361
4.89 240.696 68.384
4.90 242.161 69.308
4.91 243.632 69.925
4.92 245.338 --undefined--
4.93 246.324 --undefined--
4.94 --undefined-- --undefined--
4.95 --undefined-- --undefined--
