Time Pitch Intensity
0.01 --undefined-- --undefined--
0.02 168.826 --undefined--
0.03 169.355 --undefined--
0.04 169.719 --undefined--
0.05 169.649 65.929
0.06 168.690 61.886
0.07 167.285 56.334
0.08 --undefined-- 49.661
0.09 --undefined-- 44.314
0.10 --undefined-- 42.621
0.11 --undefined-- 43.482
0.12 --undefined-- 44.765
0.13 --undefined-- 45.779
0.14 --undefined-- 46.139
0.15 --undefined-- 46.855
0.16 --undefined-- 48.203
0.17 --undefined-- 48.897
0.18 --undefined-- 49.183
0.19 --undefined-- 49.911
0.20 --undefined-- 50.631
0.21 --undefined-- 50.875
0.22 --undefined-- 51.401
0.23 --undefined-- 51.891
0.24 --undefined-- 51.664
0.25 --undefined-- 51.324
0.26 --undefined-- 50.992
0.27 --undefined-- 50.808
0.28 --undefined-- 50.983
0.29 --undefined-- 51.203
0.30 --undefined-- 51.573
0.31 --undefined-- 51.070
0.32 --undefined-- 49.203
0.33 --undefined-- 46.983
0.34 --undefined-- 45.215
0.35 --undefined-- 42.969
0.36 --undefined-- 40.179
0.37 --undefined-- 39.843
0.38 --undefined-- 47.277
0.39 --undefined-- 57.943
0.40 --undefined-- 64.032
0.41 --undefined-- 67.177
0.42 --undefined-- 70.545
0.43 199.787 73.273
0.44 198.350 73.539
0.45 197.041 71.287
0.46 197.757 67.090
0.47 208.356 63.618
0.48 212.462 63.576
0.49 215.735 64.631
0.50 217.776 65.619
0.51 220.477 67.307
0.52 230.982 71.425
0.53 234.140 74.494
0.54 235.980 74.975
0.55 238.221 73.392
0.56 237.704 70.720
0.57 233.641 67.820
0.58 229.263 65.021
0.59 229.545 62.192
0.60 221.136 61.885
0.61 218.463 63.090
0.62 216.030 62.520
0.63 216.862 60.139
0.64 223.204 56.699
0.65 219.869 55.313
0.66 222.269 59.052
0.67 225.909 63.112
0.68 228.794 65.649
0.69 229.595 66.982
0.70 228.092 67.547
0.71 226.147 67.556
0.72 224.133 66.829
0.73 221.182 64.648
0.74 216.861 60.258
0.75 --undefined-- 54.353
0.76 --undefined-- 54.468
0.77 --undefined-- 60.979
0.78 --undefined-- 66.990
0.79 --undefined-- 70.757
0.80 --undefined-- 71.580
0.81 --undefined-- 69.810
0.82 --undefined-- 66.808
0.83 156.779 64.747
0.84 149.314 65.143
0.85 147.295 66.094
0.86 147.499 65.828
0.87 147.502 63.914
0.88 145.562 60.353
0.89 146.422 56.105
0.90 152.226 56.180
0.91 162.576 60.742
0.92 166.622 64.847
0.93 169.333 67.375
0.94 171.903 68.564
0.95 175.828 68.840
0.96 179.950 68.648
0.97 182.494 67.980
0.98 185.744 66.968
0.99 191.452 66.914
1.00 192.073 67.925
1.01 192.183 68.461
1.02 191.818 67.898
1.03 191.254 66.466
1.04 197.460 65.018
1.05 200.257 64.262
1.06 197.611 64.810
1.07 183.333 67.050
1.08 174.418 69.608
1.09 164.763 70.767
1.10 155.878 70.914
1.11 146.709 71.042
1.12 140.919 70.471
1.13 --undefined-- 68.319
1.14 --undefined-- 64.647
1.15 --undefined-- 59.776
1.16 --undefined-- 53.649
1.17 --undefined-- 47.190
1.18 --undefined-- 45.468
1.19 --undefined-- 47.883
1.20 --undefined-- 53.646
1.21 --undefined-- 58.606
1.22 --undefined-- 63.272
1.23 186.941 68.728
1.24 181.030 72.366
1.25 176.743 73.555
1.26 175.883 73.334
1.27 175.616 72.546
1.28 174.010 71.292
1.29 171.284 69.789
1.30 168.961 68.301
1.31 168.131 67.265
1.32 168.377 67.100
1.33 168.847 67.100
1.34 169.985 66.439
1.35 171.980 65.179
1.36 172.451 63.567
1.37 171.903 61.313
1.38 176.828 59.537
1.39 178.056 59.363
1.40 177.565 59.182
1.41 176.798 57.949
1.42 174.054 55.133
1.43 --undefined-- 50.778
1.44 --undefined-- 47.144
1.45 --undefined-- 46.404
1.46 --undefined-- 48.288
1.47 --undefined-- 51.626
1.48 --undefined-- 53.780
1.49 --undefined-- 54.641
1.50 --undefined-- 55.084
1.51 --undefined-- 55.098
1.52 --undefined-- 53.746
1.53 --undefined-- 52.263
1.54 --undefined-- 53.954
1.55 --undefined-- 56.172
1.56 --undefined-- 57.480
1.57 --undefined-- 57.961
1.58 --undefined-- 57.560
1.59 --undefined-- 57.246
1.60 117.696 57.295
1.61 127.934 56.668
1.62 125.905 55.390
1.63 --undefined-- 55.509
1.64 --undefined-- 58.798
1.65 --undefined-- 62.879
1.66 133.717 66.192
1.67 129.371 68.018
1.68 125.892 68.489
1.69 101.538 68.145
1.70 103.474 66.848
1.71 --undefined-- 63.608
1.72 --undefined-- 57.935
1.73 --undefined-- 51.937
1.74 --undefined-- 47.344
1.75 --undefined-- 43.210
1.76 --undefined-- 41.877
1.77 --undefined-- 42.071
1.78 --undefined-- 41.752
1.79 --undefined-- 42.362
1.80 --undefined-- 45.162
1.81 --undefined-- 47.950
1.82 --undefined-- 49.480
1.83 --undefined-- 50.096
1.84 --undefined-- 50.628
1.85 --undefined-- 51.087
1.86 --undefined-- 51.389
1.87 --undefined-- 51.386
1.88 --undefined-- 51.918
1.89 --undefined-- 52.774
1.90 --undefined-- 53.146
1.91 --undefined-- 53.288
1.92 --undefined-- 53.232
1.93 --undefined-- 53.597
1.94 --undefined-- 54.432
1.95 --undefined-- 54.906
1.96 --undefined-- 54.510
1.97 --undefined-- 53.736
1.98 --undefined-- 53.832
1.99 --undefined-- 54.561
2.00 --undefined-- 54.892
2.01 --undefined-- 54.740
2.02 --undefined-- 54.565
2.03 --undefined-- 53.636
2.04 --undefined-- 51.675
2.05 --undefined-- 51.003
2.06 --undefined-- 50.509
2.07 --undefined-- 48.088
2.08 --undefined-- 44.788
2.09 --undefined-- 42.458
2.10 --undefined-- 40.853
2.11 --undefined-- 42.238
2.12 --undefined-- 52.654
2.13 --undefined-- 63.111
2.14 --undefined-- 69.216
2.15 --undefined-- 72.328
2.16 233.246 73.932
2.17 231.200 74.655
2.18 230.583 74.454
2.19 228.732 72.896
2.20 221.415 69.495
2.21 220.651 64.287
2.22 222.098 58.093
2.23 --undefined-- 54.488
2.24 --undefined-- 56.243
2.25 --undefined-- 60.069
2.26 --undefined-- 65.423
2.27 297.476 69.355
2.28 291.165 71.065
2.29 284.404 71.698
2.30 279.613 71.787
2.31 278.279 70.646
2.32 277.999 67.566
2.33 276.164 62.550
2.34 277.128 59.835
2.35 275.905 63.310
2.36 --undefined-- 69.772
2.37 152.059 74.293
2.38 150.259 75.948
2.39 296.030 75.508
2.40 291.264 74.376
2.41 286.637 73.617
2.42 282.168 72.936
2.43 276.630 71.823
2.44 268.402 70.745
2.45 257.365 70.720
2.46 247.398 70.902
2.47 235.369 70.171
2.48 233.684 69.508
2.49 230.845 69.872
2.50 227.827 70.764
2.51 225.577 72.212
2.52 223.093 73.880
2.53 219.033 74.904
2.54 214.558 75.213
2.55 210.955 74.965
2.56 206.782 74.058
2.57 201.732 72.946
2.58 196.136 71.918
2.59 191.631 69.798
2.60 184.810 65.229
2.61 180.448 58.473
2.62 180.922 59.868
2.63 176.988 66.895
2.64 175.231 71.020
2.65 173.408 72.671
2.66 172.396 72.793
2.67 172.335 72.193
2.68 171.873 71.439
2.69 171.393 70.693
2.70 170.629 69.838
2.71 169.035 68.647
2.72 166.558 66.773
2.73 165.087 64.369
2.74 166.763 63.247
2.75 167.480 64.973
2.76 169.192 68.176
2.77 170.997 71.074
2.78 172.333 73.220
2.79 174.225 74.702
2.80 175.763 75.287
2.81 175.802 74.788
2.82 173.162 73.438
2.83 171.841 72.128
2.84 172.822 71.689
2.85 173.849 71.886
2.86 174.769 72.180
2.87 175.284 72.305
2.88 175.915 72.398
2.89 175.481 72.510
2.90 175.548 72.679
2.91 175.262 72.869
2.92 174.923 72.496
2.93 176.632 70.697
2.94 183.499 68.029
2.95 187.253 67.000
2.96 193.236 66.350
2.97 204.409 64.233
2.98 207.241 61.765
2.99 209.409 60.561
3.00 210.341 60.640
3.01 209.672 61.024
3.02 210.964 61.872
3.03 215.854 65.821
3.04 221.215 70.670
3.05 223.076 73.538
3.06 219.967 73.882
3.07 209.611 72.159
3.08 201.047 69.935
3.09 193.774 68.554
3.10 187.529 66.688
3.11 182.560 62.675
3.12 --undefined-- 55.811
3.13 --undefined-- 49.529
3.14 --undefined-- 47.947
3.15 --undefined-- 46.994
3.16 --undefined-- 47.751
3.17 --undefined-- 48.949
3.18 --undefined-- 50.408
3.19 --undefined-- 55.784
3.20 --undefined-- 63.745
3.21 190.279 69.023
3.22 183.850 71.170
3.23 180.221 70.291
3.24 168.003 66.762
3.25 164.794 64.056
3.26 161.355 64.918
3.27 157.073 65.982
3.28 152.226 66.270
3.29 148.024 66.505
3.30 146.664 68.816
3.31 146.431 71.540
3.32 144.889 72.240
3.33 136.503 70.810
3.34 167.081 67.603
3.35 169.324 63.851
3.36 --undefined-- 63.184
3.37 --undefined-- 63.122
3.38 --undefined-- 60.400
3.39 --undefined-- 58.393
3.40 --undefined-- 59.283
3.41 --undefined-- 58.963
3.42 --undefined-- 58.578
3.43 --undefined-- 58.816
3.44 --undefined-- 59.873
3.45 --undefined-- 61.173
3.46 --undefined-- 61.885
3.47 --undefined-- 63.852
3.48 167.915 67.601
3.49 162.935 70.086
3.50 159.331 70.535
3.51 158.680 69.706
3.52 159.057 69.275
3.53 159.286 69.176
3.54 162.426 68.331
3.55 170.947 68.157
3.56 178.066 68.737
3.57 188.083 68.179
3.58 196.866 66.293
3.59 201.808 64.121
3.60 202.403 62.766
3.61 201.593 61.563
3.62 200.947 59.356
3.63 199.531 55.499
3.64 --undefined-- 49.774
3.65 --undefined-- 45.621
3.66 --undefined-- 45.169
3.67 --undefined-- 43.793
3.68 --undefined-- 41.069
3.69 --undefined-- 39.036
3.70 --undefined-- 38.772
3.71 --undefined-- 39.639
3.72 --undefined-- 51.325
3.73 --undefined-- 61.840
3.74 --undefined-- 67.207
3.75 --undefined-- 68.993
3.76 --undefined-- 70.384
3.77 --undefined-- 72.392
3.78 --undefined-- 72.927
3.79 150.702 72.471
3.80 146.405 72.350
3.81 145.760 72.276
3.82 144.965 71.654
3.83 144.617 70.464
3.84 144.686 68.900
3.85 143.110 66.997
3.86 141.342 64.037
3.87 139.925 59.467
3.88 141.202 54.077
3.89 --undefined-- 50.221
3.90 --undefined-- 48.991
3.91 --undefined-- 51.982
3.92 153.111 56.689
3.93 145.808 59.552
3.94 140.974 59.961
3.95 137.399 58.188
3.96 135.602 55.157
3.97 134.132 52.133
3.98 129.847 50.136
3.99 --undefined-- 52.151
4.00 135.745 54.551
4.01 133.438 54.695
4.02 133.091 53.412
4.03 132.458 52.185
4.04 132.592 51.543
4.05 133.183 51.608
4.06 133.218 52.259
4.07 133.418 53.176
4.08 133.837 53.846
4.09 133.371 54.156
4.10 133.770 54.547
4.11 134.133 55.011
4.12 136.374 55.483
4.13 140.148 56.521
4.14 142.971 57.947
4.15 145.682 58.887
4.16 149.163 59.270
4.17 152.817 59.379
4.18 157.364 59.240
4.19 162.892 59.055
4.20 168.785 59.564
4.21 172.454 60.675
4.22 175.818 61.716
4.23 178.762 62.756
4.24 181.067 63.657
4.25 183.953 63.927
4.26 187.772 63.056
4.27 188.900 60.893
4.28 --undefined-- 61.015
4.29 220.294 66.465
4.30 209.973 70.585
4.31 199.003 72.267
4.32 185.364 72.982
4.33 178.700 73.416
4.34 171.452 72.443
4.35 158.382 69.656
4.36 143.246 66.399
4.37 139.181 63.345
4.38 139.947 58.918
4.39 --undefined-- 52.839
4.40 --undefined-- 48.322
4.41 --undefined-- 47.111
4.42 --undefined-- 47.040
4.43 --undefined-- 47.203
4.44 --undefined-- 47.929
4.45 --undefined-- 48.915
4.46 --undefined-- 50.576
4.47 --undefined-- 56.211
4.48 --undefined-- 61.800
4.49 --undefined-- 64.762
4.50 --undefined-- 66.122
4.51 --undefined-- 66.536
4.52 --undefined-- 66.254
4.53 --undefined-- 65.199
4.54 --undefined-- 63.726
4.55 --undefined-- 63.805
4.56 --undefined-- 64.008
4.57 115.607 62.911
4.58 115.119 61.411
4.59 114.750 58.901
4.60 --undefined-- 53.876
4.61 --undefined-- 46.933
4.62 --undefined-- 42.506
4.63 --undefined-- 40.067
4.64 --undefined-- 38.816
4.65 --undefined-- 40.148
4.66 --undefined-- 41.021
4.67 --undefined-- 41.956
4.68 --undefined-- 49.944
4.69 --undefined-- 60.396
4.70 --undefined-- 68.046
4.71 168.914 72.298
4.72 164.959 73.865
4.73 163.503 73.739
4.74 161.319 72.753
4.75 159.495 71.083
4.76 158.972 68.778
4.77 158.483 66.319
4.78 158.657 64.320
4.79 159.309 63.546
4.80 163.270 63.867
4.81 165.699 63.186
4.82 161.629 59.972
4.83 158.643 54.154
4.84 157.640 50.384
4.85 --undefined-- 57.246
4.86 --undefined-- 65.545
4.87 241.993 70.606
4.88 245.092 72.490
4.89 233.528 71.951
4.90 140.522 70.434
4.91 137.290 69.489
4.92 137.283 68.821
4.93 136.916 67.543
4.94 135.981 65.433
4.95 135.794 63.321
4.96 136.424 62.232
4.97 136.661 61.518
4.98 135.221 59.855
4.99 134.291 56.525
5.00 --undefined-- 51.740
5.01 --undefined-- 47.026
5.02 --undefined-- 44.416
5.03 --undefined-- 46.149
5.04 --undefined-- 52.353
5.05 --undefined-- 57.064
5.06 --undefined-- 59.559
5.07 --undefined-- 63.830
5.08 --undefined-- 68.929
5.09 147.796 71.586
5.10 149.238 72.028
5.11 148.041 71.482
5.12 146.439 71.166
5.13 144.437 71.026
5.14 144.438 70.768
5.15 145.064 70.493
5.16 145.547 70.454
5.17 145.571 70.732
5.18 145.290 --undefined--
5.19 145.182 --undefined--
5.20 --undefined-- --undefined--
5.21 --undefined-- --undefined--
