Time Pitch Intensity
0.01 --undefined-- --undefined--
0.02 158.114 --undefined--
0.03 150.424 --undefined--
0.04 146.702 --undefined--
0.05 --undefined-- 52.059
0.06 --undefined-- 44.070
0.07 --undefined-- 35.891
0.08 --undefined-- 31.703
0.09 --undefined-- 31.230
0.10 --undefined-- 32.929
0.11 --undefined-- 34.262
0.12 --undefined-- 36.935
0.13 --undefined-- 37.992
0.14 --undefined-- 36.928
0.15 --undefined-- 36.686
0.16 --undefined-- 37.966
0.17 --undefined-- 38.935
0.18 --undefined-- 38.860
0.19 --undefined-- 38.461
0.20 --undefined-- 44.512
0.21 --undefined-- 55.443
0.22 --undefined-- 63.574
0.23 --undefined-- 68.111
0.24 166.590 69.816
0.25 162.005 70.060
0.26 160.755 70.088
0.27 160.380 70.162
0.28 160.025 70.216
0.29 160.358 70.197
0.30 160.738 70.087
0.31 161.784 69.920
0.32 162.081 69.713
0.33 161.622 69.498
0.34 161.333 69.290
0.35 161.437 69.129
0.36 161.715 69.014
0.37 161.655 68.922
0.38 162.146 68.886
0.39 163.271 68.822
0.40 165.548 68.456
0.41 167.477 67.343
0.42 163.315 65.222
0.43 155.340 62.559
0.44 149.687 60.471
0.45 147.349 59.594
0.46 148.561 59.581
0.47 148.761 60.028
0.48 148.461 60.715
0.49 149.624 61.736
0.50 151.371 62.980
0.51 153.278 64.181
0.52 155.438 65.188
0.53 156.950 65.981
0.54 158.925 66.528
0.55 161.086 66.950
0.56 164.944 67.594
0.57 171.070 68.859
0.58 178.273 70.547
0.59 182.582 71.799
0.60 183.812 71.785
0.61 182.054 70.502
0.62 195.323 70.038
0.63 197.832 71.018
0.64 199.293 71.599
0.65 200.411 71.670
0.66 199.945 71.709
0.67 197.730 71.776
0.68 194.304 71.710
0.69 189.017 71.674
0.70 183.848 71.611
0.71 178.657 71.487
0.72 173.224 71.447
0.73 169.197 71.396
0.74 166.090 71.273
0.75 163.871 71.018
0.76 161.751 70.644
0.77 160.162 70.239
0.78 158.294 69.733
0.79 156.593 69.197
0.80 154.611 68.792
0.81 153.534 68.523
0.82 152.740 68.450
0.83 153.185 68.534
0.84 154.499 68.715
0.85 154.946 68.946
0.86 154.890 69.046
0.87 155.140 68.912
0.88 155.618 68.634
0.89 155.282 67.750
0.90 148.428 65.396
0.91 137.423 61.282
0.92 --undefined-- 55.499
0.93 --undefined-- 47.761
0.94 --undefined-- 38.507
0.95 --undefined-- 31.904
0.96 --undefined-- 29.362
0.97 --undefined-- 33.122
0.98 --undefined-- 42.136
0.99 --undefined-- 48.958
1.00 --undefined-- 51.819
1.01 --undefined-- 53.048
1.02 --undefined-- 59.724
1.03 184.897 65.828
1.04 179.838 69.056
1.05 178.417 70.611
1.06 177.789 71.303
1.07 175.498 71.212
1.08 172.611 70.087
1.09 169.525 67.471
1.10 165.283 62.855
1.11 164.977 55.959
1.12 --undefined-- 46.926
1.13 --undefined-- 37.247
1.14 --undefined-- 33.937
1.15 --undefined-- 36.941
1.16 --undefined-- 39.576
1.17 --undefined-- 40.440
1.18 --undefined-- 40.210
1.19 --undefined-- 40.048
1.20 --undefined-- 39.748
1.21 --undefined-- 38.939
1.22 --undefined-- 41.608
1.23 --undefined-- 45.303
1.24 --undefined-- 47.663
1.25 --undefined-- 55.924
1.26 --undefined-- 63.783
1.27 192.914 67.934
1.28 187.365 69.391
1.29 181.625 69.589
1.30 177.979 69.621
1.31 175.190 69.767
1.32 172.323 70.046
1.33 169.859 70.277
1.34 167.758 70.254
1.35 167.968 70.105
1.36 168.294 70.053
1.37 168.648 69.922
1.38 168.478 69.068
1.39 165.812 66.944
1.40 160.966 63.615
1.41 163.363 59.442
1.42 --undefined-- 53.889
1.43 --undefined-- 45.803
1.44 --undefined-- 37.081
1.45 --undefined-- 37.253
1.46 --undefined-- 37.863
1.47 --undefined-- 39.214
1.48 --undefined-- 47.339
1.49 --undefined-- 52.498
1.50 --undefined-- 53.981
1.51 --undefined-- 58.902
1.52 234.226 66.176
1.53 224.563 70.459
1.54 221.681 72.368
1.55 220.893 73.011
1.56 220.652 73.301
1.57 219.588 73.842
1.58 217.841 74.619
1.59 217.573 75.133
1.60 216.407 75.483
1.61 217.708 76.048
1.62 219.484 76.539
1.63 220.012 76.717
1.64 220.518 76.726
1.65 221.194 76.675
1.66 221.431 76.538
1.67 220.984 76.207
1.68 219.093 75.421
1.69 215.255 73.712
1.70 213.401 70.485
1.71 221.005 65.167
1.72 223.131 57.823
1.73 222.778 51.942
1.74 223.543 51.660
1.75 --undefined-- 54.065
1.76 --undefined-- 55.138
1.77 --undefined-- 54.199
1.78 --undefined-- 55.118
1.79 223.243 61.858
1.80 197.137 66.250
1.81 183.532 67.901
1.82 172.574 68.252
1.83 165.957 68.441
1.84 162.556 68.827
1.85 160.717 69.457
1.86 159.453 70.036
1.87 158.585 70.377
1.88 157.868 70.571
1.89 157.247 70.723
1.90 156.615 70.905
1.91 157.032 71.165
1.92 157.820 71.468
1.93 158.636 71.718
1.94 159.112 71.788
1.95 159.436 71.507
1.96 159.700 70.653
1.97 160.179 69.002
1.98 159.886 66.362
1.99 155.462 62.626
2.00 148.430 58.183
2.01 149.719 53.549
2.02 --undefined-- 47.723
2.03 --undefined-- 40.301
2.04 --undefined-- 35.930
2.05 --undefined-- 36.801
2.06 --undefined-- 43.715
2.07 --undefined-- 47.829
2.08 --undefined-- 48.120
2.09 --undefined-- 46.871
2.10 --undefined-- 52.181
2.11 183.356 58.914
2.12 176.345 62.513
2.13 163.184 63.663
2.14 143.863 63.722
2.15 135.984 63.827
2.16 133.389 64.087
2.17 132.016 64.177
2.18 131.702 64.088
2.19 132.402 63.981
2.20 133.092 63.960
2.21 132.662 64.042
2.22 132.486 64.091
2.23 132.652 63.971
2.24 132.337 63.779
2.25 132.136 63.624
2.26 132.204 63.456
2.27 131.796 63.167
2.28 130.165 62.410
2.29 126.914 60.689
2.30 124.810 57.542
2.31 128.619 52.627
2.32 --undefined-- 46.113
2.33 --undefined-- 41.356
2.34 --undefined-- 41.809
2.35 --undefined-- 42.610
2.36 --undefined-- 42.638
2.37 --undefined-- 42.289
2.38 --undefined-- 41.631
2.39 --undefined-- 40.886
2.40 --undefined-- 40.350
2.41 --undefined-- 40.327
2.42 --undefined-- 42.067
2.43 --undefined-- 49.327
2.44 --undefined-- 57.745
2.45 158.488 62.805
2.46 154.793 65.026
2.47 149.633 65.564
2.48 147.003 65.513
2.49 145.781 65.495
2.50 146.163 65.647
2.51 147.852 65.829
2.52 150.747 66.056
2.53 153.993 66.461
2.54 160.848 66.900
2.55 168.219 67.273
2.56 174.972 67.725
2.57 178.823 68.135
2.58 181.887 68.130
2.59 185.597 67.652
2.60 187.662 66.999
2.61 189.206 66.355
2.62 189.678 65.731
2.63 186.747 65.192
2.64 181.430 64.846
2.65 176.212 64.748
2.66 171.400 64.809
2.67 167.344 64.881
2.68 164.176 65.014
2.69 162.388 65.395
2.70 162.464 66.036
2.71 162.880 66.846
2.72 163.891 67.678
2.73 164.976 68.258
2.74 164.745 68.556
2.75 165.073 68.743
2.76 165.738 68.823
2.77 166.746 68.783
2.78 168.189 68.721
2.79 170.987 68.831
2.80 174.742 69.241
2.81 178.341 69.845
2.82 181.424 70.383
2.83 185.129 70.565
2.84 189.654 70.134
2.85 194.691 69.046
2.86 194.173 67.372
2.87 182.132 64.982
2.88 --undefined-- 61.983
2.89 82.011 59.619
2.90 81.501 58.522
2.91 79.785 57.965
2.92 210.374 58.495
2.93 196.643 59.355
2.94 166.482 60.848
2.95 165.347 62.866
2.96 171.869 64.793
2.97 171.990 66.454
2.98 172.528 67.666
2.99 174.360 68.367
3.00 174.153 68.572
3.01 173.759 68.474
3.02 175.134 68.304
3.03 177.217 68.206
3.04 179.006 68.206
3.05 180.028 68.252
3.06 182.508 68.394
3.07 187.368 68.652
3.08 192.383 68.672
3.09 194.714 67.870
3.10 193.877 65.783
3.11 194.258 61.967
3.12 196.204 55.837
3.13 --undefined-- 47.447
3.14 --undefined-- 41.186
3.15 --undefined-- 39.557
3.16 --undefined-- 39.919
3.17 --undefined-- 41.862
3.18 --undefined-- 43.905
3.19 --undefined-- 45.114
3.20 --undefined-- 52.093
3.21 --undefined-- 62.097
3.22 --undefined-- 67.999
3.23 259.477 70.344
3.24 248.585 69.902
3.25 230.359 67.070
3.26 --undefined-- 61.816
3.27 --undefined-- 54.893
3.28 --undefined-- 50.406
3.29 --undefined-- 46.830
3.30 --undefined-- 44.426
3.31 --undefined-- 49.705
3.32 --undefined-- 54.785
3.33 --undefined-- 59.101
3.34 175.140 62.348
3.35 177.309 64.712
3.36 181.483 66.797
3.37 177.261 68.362
3.38 166.921 69.089
3.39 164.385 69.309
3.40 162.065 69.329
3.41 159.915 69.202
3.42 159.175 68.873
3.43 159.682 68.395
3.44 159.848 67.874
3.45 158.393 67.274
3.46 157.538 66.285
3.47 156.124 64.412
3.48 153.777 61.361
3.49 158.243 57.094
3.50 --undefined-- 51.557
3.51 --undefined-- 46.352
3.52 --undefined-- 44.673
3.53 --undefined-- 45.102
3.54 --undefined-- 47.397
3.55 --undefined-- 50.757
3.56 --undefined-- 53.083
3.57 --undefined-- 53.350
3.58 --undefined-- 53.898
3.59 --undefined-- 61.750
3.60 251.704 67.910
3.61 241.428 71.039
3.62 239.662 72.114
3.63 240.610 72.089
3.64 244.296 71.705
3.65 245.047 71.547
3.66 242.497 71.764
3.67 237.658 72.036
3.68 233.051 72.176
3.69 227.878 72.150
3.70 222.437 72.044
3.71 217.839 71.940
3.72 212.208 71.799
3.73 206.018 71.682
3.74 198.963 71.610
3.75 190.649 71.325
3.76 181.518 70.771
3.77 174.937 70.219
3.78 170.861 69.784
3.79 167.212 69.138
3.80 163.437 67.695
3.81 160.411 64.976
3.82 165.428 60.951
3.83 174.467 55.953
3.84 --undefined-- 49.460
3.85 --undefined-- 46.109
3.86 --undefined-- 51.446
3.87 --undefined-- 56.658
3.88 --undefined-- 63.129
3.89 183.242 67.415
3.90 174.444 69.174
3.91 171.760 69.439
3.92 168.235 69.066
3.93 166.050 68.541
3.94 164.377 67.807
3.95 161.579 66.123
3.96 158.279 62.625
3.97 --undefined-- 56.538
3.98 --undefined-- 47.099
3.99 --undefined-- 35.682
4.00 --undefined-- 35.724
4.01 --undefined-- 41.561
4.02 --undefined-- 52.278
4.03 --undefined-- 61.759
4.04 175.050 67.074
4.05 173.900 69.595
4.06 172.683 70.589
4.07 171.896 70.907
4.08 171.445 70.714
4.09 171.203 69.862
4.10 170.821 68.023
4.11 170.316 64.816
4.12 166.050 59.637
4.13 --undefined-- 51.886
4.14 --undefined-- 40.671
4.15 --undefined-- 30.076
4.16 --undefined-- 27.853
4.17 --undefined-- 30.761
4.18 --undefined-- 33.338
4.19 --undefined-- 34.716
4.20 --undefined-- 42.395
4.21 --undefined-- 51.076
4.22 --undefined-- 59.843
4.23 223.067 67.109
4.24 220.743 71.199
4.25 218.799 72.786
4.26 217.779 73.223
4.27 217.070 73.415
4.28 216.719 73.413
4.29 217.217 73.407
4.30 218.393 73.613
4.31 219.514 73.901
4.32 220.589 74.096
4.33 221.263 74.196
4.34 221.975 74.277
4.35 222.652 74.382
4.36 223.020 74.454
4.37 223.126 74.459
4.38 222.634 74.404
4.39 221.762 74.232
4.40 220.560 73.904
4.41 219.475 73.452
4.42 217.513 72.912
4.43 213.134 72.202
4.44 203.737 71.050
4.45 194.075 69.060
4.46 173.092 66.351
4.47 --undefined-- 63.520
4.48 --undefined-- 59.533
4.49 --undefined-- 52.382
4.50 --undefined-- 42.154
4.51 --undefined-- 35.530
4.52 --undefined-- 32.314
4.53 --undefined-- 31.316
4.54 --undefined-- 31.427
4.55 --undefined-- 31.085
4.56 --undefined-- 33.691
4.57 --undefined-- 39.261
4.58 --undefined-- 44.592
4.59 --undefined-- 48.597
4.60 --undefined-- 50.771
4.61 --undefined-- 50.865
4.62 --undefined-- 50.159
4.63 --undefined-- 49.771
4.64 --undefined-- 50.646
4.65 --undefined-- 55.772
4.66 --undefined-- 62.443
4.67 171.814 66.586
4.68 162.695 68.240
4.69 152.632 68.273
4.70 146.575 67.805
4.71 142.843 67.524
4.72 142.114 67.367
4.73 141.185 66.804
4.74 139.661 65.314
4.75 134.640 62.430
4.76 128.696 57.681
4.77 --undefined-- 50.620
4.78 --undefined-- 42.354
4.79 --undefined-- 40.593
4.80 --undefined-- 44.192
4.81 --undefined-- 47.128
4.82 --undefined-- 49.513
4.83 --undefined-- 50.883
4.84 --undefined-- 50.635
4.85 --undefined-- 49.717
4.86 --undefined-- 48.642
4.87 --undefined-- 51.921
4.88 173.803 59.777
4.89 176.842 65.090
4.90 172.297 67.532
4.91 163.811 68.108
4.92 159.395 67.701
4.93 155.547 67.024
4.94 154.457 66.627
4.95 154.456 66.543
4.96 154.459 66.641
4.97 154.533 66.842
4.98 154.449 67.029
4.99 154.064 67.078
5.00 153.005 66.799
5.01 150.870 66.093
5.02 145.969 65.333
5.03 142.355 65.046
5.04 139.389 65.227
5.05 136.833 65.632
5.06 136.834 66.055
5.07 136.832 66.459
5.08 135.702 66.862
5.09 135.316 67.164
5.10 136.302 67.313
5.11 137.719 67.339
5.12 139.301 67.405
5.13 141.185 67.497
5.14 142.043 67.439
5.15 141.252 67.103
5.16 139.069 66.306
5.17 133.688 64.794
5.18 127.535 62.010
5.19 124.177 57.667
5.20 --undefined-- 57.523
5.21 --undefined-- 63.264
5.22 162.025 66.786
5.23 154.509 68.271
5.24 154.535 68.939
5.25 153.381 69.230
5.26 152.528 69.465
5.27 153.142 70.041
5.28 153.950 70.755
5.29 154.577 71.395
5.30 154.008 71.717
5.31 152.509 71.488
5.32 149.210 70.891
5.33 145.368 70.508
5.34 141.241 70.002
5.35 --undefined-- 68.277
5.36 --undefined-- 65.260
5.37 --undefined-- 61.293
5.38 --undefined-- 55.306
5.39 --undefined-- 45.507
5.40 --undefined-- 34.625
5.41 --undefined-- 31.075
5.42 --undefined-- 32.306
5.43 --undefined-- 33.482
5.44 --undefined-- 33.686
5.45 --undefined-- 32.841
5.46 --undefined-- 31.758
5.47 --undefined-- 32.023
5.48 --undefined-- 32.532
5.49 --undefined-- 30.898
5.50 --undefined-- 28.520
5.51 --undefined-- 28.905
5.52 --undefined-- 30.372
5.53 --undefined-- 31.470
5.54 --undefined-- 31.307
5.55 --undefined-- 30.663
5.56 --undefined-- 30.853
5.57 --undefined-- 33.670
5.58 --undefined-- 36.093
5.59 --undefined-- 35.805
5.60 --undefined-- 34.174
5.61 --undefined-- 34.144
5.62 --undefined-- 35.285
5.63 --undefined-- 35.010
5.64 --undefined-- 33.535
5.65 --undefined-- 35.064
5.66 --undefined-- 35.892
5.67 --undefined-- 34.176
5.68 --undefined-- 32.856
5.69 --undefined-- 34.789
5.70 --undefined-- 35.934
5.71 --undefined-- 34.387
5.72 --undefined-- 33.093
5.73 --undefined-- 34.913
5.74 --undefined-- 35.211
5.75 --undefined-- 33.820
5.76 --undefined-- 35.958
5.77 --undefined-- 38.163
5.78 --undefined-- 37.423
5.79 --undefined-- 34.295
5.80 --undefined-- 31.751
5.81 --undefined-- 30.565
5.82 --undefined-- 27.826
5.83 --undefined-- 26.835
5.84 --undefined-- 30.288
5.85 --undefined-- 32.253
5.86 --undefined-- 31.674
5.87 --undefined-- 29.603
5.88 --undefined-- 28.732
5.89 --undefined-- 29.352
5.90 --undefined-- 30.706
5.91 --undefined-- 32.359
5.92 --undefined-- 32.203
5.93 --undefined-- 30.467
5.94 --undefined-- 31.521
5.95 --undefined-- 33.745
5.96 --undefined-- 33.528
5.97 --undefined-- 31.501
5.98 --undefined-- 30.813
5.99 --undefined-- 32.316
6.00 --undefined-- 33.364
6.01 --undefined-- 32.526
6.02 --undefined-- 30.650
6.03 --undefined-- 31.989
6.04 --undefined-- 35.161
6.05 --undefined-- 36.312
6.06 --undefined-- 34.819
6.07 --undefined-- 32.843
6.08 --undefined-- 32.912
6.09 --undefined-- 33.315
6.10 --undefined-- 33.516
6.11 --undefined-- 33.335
6.12 --undefined-- 32.911
6.13 --undefined-- 35.394
6.14 --undefined-- 37.255
6.15 --undefined-- 37.378
6.16 --undefined-- 37.892
6.17 --undefined-- 37.263
6.18 --undefined-- 34.658
6.19 --undefined-- 34.497
6.20 --undefined-- 35.384
6.21 --undefined-- 37.255
6.22 --undefined-- 51.761
6.23 --undefined-- 61.977
6.24 --undefined-- 67.716
6.25 182.739 70.500
6.26 184.555 71.755
6.27 181.522 72.531
6.28 179.677 73.248
6.29 179.000 73.836
6.30 178.532 74.024
6.31 179.322 73.646
6.32 181.705 72.719
6.33 181.794 70.836
6.34 179.161 67.385
6.35 185.305 62.346
6.36 197.757 56.413
6.37 --undefined-- 48.906
6.38 --undefined-- 47.207
6.39 --undefined-- --undefined--
6.40 289.959 --undefined--
6.41 --undefined-- --undefined--
6.42 --undefined-- --undefined--
