Time Pitch Intensity
0.01 --undefined-- --undefined--
0.02 --undefined-- --undefined--
0.03 --undefined-- --undefined--
0.04 --undefined-- --undefined--
0.05 --undefined-- 41.648
0.06 --undefined-- 42.154
0.07 --undefined-- 43.755
0.08 --undefined-- 49.620
0.09 --undefined-- 60.232
0.10 184.174 67.878
0.11 170.655 72.103
0.12 161.464 73.658
0.13 155.973 73.670
0.14 155.573 73.709
0.15 155.807 74.157
0.16 155.070 74.538
0.17 153.339 74.612
0.18 151.193 74.236
0.19 148.604 73.499
0.20 146.425 72.560
0.21 144.299 71.266
0.22 141.231 68.883
0.23 123.409 64.607
0.24 --undefined-- 58.875
0.25 --undefined-- 53.578
0.26 --undefined-- 50.670
0.27 --undefined-- 56.110
0.28 --undefined-- 60.938
0.29 --undefined-- 65.895
0.30 --undefined-- 70.758
0.31 --undefined-- 73.515
0.32 --undefined-- 74.002
0.33 --undefined-- 72.277
0.34 --undefined-- 68.519
0.35 115.441 65.446
0.36 119.371 65.527
0.37 119.436 65.908
0.38 119.404 66.077
0.39 119.951 66.319
0.40 123.337 66.797
0.41 126.588 67.831
0.42 127.878 69.497
0.43 127.932 71.152
0.44 126.604 72.085
0.45 124.863 71.721
0.46 121.341 69.800
0.47 111.369 66.103
0.48 --undefined-- 60.190
0.49 --undefined-- 51.737
0.50 --undefined-- 45.142
0.51 --undefined-- 49.422
0.52 --undefined-- 55.913
0.53 --undefined-- 58.762
0.54 --undefined-- 58.278
0.55 --undefined-- 56.890
0.56 --undefined-- 59.708
0.57 164.673 65.878
0.58 161.715 70.043
0.59 152.970 72.098
0.60 149.646 73.334
0.61 146.972 74.415
0.62 146.247 75.173
0.63 146.175 75.452
0.64 145.775 75.009
0.65 146.680 74.339
0.66 147.037 74.133
0.67 146.899 73.513
0.68 145.867 71.760
0.69 144.381 68.619
0.70 137.363 63.658
0.71 --undefined-- 57.332
0.72 --undefined-- 51.677
0.73 --undefined-- 46.350
0.74 --undefined-- 47.462
0.75 --undefined-- 57.097
0.76 --undefined-- 64.523
0.77 --undefined-- 69.180
0.78 --undefined-- 71.461
0.79 127.990 71.871
0.80 120.939 71.394
0.81 118.285 70.995
0.82 116.773 70.583
0.83 116.453 70.187
0.84 112.706 70.007
0.85 112.258 69.435
0.86 112.709 67.984
0.87 112.112 65.670
0.88 108.775 63.521
0.89 112.729 63.332
0.90 117.684 64.297
0.91 119.659 64.957
0.92 121.396 65.030
0.93 120.821 64.654
0.94 119.276 63.924
0.95 116.437 62.696
0.96 108.488 60.733
0.97 --undefined-- 58.024
0.98 --undefined-- 54.962
0.99 --undefined-- 51.310
1.00 --undefined-- 47.731
1.01 --undefined-- 47.303
1.02 --undefined-- 45.707
1.03 --undefined-- 41.228
1.04 --undefined-- 38.203
1.05 --undefined-- 38.651
1.06 --undefined-- 38.555
1.07 --undefined-- 37.807
1.08 --undefined-- 38.181
1.09 --undefined-- 38.578
1.10 --undefined-- 37.973
1.11 --undefined-- 39.625
1.12 --undefined-- 40.830
1.13 --undefined-- 39.653
1.14 --undefined-- 38.392
1.15 --undefined-- 37.768
1.16 --undefined-- 37.295
1.17 --undefined-- 37.534
1.18 --undefined-- 38.845
1.19 --undefined-- 40.532
1.20 --undefined-- 41.256
1.21 --undefined-- 41.237
1.22 --undefined-- 41.765
1.23 --undefined-- 42.729
1.24 --undefined-- 43.576
1.25 --undefined-- 44.105
1.26 --undefined-- 44.642
1.27 --undefined-- 44.972
1.28 --undefined-- 44.869
1.29 --undefined-- 44.653
1.30 --undefined-- 43.863
1.31 --undefined-- 42.954
1.32 --undefined-- 42.875
1.33 --undefined-- 43.301
1.34 --undefined-- 42.852
1.35 --undefined-- 41.352
1.36 --undefined-- 39.740
1.37 --undefined-- 39.226
1.38 --undefined-- 40.113
1.39 --undefined-- 40.239
1.40 --undefined-- 39.107
1.41 --undefined-- 38.948
1.42 --undefined-- 41.268
1.43 --undefined-- 42.521
1.44 --undefined-- 44.005
1.45 --undefined-- 54.413
1.46 --undefined-- 63.220
1.47 --undefined-- 70.156
1.48 210.848 75.691
1.49 217.080 78.831
1.50 219.895 79.614
1.51 219.823 78.934
1.52 214.863 77.118
1.53 205.674 73.151
1.54 --undefined-- 66.085
1.55 --undefined-- 58.076
1.56 --undefined-- 60.876
1.57 --undefined-- 64.699
1.58 --undefined-- 68.005
1.59 171.967 72.403
1.60 167.351 75.789
1.61 163.523 77.386
1.62 156.340 77.312
1.63 150.223 75.693
1.64 143.649 72.666
1.65 133.640 68.249
1.66 --undefined-- 62.004
1.67 --undefined-- 55.116
1.68 --undefined-- 51.855
1.69 --undefined-- 51.483
1.70 --undefined-- 56.598
1.71 --undefined-- 64.386
1.72 230.394 69.557
1.73 204.515 72.467
1.74 197.312 73.819
1.75 192.629 73.888
1.76 185.475 72.905
1.77 181.252 71.728
1.78 175.333 71.105
1.79 168.061 70.213
1.80 160.090 68.167
1.81 148.481 64.575
1.82 --undefined-- 60.096
1.83 --undefined-- 60.752
1.84 161.694 67.129
1.85 157.848 71.409
1.86 144.017 72.916
1.87 130.447 72.326
1.88 119.750 70.977
1.89 111.238 70.038
1.90 104.045 68.849
1.91 95.247 66.896
1.92 88.307 64.471
1.93 87.382 61.330
1.94 --undefined-- 57.122
1.95 --undefined-- 52.593
1.96 --undefined-- 48.472
1.97 --undefined-- 45.593
1.98 --undefined-- 45.494
1.99 --undefined-- 48.293
2.00 --undefined-- 53.382
2.01 --undefined-- 56.710
2.02 --undefined-- 60.448
2.03 --undefined-- 65.764
2.04 162.517 70.001
2.05 161.146 72.845
2.06 160.677 74.367
2.07 159.331 74.563
2.08 157.174 73.420
2.09 152.150 71.014
2.10 149.260 68.477
2.11 153.381 67.726
2.12 152.528 68.365
2.13 153.055 70.183
2.14 154.016 72.844
2.15 146.268 75.221
2.16 142.140 76.493
2.17 134.043 76.615
2.18 129.749 76.143
2.19 125.169 75.178
2.20 120.507 74.031
2.21 118.586 73.480
2.22 117.701 73.479
2.23 116.935 73.672
2.24 117.121 73.890
2.25 117.352 73.846
2.26 118.058 73.383
2.27 118.796 72.696
2.28 119.296 71.882
2.29 117.718 70.974
2.30 114.483 70.010
2.31 109.912 68.653
2.32 106.438 66.883
2.33 --undefined-- 65.163
2.34 --undefined-- 63.206
2.35 --undefined-- 60.094
2.36 --undefined-- 56.237
2.37 --undefined-- 52.547
2.38 --undefined-- 50.516
2.39 --undefined-- 47.479
2.40 --undefined-- 42.406
2.41 --undefined-- 38.529
2.42 --undefined-- 36.006
2.43 --undefined-- 36.258
2.44 --undefined-- 36.796
2.45 --undefined-- 37.221
2.46 --undefined-- 38.178
2.47 --undefined-- 39.070
2.48 --undefined-- 39.810
2.49 --undefined-- 38.918
2.50 --undefined-- 38.271
2.51 --undefined-- 39.181
2.52 --undefined-- 38.649
2.53 --undefined-- 38.438
2.54 --undefined-- 38.695
2.55 --undefined-- 38.142
2.56 --undefined-- 38.023
2.57 --undefined-- 43.818
2.58 --undefined-- 53.266
2.59 --undefined-- 60.222
2.60 163.288 65.704
2.61 171.197 70.433
2.62 167.801 73.916
2.63 164.640 75.732
2.64 162.541 76.213
2.65 160.099 76.157
2.66 159.679 75.831
2.67 159.462 74.462
2.68 152.449 71.023
2.69 139.284 65.894
2.70 --undefined-- 67.611
2.71 195.572 73.595
2.72 184.684 76.940
2.73 173.971 78.283
2.74 168.023 79.128
2.75 165.512 79.626
2.76 163.505 79.217
2.77 159.595 78.007
2.78 154.621 76.145
2.79 149.611 72.963
2.80 136.666 67.546
2.81 --undefined-- 59.919
2.82 --undefined-- 52.303
2.83 --undefined-- 47.161
2.84 --undefined-- 46.039
2.85 --undefined-- 51.836
2.86 --undefined-- 56.677
2.87 --undefined-- 58.779
2.88 --undefined-- 62.370
2.89 149.339 66.429
2.90 133.459 68.307
2.91 122.177 68.761
2.92 118.925 69.057
2.93 117.999 69.338
2.94 118.793 69.275
2.95 121.426 68.779
2.96 125.522 67.932
2.97 132.368 67.494
2.98 141.495 68.417
2.99 150.616 69.774
3.00 161.497 70.510
3.01 172.249 70.708
3.02 181.180 70.857
3.03 186.876 71.062
3.04 187.291 70.941
3.05 182.311 69.722
3.06 172.546 66.581
3.07 165.598 61.173
3.08 --undefined-- 55.487
3.09 --undefined-- 55.701
3.10 --undefined-- 58.864
3.11 --undefined-- 62.148
3.12 --undefined-- 63.769
3.13 --undefined-- 64.153
3.14 --undefined-- 64.057
3.15 --undefined-- 63.088
3.16 --undefined-- 62.134
3.17 --undefined-- 65.402
3.18 150.206 69.232
3.19 140.114 70.936
3.20 136.241 71.177
3.21 129.367 71.022
3.22 124.226 71.108
3.23 120.860 71.337
3.24 120.202 71.582
3.25 121.555 71.966
3.26 123.845 72.290
3.27 128.039 72.311
3.28 132.497 72.141
3.29 139.063 72.189
3.30 141.545 72.495
3.31 143.850 72.725
3.32 145.420 72.601
3.33 147.061 71.709
3.34 141.398 69.913
3.35 130.957 67.745
3.36 129.698 65.129
3.37 124.259 60.663
3.38 --undefined-- 53.434
3.39 --undefined-- 45.134
3.40 --undefined-- 41.273
3.41 --undefined-- 40.224
3.42 --undefined-- 39.849
3.43 --undefined-- 39.679
3.44 --undefined-- 38.789
3.45 --undefined-- 38.719
3.46 --undefined-- 38.939
3.47 --undefined-- 38.812
3.48 --undefined-- 39.122
3.49 --undefined-- 39.068
3.50 --undefined-- 39.298
3.51 --undefined-- 40.144
3.52 --undefined-- 41.769
3.53 --undefined-- 50.798
3.54 --undefined-- 61.526
3.55 169.665 68.967
3.56 162.864 73.455
3.57 151.499 75.847
3.58 146.470 76.842
3.59 142.907 76.718
3.60 140.025 75.767
3.61 137.816 74.746
3.62 137.935 74.041
3.63 137.636 73.278
3.64 135.723 72.267
3.65 133.309 71.016
3.66 132.540 69.476
3.67 132.212 67.211
3.68 118.460 63.389
3.69 --undefined-- 57.981
3.70 --undefined-- 52.676
3.71 --undefined-- 56.515
3.72 --undefined-- 65.422
3.73 --undefined-- 71.193
3.74 153.078 74.031
3.75 142.613 74.540
3.76 132.373 73.681
3.77 128.649 72.796
3.78 126.425 72.279
3.79 125.673 71.928
3.80 125.277 71.557
3.81 124.854 71.145
3.82 124.747 70.787
3.83 125.005 70.649
3.84 124.818 70.543
3.85 123.324 69.517
3.86 118.453 66.673
3.87 115.282 61.679
3.88 --undefined-- 55.350
3.89 --undefined-- 50.836
3.90 --undefined-- 48.345
3.91 --undefined-- 46.647
3.92 --undefined-- 46.261
3.93 --undefined-- 46.555
3.94 --undefined-- 52.179
3.95 --undefined-- 62.104
3.96 174.786 68.537
3.97 155.527 71.781
3.98 150.970 72.942
3.99 145.669 73.107
4.00 143.049 73.192
4.01 142.544 73.429
4.02 142.135 73.464
4.03 141.788 73.316
4.04 141.341 73.241
4.05 141.973 73.288
4.06 142.284 73.423
4.07 143.108 73.573
4.08 143.852 73.768
4.09 144.438 73.724
4.10 143.681 72.510
4.11 140.966 69.860
4.12 138.724 67.617
4.13 142.604 67.378
4.14 146.175 68.008
4.15 148.509 68.582
4.16 149.147 68.554
4.17 147.946 67.642
4.18 142.012 65.691
4.19 135.500 62.747
4.20 133.193 58.674
4.21 --undefined-- 53.632
4.22 --undefined-- 50.076
4.23 --undefined-- 51.584
4.24 --undefined-- 54.956
4.25 --undefined-- 57.801
4.26 --undefined-- 59.324
4.27 --undefined-- 59.299
4.28 --undefined-- 57.848
4.29 --undefined-- 56.996
4.30 --undefined-- 61.864
4.31 152.075 66.549
4.32 142.507 68.704
4.33 138.810 69.275
4.34 132.851 69.151
4.35 130.444 68.858
4.36 128.427 68.833
4.37 126.853 69.028
4.38 126.013 69.164
4.39 125.670 69.257
4.40 126.402 69.259
4.41 127.527 69.024
4.42 128.632 68.605
4.43 128.345 68.099
4.44 126.637 67.503
4.45 121.651 66.793
4.46 116.909 66.059
4.47 117.699 64.834
4.48 117.683 61.965
4.49 --undefined-- 56.503
4.50 --undefined-- 48.910
4.51 --undefined-- 43.694
4.52 --undefined-- 42.097
4.53 --undefined-- 41.772
4.54 --undefined-- 41.137
4.55 --undefined-- 39.207
4.56 --undefined-- 37.516
4.57 --undefined-- 38.116
4.58 --undefined-- 38.430
4.59 --undefined-- 38.498
4.60 --undefined-- 38.483
4.61 --undefined-- 39.255
4.62 --undefined-- 40.140
4.63 --undefined-- 40.095
4.64 --undefined-- 39.265
4.65 --undefined-- 38.017
4.66 --undefined-- 36.945
4.67 --undefined-- 36.055
4.68 --undefined-- 35.620
4.69 --undefined-- 35.721
4.70 --undefined-- 36.735
4.71 --undefined-- 37.562
4.72 --undefined-- 37.472
4.73 --undefined-- 37.094
4.74 --undefined-- 35.681
4.75 --undefined-- 33.832
4.76 --undefined-- 34.785
4.77 --undefined-- 35.670
4.78 --undefined-- 34.412
4.79 --undefined-- 33.957
4.80 --undefined-- 36.607
4.81 --undefined-- 38.029
4.82 --undefined-- 38.014
4.83 --undefined-- 39.499
4.84 --undefined-- 41.002
4.85 --undefined-- 41.004
4.86 --undefined-- 40.827
4.87 --undefined-- 40.527
4.88 --undefined-- 39.744
4.89 --undefined-- 39.569
4.90 --undefined-- 40.060
4.91 --undefined-- 39.300
4.92 --undefined-- 37.469
4.93 --undefined-- 36.718
4.94 --undefined-- 38.356
4.95 --undefined-- 40.452
4.96 --undefined-- 40.740
4.97 --undefined-- 39.330
4.98 --undefined-- 37.645
4.99 --undefined-- 37.260
5.00 --undefined-- 37.727
5.01 --undefined-- 38.097
5.02 --undefined-- 38.133
5.03 --undefined-- 37.736
5.04 --undefined-- 38.795
5.05 --undefined-- 39.407
5.06 --undefined-- 38.107
5.07 --undefined-- 36.776
5.08 --undefined-- 37.503
5.09 --undefined-- 38.632
5.10 --undefined-- 38.656
5.11 --undefined-- 38.353
5.12 --undefined-- 38.003
5.13 --undefined-- 36.359
5.14 --undefined-- 34.943
5.15 --undefined-- 35.356
5.16 --undefined-- 35.653
5.17 --undefined-- 34.927
5.18 --undefined-- 35.935
5.19 --undefined-- 37.905
5.20 --undefined-- 38.088
5.21 --undefined-- 37.144
5.22 --undefined-- 37.801
5.23 --undefined-- 38.327
5.24 --undefined-- 36.988
5.25 --undefined-- 35.873
5.26 --undefined-- 36.380
5.27 --undefined-- 36.840
5.28 --undefined-- 36.473
5.29 --undefined-- 37.102
5.30 --undefined-- 38.865
5.31 --undefined-- 38.568
5.32 --undefined-- 36.586
5.33 --undefined-- 36.213
5.34 --undefined-- 37.900
5.35 --undefined-- 38.245
5.36 --undefined-- 37.823
5.37 --undefined-- 38.533
5.38 --undefined-- 39.590
5.39 --undefined-- 42.186
5.40 --undefined-- 50.174
5.41 --undefined-- 56.964
5.42 165.542 60.550
5.43 146.751 61.854
5.44 146.051 62.727
5.45 153.418 64.782
5.46 166.917 68.747
5.47 185.328 73.622
5.48 190.012 77.618
5.49 193.363 80.426
5.50 196.901 82.218
5.51 201.148 83.206
5.52 205.623 83.576
5.53 210.667 83.426
5.54 215.843 82.768
5.55 220.925 81.530
5.56 225.841 79.729
5.57 225.915 77.577
5.58 221.825 75.186
5.59 215.917 73.906
5.60 214.309 73.885
5.61 211.758 73.717
5.62 210.019 73.302
5.63 209.126 72.877
5.64 207.482 72.265
5.65 206.717 71.424
5.66 209.344 70.480
5.67 210.473 69.197
5.68 206.329 67.018
5.69 205.068 63.961
5.70 198.219 59.726
5.71 --undefined-- 53.797
5.72 --undefined-- 49.617
5.73 --undefined-- 49.952
5.74 --undefined-- 50.661
5.75 --undefined-- 53.332
5.76 --undefined-- 62.038
5.77 --undefined-- 69.095
5.78 --undefined-- 73.229
5.79 --undefined-- 75.133
5.80 139.469 75.339
5.81 133.595 74.343
5.82 125.171 72.957
5.83 121.710 71.886
5.84 116.198 70.909
5.85 112.400 69.806
5.86 110.477 69.048
5.87 111.448 69.038
5.88 112.203 69.476
5.89 112.542 69.939
5.90 111.938 70.189
5.91 110.834 70.072
5.92 108.650 69.605
5.93 106.293 69.003
5.94 104.555 68.515
5.95 103.324 68.034
5.96 103.025 66.955
5.97 98.026 64.793
5.98 --undefined-- 62.429
5.99 --undefined-- 59.886
6.00 --undefined-- 57.297
6.01 --undefined-- 55.290
6.02 --undefined-- 53.738
6.03 --undefined-- 51.882
6.04 --undefined-- 48.456
6.05 --undefined-- 43.427
6.06 --undefined-- 38.964
6.07 --undefined-- 37.612
6.08 --undefined-- 37.926
6.09 --undefined-- 38.900
6.10 --undefined-- 40.585
6.11 --undefined-- 40.873
6.12 --undefined-- 39.758
6.13 --undefined-- 39.615
6.14 --undefined-- 39.782
6.15 --undefined-- 40.468
6.16 --undefined-- 40.708
6.17 --undefined-- 39.744
6.18 --undefined-- 38.450
6.19 --undefined-- 37.542
6.20 --undefined-- 38.157
6.21 --undefined-- 37.996
6.22 --undefined-- 36.918
6.23 --undefined-- 38.192
6.24 --undefined-- 41.869
6.25 --undefined-- 45.900
6.26 --undefined-- 48.875
6.27 --undefined-- 51.410
6.28 --undefined-- 57.382
6.29 --undefined-- 65.462
6.30 175.688 71.277
6.31 149.445 74.928
6.32 147.127 77.174
6.33 145.793 78.411
6.34 146.673 78.952
6.35 147.725 78.800
6.36 148.398 77.710
6.37 149.788 75.931
6.38 155.652 74.119
6.39 155.072 72.486
6.40 154.893 70.983
6.41 155.449 69.645
6.42 162.909 69.467
6.43 176.819 70.960
6.44 194.657 73.125
6.45 205.136 74.611
6.46 207.409 75.285
6.47 211.781 76.209
6.48 214.728 77.150
6.49 216.275 76.879
6.50 216.410 74.763
6.51 206.864 71.511
6.52 204.536 69.444
6.53 200.619 68.824
6.54 197.321 68.895
6.55 192.179 69.357
6.56 185.818 70.394
6.57 181.879 72.497
6.58 168.130 74.625
6.59 160.248 75.590
6.60 150.917 75.929
6.61 144.820 --undefined--
6.62 138.129 --undefined--
6.63 --undefined-- --undefined--
6.64 --undefined-- --undefined--
