Time Pitch Intensity
0.01 --undefined-- --undefined--
0.02 --undefined-- --undefined--
0.03 --undefined-- --undefined--
0.04 123.846 --undefined--
0.05 133.245 62.829
0.06 130.805 66.462
0.07 128.068 69.388
0.08 128.863 70.580
0.09 127.525 70.673
0.10 126.008 70.388
0.11 124.679 69.887
0.12 122.985 69.196
0.13 117.749 68.193
0.14 114.615 66.342
0.15 --undefined-- 62.909
0.16 --undefined-- 57.369
0.17 --undefined-- 51.213
0.18 --undefined-- 47.136
0.19 --undefined-- 43.950
0.20 --undefined-- 40.999
0.21 --undefined-- 38.770
0.22 --undefined-- 38.064
0.23 --undefined-- 37.241
0.24 --undefined-- 36.833
0.25 --undefined-- 36.539
0.26 --undefined-- 35.258
0.27 --undefined-- 34.558
0.28 --undefined-- 35.094
0.29 --undefined-- 35.631
0.30 --undefined-- 36.723
0.31 --undefined-- 37.501
0.32 --undefined-- 36.629
0.33 --undefined-- 37.425
0.34 --undefined-- 42.063
0.35 --undefined-- 45.022
0.36 --undefined-- 45.003
0.37 --undefined-- 43.900
0.38 --undefined-- 46.422
0.39 --undefined-- 50.492
0.40 --undefined-- 56.873
0.41 --undefined-- 64.294
0.42 170.629 69.031
0.43 164.454 71.446
0.44 161.874 72.638
0.45 157.699 73.326
0.46 155.371 73.539
0.47 151.006 73.224
0.48 153.456 72.871
0.49 150.788 72.971
0.50 147.816 73.435
0.51 145.405 73.846
0.52 135.132 74.060
0.53 136.155 74.040
0.54 138.997 73.487
0.55 136.226 72.444
0.56 133.464 71.104
0.57 126.192 69.636
0.58 123.719 68.313
0.59 115.419 67.290
0.60 112.210 66.534
0.61 112.507 65.748
0.62 114.478 65.028
0.63 115.296 64.764
0.64 116.885 64.912
0.65 114.687 64.420
0.66 --undefined-- 62.370
0.67 --undefined-- 59.072
0.68 --undefined-- 55.367
0.69 --undefined-- 51.188
0.70 --undefined-- 48.450
0.71 --undefined-- 48.418
0.72 --undefined-- 49.298
0.73 --undefined-- 51.647
0.74 --undefined-- 59.611
0.75 184.611 66.845
0.76 172.025 71.392
0.77 168.776 73.671
0.78 164.307 74.173
0.79 163.686 74.296
0.80 164.974 75.315
0.81 164.545 76.156
0.82 162.980 75.843
0.83 164.043 74.871
0.84 165.658 73.877
0.85 165.948 72.805
0.86 165.404 72.066
0.87 167.215 71.808
0.88 170.747 71.669
0.89 171.569 70.764
0.90 158.211 67.979
0.91 145.444 62.814
0.92 149.525 55.971
0.93 --undefined-- 51.112
0.94 --undefined-- 59.971
0.95 --undefined-- 68.069
0.96 --undefined-- 72.608
0.97 --undefined-- 74.675
0.98 146.532 75.280
0.99 141.073 74.817
1.00 136.323 73.626
1.01 135.013 72.472
1.02 133.720 71.727
1.03 132.355 71.389
1.04 130.487 71.162
1.05 124.988 70.958
1.06 126.158 71.183
1.07 130.357 71.512
1.08 131.366 71.502
1.09 131.808 71.280
1.10 132.680 71.041
1.11 133.604 70.689
1.12 133.671 70.008
1.13 132.165 68.782
1.14 126.569 66.690
1.15 --undefined-- 63.480
1.16 --undefined-- 58.891
1.17 --undefined-- 52.002
1.18 --undefined-- 43.369
1.19 --undefined-- 39.496
1.20 --undefined-- 38.151
1.21 --undefined-- 37.258
1.22 --undefined-- 36.289
1.23 --undefined-- 36.145
1.24 --undefined-- 37.100
1.25 --undefined-- 38.500
1.26 --undefined-- 38.854
1.27 --undefined-- 38.621
1.28 --undefined-- 39.178
1.29 --undefined-- 38.812
1.30 --undefined-- 37.260
1.31 --undefined-- 36.511
1.32 --undefined-- 35.754
1.33 --undefined-- 35.923
1.34 --undefined-- 37.826
1.35 --undefined-- 39.487
1.36 --undefined-- 39.990
1.37 --undefined-- 39.467
1.38 --undefined-- 39.775
1.39 --undefined-- 40.269
1.40 --undefined-- 39.582
1.41 --undefined-- 39.199
1.42 --undefined-- 39.432
1.43 --undefined-- 39.664
1.44 --undefined-- 39.442
1.45 --undefined-- 39.023
1.46 --undefined-- 38.732
1.47 --undefined-- 38.650
1.48 --undefined-- 38.933
1.49 --undefined-- 39.939
1.50 --undefined-- 40.713
1.51 --undefined-- 40.959
1.52 --undefined-- 41.326
1.53 --undefined-- 41.526
1.54 --undefined-- 41.078
1.55 --undefined-- 40.162
1.56 --undefined-- 39.756
1.57 --undefined-- 39.714
1.58 --undefined-- 39.493
1.59 --undefined-- 39.062
1.60 --undefined-- 37.949
1.61 --undefined-- 36.868
1.62 --undefined-- 38.459
1.63 --undefined-- 40.723
1.64 --undefined-- 40.980
1.65 --undefined-- 39.871
1.66 --undefined-- 45.834
1.67 --undefined-- 55.842
1.68 --undefined-- 62.056
1.69 --undefined-- 65.785
1.70 161.112 69.044
1.71 163.288 72.651
1.72 166.062 75.355
1.73 168.153 76.433
1.74 168.300 76.336
1.75 161.210 75.812
1.76 168.631 75.404
1.77 175.634 75.422
1.78 177.550 75.638
1.79 178.418 75.657
1.80 178.800 75.298
1.81 177.725 74.345
1.82 173.645 72.414
1.83 166.738 69.044
1.84 155.119 64.820
1.85 --undefined-- 68.797
1.86 215.193 75.348
1.87 210.722 78.669
1.88 203.180 79.437
1.89 200.056 79.209
1.90 199.384 79.105
1.91 198.043 79.000
1.92 196.788 78.755
1.93 196.034 78.478
1.94 196.572 77.972
1.95 196.979 76.324
1.96 196.228 72.354
1.97 183.764 65.217
1.98 188.793 55.398
1.99 --undefined-- 47.330
2.00 --undefined-- 44.556
2.01 --undefined-- 46.890
2.02 --undefined-- 58.973
2.03 --undefined-- 68.522
2.04 --undefined-- 73.974
2.05 --undefined-- 76.185
2.06 --undefined-- 76.195
2.07 143.757 75.271
2.08 140.912 74.305
2.09 140.530 73.676
2.10 141.117 73.543
2.11 141.406 73.608
2.12 141.449 73.788
2.13 142.238 74.134
2.14 144.397 74.493
2.15 146.263 74.563
2.16 146.152 74.184
2.17 145.686 73.623
2.18 145.500 73.110
2.19 145.689 72.499
2.20 144.911 71.608
2.21 144.929 69.706
2.22 135.981 65.855
2.23 120.872 59.864
2.24 --undefined-- 53.287
2.25 --undefined-- 52.382
2.26 --undefined-- 54.981
2.27 --undefined-- 54.864
2.28 --undefined-- 53.777
2.29 --undefined-- 54.401
2.30 --undefined-- 58.695
2.31 156.979 65.018
2.32 154.080 68.957
2.33 146.167 70.496
2.34 138.595 70.453
2.35 136.383 69.830
2.36 135.584 69.637
2.37 136.570 70.034
2.38 140.451 70.235
2.39 144.937 70.362
2.40 145.744 70.581
2.41 151.124 69.961
2.42 159.024 68.230
2.43 159.138 66.415
2.44 159.011 65.376
2.45 159.135 64.722
2.46 152.589 64.552
2.47 152.066 65.335
2.48 152.011 67.172
2.49 152.279 69.847
2.50 152.093 72.435
2.51 150.435 73.803
2.52 142.814 73.756
2.53 139.643 73.058
2.54 139.233 72.659
2.55 139.790 72.623
2.56 140.744 72.498
2.57 141.234 71.771
2.58 139.327 69.798
2.59 --undefined-- 66.128
2.60 --undefined-- 61.245
2.61 --undefined-- 56.600
2.62 --undefined-- 52.751
2.63 --undefined-- 48.948
2.64 --undefined-- 43.889
2.65 --undefined-- 41.334
2.66 --undefined-- 42.179
2.67 --undefined-- 44.261
2.68 --undefined-- 44.551
2.69 --undefined-- 42.629
2.70 --undefined-- 40.828
2.71 --undefined-- 39.632
2.72 --undefined-- 38.114
2.73 --undefined-- 37.709
2.74 --undefined-- 37.891
2.75 --undefined-- 36.379
2.76 --undefined-- 33.262
2.77 --undefined-- 33.299
2.78 --undefined-- 35.225
2.79 --undefined-- 36.868
2.80 --undefined-- 37.550
2.81 --undefined-- 37.226
2.82 --undefined-- 37.024
2.83 --undefined-- 37.382
2.84 --undefined-- 37.244
2.85 --undefined-- 35.624
2.86 --undefined-- 37.336
2.87 --undefined-- 51.377
2.88 --undefined-- 61.317
2.89 --undefined-- 67.185
2.90 147.362 70.332
2.91 146.700 72.064
2.92 145.032 73.269
2.93 143.211 74.106
2.94 143.039 74.556
2.95 142.184 74.709
2.96 141.361 74.704
2.97 141.792 74.665
2.98 142.177 74.689
2.99 142.543 74.759
3.00 143.031 74.864
3.01 143.469 74.962
3.02 143.237 74.961
3.03 142.954 74.899
3.04 142.402 74.899
3.05 142.682 75.095
3.06 148.056 75.495
3.07 148.239 75.607
3.08 141.720 75.342
3.09 140.320 75.117
3.10 138.906 74.729
3.11 136.661 74.005
3.12 136.115 73.223
3.13 135.893 73.011
3.14 136.451 73.685
3.15 137.917 74.457
3.16 138.475 74.764
3.17 140.770 74.780
3.18 144.620 74.628
3.19 147.428 73.954
3.20 146.572 72.061
3.21 141.489 68.280
3.22 139.479 62.302
3.23 --undefined-- 55.302
3.24 --undefined-- 55.633
3.25 --undefined-- 61.101
3.26 --undefined-- 67.488
3.27 192.364 72.427
3.28 186.720 75.259
3.29 180.364 76.725
3.30 178.084 77.862
3.31 178.195 78.841
3.32 178.331 79.222
3.33 178.992 79.023
3.34 180.233 78.686
3.35 181.217 78.376
3.36 182.100 77.551
3.37 181.943 76.311
3.38 178.458 75.599
3.39 175.979 75.283
3.40 172.896 74.544
3.41 168.355 72.762
3.42 163.069 69.571
3.43 162.187 65.676
3.44 152.059 63.228
3.45 145.855 62.289
3.46 141.150 61.896
3.47 136.762 62.287
3.48 136.912 63.760
3.49 138.021 65.864
3.50 142.552 68.098
3.51 145.226 70.057
3.52 149.184 71.447
3.53 150.700 72.182
3.54 152.857 72.298
3.55 155.158 71.908
3.56 158.696 71.258
3.57 160.530 70.556
3.58 162.485 69.859
3.59 165.830 69.572
3.60 173.258 69.993
3.61 175.037 70.581
3.62 175.708 70.553
3.63 169.114 69.344
3.64 156.043 66.628
3.65 --undefined-- 62.522
3.66 278.762 58.917
3.67 278.248 56.200
3.68 --undefined-- 51.737
3.69 --undefined-- 46.996
3.70 --undefined-- 45.284
3.71 --undefined-- 45.451
3.72 --undefined-- 47.340
3.73 --undefined-- 50.871
3.74 --undefined-- 56.667
3.75 170.244 62.971
3.76 144.259 67.346
3.77 138.065 69.805
3.78 137.990 71.003
3.79 138.094 71.441
3.80 137.437 71.404
3.81 138.083 71.129
3.82 140.036 70.859
3.83 145.267 70.516
3.84 154.282 69.855
3.85 162.677 69.216
3.86 165.824 68.926
3.87 166.932 68.133
3.88 158.896 66.083
3.89 148.513 63.190
3.90 148.287 60.499
3.91 --undefined-- 60.025
3.92 --undefined-- 61.482
3.93 --undefined-- 62.313
3.94 --undefined-- 62.054
3.95 --undefined-- 61.539
3.96 --undefined-- 65.922
3.97 143.828 70.055
3.98 135.456 71.395
3.99 123.350 70.711
4.00 121.218 69.305
4.01 114.401 68.153
4.02 111.701 67.252
4.03 109.216 66.377
4.04 106.163 65.649
4.05 108.599 65.681
4.06 113.212 66.561
4.07 119.835 67.258
4.08 118.026 67.003
4.09 119.267 65.794
4.10 121.555 65.290
4.11 141.816 67.877
4.12 148.647 70.760
4.13 151.460 72.414
4.14 151.210 72.863
4.15 150.895 71.747
4.16 149.254 68.578
4.17 138.153 63.427
4.18 140.829 57.247
4.19 --undefined-- 50.842
4.20 --undefined-- 43.981
4.21 --undefined-- 40.350
4.22 --undefined-- 40.933
4.23 --undefined-- 43.507
4.24 --undefined-- 46.012
4.25 --undefined-- 49.690
4.26 --undefined-- 58.500
4.27 216.260 64.917
4.28 202.882 67.889
4.29 191.467 68.626
4.30 188.724 68.723
4.31 188.399 69.060
4.32 188.625 69.538
4.33 187.697 69.806
4.34 186.183 69.061
4.35 170.022 66.569
4.36 154.497 62.840
4.37 144.750 58.272
4.38 --undefined-- 53.546
4.39 --undefined-- 54.368
4.40 --undefined-- 56.864
4.41 --undefined-- 58.550
4.42 --undefined-- 59.412
4.43 --undefined-- 60.757
4.44 194.842 66.378
4.45 175.045 70.975
4.46 161.625 72.979
4.47 153.687 73.468
4.48 149.716 73.680
4.49 148.566 73.837
4.50 147.674 73.857
4.51 147.277 73.742
4.52 146.184 73.034
4.53 139.423 71.432
4.54 139.940 70.864
4.55 138.347 72.097
4.56 138.480 73.035
4.57 139.581 73.687
4.58 140.841 74.723
4.59 134.352 75.379
4.60 131.554 74.891
4.61 130.330 74.054
4.62 130.481 73.724
4.63 126.387 73.104
4.64 125.886 71.330
4.65 125.357 68.852
4.66 --undefined-- 66.629
4.67 --undefined-- 64.790
4.68 75.545 62.511
4.69 75.038 59.553
4.70 --undefined-- 57.509
4.71 145.651 56.091
4.72 --undefined-- 52.819
4.73 --undefined-- 46.923
4.74 --undefined-- 40.573
4.75 --undefined-- 37.097
4.76 --undefined-- 35.460
4.77 --undefined-- 35.935
4.78 --undefined-- 37.513
4.79 --undefined-- 39.101
4.80 --undefined-- 39.833
4.81 --undefined-- 39.394
4.82 --undefined-- 38.466
4.83 --undefined-- 38.739
4.84 --undefined-- 39.423
4.85 --undefined-- 39.713
4.86 --undefined-- 40.679
4.87 --undefined-- 41.617
4.88 --undefined-- 41.964
4.89 --undefined-- 41.812
4.90 --undefined-- 41.000
4.91 --undefined-- 39.873
4.92 --undefined-- 38.694
4.93 --undefined-- 37.894
4.94 --undefined-- 37.029
4.95 --undefined-- 35.908
4.96 --undefined-- 34.774
4.97 --undefined-- 35.576
4.98 --undefined-- 37.683
4.99 --undefined-- 38.664
5.00 --undefined-- 47.184
5.01 --undefined-- 56.896
5.02 --undefined-- 63.012
5.03 148.871 67.114
5.04 143.343 70.057
5.05 145.250 72.020
5.06 141.808 73.622
5.07 140.938 74.844
5.08 139.708 75.307
5.09 139.479 75.237
5.10 139.324 75.093
5.11 144.776 74.894
5.12 145.571 74.825
5.13 147.140 74.624
5.14 149.207 73.439
5.15 143.920 70.606
5.16 137.365 65.789
5.17 138.861 59.970
5.18 148.950 54.945
5.19 --undefined-- 53.228
5.20 --undefined-- 62.862
5.21 --undefined-- 71.062
5.22 205.002 75.313
5.23 194.831 76.351
5.24 185.820 75.661
5.25 184.067 75.093
5.26 184.220 75.073
5.27 184.179 75.538
5.28 183.341 76.078
5.29 181.702 75.772
5.30 178.747 73.730
5.31 169.368 69.247
5.32 168.494 63.115
5.33 181.103 57.543
5.34 --undefined-- 52.199
5.35 --undefined-- 46.434
5.36 --undefined-- 42.893
5.37 --undefined-- 49.698
5.38 --undefined-- 61.564
5.39 --undefined-- 70.300
5.40 234.686 75.620
5.41 227.431 78.109
5.42 221.422 78.305
5.43 216.686 77.051
5.44 211.193 74.991
5.45 205.616 71.553
5.46 193.327 65.865
5.47 --undefined-- 57.850
5.48 --undefined-- 50.583
5.49 --undefined-- 49.778
5.50 --undefined-- 50.906
5.51 --undefined-- 50.514
5.52 --undefined-- 49.397
5.53 --undefined-- 48.964
5.54 --undefined-- 48.201
5.55 --undefined-- 46.760
5.56 --undefined-- 44.854
5.57 --undefined-- 43.663
5.58 --undefined-- 43.546
5.59 --undefined-- 43.488
5.60 --undefined-- 44.175
5.61 --undefined-- 46.573
5.62 --undefined-- 55.007
5.63 --undefined-- 62.766
5.64 146.907 67.384
5.65 136.010 69.380
5.66 130.057 69.862
5.67 126.717 69.837
5.68 126.367 69.824
5.69 127.041 69.794
5.70 127.558 69.738
5.71 128.476 69.851
5.72 130.943 70.298
5.73 133.311 71.106
5.74 140.367 72.176
5.75 142.883 73.206
5.76 148.995 73.683
5.77 161.871 73.145
5.78 173.954 71.766
5.79 186.514 70.535
5.80 194.162 69.494
5.81 195.130 68.155
5.82 195.778 66.748
5.83 --undefined-- 64.916
5.84 --undefined-- 61.713
5.85 --undefined-- 56.611
5.86 --undefined-- 51.234
5.87 --undefined-- 47.562
5.88 --undefined-- 42.842
5.89 --undefined-- 37.509
5.90 --undefined-- 35.586
5.91 --undefined-- 36.420
5.92 --undefined-- 37.821
5.93 --undefined-- 37.471
5.94 --undefined-- 39.241
5.95 --undefined-- 46.513
5.96 --undefined-- 52.956
5.97 --undefined-- 55.907
5.98 --undefined-- 55.118
5.99 --undefined-- 51.612
6.00 --undefined-- 48.637
6.01 --undefined-- 47.866
6.02 --undefined-- 47.625
6.03 --undefined-- 48.862
6.04 --undefined-- 52.983
6.05 --undefined-- 57.143
6.06 --undefined-- 60.965
6.07 --undefined-- 65.195
6.08 154.131 69.494
6.09 149.038 72.269
6.10 146.241 73.244
6.11 144.699 72.956
6.12 146.395 72.278
6.13 151.353 71.823
6.14 160.778 72.148
6.15 169.005 --undefined--
6.16 172.295 --undefined--
6.17 --undefined-- --undefined--
6.18 --undefined-- --undefined--
