Time Pitch Intensity
0.01 --undefined-- --undefined--
0.02 190.216 --undefined--
0.03 188.466 --undefined--
0.04 185.250 --undefined--
0.05 179.981 71.387
0.06 173.991 71.807
0.07 169.720 72.733
0.08 161.126 73.763
0.09 152.609 74.679
0.10 146.421 75.093
0.11 133.447 74.406
0.12 126.892 73.004
0.13 118.451 71.574
0.14 114.822 70.285
0.15 107.464 68.714
0.16 97.831 66.746
0.17 94.896 64.506
0.18 88.759 61.701
0.19 91.772 58.237
0.20 --undefined-- 54.794
0.21 --undefined-- 52.102
0.22 --undefined-- 49.167
0.23 --undefined-- 46.004
0.24 --undefined-- 45.383
0.25 --undefined-- 46.653
0.26 --undefined-- 47.111
0.27 --undefined-- 47.109
0.28 --undefined-- 52.492
0.29 --undefined-- 60.295
0.30 141.760 65.362
0.31 131.664 67.891
0.32 127.417 68.860
0.33 125.055 69.218
0.34 123.959 69.548
0.35 122.287 69.935
0.36 122.177 70.197
0.37 123.318 70.045
0.38 130.152 69.534
0.39 135.225 69.612
0.40 146.282 70.832
0.41 153.433 72.299
0.42 162.024 73.473
0.43 170.484 74.179
0.44 182.557 73.891
0.45 199.803 72.552
0.46 205.025 71.172
0.47 202.350 70.549
0.48 191.740 70.480
0.49 179.121 70.195
0.50 171.506 68.823
0.51 172.099 65.580
0.52 180.678 59.983
0.53 --undefined-- 52.929
0.54 --undefined-- 46.972
0.55 --undefined-- 42.649
0.56 --undefined-- 40.894
0.57 --undefined-- 39.141
0.58 --undefined-- 38.099
0.59 --undefined-- 38.438
0.60 --undefined-- 37.949
0.61 --undefined-- 36.310
0.62 --undefined-- 35.377
0.63 --undefined-- 37.546
0.64 --undefined-- 40.010
0.65 --undefined-- 40.708
0.66 --undefined-- 40.076
0.67 --undefined-- 39.245
0.68 --undefined-- 39.181
0.69 --undefined-- 38.438
0.70 --undefined-- 37.728
0.71 --undefined-- 38.541
0.72 --undefined-- 39.295
0.73 --undefined-- 38.647
0.74 --undefined-- 37.281
0.75 --undefined-- 36.496
0.76 --undefined-- 36.963
0.77 --undefined-- 37.055
0.78 --undefined-- 36.325
0.79 --undefined-- 36.088
0.80 --undefined-- 37.443
0.81 --undefined-- 40.165
0.82 --undefined-- 50.593
0.83 --undefined-- 60.858
0.84 --undefined-- 66.674
0.85 --undefined-- 69.041
0.86 --undefined-- 69.227
0.87 --undefined-- 68.160
0.88 --undefined-- 65.681
0.89 --undefined-- 62.545
0.90 --undefined-- 60.580
0.91 --undefined-- 59.642
0.92 --undefined-- 59.368
0.93 --undefined-- 63.354
0.94 219.839 70.337
0.95 206.847 75.022
0.96 201.676 77.439
0.97 199.151 78.844
0.98 197.772 80.217
0.99 197.651 81.386
1.00 197.710 82.050
1.01 197.395 82.302
1.02 195.641 82.305
1.03 193.164 82.231
1.04 189.879 82.094
1.05 186.404 81.871
1.06 183.473 81.750
1.07 180.209 81.824
1.08 174.618 81.757
1.09 169.081 81.057
1.10 162.442 79.748
1.11 154.816 78.358
1.12 149.379 77.004
1.13 145.462 75.158
1.14 139.754 72.253
1.15 133.888 68.223
1.16 134.885 63.624
1.17 --undefined-- 58.490
1.18 --undefined-- 51.739
1.19 --undefined-- 43.793
1.20 --undefined-- 41.418
1.21 --undefined-- 44.424
1.22 --undefined-- 47.058
1.23 --undefined-- 48.710
1.24 --undefined-- 49.031
1.25 --undefined-- 47.435
1.26 --undefined-- 43.885
1.27 --undefined-- 39.871
1.28 --undefined-- 38.202
1.29 --undefined-- 37.995
1.30 --undefined-- 38.358
1.31 --undefined-- 38.178
1.32 --undefined-- 38.354
1.33 --undefined-- 46.755
1.34 --undefined-- 57.832
1.35 --undefined-- 65.738
1.36 170.126 70.316
1.37 158.745 72.769
1.38 152.317 74.374
1.39 148.311 75.211
1.40 144.740 74.757
1.41 140.846 72.756
1.42 134.499 69.046
1.43 --undefined-- 63.532
1.44 --undefined-- 56.671
1.45 --undefined-- 51.080
1.46 --undefined-- 48.700
1.47 --undefined-- 47.399
1.48 --undefined-- 46.333
1.49 --undefined-- 45.648
1.50 --undefined-- 44.860
1.51 --undefined-- 43.524
1.52 --undefined-- 42.669
1.53 --undefined-- 43.636
1.54 --undefined-- 51.636
1.55 --undefined-- 60.276
1.56 --undefined-- 65.583
1.57 136.030 68.369
1.58 135.610 69.522
1.59 132.692 69.771
1.60 131.236 69.760
1.61 129.971 69.930
1.62 129.574 70.242
1.63 129.047 70.423
1.64 128.391 69.958
1.65 123.049 67.955
1.66 109.159 63.922
1.67 107.725 58.351
1.68 --undefined-- 52.014
1.69 --undefined-- 50.967
1.70 --undefined-- 55.944
1.71 --undefined-- 58.183
1.72 --undefined-- 58.774
1.73 --undefined-- 61.085
1.74 105.251 63.618
1.75 115.291 65.080
1.76 124.351 65.887
1.77 122.285 66.464
1.78 117.512 66.503
1.79 113.731 65.826
1.80 111.594 64.936
1.81 110.741 64.122
1.82 106.028 63.607
1.83 108.150 63.523
1.84 111.278 63.477
1.85 113.310 63.372
1.86 113.580 63.255
1.87 113.225 62.971
1.88 113.102 62.362
1.89 111.608 61.466
1.90 116.908 60.542
1.91 --undefined-- 59.066
1.92 --undefined-- 56.606
1.93 --undefined-- 52.989
1.94 --undefined-- 47.610
1.95 --undefined-- 44.055
1.96 --undefined-- 42.676
1.97 --undefined-- 40.020
1.98 --undefined-- 37.782
1.99 --undefined-- 38.327
2.00 --undefined-- 40.252
2.01 --undefined-- 40.746
2.02 --undefined-- 40.626
2.03 --undefined-- 42.208
2.04 --undefined-- 42.415
2.05 --undefined-- 40.587
2.06 --undefined-- 38.527
2.07 --undefined-- 37.858
2.08 --undefined-- 38.767
2.09 --undefined-- 39.510
2.10 --undefined-- 39.158
2.11 --undefined-- 38.111
2.12 --undefined-- 37.335
2.13 --undefined-- 37.409
2.14 --undefined-- 38.404
2.15 --undefined-- 39.458
2.16 --undefined-- 41.183
2.17 --undefined-- 50.922
2.18 --undefined-- 61.517
2.19 193.689 68.372
2.20 187.091 72.153
2.21 184.473 73.728
2.22 181.756 73.962
2.23 177.820 73.409
2.24 171.013 72.107
2.25 171.133 70.687
2.26 172.860 70.359
2.27 169.719 70.562
2.28 165.003 70.453
2.29 158.539 69.869
2.30 151.542 69.485
2.31 142.528 70.264
2.32 143.218 71.727
2.33 148.046 73.325
2.34 151.987 74.942
2.35 154.560 76.231
2.36 155.049 76.954
2.37 154.488 77.083
2.38 156.827 76.305
2.39 167.051 74.890
2.40 174.390 73.690
2.41 173.797 71.609
2.42 172.544 67.315
2.43 164.344 61.246
2.44 --undefined-- 55.879
2.45 --undefined-- 60.602
2.46 --undefined-- 66.068
2.47 --undefined-- 67.428
2.48 --undefined-- 65.118
2.49 --undefined-- 61.675
2.50 192.955 65.191
2.51 202.010 70.259
2.52 198.556 73.555
2.53 193.909 75.335
2.54 189.626 75.269
2.55 183.169 72.825
2.56 --undefined-- 67.815
2.57 --undefined-- 60.465
2.58 --undefined-- 52.816
2.59 --undefined-- 51.175
2.60 --undefined-- 52.899
2.61 --undefined-- 55.487
2.62 145.131 59.034
2.63 141.550 62.820
2.64 140.483 66.454
2.65 137.498 69.254
2.66 133.351 70.689
2.67 129.495 71.017
2.68 128.498 71.017
2.69 128.845 71.121
2.70 129.600 71.126
2.71 130.352 70.741
2.72 129.838 69.543
2.73 124.855 66.796
2.74 108.580 61.986
2.75 --undefined-- 55.907
2.76 --undefined-- 50.780
2.77 --undefined-- 45.713
2.78 --undefined-- 43.811
2.79 --undefined-- 50.422
2.80 --undefined-- 57.157
2.81 --undefined-- 62.780
2.82 --undefined-- 66.647
2.83 122.568 68.590
2.84 115.510 69.195
2.85 110.753 68.855
2.86 107.604 67.913
2.87 110.180 67.158
2.88 114.019 66.611
2.89 117.066 65.857
2.90 125.351 65.484
2.91 130.699 66.141
2.92 139.005 67.500
2.93 144.725 68.885
2.94 149.990 69.645
2.95 153.535 69.304
2.96 146.436 67.308
2.97 142.358 63.115
2.98 --undefined-- 56.443
2.99 --undefined-- 48.473
3.00 --undefined-- 44.634
3.01 --undefined-- 45.003
3.02 --undefined-- 49.080
3.03 --undefined-- 61.029
3.04 --undefined-- 70.321
3.05 --undefined-- 75.707
3.06 --undefined-- 78.331
3.07 165.895 79.522
3.08 164.004 80.233
3.09 162.909 80.648
3.10 161.872 80.781
3.11 161.797 80.641
3.12 162.309 80.085
3.13 162.094 78.973
3.14 162.024 77.381
3.15 162.210 75.458
3.16 163.282 73.406
3.17 164.532 71.652
3.18 164.197 70.455
3.19 163.489 69.684
3.20 161.321 68.892
3.21 158.310 67.756
3.22 153.802 66.047
3.23 153.465 63.284
3.24 154.168 59.324
3.25 --undefined-- 56.082
3.26 --undefined-- 53.651
3.27 --undefined-- 48.686
3.28 --undefined-- 41.821
3.29 --undefined-- 40.249
3.30 --undefined-- 40.141
3.31 --undefined-- 39.253
3.32 --undefined-- 39.374
3.33 --undefined-- 38.794
3.34 --undefined-- 36.773
3.35 --undefined-- 37.472
3.36 --undefined-- 39.524
3.37 --undefined-- 41.219
3.38 --undefined-- 42.829
3.39 --undefined-- 43.396
3.40 --undefined-- 43.209
3.41 --undefined-- 41.661
3.42 --undefined-- 39.940
3.43 --undefined-- 43.402
3.44 --undefined-- 48.017
3.45 --undefined-- 51.137
3.46 --undefined-- 53.830
3.47 --undefined-- 56.973
3.48 --undefined-- 63.190
3.49 191.863 69.179
3.50 177.346 72.780
3.51 169.839 75.008
3.52 165.303 76.405
3.53 160.170 76.650
3.54 155.537 76.210
3.55 152.731 75.999
3.56 150.466 76.142
3.57 148.288 76.439
3.58 147.996 76.185
3.59 154.555 75.127
3.60 154.985 74.460
3.61 154.368 74.498
3.62 154.284 74.209
3.63 156.810 73.212
3.64 161.527 72.007
3.65 160.191 71.483
3.66 159.008 71.832
3.67 157.685 73.058
3.68 160.313 74.391
3.69 160.461 74.744
3.70 154.075 75.033
3.71 150.185 76.353
3.72 147.512 77.238
3.73 142.388 77.016
3.74 138.814 76.514
3.75 138.472 76.552
3.76 140.389 76.866
3.77 144.556 77.396
3.78 148.829 77.853
3.79 151.230 77.532
3.80 155.733 76.497
3.81 159.913 75.862
3.82 161.242 75.612
3.83 161.230 74.733
3.84 162.201 73.556
3.85 156.475 73.165
3.86 152.968 73.386
3.87 153.975 73.855
3.88 143.837 74.172
3.89 136.006 73.604
3.90 129.694 72.015
3.91 124.871 69.746
3.92 119.553 66.714
3.93 108.779 62.109
3.94 --undefined-- 55.705
3.95 --undefined-- 48.786
3.96 --undefined-- 43.435
3.97 --undefined-- 41.398
3.98 --undefined-- 40.473
3.99 --undefined-- 39.983
4.00 --undefined-- 41.571
4.01 --undefined-- 45.149
4.02 --undefined-- 46.792
4.03 --undefined-- 46.099
4.04 --undefined-- 47.211
4.05 --undefined-- 51.419
4.06 --undefined-- 57.209
4.07 144.588 63.158
4.08 136.592 67.282
4.09 134.137 69.639
4.10 133.945 70.673
4.11 134.464 70.929
4.12 138.270 71.317
4.13 144.059 72.229
4.14 151.113 73.001
4.15 160.357 72.859
4.16 172.915 71.624
4.17 177.572 69.109
4.18 169.910 64.629
4.19 --undefined-- 58.580
4.20 --undefined-- 53.071
4.21 --undefined-- 49.100
4.22 --undefined-- 51.695
4.23 --undefined-- 60.835
4.24 191.714 67.857
4.25 173.874 71.823
4.26 163.407 73.746
4.27 155.056 74.987
4.28 149.676 75.851
4.29 144.070 75.758
4.30 140.872 74.836
4.31 140.544 73.632
4.32 140.476 72.139
4.33 136.663 70.235
4.34 133.316 68.963
4.35 137.029 68.988
4.36 139.434 69.403
4.37 140.784 69.647
4.38 142.220 69.649
4.39 143.381 69.405
4.40 143.001 68.882
4.41 142.402 68.060
4.42 140.842 66.847
4.43 142.383 64.839
4.44 --undefined-- 61.817
4.45 --undefined-- 58.269
4.46 --undefined-- 54.404
4.47 --undefined-- 50.255
4.48 --undefined-- 47.050
4.49 --undefined-- 45.143
4.50 --undefined-- 42.225
4.51 --undefined-- 38.270
4.52 --undefined-- 44.156
4.53 --undefined-- 55.560
4.54 --undefined-- 62.327
4.55 --undefined-- 64.584
4.56 --undefined-- 63.342
4.57 --undefined-- 65.147
4.58 148.723 70.087
4.59 150.540 72.821
4.60 143.022 73.763
4.61 142.462 73.676
4.62 138.625 73.018
4.63 135.692 72.058
4.64 138.073 70.333
4.65 137.224 67.120
4.66 119.900 62.587
4.67 123.232 60.542
4.68 141.218 65.320
4.69 147.383 69.968
4.70 144.375 72.729
4.71 140.446 73.776
4.72 137.925 72.825
4.73 --undefined-- 69.280
4.74 --undefined-- 62.852
4.75 --undefined-- 54.278
4.76 --undefined-- 45.850
4.77 --undefined-- 43.058
4.78 --undefined-- 50.419
4.79 --undefined-- 56.394
4.80 --undefined-- 58.625
4.81 --undefined-- 58.038
4.82 --undefined-- 56.834
4.83 --undefined-- 57.417
4.84 --undefined-- 60.433
4.85 133.129 63.561
4.86 130.535 64.728
4.87 114.554 64.433
4.88 110.642 63.922
4.89 106.329 63.616
4.90 103.307 63.534
4.91 103.222 63.631
4.92 104.523 63.679
4.93 105.543 63.610
4.94 105.182 63.301
4.95 103.633 62.899
4.96 102.186 62.726
4.97 102.118 62.617
4.98 102.725 62.476
4.99 103.111 62.635
5.00 106.841 63.082
5.01 108.156 63.562
5.02 109.265 64.195
5.03 106.115 64.956
5.04 108.272 65.901
5.05 109.428 67.178
5.06 113.065 68.946
5.07 115.586 70.672
5.08 118.117 71.759
5.09 119.906 71.884
5.10 122.870 70.964
5.11 123.076 68.927
5.12 121.669 65.878
5.13 118.312 63.140
5.14 118.654 63.818
5.15 126.258 67.324
5.16 129.672 70.274
5.17 130.778 72.164
5.18 129.365 72.955
5.19 125.768 72.243
5.20 121.207 69.726
5.21 113.519 65.164
5.22 102.467 58.753
5.23 --undefined-- 51.419
5.24 --undefined-- 45.233
5.25 --undefined-- 44.146
5.26 --undefined-- 47.628
5.27 --undefined-- 56.879
5.28 154.432 64.736
5.29 147.944 69.257
5.30 138.273 70.977
5.31 128.581 70.819
5.32 124.446 69.833
5.33 122.268 68.828
5.34 125.331 68.430
5.35 127.644 68.603
5.36 127.794 68.776
5.37 129.184 68.847
5.38 131.059 68.777
5.39 131.144 68.262
5.40 128.972 66.796
5.41 124.277 63.978
5.42 108.952 60.683
5.43 --undefined-- 62.763
5.44 --undefined-- 68.870
5.45 147.304 73.816
5.46 143.690 76.849
5.47 141.514 78.009
5.48 138.621 77.925
5.49 137.779 77.528
5.50 135.807 77.170
5.51 135.114 76.879
5.52 134.688 76.835
5.53 131.381 76.796
5.54 130.900 76.081
5.55 135.382 74.972
5.56 136.474 74.314
5.57 135.586 73.624
5.58 140.986 72.435
5.59 140.504 71.208
5.60 139.507 69.886
5.61 139.434 67.953
5.62 135.601 65.008
5.63 94.921 61.375
5.64 --undefined-- 57.410
5.65 --undefined-- 52.745
5.66 --undefined-- 47.241
5.67 --undefined-- 43.372
5.68 --undefined-- 40.896
5.69 --undefined-- 39.287
5.70 --undefined-- 38.127
5.71 --undefined-- 37.664
5.72 --undefined-- 38.552
5.73 --undefined-- 41.303
5.74 --undefined-- 42.740
5.75 --undefined-- 41.326
5.76 --undefined-- 38.967
5.77 --undefined-- 37.109
5.78 --undefined-- 35.137
5.79 --undefined-- 34.118
5.80 --undefined-- 35.450
5.81 --undefined-- 37.495
5.82 --undefined-- 37.909
5.83 --undefined-- 38.425
5.84 --undefined-- 38.743
5.85 --undefined-- 36.349
5.86 --undefined-- 33.583
5.87 --undefined-- 36.305
5.88 --undefined-- 38.528
5.89 --undefined-- 38.699
5.90 --undefined-- 39.129
5.91 --undefined-- 39.224
5.92 --undefined-- 36.853
5.93 --undefined-- 33.257
5.94 --undefined-- 33.647
5.95 --undefined-- 35.767
5.96 --undefined-- 37.313
5.97 --undefined-- 39.863
5.98 --undefined-- 41.840
5.99 --undefined-- 41.198
6.00 --undefined-- 38.312
6.01 --undefined-- 35.427
6.02 --undefined-- 34.581
6.03 --undefined-- 36.402
6.04 --undefined-- 38.858
6.05 --undefined-- 39.591
6.06 --undefined-- 38.833
6.07 --undefined-- 37.578
6.08 --undefined-- 35.999
6.09 --undefined-- 34.965
6.10 --undefined-- 36.286
6.11 --undefined-- 37.808
6.12 --undefined-- 36.902
6.13 --undefined-- 35.230
6.14 --undefined-- 37.440
6.15 --undefined-- 39.656
6.16 --undefined-- 39.070
6.17 --undefined-- 37.804
6.18 --undefined-- 38.627
6.19 --undefined-- 38.193
6.20 --undefined-- 36.680
6.21 --undefined-- 37.139
6.22 --undefined-- 38.257
6.23 --undefined-- 39.128
6.24 --undefined-- 38.916
6.25 --undefined-- 37.654
6.26 --undefined-- 37.615
6.27 --undefined-- 39.405
6.28 --undefined-- 40.630
6.29 --undefined-- 40.507
6.30 --undefined-- 39.733
6.31 --undefined-- 38.840
6.32 --undefined-- 38.665
6.33 --undefined-- 38.670
6.34 --undefined-- 38.329
6.35 --undefined-- 39.089
6.36 --undefined-- 39.129
6.37 --undefined-- 37.849
6.38 --undefined-- 36.475
6.39 --undefined-- 36.206
6.40 --undefined-- 44.058
6.41 --undefined-- 54.632
6.42 --undefined-- --undefined--
6.43 --undefined-- --undefined--
6.44 --undefined-- --undefined--
6.45 --undefined-- --undefined--
