Time Pitch Intensity
0.01 --undefined-- --undefined--
0.02 193.271 --undefined--
0.03 190.479 --undefined--
0.04 187.590 --undefined--
0.05 185.790 64.555
0.06 185.915 63.504
0.07 186.863 63.214
0.08 188.097 63.792
0.09 187.426 64.439
0.10 186.077 64.728
0.11 185.198 64.969
0.12 185.257 65.449
0.13 185.264 65.761
0.14 186.004 65.572
0.15 187.792 65.441
0.16 188.377 65.737
0.17 186.865 65.995
0.18 186.036 66.078
0.19 186.347 66.265
0.20 187.438 66.398
0.21 188.452 65.847
0.22 187.981 63.910
0.23 175.125 60.325
0.24 --undefined-- 56.528
0.25 --undefined-- 53.838
0.26 --undefined-- 51.935
0.27 --undefined-- 51.970
0.28 --undefined-- 52.865
0.29 --undefined-- 55.859
0.30 --undefined-- 58.450
0.31 --undefined-- 59.187
0.32 --undefined-- 58.459
0.33 --undefined-- 56.190
0.34 --undefined-- 53.419
0.35 199.657 54.331
0.36 225.206 57.945
0.37 236.164 61.105
0.38 248.260 63.701
0.39 249.758 66.144
0.40 251.619 68.401
0.41 252.089 69.806
0.42 251.041 70.209
0.43 250.073 69.722
0.44 250.723 68.636
0.45 253.323 67.926
0.46 255.778 67.532
0.47 254.890 66.952
0.48 254.466 66.305
0.49 253.381 65.868
0.50 252.402 65.583
0.51 251.250 65.398
0.52 249.735 65.433
0.53 248.117 65.338
0.54 245.566 64.099
0.55 238.466 61.256
0.56 229.505 57.505
0.57 225.383 54.662
0.58 --undefined-- 53.649
0.59 --undefined-- 51.813
0.60 --undefined-- 48.637
0.61 --undefined-- 47.999
0.62 --undefined-- 52.308
0.63 --undefined-- 57.873
0.64 237.819 62.307
0.65 218.185 65.127
0.66 201.921 67.002
0.67 191.198 68.697
0.68 183.403 70.059
0.69 172.622 71.034
0.70 166.807 71.740
0.71 164.840 72.103
0.72 164.769 71.918
0.73 166.274 71.221
0.74 166.751 70.310
0.75 167.263 69.510
0.76 167.810 68.824
0.77 166.944 67.762
0.78 164.152 65.782
0.79 --undefined-- 62.919
0.80 --undefined-- 60.675
0.81 --undefined-- 59.092
0.82 --undefined-- 56.473
0.83 --undefined-- 52.806
0.84 --undefined-- 54.407
0.85 --undefined-- 58.312
0.86 --undefined-- 61.002
0.87 --undefined-- 62.474
0.88 --undefined-- 62.626
0.89 --undefined-- 61.559
0.90 --undefined-- 59.512
0.91 --undefined-- 56.938
0.92 --undefined-- 53.804
0.93 --undefined-- 52.035
0.94 --undefined-- 54.197
0.95 --undefined-- 56.475
0.96 --undefined-- 57.977
0.97 --undefined-- 58.768
0.98 --undefined-- 58.318
0.99 --undefined-- 56.309
1.00 --undefined-- 53.217
1.01 --undefined-- 50.261
1.02 --undefined-- 49.259
1.03 --undefined-- 49.126
1.04 --undefined-- 48.643
1.05 --undefined-- 48.616
1.06 --undefined-- 48.793
1.07 --undefined-- 48.676
1.08 --undefined-- 49.775
1.09 --undefined-- 54.065
1.10 --undefined-- 58.304
1.11 --undefined-- 60.671
1.12 --undefined-- 61.648
1.13 --undefined-- 62.195
1.14 --undefined-- 62.507
1.15 --undefined-- 61.866
1.16 --undefined-- 59.323
1.17 --undefined-- 55.137
1.18 --undefined-- 53.421
1.19 --undefined-- 55.745
1.20 --undefined-- 58.259
1.21 --undefined-- 60.348
1.22 --undefined-- 62.411
1.23 --undefined-- 65.893
1.24 245.682 69.782
1.25 247.402 72.234
1.26 235.768 73.686
1.27 230.347 74.894
1.28 228.170 75.841
1.29 226.846 76.199
1.30 227.183 75.862
1.31 228.967 74.929
1.32 230.710 73.744
1.33 230.600 72.605
1.34 231.377 71.418
1.35 234.297 70.271
1.36 236.839 69.389
1.37 239.985 68.824
1.38 243.533 68.430
1.39 246.417 68.088
1.40 248.072 67.514
1.41 247.958 66.256
1.42 244.531 63.837
1.43 230.704 60.000
1.44 --undefined-- 55.470
1.45 --undefined-- 52.221
1.46 --undefined-- 49.880
1.47 --undefined-- 49.394
1.48 --undefined-- 55.493
1.49 160.023 62.515
1.50 158.064 66.606
1.51 162.188 68.288
1.52 169.741 68.779
1.53 169.996 69.085
1.54 169.731 69.537
1.55 171.904 70.076
1.56 174.422 70.933
1.57 176.444 72.191
1.58 177.823 73.283
1.59 178.590 73.754
1.60 179.238 73.678
1.61 179.635 73.450
1.62 179.833 73.191
1.63 180.043 72.706
1.64 179.889 71.527
1.65 178.803 69.220
1.66 175.668 66.961
1.67 174.098 66.829
1.68 171.919 67.121
1.69 171.643 66.989
1.70 173.239 66.835
1.71 178.916 67.343
1.72 178.758 68.556
1.73 176.879 69.382
1.74 174.385 69.401
1.75 171.536 68.787
1.76 167.382 68.178
1.77 163.173 68.314
1.78 159.680 68.801
1.79 154.612 68.972
1.80 297.121 68.817
1.81 282.790 68.555
1.82 265.943 68.157
1.83 251.392 67.484
1.84 236.871 65.974
1.85 224.811 62.821
1.86 189.371 58.271
1.87 180.667 54.344
1.88 --undefined-- 52.913
1.89 --undefined-- 56.412
1.90 --undefined-- 61.950
1.91 211.860 65.343
1.92 202.167 66.856
1.93 193.415 67.638
1.94 190.103 68.111
1.95 187.161 68.046
1.96 185.019 67.553
1.97 184.728 67.021
1.98 185.286 66.628
1.99 185.049 66.110
2.00 184.233 65.119
2.01 182.424 63.750
2.02 179.713 62.168
2.03 175.008 59.902
2.04 169.769 56.321
2.05 --undefined-- 52.285
2.06 --undefined-- 52.026
2.07 --undefined-- 52.797
2.08 --undefined-- 53.991
2.09 --undefined-- 55.519
2.10 --undefined-- 54.986
2.11 --undefined-- 53.229
2.12 --undefined-- 54.585
2.13 257.801 57.074
2.14 225.238 59.358
2.15 207.010 62.492
2.16 205.864 65.031
2.17 205.243 66.307
2.18 205.098 66.648
2.19 204.358 66.615
2.20 203.396 66.492
2.21 201.965 66.184
2.22 201.327 65.703
2.23 200.968 65.248
2.24 201.453 65.052
2.25 201.873 65.101
2.26 202.013 65.399
2.27 202.673 65.921
2.28 203.779 66.605
2.29 204.729 67.368
2.30 206.333 67.986
2.31 208.702 68.011
2.32 211.670 67.039
2.33 213.814 65.343
2.34 219.540 63.671
2.35 213.171 61.806
2.36 207.569 59.130
2.37 207.696 56.550
2.38 --undefined-- 55.520
2.39 --undefined-- 55.066
2.40 --undefined-- 54.456
2.41 --undefined-- 54.687
2.42 --undefined-- 55.692
2.43 --undefined-- 57.167
2.44 186.363 60.079
2.45 179.518 63.708
2.46 172.947 66.587
2.47 171.445 68.390
2.48 171.771 69.324
2.49 174.022 69.937
2.50 177.331 70.690
2.51 181.513 70.996
2.52 189.006 69.953
2.53 204.250 67.935
2.54 216.170 66.422
2.55 225.759 65.939
2.56 239.730 65.982
2.57 256.956 65.929
2.58 263.145 65.283
2.59 260.885 63.879
2.60 255.816 62.369
2.61 248.851 61.542
2.62 243.942 60.996
2.63 242.485 60.105
2.64 230.473 59.301
2.65 233.349 59.813
2.66 238.782 61.404
2.67 239.306 63.522
2.68 208.659 65.941
2.69 186.718 68.218
2.70 175.668 69.770
2.71 167.442 70.612
2.72 166.523 70.683
2.73 171.325 69.935
2.74 176.274 69.160
2.75 180.620 68.651
2.76 183.056 67.904
2.77 186.110 67.115
2.78 191.234 66.897
2.79 196.496 67.234
2.80 202.008 67.390
2.81 206.369 67.088
2.82 211.079 66.939
2.83 216.333 67.657
2.84 219.442 68.575
2.85 224.412 69.109
2.86 229.305 69.437
2.87 234.024 69.824
2.88 241.554 70.287
2.89 241.524 70.967
2.90 242.928 71.524
2.91 244.361 71.490
2.92 246.311 71.380
2.93 247.788 71.552
2.94 249.554 71.779
2.95 250.214 71.904
2.96 249.669 71.895
2.97 248.605 71.776
2.98 247.812 71.570
2.99 246.808 71.400
3.00 245.507 71.302
3.01 244.900 70.899
3.02 244.740 69.605
3.03 244.158 66.873
3.04 241.818 62.442
3.05 242.729 57.459
3.06 245.003 56.036
3.07 --undefined-- 56.616
3.08 --undefined-- 56.086
3.09 250.382 56.673
3.10 246.709 60.054
3.11 238.738 62.494
3.12 227.916 63.517
3.13 218.587 63.944
3.14 209.480 63.729
3.15 199.601 63.014
3.16 191.939 62.742
3.17 185.880 62.998
3.18 181.598 63.174
3.19 180.318 63.120
3.20 175.236 63.116
3.21 172.794 63.045
3.22 169.623 62.788
3.23 168.455 62.829
3.24 166.917 63.363
3.25 166.633 63.838
3.26 166.992 63.594
3.27 167.328 63.130
3.28 167.359 63.100
3.29 166.321 62.756
3.30 162.154 61.524
3.31 164.689 60.201
3.32 164.107 59.682
3.33 164.070 59.853
3.34 163.604 60.593
3.35 163.381 61.491
3.36 163.815 61.889
3.37 163.068 61.916
3.38 160.712 62.230
3.39 159.714 62.617
3.40 158.238 62.652
3.41 157.411 62.424
3.42 157.074 61.929
3.43 156.642 61.036
3.44 157.384 60.174
3.45 158.149 60.024
3.46 158.279 60.188
3.47 159.093 60.110
3.48 159.161 59.831
3.49 159.407 59.383
3.50 161.314 58.687
3.51 165.131 57.864
3.52 169.070 56.864
3.53 173.244 55.586
3.54 181.277 53.667
3.55 --undefined-- 52.626
3.56 --undefined-- 55.623
3.57 --undefined-- 58.494
3.58 --undefined-- 59.345
3.59 --undefined-- 58.656
3.60 --undefined-- 57.310
3.61 --undefined-- 56.941
3.62 235.138 59.928
3.63 242.217 62.977
3.64 253.382 65.047
3.65 264.402 66.401
3.66 273.486 67.151
3.67 278.751 67.587
3.68 278.112 67.925
3.69 276.816 68.096
3.70 275.465 67.888
3.71 274.727 67.366
3.72 275.086 66.962
3.73 276.603 66.940
3.74 278.104 67.170
3.75 278.423 67.411
3.76 276.928 67.501
3.77 275.466 67.552
3.78 273.979 67.593
3.79 270.853 67.257
3.80 266.175 66.057
3.81 257.890 63.559
3.82 242.223 59.737
3.83 245.257 55.752
3.84 265.052 54.143
3.85 257.101 57.425
3.86 --undefined-- 62.463
3.87 --undefined-- 66.001
3.88 194.114 67.719
3.89 183.316 67.958
3.90 172.235 67.224
3.91 171.113 66.405
3.92 172.091 66.182
3.93 176.296 66.139
3.94 176.336 65.581
3.95 175.380 64.688
3.96 175.488 64.118
3.97 175.951 63.974
3.98 175.889 63.658
3.99 176.563 62.960
4.00 177.403 61.887
4.01 178.394 60.215
4.02 178.275 58.448
4.03 177.502 59.026
4.04 --undefined-- 60.310
4.05 --undefined-- 59.725
4.06 --undefined-- 57.252
4.07 --undefined-- 54.205
4.08 --undefined-- 52.166
4.09 --undefined-- 51.228
4.10 291.068 53.351
4.11 290.308 55.600
4.12 292.435 55.828
4.13 242.247 57.621
4.14 241.876 61.822
4.15 244.131 65.324
4.16 248.631 67.998
4.17 251.933 69.791
4.18 250.625 70.576
4.19 248.485 70.258
4.20 247.274 69.220
4.21 245.950 68.323
4.22 244.219 68.282
4.23 241.945 68.877
4.24 240.986 69.441
4.25 242.338 69.533
4.26 242.693 69.331
4.27 239.214 69.508
4.28 233.880 69.811
4.29 228.319 69.569
4.30 221.423 69.313
4.31 215.501 70.004
4.32 203.954 71.526
4.33 194.464 73.258
4.34 188.262 74.179
4.35 176.384 74.190
4.36 169.422 73.863
4.37 165.182 72.890
4.38 --undefined-- 70.765
4.39 --undefined-- 67.430
4.40 --undefined-- 63.311
4.41 --undefined-- 58.308
4.42 --undefined-- 53.262
4.43 --undefined-- 50.121
4.44 --undefined-- 51.066
4.45 --undefined-- 51.914
4.46 --undefined-- 50.870
4.47 --undefined-- 49.992
4.48 --undefined-- 50.553
4.49 --undefined-- 51.741
4.50 --undefined-- 53.497
4.51 --undefined-- 54.249
4.52 --undefined-- 53.276
4.53 --undefined-- 51.253
4.54 --undefined-- 50.899
4.55 --undefined-- 51.616
4.56 --undefined-- 52.286
4.57 --undefined-- 53.446
4.58 --undefined-- 53.589
4.59 --undefined-- 52.195
4.60 --undefined-- 50.280
4.61 --undefined-- 49.639
4.62 --undefined-- 49.179
4.63 --undefined-- 49.178
4.64 --undefined-- 51.616
4.65 --undefined-- 53.045
4.66 --undefined-- 52.772
4.67 --undefined-- 52.831
4.68 --undefined-- 53.200
4.69 --undefined-- 54.259
4.70 --undefined-- 58.281
4.71 --undefined-- 61.712
4.72 --undefined-- 62.447
4.73 --undefined-- 60.684
4.74 --undefined-- 58.716
4.75 285.834 62.725
4.76 283.296 67.350
4.77 274.904 70.012
4.78 269.968 71.550
4.79 262.789 72.366
4.80 253.867 71.921
4.81 238.809 69.770
4.82 229.963 66.308
4.83 233.832 62.226
4.84 212.062 58.835
4.85 204.777 57.780
4.86 201.930 58.514
4.87 188.307 60.160
4.88 185.592 62.231
4.89 182.165 64.199
4.90 182.540 65.830
4.91 181.235 67.091
4.92 179.844 67.801
4.93 178.224 67.723
4.94 178.010 66.887
4.95 178.671 --undefined--
4.96 180.649 --undefined--
4.97 --undefined-- --undefined--
4.98 --undefined-- --undefined--
