Time Pitch Intensity
0.01 --undefined-- --undefined--
0.02 110.625 --undefined--
0.03 108.242 --undefined--
0.04 106.602 --undefined--
0.05 106.230 65.985
0.06 106.544 66.098
0.07 105.445 66.190
0.08 103.516 65.542
0.09 102.013 64.248
0.10 97.258 62.552
0.11 94.145 60.306
0.12 --undefined-- 56.469
0.13 --undefined-- 49.937
0.14 --undefined-- 42.933
0.15 --undefined-- 40.355
0.16 --undefined-- 40.313
0.17 --undefined-- 41.532
0.18 --undefined-- 42.705
0.19 --undefined-- 43.455
0.20 --undefined-- 43.941
0.21 --undefined-- 43.682
0.22 --undefined-- 42.939
0.23 --undefined-- 42.567
0.24 --undefined-- 42.544
0.25 --undefined-- 41.845
0.26 --undefined-- 40.244
0.27 --undefined-- 38.136
0.28 --undefined-- 36.313
0.29 --undefined-- 36.970
0.30 --undefined-- 38.329
0.31 --undefined-- 38.143
0.32 --undefined-- 38.571
0.33 --undefined-- 47.249
0.34 --undefined-- 53.960
0.35 --undefined-- 57.959
0.36 --undefined-- 61.015
0.37 150.576 63.758
0.38 149.188 65.843
0.39 141.387 66.809
0.40 128.632 66.896
0.41 121.690 67.170
0.42 117.078 67.857
0.43 112.970 68.511
0.44 111.273 69.056
0.45 109.371 69.153
0.46 107.172 68.710
0.47 105.127 67.913
0.48 102.514 66.883
0.49 99.265 65.781
0.50 95.335 64.721
0.51 92.626 63.623
0.52 92.221 62.570
0.53 94.485 61.908
0.54 97.240 61.917
0.55 99.187 62.336
0.56 102.688 63.085
0.57 108.487 64.154
0.58 112.139 65.247
0.59 114.899 66.100
0.60 117.006 66.648
0.61 120.766 67.116
0.62 124.020 67.681
0.63 125.707 68.182
0.64 126.918 68.543
0.65 126.336 68.780
0.66 122.298 68.504
0.67 117.287 67.019
0.68 106.200 63.903
0.69 100.100 59.733
0.70 95.566 55.544
0.71 --undefined-- 50.582
0.72 --undefined-- 45.391
0.73 --undefined-- 43.664
0.74 --undefined-- 42.312
0.75 --undefined-- 39.752
0.76 --undefined-- 36.866
0.77 --undefined-- 35.859
0.78 --undefined-- 38.855
0.79 --undefined-- 42.499
0.80 --undefined-- 46.537
0.81 --undefined-- 50.080
0.82 --undefined-- 51.890
0.83 --undefined-- 51.813
0.84 --undefined-- 50.937
0.85 --undefined-- 55.589
0.86 193.582 62.330
0.87 187.905 66.053
0.88 183.314 67.233
0.89 180.375 67.017
0.90 178.006 66.612
0.91 177.948 66.841
0.92 171.388 67.301
0.93 165.318 67.644
0.94 159.568 67.807
0.95 154.763 67.655
0.96 151.790 67.454
0.97 149.456 67.429
0.98 147.325 67.470
0.99 145.522 67.450
1.00 145.043 67.303
1.01 145.895 66.788
1.02 150.650 65.367
1.03 156.112 62.405
1.04 149.288 57.650
1.05 --undefined-- 52.406
1.06 --undefined-- 49.345
1.07 --undefined-- 50.789
1.08 165.486 57.270
1.09 162.018 62.637
1.10 161.312 65.663
1.11 162.560 67.113
1.12 161.631 68.060
1.13 160.513 68.982
1.14 154.474 69.842
1.15 148.633 70.230
1.16 141.646 69.913
1.17 141.698 69.411
1.18 136.093 68.952
1.19 132.062 68.593
1.20 129.681 68.244
1.21 129.764 67.489
1.22 128.033 66.338
1.23 127.808 64.946
1.24 127.272 63.198
1.25 124.877 60.749
1.26 122.795 57.398
1.27 --undefined-- 53.549
1.28 --undefined-- 48.827
1.29 --undefined-- 43.610
1.30 --undefined-- 41.727
1.31 --undefined-- 39.621
1.32 --undefined-- 36.253
1.33 --undefined-- 34.114
1.34 --undefined-- 35.883
1.35 --undefined-- 37.958
1.36 --undefined-- 38.574
1.37 --undefined-- 37.638
1.38 --undefined-- 35.071
1.39 --undefined-- 32.718
1.40 --undefined-- 35.535
1.41 --undefined-- 42.184
1.42 --undefined-- 47.560
1.43 --undefined-- 49.892
1.44 --undefined-- 50.824
1.45 --undefined-- 54.368
1.46 --undefined-- 58.178
1.47 --undefined-- 60.985
1.48 --undefined-- 63.193
1.49 150.332 65.116
1.50 147.416 66.797
1.51 140.759 68.282
1.52 136.694 69.672
1.53 134.164 70.720
1.54 218.226 71.362
1.55 221.765 71.764
1.56 228.868 71.902
1.57 230.204 71.514
1.58 228.882 70.114
1.59 213.374 67.878
1.60 193.514 66.311
1.61 199.234 64.422
1.62 208.936 60.390
1.63 --undefined-- 57.628
1.64 201.248 62.494
1.65 187.444 67.978
1.66 --undefined-- 72.000
1.67 256.865 74.126
1.68 254.531 74.654
1.69 258.021 73.949
1.70 262.225 72.658
1.71 267.746 71.571
1.72 272.277 70.325
1.73 275.355 68.177
1.74 250.129 65.555
1.75 250.595 62.374
1.76 256.167 57.407
1.77 262.546 51.713
1.78 --undefined-- 47.433
1.79 --undefined-- 44.378
1.80 --undefined-- 43.547
1.81 --undefined-- 53.615
1.82 --undefined-- 64.331
1.83 --undefined-- 70.349
1.84 292.514 72.719
1.85 284.512 73.000
1.86 277.273 72.851
1.87 271.517 72.828
1.88 267.953 72.911
1.89 266.072 73.001
1.90 267.919 72.824
1.91 268.468 72.451
1.92 267.346 72.174
1.93 265.602 71.997
1.94 265.050 71.665
1.95 265.358 71.036
1.96 264.811 70.167
1.97 262.227 69.178
1.98 258.181 68.141
1.99 252.808 66.908
2.00 244.426 65.545
2.01 236.252 65.091
2.02 227.728 66.093
2.03 219.292 67.769
2.04 207.744 69.419
2.05 --undefined-- 70.581
2.06 --undefined-- 70.890
2.07 --undefined-- 70.058
2.08 --undefined-- 67.859
2.09 131.505 64.893
2.10 133.012 63.098
2.11 134.465 62.370
2.12 135.050 60.934
2.13 135.334 58.242
2.14 --undefined-- 54.496
2.15 --undefined-- 50.975
2.16 --undefined-- 48.800
2.17 --undefined-- 47.988
2.18 --undefined-- 47.962
2.19 --undefined-- 46.977
2.20 --undefined-- 44.675
2.21 --undefined-- 42.123
2.22 --undefined-- 39.643
2.23 --undefined-- 38.214
2.24 --undefined-- 37.854
2.25 --undefined-- 36.331
2.26 --undefined-- 33.782
2.27 --undefined-- 34.801
2.28 --undefined-- 39.469
2.29 --undefined-- 42.820
2.30 --undefined-- 43.529
2.31 --undefined-- 42.159
2.32 --undefined-- 41.075
2.33 --undefined-- 42.066
2.34 --undefined-- 44.024
2.35 --undefined-- 45.058
2.36 --undefined-- 44.355
2.37 --undefined-- 42.985
2.38 --undefined-- 42.447
2.39 --undefined-- 43.228
2.40 --undefined-- 45.237
2.41 --undefined-- 47.916
2.42 --undefined-- 50.012
2.43 --undefined-- 53.395
2.44 --undefined-- 62.081
2.45 --undefined-- 68.640
2.46 --undefined-- 72.052
2.47 --undefined-- 73.468
2.48 --undefined-- 73.860
2.49 164.150 73.544
2.50 160.753 72.830
2.51 160.266 71.536
2.52 160.015 68.762
2.53 163.644 64.223
2.54 165.959 58.899
2.55 162.065 53.156
2.56 --undefined-- 47.343
2.57 --undefined-- 45.330
2.58 --undefined-- 44.401
2.59 --undefined-- 41.870
2.60 --undefined-- 39.151
2.61 --undefined-- 39.156
2.62 --undefined-- 47.345
2.63 --undefined-- 56.774
2.64 275.626 62.970
2.65 270.591 66.481
2.66 269.804 68.219
2.67 269.423 69.038
2.68 268.337 69.375
2.69 264.234 69.303
2.70 257.222 69.197
2.71 250.970 69.856
2.72 250.921 71.069
2.73 248.501 72.211
2.74 242.273 73.249
2.75 235.942 73.889
2.76 228.001 73.942
2.77 219.514 73.513
2.78 208.648 72.435
2.79 190.238 71.146
2.80 178.642 70.814
2.81 162.750 71.199
2.82 154.280 71.681
2.83 142.654 71.683
2.84 134.131 71.087
2.85 129.573 70.253
2.86 126.015 69.573
2.87 124.183 69.154
2.88 123.494 68.726
2.89 124.230 68.252
2.90 125.609 67.777
2.91 126.750 67.318
2.92 126.588 66.926
2.93 123.656 66.553
2.94 --undefined-- 65.807
2.95 --undefined-- 63.798
2.96 --undefined-- 59.574
2.97 --undefined-- 53.023
2.98 --undefined-- 46.504
2.99 --undefined-- 40.934
3.00 --undefined-- 35.908
3.01 --undefined-- 35.545
3.02 --undefined-- 36.368
3.03 --undefined-- 44.285
3.04 --undefined-- 56.885
3.05 --undefined-- 64.612
3.06 150.465 68.580
3.07 153.184 70.073
3.08 159.494 70.608
3.09 159.143 71.334
3.10 154.117 72.116
3.11 150.509 72.540
3.12 150.969 72.096
3.13 151.563 70.467
3.14 151.785 67.926
3.15 150.635 64.451
3.16 150.017 59.715
3.17 152.332 54.351
3.18 --undefined-- 49.191
3.19 --undefined-- 44.490
3.20 --undefined-- 41.660
3.21 --undefined-- 39.725
3.22 --undefined-- 39.071
3.23 --undefined-- 38.868
3.24 --undefined-- 37.191
3.25 --undefined-- 35.643
3.26 --undefined-- 39.919
3.27 --undefined-- 51.569
3.28 --undefined-- 60.835
3.29 227.171 66.464
3.30 217.449 69.540
3.31 215.504 71.244
3.32 214.491 72.166
3.33 212.460 72.331
3.34 209.362 71.525
3.35 204.234 69.229
3.36 194.480 65.223
3.37 187.252 60.203
3.38 187.964 54.727
3.39 --undefined-- 48.852
3.40 --undefined-- 45.117
3.41 --undefined-- 43.012
3.42 --undefined-- 40.352
3.43 --undefined-- 37.274
3.44 --undefined-- 35.220
3.45 --undefined-- 37.262
3.46 --undefined-- 41.759
3.47 --undefined-- 46.654
3.48 --undefined-- 55.385
3.49 235.553 63.470
3.50 210.780 68.510
3.51 190.918 71.114
3.52 178.342 72.212
3.53 164.667 72.505
3.54 159.291 72.466
3.55 157.771 72.339
3.56 158.254 72.256
3.57 159.392 71.790
3.58 154.040 69.925
3.59 146.851 66.138
3.60 148.429 60.327
3.61 --undefined-- 52.707
3.62 --undefined-- 47.107
3.63 --undefined-- 45.633
3.64 --undefined-- 44.143
3.65 --undefined-- 42.868
3.66 --undefined-- 42.572
3.67 --undefined-- 42.212
3.68 --undefined-- 42.941
3.69 --undefined-- 49.012
3.70 --undefined-- 55.810
3.71 141.604 60.174
3.72 138.220 62.676
3.73 129.064 64.467
3.74 121.065 66.103
3.75 119.098 67.042
3.76 117.973 66.620
3.77 114.578 64.609
3.78 110.387 61.465
3.79 106.647 58.081
3.80 --undefined-- 54.319
3.81 --undefined-- 49.660
3.82 --undefined-- 45.422
3.83 --undefined-- 45.209
3.84 --undefined-- 47.913
3.85 --undefined-- 54.204
3.86 --undefined-- 61.145
3.87 155.068 65.471
3.88 145.915 67.530
3.89 139.917 68.399
3.90 139.756 68.871
3.91 139.325 69.092
3.92 138.629 69.324
3.93 137.283 69.612
3.94 135.837 69.758
3.95 134.864 69.794
3.96 133.903 69.718
3.97 132.614 69.430
3.98 131.907 68.957
3.99 131.520 68.267
4.00 132.151 67.468
4.01 135.352 67.073
4.02 138.846 67.334
4.03 142.769 68.031
4.04 146.155 68.791
4.05 149.516 69.356
4.06 154.419 69.590
4.07 158.590 69.608
4.08 159.031 69.657
4.09 158.259 69.744
4.10 158.156 69.669
4.11 158.467 69.364
4.12 158.878 69.092
4.13 159.410 69.030
4.14 160.335 69.004
4.15 160.738 68.738
4.16 160.121 68.066
4.17 159.379 67.156
4.18 159.088 66.467
4.19 159.189 66.628
4.20 156.885 67.338
4.21 153.371 67.946
4.22 152.578 68.725
4.23 152.974 69.667
4.24 153.829 70.274
4.25 155.835 70.660
4.26 158.412 71.239
4.27 161.128 71.896
4.28 162.933 72.097
4.29 163.581 71.562
4.30 162.651 70.465
4.31 160.508 68.892
4.32 154.855 66.485
4.33 147.392 62.782
4.34 159.486 57.930
4.35 --undefined-- 51.688
4.36 --undefined-- 45.878
4.37 --undefined-- 43.582
4.38 --undefined-- 42.384
4.39 --undefined-- 45.705
4.40 --undefined-- 49.372
4.41 --undefined-- 51.422
4.42 --undefined-- 52.681
4.43 --undefined-- 53.712
4.44 --undefined-- 55.047
4.45 --undefined-- 61.030
4.46 --undefined-- 66.026
4.47 --undefined-- 68.235
4.48 123.796 68.756
4.49 117.735 68.473
4.50 115.656 67.851
4.51 115.587 67.585
4.52 119.262 67.892
4.53 122.944 68.311
4.54 127.182 68.656
4.55 131.553 68.906
4.56 137.623 69.313
4.57 142.417 70.076
4.58 147.112 70.679
4.59 151.719 70.938
4.60 153.278 71.117
4.61 152.053 71.194
4.62 149.195 70.857
4.63 146.910 70.296
4.64 145.377 70.000
4.65 143.954 69.971
4.66 141.029 69.884
4.67 137.399 69.546
4.68 133.140 69.080
4.69 131.113 68.385
4.70 127.693 66.605
4.71 123.931 63.089
4.72 128.779 57.607
4.73 --undefined-- 50.616
4.74 --undefined-- 46.028
4.75 --undefined-- 44.831
4.76 --undefined-- 43.264
4.77 --undefined-- 42.099
4.78 --undefined-- 42.939
4.79 --undefined-- 48.070
4.80 --undefined-- 54.395
4.81 --undefined-- 58.466
4.82 --undefined-- 60.475
4.83 --undefined-- 60.771
4.84 --undefined-- 59.168
4.85 --undefined-- 56.108
4.86 --undefined-- 52.857
4.87 --undefined-- 49.067
4.88 --undefined-- 44.650
4.89 --undefined-- 42.874
4.90 --undefined-- 50.944
4.91 --undefined-- 59.088
4.92 127.867 64.017
4.93 121.812 66.558
4.94 117.756 67.547
4.95 113.162 68.010
4.96 113.287 68.366
4.97 112.531 68.467
4.98 108.273 68.577
4.99 103.888 68.557
5.00 103.099 68.033
5.01 104.957 67.231
5.02 106.606 66.448
5.03 108.781 65.707
5.04 112.852 65.197
5.05 116.689 65.204
5.06 118.499 65.636
5.07 121.297 66.332
5.08 125.970 67.120
5.09 132.466 67.935
5.10 136.381 68.782
5.11 136.422 69.348
5.12 137.041 69.540
5.13 137.480 69.562
5.14 136.835 69.550
5.15 134.631 69.449
5.16 132.919 69.057
5.17 131.983 68.280
5.18 131.751 67.534
5.19 133.525 67.573
5.20 132.581 67.882
5.21 131.612 67.853
5.22 132.653 67.657
5.23 131.436 67.707
5.24 125.658 68.020
5.25 126.308 68.279
5.26 128.112 68.479
5.27 130.348 68.737
5.28 133.067 69.021
5.29 137.744 69.136
5.30 140.737 68.849
5.31 145.162 68.378
5.32 145.667 67.890
5.33 144.003 67.104
5.34 141.313 65.928
5.35 139.318 64.692
5.36 137.562 64.611
5.37 122.069 66.009
5.38 119.876 67.476
5.39 115.854 68.310
5.40 113.526 68.473
5.41 114.125 68.303
5.42 117.745 68.395
5.43 121.271 68.637
5.44 126.968 68.572
5.45 134.209 68.601
5.46 140.796 68.961
5.47 144.441 69.523
5.48 153.412 69.818
5.49 154.974 69.798
5.50 155.437 69.749
5.51 155.129 69.698
5.52 154.290 69.609
5.53 152.818 69.436
5.54 151.192 69.181
5.55 149.546 69.001
5.56 147.910 68.937
5.57 145.391 68.971
5.58 139.465 69.027
5.59 132.925 68.529
5.60 --undefined-- 66.879
5.61 --undefined-- 64.232
5.62 --undefined-- 60.689
5.63 --undefined-- 55.410
5.64 --undefined-- 47.303
5.65 --undefined-- 40.953
5.66 --undefined-- 40.012
5.67 --undefined-- 40.229
5.68 --undefined-- 40.093
5.69 --undefined-- 39.239
5.70 --undefined-- 37.042
5.71 --undefined-- 36.366
5.72 --undefined-- 40.466
5.73 --undefined-- 42.752
5.74 --undefined-- 41.596
5.75 --undefined-- 37.751
5.76 --undefined-- 33.772
5.77 --undefined-- 33.253
5.78 --undefined-- 35.404
5.79 --undefined-- 36.986
5.80 --undefined-- 37.046
5.81 --undefined-- 37.823
5.82 --undefined-- 41.731
5.83 --undefined-- 46.576
5.84 --undefined-- --undefined--
5.85 --undefined-- --undefined--
5.86 --undefined-- --undefined--
5.87 --undefined-- --undefined--
