Time Pitch Intensity
0.01 --undefined-- --undefined--
0.02 74.781 --undefined--
0.03 154.858 --undefined--
0.04 158.252 --undefined--
0.05 160.262 69.886
0.06 166.067 70.607
0.07 172.550 71.172
0.08 181.162 71.872
0.09 187.142 72.386
0.10 191.437 72.289
0.11 196.675 71.991
0.12 199.813 71.957
0.13 202.324 72.086
0.14 204.176 72.178
0.15 205.528 72.116
0.16 205.345 72.082
0.17 204.168 72.141
0.18 202.164 72.190
0.19 200.534 72.179
0.20 198.948 71.996
0.21 196.927 71.694
0.22 194.867 71.496
0.23 194.208 71.315
0.24 195.055 71.096
0.25 195.858 70.901
0.26 196.676 70.651
0.27 196.615 70.259
0.28 195.681 69.609
0.29 192.521 68.629
0.30 187.690 67.708
0.31 185.938 67.634
0.32 184.039 68.416
0.33 181.733 69.416
0.34 179.160 70.101
0.35 176.978 70.172
0.36 178.806 69.898
0.37 181.640 69.770
0.38 184.057 69.795
0.39 189.357 70.009
0.40 198.325 70.558
0.41 206.615 71.382
0.42 211.494 72.015
0.43 214.186 72.011
0.44 216.350 71.348
0.45 216.312 70.106
0.46 213.241 68.033
0.47 213.626 65.217
0.48 219.329 64.558
0.49 248.806 68.371
0.50 251.001 71.702
0.51 247.627 73.293
0.52 238.779 73.603
0.53 225.902 73.371
0.54 214.674 72.827
0.55 206.296 71.371
0.56 197.479 68.361
0.57 188.071 63.774
0.58 185.523 58.264
0.59 --undefined-- 53.260
0.60 --undefined-- 55.667
0.61 --undefined-- 64.084
0.62 214.350 69.558
0.63 201.983 72.138
0.64 196.668 72.564
0.65 188.146 71.795
0.66 181.398 71.117
0.67 177.747 71.163
0.68 174.194 71.543
0.69 171.539 71.917
0.70 170.015 72.073
0.71 168.274 72.087
0.72 167.458 72.050
0.73 165.734 71.773
0.74 162.946 70.970
0.75 161.262 69.908
0.76 161.295 69.436
0.77 162.539 70.110
0.78 164.004 71.301
0.79 163.566 72.349
0.80 162.970 72.997
0.81 161.416 73.205
0.82 159.020 73.226
0.83 156.643 73.092
0.84 156.511 72.739
0.85 155.738 72.288
0.86 155.562 71.931
0.87 153.967 71.817
0.88 153.540 71.820
0.89 153.378 71.726
0.90 154.194 71.539
0.91 155.154 71.215
0.92 160.682 71.212
0.93 168.642 71.927
0.94 177.569 72.574
0.95 191.835 72.822
0.96 204.381 72.997
0.97 213.284 73.111
0.98 220.230 72.914
0.99 224.331 71.732
1.00 230.193 68.802
1.01 232.651 63.806
1.02 227.284 56.854
1.03 224.356 50.991
1.04 --undefined-- 49.460
1.05 --undefined-- 48.877
1.06 --undefined-- 48.750
1.07 --undefined-- 49.215
1.08 --undefined-- 50.063
1.09 --undefined-- 50.493
1.10 --undefined-- 50.706
1.11 --undefined-- 50.541
1.12 --undefined-- 49.997
1.13 --undefined-- 49.853
1.14 --undefined-- 50.243
1.15 --undefined-- 51.104
1.16 --undefined-- 51.515
1.17 --undefined-- 51.247
1.18 --undefined-- 50.636
1.19 --undefined-- 49.523
1.20 --undefined-- 48.139
1.21 --undefined-- 46.536
1.22 --undefined-- 44.897
1.23 --undefined-- 43.508
1.24 --undefined-- 42.316
1.25 --undefined-- 40.977
1.26 --undefined-- 39.397
1.27 --undefined-- 38.538
1.28 --undefined-- 39.938
1.29 --undefined-- 42.009
1.30 --undefined-- 41.950
1.31 --undefined-- 40.073
1.32 --undefined-- 39.032
1.33 --undefined-- 43.871
1.34 --undefined-- 53.266
1.35 --undefined-- 61.812
1.36 260.569 68.339
1.37 255.176 72.358
1.38 258.227 74.127
1.39 257.623 74.354
1.40 254.786 74.004
1.41 251.912 73.623
1.42 249.144 72.974
1.43 242.414 71.450
1.44 221.967 68.515
1.45 200.178 64.338
1.46 212.540 59.898
1.47 220.491 54.777
1.48 --undefined-- 47.719
1.49 --undefined-- 42.358
1.50 --undefined-- 41.534
1.51 --undefined-- 40.705
1.52 --undefined-- 39.430
1.53 --undefined-- 38.974
1.54 --undefined-- 38.673
1.55 --undefined-- 38.312
1.56 --undefined-- 38.591
1.57 --undefined-- 43.836
1.58 --undefined-- 52.137
1.59 214.726 60.322
1.60 195.884 66.507
1.61 189.740 70.438
1.62 190.415 72.614
1.63 192.149 73.526
1.64 194.233 73.701
1.65 197.536 73.718
1.66 202.441 73.805
1.67 209.243 73.862
1.68 217.795 73.856
1.69 225.717 73.693
1.70 234.398 73.197
1.71 245.352 72.755
1.72 256.347 72.586
1.73 261.383 71.807
1.74 262.769 69.346
1.75 251.844 64.522
1.76 241.750 57.780
1.77 --undefined-- 50.607
1.78 --undefined-- 45.673
1.79 --undefined-- 45.110
1.80 --undefined-- 48.031
1.81 --undefined-- 52.598
1.82 --undefined-- 57.298
1.83 266.799 63.755
1.84 248.675 69.038
1.85 235.998 72.047
1.86 227.101 73.233
1.87 215.659 73.444
1.88 206.731 73.435
1.89 200.862 73.449
1.90 196.235 73.398
1.91 192.328 73.285
1.92 189.756 73.167
1.93 188.664 73.052
1.94 187.602 72.914
1.95 187.584 72.761
1.96 187.825 72.356
1.97 187.333 71.101
1.98 184.581 68.578
1.99 175.955 65.034
2.00 168.512 60.988
2.01 175.175 56.214
2.02 --undefined-- 50.851
2.03 --undefined-- 47.166
2.04 --undefined-- 47.396
2.05 --undefined-- 50.140
2.06 --undefined-- 55.437
2.07 --undefined-- 62.522
2.08 233.414 68.209
2.09 227.302 71.431
2.10 223.068 72.703
2.11 219.659 72.779
2.12 216.497 72.459
2.13 215.218 72.146
2.14 213.162 71.640
2.15 211.957 70.962
2.16 212.701 70.699
2.17 214.008 70.854
2.18 213.653 71.029
2.19 213.192 71.166
2.20 213.377 71.293
2.21 213.267 71.415
2.22 212.862 71.547
2.23 213.337 71.804
2.24 215.104 72.259
2.25 215.842 72.593
2.26 214.442 72.575
2.27 212.985 72.441
2.28 212.253 72.286
2.29 211.529 72.077
2.30 210.389 71.944
2.31 209.158 71.804
2.32 208.190 71.067
2.33 205.653 69.281
2.34 198.919 66.619
2.35 198.124 63.235
2.36 199.695 58.398
2.37 --undefined-- 51.598
2.38 --undefined-- 46.944
2.39 --undefined-- 48.293
2.40 --undefined-- 51.782
2.41 --undefined-- 59.167
2.42 186.123 65.139
2.43 182.898 68.230
2.44 178.175 69.373
2.45 171.199 69.725
2.46 166.031 69.881
2.47 163.179 69.813
2.48 158.175 69.408
2.49 155.342 68.653
2.50 153.302 67.810
2.51 152.924 67.125
2.52 151.611 66.329
2.53 150.443 65.352
2.54 150.656 64.613
2.55 150.775 64.346
2.56 81.779 64.488
2.57 81.124 65.104
2.58 82.160 66.508
2.59 79.168 68.338
2.60 167.079 70.113
2.61 169.062 71.424
2.62 169.450 72.177
2.63 169.518 72.436
2.64 168.398 72.266
2.65 167.278 71.607
2.66 164.918 70.058
2.67 161.770 66.873
2.68 160.801 61.629
2.69 159.322 55.477
2.70 163.016 51.714
2.71 --undefined-- 54.724
2.72 --undefined-- 58.690
2.73 --undefined-- 59.911
2.74 --undefined-- 59.181
2.75 --undefined-- 57.533
2.76 --undefined-- 55.807
2.77 --undefined-- 59.662
2.78 --undefined-- 66.105
2.79 175.662 69.827
2.80 169.801 71.273
2.81 161.099 71.588
2.82 154.743 71.410
2.83 153.830 71.030
2.84 155.452 70.944
2.85 162.451 71.296
2.86 165.068 71.547
2.87 170.888 71.295
2.88 175.224 70.685
2.89 178.172 70.211
2.90 181.179 69.899
2.91 182.892 68.747
2.92 181.378 65.727
2.93 174.748 60.361
2.94 --undefined-- 52.953
2.95 --undefined-- 46.557
2.96 --undefined-- 44.917
2.97 --undefined-- 44.951
2.98 --undefined-- 48.528
2.99 --undefined-- 53.036
3.00 212.436 56.351
3.01 211.438 59.464
3.02 211.160 65.413
3.03 211.643 70.466
3.04 203.756 72.719
3.05 192.249 72.781
3.06 180.243 71.551
3.07 168.591 69.628
3.08 151.517 67.467
3.09 --undefined-- 65.050
3.10 --undefined-- 61.437
3.11 --undefined-- 56.359
3.12 --undefined-- 51.443
3.13 --undefined-- 46.165
3.14 --undefined-- 43.630
3.15 --undefined-- 47.698
3.16 --undefined-- 51.575
3.17 --undefined-- 55.289
3.18 --undefined-- 60.272
3.19 --undefined-- 64.055
3.20 --undefined-- 66.848
3.21 182.394 69.213
3.22 185.927 70.866
3.23 187.816 71.832
3.24 190.236 72.419
3.25 192.851 72.777
3.26 194.630 72.976
3.27 196.018 73.017
3.28 195.763 72.577
3.29 194.285 70.918
3.30 190.163 67.219
3.31 174.970 61.063
3.32 182.944 53.301
3.33 --undefined-- 48.117
3.34 --undefined-- 46.592
3.35 --undefined-- 44.516
3.36 --undefined-- 47.390
3.37 --undefined-- 58.533
3.38 --undefined-- 66.956
3.39 204.109 71.491
3.40 202.045 72.894
3.41 193.928 72.462
3.42 188.151 72.038
3.43 187.083 72.387
3.44 186.278 72.726
3.45 184.892 72.736
3.46 183.914 72.603
3.47 182.440 72.345
3.48 181.716 72.095
3.49 181.498 71.953
3.50 181.160 71.772
3.51 180.631 71.499
3.52 179.428 71.135
3.53 178.412 70.668
3.54 177.252 70.145
3.55 177.182 69.758
3.56 177.641 69.617
3.57 178.767 69.674
3.58 179.832 69.802
3.59 180.571 69.976
3.60 181.329 70.213
3.61 182.780 70.435
3.62 183.461 70.594
3.63 184.318 70.688
3.64 184.268 70.651
3.65 184.349 70.455
3.66 183.678 70.031
3.67 182.257 69.055
3.68 179.456 67.030
3.69 176.484 63.482
3.70 173.585 58.214
3.71 --undefined-- 54.575
3.72 --undefined-- 61.601
3.73 --undefined-- 66.655
3.74 --undefined-- 69.274
3.75 179.139 71.232
3.76 170.699 72.249
3.77 162.984 71.770
3.78 153.081 69.885
3.79 144.607 66.950
3.80 --undefined-- 63.759
3.81 --undefined-- 60.434
3.82 --undefined-- 56.891
3.83 --undefined-- 53.439
3.84 --undefined-- 50.119
3.85 --undefined-- 46.905
3.86 --undefined-- 43.885
3.87 --undefined-- 42.939
3.88 --undefined-- 42.696
3.89 --undefined-- 42.222
3.90 --undefined-- 41.928
3.91 --undefined-- 45.773
3.92 --undefined-- 56.015
3.93 --undefined-- 64.639
3.94 --undefined-- 70.008
3.95 189.560 72.302
3.96 185.595 72.505
3.97 179.740 72.135
3.98 176.397 72.051
3.99 173.996 72.087
4.00 170.561 72.034
4.01 --undefined-- 71.676
4.02 --undefined-- 70.431
4.03 --undefined-- 67.669
4.04 --undefined-- 63.143
4.05 --undefined-- 56.876
4.06 --undefined-- 49.996
4.07 --undefined-- 45.007
4.08 --undefined-- 43.698
4.09 --undefined-- 43.213
4.10 --undefined-- 42.845
4.11 --undefined-- 43.452
4.12 --undefined-- 44.423
4.13 --undefined-- 45.545
4.14 --undefined-- 46.533
4.15 --undefined-- 47.196
4.16 --undefined-- 47.976
4.17 --undefined-- 48.511
4.18 --undefined-- 48.565
4.19 --undefined-- 49.163
4.20 --undefined-- 49.826
4.21 --undefined-- 50.142
4.22 --undefined-- 50.752
4.23 --undefined-- 51.151
4.24 --undefined-- 51.253
4.25 --undefined-- 51.087
4.26 --undefined-- 50.554
4.27 --undefined-- 49.736
4.28 --undefined-- 48.429
4.29 --undefined-- 46.807
4.30 --undefined-- 45.390
4.31 --undefined-- 43.400
4.32 --undefined-- 40.925
4.33 --undefined-- 39.636
4.34 --undefined-- 39.025
4.35 --undefined-- 38.398
4.36 --undefined-- 39.776
4.37 --undefined-- 40.654
4.38 --undefined-- 41.436
4.39 --undefined-- 53.226
4.40 197.184 62.760
4.41 182.328 68.173
4.42 176.877 70.721
4.43 178.132 71.935
4.44 181.284 72.807
4.45 183.595 73.499
4.46 184.371 73.819
4.47 185.536 73.552
4.48 184.876 72.347
4.49 176.675 69.720
4.50 165.267 65.660
4.51 157.869 61.538
4.52 --undefined-- 61.040
4.53 --undefined-- 64.746
4.54 241.823 69.691
4.55 251.257 73.350
4.56 254.743 74.863
4.57 245.796 74.742
4.58 229.920 74.153
4.59 229.644 73.888
4.60 235.869 73.954
4.61 240.471 74.022
4.62 245.913 73.990
4.63 248.569 74.171
4.64 247.628 74.527
4.65 243.248 74.461
4.66 236.180 73.563
4.67 229.465 71.768
4.68 227.300 68.931
4.69 214.697 65.285
4.70 206.710 62.553
4.71 205.851 60.608
4.72 205.747 57.271
4.73 214.479 52.436
4.74 --undefined-- 46.562
4.75 --undefined-- 42.518
4.76 --undefined-- 51.767
4.77 --undefined-- 62.300
4.78 --undefined-- 68.850
4.79 145.294 72.186
4.80 145.088 73.448
4.81 146.370 73.736
4.82 147.334 73.610
4.83 148.465 73.245
4.84 150.316 72.732
4.85 150.557 72.212
4.86 299.256 71.819
4.87 296.553 71.372
4.88 292.028 70.644
4.89 285.441 69.658
4.90 276.117 68.921
4.91 266.784 68.845
4.92 257.883 69.237
4.93 248.697 69.726
4.94 237.339 70.294
4.95 227.587 70.896
4.96 217.110 71.218
4.97 205.853 71.386
4.98 195.416 71.313
4.99 183.619 70.580
5.00 172.434 69.398
5.01 164.536 68.419
5.02 159.432 67.711
5.03 155.901 67.107
5.04 155.245 67.007
5.05 155.487 66.974
5.06 153.756 66.280
5.07 151.626 64.442
5.08 152.669 60.975
5.09 159.045 55.950
5.10 --undefined-- 50.517
5.11 --undefined-- 48.962
5.12 --undefined-- 53.704
5.13 243.645 60.633
5.14 243.495 67.003
5.15 246.910 71.108
5.16 256.631 73.160
5.17 261.709 73.690
5.18 262.552 73.044
5.19 260.234 71.297
5.20 247.935 68.282
5.21 226.634 64.099
5.22 221.189 59.374
5.23 --undefined-- 58.481
5.24 283.958 66.254
5.25 260.710 71.376
5.26 242.471 73.237
5.27 230.789 73.080
5.28 219.946 72.651
5.29 212.281 72.527
5.30 206.095 72.290
5.31 199.245 71.926
5.32 194.011 71.493
5.33 189.873 71.128
5.34 187.737 71.012
5.35 186.546 70.963
5.36 185.820 70.762
5.37 186.319 70.449
5.38 188.552 70.324
5.39 190.965 70.519
5.40 193.120 70.882
5.41 196.619 71.480
5.42 202.267 --undefined--
5.43 209.250 --undefined--
5.44 --undefined-- --undefined--
5.45 --undefined-- --undefined--
