Time Pitch Intensity
0.01 --undefined-- --undefined--
0.02 --undefined-- --undefined--
0.03 --undefined-- --undefined--
0.04 139.709 --undefined--
0.05 139.986 73.365
0.06 131.979 74.587
0.07 125.121 74.095
0.08 123.368 73.489
0.09 122.302 73.278
0.10 122.320 73.180
0.11 121.610 73.411
0.12 120.031 73.856
0.13 116.589 74.028
0.14 115.234 73.381
0.15 113.788 71.667
0.16 109.075 68.847
0.17 107.729 65.773
0.18 108.423 64.467
0.19 112.662 66.665
0.20 120.288 70.620
0.21 120.703 73.292
0.22 120.395 74.274
0.23 119.958 74.206
0.24 118.890 73.541
0.25 117.439 72.081
0.26 115.795 69.809
0.27 115.561 67.461
0.28 113.131 66.339
0.29 117.987 69.291
0.30 128.616 73.388
0.31 129.813 75.379
0.32 123.412 75.512
0.33 118.265 74.724
0.34 114.077 73.579
0.35 108.727 72.382
0.36 107.266 71.620
0.37 106.291 71.302
0.38 104.133 70.941
0.39 102.578 70.336
0.40 98.444 69.099
0.41 90.732 67.012
0.42 91.696 65.231
0.43 88.421 64.238
0.44 88.032 63.337
0.45 --undefined-- 62.571
0.46 --undefined-- 61.741
0.47 --undefined-- 59.997
0.48 --undefined-- 56.020
0.49 --undefined-- 48.882
0.50 --undefined-- 40.744
0.51 --undefined-- 41.452
0.52 --undefined-- 43.952
0.53 --undefined-- 46.208
0.54 --undefined-- 47.839
0.55 --undefined-- 48.067
0.56 --undefined-- 48.243
0.57 --undefined-- 49.453
0.58 --undefined-- 50.551
0.59 --undefined-- 51.431
0.60 --undefined-- 52.442
0.61 --undefined-- 53.233
0.62 --undefined-- 53.596
0.63 --undefined-- 53.558
0.64 --undefined-- 53.404
0.65 --undefined-- 54.077
0.66 --undefined-- 55.032
0.67 --undefined-- 55.014
0.68 --undefined-- 53.873
0.69 --undefined-- 52.614
0.70 --undefined-- 52.118
0.71 --undefined-- 52.313
0.72 --undefined-- 52.921
0.73 --undefined-- 53.060
0.74 --undefined-- 52.279
0.75 --undefined-- 50.747
0.76 --undefined-- 48.473
0.77 --undefined-- 44.961
0.78 --undefined-- 40.521
0.79 --undefined-- 39.280
0.80 --undefined-- 44.691
0.81 --undefined-- 56.624
0.82 --undefined-- 65.210
0.83 127.295 70.413
0.84 123.596 73.470
0.85 125.341 75.239
0.86 125.303 76.120
0.87 124.581 76.479
0.88 125.315 76.558
0.89 126.047 76.543
0.90 127.591 76.626
0.91 129.223 76.731
0.92 131.797 76.622
0.93 134.605 76.123
0.94 134.698 75.408
0.95 129.767 75.195
0.96 131.600 74.450
0.97 133.725 71.295
0.98 --undefined-- 66.372
0.99 275.240 65.005
1.00 277.811 63.668
1.01 281.287 61.695
1.02 --undefined-- 66.095
1.03 --undefined-- 69.846
1.04 --undefined-- 71.410
1.05 --undefined-- 72.260
1.06 152.170 73.787
1.07 155.813 75.400
1.08 158.463 76.128
1.09 156.850 76.142
1.10 156.932 75.985
1.11 157.198 75.801
1.12 156.985 75.577
1.13 157.608 75.489
1.14 158.302 75.545
1.15 159.032 75.651
1.16 160.163 75.734
1.17 161.678 75.768
1.18 163.214 75.742
1.19 163.967 75.703
1.20 164.421 75.925
1.21 165.505 76.432
1.22 166.329 76.761
1.23 166.307 76.316
1.24 164.090 74.499
1.25 154.983 71.000
1.26 154.969 65.936
1.27 151.492 59.512
1.28 --undefined-- 52.192
1.29 --undefined-- 50.953
1.30 --undefined-- 55.593
1.31 --undefined-- 58.485
1.32 --undefined-- 63.083
1.33 --undefined-- 70.256
1.34 207.258 74.756
1.35 198.374 76.106
1.36 194.499 75.427
1.37 191.147 74.275
1.38 187.788 73.484
1.39 186.220 73.288
1.40 185.501 73.660
1.41 185.876 74.161
1.42 186.155 74.613
1.43 186.479 75.080
1.44 188.563 75.635
1.45 191.376 76.184
1.46 192.097 76.568
1.47 196.104 76.684
1.48 191.716 76.423
1.49 187.983 76.105
1.50 185.848 76.079
1.51 183.979 76.113
1.52 182.913 75.957
1.53 181.931 75.379
1.54 181.310 73.660
1.55 178.753 69.684
1.56 156.193 62.539
1.57 --undefined-- 52.547
1.58 --undefined-- 43.989
1.59 --undefined-- 41.992
1.60 --undefined-- 49.885
1.61 --undefined-- 60.835
1.62 --undefined-- 69.297
1.63 207.209 74.239
1.64 201.575 76.105
1.65 195.965 76.191
1.66 191.698 76.000
1.67 191.196 75.912
1.68 189.543 76.000
1.69 186.728 76.391
1.70 186.220 76.789
1.71 186.510 76.953
1.72 186.182 76.755
1.73 185.716 75.974
1.74 184.834 75.197
1.75 185.681 75.358
1.76 182.324 75.758
1.77 178.658 76.039
1.78 174.557 76.363
1.79 170.599 76.681
1.80 167.167 76.912
1.81 163.514 77.052
1.82 160.092 77.060
1.83 156.896 76.980
1.84 152.868 76.813
1.85 147.999 76.615
1.86 144.745 76.547
1.87 141.185 76.405
1.88 136.248 75.861
1.89 131.730 75.037
1.90 127.323 74.338
1.91 116.083 73.693
1.92 106.437 72.744
1.93 101.997 71.487
1.94 96.088 70.376
1.95 94.918 69.812
1.96 96.317 70.012
1.97 95.515 70.520
1.98 97.385 70.922
1.99 98.673 71.325
2.00 100.311 72.079
2.01 101.372 73.071
2.02 102.278 73.567
2.03 104.182 73.278
2.04 107.501 72.801
2.05 109.987 72.888
2.06 112.209 73.404
2.07 115.531 73.999
2.08 117.399 74.308
2.09 117.807 74.358
2.10 117.807 74.523
2.11 118.562 74.757
2.12 119.313 74.809
2.13 119.955 74.566
2.14 118.383 73.812
2.15 117.227 72.170
2.16 113.719 69.823
2.17 108.188 67.659
2.18 108.835 66.380
2.19 111.495 66.015
2.20 112.133 66.886
2.21 114.025 69.678
2.22 121.408 72.341
2.23 120.998 73.375
2.24 116.087 72.917
2.25 112.064 71.793
2.26 109.685 71.066
2.27 105.882 70.902
2.28 104.484 70.832
2.29 104.089 70.788
2.30 103.247 71.174
2.31 102.199 71.579
2.32 101.547 71.642
2.33 98.746 71.589
2.34 100.097 71.143
2.35 102.166 69.364
2.36 98.488 65.548
2.37 103.772 60.658
2.38 111.628 57.506
2.39 118.642 54.747
2.40 --undefined-- 50.408
2.41 --undefined-- 45.346
2.42 --undefined-- 49.952
2.43 --undefined-- 60.210
2.44 --undefined-- 68.037
2.45 --undefined-- 72.408
2.46 124.266 73.616
2.47 124.559 72.557
2.48 115.726 71.006
2.49 111.292 70.281
2.50 111.580 70.281
2.51 116.626 70.967
2.52 118.529 71.814
2.53 120.324 72.365
2.54 121.636 72.718
2.55 120.926 73.074
2.56 119.136 73.435
2.57 114.521 73.695
2.58 113.323 73.631
2.59 116.478 73.467
2.60 116.199 73.814
2.61 117.439 74.460
2.62 117.060 74.667
2.63 114.349 74.192
2.64 109.305 73.490
2.65 106.653 72.790
2.66 102.855 71.051
2.67 93.098 67.185
2.68 94.829 61.650
2.69 105.390 56.787
2.70 --undefined-- 54.683
2.71 --undefined-- 58.214
2.72 --undefined-- 60.540
2.73 --undefined-- 59.961
2.74 --undefined-- 58.214
2.75 --undefined-- 56.593
2.76 --undefined-- 54.645
2.77 --undefined-- 53.714
2.78 --undefined-- 54.206
2.79 --undefined-- 55.720
2.80 --undefined-- 58.767
2.81 --undefined-- 65.004
2.82 --undefined-- 70.733
2.83 119.089 73.966
2.84 116.225 75.076
2.85 112.402 74.933
2.86 110.271 74.400
2.87 108.156 73.743
2.88 105.980 72.575
2.89 102.552 70.436
2.90 98.812 67.191
2.91 98.849 63.398
2.92 98.867 60.091
2.93 101.254 57.552
2.94 104.260 55.778
2.95 99.853 58.219
2.96 106.038 64.283
2.97 109.524 69.510
2.98 110.097 72.905
2.99 111.223 74.322
3.00 110.185 74.290
3.01 111.267 73.838
3.02 114.772 73.505
3.03 117.212 73.444
3.04 117.425 73.746
3.05 121.394 74.369
3.06 126.435 75.131
3.07 131.803 75.707
3.08 137.394 75.908
3.09 142.483 75.649
3.10 151.318 75.430
3.11 163.505 75.655
3.12 173.626 75.675
3.13 183.423 75.160
3.14 188.520 74.139
3.15 185.758 72.690
3.16 174.322 70.873
3.17 153.677 68.899
3.18 138.681 67.117
3.19 134.211 65.488
3.20 153.986 62.987
3.21 --undefined-- 57.755
3.22 --undefined-- 49.445
3.23 --undefined-- 49.238
3.24 --undefined-- 53.214
3.25 --undefined-- 54.880
3.26 --undefined-- 54.054
3.27 --undefined-- 52.870
3.28 --undefined-- 52.809
3.29 --undefined-- 52.748
3.30 --undefined-- 52.733
3.31 --undefined-- 53.126
3.32 --undefined-- 53.973
3.33 --undefined-- 54.251
3.34 --undefined-- 53.709
3.35 --undefined-- 53.610
3.36 --undefined-- 53.749
3.37 --undefined-- 52.779
3.38 --undefined-- 50.709
3.39 --undefined-- 48.323
3.40 --undefined-- 46.927
3.41 --undefined-- 47.646
3.42 --undefined-- 48.772
3.43 --undefined-- 48.018
3.44 --undefined-- 44.382
3.45 --undefined-- 42.709
3.46 --undefined-- 50.056
3.47 --undefined-- 56.416
3.48 --undefined-- 60.429
3.49 --undefined-- 64.822
3.50 --undefined-- 71.301
3.51 182.591 75.613
3.52 179.493 77.240
3.53 182.084 77.393
3.54 188.189 77.310
3.55 190.710 77.060
3.56 192.656 76.143
3.57 203.815 74.946
3.58 205.781 75.194
3.59 199.388 76.475
3.60 199.259 77.113
3.61 197.902 76.489
3.62 184.628 75.587
3.63 181.787 75.712
3.64 176.076 75.853
3.65 172.541 75.850
3.66 171.928 76.040
3.67 170.623 76.186
3.68 169.040 76.295
3.69 167.122 76.274
3.70 162.582 75.793
3.71 155.944 74.592
3.72 149.203 72.504
3.73 143.260 69.400
3.74 135.526 65.019
3.75 122.660 59.330
3.76 --undefined-- 54.440
3.77 --undefined-- 52.758
3.78 --undefined-- 52.060
3.79 --undefined-- 51.724
3.80 --undefined-- 51.630
3.81 --undefined-- 52.098
3.82 --undefined-- 55.848
3.83 --undefined-- 64.607
3.84 --undefined-- 70.735
3.85 140.525 73.060
3.86 132.671 72.373
3.87 131.073 70.119
3.88 116.861 68.037
3.89 109.786 67.023
3.90 108.562 67.572
3.91 114.771 69.313
3.92 122.817 70.963
3.93 136.542 72.558
3.94 143.810 74.349
3.95 157.753 75.809
3.96 167.730 76.373
3.97 176.868 76.003
3.98 192.267 75.599
3.99 207.731 76.007
4.00 213.769 76.671
4.01 218.681 77.024
4.02 222.322 77.063
4.03 224.374 76.986
4.04 224.516 76.997
4.05 221.857 77.141
4.06 217.911 77.257
4.07 213.025 76.985
4.08 191.968 76.319
4.09 174.199 75.745
4.10 164.874 75.409
4.11 153.370 75.204
4.12 144.822 75.118
4.13 137.607 74.676
4.14 128.264 73.884
4.15 128.619 73.750
4.16 126.351 74.136
4.17 125.719 74.585
4.18 125.936 75.026
4.19 126.547 75.356
4.20 127.417 75.577
4.21 129.535 75.792
4.22 137.611 76.118
4.23 137.891 76.168
4.24 137.931 75.693
4.25 137.486 75.030
4.26 135.739 74.403
4.27 132.489 73.726
4.28 128.877 73.038
4.29 125.424 72.558
4.30 122.831 72.364
4.31 119.127 72.118
4.32 115.730 71.558
4.33 112.865 70.955
4.34 110.352 70.603
4.35 106.963 70.065
4.36 104.825 68.890
4.37 102.144 66.979
4.38 --undefined-- 64.432
4.39 --undefined-- 61.466
4.40 --undefined-- 59.027
4.41 --undefined-- 57.248
4.42 --undefined-- 56.287
4.43 --undefined-- 56.373
4.44 106.368 56.455
4.45 121.187 56.268
4.46 118.709 55.139
4.47 --undefined-- 52.525
4.48 --undefined-- 48.704
4.49 --undefined-- 45.144
4.50 --undefined-- 44.117
4.51 --undefined-- 44.294
4.52 --undefined-- 50.097
4.53 --undefined-- 59.413
4.54 --undefined-- 66.915
4.55 129.728 71.843
4.56 120.785 74.445
4.57 116.453 75.299
4.58 115.696 75.443
4.59 117.556 75.520
4.60 118.855 75.294
4.61 118.610 74.207
4.62 130.415 72.895
4.63 145.344 73.393
4.64 154.330 75.125
4.65 165.450 76.382
4.66 177.314 76.901
4.67 186.752 77.011
4.68 196.059 76.938
4.69 203.740 76.887
4.70 208.873 76.987
4.71 212.686 77.144
4.72 214.771 77.299
4.73 214.315 77.393
4.74 210.566 77.354
4.75 203.566 76.979
4.76 194.036 75.908
4.77 182.325 73.940
4.78 171.220 71.086
4.79 164.233 67.034
4.80 154.462 62.302
4.81 --undefined-- 65.886
4.82 --undefined-- 72.019
4.83 167.108 75.176
4.84 147.806 75.659
4.85 136.192 74.344
4.86 134.108 72.264
4.87 133.147 70.366
4.88 132.444 69.168
4.89 139.572 69.405
4.90 140.642 71.312
4.91 148.840 73.389
4.92 156.528 74.685
4.93 159.574 75.250
4.94 165.991 75.716
4.95 171.843 76.294
4.96 179.497 76.682
4.97 182.724 76.835
4.98 180.877 76.532
4.99 170.590 75.335
5.00 158.117 73.139
5.01 149.190 70.372
5.02 136.615 67.055
5.03 --undefined-- 62.773
5.04 85.522 58.956
5.05 81.597 58.464
5.06 87.395 59.409
5.07 98.801 59.662
5.08 111.610 59.814
5.09 112.078 60.783
5.10 111.956 62.006
5.11 109.815 63.119
5.12 109.493 64.416
5.13 108.884 65.850
5.14 108.108 67.212
5.15 108.089 --undefined--
5.16 108.166 --undefined--
5.17 --undefined-- --undefined--
5.18 --undefined-- --undefined--
