Time Pitch Intensity
0.01 --undefined-- --undefined--
0.02 --undefined-- --undefined--
0.03 --undefined-- --undefined--
0.04 --undefined-- --undefined--
0.05 --undefined-- 68.965
0.06 --undefined-- 68.743
0.07 75.361 68.555
0.08 78.277 68.108
0.09 79.648 66.647
0.10 79.792 63.919
0.11 81.194 60.635
0.12 81.115 60.161
0.13 86.007 64.838
0.14 88.589 69.987
0.15 90.854 73.374
0.16 --undefined-- 74.688
0.17 --undefined-- 74.277
0.18 --undefined-- 73.021
0.19 --undefined-- 71.735
0.20 262.013 70.322
0.21 265.704 67.414
0.22 --undefined-- 62.772
0.23 --undefined-- 56.429
0.24 --undefined-- 46.937
0.25 --undefined-- 38.782
0.26 --undefined-- 38.630
0.27 --undefined-- 41.931
0.28 --undefined-- 46.842
0.29 --undefined-- 54.167
0.30 --undefined-- 63.055
0.31 --undefined-- 69.667
0.32 --undefined-- 73.285
0.33 --undefined-- 74.104
0.34 --undefined-- 73.156
0.35 81.022 71.709
0.36 82.400 69.827
0.37 77.862 67.405
0.38 76.635 65.267
0.39 75.912 63.308
0.40 --undefined-- 60.887
0.41 --undefined-- 57.767
0.42 --undefined-- 53.769
0.43 --undefined-- 49.859
0.44 --undefined-- 46.994
0.45 --undefined-- 45.331
0.46 --undefined-- 46.301
0.47 --undefined-- 49.919
0.48 92.439 55.156
0.49 91.596 61.156
0.50 90.378 66.174
0.51 88.128 69.415
0.52 87.592 70.653
0.53 87.591 70.744
0.54 86.737 70.924
0.55 88.649 71.092
0.56 85.263 70.831
0.57 85.096 69.977
0.58 85.079 68.161
0.59 88.419 65.191
0.60 87.080 61.243
0.61 87.114 56.425
0.62 --undefined-- 51.290
0.63 --undefined-- 46.793
0.64 --undefined-- 43.167
0.65 --undefined-- 40.642
0.66 --undefined-- 39.684
0.67 --undefined-- 39.860
0.68 --undefined-- 40.627
0.69 --undefined-- 42.273
0.70 --undefined-- 45.152
0.71 --undefined-- 49.105
0.72 99.471 53.986
0.73 99.340 59.068
0.74 99.734 63.454
0.75 98.495 66.996
0.76 96.956 69.917
0.77 95.180 71.936
0.78 94.662 73.025
0.79 94.778 73.658
0.80 93.663 74.154
0.81 92.794 74.688
0.82 91.818 75.092
0.83 90.845 75.036
0.84 88.675 74.535
0.85 86.355 73.683
0.86 84.234 72.270
0.87 82.880 70.414
0.88 80.905 68.519
0.89 --undefined-- 65.984
0.90 --undefined-- 61.700
0.91 --undefined-- 54.970
0.92 --undefined-- 46.097
0.93 --undefined-- 37.019
0.94 --undefined-- 34.831
0.95 --undefined-- 36.457
0.96 --undefined-- 37.232
0.97 --undefined-- 41.525
0.98 --undefined-- 47.817
0.99 --undefined-- 52.659
1.00 89.445 56.454
1.01 88.592 58.981
1.02 89.012 61.083
1.03 90.105 63.546
1.04 90.616 65.175
1.05 91.587 65.323
1.06 93.128 64.704
1.07 93.553 64.513
1.08 92.688 64.934
1.09 90.851 66.932
1.10 90.395 70.384
1.11 88.179 72.196
1.12 87.131 72.030
1.13 85.342 71.248
1.14 84.057 70.749
1.15 83.582 70.423
1.16 83.436 69.854
1.17 83.694 69.085
1.18 85.119 68.770
1.19 86.787 69.001
1.20 88.876 68.926
1.21 91.876 68.352
1.22 94.831 67.798
1.23 96.360 67.465
1.24 96.307 66.803
1.25 96.031 66.578
1.26 97.115 69.010
1.27 99.261 71.727
1.28 97.808 72.875
1.29 95.482 72.726
1.30 90.729 71.988
1.31 87.858 70.852
1.32 86.150 68.661
1.33 --undefined-- 64.527
1.34 --undefined-- 57.763
1.35 --undefined-- 50.718
1.36 --undefined-- 46.217
1.37 --undefined-- 42.433
1.38 --undefined-- 39.493
1.39 --undefined-- 37.726
1.40 --undefined-- 37.865
1.41 --undefined-- 39.917
1.42 --undefined-- 41.952
1.43 --undefined-- 44.166
1.44 --undefined-- 47.146
1.45 --undefined-- 51.263
1.46 --undefined-- 55.770
1.47 --undefined-- 60.027
1.48 --undefined-- 63.785
1.49 --undefined-- 66.551
1.50 --undefined-- 68.512
1.51 --undefined-- 69.605
1.52 --undefined-- 68.922
1.53 --undefined-- 65.305
1.54 --undefined-- 57.934
1.55 --undefined-- 48.260
1.56 --undefined-- 42.317
1.57 --undefined-- 48.713
1.58 --undefined-- 59.217
1.59 --undefined-- 66.647
1.60 --undefined-- 70.931
1.61 81.284 72.843
1.62 --undefined-- 72.650
1.63 --undefined-- 69.813
1.64 --undefined-- 63.865
1.65 --undefined-- 55.062
1.66 --undefined-- 45.334
1.67 --undefined-- 39.817
1.68 --undefined-- 37.778
1.69 --undefined-- 38.183
1.70 --undefined-- 44.526
1.71 --undefined-- 53.696
1.72 --undefined-- 61.798
1.73 --undefined-- 67.845
1.74 91.362 71.564
1.75 85.062 72.956
1.76 85.679 72.889
1.77 83.213 72.699
1.78 80.577 72.527
1.79 80.789 71.900
1.80 81.498 70.539
1.81 79.918 68.335
1.82 77.817 65.042
1.83 --undefined-- 60.269
1.84 --undefined-- 53.780
1.85 --undefined-- 47.677
1.86 --undefined-- 44.773
1.87 --undefined-- 42.175
1.88 --undefined-- 40.479
1.89 --undefined-- 40.532
1.90 --undefined-- 41.013
1.91 --undefined-- 42.516
1.92 --undefined-- 48.740
1.93 --undefined-- 56.152
1.94 96.484 62.857
1.95 95.038 68.188
1.96 92.225 71.618
1.97 91.339 73.158
1.98 90.437 72.982
1.99 88.753 71.347
2.00 88.397 68.714
2.01 88.588 66.024
2.02 88.084 63.477
2.03 87.174 59.903
2.04 --undefined-- 54.587
2.05 --undefined-- 47.635
2.06 --undefined-- 41.384
2.07 --undefined-- 37.733
2.08 --undefined-- 34.875
2.09 --undefined-- 33.468
2.10 --undefined-- 34.633
2.11 --undefined-- 39.513
2.12 --undefined-- 47.390
2.13 105.269 55.015
2.14 101.685 61.991
2.15 99.899 67.350
2.16 --undefined-- 70.703
2.17 --undefined-- 72.294
2.18 --undefined-- 72.482
2.19 75.793 71.639
2.20 87.830 70.489
2.21 75.944 69.417
2.22 77.279 68.116
2.23 79.688 66.364
2.24 81.248 64.318
2.25 84.405 63.607
2.26 86.551 65.080
2.27 86.560 67.476
2.28 85.997 69.302
2.29 84.638 69.862
2.30 82.978 69.796
2.31 80.240 69.625
2.32 77.913 69.139
2.33 77.661 68.388
2.34 77.028 67.714
2.35 76.515 67.312
2.36 75.033 66.437
2.37 74.611 64.098
2.38 76.363 60.200
2.39 --undefined-- 55.067
2.40 --undefined-- 49.112
2.41 --undefined-- 43.799
2.42 --undefined-- 41.204
2.43 --undefined-- 40.036
2.44 --undefined-- 39.691
2.45 --undefined-- 40.009
2.46 --undefined-- 41.538
2.47 --undefined-- 44.444
2.48 --undefined-- 47.747
2.49 --undefined-- 52.291
2.50 89.047 58.367
2.51 88.945 64.632
2.52 89.626 69.667
2.53 90.791 72.711
2.54 91.336 73.747
2.55 92.347 73.412
2.56 93.240 72.873
2.57 94.913 72.706
2.58 96.327 72.590
2.59 96.974 72.443
2.60 99.627 72.588
2.61 100.890 72.946
2.62 101.454 73.077
2.63 102.176 72.742
2.64 102.687 71.710
2.65 102.586 69.496
2.66 --undefined-- 65.595
2.67 --undefined-- 59.545
2.68 --undefined-- 50.729
2.69 --undefined-- 42.100
2.70 --undefined-- 39.906
2.71 --undefined-- 37.593
2.72 --undefined-- 36.334
2.73 --undefined-- 38.187
2.74 --undefined-- 38.103
2.75 --undefined-- 35.960
2.76 --undefined-- 34.886
2.77 --undefined-- 36.293
2.78 --undefined-- 37.533
2.79 --undefined-- 37.686
2.80 --undefined-- 37.847
2.81 --undefined-- 38.167
2.82 --undefined-- 38.769
2.83 --undefined-- 39.916
2.84 --undefined-- 39.954
2.85 --undefined-- 39.177
2.86 --undefined-- 39.544
2.87 --undefined-- 40.314
2.88 --undefined-- 40.812
2.89 --undefined-- 41.792
2.90 --undefined-- 42.806
2.91 --undefined-- 42.563
2.92 --undefined-- 41.564
2.93 --undefined-- 40.397
2.94 --undefined-- 39.133
2.95 --undefined-- 38.713
2.96 --undefined-- 38.348
2.97 --undefined-- 37.908
2.98 --undefined-- 38.449
2.99 --undefined-- 38.498
3.00 --undefined-- 38.412
3.01 --undefined-- 38.232
3.02 --undefined-- 36.647
3.03 --undefined-- 35.004
3.04 --undefined-- 36.618
3.05 --undefined-- 38.404
3.06 --undefined-- 40.272
3.07 --undefined-- 49.233
3.08 --undefined-- 56.911
3.09 --undefined-- 61.317
3.10 --undefined-- 63.336
3.11 --undefined-- 65.423
3.12 108.639 68.656
3.13 110.045 70.721
3.14 112.304 71.173
3.15 112.541 70.725
3.16 111.973 69.867
3.17 110.486 68.509
3.18 --undefined-- 66.101
3.19 --undefined-- 64.767
3.20 --undefined-- 65.996
3.21 --undefined-- 66.550
3.22 --undefined-- 66.023
3.23 --undefined-- 64.456
3.24 --undefined-- 66.305
3.25 --undefined-- 70.123
3.26 99.999 72.408
3.27 98.723 73.535
3.28 97.376 74.017
3.29 95.802 74.039
3.30 94.344 73.595
3.31 93.392 72.335
3.32 --undefined-- 69.736
3.33 --undefined-- 65.228
3.34 --undefined-- 58.398
3.35 --undefined-- 50.482
3.36 --undefined-- 45.271
3.37 --undefined-- 46.439
3.38 --undefined-- 51.675
3.39 99.837 58.513
3.40 95.230 64.725
3.41 94.921 69.262
3.42 90.559 71.905
3.43 86.125 72.922
3.44 83.325 72.744
3.45 81.073 72.002
3.46 80.810 71.276
3.47 80.686 70.746
3.48 82.237 70.256
3.49 78.985 68.907
3.50 79.644 65.848
3.51 78.014 61.364
3.52 --undefined-- 56.421
3.53 --undefined-- 51.230
3.54 --undefined-- 45.678
3.55 --undefined-- 40.905
3.56 --undefined-- 38.176
3.57 --undefined-- 39.758
3.58 --undefined-- 42.149
3.59 --undefined-- 44.271
3.60 --undefined-- 49.351
3.61 80.252 55.331
3.62 80.299 60.008
3.63 76.169 63.150
3.64 75.644 64.684
3.65 75.832 65.002
3.66 75.951 65.008
3.67 75.895 65.258
3.68 76.419 65.262
3.69 76.497 64.378
3.70 76.377 62.351
3.71 75.371 59.385
3.72 74.706 56.214
3.73 --undefined-- 53.295
3.74 --undefined-- 50.600
3.75 --undefined-- 47.478
3.76 --undefined-- 43.624
3.77 --undefined-- 40.007
3.78 --undefined-- 37.890
3.79 --undefined-- 37.440
3.80 --undefined-- 37.207
3.81 --undefined-- 36.940
3.82 --undefined-- 39.862
3.83 --undefined-- 51.116
3.84 --undefined-- 62.301
3.85 --undefined-- 69.787
3.86 96.865 73.902
3.87 84.783 75.286
3.88 84.434 74.715
3.89 81.948 73.468
3.90 80.437 72.655
3.91 81.350 72.379
3.92 82.605 72.193
3.93 83.979 71.829
3.94 85.250 71.506
3.95 85.637 71.412
3.96 85.317 71.265
3.97 85.581 70.873
3.98 85.162 70.249
3.99 84.635 69.380
4.00 84.346 68.278
4.01 84.420 67.296
4.02 85.002 66.692
4.03 85.579 66.563
4.04 84.775 66.261
4.05 85.576 65.159
4.06 85.386 63.398
4.07 84.428 61.299
4.08 --undefined-- 59.081
4.09 --undefined-- 58.634
4.10 --undefined-- 63.238
4.11 --undefined-- 67.020
4.12 --undefined-- 68.470
4.13 --undefined-- 68.405
4.14 --undefined-- 67.263
4.15 --undefined-- 64.871
4.16 --undefined-- 61.139
4.17 --undefined-- 55.855
4.18 --undefined-- 51.122
4.19 --undefined-- 50.083
4.20 --undefined-- 49.862
4.21 --undefined-- 51.669
4.22 101.425 55.601
4.23 100.563 59.111
4.24 100.178 62.209
4.25 100.782 65.710
4.26 100.588 68.646
4.27 98.534 70.001
4.28 96.900 69.998
4.29 97.469 70.211
4.30 97.629 71.350
4.31 --undefined-- 72.052
4.32 90.417 72.009
4.33 87.812 71.514
4.34 82.442 70.487
4.35 75.517 69.161
4.36 --undefined-- 68.150
4.37 --undefined-- 67.149
4.38 --undefined-- 65.567
4.39 --undefined-- 62.921
4.40 --undefined-- 59.054
4.41 --undefined-- 54.101
4.42 --undefined-- 48.681
4.43 --undefined-- 43.214
4.44 --undefined-- 38.733
4.45 --undefined-- 35.817
4.46 --undefined-- 35.460
4.47 --undefined-- 36.437
4.48 --undefined-- 37.549
4.49 --undefined-- 39.324
4.50 --undefined-- 45.122
4.51 --undefined-- 51.991
4.52 --undefined-- 57.858
4.53 80.254 62.949
4.54 78.788 67.179
4.55 79.519 70.004
4.56 79.476 71.276
4.57 78.807 71.374
4.58 76.713 70.854
4.59 --undefined-- 69.028
4.60 --undefined-- 64.896
4.61 --undefined-- 61.721
4.62 --undefined-- 64.034
4.63 --undefined-- 66.581
4.64 86.056 67.805
4.65 84.792 67.992
4.66 82.127 67.737
4.67 82.237 67.351
4.68 80.365 67.061
4.69 76.666 66.670
4.70 76.260 65.995
4.71 76.789 64.999
4.72 77.033 63.460
4.73 76.958 60.689
4.74 76.255 56.282
4.75 --undefined-- 51.187
4.76 --undefined-- 46.534
4.77 --undefined-- 42.558
4.78 --undefined-- 39.859
4.79 --undefined-- 38.815
4.80 --undefined-- 37.758
4.81 --undefined-- 35.961
4.82 --undefined-- 35.941
4.83 --undefined-- 36.534
4.84 --undefined-- 36.350
4.85 --undefined-- 36.749
4.86 --undefined-- 37.248
4.87 --undefined-- 41.194
4.88 --undefined-- 51.992
4.89 --undefined-- 60.500
4.90 --undefined-- 65.793
4.91 --undefined-- 69.134
4.92 --undefined-- 71.570
4.93 88.097 73.470
4.94 87.443 74.451
4.95 86.556 74.379
4.96 85.992 73.677
4.97 85.337 72.929
4.98 85.932 72.328
4.99 85.827 71.758
5.00 85.351 71.059
5.01 84.942 70.144
5.02 85.085 69.163
5.03 85.685 68.509
5.04 85.754 67.875
5.05 85.202 66.241
5.06 --undefined-- 63.039
5.07 --undefined-- 58.397
5.08 --undefined-- 51.908
5.09 --undefined-- 44.093
5.10 --undefined-- 38.651
5.11 --undefined-- 37.966
5.12 --undefined-- 42.483
5.13 --undefined-- 50.514
5.14 --undefined-- 57.953
5.15 84.266 63.871
5.16 81.978 68.451
5.17 81.913 71.502
5.18 81.978 72.629
5.19 84.296 71.699
5.20 --undefined-- 69.269
5.21 --undefined-- 65.945
5.22 --undefined-- 61.071
5.23 --undefined-- 53.728
5.24 --undefined-- 48.052
5.25 --undefined-- 53.347
5.26 --undefined-- 61.987
5.27 109.372 68.245
5.28 108.534 71.643
5.29 104.922 72.836
5.30 102.929 72.915
5.31 99.146 72.821
5.32 94.987 72.974
5.33 89.536 72.871
5.34 86.681 72.077
5.35 80.240 71.254
5.36 79.730 70.811
5.37 76.850 70.290
5.38 77.060 69.700
5.39 77.122 69.368
5.40 80.243 69.344
5.41 83.609 69.345
5.42 84.776 69.264
5.43 86.976 69.415
5.44 91.001 69.833
5.45 91.529 69.803
5.46 91.230 68.491
5.47 89.397 64.973
5.48 93.878 60.113
5.49 93.660 60.166
5.50 92.213 62.892
5.51 92.270 65.697
5.52 90.449 67.242
5.53 86.681 67.178
5.54 88.004 67.101
5.55 87.579 68.239
5.56 87.851 69.240
5.57 89.436 69.244
5.58 89.577 67.944
5.59 87.900 65.983
5.60 --undefined-- 65.281
5.61 --undefined-- 65.396
5.62 --undefined-- 65.742
5.63 93.514 67.084
5.64 93.730 68.979
5.65 95.466 70.790
5.66 94.546 72.171
5.67 93.437 72.472
5.68 92.620 71.904
5.69 91.320 71.261
5.70 90.014 71.017
5.71 89.300 71.072
5.72 88.550 70.873
5.73 87.758 70.077
5.74 86.314 68.519
5.75 83.961 65.798
5.76 84.216 61.441
5.77 --undefined-- 55.676
5.78 --undefined-- 49.332
5.79 --undefined-- 42.956
5.80 --undefined-- 39.424
5.81 --undefined-- 40.055
5.82 --undefined-- 39.267
5.83 --undefined-- 36.695
5.84 --undefined-- 35.279
5.85 --undefined-- 36.366
5.86 --undefined-- 37.383
5.87 --undefined-- 36.739
5.88 --undefined-- 37.213
5.89 --undefined-- 39.684
5.90 --undefined-- 41.571
5.91 --undefined-- 44.115
5.92 --undefined-- 47.570
5.93 96.007 50.970
5.94 95.288 53.928
5.95 93.972 57.675
5.96 93.280 62.397
5.97 90.156 66.865
5.98 88.262 69.958
5.99 88.710 71.514
6.00 84.395 71.811
6.01 83.590 71.451
6.02 83.133 71.162
6.03 80.935 71.441
6.04 79.726 71.908
6.05 79.917 71.858
6.06 76.990 71.030
6.07 76.355 70.004
6.08 75.691 69.176
6.09 78.519 67.921
6.10 78.785 65.609
6.11 76.228 61.717
6.12 --undefined-- 55.671
6.13 --undefined-- 49.106
6.14 --undefined-- 44.555
6.15 --undefined-- 41.387
6.16 --undefined-- 39.133
6.17 --undefined-- 37.578
6.18 --undefined-- 38.013
6.19 --undefined-- 38.485
6.20 --undefined-- 37.068
6.21 --undefined-- 35.562
6.22 --undefined-- 36.057
6.23 --undefined-- 35.899
6.24 --undefined-- 35.128
6.25 --undefined-- 34.921
6.26 --undefined-- 35.171
6.27 --undefined-- 35.598
6.28 --undefined-- 35.879
6.29 --undefined-- 36.524
6.30 --undefined-- 37.630
6.31 --undefined-- 38.380
6.32 --undefined-- 39.120
6.33 --undefined-- 39.672
6.34 --undefined-- 40.067
6.35 --undefined-- 40.377
6.36 --undefined-- 40.385
6.37 --undefined-- 40.584
6.38 --undefined-- 40.464
6.39 --undefined-- 39.684
6.40 --undefined-- 38.878
6.41 --undefined-- 39.193
6.42 --undefined-- 39.856
6.43 --undefined-- 40.392
6.44 --undefined-- 39.880
6.45 --undefined-- 37.716
6.46 --undefined-- 36.411
6.47 --undefined-- 36.653
6.48 --undefined-- 36.906
6.49 --undefined-- 36.715
6.50 --undefined-- 36.200
6.51 --undefined-- 36.528
6.52 --undefined-- 36.980
6.53 --undefined-- 36.633
6.54 --undefined-- 35.194
6.55 --undefined-- 34.033
6.56 --undefined-- --undefined--
6.57 --undefined-- --undefined--
6.58 --undefined-- --undefined--
6.59 --undefined-- --undefined--
