Time Pitch Intensity
0.01 --undefined-- --undefined--
0.02 112.365 --undefined--
0.03 112.381 --undefined--
0.04 111.516 --undefined--
0.05 111.438 68.084
0.06 117.134 63.654
0.07 --undefined-- 56.816
0.08 --undefined-- 47.926
0.09 --undefined-- 42.940
0.10 --undefined-- 43.733
0.11 --undefined-- 45.070
0.12 --undefined-- 45.210
0.13 --undefined-- 45.132
0.14 --undefined-- 45.440
0.15 --undefined-- 45.326
0.16 --undefined-- 45.088
0.17 --undefined-- 44.932
0.18 --undefined-- 44.542
0.19 --undefined-- 43.800
0.20 --undefined-- 42.928
0.21 --undefined-- 42.212
0.22 --undefined-- 41.499
0.23 --undefined-- 40.724
0.24 --undefined-- 40.701
0.25 --undefined-- 41.208
0.26 --undefined-- 40.813
0.27 --undefined-- 39.119
0.28 --undefined-- 37.777
0.29 --undefined-- 37.319
0.30 --undefined-- 35.854
0.31 --undefined-- 34.581
0.32 --undefined-- 35.164
0.33 --undefined-- 38.258
0.34 --undefined-- 43.142
0.35 --undefined-- 47.139
0.36 --undefined-- 51.290
0.37 --undefined-- 60.176
0.38 --undefined-- 67.852
0.39 --undefined-- 72.662
0.40 --undefined-- 75.672
0.41 148.269 77.501
0.42 150.981 78.394
0.43 152.119 78.654
0.44 151.484 78.506
0.45 150.021 78.241
0.46 148.659 78.061
0.47 147.011 78.055
0.48 144.652 78.257
0.49 143.130 78.571
0.50 142.405 78.733
0.51 142.068 78.658
0.52 142.232 78.445
0.53 143.196 78.124
0.54 144.583 77.710
0.55 146.161 77.259
0.56 147.149 76.919
0.57 148.081 76.900
0.58 149.388 77.264
0.59 150.838 77.806
0.60 151.373 78.263
0.61 151.598 78.461
0.62 151.537 78.172
0.63 151.058 76.908
0.64 150.614 73.913
0.65 149.149 69.032
0.66 149.999 64.008
0.67 150.989 59.514
0.68 151.436 55.831
0.69 151.634 54.111
0.70 --undefined-- 60.264
0.71 --undefined-- 69.700
0.72 --undefined-- 75.829
0.73 158.415 78.840
0.74 154.478 79.383
0.75 148.120 78.167
0.76 140.950 76.758
0.77 139.786 76.630
0.78 139.778 77.175
0.79 140.110 77.830
0.80 140.342 78.404
0.81 140.181 78.729
0.82 139.740 78.848
0.83 139.491 78.881
0.84 138.844 78.802
0.85 138.341 78.592
0.86 138.484 78.365
0.87 139.448 78.313
0.88 140.876 78.485
0.89 142.675 78.789
0.90 144.420 79.046
0.91 145.388 78.834
0.92 144.292 77.291
0.93 140.444 73.623
0.94 141.800 67.692
0.95 147.197 61.020
0.96 --undefined-- 55.006
0.97 --undefined-- 50.892
0.98 --undefined-- 50.675
0.99 --undefined-- 49.848
1.00 --undefined-- 47.027
1.01 --undefined-- 43.142
1.02 --undefined-- 40.379
1.03 --undefined-- 40.694
1.04 --undefined-- 51.128
1.05 --undefined-- 63.184
1.06 --undefined-- 71.160
1.07 202.591 75.674
1.08 200.837 77.522
1.09 193.994 77.490
1.10 190.537 76.319
1.11 188.174 74.294
1.12 184.902 72.154
1.13 184.315 70.488
1.14 183.648 69.112
1.15 181.687 68.313
1.16 180.569 68.325
1.17 179.004 69.021
1.18 178.188 69.813
1.19 176.290 70.549
1.20 176.156 71.371
1.21 175.476 72.046
1.22 175.472 72.327
1.23 175.312 72.382
1.24 175.795 72.511
1.25 176.232 72.693
1.26 177.511 73.049
1.27 180.291 73.817
1.28 183.260 74.639
1.29 183.041 74.652
1.30 181.432 72.878
1.31 179.270 68.414
1.32 --undefined-- 60.687
1.33 --undefined-- 52.244
1.34 --undefined-- 48.344
1.35 --undefined-- 46.039
1.36 --undefined-- 47.056
1.37 --undefined-- 53.348
1.38 --undefined-- 58.316
1.39 --undefined-- 60.569
1.40 --undefined-- 62.150
1.41 --undefined-- 64.893
1.42 171.090 68.805
1.43 166.637 72.299
1.44 167.963 74.456
1.45 171.864 75.697
1.46 177.378 76.554
1.47 178.516 77.285
1.48 177.968 77.951
1.49 177.035 78.437
1.50 177.125 78.586
1.51 176.881 78.522
1.52 176.064 78.597
1.53 175.449 78.924
1.54 174.919 79.194
1.55 175.043 79.198
1.56 175.566 79.021
1.57 176.484 78.711
1.58 176.409 78.294
1.59 176.258 77.300
1.60 175.606 75.016
1.61 171.251 71.361
1.62 173.205 67.236
1.63 --undefined-- 63.303
1.64 --undefined-- 58.923
1.65 --undefined-- 54.669
1.66 --undefined-- 50.965
1.67 --undefined-- 47.277
1.68 --undefined-- 43.611
1.69 --undefined-- 41.112
1.70 --undefined-- 39.713
1.71 --undefined-- 38.352
1.72 --undefined-- 50.561
1.73 --undefined-- 62.447
1.74 --undefined-- 68.662
1.75 --undefined-- 70.722
1.76 --undefined-- 70.749
1.77 124.438 71.686
1.78 130.598 72.942
1.79 133.592 73.953
1.80 133.114 74.706
1.81 132.108 75.105
1.82 131.656 75.261
1.83 131.516 75.314
1.84 131.603 75.421
1.85 131.720 75.565
1.86 131.889 75.746
1.87 132.451 76.110
1.88 133.415 76.433
1.89 135.052 76.619
1.90 135.735 76.730
1.91 135.635 76.690
1.92 135.787 76.624
1.93 137.820 76.941
1.94 141.514 77.695
1.95 142.564 78.320
1.96 143.928 78.594
1.97 146.700 78.674
1.98 150.068 78.674
1.99 154.015 78.715
2.00 159.175 78.731
2.01 159.317 78.467
2.02 158.698 78.046
2.03 159.017 77.825
2.04 160.327 77.990
2.05 162.664 78.302
2.06 164.182 78.543
2.07 164.417 78.559
2.08 164.269 78.010
2.09 163.587 77.121
2.10 163.089 76.708
2.11 161.900 76.751
2.12 161.051 76.980
2.13 160.816 77.433
2.14 160.124 77.894
2.15 159.971 78.248
2.16 159.768 78.409
2.17 159.208 78.248
2.18 157.971 77.857
2.19 155.616 77.446
2.20 157.837 77.320
2.21 156.188 77.386
2.22 155.205 77.445
2.23 153.963 77.377
2.24 150.816 77.115
2.25 146.329 76.599
2.26 141.739 75.685
2.27 135.317 74.558
2.28 130.215 73.993
2.29 125.945 74.314
2.30 122.133 74.780
2.31 120.190 74.573
2.32 108.717 73.451
2.33 94.176 71.698
2.34 91.713 69.231
2.35 97.292 66.727
2.36 92.050 65.559
2.37 91.971 64.297
2.38 76.810 63.177
2.39 96.100 65.277
2.40 94.316 67.161
2.41 88.841 68.349
2.42 97.695 70.170
2.43 94.797 71.685
2.44 97.248 72.650
2.45 101.636 73.400
2.46 105.133 74.270
2.47 106.991 75.224
2.48 108.527 76.119
2.49 109.904 77.056
2.50 112.108 77.964
2.51 113.581 78.535
2.52 115.284 78.663
2.53 115.888 78.296
2.54 114.451 77.126
2.55 113.009 74.687
2.56 112.322 71.090
2.57 115.352 67.996
2.58 117.375 66.850
2.59 121.529 69.606
2.60 133.263 74.633
2.61 129.673 77.886
2.62 125.040 79.133
2.63 123.485 79.012
2.64 118.248 78.071
2.65 117.244 77.123
2.66 116.546 76.584
2.67 115.893 76.168
2.68 115.306 75.843
2.69 114.440 75.623
2.70 113.889 75.072
2.71 112.076 73.405
2.72 104.393 69.882
2.73 110.743 64.721
2.74 113.803 59.369
2.75 --undefined-- 53.563
2.76 --undefined-- 48.834
2.77 --undefined-- 49.042
2.78 --undefined-- 51.778
2.79 --undefined-- 54.112
2.80 --undefined-- 54.749
2.81 --undefined-- 55.084
2.82 --undefined-- 61.820
2.83 149.296 69.727
2.84 152.351 74.785
2.85 152.373 77.291
2.86 150.949 77.784
2.87 149.599 76.883
2.88 148.398 75.900
2.89 149.641 76.034
2.90 149.500 76.560
2.91 148.321 76.958
2.92 148.115 77.379
2.93 148.349 77.875
2.94 148.469 78.308
2.95 148.546 78.615
2.96 148.477 78.819
2.97 148.254 78.986
2.98 147.504 79.131
2.99 146.582 79.201
3.00 145.583 79.202
3.01 144.914 79.183
3.02 144.198 79.138
3.03 142.909 78.959
3.04 140.600 78.417
3.05 136.320 77.172
3.06 128.297 74.977
3.07 125.768 72.967
3.08 126.457 74.452
3.09 120.693 77.089
3.10 114.283 78.003
3.11 108.673 77.503
3.12 104.671 76.406
3.13 100.391 75.000
3.14 95.545 73.275
3.15 92.674 71.457
3.16 91.884 69.738
3.17 99.405 67.641
3.18 92.084 64.617
3.19 80.878 60.627
3.20 81.929 59.251
3.21 91.142 62.639
3.22 90.420 65.594
3.23 97.449 67.387
3.24 98.993 68.621
3.25 91.679 69.320
3.26 95.345 69.664
3.27 97.777 69.714
3.28 98.145 69.212
3.29 100.043 68.646
3.30 99.747 68.745
3.31 100.654 70.709
3.32 106.570 74.013
3.33 103.979 76.233
3.34 103.434 76.604
3.35 95.475 75.453
3.36 90.736 73.903
3.37 93.353 72.516
3.38 91.791 71.263
3.39 89.715 70.543
3.40 91.067 69.545
3.41 88.282 67.927
3.42 91.400 67.243
3.43 93.897 68.139
3.44 92.915 68.863
3.45 93.150 69.235
3.46 93.436 69.516
3.47 93.047 69.736
3.48 93.962 70.189
3.49 96.828 71.018
3.50 99.205 71.966
3.51 100.317 72.829
3.52 104.157 73.670
3.53 107.547 74.647
3.54 110.909 75.786
3.55 113.378 76.866
3.56 114.844 77.681
3.57 116.067 78.115
3.58 114.967 77.958
3.59 113.373 77.343
3.60 111.672 76.669
3.61 109.248 76.023
3.62 105.203 75.330
3.63 101.808 74.511
3.64 97.760 73.286
3.65 91.926 71.193
3.66 92.867 68.192
3.67 --undefined-- 64.257
3.68 --undefined-- 58.815
3.69 --undefined-- 53.447
3.70 --undefined-- 51.396
3.71 --undefined-- 51.282
3.72 --undefined-- 51.220
3.73 --undefined-- 50.305
3.74 --undefined-- 49.959
3.75 --undefined-- 50.679
3.76 --undefined-- 51.446
3.77 --undefined-- 51.706
3.78 --undefined-- 52.071
3.79 --undefined-- 52.869
3.80 --undefined-- 53.501
3.81 --undefined-- 54.006
3.82 --undefined-- 54.072
3.83 --undefined-- 53.679
3.84 --undefined-- 53.599
3.85 --undefined-- 53.857
3.86 --undefined-- 54.264
3.87 --undefined-- 54.280
3.88 --undefined-- 53.648
3.89 --undefined-- 53.777
3.90 --undefined-- 54.796
3.91 --undefined-- 55.221
3.92 --undefined-- 54.526
3.93 --undefined-- 52.837
3.94 --undefined-- 50.312
3.95 --undefined-- 47.333
3.96 --undefined-- 44.438
3.97 --undefined-- 46.291
3.98 --undefined-- 58.210
3.99 204.624 67.349
4.00 207.477 72.719
4.01 217.405 75.385
4.02 223.158 76.585
4.03 226.591 77.294
4.04 227.899 77.767
4.05 229.513 77.859
4.06 230.964 77.514
4.07 227.594 76.698
4.08 215.715 75.470
4.09 201.289 73.835
4.10 189.572 71.709
4.11 180.811 69.244
4.12 194.407 70.972
4.13 196.156 76.432
4.14 187.025 79.684
4.15 174.858 80.742
4.16 167.293 80.416
4.17 158.233 79.516
4.18 156.512 78.877
4.19 155.995 78.317
4.20 159.325 77.869
4.21 163.749 77.312
4.22 168.963 76.191
4.23 175.195 75.035
4.24 184.089 75.007
4.25 192.078 75.666
4.26 200.344 76.067
4.27 209.675 76.238
4.28 215.086 75.861
4.29 215.357 74.383
4.30 201.891 71.908
4.31 191.290 68.621
4.32 187.120 66.124
4.33 190.210 66.405
4.34 189.503 70.731
4.35 220.569 76.394
4.36 217.268 79.494
4.37 211.415 80.293
4.38 206.149 79.841
4.39 202.471 78.429
4.40 199.941 75.737
4.41 203.651 72.885
4.42 202.232 72.916
4.43 205.384 74.315
4.44 205.443 75.219
4.45 202.508 75.424
4.46 197.987 75.096
4.47 191.631 74.866
4.48 184.192 74.831
4.49 174.323 74.606
4.50 163.622 75.002
4.51 156.610 76.453
4.52 149.348 77.380
4.53 141.265 77.327
4.54 136.015 76.768
4.55 133.720 76.256
4.56 135.983 76.345
4.57 139.861 76.793
4.58 143.914 77.077
4.59 147.912 77.338
4.60 151.996 77.926
4.61 153.750 78.244
4.62 152.752 77.270
4.63 149.434 74.820
4.64 154.066 72.056
4.65 153.319 70.780
4.66 153.948 72.479
4.67 154.758 75.816
4.68 154.077 78.415
4.69 149.818 79.376
4.70 139.967 78.994
4.71 132.484 78.246
4.72 130.399 77.709
4.73 129.458 76.948
4.74 128.728 75.235
4.75 119.771 71.942
4.76 119.157 66.788
4.77 127.119 60.614
4.78 127.534 56.264
4.79 --undefined-- 54.694
4.80 --undefined-- 60.902
4.81 --undefined-- 69.119
4.82 --undefined-- 73.563
4.83 115.070 74.859
4.84 108.178 74.259
4.85 103.227 73.314
4.86 102.306 72.866
4.87 102.598 72.648
4.88 102.908 72.066
4.89 104.506 71.354
4.90 104.027 71.304
4.91 105.076 71.875
4.92 105.339 72.388
4.93 105.961 72.447
4.94 107.548 72.555
4.95 108.555 72.977
4.96 107.383 73.145
4.97 108.529 72.620
4.98 107.740 71.624
4.99 111.456 71.571
5.00 116.475 72.988
5.01 116.501 74.569
5.02 117.248 75.136
5.03 112.803 74.305
5.04 110.796 73.155
5.05 109.228 72.935
5.06 109.510 73.311
5.07 111.009 73.807
5.08 111.630 73.992
5.09 112.654 73.919
5.10 113.757 73.924
5.11 114.774 74.115
5.12 114.859 74.233
5.13 114.858 74.032
5.14 110.920 73.893
5.15 108.564 73.886
5.16 106.550 73.603
5.17 105.289 72.764
5.18 101.389 71.598
5.19 100.012 70.682
5.20 98.824 70.085
5.21 97.735 69.970
5.22 97.882 70.015
5.23 98.969 69.748
5.24 100.081 68.960
5.25 98.712 67.766
5.26 103.319 67.290
5.27 105.732 67.769
5.28 106.843 68.546
5.29 109.137 69.630
5.30 111.391 70.873
5.31 111.661 71.851
5.32 114.366 72.374
5.33 117.515 72.570
5.34 120.969 72.816
5.35 120.671 73.082
5.36 121.536 73.180
5.37 128.119 73.457
5.38 131.125 --undefined--
5.39 137.178 --undefined--
5.40 --undefined-- --undefined--
5.41 --undefined-- --undefined--
