Time Pitch Intensity
0.01 --undefined-- --undefined--
0.02 --undefined-- --undefined--
0.03 --undefined-- --undefined--
0.04 --undefined-- --undefined--
0.05 --undefined-- 46.042
0.06 --undefined-- 44.063
0.07 --undefined-- 44.812
0.08 --undefined-- 46.081
0.09 --undefined-- 48.790
0.10 --undefined-- 56.535
0.11 251.748 62.661
0.12 253.031 67.295
0.13 258.500 70.964
0.14 264.027 73.448
0.15 271.116 74.855
0.16 276.810 75.219
0.17 280.874 74.167
0.18 285.488 71.536
0.19 283.158 67.665
0.20 268.462 63.114
0.21 282.857 59.701
0.22 272.058 59.572
0.23 269.664 61.590
0.24 268.051 65.514
0.25 157.924 69.701
0.26 165.212 72.782
0.27 161.966 74.912
0.28 157.100 76.072
0.29 --undefined-- 76.177
0.30 --undefined-- 75.181
0.31 --undefined-- 72.698
0.32 --undefined-- 69.399
0.33 --undefined-- 66.817
0.34 --undefined-- 63.476
0.35 --undefined-- 60.471
0.36 --undefined-- 62.274
0.37 --undefined-- 64.483
0.38 213.983 64.925
0.39 211.915 64.862
0.40 209.649 65.646
0.41 209.947 67.144
0.42 202.890 68.510
0.43 199.267 69.343
0.44 197.172 69.914
0.45 195.219 70.262
0.46 194.930 70.267
0.47 195.014 69.857
0.48 195.064 69.241
0.49 195.276 68.882
0.50 195.829 69.017
0.51 196.259 69.392
0.52 198.297 69.430
0.53 202.167 68.636
0.54 205.343 66.818
0.55 203.155 63.610
0.56 201.178 58.582
0.57 200.592 52.896
0.58 --undefined-- 49.163
0.59 --undefined-- 47.143
0.60 --undefined-- 47.772
0.61 --undefined-- 48.390
0.62 --undefined-- 46.347
0.63 --undefined-- 43.542
0.64 --undefined-- 45.569
0.65 --undefined-- 47.929
0.66 --undefined-- 48.451
0.67 --undefined-- 49.056
0.68 --undefined-- 52.562
0.69 --undefined-- 59.514
0.70 171.498 65.477
0.71 172.754 68.940
0.72 175.153 70.578
0.73 176.170 71.214
0.74 177.097 71.394
0.75 178.516 71.504
0.76 180.407 71.510
0.77 180.946 70.730
0.78 179.658 68.339
0.79 174.906 63.827
0.80 159.588 57.997
0.81 --undefined-- 53.474
0.82 --undefined-- 49.821
0.83 --undefined-- 49.381
0.84 --undefined-- 51.470
0.85 --undefined-- 52.081
0.86 --undefined-- 51.995
0.87 --undefined-- 52.712
0.88 --undefined-- 53.639
0.89 --undefined-- 54.117
0.90 --undefined-- 55.891
0.91 247.065 60.068
0.92 249.052 63.473
0.93 238.926 65.031
0.94 188.286 65.374
0.95 168.062 65.165
0.96 155.175 64.620
0.97 151.528 63.707
0.98 151.198 62.393
0.99 149.529 60.157
1.00 --undefined-- 56.004
1.01 --undefined-- 50.303
1.02 --undefined-- 48.214
1.03 --undefined-- 48.328
1.04 --undefined-- 47.275
1.05 --undefined-- 50.185
1.06 193.214 56.832
1.07 181.840 61.427
1.08 175.496 64.026
1.09 175.399 65.350
1.10 177.149 66.108
1.11 180.611 66.622
1.12 185.393 66.777
1.13 192.484 66.489
1.14 198.111 65.401
1.15 201.568 62.637
1.16 199.262 57.629
1.17 --undefined-- 52.411
1.18 --undefined-- 50.669
1.19 --undefined-- 50.654
1.20 --undefined-- 53.180
1.21 --undefined-- 55.966
1.22 --undefined-- 59.323
1.23 254.372 63.747
1.24 232.163 66.829
1.25 221.767 68.324
1.26 211.219 69.094
1.27 204.860 69.652
1.28 201.621 69.585
1.29 198.074 68.997
1.30 195.687 68.795
1.31 194.161 69.003
1.32 192.802 69.129
1.33 192.881 68.754
1.34 194.850 67.840
1.35 198.083 67.044
1.36 199.719 66.616
1.37 200.431 66.259
1.38 201.072 66.338
1.39 202.483 66.872
1.40 202.704 67.269
1.41 200.859 67.516
1.42 199.103 67.915
1.43 197.701 68.608
1.44 194.016 69.938
1.45 185.845 70.973
1.46 183.828 70.417
1.47 184.047 68.128
1.48 184.259 64.635
1.49 184.634 60.130
1.50 --undefined-- 54.722
1.51 --undefined-- 50.126
1.52 --undefined-- 48.605
1.53 --undefined-- 49.418
1.54 --undefined-- 49.651
1.55 --undefined-- 49.946
1.56 --undefined-- 50.932
1.57 --undefined-- 51.551
1.58 --undefined-- 53.719
1.59 224.459 56.729
1.60 224.481 59.005
1.61 240.453 60.405
1.62 251.481 61.438
1.63 271.049 63.079
1.64 276.313 64.911
1.65 277.615 66.012
1.66 281.775 66.476
1.67 284.539 66.595
1.68 288.267 66.832
1.69 290.357 67.264
1.70 290.414 68.272
1.71 297.181 69.815
1.72 295.991 70.742
1.73 293.079 71.058
1.74 289.332 71.069
1.75 283.775 71.084
1.76 279.514 71.487
1.77 273.574 71.494
1.78 259.247 70.496
1.79 243.716 68.874
1.80 229.024 67.716
1.81 217.833 68.130
1.82 204.006 70.078
1.83 197.333 71.461
1.84 193.271 71.247
1.85 189.862 70.002
1.86 188.330 68.466
1.87 187.746 66.011
1.88 188.358 61.891
1.89 186.274 57.014
1.90 --undefined-- 57.721
1.91 --undefined-- 61.236
1.92 --undefined-- 62.290
1.93 --undefined-- 60.730
1.94 --undefined-- 57.842
1.95 228.185 59.781
1.96 213.616 63.049
1.97 202.374 64.673
1.98 192.642 65.707
1.99 183.782 66.729
2.00 178.384 67.787
2.01 174.090 68.509
2.02 168.365 67.940
2.03 163.184 65.205
2.04 --undefined-- 60.163
2.05 --undefined-- 55.030
2.06 --undefined-- 54.535
2.07 --undefined-- 55.841
2.08 --undefined-- 57.148
2.09 186.819 60.921
2.10 182.314 64.722
2.11 184.161 66.807
2.12 186.819 67.893
2.13 190.459 68.723
2.14 191.483 68.991
2.15 199.267 67.884
2.16 214.843 65.438
2.17 218.846 64.016
2.18 228.417 65.593
2.19 241.393 67.748
2.20 241.913 68.323
2.21 225.251 67.369
2.22 218.812 66.568
2.23 207.245 66.374
2.24 195.130 66.329
2.25 182.421 65.992
2.26 172.637 64.984
2.27 148.585 63.767
2.28 138.954 62.764
2.29 137.975 62.117
2.30 146.078 62.319
2.31 150.457 62.840
2.32 151.861 62.623
2.33 153.333 61.336
2.34 155.023 58.814
2.35 156.074 54.910
2.36 --undefined-- 50.841
2.37 --undefined-- 48.236
2.38 --undefined-- 46.640
2.39 --undefined-- 46.350
2.40 --undefined-- 47.107
2.41 --undefined-- 47.940
2.42 --undefined-- 48.063
2.43 --undefined-- 47.487
2.44 --undefined-- 48.080
2.45 --undefined-- 49.468
2.46 --undefined-- 51.665
2.47 --undefined-- 54.467
2.48 --undefined-- 57.905
2.49 230.465 62.244
2.50 208.069 65.118
2.51 202.149 66.621
2.52 197.573 67.589
2.53 195.470 68.303
2.54 195.307 68.712
2.55 196.432 68.816
2.56 196.117 68.645
2.57 195.886 68.268
2.58 196.444 67.932
2.59 196.985 67.831
2.60 197.043 68.030
2.61 196.613 68.411
2.62 197.134 68.773
2.63 198.484 68.875
2.64 200.587 68.693
2.65 201.988 68.698
2.66 200.509 69.031
2.67 199.010 69.062
2.68 199.450 68.501
2.69 200.616 67.682
2.70 201.428 66.819
2.71 200.563 65.837
2.72 201.708 65.202
2.73 208.158 65.114
2.74 214.410 64.877
2.75 223.278 64.678
2.76 232.933 65.802
2.77 240.900 68.279
2.78 245.311 70.279
2.79 249.763 71.043
2.80 252.576 70.951
2.81 252.291 70.560
2.82 249.158 70.264
2.83 243.223 70.072
2.84 232.183 69.921
2.85 221.744 69.732
2.86 --undefined-- 69.371
2.87 --undefined-- 68.989
2.88 --undefined-- 68.334
2.89 --undefined-- 66.698
2.90 148.719 63.846
2.91 146.574 60.052
2.92 --undefined-- 55.786
2.93 --undefined-- 52.224
2.94 --undefined-- 50.502
2.95 --undefined-- 48.378
2.96 --undefined-- 45.583
2.97 --undefined-- 45.427
2.98 --undefined-- 46.443
2.99 --undefined-- 48.139
3.00 --undefined-- 50.808
3.01 --undefined-- 52.252
3.02 --undefined-- 50.915
3.03 --undefined-- 48.553
3.04 --undefined-- 48.372
3.05 --undefined-- 48.842
3.06 --undefined-- 51.341
3.07 --undefined-- 52.648
3.08 --undefined-- 51.019
3.09 --undefined-- 48.285
3.10 --undefined-- 47.831
3.11 --undefined-- 47.455
3.12 --undefined-- 48.941
3.13 --undefined-- 52.513
3.14 --undefined-- 53.839
3.15 --undefined-- 52.383
3.16 --undefined-- 51.855
3.17 --undefined-- 52.694
3.18 --undefined-- 51.569
3.19 --undefined-- 50.323
3.20 --undefined-- 51.007
3.21 --undefined-- 51.123
3.22 --undefined-- 49.832
3.23 --undefined-- 49.717
3.24 --undefined-- 53.086
3.25 --undefined-- 56.684
3.26 247.473 58.861
3.27 248.345 60.842
3.28 274.639 65.721
3.29 266.336 70.273
3.30 266.962 73.127
3.31 265.215 74.733
3.32 263.019 75.643
3.33 263.034 76.262
3.34 265.682 76.384
3.35 270.155 75.558
3.36 274.097 73.860
3.37 276.822 72.177
3.38 278.942 71.398
3.39 279.741 71.060
3.40 281.718 70.497
3.41 283.829 69.908
3.42 284.478 69.664
3.43 284.280 69.618
3.44 283.105 69.152
3.45 280.133 67.346
3.46 273.784 63.404
3.47 262.428 57.404
3.48 --undefined-- 51.965
3.49 --undefined-- 52.481
3.50 --undefined-- 54.581
3.51 --undefined-- 55.733
3.52 --undefined-- 58.703
3.53 --undefined-- 61.806
3.54 157.309 64.916
3.55 160.556 67.680
3.56 164.346 69.215
3.57 169.553 69.646
3.58 171.177 69.676
3.59 171.239 69.601
3.60 171.105 69.346
3.61 171.224 69.017
3.62 171.667 68.883
3.63 172.135 68.948
3.64 173.051 69.103
3.65 174.246 69.382
3.66 175.770 69.716
3.67 177.777 69.945
3.68 179.265 69.996
3.69 179.924 69.914
3.70 181.058 69.743
3.71 182.938 69.608
3.72 183.549 69.594
3.73 182.423 69.249
3.74 179.755 67.809
3.75 175.481 64.681
3.76 168.588 59.861
3.77 --undefined-- 55.236
3.78 --undefined-- 53.663
3.79 --undefined-- 53.368
3.80 --undefined-- 52.788
3.81 --undefined-- 52.322
3.82 --undefined-- 50.087
3.83 --undefined-- 47.887
3.84 --undefined-- 50.781
3.85 --undefined-- 55.743
3.86 --undefined-- 62.872
3.87 175.191 68.086
3.88 172.301 70.782
3.89 169.537 71.743
3.90 167.883 71.551
3.91 167.610 70.510
3.92 168.113 69.380
3.93 168.057 68.903
3.94 167.022 68.930
3.95 167.061 69.423
3.96 170.721 70.154
3.97 171.729 70.496
3.98 171.023 70.481
3.99 170.457 70.422
4.00 169.988 70.298
4.01 169.832 70.065
4.02 169.292 69.626
4.03 167.213 68.470
4.04 163.215 66.008
4.05 162.961 61.955
4.06 169.591 57.254
4.07 169.386 54.773
4.08 171.778 54.988
4.09 --undefined-- 55.679
4.10 --undefined-- 55.052
4.11 --undefined-- 54.422
4.12 --undefined-- 54.780
4.13 --undefined-- 55.624
4.14 --undefined-- 56.609
4.15 --undefined-- 63.823
4.16 --undefined-- 73.028
4.17 --undefined-- 77.934
4.18 --undefined-- 79.524
4.19 --undefined-- 79.184
4.20 --undefined-- 77.637
4.21 --undefined-- 75.029
4.22 --undefined-- 73.507
4.23 --undefined-- 73.632
4.24 --undefined-- 72.309
4.25 --undefined-- 68.906
4.26 --undefined-- 65.974
4.27 --undefined-- 64.157
4.28 --undefined-- 61.837
4.29 --undefined-- 60.666
4.30 --undefined-- 59.305
4.31 --undefined-- 56.202
4.32 --undefined-- 53.625
4.33 --undefined-- 52.058
4.34 --undefined-- 49.362
4.35 --undefined-- 47.136
4.36 --undefined-- 48.636
4.37 --undefined-- 50.222
4.38 --undefined-- 52.537
4.39 --undefined-- 57.325
4.40 182.437 60.581
4.41 179.802 62.299
4.42 175.194 63.138
4.43 170.242 63.226
4.44 169.115 62.824
4.45 170.657 62.427
4.46 171.962 62.118
4.47 174.614 61.985
4.48 176.819 62.000
4.49 175.798 61.932
4.50 174.277 62.126
4.51 171.301 62.629
4.52 166.858 63.171
4.53 164.967 63.560
4.54 164.734 63.649
4.55 164.842 63.452
4.56 165.329 63.195
4.57 166.689 63.023
4.58 167.619 62.449
4.59 167.298 60.711
4.60 166.891 57.445
4.61 --undefined-- 53.503
4.62 --undefined-- 51.820
4.63 --undefined-- 53.436
4.64 --undefined-- 54.606
4.65 --undefined-- 53.991
4.66 --undefined-- 51.955
4.67 --undefined-- 49.836
4.68 --undefined-- 48.709
4.69 --undefined-- 49.546
4.70 --undefined-- 54.452
4.71 223.355 60.973
4.72 214.206 65.432
4.73 206.244 68.065
4.74 200.582 69.688
4.75 194.843 70.766
4.76 191.101 71.694
4.77 188.136 72.525
4.78 186.364 72.855
4.79 186.001 72.494
4.80 186.333 71.702
4.81 187.360 70.452
4.82 188.549 68.576
4.83 187.772 66.236
4.84 186.703 63.529
4.85 186.275 60.641
4.86 209.176 59.582
4.87 214.118 59.551
4.88 213.226 59.247
4.89 212.248 59.391
4.90 207.133 59.803
4.91 197.687 60.791
4.92 188.013 62.984
4.93 184.903 65.194
4.94 170.827 65.821
4.95 167.634 64.424
4.96 165.265 61.090
4.97 --undefined-- 56.795
4.98 --undefined-- 54.681
4.99 --undefined-- --undefined--
5.00 --undefined-- --undefined--
5.01 --undefined-- --undefined--
5.02 --undefined-- --undefined--
