Time Pitch Intensity
0.01 --undefined-- --undefined--
0.02 --undefined-- --undefined--
0.03 --undefined-- --undefined--
0.04 --undefined-- --undefined--
0.05 --undefined-- 38.075
0.06 --undefined-- 39.057
0.07 --undefined-- 39.751
0.08 --undefined-- 40.018
0.09 --undefined-- 40.241
0.10 --undefined-- 39.455
0.11 --undefined-- 37.469
0.12 --undefined-- 36.925
0.13 --undefined-- 37.002
0.14 --undefined-- 37.103
0.15 --undefined-- 38.170
0.16 --undefined-- 39.880
0.17 --undefined-- 40.945
0.18 --undefined-- 40.323
0.19 --undefined-- 39.668
0.20 --undefined-- 40.302
0.21 --undefined-- 40.101
0.22 --undefined-- 39.326
0.23 --undefined-- 39.149
0.24 --undefined-- 38.908
0.25 --undefined-- 37.811
0.26 --undefined-- 36.185
0.27 --undefined-- 35.892
0.28 --undefined-- 36.522
0.29 --undefined-- 36.372
0.30 --undefined-- 36.977
0.31 --undefined-- 38.573
0.32 --undefined-- 39.605
0.33 --undefined-- 40.534
0.34 --undefined-- 41.885
0.35 --undefined-- 42.630
0.36 --undefined-- 42.930
0.37 --undefined-- 43.495
0.38 --undefined-- 44.150
0.39 --undefined-- 44.447
0.40 --undefined-- 45.142
0.41 --undefined-- 46.457
0.42 --undefined-- 46.940
0.43 --undefined-- 46.783
0.44 --undefined-- 46.686
0.45 --undefined-- 46.688
0.46 --undefined-- 46.598
0.47 --undefined-- 46.127
0.48 --undefined-- 45.645
0.49 --undefined-- 45.199
0.50 --undefined-- 44.047
0.51 --undefined-- 42.438
0.52 --undefined-- 42.072
0.53 --undefined-- 41.371
0.54 --undefined-- 40.200
0.55 --undefined-- 39.355
0.56 --undefined-- 38.633
0.57 --undefined-- 39.379
0.58 --undefined-- 39.106
0.59 --undefined-- 37.789
0.60 --undefined-- 36.812
0.61 --undefined-- 35.085
0.62 --undefined-- 34.393
0.63 --undefined-- 36.092
0.64 --undefined-- 45.111
0.65 --undefined-- 56.607
0.66 193.993 65.367
0.67 180.150 70.831
0.68 175.988 73.534
0.69 177.572 74.104
0.70 180.445 72.913
0.71 191.883 71.166
0.72 199.468 70.093
0.73 207.901 69.684
0.74 216.787 69.997
0.75 223.722 70.802
0.76 224.849 71.340
0.77 218.275 70.726
0.78 203.876 68.246
0.79 174.601 63.992
0.80 --undefined-- 63.731
0.81 --undefined-- 66.676
0.82 --undefined-- 67.568
0.83 --undefined-- 70.418
0.84 188.071 74.406
0.85 183.259 76.565
0.86 175.603 77.166
0.87 166.573 76.962
0.88 162.246 76.487
0.89 161.737 75.642
0.90 160.788 74.145
0.91 157.502 71.495
0.92 135.898 67.851
0.93 147.242 69.461
0.94 151.116 73.982
0.95 152.831 76.651
0.96 150.879 77.274
0.97 144.545 76.507
0.98 138.709 75.610
0.99 134.732 75.107
1.00 132.088 74.734
1.01 131.378 74.535
1.02 130.872 74.738
1.03 126.488 74.820
1.04 130.223 74.150
1.05 135.261 72.988
1.06 133.566 71.425
1.07 129.416 68.578
1.08 114.718 63.828
1.09 --undefined-- 57.728
1.10 --undefined-- 51.485
1.11 --undefined-- 49.701
1.12 --undefined-- 52.408
1.13 --undefined-- 59.159
1.14 --undefined-- 66.357
1.15 161.682 70.992
1.16 150.690 73.537
1.17 144.471 74.807
1.18 --undefined-- 75.136
1.19 --undefined-- 74.498
1.20 --undefined-- 72.798
1.21 --undefined-- 71.277
1.22 --undefined-- 70.645
1.23 --undefined-- 69.763
1.24 --undefined-- 68.967
1.25 131.195 68.594
1.26 130.772 68.827
1.27 139.465 69.547
1.28 139.222 70.988
1.29 142.663 72.805
1.30 140.737 74.068
1.31 140.657 74.904
1.32 139.296 75.539
1.33 133.547 75.933
1.34 132.482 76.552
1.35 131.488 77.313
1.36 131.395 77.600
1.37 131.775 77.139
1.38 132.747 75.905
1.39 131.881 74.182
1.40 128.228 72.233
1.41 124.261 69.343
1.42 --undefined-- 64.638
1.43 --undefined-- 58.143
1.44 --undefined-- 51.547
1.45 --undefined-- 45.563
1.46 --undefined-- 40.631
1.47 --undefined-- 41.026
1.48 --undefined-- 41.889
1.49 --undefined-- 40.579
1.50 --undefined-- 36.843
1.51 --undefined-- 33.937
1.52 --undefined-- 35.691
1.53 --undefined-- 36.881
1.54 --undefined-- 36.513
1.55 --undefined-- 36.924
1.56 --undefined-- 36.851
1.57 --undefined-- 35.311
1.58 --undefined-- 35.629
1.59 --undefined-- 39.530
1.60 --undefined-- 41.737
1.61 --undefined-- 40.840
1.62 --undefined-- 40.466
1.63 --undefined-- 44.131
1.64 --undefined-- 48.530
1.65 --undefined-- 51.409
1.66 --undefined-- 54.147
1.67 --undefined-- 59.975
1.68 130.967 64.942
1.69 130.772 67.782
1.70 132.739 69.604
1.71 133.341 71.302
1.72 134.142 72.744
1.73 140.855 73.666
1.74 148.034 73.883
1.75 157.529 73.685
1.76 169.968 73.755
1.77 175.815 74.125
1.78 176.269 73.245
1.79 168.753 69.624
1.80 157.790 63.191
1.81 172.400 56.833
1.82 --undefined-- 52.332
1.83 --undefined-- 48.327
1.84 --undefined-- 45.079
1.85 --undefined-- 48.188
1.86 --undefined-- 58.484
1.87 --undefined-- 65.948
1.88 148.807 70.576
1.89 146.714 72.872
1.90 139.096 73.393
1.91 138.581 73.266
1.92 137.700 73.296
1.93 136.505 73.312
1.94 135.345 73.195
1.95 133.791 72.858
1.96 130.399 72.055
1.97 135.302 71.186
1.98 136.120 71.629
1.99 138.369 73.025
2.00 131.254 73.418
2.01 128.094 72.893
2.02 127.344 72.559
2.03 127.428 72.623
2.04 128.141 72.762
2.05 130.078 72.494
2.06 133.937 71.905
2.07 133.233 71.074
2.08 128.385 69.497
2.09 122.227 66.549
2.10 113.349 61.486
2.11 --undefined-- 54.041
2.12 --undefined-- 48.073
2.13 --undefined-- 46.648
2.14 --undefined-- 46.715
2.15 --undefined-- 47.555
2.16 --undefined-- 50.834
2.17 --undefined-- 59.190
2.18 --undefined-- 65.668
2.19 169.033 69.241
2.20 165.426 71.010
2.21 164.448 72.076
2.22 161.977 73.037
2.23 159.055 73.942
2.24 157.276 74.519
2.25 155.687 74.021
2.26 153.704 71.437
2.27 134.767 66.233
2.28 --undefined-- 59.466
2.29 --undefined-- 54.072
2.30 --undefined-- 50.228
2.31 --undefined-- 46.596
2.32 --undefined-- 44.240
2.33 --undefined-- 49.485
2.34 --undefined-- 56.223
2.35 --undefined-- 61.195
2.36 123.681 64.487
2.37 117.146 66.736
2.38 113.029 68.370
2.39 113.002 69.640
2.40 113.624 70.779
2.41 115.678 71.681
2.42 117.721 72.096
2.43 119.812 72.110
2.44 123.179 72.059
2.45 127.647 72.358
2.46 131.505 73.004
2.47 135.312 73.583
2.48 139.152 73.445
2.49 139.810 72.115
2.50 147.607 70.516
2.51 156.470 69.754
2.52 161.366 68.962
2.53 163.544 67.987
2.54 163.005 66.767
2.55 159.640 65.059
2.56 157.368 63.070
2.57 155.121 60.485
2.58 161.538 56.672
2.59 --undefined-- 51.160
2.60 --undefined-- 44.014
2.61 --undefined-- 40.020
2.62 --undefined-- 39.706
2.63 --undefined-- 48.224
2.64 --undefined-- 60.043
2.65 --undefined-- 68.132
2.66 --undefined-- 72.599
2.67 --undefined-- 74.253
2.68 134.312 74.384
2.69 127.934 74.188
2.70 124.937 73.562
2.71 123.692 72.607
2.72 123.555 72.308
2.73 121.787 72.656
2.74 123.262 72.645
2.75 127.713 72.009
2.76 127.134 71.071
2.77 126.202 69.406
2.78 118.757 66.215
2.79 116.778 61.328
2.80 --undefined-- 55.096
2.81 --undefined-- 49.611
2.82 --undefined-- 48.165
2.83 --undefined-- 48.633
2.84 --undefined-- 52.781
2.85 --undefined-- 63.159
2.86 --undefined-- 71.223
2.87 --undefined-- 75.830
2.88 167.689 78.193
2.89 163.643 79.469
2.90 162.878 80.067
2.91 162.992 79.855
2.92 163.587 78.634
2.93 164.838 76.666
2.94 165.138 74.919
2.95 165.336 73.849
2.96 165.509 72.869
2.97 166.295 71.856
2.98 167.680 71.244
2.99 165.421 70.686
3.00 159.819 69.557
3.01 151.010 67.384
3.02 144.078 63.582
3.03 --undefined-- 57.549
3.04 --undefined-- 50.043
3.05 --undefined-- 47.502
3.06 --undefined-- 50.137
3.07 --undefined-- 58.066
3.08 --undefined-- 66.636
3.09 177.072 71.897
3.10 151.312 74.221
3.11 139.007 74.683
3.12 132.983 74.658
3.13 131.358 74.615
3.14 132.512 73.858
3.15 --undefined-- 71.913
3.16 --undefined-- 69.356
3.17 --undefined-- 66.649
3.18 --undefined-- 63.529
3.19 --undefined-- 60.012
3.20 --undefined-- 57.409
3.21 --undefined-- 57.352
3.22 110.225 58.877
3.23 117.089 60.588
3.24 119.592 62.888
3.25 118.877 65.691
3.26 117.841 67.987
3.27 119.061 69.591
3.28 121.345 70.784
3.29 124.775 71.517
3.30 127.895 71.496
3.31 131.018 70.579
3.32 132.298 69.495
3.33 142.322 69.404
3.34 146.337 69.522
3.35 151.669 69.277
3.36 155.998 68.876
3.37 160.001 68.364
3.38 160.795 67.414
3.39 156.891 65.307
3.40 150.167 61.550
3.41 --undefined-- 56.153
3.42 --undefined-- 49.890
3.43 --undefined-- 51.394
3.44 --undefined-- 57.288
3.45 --undefined-- 61.630
3.46 174.923 66.495
3.47 151.496 70.919
3.48 142.568 73.812
3.49 138.256 75.350
3.50 131.933 76.315
3.51 130.319 77.160
3.52 128.336 77.233
3.53 124.782 76.339
3.54 123.204 75.517
3.55 123.302 75.471
3.56 125.357 75.714
3.57 128.945 76.075
3.58 132.563 76.549
3.59 133.953 76.603
3.60 133.865 75.685
3.61 131.173 73.196
3.62 107.458 68.353
3.63 --undefined-- 60.833
3.64 --undefined-- 55.508
3.65 --undefined-- 58.995
3.66 --undefined-- 61.055
3.67 97.990 61.774
3.68 92.261 62.296
3.69 94.636 62.433
3.70 94.254 64.563
3.71 126.315 68.673
3.72 126.133 71.870
3.73 121.377 73.483
3.74 116.747 73.690
3.75 112.007 72.760
3.76 108.371 71.207
3.77 105.130 69.823
3.78 103.047 68.893
3.79 103.843 68.341
3.80 104.785 68.246
3.81 106.507 68.519
3.82 107.757 68.724
3.83 108.440 68.580
3.84 107.791 68.123
3.85 107.219 67.468
3.86 106.930 66.671
3.87 106.907 65.718
3.88 106.368 64.711
3.89 107.708 63.942
3.90 109.229 63.482
3.91 110.018 63.068
3.92 107.326 62.131
3.93 104.011 60.519
3.94 97.852 58.571
3.95 98.523 56.109
3.96 --undefined-- 51.880
3.97 --undefined-- 44.756
3.98 --undefined-- 39.056
3.99 --undefined-- 40.395
4.00 --undefined-- 41.490
4.01 --undefined-- 40.036
4.02 --undefined-- 37.270
4.03 --undefined-- 37.249
4.04 --undefined-- 38.272
4.05 --undefined-- 39.087
4.06 --undefined-- 38.662
4.07 --undefined-- 36.790
4.08 --undefined-- 36.485
4.09 --undefined-- 37.621
4.10 --undefined-- 37.329
4.11 --undefined-- 36.705
4.12 --undefined-- 37.942
4.13 --undefined-- 39.461
4.14 --undefined-- 39.191
4.15 --undefined-- 37.019
4.16 --undefined-- 35.454
4.17 --undefined-- 35.842
4.18 --undefined-- 36.515
4.19 --undefined-- 36.934
4.20 --undefined-- 36.942
4.21 --undefined-- 35.888
4.22 --undefined-- 34.425
4.23 --undefined-- 34.094
4.24 --undefined-- 34.255
4.25 --undefined-- 34.304
4.26 --undefined-- 35.327
4.27 --undefined-- 36.909
4.28 --undefined-- 38.094
4.29 --undefined-- 38.824
4.30 --undefined-- 38.714
4.31 --undefined-- 37.410
4.32 --undefined-- 36.637
4.33 --undefined-- 36.744
4.34 --undefined-- 37.302
4.35 --undefined-- 39.111
4.36 --undefined-- 39.595
4.37 --undefined-- 38.643
4.38 --undefined-- 39.345
4.39 --undefined-- 41.013
4.40 --undefined-- 41.659
4.41 --undefined-- 41.412
4.42 --undefined-- 41.224
4.43 --undefined-- 41.995
4.44 --undefined-- 42.312
4.45 --undefined-- 41.450
4.46 --undefined-- 40.715
4.47 --undefined-- 41.088
4.48 --undefined-- 41.295
4.49 --undefined-- 41.216
4.50 --undefined-- 41.369
4.51 --undefined-- 41.321
4.52 --undefined-- 41.151
4.53 --undefined-- 41.083
4.54 --undefined-- 40.652
4.55 --undefined-- 38.926
4.56 --undefined-- 36.885
4.57 --undefined-- 37.139
4.58 --undefined-- 40.391
4.59 --undefined-- 45.986
4.60 --undefined-- 53.427
4.61 --undefined-- 62.025
4.62 --undefined-- 68.089
4.63 155.552 71.090
4.64 152.424 71.846
4.65 165.523 71.492
4.66 175.349 70.991
4.67 187.212 70.538
4.68 196.472 70.097
4.69 204.246 69.670
4.70 207.981 68.854
4.71 199.305 67.084
4.72 183.770 64.178
4.73 175.571 60.310
4.74 200.980 55.879
4.75 --undefined-- 52.871
4.76 --undefined-- 60.409
4.77 --undefined-- 67.183
4.78 --undefined-- 72.066
4.79 --undefined-- 75.946
4.80 174.570 78.487
4.81 163.170 79.671
4.82 154.324 79.547
4.83 147.329 78.886
4.84 142.301 78.429
4.85 137.405 78.329
4.86 134.435 78.308
4.87 136.083 77.770
4.88 141.180 77.089
4.89 141.356 77.035
4.90 141.163 76.849
4.91 139.418 75.511
4.92 136.996 72.736
4.93 128.829 68.307
4.94 --undefined-- 62.672
4.95 --undefined-- 57.205
4.96 --undefined-- 54.423
4.97 --undefined-- 54.734
4.98 --undefined-- 55.455
4.99 --undefined-- 55.357
5.00 --undefined-- 61.763
5.01 203.711 69.518
5.02 190.538 74.197
5.03 185.449 76.657
5.04 181.530 77.971
5.05 179.177 78.624
5.06 178.378 78.480
5.07 178.414 77.362
5.08 178.418 75.725
5.09 175.498 74.214
5.10 168.245 72.262
5.11 155.649 69.018
5.12 153.895 64.377
5.13 --undefined-- 59.089
5.14 --undefined-- 53.410
5.15 --undefined-- 47.482
5.16 --undefined-- 42.701
5.17 --undefined-- 40.436
5.18 --undefined-- 41.327
5.19 --undefined-- 43.211
5.20 --undefined-- 42.517
5.21 --undefined-- 40.474
5.22 --undefined-- 40.681
5.23 --undefined-- 40.764
5.24 --undefined-- 39.399
5.25 --undefined-- 38.412
5.26 --undefined-- 38.460
5.27 --undefined-- 38.155
5.28 --undefined-- 37.170
5.29 --undefined-- 36.842
5.30 --undefined-- 38.329
5.31 --undefined-- 39.846
5.32 --undefined-- 39.511
5.33 --undefined-- 39.141
5.34 --undefined-- 39.771
5.35 --undefined-- 38.857
5.36 --undefined-- 38.654
5.37 --undefined-- 39.660
5.38 --undefined-- 40.177
5.39 --undefined-- 43.151
5.40 --undefined-- 52.783
5.41 --undefined-- 60.273
5.42 --undefined-- 65.641
5.43 --undefined-- 70.617
5.44 188.092 74.333
5.45 185.397 76.886
5.46 183.865 78.841
5.47 182.591 80.134
5.48 181.200 80.764
5.49 180.172 80.948
5.50 179.703 80.757
5.51 179.647 80.363
5.52 179.834 79.963
5.53 179.334 79.624
5.54 179.386 79.570
5.55 179.320 79.763
5.56 179.198 79.534
5.57 183.376 78.166
5.58 185.972 75.934
5.59 173.660 74.244
5.60 176.984 73.732
5.61 176.151 73.951
5.62 169.901 74.421
5.63 163.282 74.672
5.64 155.537 74.545
5.65 148.493 74.648
5.66 145.098 75.566
5.67 135.971 76.524
5.68 132.577 76.638
5.69 128.839 76.023
5.70 126.559 75.260
5.71 125.481 74.322
5.72 124.875 73.425
5.73 125.323 72.639
5.74 127.527 71.472
5.75 128.886 69.641
5.76 128.166 67.553
5.77 132.185 66.809
5.78 133.236 66.983
5.79 132.324 67.226
5.80 129.693 67.529
5.81 126.683 68.007
5.82 128.427 68.754
5.83 115.814 69.179
5.84 111.697 68.948
5.85 108.298 68.311
5.86 106.765 67.487
5.87 105.051 66.548
5.88 103.710 65.595
5.89 104.294 65.028
5.90 106.512 65.007
5.91 106.942 64.925
5.92 106.497 64.484
5.93 107.166 63.477
5.94 106.495 61.270
5.95 105.417 57.490
5.96 --undefined-- 53.382
5.97 --undefined-- 52.190
5.98 --undefined-- 54.049
5.99 --undefined-- 56.099
6.00 --undefined-- 58.021
6.01 --undefined-- 59.049
6.02 --undefined-- 58.625
6.03 --undefined-- 60.637
6.04 187.141 66.718
6.05 188.582 70.994
6.06 181.323 72.684
6.07 171.769 72.685
6.08 169.548 72.278
6.09 170.386 72.353
6.10 172.946 72.859
6.11 172.117 72.961
6.12 168.894 72.371
6.13 168.733 71.718
6.14 164.022 71.280
6.15 159.276 71.481
6.16 155.165 72.487
6.17 147.011 73.031
6.18 137.691 72.705
6.19 132.506 71.957
6.20 129.009 71.016
6.21 124.062 70.333
6.22 121.642 70.107
6.23 117.623 70.100
6.24 115.331 70.321
6.25 114.412 70.424
6.26 114.106 69.998
6.27 108.731 69.038
6.28 106.112 68.143
6.29 105.881 67.634
6.30 104.803 66.886
6.31 101.400 65.566
6.32 102.396 64.217
6.33 105.171 63.242
6.34 103.573 62.247
6.35 103.925 61.262
6.36 86.868 60.147
6.37 85.743 58.569
6.38 --undefined-- 56.195
6.39 --undefined-- 52.090
6.40 --undefined-- 49.399
6.41 --undefined-- 48.093
6.42 --undefined-- 46.488
6.43 --undefined-- 45.264
6.44 --undefined-- 41.961
6.45 --undefined-- 38.157
6.46 --undefined-- 38.752
6.47 --undefined-- 38.440
6.48 --undefined-- 36.837
6.49 --undefined-- 37.489
6.50 --undefined-- 39.282
6.51 --undefined-- 40.317
6.52 --undefined-- 40.783
6.53 --undefined-- 43.025
6.54 --undefined-- --undefined--
6.55 --undefined-- --undefined--
6.56 --undefined-- --undefined--
6.57 --undefined-- --undefined--
