Time Pitch Intensity
0.01 --undefined-- --undefined--
0.02 243.471 --undefined--
0.03 233.298 --undefined--
0.04 220.390 --undefined--
0.05 205.659 65.285
0.06 191.760 66.691
0.07 185.294 67.789
0.08 177.293 68.056
0.09 171.906 67.619
0.10 172.380 66.837
0.11 175.312 65.932
0.12 176.349 64.800
0.13 177.861 64.337
0.14 186.425 65.083
0.15 190.734 65.633
0.16 196.982 65.384
0.17 205.868 64.886
0.18 213.472 64.954
0.19 218.038 65.408
0.20 222.102 65.864
0.21 225.984 65.928
0.22 228.097 65.370
0.23 226.416 63.967
0.24 217.400 61.579
0.25 218.805 58.622
0.26 --undefined-- 55.659
0.27 --undefined-- 53.880
0.28 --undefined-- 54.804
0.29 233.220 59.099
0.30 209.104 63.633
0.31 189.126 66.699
0.32 181.558 68.898
0.33 175.635 70.776
0.34 170.873 72.198
0.35 168.697 72.787
0.36 168.769 72.499
0.37 169.161 71.679
0.38 170.107 70.444
0.39 171.061 68.813
0.40 171.555 67.620
0.41 173.572 67.546
0.42 173.431 67.336
0.43 172.635 66.618
0.44 172.292 66.033
0.45 173.803 65.834
0.46 175.690 66.059
0.47 176.544 66.669
0.48 177.592 67.034
0.49 179.394 66.069
0.50 184.665 62.932
0.51 186.489 57.478
0.52 --undefined-- 54.716
0.53 --undefined-- 57.238
0.54 --undefined-- 58.259
0.55 233.470 58.827
0.56 205.771 60.956
0.57 201.460 62.473
0.58 198.171 63.346
0.59 173.759 64.917
0.60 168.948 66.849
0.61 163.013 68.079
0.62 158.712 68.742
0.63 157.486 69.205
0.64 157.666 69.674
0.65 159.219 70.637
0.66 161.083 72.145
0.67 163.249 73.727
0.68 165.850 74.816
0.69 170.148 75.449
0.70 174.826 75.666
0.71 191.619 75.752
0.72 200.337 75.770
0.73 208.498 74.927
0.74 221.109 73.861
0.75 234.369 73.312
0.76 239.289 73.261
0.77 240.080 73.663
0.78 240.243 73.634
0.79 238.730 72.571
0.80 235.418 70.196
0.81 224.302 66.537
0.82 215.728 62.245
0.83 214.861 58.297
0.84 222.571 54.827
0.85 240.187 55.319
0.86 240.889 57.185
0.87 239.043 56.048
0.88 --undefined-- 53.260
0.89 --undefined-- 53.383
0.90 --undefined-- 55.085
0.91 --undefined-- 56.921
0.92 --undefined-- 57.931
0.93 --undefined-- 57.659
0.94 --undefined-- 55.322
0.95 --undefined-- 52.139
0.96 --undefined-- 51.624
0.97 --undefined-- 50.150
0.98 --undefined-- 50.229
0.99 --undefined-- 54.114
1.00 --undefined-- 55.475
1.01 --undefined-- 53.704
1.02 --undefined-- 50.577
1.03 --undefined-- 49.238
1.04 --undefined-- 50.579
1.05 --undefined-- 53.322
1.06 --undefined-- 55.002
1.07 --undefined-- 54.308
1.08 --undefined-- 51.146
1.09 --undefined-- 46.849
1.10 --undefined-- 45.777
1.11 --undefined-- 47.486
1.12 --undefined-- 48.851
1.13 --undefined-- 54.007
1.14 --undefined-- 62.029
1.15 265.221 67.699
1.16 263.219 70.931
1.17 261.162 72.830
1.18 261.131 74.034
1.19 263.592 74.363
1.20 267.880 73.702
1.21 273.030 72.642
1.22 275.499 71.964
1.23 279.325 71.488
1.24 283.457 71.053
1.25 285.748 70.607
1.26 285.602 70.417
1.27 287.143 70.955
1.28 288.197 71.425
1.29 288.145 71.348
1.30 291.023 70.782
1.31 290.228 69.832
1.32 285.510 69.008
1.33 281.039 68.718
1.34 276.546 68.566
1.35 273.995 68.259
1.36 273.811 68.020
1.37 275.196 67.901
1.38 275.139 67.591
1.39 271.475 66.958
1.40 268.830 65.965
1.41 263.924 64.617
1.42 253.253 63.177
1.43 246.253 62.502
1.44 242.510 63.557
1.45 245.422 65.261
1.46 249.548 66.348
1.47 242.089 66.713
1.48 213.335 67.056
1.49 206.947 67.630
1.50 204.072 68.030
1.51 203.568 68.128
1.52 208.084 68.016
1.53 216.967 68.063
1.54 224.200 68.490
1.55 232.286 68.803
1.56 239.563 68.851
1.57 246.329 68.405
1.58 259.830 67.508
1.59 266.274 66.817
1.60 269.810 66.029
1.61 271.721 64.160
1.62 266.692 60.636
1.63 252.685 56.198
1.64 --undefined-- 55.552
1.65 --undefined-- 61.716
1.66 162.441 67.028
1.67 158.214 69.811
1.68 157.548 70.618
1.69 157.526 70.259
1.70 157.808 69.600
1.71 158.181 69.155
1.72 158.705 68.839
1.73 159.753 68.876
1.74 161.400 69.735
1.75 162.994 70.866
1.76 164.913 71.376
1.77 167.136 71.306
1.78 168.100 71.021
1.79 167.891 70.413
1.80 166.033 69.261
1.81 161.421 67.247
1.82 156.552 63.626
1.83 --undefined-- 58.005
1.84 --undefined-- 52.886
1.85 --undefined-- 50.263
1.86 --undefined-- 50.212
1.87 --undefined-- 52.205
1.88 --undefined-- 51.943
1.89 --undefined-- 49.819
1.90 --undefined-- 49.278
1.91 --undefined-- 50.668
1.92 --undefined-- 54.935
1.93 --undefined-- 60.549
1.94 194.871 64.456
1.95 183.594 66.507
1.96 173.786 66.893
1.97 164.736 66.484
1.98 163.242 66.422
1.99 161.578 66.389
2.00 161.615 65.996
2.01 162.579 65.330
2.02 161.872 64.514
2.03 159.909 63.493
2.04 158.846 62.449
2.05 158.256 61.419
2.06 155.691 59.765
2.07 152.544 57.366
2.08 154.250 55.380
2.09 160.911 54.420
2.10 --undefined-- 52.512
2.11 --undefined-- 49.834
2.12 --undefined-- 49.317
2.13 --undefined-- 50.495
2.14 --undefined-- 54.782
2.15 233.646 60.918
2.16 218.301 64.732
2.17 217.980 66.395
2.18 220.226 66.989
2.19 224.096 67.288
2.20 228.709 67.509
2.21 233.655 67.860
2.22 236.138 68.237
2.23 236.476 68.601
2.24 234.080 68.940
2.25 229.113 68.721
2.26 217.891 67.981
2.27 209.413 67.484
2.28 201.676 67.004
2.29 196.426 65.829
2.30 195.180 63.836
2.31 195.059 61.685
2.32 214.894 60.144
2.33 210.441 58.640
2.34 173.581 56.420
2.35 172.396 54.507
2.36 172.049 53.932
2.37 205.961 56.170
2.38 209.840 60.259
2.39 222.734 63.599
2.40 226.152 66.064
2.41 225.548 68.031
2.42 224.034 69.335
2.43 223.955 69.924
2.44 225.010 69.922
2.45 226.785 69.550
2.46 228.777 69.383
2.47 231.147 69.462
2.48 232.128 68.939
2.49 232.419 67.695
2.50 232.558 66.073
2.51 232.280 63.384
2.52 230.275 59.167
2.53 227.781 54.634
2.54 --undefined-- 55.091
2.55 --undefined-- 60.481
2.56 237.984 64.485
2.57 233.519 66.733
2.58 230.371 67.904
2.59 229.411 68.599
2.60 229.049 68.901
2.61 231.126 68.487
2.62 235.466 67.345
2.63 235.601 66.058
2.64 233.383 64.860
2.65 230.575 63.626
2.66 228.852 62.833
2.67 231.718 63.353
2.68 236.880 65.281
2.69 240.905 68.070
2.70 245.267 70.399
2.71 244.376 71.037
2.72 237.372 70.241
2.73 237.665 69.888
2.74 239.024 70.118
2.75 239.512 69.194
2.76 238.798 66.163
2.77 237.965 61.168
2.78 240.015 55.787
2.79 --undefined-- 50.935
2.80 --undefined-- 48.006
2.81 --undefined-- 48.498
2.82 --undefined-- 50.292
2.83 --undefined-- 50.161
2.84 --undefined-- 48.517
2.85 --undefined-- 46.608
2.86 --undefined-- 46.171
2.87 --undefined-- 47.601
2.88 --undefined-- 47.044
2.89 --undefined-- 45.618
2.90 --undefined-- 45.396
2.91 --undefined-- 45.239
2.92 --undefined-- 46.426
2.93 --undefined-- 48.782
2.94 --undefined-- 50.096
2.95 --undefined-- 54.513
2.96 216.420 61.428
2.97 194.757 66.295
2.98 186.406 69.092
2.99 181.708 70.337
3.00 177.659 70.521
3.01 175.818 70.074
3.02 174.563 69.448
3.03 174.284 69.161
3.04 174.944 69.065
3.05 174.980 68.763
3.06 174.582 68.239
3.07 174.748 67.592
3.08 175.458 66.941
3.09 176.659 66.488
3.10 176.803 66.297
3.11 176.527 66.109
3.12 176.400 65.610
3.13 175.398 64.741
3.14 174.139 64.155
3.15 175.265 64.186
3.16 174.138 64.246
3.17 173.947 64.205
3.18 174.707 64.360
3.19 175.288 64.773
3.20 179.773 65.602
3.21 179.222 66.970
3.22 178.837 68.535
3.23 178.282 70.272
3.24 176.248 71.703
3.25 173.252 72.520
3.26 171.949 72.971
3.27 171.139 73.084
3.28 171.327 72.632
3.29 --undefined-- 72.533
3.30 86.829 73.254
3.31 86.528 73.811
3.32 85.850 73.896
3.33 85.432 73.489
3.34 85.289 72.479
3.35 82.421 70.730
3.36 76.891 68.317
3.37 --undefined-- 65.659
3.38 --undefined-- 62.687
3.39 --undefined-- 58.985
3.40 --undefined-- 57.021
3.41 --undefined-- 58.302
3.42 --undefined-- 58.700
3.43 --undefined-- 56.834
3.44 --undefined-- 53.852
3.45 --undefined-- 54.259
3.46 --undefined-- 57.710
3.47 --undefined-- 60.097
3.48 --undefined-- 60.303
3.49 --undefined-- 58.482
3.50 --undefined-- 55.455
3.51 --undefined-- 54.736
3.52 --undefined-- 56.138
3.53 --undefined-- 55.537
3.54 --undefined-- 53.118
3.55 --undefined-- 51.332
3.56 --undefined-- 50.297
3.57 --undefined-- 48.685
3.58 --undefined-- 47.828
3.59 --undefined-- 48.352
3.60 --undefined-- 48.668
3.61 --undefined-- 48.268
3.62 --undefined-- 50.946
3.63 --undefined-- 54.687
3.64 --undefined-- 56.484
3.65 --undefined-- 56.132
3.66 --undefined-- 53.270
3.67 --undefined-- 49.175
3.68 --undefined-- 48.420
3.69 --undefined-- 48.755
3.70 --undefined-- 55.475
3.71 --undefined-- 63.168
3.72 283.426 67.796
3.73 280.601 70.120
3.74 282.803 71.131
3.75 284.305 71.525
3.76 285.998 71.403
3.77 290.089 70.646
3.78 289.616 69.333
3.79 281.820 67.254
3.80 270.102 63.882
3.81 270.612 59.986
3.82 --undefined-- 58.748
3.83 --undefined-- 59.480
3.84 --undefined-- 61.467
3.85 --undefined-- 64.831
3.86 171.273 67.968
3.87 165.893 69.542
3.88 165.398 69.766
3.89 161.819 69.649
3.90 160.752 69.444
3.91 160.280 68.923
3.92 159.709 68.382
3.93 157.102 68.598
3.94 154.845 69.368
3.95 152.764 69.641
3.96 150.732 68.693
3.97 294.690 65.736
3.98 278.965 60.203
3.99 --undefined-- 53.835
4.00 --undefined-- 52.728
4.01 --undefined-- 54.371
4.02 --undefined-- 54.322
4.03 --undefined-- 51.898
4.04 --undefined-- 49.977
4.05 --undefined-- 49.782
4.06 --undefined-- 54.207
4.07 --undefined-- 60.940
4.08 --undefined-- 65.521
4.09 189.547 68.195
4.10 176.899 69.661
4.11 170.566 70.128
4.12 164.251 69.507
4.13 159.074 68.226
4.14 156.912 67.349
4.15 156.242 67.233
4.16 156.392 67.362
4.17 155.801 67.379
4.18 155.414 67.252
4.19 156.758 67.099
4.20 159.279 66.782
4.21 161.641 66.200
4.22 163.470 65.737
4.23 164.079 65.260
4.24 165.844 64.182
4.25 163.093 63.268
4.26 168.256 63.524
4.27 168.863 63.867
4.28 168.343 63.951
4.29 167.925 64.099
4.30 167.591 64.260
4.31 168.043 64.288
4.32 167.531 64.304
4.33 166.187 64.339
4.34 168.081 64.494
4.35 164.978 64.959
4.36 162.469 65.808
4.37 161.759 66.678
4.38 161.066 67.162
4.39 161.272 67.476
4.40 161.362 67.760
4.41 162.269 67.963
4.42 162.704 67.868
4.43 162.296 67.296
4.44 163.075 66.343
4.45 163.565 65.114
4.46 162.602 63.663
4.47 163.210 62.436
4.48 164.692 61.705
4.49 166.096 61.081
4.50 168.748 60.535
4.51 169.507 60.255
4.52 170.594 59.695
4.53 175.547 57.977
4.54 --undefined-- 55.728
4.55 --undefined-- 53.867
4.56 --undefined-- 51.698
4.57 --undefined-- 51.338
4.58 --undefined-- 52.611
4.59 --undefined-- 52.882
4.60 --undefined-- 52.257
4.61 --undefined-- 51.704
4.62 --undefined-- 50.226
4.63 --undefined-- 48.591
4.64 --undefined-- 48.177
4.65 --undefined-- 49.406
4.66 --undefined-- 54.709
4.67 183.827 59.438
4.68 177.074 62.341
4.69 174.651 64.043
4.70 175.179 65.213
4.71 175.170 66.000
4.72 175.050 66.425
4.73 175.584 66.654
4.74 176.553 66.680
4.75 177.262 66.064
4.76 177.069 64.441
4.77 172.079 61.679
4.78 165.329 58.507
4.79 173.292 56.412
4.80 175.541 57.798
4.81 241.248 62.590
4.82 225.158 66.251
4.83 209.236 68.038
4.84 205.064 68.893
4.85 202.795 69.686
4.86 201.740 70.384
4.87 200.469 70.577
4.88 199.856 70.036
4.89 200.500 69.026
4.90 201.161 68.162
4.91 202.037 67.762
4.92 202.339 67.568
4.93 202.062 67.015
4.94 201.602 65.984
4.95 202.557 65.067
4.96 204.709 64.107
4.97 202.176 62.188
4.98 194.458 59.646
4.99 --undefined-- 61.263
5.00 240.503 64.826
5.01 239.134 --undefined--
5.02 242.187 --undefined--
5.03 --undefined-- --undefined--
5.04 --undefined-- --undefined--
