Time Pitch Intensity
0.01 --undefined-- --undefined--
0.02 103.528 --undefined--
0.03 111.037 --undefined--
0.04 111.310 --undefined--
0.05 110.832 69.625
0.06 111.676 70.102
0.07 113.314 70.013
0.08 113.848 69.784
0.09 115.346 70.272
0.10 118.221 71.015
0.11 118.025 71.065
0.12 117.009 70.460
0.13 116.322 69.596
0.14 114.553 68.399
0.15 111.277 66.541
0.16 109.339 64.193
0.17 107.050 62.153
0.18 107.905 60.398
0.19 109.926 59.089
0.20 106.186 58.995
0.21 --undefined-- 59.515
0.22 --undefined-- 60.207
0.23 112.388 61.760
0.24 112.039 64.303
0.25 113.299 66.982
0.26 115.262 69.090
0.27 119.079 70.634
0.28 123.805 71.911
0.29 128.191 72.921
0.30 134.477 73.617
0.31 141.326 74.093
0.32 146.784 74.471
0.33 153.138 74.599
0.34 162.477 74.247
0.35 176.466 73.493
0.36 186.473 72.362
0.37 185.154 70.522
0.38 179.591 68.391
0.39 180.932 66.634
0.40 177.908 64.223
0.41 169.546 60.127
0.42 162.894 55.428
0.43 --undefined-- 54.106
0.44 --undefined-- 54.275
0.45 --undefined-- 60.680
0.46 188.943 68.510
0.47 196.489 73.094
0.48 199.576 74.926
0.49 200.736 75.241
0.50 200.679 75.132
0.51 199.949 74.957
0.52 199.026 74.802
0.53 200.482 74.675
0.54 201.450 74.554
0.55 201.950 74.386
0.56 202.055 74.064
0.57 201.762 73.396
0.58 200.036 72.437
0.59 200.126 71.736
0.60 196.436 71.355
0.61 187.677 71.032
0.62 176.366 70.960
0.63 164.379 71.039
0.64 150.560 70.821
0.65 137.567 70.286
0.66 126.795 69.756
0.67 121.136 69.762
0.68 117.047 70.565
0.69 115.828 71.723
0.70 115.155 72.361
0.71 112.971 72.188
0.72 106.469 71.536
0.73 102.125 70.629
0.74 98.659 69.614
0.75 97.243 68.942
0.76 96.748 68.861
0.77 96.690 69.206
0.78 97.398 69.763
0.79 97.981 70.251
0.80 99.178 70.396
0.81 100.819 70.237
0.82 102.725 70.001
0.83 105.180 69.818
0.84 106.509 69.008
0.85 106.526 66.593
0.86 105.806 62.635
0.87 106.824 60.257
0.88 111.106 62.661
0.89 136.082 66.553
0.90 135.894 70.244
0.91 133.659 72.381
0.92 131.676 72.677
0.93 127.013 72.199
0.94 126.411 72.025
0.95 126.554 71.988
0.96 126.649 71.368
0.97 124.289 69.575
0.98 126.437 67.744
0.99 130.569 68.312
1.00 131.547 70.194
1.01 132.036 71.646
1.02 131.131 72.144
1.03 129.920 71.422
1.04 127.546 69.062
1.05 118.482 64.907
1.06 --undefined-- 64.151
1.07 130.338 68.075
1.08 124.371 70.152
1.09 104.734 69.833
1.10 98.593 68.139
1.11 93.185 66.573
1.12 92.048 65.756
1.13 92.735 65.567
1.14 93.119 65.585
1.15 92.832 65.799
1.16 94.054 66.374
1.17 97.364 67.409
1.18 103.044 68.744
1.19 109.361 70.085
1.20 116.281 71.293
1.21 125.780 72.207
1.22 130.750 72.620
1.23 132.815 72.669
1.24 136.463 72.987
1.25 141.229 73.652
1.26 145.350 74.209
1.27 147.173 74.262
1.28 147.970 73.893
1.29 148.930 73.650
1.30 149.106 73.566
1.31 145.993 72.613
1.32 141.610 69.805
1.33 141.490 65.641
1.34 144.222 61.393
1.35 141.212 56.155
1.36 --undefined-- 52.860
1.37 --undefined-- 56.393
1.38 --undefined-- 59.224
1.39 --undefined-- 62.949
1.40 --undefined-- 67.236
1.41 108.602 69.167
1.42 101.559 68.941
1.43 96.357 67.993
1.44 96.732 67.860
1.45 102.434 69.089
1.46 107.802 70.616
1.47 113.677 71.628
1.48 120.501 72.298
1.49 128.021 72.894
1.50 134.411 73.335
1.51 138.885 73.492
1.52 142.315 73.333
1.53 143.899 72.437
1.54 142.307 70.192
1.55 144.161 66.545
1.56 146.441 61.885
1.57 153.991 56.909
1.58 --undefined-- 54.869
1.59 --undefined-- 56.075
1.60 --undefined-- 57.296
1.61 --undefined-- 59.126
1.62 --undefined-- 63.416
1.63 124.453 67.223
1.64 113.912 68.942
1.65 105.968 69.265
1.66 101.338 69.235
1.67 99.067 69.066
1.68 95.152 68.728
1.69 93.289 68.356
1.70 92.588 68.059
1.71 93.942 67.815
1.72 94.687 67.277
1.73 95.120 65.944
1.74 95.163 63.406
1.75 96.908 60.181
1.76 108.141 58.484
1.77 121.686 57.942
1.78 124.568 55.729
1.79 --undefined-- 50.890
1.80 --undefined-- 47.068
1.81 --undefined-- 56.189
1.82 --undefined-- 65.107
1.83 165.122 70.524
1.84 152.797 72.910
1.85 147.463 73.366
1.86 144.393 73.180
1.87 142.257 73.081
1.88 139.757 73.011
1.89 136.847 72.776
1.90 133.985 72.216
1.91 132.213 71.061
1.92 131.140 69.013
1.93 131.623 66.711
1.94 130.590 66.006
1.95 130.099 68.015
1.96 131.649 70.747
1.97 126.010 71.880
1.98 121.709 71.161
1.99 110.240 69.541
2.00 107.799 68.312
2.01 106.117 67.673
2.02 105.596 67.568
2.03 105.952 67.989
2.04 107.048 68.689
2.05 108.451 69.632
2.06 110.611 70.673
2.07 112.530 71.457
2.08 114.437 71.741
2.09 116.190 71.733
2.10 118.016 71.779
2.11 116.628 71.463
2.12 115.423 70.122
2.13 115.022 68.214
2.14 109.243 66.139
2.15 100.154 63.535
2.16 99.051 61.518
2.17 98.505 60.271
2.18 110.235 58.770
2.19 111.099 58.063
2.20 112.693 60.481
2.21 108.816 64.580
2.22 110.982 68.238
2.23 111.364 70.666
2.24 115.171 71.865
2.25 116.749 72.144
2.26 117.518 71.828
2.27 115.831 71.388
2.28 112.812 70.994
2.29 111.580 70.580
2.30 110.404 70.342
2.31 110.654 70.483
2.32 111.889 70.779
2.33 113.668 71.004
2.34 114.966 71.210
2.35 115.946 71.361
2.36 116.930 71.353
2.37 117.407 70.938
2.38 116.376 69.758
2.39 114.718 68.335
2.40 119.192 68.198
2.41 119.992 68.838
2.42 118.785 69.157
2.43 118.177 69.173
2.44 117.205 69.127
2.45 115.037 69.000
2.46 114.124 68.809
2.47 112.885 68.603
2.48 111.400 68.341
2.49 109.488 68.054
2.50 107.025 67.749
2.51 105.433 67.738
2.52 109.600 68.505
2.53 103.632 69.261
2.54 100.680 69.304
2.55 97.436 68.885
2.56 94.298 68.279
2.57 91.225 67.426
2.58 88.919 65.860
2.59 83.372 63.178
2.60 83.403 60.636
2.61 85.450 60.661
2.62 88.355 62.516
2.63 89.707 64.371
2.64 89.760 65.482
2.65 90.704 66.102
2.66 91.229 66.547
2.67 91.453 66.840
2.68 91.867 67.014
2.69 92.400 66.981
2.70 93.434 66.388
2.71 93.810 64.882
2.72 94.121 62.537
2.73 93.239 60.084
2.74 100.025 57.868
2.75 110.064 54.815
2.76 --undefined-- 50.569
2.77 --undefined-- 56.954
2.78 --undefined-- 65.809
2.79 --undefined-- 70.672
2.80 127.709 72.252
2.81 124.541 71.835
2.82 120.625 71.317
2.83 118.653 71.449
2.84 116.772 71.687
2.85 116.021 71.794
2.86 115.856 71.690
2.87 116.820 71.428
2.88 118.825 71.221
2.89 120.082 71.208
2.90 121.506 71.389
2.91 123.124 71.731
2.92 124.305 72.222
2.93 125.864 72.750
2.94 127.609 73.030
2.95 129.335 73.028
2.96 132.272 72.967
2.97 135.611 72.888
2.98 136.195 72.675
2.99 135.892 72.510
3.00 136.922 72.617
3.01 137.953 72.848
3.02 138.684 73.061
3.03 138.711 73.107
3.04 138.375 72.712
3.05 135.517 71.511
3.06 132.030 69.469
3.07 123.259 66.829
3.08 116.704 63.595
3.09 111.774 61.477
3.10 115.087 63.174
3.11 116.046 66.130
3.12 119.499 68.591
3.13 118.003 70.110
3.14 115.680 70.556
3.15 112.500 70.179
3.16 107.912 69.529
3.17 104.790 69.175
3.18 103.266 69.323
3.19 103.498 69.810
3.20 103.773 70.253
3.21 104.131 70.552
3.22 104.663 70.823
3.23 105.066 70.976
3.24 105.605 70.754
3.25 104.674 69.621
3.26 101.483 66.919
3.27 99.323 62.464
3.28 106.458 57.364
3.29 108.828 52.493
3.30 --undefined-- 46.893
3.31 --undefined-- 43.026
3.32 --undefined-- 44.771
3.33 --undefined-- 47.440
3.34 --undefined-- 50.071
3.35 --undefined-- 52.790
3.36 --undefined-- 55.258
3.37 --undefined-- 60.508
3.38 --undefined-- 67.229
3.39 --undefined-- 70.831
3.40 125.874 71.291
3.41 118.985 69.863
3.42 112.112 67.996
3.43 105.795 66.225
3.44 103.017 64.853
3.45 102.594 64.082
3.46 102.800 64.313
3.47 102.971 65.553
3.48 105.911 66.818
3.49 106.877 67.820
3.50 107.517 68.678
3.51 106.886 69.140
3.52 105.725 69.017
3.53 104.984 68.920
3.54 107.670 69.273
3.55 107.941 69.649
3.56 108.095 69.982
3.57 108.731 70.309
3.58 109.215 70.564
3.59 110.580 70.850
3.60 112.071 71.172
3.61 111.969 71.379
3.62 111.434 71.463
3.63 110.266 71.561
3.64 107.361 71.717
3.65 104.743 71.823
3.66 103.586 71.665
3.67 99.252 70.993
3.68 94.670 69.847
3.69 93.503 68.533
3.70 91.923 67.532
3.71 91.538 67.045
3.72 92.406 66.920
3.73 91.381 66.955
3.74 94.177 67.303
3.75 97.468 67.819
3.76 98.771 68.150
3.77 100.721 68.414
3.78 103.096 68.902
3.79 104.589 69.493
3.80 107.010 70.134
3.81 109.483 70.929
3.82 113.746 71.898
3.83 121.059 72.756
3.84 121.263 73.049
3.85 123.225 72.849
3.86 123.676 72.477
3.87 122.882 72.035
3.88 121.298 71.599
3.89 119.794 71.051
3.90 115.849 70.257
3.91 108.310 69.322
3.92 105.085 67.922
3.93 98.498 65.493
3.94 100.868 61.399
3.95 94.480 55.188
3.96 --undefined-- 47.733
3.97 --undefined-- 44.286
3.98 --undefined-- 46.736
3.99 --undefined-- 48.330
4.00 --undefined-- 48.866
4.01 --undefined-- 48.894
4.02 --undefined-- 48.834
4.03 --undefined-- 49.202
4.04 --undefined-- 49.372
4.05 --undefined-- 49.415
4.06 --undefined-- 49.469
4.07 --undefined-- 48.881
4.08 --undefined-- 48.281
4.09 --undefined-- 48.588
4.10 --undefined-- 48.837
4.11 --undefined-- 48.204
4.12 --undefined-- 46.948
4.13 --undefined-- 45.408
4.14 --undefined-- 43.501
4.15 --undefined-- 41.591
4.16 --undefined-- 39.640
4.17 --undefined-- 37.951
4.18 --undefined-- 37.300
4.19 --undefined-- 38.020
4.20 --undefined-- 40.217
4.21 --undefined-- 41.162
4.22 --undefined-- 41.586
4.23 --undefined-- 42.780
4.24 --undefined-- 44.900
4.25 --undefined-- 52.808
4.26 --undefined-- 63.586
4.27 201.342 70.319
4.28 191.149 73.505
4.29 191.734 74.435
4.30 194.708 74.549
4.31 196.543 74.665
4.32 197.069 74.858
4.33 197.117 75.062
4.34 196.666 75.133
4.35 195.545 74.932
4.36 193.618 74.549
4.37 190.478 74.283
4.38 186.256 74.157
4.39 181.779 73.718
4.40 175.060 72.573
4.41 161.917 70.860
4.42 152.277 69.249
4.43 145.306 67.914
4.44 138.929 66.987
4.45 133.319 66.615
4.46 130.272 66.948
4.47 125.305 68.389
4.48 123.783 70.745
4.49 123.371 72.810
4.50 122.320 73.760
4.51 121.385 73.811
4.52 121.273 73.311
4.53 122.760 72.213
4.54 117.492 71.475
4.55 114.638 71.455
4.56 115.338 71.384
4.57 117.289 71.376
4.58 117.017 71.246
4.59 115.740 70.725
4.60 114.377 69.850
4.61 113.366 68.517
4.62 109.808 66.046
4.63 106.490 61.751
4.64 113.615 55.311
4.65 --undefined-- 49.653
4.66 --undefined-- 50.180
4.67 --undefined-- 54.393
4.68 --undefined-- 57.183
4.69 --undefined-- 57.378
4.70 --undefined-- 56.284
4.71 --undefined-- 57.204
4.72 --undefined-- 62.024
4.73 --undefined-- 68.861
4.74 177.713 72.758
4.75 166.311 73.615
4.76 163.151 72.741
4.77 161.316 71.716
4.78 160.079 71.101
4.79 158.818 70.371
4.80 157.441 69.277
4.81 158.589 68.990
4.82 161.995 70.059
4.83 164.114 71.383
4.84 164.874 72.380
4.85 163.808 73.023
4.86 161.082 73.421
4.87 156.315 73.717
4.88 149.682 73.789
4.89 142.023 73.580
4.90 132.851 73.193
4.91 127.608 72.536
4.92 115.622 71.379
4.93 109.460 70.038
4.94 103.489 69.346
4.95 100.383 69.163
4.96 97.110 69.068
4.97 97.019 68.950
4.98 95.219 68.717
4.99 96.627 68.371
5.00 96.974 67.999
5.01 97.381 67.614
5.02 97.341 67.367
5.03 96.654 67.290
5.04 96.732 66.862
5.05 94.479 65.189
5.06 90.926 61.750
5.07 87.390 --undefined--
5.08 --undefined-- --undefined--
5.09 --undefined-- --undefined--
5.10 --undefined-- --undefined--
