Time Pitch Intensity
0.01 --undefined-- --undefined--
0.02 144.177 --undefined--
0.03 155.850 --undefined--
0.04 168.005 --undefined--
0.05 181.563 70.808
0.06 191.563 70.978
0.07 194.218 71.013
0.08 192.276 70.068
0.09 188.635 67.686
0.10 191.587 63.098
0.11 194.881 56.607
0.12 194.429 52.712
0.13 197.184 54.058
0.14 --undefined-- 60.960
0.15 --undefined-- 67.179
0.16 --undefined-- 70.649
0.17 --undefined-- 72.017
0.18 --undefined-- 72.095
0.19 --undefined-- 71.097
0.20 195.535 69.041
0.21 196.013 66.291
0.22 206.373 63.739
0.23 215.714 62.875
0.24 223.681 63.202
0.25 233.629 63.809
0.26 245.597 64.687
0.27 261.875 65.835
0.28 276.958 67.069
0.29 292.070 68.500
0.30 152.025 69.804
0.31 158.325 70.369
0.32 163.798 70.272
0.33 167.731 69.682
0.34 166.238 68.056
0.35 159.564 64.661
0.36 167.376 60.291
0.37 167.852 57.793
0.38 --undefined-- 59.991
0.39 --undefined-- 64.510
0.40 --undefined-- 66.681
0.41 276.543 66.759
0.42 256.974 66.197
0.43 245.386 65.934
0.44 235.897 65.854
0.45 231.139 65.833
0.46 227.953 65.775
0.47 228.580 65.826
0.48 230.940 66.162
0.49 232.385 66.712
0.50 235.463 67.409
0.51 239.227 67.904
0.52 243.541 67.978
0.53 249.304 67.850
0.54 254.977 67.878
0.55 261.032 68.382
0.56 267.293 69.496
0.57 266.845 70.841
0.58 267.617 71.600
0.59 268.177 71.640
0.60 267.617 71.406
0.61 266.535 71.201
0.62 263.874 71.199
0.63 259.990 71.534
0.64 255.139 71.684
0.65 247.863 71.057
0.66 236.827 70.190
0.67 226.914 69.618
0.68 218.883 68.931
0.69 212.446 67.971
0.70 207.976 66.571
0.71 204.371 64.094
0.72 --undefined-- 59.945
0.73 --undefined-- 55.612
0.74 --undefined-- 52.713
0.75 --undefined-- 48.690
0.76 --undefined-- 48.364
0.77 --undefined-- 55.381
0.78 --undefined-- 61.216
0.79 188.248 64.868
0.80 178.753 66.519
0.81 169.460 66.780
0.82 165.970 66.640
0.83 169.791 66.512
0.84 179.640 66.613
0.85 185.943 67.686
0.86 193.177 68.470
0.87 201.473 67.635
0.88 222.484 65.702
0.89 231.277 64.327
0.90 235.167 63.326
0.91 231.783 62.267
0.92 230.201 61.874
0.93 230.597 62.027
0.94 230.715 62.212
0.95 229.086 62.168
0.96 224.832 61.794
0.97 220.726 61.083
0.98 216.297 60.057
0.99 212.056 59.294
1.00 209.393 60.079
1.01 204.615 62.578
1.02 198.295 65.896
1.03 192.260 68.556
1.04 186.215 69.328
1.05 176.074 68.484
1.06 162.147 67.526
1.07 151.784 67.067
1.08 152.131 66.569
1.09 155.701 66.029
1.10 --undefined-- 65.179
1.11 --undefined-- 63.752
1.12 --undefined-- 62.389
1.13 --undefined-- 61.521
1.14 --undefined-- 60.450
1.15 --undefined-- 59.156
1.16 --undefined-- 57.936
1.17 152.679 57.360
1.18 151.037 57.447
1.19 161.279 56.970
1.20 170.978 55.266
1.21 --undefined-- 52.996
1.22 --undefined-- 53.353
1.23 --undefined-- 56.118
1.24 --undefined-- 57.450
1.25 --undefined-- 57.482
1.26 192.345 58.040
1.27 192.963 58.870
1.28 191.353 60.802
1.29 192.118 63.121
1.30 171.520 64.299
1.31 --undefined-- 64.898
1.32 88.320 65.921
1.33 88.169 66.811
1.34 90.460 67.267
1.35 189.134 67.001
1.36 198.556 65.741
1.37 210.482 64.363
1.38 214.869 62.922
1.39 211.324 60.000
1.40 198.738 55.340
1.41 --undefined-- 51.095
1.42 --undefined-- 47.997
1.43 --undefined-- 44.864
1.44 --undefined-- 46.392
1.45 --undefined-- 50.773
1.46 --undefined-- 53.372
1.47 --undefined-- 57.156
1.48 203.094 62.264
1.49 182.915 65.349
1.50 175.773 66.332
1.51 166.569 65.910
1.52 163.282 64.942
1.53 158.869 64.018
1.54 159.065 63.185
1.55 160.103 62.416
1.56 165.232 61.924
1.57 169.589 61.624
1.58 174.042 61.668
1.59 180.610 62.268
1.60 184.555 63.172
1.61 189.688 63.684
1.62 198.189 63.467
1.63 205.978 62.957
1.64 212.303 63.044
1.65 216.382 63.519
1.66 218.083 63.079
1.67 217.653 60.806
1.68 209.196 56.467
1.69 --undefined-- 53.341
1.70 --undefined-- 57.525
1.71 220.062 62.955
1.72 214.251 66.296
1.73 207.160 68.090
1.74 201.035 68.959
1.75 196.142 69.296
1.76 192.366 69.587
1.77 190.215 69.924
1.78 187.686 69.906
1.79 184.514 69.174
1.80 181.921 67.719
1.81 181.228 66.210
1.82 183.756 65.393
1.83 185.840 64.733
1.84 187.046 63.272
1.85 185.653 60.207
1.86 185.838 55.556
1.87 --undefined-- 52.884
1.88 --undefined-- 52.395
1.89 --undefined-- 52.545
1.90 --undefined-- 53.072
1.91 --undefined-- 52.039
1.92 --undefined-- 49.433
1.93 --undefined-- 46.272
1.94 --undefined-- 45.722
1.95 --undefined-- 46.560
1.96 --undefined-- 47.204
1.97 --undefined-- 50.135
1.98 --undefined-- 56.782
1.99 241.360 62.036
2.00 242.309 64.903
2.01 242.900 66.113
2.02 242.251 66.450
2.03 241.211 66.871
2.04 238.759 67.681
2.05 240.882 68.131
2.06 242.348 67.936
2.07 241.825 67.504
2.08 241.384 67.147
2.09 241.430 66.896
2.10 241.807 66.733
2.11 241.582 66.648
2.12 240.933 66.653
2.13 240.230 66.597
2.14 238.873 66.327
2.15 236.793 65.525
2.16 232.610 63.444
2.17 223.987 59.375
2.18 --undefined-- 54.394
2.19 --undefined-- 52.178
2.20 --undefined-- 50.000
2.21 --undefined-- 48.906
2.22 --undefined-- 50.225
2.23 --undefined-- 54.440
2.24 191.149 61.031
2.25 187.556 65.756
2.26 183.313 68.264
2.27 180.489 68.758
2.28 178.802 67.690
2.29 177.315 65.755
2.30 175.487 63.184
2.31 166.041 59.795
2.32 152.484 56.549
2.33 --undefined-- 54.173
2.34 --undefined-- 51.903
2.35 --undefined-- 51.545
2.36 --undefined-- 53.361
2.37 --undefined-- 55.858
2.38 --undefined-- 59.967
2.39 187.340 63.764
2.40 180.852 65.537
2.41 174.710 65.468
2.42 171.635 63.699
2.43 169.914 60.056
2.44 --undefined-- 55.242
2.45 --undefined-- 52.511
2.46 --undefined-- 51.779
2.47 --undefined-- 50.791
2.48 --undefined-- 50.895
2.49 --undefined-- 52.946
2.50 --undefined-- 54.952
2.51 --undefined-- 56.377
2.52 --undefined-- 57.024
2.53 --undefined-- 56.367
2.54 --undefined-- 56.281
2.55 266.053 60.611
2.56 251.380 64.316
2.57 245.701 66.087
2.58 242.329 66.449
2.59 238.618 65.142
2.60 233.280 61.600
2.61 220.447 56.429
2.62 210.906 51.594
2.63 --undefined-- 48.773
2.64 --undefined-- 51.440
2.65 --undefined-- 54.316
2.66 --undefined-- 53.927
2.67 --undefined-- 51.860
2.68 --undefined-- 57.850
2.69 --undefined-- 63.645
2.70 --undefined-- 66.267
2.71 165.269 66.440
2.72 163.032 65.180
2.73 165.129 63.576
2.74 167.996 62.713
2.75 167.455 63.427
2.76 163.064 64.498
2.77 81.635 64.891
2.78 83.551 64.984
2.79 85.011 65.359
2.80 86.519 65.788
2.81 179.305 66.241
2.82 186.122 66.799
2.83 189.421 66.260
2.84 190.907 63.732
2.85 191.888 59.660
2.86 189.120 55.392
2.87 --undefined-- 51.327
2.88 --undefined-- 47.439
2.89 --undefined-- 47.226
2.90 --undefined-- 51.529
2.91 --undefined-- 58.705
2.92 228.030 64.897
2.93 221.778 68.613
2.94 216.116 70.327
2.95 210.434 71.132
2.96 206.583 71.548
2.97 202.835 71.500
2.98 200.692 71.454
2.99 199.130 71.686
3.00 197.249 72.403
3.01 194.180 73.760
3.02 191.249 74.501
3.03 190.565 73.747
3.04 190.924 72.076
3.05 190.499 70.819
3.06 188.653 70.052
3.07 182.303 69.072
3.08 178.626 67.395
3.09 79.880 65.298
3.10 79.805 62.850
3.11 --undefined-- 59.196
3.12 --undefined-- 54.996
3.13 --undefined-- 53.308
3.14 --undefined-- 53.175
3.15 --undefined-- 51.625
3.16 --undefined-- 47.529
3.17 --undefined-- 45.223
3.18 --undefined-- 48.275
3.19 --undefined-- 53.091
3.20 --undefined-- 55.896
3.21 --undefined-- 57.469
3.22 233.759 62.177
3.23 240.738 66.670
3.24 239.263 68.278
3.25 241.324 67.666
3.26 245.680 66.491
3.27 248.571 65.868
3.28 250.261 65.667
3.29 250.476 65.929
3.30 253.412 66.594
3.31 254.056 66.852
3.32 251.599 66.584
3.33 248.450 66.052
3.34 242.215 65.631
3.35 235.101 65.892
3.36 228.576 66.463
3.37 216.793 66.911
3.38 200.758 67.689
3.39 193.332 68.704
3.40 189.713 68.707
3.41 188.763 66.762
3.42 189.637 62.924
3.43 188.064 58.647
3.44 189.723 55.828
3.45 183.423 54.963
3.46 182.146 55.699
3.47 183.680 56.708
3.48 188.274 58.492
3.49 184.765 61.471
3.50 172.528 64.503
3.51 168.252 66.424
3.52 167.953 67.443
3.53 170.314 68.178
3.54 173.699 68.834
3.55 178.375 69.615
3.56 185.197 70.653
3.57 191.268 71.068
3.58 199.284 70.223
3.59 209.644 69.148
3.60 219.594 69.728
3.61 227.007 71.508
3.62 227.329 72.984
3.63 225.177 74.163
3.64 219.775 75.145
3.65 212.623 75.207
3.66 --undefined-- 73.576
3.67 --undefined-- 70.031
3.68 --undefined-- 65.346
3.69 --undefined-- 60.930
3.70 --undefined-- 57.398
3.71 --undefined-- 53.922
3.72 --undefined-- 49.821
3.73 --undefined-- 49.940
3.74 --undefined-- 54.428
3.75 --undefined-- 58.158
3.76 --undefined-- 61.330
3.77 211.408 64.228
3.78 215.497 67.632
3.79 222.842 70.678
3.80 230.035 72.187
3.81 235.107 72.409
3.82 241.462 72.023
3.83 248.979 71.161
3.84 255.170 70.054
3.85 257.388 69.093
3.86 258.698 67.719
3.87 258.611 65.542
3.88 256.412 62.893
3.89 251.043 60.036
3.90 247.589 56.605
3.91 --undefined-- 52.575
3.92 --undefined-- 50.660
3.93 --undefined-- 48.965
3.94 --undefined-- 46.337
3.95 --undefined-- 49.175
3.96 --undefined-- 55.774
3.97 --undefined-- 60.754
3.98 179.947 63.655
3.99 176.551 64.957
4.00 173.504 65.107
4.01 171.259 64.693
4.02 169.030 64.267
4.03 167.659 64.013
4.04 167.673 63.861
4.05 169.127 63.496
4.06 170.737 62.197
4.07 170.519 59.362
4.08 --undefined-- 55.195
4.09 --undefined-- 52.297
4.10 --undefined-- 53.849
4.11 --undefined-- 55.686
4.12 --undefined-- 55.493
4.13 --undefined-- 55.571
4.14 173.309 57.026
4.15 176.855 57.512
4.16 197.774 57.425
4.17 200.941 58.637
4.18 183.099 60.839
4.19 175.649 62.673
4.20 173.235 63.489
4.21 172.849 63.303
4.22 172.268 62.647
4.23 172.822 62.328
4.24 174.820 62.767
4.25 178.285 63.712
4.26 180.077 64.273
4.27 181.096 63.362
4.28 181.432 60.213
4.29 182.122 54.634
4.30 --undefined-- 48.801
4.31 --undefined-- 48.324
4.32 --undefined-- 48.750
4.33 --undefined-- 47.689
4.34 --undefined-- 47.743
4.35 --undefined-- 49.771
4.36 --undefined-- 51.874
4.37 --undefined-- 53.770
4.38 --undefined-- 54.373
4.39 --undefined-- 53.439
4.40 --undefined-- 52.349
4.41 --undefined-- 52.925
4.42 --undefined-- 56.209
4.43 190.633 59.970
4.44 178.863 62.497
4.45 168.651 63.435
4.46 158.723 63.453
4.47 156.390 63.453
4.48 153.232 63.267
4.49 151.733 62.658
4.50 149.577 61.168
4.51 141.741 57.999
4.52 --undefined-- 53.722
4.53 --undefined-- 52.129
4.54 --undefined-- 52.878
4.55 --undefined-- 57.037
4.56 --undefined-- 62.747
4.57 179.081 66.898
4.58 179.518 69.457
4.59 178.916 70.771
4.60 178.102 71.831
4.61 179.610 72.747
4.62 183.499 73.345
4.63 188.327 73.881
4.64 190.678 74.450
4.65 191.512 74.910
4.66 190.713 75.202
4.67 187.897 75.039
4.68 183.254 73.962
4.69 --undefined-- 72.295
4.70 --undefined-- 70.412
4.71 --undefined-- 67.353
4.72 --undefined-- 62.682
4.73 --undefined-- 57.222
4.74 --undefined-- 53.105
4.75 --undefined-- 52.309
4.76 --undefined-- 52.895
4.77 --undefined-- 52.594
4.78 --undefined-- 51.133
4.79 --undefined-- 48.678
4.80 --undefined-- 45.416
4.81 --undefined-- 47.605
4.82 --undefined-- 52.484
4.83 --undefined-- 55.279
4.84 --undefined-- 55.537
4.85 --undefined-- 53.723
4.86 --undefined-- 50.647
4.87 --undefined-- 47.503
4.88 --undefined-- 46.257
4.89 --undefined-- 48.249
4.90 --undefined-- 50.822
4.91 --undefined-- 50.944
4.92 --undefined-- 48.998
4.93 --undefined-- 48.410
4.94 --undefined-- 49.723
4.95 --undefined-- 50.066
4.96 --undefined-- 50.625
4.97 --undefined-- --undefined--
4.98 --undefined-- --undefined--
4.99 --undefined-- --undefined--
5.00 --undefined-- --undefined--
