Time Pitch Intensity
0.01 --undefined-- --undefined--
0.02 198.542 --undefined--
0.03 199.633 --undefined--
0.04 197.818 --undefined--
0.05 194.953 74.598
0.06 191.384 74.351
0.07 187.918 73.374
0.08 180.310 71.463
0.09 169.165 68.405
0.10 --undefined-- 64.101
0.11 87.559 58.941
0.12 --undefined-- 53.813
0.13 --undefined-- 50.890
0.14 --undefined-- 51.897
0.15 184.814 56.955
0.16 180.918 61.237
0.17 185.170 64.181
0.18 186.987 66.131
0.19 185.213 67.353
0.20 184.526 68.122
0.21 184.277 68.589
0.22 184.661 68.893
0.23 185.761 69.189
0.24 188.140 69.531
0.25 190.972 69.882
0.26 194.348 70.279
0.27 198.235 70.747
0.28 202.166 71.254
0.29 205.470 71.646
0.30 209.495 71.976
0.31 213.196 72.211
0.32 215.077 71.463
0.33 215.133 68.441
0.34 --undefined-- 62.192
0.35 --undefined-- 52.173
0.36 --undefined-- 44.673
0.37 --undefined-- 42.813
0.38 --undefined-- 45.047
0.39 --undefined-- 51.117
0.40 --undefined-- 54.993
0.41 --undefined-- 57.118
0.42 --undefined-- 58.135
0.43 --undefined-- 58.279
0.44 280.432 59.336
0.45 276.659 62.942
0.46 291.115 66.116
0.47 298.674 67.742
0.48 298.012 68.797
0.49 291.478 69.797
0.50 286.019 70.570
0.51 282.329 71.287
0.52 278.932 72.010
0.53 276.509 72.449
0.54 275.120 72.457
0.55 273.252 72.367
0.56 270.136 72.400
0.57 264.654 72.223
0.58 255.255 71.192
0.59 245.724 68.757
0.60 244.862 64.502
0.61 249.402 57.840
0.62 --undefined-- 49.170
0.63 --undefined-- 48.401
0.64 --undefined-- 52.902
0.65 --undefined-- 56.405
0.66 --undefined-- 58.779
0.67 --undefined-- 64.090
0.68 --undefined-- 69.392
0.69 184.734 71.982
0.70 175.419 72.774
0.71 167.926 72.759
0.72 162.903 72.168
0.73 159.716 71.500
0.74 158.792 71.298
0.75 158.091 71.509
0.76 157.687 71.912
0.77 161.457 72.622
0.78 167.793 73.450
0.79 173.182 74.157
0.80 178.927 74.828
0.81 184.944 75.581
0.82 190.945 76.306
0.83 197.115 76.893
0.84 204.227 77.394
0.85 210.707 77.853
0.86 215.879 78.178
0.87 219.809 78.165
0.88 222.224 77.527
0.89 222.749 75.665
0.90 223.734 71.760
0.91 229.842 64.971
0.92 --undefined-- 54.663
0.93 --undefined-- 45.839
0.94 --undefined-- 41.712
0.95 --undefined-- 45.216
0.96 --undefined-- 58.104
0.97 --undefined-- 67.108
0.98 196.566 72.114
0.99 187.060 74.246
1.00 176.565 74.794
1.01 171.219 74.954
1.02 168.219 75.126
1.03 166.411 75.036
1.04 165.201 74.410
1.05 164.172 73.206
1.06 163.941 71.759
1.07 164.509 70.515
1.08 165.705 69.643
1.09 165.591 69.061
1.10 165.475 68.291
1.11 164.351 66.418
1.12 158.517 62.510
1.13 --undefined-- 56.098
1.14 --undefined-- 48.347
1.15 --undefined-- 47.242
1.16 --undefined-- 50.168
1.17 --undefined-- 53.920
1.18 --undefined-- 56.367
1.19 --undefined-- 57.522
1.20 --undefined-- 58.825
1.21 --undefined-- 59.991
1.22 --undefined-- 60.045
1.23 --undefined-- 59.473
1.24 --undefined-- 60.303
1.25 --undefined-- 63.814
1.26 --undefined-- 66.208
1.27 --undefined-- 65.570
1.28 --undefined-- 62.738
1.29 --undefined-- 62.830
1.30 168.332 65.949
1.31 169.568 68.050
1.32 171.170 69.102
1.33 171.880 69.529
1.34 173.063 69.653
1.35 174.984 69.693
1.36 178.432 69.687
1.37 182.507 69.762
1.38 188.293 70.125
1.39 193.944 70.813
1.40 200.709 71.550
1.41 201.575 72.012
1.42 201.746 71.478
1.43 208.325 69.153
1.44 --undefined-- 64.879
1.45 --undefined-- 58.916
1.46 --undefined-- 51.612
1.47 --undefined-- 43.844
1.48 --undefined-- 39.420
1.49 --undefined-- 41.281
1.50 --undefined-- 47.247
1.51 --undefined-- 52.539
1.52 --undefined-- 58.804
1.53 203.756 64.394
1.54 210.691 67.491
1.55 213.066 68.988
1.56 210.142 70.047
1.57 204.055 70.906
1.58 197.820 71.373
1.59 193.951 71.260
1.60 192.136 70.633
1.61 191.542 69.804
1.62 193.978 69.000
1.63 196.956 68.391
1.64 198.310 67.987
1.65 196.989 67.646
1.66 193.346 66.748
1.67 191.416 64.434
1.68 194.527 60.342
1.69 200.019 54.324
1.70 --undefined-- 46.449
1.71 --undefined-- 42.402
1.72 --undefined-- 42.911
1.73 --undefined-- 45.648
1.74 --undefined-- 53.479
1.75 --undefined-- 62.334
1.76 256.243 67.987
1.77 248.800 71.012
1.78 247.097 72.440
1.79 245.877 73.047
1.80 244.068 73.241
1.81 242.573 73.235
1.82 241.780 73.001
1.83 241.397 72.467
1.84 242.264 71.725
1.85 245.926 71.091
1.86 250.161 70.829
1.87 252.217 70.789
1.88 251.393 70.723
1.89 249.041 70.193
1.90 245.217 68.384
1.91 233.979 64.585
1.92 239.164 58.805
1.93 --undefined-- 51.979
1.94 --undefined-- 47.961
1.95 --undefined-- 55.483
1.96 --undefined-- 64.042
1.97 --undefined-- 68.921
1.98 --undefined-- 70.694
1.99 182.766 70.339
2.00 174.366 68.815
2.01 170.940 66.522
2.02 165.384 63.102
2.03 148.971 57.753
2.04 --undefined-- 50.221
2.05 --undefined-- 44.214
2.06 --undefined-- 43.300
2.07 --undefined-- 42.956
2.08 --undefined-- 42.441
2.09 --undefined-- 43.850
2.10 --undefined-- 46.665
2.11 --undefined-- 49.994
2.12 --undefined-- 53.577
2.13 195.798 60.489
2.14 186.157 65.753
2.15 176.890 68.117
2.16 170.677 68.704
2.17 166.193 68.557
2.18 162.139 68.141
2.19 161.116 67.982
2.20 163.135 68.313
2.21 166.184 68.806
2.22 168.971 69.255
2.23 173.033 69.697
2.24 178.506 70.210
2.25 184.022 70.711
2.26 190.632 71.036
2.27 196.773 70.998
2.28 203.263 70.422
2.29 206.951 69.013
2.30 209.467 66.147
2.31 220.231 61.002
2.32 --undefined-- 52.845
2.33 --undefined-- 44.455
2.34 --undefined-- 49.914
2.35 --undefined-- 60.212
2.36 214.745 66.848
2.37 208.263 70.071
2.38 194.624 71.292
2.39 183.252 71.729
2.40 170.827 71.698
2.41 164.084 71.344
2.42 160.462 70.827
2.43 158.287 70.243
2.44 157.492 69.475
2.45 157.340 68.409
2.46 158.417 67.424
2.47 161.182 67.001
2.48 162.889 66.615
2.49 163.416 65.231
2.50 160.668 61.828
2.51 --undefined-- 55.597
2.52 --undefined-- 47.558
2.53 --undefined-- 43.673
2.54 --undefined-- 43.383
2.55 --undefined-- 50.667
2.56 --undefined-- 60.212
2.57 182.773 66.450
2.58 172.554 69.372
2.59 161.677 69.902
2.60 156.340 69.451
2.61 153.718 69.222
2.62 152.521 69.264
2.63 152.696 69.556
2.64 153.314 70.076
2.65 154.533 70.547
2.66 156.048 70.541
2.67 158.169 69.777
2.68 163.698 68.772
2.69 172.790 68.165
2.70 179.657 67.561
2.71 182.995 66.464
2.72 182.784 65.117
2.73 186.259 64.515
2.74 196.238 66.078
2.75 204.835 68.830
2.76 202.861 70.438
2.77 191.859 70.655
2.78 181.975 70.610
2.79 168.304 70.701
2.80 160.567 70.393
2.81 147.345 69.122
2.82 --undefined-- 66.273
2.83 --undefined-- 61.270
2.84 --undefined-- 54.274
2.85 --undefined-- 46.979
2.86 --undefined-- 43.233
2.87 --undefined-- 45.716
2.88 --undefined-- 51.148
2.89 191.972 56.205
2.90 179.374 59.697
2.91 176.893 61.856
2.92 178.990 63.340
2.93 185.686 64.488
2.94 189.591 65.567
2.95 192.849 66.928
2.96 200.495 68.566
2.97 205.975 70.099
2.98 206.532 71.346
2.99 205.864 72.451
3.00 205.541 73.079
3.01 203.028 72.305
3.02 197.588 69.915
3.03 201.292 68.700
3.04 198.539 69.812
3.05 196.663 70.489
3.06 194.675 70.584
3.07 193.715 70.645
3.08 193.059 70.940
3.09 191.979 71.299
3.10 191.149 71.350
3.11 190.835 71.097
3.12 191.386 70.824
3.13 192.315 70.760
3.14 193.514 70.854
3.15 195.177 70.975
3.16 196.165 71.110
3.17 196.038 71.234
3.18 193.667 71.138
3.19 195.231 70.253
3.20 197.455 67.957
3.21 190.453 64.269
3.22 188.668 60.651
3.23 190.950 59.601
3.24 192.589 61.255
3.25 197.814 64.984
3.26 211.660 68.770
3.27 215.432 71.336
3.28 211.331 72.445
3.29 206.725 72.560
3.30 203.036 72.420
3.31 200.517 72.387
3.32 198.786 72.459
3.33 197.158 72.612
3.34 196.365 72.737
3.35 196.214 72.759
3.36 196.004 72.689
3.37 195.516 72.558
3.38 194.966 72.173
3.39 193.621 71.229
3.40 189.063 69.467
3.41 182.174 66.579
3.42 171.590 62.442
3.43 --undefined-- 57.232
3.44 --undefined-- 50.329
3.45 --undefined-- 41.695
3.46 --undefined-- 39.154
3.47 --undefined-- 39.868
3.48 --undefined-- 40.170
3.49 --undefined-- 40.197
3.50 --undefined-- 41.172
3.51 --undefined-- 42.003
3.52 --undefined-- 41.729
3.53 --undefined-- 41.183
3.54 --undefined-- 41.213
3.55 --undefined-- 41.699
3.56 --undefined-- 41.897
3.57 --undefined-- 41.870
3.58 --undefined-- 41.857
3.59 --undefined-- 41.584
3.60 --undefined-- 41.248
3.61 --undefined-- 41.529
3.62 --undefined-- 41.456
3.63 --undefined-- 41.726
3.64 --undefined-- 43.103
3.65 --undefined-- 44.652
3.66 --undefined-- 45.692
3.67 --undefined-- 46.630
3.68 --undefined-- 47.841
3.69 --undefined-- 54.886
3.70 248.970 63.556
3.71 240.784 68.853
3.72 230.788 71.609
3.73 225.863 73.044
3.74 222.415 74.029
3.75 218.873 74.998
3.76 216.795 75.840
3.77 216.371 76.149
3.78 220.192 75.620
3.79 224.069 74.201
3.80 223.197 71.848
3.81 211.059 68.150
3.82 211.775 63.040
3.83 222.686 56.735
3.84 --undefined-- 49.513
3.85 --undefined-- 45.273
3.86 --undefined-- 47.181
3.87 --undefined-- 56.537
3.88 --undefined-- 65.300
3.89 230.326 70.443
3.90 222.688 72.405
3.91 217.488 72.459
3.92 216.028 72.257
3.93 214.762 72.452
3.94 213.821 72.758
3.95 212.594 72.996
3.96 211.033 73.317
3.97 209.831 73.784
3.98 208.730 74.296
3.99 208.151 74.861
4.00 207.943 75.473
4.01 208.167 76.059
4.02 208.534 76.536
4.03 209.324 76.748
4.04 211.309 76.539
4.05 213.918 75.870
4.06 214.971 74.848
4.07 215.471 73.682
4.08 215.980 72.514
4.09 214.975 71.328
4.10 212.743 69.875
4.11 203.196 67.723
4.12 185.445 64.658
4.13 --undefined-- 61.467
4.14 --undefined-- 58.498
4.15 --undefined-- 54.831
4.16 --undefined-- 50.660
4.17 --undefined-- 47.204
4.18 --undefined-- 50.004
4.19 205.797 54.187
4.20 201.055 57.989
4.21 207.273 61.689
4.22 219.057 64.858
4.23 226.082 67.524
4.24 231.429 69.542
4.25 234.025 70.809
4.26 236.011 71.528
4.27 239.552 72.157
4.28 244.374 72.774
4.29 247.336 73.065
4.30 248.820 72.851
4.31 249.110 71.951
4.32 244.272 70.588
4.33 249.185 70.409
4.34 257.295 71.431
4.35 254.907 72.076
4.36 253.918 72.090
4.37 253.101 71.711
4.38 251.142 71.431
4.39 247.945 71.379
4.40 245.738 71.242
4.41 244.557 71.076
4.42 245.017 71.123
4.43 245.809 71.301
4.44 246.183 71.409
4.45 246.562 71.435
4.46 247.227 71.422
4.47 248.226 71.398
4.48 249.157 71.370
4.49 248.534 71.197
4.50 246.337 70.403
4.51 243.272 68.665
4.52 237.637 66.134
4.53 234.534 63.497
4.54 229.192 62.138
4.55 236.596 63.217
4.56 249.123 66.114
4.57 259.943 68.988
4.58 262.361 71.147
4.59 258.734 72.211
4.60 253.342 72.329
4.61 250.542 72.075
4.62 249.138 71.740
4.63 246.018 71.010
4.64 243.061 69.256
4.65 239.231 65.825
4.66 231.167 60.038
4.67 --undefined-- 52.045
4.68 --undefined-- 45.808
4.69 --undefined-- 43.651
4.70 --undefined-- 42.108
4.71 --undefined-- 40.172
4.72 --undefined-- 37.952
4.73 --undefined-- 38.437
4.74 --undefined-- 47.005
4.75 --undefined-- 59.306
4.76 --undefined-- 66.993
4.77 184.743 70.921
4.78 179.381 72.344
4.79 171.851 72.576
4.80 168.092 72.251
4.81 164.900 71.293
4.82 163.060 69.983
4.83 161.957 68.905
4.84 161.857 68.379
4.85 162.724 68.179
4.86 164.413 68.103
4.87 165.964 67.953
4.88 166.419 66.791
4.89 163.632 63.316
4.90 --undefined-- 56.954
4.91 --undefined-- 48.148
4.92 --undefined-- 41.805
4.93 --undefined-- 40.914
4.94 --undefined-- 48.609
4.95 --undefined-- 58.945
4.96 --undefined-- 65.886
4.97 168.423 69.392
4.98 163.370 70.243
4.99 155.466 69.839
5.00 153.322 69.615
5.01 152.386 69.687
5.02 152.481 69.961
5.03 153.666 70.630
5.04 156.152 71.646
5.05 158.676 72.496
5.06 160.217 72.811
5.07 161.380 72.512
5.08 162.520 71.814
5.09 163.953 71.158
5.10 166.012 70.806
5.11 168.609 70.824
5.12 171.111 71.165
5.13 174.404 71.704
5.14 177.842 72.304
5.15 182.483 72.772
5.16 188.816 72.827
5.17 195.870 72.443
5.18 202.204 71.780
5.19 207.642 71.122
5.20 211.998 70.554
5.21 214.540 69.666
5.22 214.823 67.729
5.23 213.010 63.861
5.24 225.291 57.419
5.25 --undefined-- 48.987
5.26 --undefined-- 43.009
5.27 --undefined-- 40.949
5.28 --undefined-- 40.321
5.29 --undefined-- 38.973
5.30 --undefined-- 38.374
5.31 --undefined-- 39.427
5.32 --undefined-- 39.743
5.33 --undefined-- 38.971
5.34 --undefined-- 41.779
5.35 --undefined-- 50.670
5.36 --undefined-- 56.104
5.37 --undefined-- 57.591
5.38 --undefined-- 56.259
5.39 --undefined-- 55.610
5.40 --undefined-- 60.574
5.41 209.668 66.333
5.42 212.777 69.732
5.43 213.009 71.214
5.44 199.623 71.713
5.45 171.590 72.065
5.46 160.498 72.420
5.47 156.515 72.532
5.48 154.512 72.065
5.49 155.241 70.559
5.50 156.885 67.643
5.51 152.781 63.182
5.52 --undefined-- --undefined--
5.53 --undefined-- --undefined--
5.54 --undefined-- --undefined--
5.55 --undefined-- --undefined--
