Time Pitch Intensity
0.01 --undefined-- --undefined--
0.02 181.808 --undefined--
0.03 185.286 --undefined--
0.04 187.647 --undefined--
0.05 186.875 72.080
0.06 157.293 67.905
0.07 155.966 67.950
0.08 192.136 73.025
0.09 181.720 75.509
0.10 177.647 75.825
0.11 168.358 75.904
0.12 161.812 76.873
0.13 156.792 77.923
0.14 152.995 78.050
0.15 149.622 76.969
0.16 143.109 75.202
0.17 133.388 72.937
0.18 116.350 70.016
0.19 113.312 67.633
0.20 117.641 67.130
0.21 120.383 68.291
0.22 132.624 69.973
0.23 136.187 71.398
0.24 138.149 71.979
0.25 143.079 72.278
0.26 152.432 72.985
0.27 161.780 73.332
0.28 169.089 72.803
0.29 183.319 72.573
0.30 191.188 73.402
0.31 192.519 73.926
0.32 186.364 73.082
0.33 177.465 70.428
0.34 169.168 66.389
0.35 --undefined-- 66.128
0.36 --undefined-- 68.198
0.37 --undefined-- 69.979
0.38 168.183 71.993
0.39 166.731 72.879
0.40 165.007 72.912
0.41 164.815 72.930
0.42 164.920 73.757
0.43 161.059 75.257
0.44 155.936 76.249
0.45 152.096 76.276
0.46 148.549 75.466
0.47 144.848 74.307
0.48 145.342 73.547
0.49 144.964 72.923
0.50 151.006 71.862
0.51 151.348 70.509
0.52 158.996 69.113
0.53 160.728 68.097
0.54 173.072 69.187
0.55 181.314 71.969
0.56 182.631 73.985
0.57 179.807 74.821
0.58 176.953 75.470
0.59 175.470 75.839
0.60 173.575 75.408
0.61 169.855 73.991
0.62 164.139 70.942
0.63 149.567 65.573
0.64 --undefined-- 58.178
0.65 --undefined-- 51.626
0.66 --undefined-- 49.029
0.67 --undefined-- 47.568
0.68 --undefined-- 45.626
0.69 --undefined-- 43.692
0.70 --undefined-- 42.453
0.71 --undefined-- 42.370
0.72 --undefined-- 42.240
0.73 --undefined-- 43.621
0.74 --undefined-- 52.535
0.75 --undefined-- 60.446
0.76 --undefined-- 64.884
0.77 107.674 66.471
0.78 103.859 66.153
0.79 98.401 65.034
0.80 97.840 63.998
0.81 97.974 63.495
0.82 104.134 63.413
0.83 --undefined-- 62.645
0.84 --undefined-- 59.534
0.85 --undefined-- 53.171
0.86 --undefined-- 44.506
0.87 --undefined-- 38.226
0.88 --undefined-- 42.609
0.89 --undefined-- 54.812
0.90 --undefined-- 64.319
0.91 --undefined-- 70.395
0.92 165.107 73.560
0.93 162.850 74.353
0.94 162.353 73.617
0.95 162.906 72.228
0.96 160.108 70.475
0.97 152.097 67.596
0.98 135.414 62.531
0.99 --undefined-- 54.847
1.00 --undefined-- 47.120
1.01 --undefined-- 44.235
1.02 --undefined-- 42.799
1.03 --undefined-- 42.683
1.04 --undefined-- 43.821
1.05 --undefined-- 48.128
1.06 --undefined-- 58.565
1.07 --undefined-- 66.274
1.08 --undefined-- 70.723
1.09 135.130 72.790
1.10 131.834 73.419
1.11 128.790 73.166
1.12 127.573 72.333
1.13 129.426 71.413
1.14 132.529 70.671
1.15 129.789 69.837
1.16 123.884 69.263
1.17 128.535 69.584
1.18 126.062 69.970
1.19 123.939 70.065
1.20 124.433 69.976
1.21 125.234 69.632
1.22 126.099 69.123
1.23 125.426 68.609
1.24 125.810 68.104
1.25 124.988 67.215
1.26 125.518 65.294
1.27 90.971 62.465
1.28 96.253 59.510
1.29 99.395 55.957
1.30 --undefined-- 50.676
1.31 --undefined-- 45.165
1.32 --undefined-- 42.139
1.33 --undefined-- 40.600
1.34 --undefined-- 40.337
1.35 --undefined-- 39.585
1.36 --undefined-- 38.163
1.37 --undefined-- 38.692
1.38 --undefined-- 39.498
1.39 --undefined-- 37.838
1.40 --undefined-- 35.858
1.41 --undefined-- 37.202
1.42 --undefined-- 38.635
1.43 --undefined-- 38.266
1.44 --undefined-- 36.579
1.45 --undefined-- 35.297
1.46 --undefined-- 36.603
1.47 --undefined-- 37.743
1.48 --undefined-- 38.461
1.49 --undefined-- 38.602
1.50 --undefined-- 36.636
1.51 --undefined-- 36.125
1.52 --undefined-- 42.026
1.53 --undefined-- 52.301
1.54 --undefined-- 61.244
1.55 143.298 66.775
1.56 137.180 69.659
1.57 129.902 70.949
1.58 127.501 71.375
1.59 124.945 71.131
1.60 123.680 70.353
1.61 124.571 69.601
1.62 125.177 69.337
1.63 125.817 69.654
1.64 126.432 70.410
1.65 128.079 71.336
1.66 130.605 72.337
1.67 132.556 73.435
1.68 133.153 74.514
1.69 133.696 75.311
1.70 135.196 75.652
1.71 137.488 75.579
1.72 140.431 75.171
1.73 142.014 74.156
1.74 140.479 71.795
1.75 126.776 67.361
1.76 124.087 61.388
1.77 133.152 55.703
1.78 --undefined-- 51.163
1.79 --undefined-- 51.104
1.80 --undefined-- 59.676
1.81 --undefined-- 66.679
1.82 144.209 70.692
1.83 133.856 72.576
1.84 129.258 73.376
1.85 126.707 73.562
1.86 125.414 72.992
1.87 125.032 71.836
1.88 124.216 70.866
1.89 123.301 70.446
1.90 121.103 69.544
1.91 117.681 67.066
1.92 111.169 62.838
1.93 --undefined-- 57.501
1.94 --undefined-- 52.220
1.95 --undefined-- 48.449
1.96 --undefined-- 45.619
1.97 --undefined-- 43.507
1.98 --undefined-- 47.987
1.99 --undefined-- 59.573
2.00 --undefined-- 67.787
2.01 182.978 72.473
2.02 159.309 74.480
2.03 153.589 75.263
2.04 152.050 75.630
2.05 151.751 75.526
2.06 154.307 75.109
2.07 157.360 74.658
2.08 158.647 74.509
2.09 157.853 74.761
2.10 155.974 74.967
2.11 154.454 75.059
2.12 155.887 75.200
2.13 155.909 75.219
2.14 152.659 74.830
2.15 149.092 73.800
2.16 144.191 71.747
2.17 138.939 68.120
2.18 --undefined-- 62.707
2.19 --undefined-- 57.074
2.20 --undefined-- 57.179
2.21 --undefined-- 64.057
2.22 --undefined-- 69.752
2.23 142.523 73.240
2.24 140.469 74.779
2.25 137.737 74.813
2.26 136.679 73.888
2.27 136.263 71.847
2.28 --undefined-- 67.748
2.29 --undefined-- 61.013
2.30 --undefined-- 52.756
2.31 --undefined-- 46.079
2.32 --undefined-- 42.960
2.33 --undefined-- 41.170
2.34 --undefined-- 39.849
2.35 --undefined-- 44.680
2.36 --undefined-- 49.417
2.37 --undefined-- 51.746
2.38 --undefined-- 57.323
2.39 134.699 63.269
2.40 125.612 66.859
2.41 120.802 68.705
2.42 118.537 69.702
2.43 118.386 70.505
2.44 121.699 71.238
2.45 120.919 71.851
2.46 125.367 72.494
2.47 133.753 72.896
2.48 138.607 73.077
2.49 139.002 73.339
2.50 138.685 73.280
2.51 136.480 72.434
2.52 128.567 71.235
2.53 123.529 70.753
2.54 120.893 70.428
2.55 118.146 69.561
2.56 122.843 69.470
2.57 137.348 70.448
2.58 139.784 71.570
2.59 139.157 72.323
2.60 138.353 72.604
2.61 135.769 72.607
2.62 135.244 72.402
2.63 133.479 72.083
2.64 131.333 71.841
2.65 129.948 71.747
2.66 129.403 71.653
2.67 129.291 71.471
2.68 129.594 71.475
2.69 131.183 71.651
2.70 132.016 71.569
2.71 131.870 71.158
2.72 131.367 70.486
2.73 130.918 69.487
2.74 130.087 67.908
2.75 138.086 65.462
2.76 137.834 62.185
2.77 --undefined-- 57.704
2.78 --undefined-- 51.219
2.79 --undefined-- 44.621
2.80 --undefined-- 41.223
2.81 --undefined-- 38.784
2.82 --undefined-- 37.566
2.83 --undefined-- 35.908
2.84 --undefined-- 33.521
2.85 --undefined-- 32.260
2.86 --undefined-- 33.340
2.87 --undefined-- 33.998
2.88 --undefined-- 33.050
2.89 --undefined-- 32.646
2.90 --undefined-- 33.481
2.91 --undefined-- 35.815
2.92 --undefined-- 37.545
2.93 --undefined-- 37.455
2.94 --undefined-- 35.882
2.95 --undefined-- 34.751
2.96 --undefined-- 35.728
2.97 --undefined-- 36.195
2.98 --undefined-- 34.733
2.99 --undefined-- 33.282
3.00 --undefined-- 33.854
3.01 --undefined-- 34.773
3.02 --undefined-- 35.150
3.03 --undefined-- 34.797
3.04 --undefined-- 34.004
3.05 --undefined-- 33.077
3.06 --undefined-- 31.819
3.07 --undefined-- 31.602
3.08 --undefined-- 31.707
3.09 --undefined-- 31.398
3.10 --undefined-- 32.100
3.11 --undefined-- 32.906
3.12 --undefined-- 32.128
3.13 --undefined-- 31.006
3.14 --undefined-- 32.166
3.15 --undefined-- 33.822
3.16 --undefined-- 35.665
3.17 --undefined-- 37.178
3.18 --undefined-- 37.047
3.19 --undefined-- 35.672
3.20 --undefined-- 33.959
3.21 --undefined-- 34.016
3.22 --undefined-- 35.320
3.23 --undefined-- 36.533
3.24 --undefined-- 36.250
3.25 --undefined-- 34.453
3.26 --undefined-- 35.358
3.27 --undefined-- 37.652
3.28 --undefined-- 38.030
3.29 --undefined-- 36.147
3.30 --undefined-- 34.359
3.31 --undefined-- 36.686
3.32 --undefined-- 38.955
3.33 --undefined-- 38.957
3.34 --undefined-- 37.696
3.35 --undefined-- 37.332
3.36 --undefined-- 37.274
3.37 --undefined-- 36.953
3.38 --undefined-- 37.001
3.39 --undefined-- 38.019
3.40 --undefined-- 39.279
3.41 --undefined-- 39.411
3.42 --undefined-- 38.788
3.43 --undefined-- 39.063
3.44 --undefined-- 39.694
3.45 --undefined-- 39.849
3.46 --undefined-- 40.039
3.47 --undefined-- 40.025
3.48 --undefined-- 39.259
3.49 --undefined-- 38.725
3.50 --undefined-- 39.600
3.51 --undefined-- 42.570
3.52 --undefined-- 45.729
3.53 --undefined-- 45.768
3.54 --undefined-- 42.191
3.55 --undefined-- 37.995
3.56 --undefined-- 36.160
3.57 --undefined-- 41.130
3.58 --undefined-- 52.363
3.59 --undefined-- 60.004
3.60 --undefined-- 63.414
3.61 --undefined-- 63.964
3.62 149.413 66.802
3.63 149.143 70.714
3.64 149.728 72.811
3.65 150.945 73.675
3.66 148.950 74.333
3.67 146.428 75.127
3.68 141.661 75.511
3.69 146.481 75.376
3.70 146.586 75.499
3.71 146.861 76.327
3.72 147.718 77.434
3.73 149.832 77.811
3.74 142.288 77.103
3.75 140.106 76.477
3.76 139.121 76.147
3.77 135.720 75.511
3.78 133.340 75.293
3.79 130.326 75.272
3.80 128.604 74.265
3.81 127.595 71.842
3.82 124.675 68.823
3.83 121.106 66.702
3.84 120.336 66.614
3.85 126.301 68.702
3.86 130.529 71.659
3.87 131.970 74.052
3.88 131.413 75.150
3.89 130.318 75.080
3.90 129.127 74.409
3.91 128.075 73.758
3.92 127.740 73.561
3.93 126.984 73.752
3.94 126.240 74.034
3.95 125.572 74.193
3.96 125.640 74.146
3.97 126.301 74.037
3.98 126.347 73.848
3.99 127.141 73.599
4.00 127.143 73.228
4.01 126.269 72.327
4.02 125.586 70.300
4.03 122.382 66.931
4.04 119.365 62.880
4.05 146.642 58.801
4.06 143.304 55.046
4.07 --undefined-- 50.369
4.08 --undefined-- 44.543
4.09 --undefined-- 42.084
4.10 --undefined-- 42.265
4.11 --undefined-- 43.926
4.12 --undefined-- 44.275
4.13 --undefined-- 41.980
4.14 --undefined-- 39.265
4.15 --undefined-- 38.515
4.16 --undefined-- 37.759
4.17 --undefined-- 37.261
4.18 --undefined-- 37.912
4.19 --undefined-- 38.445
4.20 --undefined-- 37.333
4.21 --undefined-- 35.128
4.22 --undefined-- 33.099
4.23 --undefined-- 32.903
4.24 --undefined-- 35.823
4.25 --undefined-- 38.157
4.26 --undefined-- 37.854
4.27 --undefined-- 36.268
4.28 --undefined-- 35.716
4.29 --undefined-- 42.024
4.30 --undefined-- 55.424
4.31 225.933 64.737
4.32 209.149 70.159
4.33 209.491 73.087
4.34 213.869 74.420
4.35 220.155 74.878
4.36 220.831 75.008
4.37 220.240 74.889
4.38 218.456 73.930
4.39 213.221 71.258
4.40 188.072 66.427
4.41 187.940 60.406
4.42 218.157 59.505
4.43 223.323 64.809
4.44 231.826 71.288
4.45 222.699 76.219
4.46 184.378 78.904
4.47 177.756 79.657
4.48 171.419 79.438
4.49 167.969 78.716
4.50 163.777 76.963
4.51 151.575 74.237
4.52 147.145 70.536
4.53 146.062 64.726
4.54 --undefined-- 56.481
4.55 --undefined-- 49.642
4.56 --undefined-- 47.825
4.57 --undefined-- 49.331
4.58 --undefined-- 56.754
4.59 --undefined-- 65.127
4.60 --undefined-- 70.561
4.61 149.372 73.161
4.62 139.956 73.696
4.63 134.641 72.719
4.64 133.219 70.472
4.65 131.590 66.773
4.66 109.649 61.088
4.67 --undefined-- 53.736
4.68 --undefined-- 46.570
4.69 --undefined-- 46.706
4.70 --undefined-- 55.577
4.71 --undefined-- 63.470
4.72 164.976 68.464
4.73 150.961 71.368
4.74 144.713 72.910
4.75 141.115 73.330
4.76 139.368 73.180
4.77 138.010 73.120
4.78 137.139 73.074
4.79 136.976 73.125
4.80 136.235 72.975
4.81 134.606 71.435
4.82 133.857 67.706
4.83 --undefined-- 61.535
4.84 --undefined-- 53.581
4.85 --undefined-- 47.663
4.86 --undefined-- 46.875
4.87 --undefined-- 47.053
4.88 --undefined-- 48.673
4.89 --undefined-- 55.403
4.90 --undefined-- 63.436
4.91 --undefined-- 68.194
4.92 126.771 70.151
4.93 124.890 70.656
4.94 122.561 70.823
4.95 121.133 70.885
4.96 120.159 70.789
4.97 119.403 70.610
4.98 118.733 70.365
4.99 118.891 70.253
5.00 118.260 70.171
5.01 117.439 70.037
5.02 117.253 69.932
5.03 116.312 69.478
5.04 115.130 68.564
5.05 113.128 67.196
5.06 110.603 65.695
5.07 108.850 65.140
5.08 113.431 65.700
5.09 116.277 66.447
5.10 120.769 66.637
5.11 --undefined-- 65.935
5.12 --undefined-- 64.307
5.13 --undefined-- 61.063
5.14 --undefined-- 55.380
5.15 --undefined-- 49.996
5.16 --undefined-- 45.480
5.17 --undefined-- 40.883
5.18 --undefined-- 37.593
5.19 --undefined-- 36.734
5.20 --undefined-- 37.322
5.21 --undefined-- 37.437
5.22 --undefined-- 36.401
5.23 --undefined-- 35.973
5.24 --undefined-- 36.359
5.25 --undefined-- 36.509
5.26 --undefined-- 36.468
5.27 --undefined-- 36.856
5.28 --undefined-- 37.011
5.29 --undefined-- 36.433
5.30 --undefined-- 35.818
5.31 --undefined-- 34.615
5.32 --undefined-- 33.626
5.33 --undefined-- 35.473
5.34 --undefined-- 39.004
5.35 --undefined-- 41.020
5.36 --undefined-- 41.236
5.37 --undefined-- 43.912
5.38 --undefined-- 47.947
5.39 --undefined-- 51.793
5.40 --undefined-- 55.888
5.41 --undefined-- 59.168
5.42 --undefined-- 62.710
5.43 --undefined-- 68.241
5.44 147.274 72.173
5.45 138.951 73.825
5.46 137.013 74.229
5.47 133.913 74.465
5.48 130.698 74.598
5.49 135.110 74.695
5.50 141.544 75.043
5.51 146.667 75.526
5.52 153.082 76.307
5.53 157.107 77.187
5.54 159.237 77.701
5.55 159.285 77.809
5.56 159.604 77.085
5.57 156.816 74.539
5.58 151.021 69.351
5.59 --undefined-- 61.076
5.60 --undefined-- 49.987
5.61 --undefined-- 44.489
5.62 --undefined-- 49.976
5.63 --undefined-- 58.094
5.64 --undefined-- 65.907
5.65 --undefined-- 71.874
5.66 145.979 75.693
5.67 140.623 77.541
5.68 135.272 77.992
5.69 131.052 77.701
5.70 127.835 76.457
5.71 121.021 73.295
5.72 109.220 67.742
5.73 97.039 60.596
5.74 --undefined-- 53.553
5.75 --undefined-- 47.204
5.76 --undefined-- 42.682
5.77 --undefined-- 39.461
5.78 --undefined-- 37.203
5.79 --undefined-- 36.060
5.80 --undefined-- 41.189
5.81 --undefined-- 53.256
5.82 --undefined-- 61.851
5.83 --undefined-- 66.989
5.84 --undefined-- 69.224
5.85 109.784 69.288
5.86 107.497 68.702
5.87 108.140 68.814
5.88 110.802 69.521
5.89 115.221 70.947
5.90 117.528 72.448
5.91 118.419 73.006
5.92 121.401 72.651
5.93 128.365 72.184
5.94 136.058 71.948
5.95 140.178 71.780
5.96 144.775 71.612
5.97 151.109 71.520
5.98 154.475 71.617
5.99 153.306 72.185
6.00 149.194 73.188
6.01 145.269 73.967
6.02 139.953 74.087
6.03 134.268 73.576
6.04 129.762 72.710
6.05 126.576 71.938
6.06 125.144 71.449
6.07 122.919 71.166
6.08 120.354 71.108
6.09 118.429 71.076
6.10 117.551 70.812
6.11 117.011 70.169
6.12 116.538 68.668
6.13 114.543 65.464
6.14 106.215 60.221
6.15 105.988 54.671
6.16 --undefined-- 49.652
6.17 --undefined-- 47.530
6.18 --undefined-- 49.057
6.19 --undefined-- 50.363
6.20 --undefined-- 51.208
6.21 --undefined-- 55.278
6.22 135.042 61.335
6.23 127.939 65.425
6.24 119.725 67.637
6.25 116.405 68.695
6.26 115.010 69.146
6.27 114.774 69.292
6.28 117.278 69.399
6.29 121.945 69.702
6.30 126.792 70.405
6.31 131.199 71.275
6.32 138.816 71.829
6.33 145.899 71.751
6.34 147.356 70.990
6.35 147.077 69.922
6.36 145.901 69.219
6.37 141.407 69.196
6.38 139.266 69.671
6.39 134.806 70.337
6.40 131.496 --undefined--
6.41 127.226 --undefined--
6.42 --undefined-- --undefined--
6.43 --undefined-- --undefined--
