Time Pitch Intensity
0.01 --undefined-- --undefined--
0.02 138.457 --undefined--
0.03 140.702 --undefined--
0.04 141.004 --undefined--
0.05 140.326 72.966
0.06 137.346 71.991
0.07 133.162 69.771
0.08 122.697 65.862
0.09 113.000 60.815
0.10 --undefined-- 57.086
0.11 --undefined-- 62.539
0.12 --undefined-- 68.778
0.13 144.685 72.289
0.14 139.814 73.678
0.15 135.772 73.984
0.16 135.113 74.179
0.17 136.610 74.813
0.18 138.648 75.250
0.19 136.763 74.328
0.20 133.460 71.968
0.21 137.539 71.023
0.22 142.767 72.711
0.23 143.666 74.794
0.24 144.850 76.105
0.25 145.645 76.133
0.26 145.247 74.678
0.27 144.411 72.555
0.28 143.311 71.066
0.29 140.540 69.727
0.30 136.621 67.706
0.31 136.339 64.753
0.32 138.818 60.745
0.33 142.699 55.633
0.34 --undefined-- 49.352
0.35 --undefined-- 43.013
0.36 --undefined-- 39.924
0.37 --undefined-- 39.253
0.38 --undefined-- 38.493
0.39 --undefined-- 38.154
0.40 --undefined-- 37.544
0.41 --undefined-- 36.123
0.42 --undefined-- 35.787
0.43 --undefined-- 38.080
0.44 --undefined-- 40.667
0.45 --undefined-- 40.586
0.46 --undefined-- 38.011
0.47 --undefined-- 35.793
0.48 --undefined-- 36.821
0.49 --undefined-- 37.973
0.50 --undefined-- 37.119
0.51 --undefined-- 34.836
0.52 --undefined-- 34.194
0.53 --undefined-- 35.804
0.54 --undefined-- 37.832
0.55 --undefined-- 38.332
0.56 --undefined-- 37.562
0.57 --undefined-- 37.240
0.58 --undefined-- 35.962
0.59 --undefined-- 34.687
0.60 --undefined-- 35.775
0.61 --undefined-- 36.697
0.62 --undefined-- 37.230
0.63 --undefined-- 37.519
0.64 --undefined-- 37.595
0.65 --undefined-- 37.977
0.66 --undefined-- 37.025
0.67 --undefined-- 34.230
0.68 --undefined-- 32.121
0.69 --undefined-- 34.367
0.70 --undefined-- 36.952
0.71 --undefined-- 38.403
0.72 --undefined-- 39.060
0.73 --undefined-- 38.667
0.74 --undefined-- 37.906
0.75 --undefined-- 37.206
0.76 --undefined-- 37.531
0.77 --undefined-- 39.225
0.78 --undefined-- 40.616
0.79 --undefined-- 41.583
0.80 --undefined-- 42.508
0.81 --undefined-- 42.719
0.82 --undefined-- 42.682
0.83 --undefined-- 42.511
0.84 --undefined-- 41.845
0.85 --undefined-- 41.573
0.86 --undefined-- 41.742
0.87 --undefined-- 41.631
0.88 --undefined-- 40.750
0.89 --undefined-- 40.645
0.90 --undefined-- 42.568
0.91 --undefined-- 48.892
0.92 --undefined-- 57.016
0.93 --undefined-- 62.746
0.94 137.806 67.345
0.95 138.342 70.525
0.96 129.680 71.947
0.97 130.006 72.030
0.98 126.182 70.839
0.99 --undefined-- 67.628
1.00 --undefined-- 61.498
1.01 --undefined-- 52.536
1.02 --undefined-- 48.280
1.03 --undefined-- 52.576
1.04 --undefined-- 55.073
1.05 --undefined-- 55.335
1.06 --undefined-- 60.651
1.07 160.347 68.246
1.08 158.882 73.101
1.09 151.638 75.696
1.10 145.391 76.745
1.11 140.256 76.806
1.12 139.932 76.629
1.13 140.708 76.293
1.14 135.979 75.207
1.15 135.086 72.916
1.16 113.267 68.975
1.17 --undefined-- 63.042
1.18 --undefined-- 55.174
1.19 --undefined-- 48.029
1.20 --undefined-- 46.128
1.21 --undefined-- 47.756
1.22 --undefined-- 57.232
1.23 --undefined-- 66.525
1.24 --undefined-- 72.309
1.25 160.294 75.442
1.26 153.414 76.925
1.27 147.749 77.364
1.28 145.193 77.328
1.29 144.297 77.184
1.30 143.437 76.610
1.31 142.992 74.847
1.32 142.450 71.324
1.33 122.898 66.083
1.34 114.860 59.820
1.35 --undefined-- 54.113
1.36 --undefined-- 48.437
1.37 --undefined-- 43.153
1.38 --undefined-- 40.587
1.39 --undefined-- 40.812
1.40 --undefined-- 41.383
1.41 --undefined-- 40.349
1.42 --undefined-- 37.467
1.43 --undefined-- 34.751
1.44 --undefined-- 36.417
1.45 --undefined-- 38.660
1.46 --undefined-- 46.130
1.47 --undefined-- 56.178
1.48 --undefined-- 63.042
1.49 155.316 67.814
1.50 152.069 71.537
1.51 149.944 74.269
1.52 142.867 75.931
1.53 141.782 76.584
1.54 139.069 76.480
1.55 136.835 76.155
1.56 136.280 76.035
1.57 137.148 76.049
1.58 137.762 75.958
1.59 136.878 75.330
1.60 135.393 73.328
1.61 --undefined-- 68.956
1.62 --undefined-- 61.498
1.63 --undefined-- 53.279
1.64 --undefined-- 55.254
1.65 --undefined-- 58.650
1.66 --undefined-- 58.936
1.67 --undefined-- 56.333
1.68 --undefined-- 52.643
1.69 --undefined-- 48.802
1.70 --undefined-- 45.700
1.71 --undefined-- 46.735
1.72 --undefined-- 57.254
1.73 --undefined-- 66.713
1.74 --undefined-- 72.598
1.75 154.891 75.697
1.76 150.080 76.647
1.77 146.287 76.186
1.78 145.345 74.888
1.79 --undefined-- 72.864
1.80 --undefined-- 70.008
1.81 --undefined-- 67.150
1.82 --undefined-- 66.226
1.83 --undefined-- 67.144
1.84 --undefined-- 69.150
1.85 146.378 71.508
1.86 145.033 73.636
1.87 140.126 75.144
1.88 141.809 76.091
1.89 139.773 76.451
1.90 138.148 76.697
1.91 136.579 76.957
1.92 131.972 76.340
1.93 127.721 74.588
1.94 124.952 72.203
1.95 115.423 69.276
1.96 108.429 65.521
1.97 92.064 61.401
1.98 85.421 58.778
1.99 92.467 61.404
2.00 122.417 65.597
2.01 121.163 68.343
2.02 117.823 69.750
2.03 114.803 70.554
2.04 113.758 71.018
2.05 114.590 70.995
2.06 116.827 70.569
2.07 121.152 70.347
2.08 126.154 70.876
2.09 130.533 71.761
2.10 134.412 72.370
2.11 137.751 72.360
2.12 141.282 71.273
2.13 140.648 68.265
2.14 --undefined-- 62.857
2.15 --undefined-- 60.591
2.16 --undefined-- 66.827
2.17 --undefined-- 71.292
2.18 147.125 73.845
2.19 144.003 75.617
2.20 142.537 76.752
2.21 143.090 77.285
2.22 144.710 77.759
2.23 145.690 78.323
2.24 145.791 78.626
2.25 144.913 78.395
2.26 143.162 77.531
2.27 140.582 76.060
2.28 137.488 73.984
2.29 134.908 70.953
2.30 120.654 66.455
2.31 120.083 61.434
2.32 112.372 57.697
2.33 --undefined-- 55.767
2.34 --undefined-- 60.992
2.35 --undefined-- 67.431
2.36 --undefined-- 71.310
2.37 133.761 72.863
2.38 126.709 72.996
2.39 123.064 72.768
2.40 121.337 72.620
2.41 119.478 72.596
2.42 117.598 72.698
2.43 115.924 72.576
2.44 114.670 71.998
2.45 114.731 71.066
2.46 115.530 69.775
2.47 115.495 67.821
2.48 116.188 65.312
2.49 --undefined-- 61.582
2.50 --undefined-- 55.439
2.51 --undefined-- 48.143
2.52 --undefined-- 42.350
2.53 --undefined-- 40.757
2.54 --undefined-- 40.327
2.55 --undefined-- 39.092
2.56 --undefined-- 38.502
2.57 --undefined-- 38.103
2.58 --undefined-- 36.296
2.59 --undefined-- 33.953
2.60 --undefined-- 32.724
2.61 --undefined-- 33.438
2.62 --undefined-- 36.536
2.63 --undefined-- 39.910
2.64 --undefined-- 40.950
2.65 --undefined-- 40.156
2.66 --undefined-- 39.661
2.67 --undefined-- 40.763
2.68 --undefined-- 42.417
2.69 --undefined-- 43.123
2.70 --undefined-- 43.347
2.71 --undefined-- 43.765
2.72 --undefined-- 43.855
2.73 --undefined-- 43.558
2.74 --undefined-- 43.878
2.75 --undefined-- 44.173
2.76 --undefined-- 43.081
2.77 --undefined-- 41.083
2.78 --undefined-- 40.529
2.79 --undefined-- 40.933
2.80 --undefined-- 39.988
2.81 --undefined-- 39.645
2.82 --undefined-- 41.336
2.83 --undefined-- 41.695
2.84 --undefined-- 41.592
2.85 --undefined-- 42.057
2.86 --undefined-- 42.746
2.87 --undefined-- 43.599
2.88 --undefined-- 44.621
2.89 --undefined-- 45.532
2.90 --undefined-- 45.361
2.91 --undefined-- 44.629
2.92 --undefined-- 45.168
2.93 --undefined-- 50.808
2.94 --undefined-- 61.755
2.95 151.379 69.221
2.96 134.709 73.168
2.97 129.953 74.581
2.98 126.156 74.579
2.99 123.906 74.375
3.00 123.270 74.550
3.01 123.676 74.737
3.02 123.021 74.796
3.03 122.812 74.744
3.04 123.150 74.414
3.05 123.849 73.926
3.06 125.061 73.549
3.07 126.281 73.328
3.08 127.556 73.168
3.09 128.338 72.942
3.10 128.061 72.849
3.11 129.843 73.090
3.12 131.158 73.166
3.13 131.389 72.844
3.14 131.213 72.089
3.15 129.163 70.524
3.16 124.709 67.614
3.17 116.962 63.139
3.18 113.972 57.891
3.19 --undefined-- 55.579
3.20 --undefined-- 61.079
3.21 167.039 67.204
3.22 161.283 71.267
3.23 157.835 73.636
3.24 156.313 74.951
3.25 154.308 75.637
3.26 154.095 75.840
3.27 154.820 75.672
3.28 156.669 75.332
3.29 158.669 75.048
3.30 158.236 74.805
3.31 157.637 74.260
3.32 157.202 73.452
3.33 157.978 72.993
3.34 157.038 72.881
3.35 155.908 72.577
3.36 153.434 71.739
3.37 147.603 70.042
3.38 138.792 67.037
3.39 131.780 62.511
3.40 146.388 58.524
3.41 --undefined-- 62.357
3.42 --undefined-- 68.928
3.43 167.842 73.442
3.44 159.299 76.058
3.45 155.510 77.338
3.46 150.901 78.136
3.47 148.935 78.522
3.48 146.976 77.941
3.49 145.712 76.800
3.50 145.507 75.684
3.51 145.734 74.739
3.52 143.582 73.987
3.53 143.639 73.076
3.54 142.110 72.418
3.55 138.491 72.509
3.56 135.765 72.699
3.57 127.661 72.643
3.58 125.152 72.794
3.59 119.491 73.338
3.60 119.495 74.037
3.61 120.207 74.513
3.62 122.042 74.601
3.63 127.981 74.511
3.64 129.736 74.152
3.65 130.783 72.646
3.66 128.319 69.262
3.67 120.181 63.975
3.68 120.412 58.084
3.69 --undefined-- 52.497
3.70 --undefined-- 46.867
3.71 --undefined-- 43.701
3.72 --undefined-- 41.876
3.73 --undefined-- 39.926
3.74 --undefined-- 40.222
3.75 --undefined-- 41.546
3.76 --undefined-- 49.574
3.77 --undefined-- 61.208
3.78 --undefined-- 69.854
3.79 --undefined-- 75.138
3.80 174.509 77.999
3.81 168.338 79.422
3.82 163.133 79.903
3.83 160.706 79.734
3.84 160.281 79.413
3.85 160.387 79.225
3.86 159.973 79.110
3.87 159.628 78.996
3.88 159.979 78.858
3.89 160.904 78.741
3.90 161.359 78.632
3.91 161.316 78.308
3.92 159.591 77.566
3.93 157.237 76.464
3.94 158.432 75.335
3.95 157.832 74.920
3.96 160.439 76.028
3.97 157.749 77.720
3.98 157.407 78.612
3.99 157.082 78.731
4.00 157.045 78.264
4.01 157.835 77.393
4.02 158.996 76.802
4.03 161.319 76.882
4.04 163.835 76.696
4.05 163.770 75.777
4.06 164.005 74.815
4.07 164.885 74.313
4.08 165.384 73.980
4.09 165.165 73.543
4.10 164.448 72.925
4.11 162.406 72.090
4.12 159.650 70.863
4.13 155.652 69.129
4.14 155.853 66.376
4.15 --undefined-- 61.710
4.16 --undefined-- 55.110
4.17 --undefined-- 48.922
4.18 --undefined-- 43.116
4.19 --undefined-- 39.726
4.20 --undefined-- 39.859
4.21 --undefined-- 39.463
4.22 --undefined-- 38.068
4.23 --undefined-- 38.554
4.24 --undefined-- 40.704
4.25 --undefined-- 42.028
4.26 --undefined-- 41.506
4.27 --undefined-- 39.398
4.28 --undefined-- 36.854
4.29 --undefined-- 35.245
4.30 --undefined-- 35.066
4.31 --undefined-- 35.630
4.32 --undefined-- 36.656
4.33 --undefined-- 37.616
4.34 --undefined-- 38.191
4.35 --undefined-- 39.164
4.36 --undefined-- 40.199
4.37 --undefined-- 40.528
4.38 --undefined-- 40.939
4.39 --undefined-- 40.982
4.40 --undefined-- 40.332
4.41 --undefined-- 40.455
4.42 --undefined-- 40.547
4.43 --undefined-- 40.167
4.44 --undefined-- 39.222
4.45 --undefined-- 37.695
4.46 --undefined-- 36.809
4.47 --undefined-- 36.796
4.48 --undefined-- 37.358
4.49 --undefined-- 37.954
4.50 --undefined-- 38.406
4.51 --undefined-- 39.004
4.52 --undefined-- 40.133
4.53 --undefined-- 40.975
4.54 --undefined-- 40.653
4.55 --undefined-- 39.703
4.56 --undefined-- 39.870
4.57 --undefined-- 40.355
4.58 --undefined-- 39.507
4.59 --undefined-- 41.047
4.60 --undefined-- 53.360
4.61 --undefined-- 62.200
4.62 --undefined-- 68.204
4.63 175.219 72.702
4.64 160.153 75.690
4.65 152.752 77.231
4.66 147.490 77.896
4.67 144.596 77.827
4.68 141.692 77.224
4.69 140.159 76.444
4.70 140.932 75.800
4.71 141.415 75.874
4.72 145.357 76.614
4.73 146.430 77.348
4.74 147.779 77.759
4.75 149.113 78.155
4.76 149.907 78.437
4.77 149.502 78.259
4.78 148.710 77.758
4.79 149.755 77.293
4.80 150.520 76.937
4.81 150.076 76.240
4.82 149.879 75.176
4.83 150.063 73.928
4.84 149.602 71.994
4.85 143.892 68.396
4.86 138.296 62.637
4.87 --undefined-- 55.278
4.88 --undefined-- 51.007
4.89 --undefined-- 52.468
4.90 --undefined-- 54.620
4.91 --undefined-- 57.229
4.92 --undefined-- 64.281
4.93 --undefined-- 70.870
4.94 164.866 74.508
4.95 156.170 76.133
4.96 152.136 76.946
4.97 150.777 77.693
4.98 150.626 78.174
4.99 151.023 78.141
5.00 151.326 77.626
5.01 151.114 76.573
5.02 147.675 75.022
5.03 151.409 73.889
5.04 153.578 73.539
5.05 154.467 73.291
5.06 154.590 72.963
5.07 154.331 72.565
5.08 153.472 71.937
5.09 150.702 70.875
5.10 144.674 69.145
5.11 --undefined-- 66.495
5.12 --undefined-- 62.918
5.13 --undefined-- 59.574
5.14 --undefined-- 56.487
5.15 --undefined-- 53.519
5.16 --undefined-- 49.834
5.17 --undefined-- 44.403
5.18 --undefined-- 40.583
5.19 --undefined-- 38.232
5.20 --undefined-- 36.602
5.21 --undefined-- 36.100
5.22 --undefined-- 35.931
5.23 --undefined-- 35.837
5.24 --undefined-- 37.373
5.25 --undefined-- 38.801
5.26 --undefined-- 38.084
5.27 --undefined-- 37.458
5.28 --undefined-- 37.703
5.29 --undefined-- 36.992
5.30 --undefined-- 35.456
5.31 --undefined-- 34.777
5.32 --undefined-- 36.224
5.33 --undefined-- 36.850
5.34 --undefined-- 36.429
5.35 --undefined-- 36.677
5.36 --undefined-- 37.005
5.37 --undefined-- 36.052
5.38 --undefined-- 35.203
5.39 --undefined-- 37.487
5.40 --undefined-- 39.031
5.41 --undefined-- 37.778
5.42 --undefined-- 35.566
5.43 --undefined-- 35.594
5.44 --undefined-- 36.838
5.45 --undefined-- 37.317
5.46 --undefined-- 37.257
5.47 --undefined-- 37.490
5.48 --undefined-- 37.230
5.49 --undefined-- 37.047
5.50 --undefined-- 40.934
5.51 --undefined-- 50.220
5.52 --undefined-- 56.493
5.53 --undefined-- 59.903
5.54 --undefined-- 64.785
5.55 141.361 70.393
5.56 141.268 74.601
5.57 141.028 77.177
5.58 139.465 78.541
5.59 136.983 79.074
5.60 135.031 79.197
5.61 133.751 79.286
5.62 132.814 79.573
5.63 131.892 80.044
5.64 131.343 80.539
5.65 131.444 80.774
5.66 130.259 80.481
5.67 128.869 79.750
5.68 128.035 79.077
5.69 126.905 78.746
5.70 126.028 78.407
5.71 125.864 77.727
5.72 125.918 76.709
5.73 122.162 75.585
5.74 118.960 75.119
5.75 124.757 75.458
5.76 128.073 75.432
5.77 131.319 74.833
5.78 132.105 74.100
5.79 131.162 73.475
5.80 129.376 72.673
5.81 126.368 71.081
5.82 132.235 68.294
5.83 79.753 64.557
5.84 --undefined-- 59.972
5.85 --undefined-- 53.117
5.86 --undefined-- 46.254
5.87 --undefined-- 43.324
5.88 --undefined-- 41.050
5.89 --undefined-- 39.311
5.90 --undefined-- 37.813
5.91 --undefined-- 36.550
5.92 --undefined-- 36.315
5.93 --undefined-- 36.863
5.94 --undefined-- 37.837
5.95 --undefined-- 38.424
5.96 --undefined-- 37.969
5.97 --undefined-- 37.379
5.98 --undefined-- 37.958
5.99 --undefined-- 37.919
6.00 --undefined-- 36.014
6.01 --undefined-- 35.567
6.02 --undefined-- 36.494
6.03 --undefined-- 35.755
6.04 --undefined-- 35.111
6.05 --undefined-- 36.924
6.06 --undefined-- 38.509
6.07 --undefined-- 38.488
6.08 --undefined-- 38.004
6.09 --undefined-- 38.188
6.10 --undefined-- 38.043
6.11 --undefined-- 37.682
6.12 --undefined-- 38.661
6.13 --undefined-- 40.488
6.14 --undefined-- 41.233
6.15 --undefined-- 40.993
6.16 --undefined-- 40.294
6.17 --undefined-- 38.202
6.18 --undefined-- 36.728
6.19 --undefined-- 39.250
6.20 --undefined-- 43.488
6.21 --undefined-- 52.851
6.22 --undefined-- 62.693
6.23 --undefined-- 68.807
6.24 --undefined-- 71.558
6.25 --undefined-- 71.587
6.26 100.479 69.758
6.27 105.955 67.728
6.28 105.632 66.996
6.29 101.409 66.941
6.30 99.954 67.003
6.31 101.165 67.103
6.32 103.045 67.385
6.33 104.163 67.950
6.34 105.360 68.761
6.35 107.650 69.619
6.36 109.503 70.561
6.37 112.844 71.763
6.38 115.789 73.067
6.39 120.446 74.155
6.40 123.940 74.750
6.41 128.575 75.163
6.42 132.374 75.692
6.43 134.762 76.071
6.44 139.385 76.219
6.45 148.357 76.520
6.46 153.112 76.310
6.47 162.075 75.324
6.48 167.613 74.441
6.49 172.622 73.716
6.50 178.573 73.006
6.51 177.445 72.374
6.52 173.159 71.541
6.53 167.216 70.130
6.54 165.191 67.684
6.55 162.456 63.917
6.56 --undefined-- 59.094
6.57 --undefined-- 54.029
6.58 --undefined-- 49.079
6.59 --undefined-- 46.418
6.60 --undefined-- 46.672
6.61 --undefined-- 44.587
6.62 --undefined-- 39.320
6.63 --undefined-- 35.691
6.64 --undefined-- 36.744
6.65 --undefined-- 38.661
6.66 --undefined-- 39.672
6.67 --undefined-- 39.351
6.68 --undefined-- 39.234
6.69 --undefined-- 39.810
6.70 --undefined-- 39.838
6.71 --undefined-- 38.698
6.72 --undefined-- 37.172
6.73 --undefined-- 36.733
6.74 --undefined-- 37.437
6.75 --undefined-- 39.157
6.76 --undefined-- 39.677
6.77 --undefined-- 38.621
6.78 --undefined-- 37.865
6.79 --undefined-- 37.231
6.80 --undefined-- 36.297
6.81 --undefined-- 37.407
6.82 --undefined-- 38.737
6.83 --undefined-- 39.310
6.84 --undefined-- 39.205
6.85 --undefined-- 38.836
6.86 --undefined-- 39.902
6.87 --undefined-- 40.920
6.88 --undefined-- 42.393
6.89 --undefined-- 44.893
6.90 --undefined-- 47.793
6.91 --undefined-- 53.661
6.92 180.686 61.950
6.93 181.459 68.037
6.94 170.517 71.363
6.95 164.518 73.104
6.96 161.906 74.168
6.97 161.478 74.537
6.98 161.981 74.087
6.99 160.974 73.717
7.00 159.733 74.103
7.01 159.207 74.772
7.02 159.884 75.141
7.03 161.114 74.817
7.04 164.329 73.476
7.05 166.131 71.037
7.06 154.467 67.958
7.07 145.766 64.658
7.08 137.068 60.505
7.09 --undefined-- 55.571
7.10 --undefined-- 54.089
7.11 --undefined-- 56.323
7.12 --undefined-- 58.021
7.13 --undefined-- 58.909
7.14 --undefined-- 60.621
7.15 --undefined-- 63.089
7.16 102.604 64.499
7.17 102.936 65.278
7.18 107.223 67.131
7.19 124.395 69.421
7.20 125.375 71.038
7.21 120.266 71.810
7.22 117.657 71.764
7.23 115.484 71.119
7.24 110.779 70.146
7.25 107.598 69.096
7.26 107.211 68.495
7.27 105.139 68.557
7.28 105.161 68.922
7.29 105.725 69.290
7.30 106.210 69.635
7.31 105.613 70.039
7.32 105.817 70.024
7.33 107.895 --undefined--
7.34 108.589 --undefined--
7.35 --undefined-- --undefined--
7.36 --undefined-- --undefined--
