Time Pitch Intensity
0.01 --undefined-- --undefined--
0.02 --undefined-- --undefined--
0.03 --undefined-- --undefined--
0.04 --undefined-- --undefined--
0.05 --undefined-- 47.357
0.06 --undefined-- 47.869
0.07 --undefined-- 47.812
0.08 --undefined-- 47.251
0.09 --undefined-- 47.303
0.10 --undefined-- 47.479
0.11 --undefined-- 46.971
0.12 --undefined-- 46.355
0.13 --undefined-- 45.755
0.14 --undefined-- 44.314
0.15 --undefined-- 42.044
0.16 --undefined-- 39.384
0.17 --undefined-- 35.717
0.18 --undefined-- 31.577
0.19 --undefined-- 29.197
0.20 --undefined-- 29.528
0.21 --undefined-- 31.170
0.22 --undefined-- 32.837
0.23 --undefined-- 33.172
0.24 --undefined-- 31.853
0.25 --undefined-- 31.054
0.26 --undefined-- 31.382
0.27 --undefined-- 31.759
0.28 --undefined-- 32.725
0.29 --undefined-- 35.029
0.30 --undefined-- 36.363
0.31 --undefined-- 36.237
0.32 --undefined-- 36.059
0.33 --undefined-- 45.452
0.34 --undefined-- 56.336
0.35 125.239 63.343
0.36 125.872 67.139
0.37 125.733 68.624
0.38 122.319 68.877
0.39 119.763 68.724
0.40 116.581 68.187
0.41 113.632 67.323
0.42 112.079 66.541
0.43 109.513 65.842
0.44 107.476 65.377
0.45 105.930 65.329
0.46 105.085 65.375
0.47 104.570 65.283
0.48 104.258 64.949
0.49 104.571 64.491
0.50 105.259 64.180
0.51 106.253 64.026
0.52 107.012 63.997
0.53 107.799 64.135
0.54 108.127 64.585
0.55 107.896 65.466
0.56 107.977 66.453
0.57 108.242 66.538
0.58 111.850 65.264
0.59 113.383 63.380
0.60 115.881 62.199
0.61 122.040 62.207
0.62 133.997 63.282
0.63 141.152 65.414
0.64 143.826 67.592
0.65 133.312 68.979
0.66 123.762 69.432
0.67 119.337 68.968
0.68 119.737 68.305
0.69 124.192 68.330
0.70 130.829 68.897
0.71 143.881 70.009
0.72 149.632 71.165
0.73 155.094 71.579
0.74 164.828 71.324
0.75 167.914 70.420
0.76 170.058 68.530
0.77 172.010 65.976
0.78 170.801 63.729
0.79 167.924 61.759
0.80 165.675 59.901
0.81 169.739 61.021
0.82 165.864 65.371
0.83 160.517 68.404
0.84 153.428 69.122
0.85 142.358 68.220
0.86 133.358 67.129
0.87 118.027 66.683
0.88 112.344 66.280
0.89 105.381 65.624
0.90 103.228 65.466
0.91 103.756 65.796
0.92 106.134 66.139
0.93 108.847 66.335
0.94 114.503 66.619
0.95 118.725 67.166
0.96 123.837 67.410
0.97 125.632 67.282
0.98 127.237 67.231
0.99 129.211 67.739
1.00 131.956 69.153
1.01 133.259 70.825
1.02 134.888 71.871
1.03 135.890 71.922
1.04 138.431 70.961
1.05 144.049 70.026
1.06 149.300 70.034
1.07 151.093 70.288
1.08 153.668 70.496
1.09 154.663 70.316
1.10 153.538 69.564
1.11 152.942 68.718
1.12 146.932 68.215
1.13 146.120 67.939
1.14 137.262 67.762
1.15 130.988 67.541
1.16 125.599 67.215
1.17 114.676 66.943
1.18 99.831 66.155
1.19 98.968 64.282
1.20 94.934 61.138
1.21 --undefined-- 56.500
1.22 --undefined-- 51.406
1.23 --undefined-- 47.374
1.24 --undefined-- 43.388
1.25 --undefined-- 39.425
1.26 --undefined-- 36.743
1.27 --undefined-- 36.243
1.28 --undefined-- 36.084
1.29 --undefined-- 37.132
1.30 --undefined-- 47.124
1.31 --undefined-- 57.420
1.32 --undefined-- 64.135
1.33 152.622 67.824
1.34 147.627 69.401
1.35 146.024 69.597
1.36 144.817 69.032
1.37 143.508 68.183
1.38 142.681 67.383
1.39 142.494 66.606
1.40 142.173 65.719
1.41 141.131 65.467
1.42 145.779 66.508
1.43 151.341 67.628
1.44 150.157 68.322
1.45 146.900 68.815
1.46 144.891 69.163
1.47 142.581 69.347
1.48 139.786 69.393
1.49 137.077 69.081
1.50 134.239 67.882
1.51 124.942 66.009
1.52 118.501 65.577
1.53 112.011 66.705
1.54 104.815 67.539
1.55 101.959 67.745
1.56 99.935 67.406
1.57 99.926 66.816
1.58 100.457 66.146
1.59 101.444 65.671
1.60 101.820 65.491
1.61 105.035 65.251
1.62 107.823 64.850
1.63 111.680 64.445
1.64 113.554 64.436
1.65 114.990 64.682
1.66 111.627 64.180
1.67 108.653 62.020
1.68 108.789 58.375
1.69 110.663 54.880
1.70 108.251 52.689
1.71 --undefined-- 54.641
1.72 122.140 59.731
1.73 117.734 63.397
1.74 114.241 65.302
1.75 112.391 65.956
1.76 110.939 65.842
1.77 110.048 65.433
1.78 110.194 65.319
1.79 111.296 65.764
1.80 113.789 66.649
1.81 116.438 67.477
1.82 119.285 67.621
1.83 124.077 67.420
1.84 128.920 67.662
1.85 134.229 68.461
1.86 138.578 69.580
1.87 140.815 70.575
1.88 141.289 70.883
1.89 142.072 70.656
1.90 143.557 70.632
1.91 144.991 70.854
1.92 146.180 70.794
1.93 146.480 70.222
1.94 146.491 69.566
1.95 146.393 69.264
1.96 145.476 68.818
1.97 144.116 67.928
1.98 139.582 66.799
1.99 135.695 65.481
2.00 133.557 63.947
2.01 132.731 62.615
2.02 132.578 62.382
2.03 130.638 62.767
2.04 128.027 63.113
2.05 127.351 63.650
2.06 128.506 64.413
2.07 129.885 65.466
2.08 131.512 66.870
2.09 132.734 67.982
2.10 134.329 68.391
2.11 136.959 68.301
2.12 137.923 67.924
2.13 136.908 66.955
2.14 134.503 64.949
2.15 132.606 61.764
2.16 133.591 57.793
2.17 136.355 53.909
2.18 140.540 50.482
2.19 --undefined-- 48.915
2.20 --undefined-- 50.685
2.21 --undefined-- 53.738
2.22 187.956 59.911
2.23 169.129 64.977
2.24 159.400 67.935
2.25 157.730 69.374
2.26 155.279 69.914
2.27 152.765 69.960
2.28 151.480 69.904
2.29 151.187 70.006
2.30 151.135 70.158
2.31 151.261 70.184
2.32 151.700 70.073
2.33 153.426 69.954
2.34 158.062 69.515
2.35 157.922 67.833
2.36 153.357 64.069
2.37 151.603 57.661
2.38 --undefined-- 49.194
2.39 --undefined-- 45.330
2.40 --undefined-- 44.482
2.41 --undefined-- 43.301
2.42 --undefined-- 43.829
2.43 --undefined-- 45.882
2.44 --undefined-- 48.892
2.45 --undefined-- 51.530
2.46 --undefined-- 52.856
2.47 --undefined-- 53.447
2.48 --undefined-- 53.260
2.49 --undefined-- 54.946
2.50 --undefined-- 60.977
2.51 --undefined-- 65.032
2.52 109.415 66.761
2.53 105.476 67.470
2.54 101.816 67.946
2.55 101.966 68.252
2.56 101.946 68.420
2.57 103.319 68.632
2.58 105.466 68.961
2.59 109.378 69.224
2.60 115.447 69.515
2.61 117.909 69.861
2.62 119.705 69.867
2.63 119.967 69.445
2.64 119.882 68.729
2.65 120.844 67.990
2.66 120.049 67.714
2.67 117.967 68.029
2.68 114.374 68.270
2.69 109.420 67.846
2.70 104.786 67.310
2.71 100.486 67.318
2.72 97.893 67.270
2.73 94.497 66.944
2.74 93.968 66.610
2.75 94.391 66.454
2.76 97.284 66.880
2.77 99.936 67.512
2.78 102.981 67.618
2.79 104.606 67.204
2.80 109.231 66.667
2.81 111.538 65.747
2.82 115.094 63.938
2.83 109.659 61.087
2.84 102.082 57.964
2.85 101.553 56.888
2.86 111.118 58.500
2.87 121.142 61.543
2.88 118.944 64.554
2.89 117.937 66.269
2.90 96.688 66.356
2.91 92.905 65.605
2.92 84.287 65.001
2.93 76.845 64.414
2.94 77.026 63.715
2.95 77.857 63.553
2.96 86.814 64.324
2.97 98.502 65.209
2.98 106.904 65.834
2.99 111.701 66.761
3.00 114.973 67.691
3.01 117.312 68.191
3.02 119.325 68.360
3.03 120.954 68.472
3.04 122.819 68.620
3.05 123.931 68.555
3.06 123.472 68.058
3.07 121.113 67.559
3.08 119.374 67.832
3.09 117.199 68.393
3.10 115.563 68.327
3.11 114.347 67.734
3.12 109.234 67.289
3.13 106.559 66.798
3.14 105.256 65.853
3.15 104.346 64.684
3.16 103.255 63.563
3.17 101.164 62.354
3.18 100.021 61.766
3.19 102.832 62.324
3.20 104.432 63.150
3.21 105.764 63.799
3.22 107.112 64.210
3.23 107.386 64.435
3.24 106.815 64.535
3.25 105.443 64.477
3.26 102.628 64.330
3.27 96.925 64.200
3.28 96.614 63.856
3.29 93.854 63.561
3.30 92.376 63.319
3.31 91.832 62.443
3.32 83.821 60.608
3.33 83.538 58.072
3.34 84.334 55.264
3.35 --undefined-- 52.318
3.36 --undefined-- 49.601
3.37 --undefined-- 47.573
3.38 --undefined-- 46.128
3.39 --undefined-- 46.173
3.40 --undefined-- 46.099
3.41 --undefined-- 45.375
3.42 --undefined-- 44.333
3.43 --undefined-- 43.754
3.44 --undefined-- 44.292
3.45 --undefined-- 44.488
3.46 --undefined-- 49.118
3.47 --undefined-- 57.357
3.48 --undefined-- 62.943
3.49 --undefined-- 65.640
3.50 99.991 66.173
3.51 94.229 65.319
3.52 88.372 64.204
3.53 85.310 63.919
3.54 83.112 63.722
3.55 82.587 62.953
3.56 82.735 62.248
3.57 83.600 62.251
3.58 84.457 62.710
3.59 88.038 63.290
3.60 89.954 63.414
3.61 93.546 62.869
3.62 97.254 62.109
3.63 99.743 61.678
3.64 101.480 62.306
3.65 108.319 63.844
3.66 111.066 64.971
3.67 113.825 65.386
3.68 114.611 65.301
3.69 114.712 64.715
3.70 113.906 63.811
3.71 113.789 63.063
3.72 113.920 63.003
3.73 113.599 63.526
3.74 105.771 63.931
3.75 100.340 64.080
3.76 92.295 64.112
3.77 91.179 64.016
3.78 88.794 63.954
3.79 89.097 63.696
3.80 89.243 62.274
3.81 --undefined-- 58.773
3.82 --undefined-- 53.165
3.83 --undefined-- 47.490
3.84 --undefined-- 43.674
3.85 --undefined-- 41.459
3.86 --undefined-- 39.960
3.87 --undefined-- 40.893
3.88 --undefined-- 43.171
3.89 --undefined-- 51.892
3.90 --undefined-- 61.051
3.91 --undefined-- 66.263
3.92 136.595 68.331
3.93 135.841 68.154
3.94 132.298 66.251
3.95 117.469 62.955
3.96 117.281 59.167
3.97 116.703 55.134
3.98 --undefined-- 50.432
3.99 --undefined-- 46.010
4.00 --undefined-- 42.261
4.01 --undefined-- 39.513
4.02 --undefined-- 38.449
4.03 --undefined-- 38.018
4.04 --undefined-- 37.222
4.05 --undefined-- 37.188
4.06 --undefined-- 39.037
4.07 --undefined-- 42.013
4.08 --undefined-- 43.492
4.09 --undefined-- 44.585
4.10 --undefined-- 54.197
4.11 --undefined-- 61.606
4.12 --undefined-- 65.427
4.13 112.461 66.651
4.14 105.978 66.600
4.15 100.572 66.109
4.16 98.785 65.087
4.17 96.765 63.764
4.18 94.876 62.474
4.19 93.355 61.191
4.20 92.549 60.290
4.21 92.047 60.295
4.22 94.145 60.744
4.23 96.525 61.013
4.24 97.478 61.166
4.25 98.400 61.464
4.26 99.572 61.873
4.27 100.248 62.188
4.28 100.123 62.150
4.29 99.331 61.561
4.30 98.196 60.463
4.31 97.296 59.203
4.32 97.150 59.054
4.33 101.339 60.755
4.34 95.478 62.939
4.35 93.082 64.690
4.36 92.765 65.543
4.37 85.207 65.138
4.38 75.620 63.668
4.39 77.685 61.539
4.40 77.967 58.678
4.41 --undefined-- 54.806
4.42 --undefined-- 49.940
4.43 --undefined-- 44.345
4.44 --undefined-- 39.994
4.45 --undefined-- 39.272
4.46 --undefined-- 40.196
4.47 --undefined-- 40.655
4.48 --undefined-- 41.352
4.49 --undefined-- 42.922
4.50 --undefined-- 44.335
4.51 --undefined-- 45.224
4.52 --undefined-- 45.509
4.53 --undefined-- 45.410
4.54 --undefined-- 45.226
4.55 --undefined-- 44.970
4.56 --undefined-- 45.087
4.57 --undefined-- 45.158
4.58 --undefined-- 44.306
4.59 --undefined-- 43.162
4.60 --undefined-- 42.161
4.61 --undefined-- 40.888
4.62 --undefined-- 38.914
4.63 --undefined-- 36.290
4.64 --undefined-- 33.211
4.65 --undefined-- 31.209
4.66 --undefined-- 31.887
4.67 --undefined-- 39.733
4.68 --undefined-- 52.161
4.69 --undefined-- 60.098
4.70 182.813 64.839
4.71 187.716 67.339
4.72 186.971 68.323
4.73 184.763 68.698
4.74 183.486 69.264
4.75 182.711 69.953
4.76 183.974 70.569
4.77 185.605 70.936
4.78 186.959 70.921
4.79 188.594 70.706
4.80 189.865 70.441
4.81 188.301 70.088
4.82 184.249 69.808
4.83 179.076 70.009
4.84 173.934 70.765
4.85 166.637 71.537
4.86 151.715 71.790
4.87 140.600 71.644
4.88 130.596 71.065
4.89 120.924 70.473
4.90 113.510 70.606
4.91 110.929 70.953
4.92 111.565 70.739
4.93 112.791 69.516
4.94 115.744 67.592
4.95 119.532 65.750
4.96 119.189 64.376
4.97 116.450 63.070
4.98 116.929 61.610
4.99 117.963 60.241
5.00 118.085 60.058
5.01 123.697 61.918
5.02 131.505 64.754
5.03 133.075 67.101
5.04 126.725 68.419
5.05 114.908 68.722
5.06 114.623 68.403
5.07 115.625 68.058
5.08 116.600 67.883
5.09 117.818 67.697
5.10 118.133 67.426
5.11 118.072 67.348
5.12 118.924 67.501
5.13 119.983 67.849
5.14 121.610 68.411
5.15 119.884 68.694
5.16 121.615 68.229
5.17 124.507 67.240
5.18 123.630 66.131
5.19 120.756 65.115
5.20 120.975 64.701
5.21 125.658 65.033
5.22 125.548 65.619
5.23 125.871 66.244
5.24 125.295 66.925
5.25 108.031 67.500
5.26 108.253 67.386
5.27 98.918 66.452
5.28 101.496 65.556
5.29 101.516 65.203
5.30 101.888 65.201
5.31 99.429 65.417
5.32 99.675 65.455
5.33 102.094 65.295
5.34 101.613 64.835
5.35 100.930 63.470
5.36 98.923 60.914
5.37 94.763 57.405
5.38 --undefined-- 53.337
5.39 --undefined-- 49.135
5.40 --undefined-- 46.146
5.41 --undefined-- 43.791
5.42 --undefined-- 42.797
5.43 --undefined-- 45.059
5.44 --undefined-- 48.446
5.45 --undefined-- 54.928
5.46 --undefined-- 61.974
5.47 146.852 --undefined--
5.48 142.906 --undefined--
5.49 --undefined-- --undefined--
5.50 --undefined-- --undefined--
