Time Pitch Intensity
0.01 --undefined-- --undefined--
0.02 203.492 --undefined--
0.03 204.613 --undefined--
0.04 206.591 --undefined--
0.05 206.768 66.671
0.06 200.695 63.724
0.07 199.744 62.682
0.08 210.308 63.563
0.09 271.782 62.717
0.10 281.048 62.422
0.11 --undefined-- 63.717
0.12 --undefined-- 63.771
0.13 --undefined-- 65.115
0.14 152.115 67.879
0.15 150.297 69.581
0.16 150.710 70.621
0.17 150.271 71.531
0.18 149.542 72.216
0.19 150.431 72.570
0.20 152.699 72.380
0.21 156.412 71.703
0.22 160.334 71.317
0.23 162.673 71.547
0.24 163.731 72.330
0.25 162.005 73.271
0.26 159.396 73.592
0.27 154.587 72.669
0.28 293.590 70.527
0.29 280.657 67.868
0.30 284.221 65.526
0.31 287.595 66.264
0.32 270.219 67.293
0.33 189.658 69.211
0.34 183.934 73.381
0.35 187.325 76.292
0.36 190.676 77.630
0.37 192.841 77.997
0.38 193.718 77.756
0.39 193.180 77.380
0.40 191.952 77.171
0.41 189.936 76.966
0.42 189.205 76.668
0.43 187.933 76.638
0.44 187.198 77.139
0.45 188.335 77.643
0.46 189.999 77.532
0.47 195.707 76.469
0.48 196.455 75.390
0.49 194.483 75.669
0.50 194.328 76.118
0.51 194.259 75.808
0.52 193.486 74.766
0.53 191.638 73.365
0.54 188.744 72.151
0.55 181.834 70.733
0.56 172.065 68.247
0.57 152.537 65.442
0.58 --undefined-- 62.559
0.59 --undefined-- 58.037
0.60 --undefined-- 53.887
0.61 --undefined-- 53.865
0.62 --undefined-- 54.162
0.63 --undefined-- 54.399
0.64 --undefined-- 56.544
0.65 --undefined-- 60.479
0.66 216.141 63.713
0.67 213.379 64.899
0.68 210.131 65.173
0.69 208.657 65.021
0.70 207.560 63.277
0.71 195.463 60.293
0.72 181.887 59.295
0.73 --undefined-- 59.667
0.74 --undefined-- 59.438
0.75 --undefined-- 59.404
0.76 --undefined-- 58.778
0.77 --undefined-- 56.807
0.78 --undefined-- 54.845
0.79 --undefined-- 55.268
0.80 --undefined-- 56.273
0.81 --undefined-- 56.587
0.82 --undefined-- 56.278
0.83 --undefined-- 55.819
0.84 --undefined-- 55.440
0.85 --undefined-- 56.138
0.86 241.314 59.213
0.87 238.946 62.041
0.88 191.255 64.153
0.89 183.656 65.630
0.90 177.897 66.012
0.91 176.407 65.619
0.92 176.154 65.359
0.93 175.097 65.353
0.94 174.440 65.853
0.95 177.899 67.112
0.96 182.453 67.943
0.97 187.346 68.121
0.98 193.160 67.967
0.99 200.498 67.306
1.00 209.729 66.558
1.01 215.032 66.415
1.02 215.625 65.732
1.03 219.519 64.201
1.04 251.535 64.817
1.05 247.576 66.250
1.06 235.201 67.053
1.07 221.020 67.505
1.08 205.600 67.937
1.09 195.784 68.382
1.10 191.623 68.573
1.11 190.241 68.300
1.12 189.896 67.278
1.13 189.582 65.508
1.14 188.500 63.052
1.15 189.285 61.233
1.16 192.096 61.089
1.17 192.811 59.074
1.18 --undefined-- 54.540
1.19 --undefined-- 53.578
1.20 --undefined-- 57.866
1.21 --undefined-- 62.108
1.22 --undefined-- 65.715
1.23 --undefined-- 69.162
1.24 220.505 71.097
1.25 220.821 71.593
1.26 220.871 71.630
1.27 222.787 71.463
1.28 226.675 71.231
1.29 229.892 71.103
1.30 232.782 70.622
1.31 235.604 69.687
1.32 237.446 68.918
1.33 238.410 68.366
1.34 238.569 68.213
1.35 243.957 69.002
1.36 245.712 69.050
1.37 246.385 67.865
1.38 241.434 66.329
1.39 227.530 63.827
1.40 204.052 59.935
1.41 --undefined-- 57.439
1.42 --undefined-- 57.339
1.43 274.148 59.061
1.44 272.725 60.829
1.45 274.949 62.699
1.46 267.776 65.781
1.47 254.366 67.571
1.48 242.920 67.970
1.49 236.367 68.296
1.50 234.174 68.864
1.51 232.467 69.574
1.52 231.784 70.514
1.53 231.699 71.250
1.54 232.704 71.369
1.55 234.373 70.944
1.56 235.041 69.911
1.57 231.408 67.680
1.58 226.328 63.882
1.59 223.464 58.934
1.60 --undefined-- 54.996
1.61 --undefined-- 57.365
1.62 --undefined-- 61.742
1.63 223.666 65.512
1.64 212.612 69.129
1.65 200.730 72.279
1.66 190.499 74.426
1.67 183.389 75.429
1.68 178.272 75.390
1.69 177.469 74.172
1.70 180.029 72.240
1.71 --undefined-- 71.797
1.72 --undefined-- 72.286
1.73 --undefined-- 71.403
1.74 --undefined-- 68.820
1.75 --undefined-- 66.586
1.76 --undefined-- 65.486
1.77 --undefined-- 64.257
1.78 --undefined-- 63.225
1.79 --undefined-- 61.250
1.80 --undefined-- 59.825
1.81 --undefined-- 61.364
1.82 181.688 64.017
1.83 198.056 67.028
1.84 209.959 69.224
1.85 212.178 70.024
1.86 208.249 69.815
1.87 207.082 69.198
1.88 206.051 68.519
1.89 205.193 67.872
1.90 208.830 67.542
1.91 216.258 67.899
1.92 218.980 68.316
1.93 221.483 68.441
1.94 222.869 68.312
1.95 223.728 68.050
1.96 222.861 67.317
1.97 217.560 65.540
1.98 207.140 62.465
1.99 213.675 58.442
2.00 243.540 56.391
2.01 --undefined-- 56.708
2.02 --undefined-- 58.588
2.03 --undefined-- 62.592
2.04 --undefined-- 64.759
2.05 254.698 64.724
2.06 237.532 65.192
2.07 238.215 66.203
2.08 236.980 66.288
2.09 235.010 65.820
2.10 231.838 64.936
2.11 205.323 63.468
2.12 204.230 62.088
2.13 206.022 62.345
2.14 237.553 64.788
2.15 237.867 67.481
2.16 239.152 68.816
2.17 244.387 68.754
2.18 252.470 67.422
2.19 257.034 65.077
2.20 257.335 62.337
2.21 257.107 60.188
2.22 286.447 60.142
2.23 --undefined-- 61.541
2.24 259.869 62.466
2.25 177.565 64.567
2.26 170.087 67.470
2.27 163.050 69.193
2.28 154.710 70.267
2.29 299.306 70.779
2.30 290.105 70.929
2.31 283.998 71.120
2.32 279.164 70.898
2.33 275.526 69.639
2.34 272.763 67.577
2.35 266.507 65.855
2.36 257.303 64.828
2.37 247.509 64.443
2.38 240.106 64.418
2.39 229.640 64.717
2.40 224.843 65.259
2.41 218.216 66.070
2.42 213.527 67.495
2.43 211.578 69.280
2.44 200.098 70.706
2.45 197.408 71.208
2.46 194.384 70.784
2.47 196.422 69.870
2.48 203.181 69.117
2.49 206.848 68.877
2.50 210.761 68.909
2.51 214.099 69.082
2.52 217.072 69.295
2.53 217.403 69.048
2.54 218.630 67.913
2.55 217.598 66.330
2.56 208.658 65.520
2.57 207.451 66.079
2.58 206.251 67.034
2.59 202.282 67.752
2.60 195.045 68.138
2.61 193.559 67.804
2.62 191.181 66.076
2.63 190.676 62.493
2.64 193.034 57.994
2.65 --undefined-- 57.405
2.66 --undefined-- 57.716
2.67 --undefined-- 55.579
2.68 --undefined-- 53.893
2.69 --undefined-- 54.164
2.70 --undefined-- 54.658
2.71 --undefined-- 55.181
2.72 --undefined-- 56.229
2.73 --undefined-- 58.605
2.74 207.420 61.232
2.75 205.210 63.277
2.76 196.608 64.397
2.77 187.451 64.301
2.78 178.558 63.475
2.79 172.546 63.409
2.80 175.161 63.864
2.81 174.199 63.882
2.82 171.682 63.766
2.83 173.638 63.801
2.84 171.882 63.854
2.85 170.866 63.822
2.86 169.690 63.659
2.87 169.006 63.361
2.88 169.314 63.286
2.89 170.172 63.433
2.90 170.822 63.531
2.91 171.166 63.614
2.92 173.157 63.916
2.93 176.482 63.738
2.94 176.895 62.079
2.95 174.949 59.142
2.96 --undefined-- 56.957
2.97 --undefined-- 57.910
2.98 --undefined-- 59.051
2.99 --undefined-- 57.787
3.00 --undefined-- 56.195
3.01 --undefined-- 61.669
3.02 231.251 67.157
3.03 225.286 70.371
3.04 221.624 71.841
3.05 216.671 72.223
3.06 210.978 71.973
3.07 209.222 71.156
3.08 209.708 70.172
3.09 210.199 69.189
3.10 209.334 68.503
3.11 211.816 68.976
3.12 209.335 69.830
3.13 205.375 69.850
3.14 191.992 68.791
3.15 --undefined-- 66.791
3.16 --undefined-- 64.204
3.17 --undefined-- 62.424
3.18 --undefined-- 62.042
3.19 --undefined-- 62.442
3.20 --undefined-- 63.582
3.21 --undefined-- 63.968
3.22 --undefined-- 64.268
3.23 --undefined-- 64.578
3.24 --undefined-- 65.228
3.25 277.808 68.423
3.26 281.164 71.950
3.27 291.421 74.111
3.28 --undefined-- 75.091
3.29 165.231 75.683
3.30 169.621 75.811
3.31 171.244 74.784
3.32 171.015 72.325
3.33 168.294 68.629
3.34 --undefined-- 64.671
3.35 --undefined-- 62.923
3.36 --undefined-- 62.577
3.37 --undefined-- 60.803
3.38 --undefined-- 58.233
3.39 --undefined-- 56.337
3.40 --undefined-- 57.085
3.41 242.389 60.717
3.42 249.269 62.524
3.43 289.406 61.171
3.44 290.583 57.888
3.45 274.373 56.626
3.46 272.653 56.183
3.47 269.524 56.044
3.48 263.483 58.938
3.49 285.722 61.217
3.50 286.582 60.504
3.51 290.187 57.685
3.52 290.522 56.870
3.53 --undefined-- 58.398
3.54 --undefined-- 59.756
3.55 --undefined-- 60.064
3.56 270.234 59.620
3.57 268.181 60.393
3.58 --undefined-- 61.012
3.59 --undefined-- 59.591
3.60 --undefined-- 55.645
3.61 --undefined-- 49.802
3.62 --undefined-- 49.386
3.63 --undefined-- 54.785
3.64 289.438 61.106
3.65 288.989 66.725
3.66 289.165 70.324
3.67 295.020 72.067
3.68 159.439 73.341
3.69 170.233 74.901
3.70 179.022 75.555
3.71 193.963 74.689
3.72 203.273 72.823
3.73 211.465 71.358
3.74 210.575 70.578
3.75 202.880 68.639
3.76 189.338 64.737
3.77 190.198 59.908
3.78 194.140 57.692
3.79 --undefined-- 59.111
3.80 --undefined-- 60.849
3.81 --undefined-- 61.969
3.82 --undefined-- 63.307
3.83 --undefined-- 63.855
3.84 --undefined-- 62.594
3.85 --undefined-- 60.767
3.86 266.825 62.985
3.87 272.052 66.338
3.88 251.685 68.034
3.89 214.176 68.967
3.90 200.229 69.880
3.91 192.531 70.609
3.92 190.319 70.961
3.93 188.889 70.822
3.94 187.752 69.595
3.95 186.383 66.938
3.96 182.122 63.390
3.97 180.246 60.054
3.98 192.697 61.179
3.99 194.119 64.004
4.00 219.284 63.979
4.01 217.909 62.081
4.02 208.988 62.372
4.03 200.807 64.702
4.04 192.957 67.275
4.05 185.636 69.189
4.06 184.010 69.951
4.07 183.428 70.201
4.08 182.995 70.586
4.09 182.579 70.700
4.10 182.629 70.268
4.11 182.591 69.675
4.12 183.003 69.152
4.13 182.876 68.840
4.14 182.163 69.007
4.15 185.001 69.160
4.16 185.669 68.871
4.17 185.917 68.316
4.18 185.393 68.070
4.19 184.023 68.718
4.20 182.594 69.809
4.21 180.996 70.118
4.22 180.331 69.401
4.23 176.237 69.572
4.24 173.119 70.521
4.25 171.465 70.882
4.26 169.859 71.245
4.27 168.800 71.817
4.28 168.543 72.299
4.29 169.587 72.551
4.30 170.093 72.280
4.31 172.037 71.223
4.32 175.528 69.729
4.33 179.791 68.629
4.34 185.779 68.270
4.35 191.184 68.099
4.36 198.577 67.403
4.37 211.584 66.647
4.38 221.619 66.811
4.39 227.770 67.247
4.40 232.853 67.433
4.41 234.854 66.897
4.42 231.475 64.771
4.43 229.836 60.525
4.44 --undefined-- 57.092
4.45 --undefined-- 59.118
4.46 --undefined-- 63.129
4.47 299.651 64.959
4.48 297.636 63.879
4.49 --undefined-- 61.503
4.50 209.892 60.398
4.51 212.148 60.589
4.52 209.448 63.604
4.53 208.131 66.286
4.54 212.726 66.556
4.55 225.251 65.812
4.56 --undefined-- 66.282
4.57 --undefined-- 67.123
4.58 --undefined-- 68.710
4.59 --undefined-- 69.760
4.60 --undefined-- 69.010
4.61 --undefined-- 67.374
4.62 --undefined-- 66.505
4.63 --undefined-- 64.749
4.64 --undefined-- 61.721
4.65 --undefined-- 60.887
4.66 --undefined-- 61.603
4.67 --undefined-- 60.595
4.68 --undefined-- 58.853
4.69 --undefined-- 58.918
4.70 283.055 59.428
4.71 278.840 60.002
4.72 260.606 61.967
4.73 --undefined-- 62.603
4.74 --undefined-- 59.859
4.75 --undefined-- 54.132
4.76 --undefined-- 54.241
4.77 --undefined-- 57.635
4.78 --undefined-- 60.494
4.79 --undefined-- 61.805
4.80 --undefined-- 60.895
4.81 --undefined-- 60.392
4.82 212.394 63.505
4.83 208.752 66.500
4.84 205.845 68.355
4.85 203.874 69.607
4.86 202.773 70.477
4.87 202.105 70.959
4.88 201.322 71.057
4.89 200.950 70.941
4.90 201.200 70.974
4.91 201.594 71.105
4.92 202.181 --undefined--
4.93 203.324 --undefined--
4.94 --undefined-- --undefined--
4.95 --undefined-- --undefined--
