Time Pitch Intensity
0.01 --undefined-- --undefined--
0.02 118.839 --undefined--
0.03 118.501 --undefined--
0.04 118.758 --undefined--
0.05 118.584 71.364
0.06 118.662 71.455
0.07 118.025 71.754
0.08 117.752 72.007
0.09 117.360 72.052
0.10 116.706 71.943
0.11 116.607 71.872
0.12 116.810 71.753
0.13 116.554 71.504
0.14 116.492 71.418
0.15 116.397 71.678
0.16 116.480 71.966
0.17 116.598 71.929
0.18 117.122 71.877
0.19 117.528 72.030
0.20 117.791 72.128
0.21 118.006 72.106
0.22 117.173 72.107
0.23 116.111 72.007
0.24 115.490 71.815
0.25 115.833 71.510
0.26 115.843 70.962
0.27 117.308 70.112
0.28 117.436 68.965
0.29 116.272 67.113
0.30 114.792 63.932
0.31 114.223 59.087
0.32 --undefined-- 52.848
0.33 --undefined-- 49.163
0.34 --undefined-- 48.498
0.35 --undefined-- 48.615
0.36 --undefined-- 49.435
0.37 --undefined-- 50.507
0.38 --undefined-- 52.621
0.39 --undefined-- 58.857
0.40 174.496 66.449
0.41 180.260 72.308
0.42 180.959 76.116
0.43 178.778 78.038
0.44 176.757 78.243
0.45 176.471 77.480
0.46 177.447 76.891
0.47 178.035 76.225
0.48 177.612 74.481
0.49 176.405 71.432
0.50 173.042 68.810
0.51 169.404 67.120
0.52 164.484 64.008
0.53 --undefined-- 58.233
0.54 --undefined-- 51.314
0.55 --undefined-- 57.327
0.56 --undefined-- 64.836
0.57 --undefined-- 70.546
0.58 135.105 74.178
0.59 135.144 76.024
0.60 134.123 76.791
0.61 135.141 77.168
0.62 137.027 77.400
0.63 140.581 77.382
0.64 143.571 76.551
0.65 145.204 74.186
0.66 147.163 70.635
0.67 148.104 67.565
0.68 145.896 65.948
0.69 141.223 65.658
0.70 134.510 66.737
0.71 131.090 67.730
0.72 134.227 67.394
0.73 133.735 65.596
0.74 126.712 63.632
0.75 127.428 65.336
0.76 133.470 69.690
0.77 135.255 73.583
0.78 133.199 75.659
0.79 129.562 75.477
0.80 124.841 73.395
0.81 117.164 70.400
0.82 114.095 67.075
0.83 --undefined-- 62.676
0.84 --undefined-- 56.028
0.85 --undefined-- 48.428
0.86 --undefined-- 46.324
0.87 --undefined-- 44.822
0.88 --undefined-- 42.550
0.89 --undefined-- 43.876
0.90 --undefined-- 53.232
0.91 --undefined-- 60.855
0.92 --undefined-- 65.330
0.93 --undefined-- 67.589
0.94 113.474 68.239
0.95 113.531 67.797
0.96 112.611 66.895
0.97 112.870 65.729
0.98 113.269 64.513
0.99 112.638 63.418
1.00 110.728 62.252
1.01 108.567 60.524
1.02 104.427 57.673
1.03 --undefined-- 53.467
1.04 --undefined-- 48.376
1.05 --undefined-- 45.236
1.06 --undefined-- 43.975
1.07 --undefined-- 43.731
1.08 --undefined-- 44.570
1.09 --undefined-- 44.831
1.10 --undefined-- 44.415
1.11 --undefined-- 43.266
1.12 --undefined-- 42.203
1.13 --undefined-- 43.194
1.14 --undefined-- 45.962
1.15 --undefined-- 48.581
1.16 --undefined-- 50.682
1.17 --undefined-- 52.344
1.18 --undefined-- 53.760
1.19 --undefined-- 54.498
1.20 --undefined-- 55.368
1.21 --undefined-- 56.254
1.22 --undefined-- 55.678
1.23 --undefined-- 54.350
1.24 133.597 56.656
1.25 132.781 60.021
1.26 131.462 62.046
1.27 129.395 63.041
1.28 128.270 63.770
1.29 128.827 65.002
1.30 129.202 66.578
1.31 128.235 67.567
1.32 126.335 67.160
1.33 125.096 65.684
1.34 125.500 65.034
1.35 124.825 65.283
1.36 124.223 65.159
1.37 123.224 65.034
1.38 122.647 65.338
1.39 121.897 65.725
1.40 120.945 65.843
1.41 119.766 65.768
1.42 118.078 65.865
1.43 116.871 66.513
1.44 115.273 68.091
1.45 113.109 69.486
1.46 110.254 69.717
1.47 109.154 69.676
1.48 110.175 71.571
1.49 111.325 73.843
1.50 111.258 74.601
1.51 110.648 73.802
1.52 110.055 71.947
1.53 109.221 69.168
1.54 107.821 65.169
1.55 108.345 60.980
1.56 114.579 60.401
1.57 119.103 61.773
1.58 121.042 62.876
1.59 121.848 63.667
1.60 122.176 64.176
1.61 121.465 63.666
1.62 120.021 61.913
1.63 118.104 59.646
1.64 113.614 56.743
1.65 --undefined-- 55.830
1.66 --undefined-- 64.731
1.67 --undefined-- 71.105
1.68 109.423 73.938
1.69 111.044 74.688
1.70 107.437 74.745
1.71 105.956 74.255
1.72 104.619 73.045
1.73 103.773 71.428
1.74 102.736 69.416
1.75 101.803 66.733
1.76 97.653 62.876
1.77 --undefined-- 57.057
1.78 --undefined-- 51.205
1.79 --undefined-- 53.996
1.80 --undefined-- 58.479
1.81 --undefined-- 60.116
1.82 --undefined-- 62.328
1.83 --undefined-- 66.859
1.84 --undefined-- 70.396
1.85 --undefined-- 72.877
1.86 --undefined-- 73.989
1.87 --undefined-- 75.197
1.88 --undefined-- 75.648
1.89 --undefined-- 74.788
1.90 --undefined-- 73.662
1.91 --undefined-- 71.908
1.92 106.552 69.740
1.93 109.977 67.427
1.94 109.131 65.288
1.95 111.613 63.037
1.96 111.230 61.302
1.97 108.499 60.571
1.98 111.589 61.398
1.99 107.490 64.819
2.00 --undefined-- 68.674
2.01 --undefined-- 71.536
2.02 --undefined-- 73.213
2.03 --undefined-- 73.539
2.04 --undefined-- 73.541
2.05 --undefined-- 73.072
2.06 --undefined-- 71.635
2.07 --undefined-- 68.485
2.08 --undefined-- 61.922
2.09 --undefined-- 52.198
2.10 --undefined-- 47.502
2.11 --undefined-- 45.578
2.12 --undefined-- 42.768
2.13 --undefined-- 41.165
2.14 --undefined-- 43.655
2.15 --undefined-- 53.917
2.16 --undefined-- 61.842
2.17 --undefined-- 66.038
2.18 --undefined-- 68.519
2.19 --undefined-- 69.364
2.20 --undefined-- 68.189
2.21 108.573 66.542
2.22 108.498 63.719
2.23 108.209 57.911
2.24 --undefined-- 50.306
2.25 --undefined-- 46.670
2.26 --undefined-- 44.625
2.27 --undefined-- 41.662
2.28 --undefined-- 39.591
2.29 --undefined-- 39.202
2.30 --undefined-- 38.981
2.31 --undefined-- 38.260
2.32 --undefined-- 37.428
2.33 --undefined-- 36.215
2.34 --undefined-- 35.070
2.35 --undefined-- 34.758
2.36 --undefined-- 33.929
2.37 --undefined-- 32.770
2.38 --undefined-- 33.409
2.39 --undefined-- 34.093
2.40 --undefined-- 33.930
2.41 --undefined-- 33.995
2.42 --undefined-- 33.622
2.43 --undefined-- 32.185
2.44 --undefined-- 29.895
2.45 --undefined-- 30.590
2.46 --undefined-- 36.676
2.47 --undefined-- 41.795
2.48 --undefined-- 44.018
2.49 --undefined-- 44.523
2.50 --undefined-- 44.797
2.51 --undefined-- 45.135
2.52 --undefined-- 45.742
2.53 --undefined-- 46.101
2.54 --undefined-- 45.563
2.55 --undefined-- 44.650
2.56 --undefined-- 46.385
2.57 --undefined-- 56.828
2.58 --undefined-- 66.487
2.59 177.685 72.792
2.60 174.357 76.163
2.61 172.164 77.078
2.62 170.921 76.342
2.63 171.636 74.775
2.64 171.282 72.387
2.65 170.558 69.497
2.66 170.834 68.148
2.67 170.345 68.063
2.68 170.369 67.897
2.69 169.970 67.571
2.70 168.809 67.100
2.71 167.512 66.546
2.72 164.884 65.679
2.73 161.333 64.370
2.74 157.816 62.864
2.75 153.686 61.026
2.76 147.591 59.485
2.77 140.828 59.785
2.78 138.170 61.048
2.79 133.382 61.998
2.80 128.772 62.651
2.81 126.292 63.242
2.82 123.989 64.024
2.83 123.369 65.060
2.84 124.230 65.973
2.85 124.599 66.181
2.86 122.610 65.306
2.87 120.309 63.547
2.88 116.674 61.373
2.89 113.428 59.208
2.90 115.509 56.675
2.91 --undefined-- 52.219
2.92 --undefined-- 44.747
2.93 --undefined-- 37.058
2.94 --undefined-- 34.437
2.95 --undefined-- 33.009
2.96 --undefined-- 32.941
2.97 --undefined-- 34.704
2.98 --undefined-- 36.281
2.99 --undefined-- 37.353
3.00 --undefined-- 38.638
3.01 --undefined-- 38.954
3.02 --undefined-- 37.672
3.03 --undefined-- 35.781
3.04 --undefined-- 34.847
3.05 --undefined-- 36.179
3.06 --undefined-- 37.969
3.07 --undefined-- 38.351
3.08 --undefined-- 36.965
3.09 --undefined-- 35.363
3.10 --undefined-- 34.361
3.11 --undefined-- 34.068
3.12 --undefined-- 34.705
3.13 --undefined-- 35.877
3.14 --undefined-- 36.335
3.15 --undefined-- 35.173
3.16 --undefined-- 32.771
3.17 --undefined-- 32.154
3.18 --undefined-- 33.795
3.19 --undefined-- 34.091
3.20 --undefined-- 33.187
3.21 --undefined-- 34.144
3.22 --undefined-- 36.821
3.23 --undefined-- 37.213
3.24 --undefined-- 35.839
3.25 --undefined-- 36.302
3.26 --undefined-- 37.068
3.27 --undefined-- 35.938
3.28 --undefined-- 33.635
3.29 --undefined-- 33.497
3.30 --undefined-- 35.055
3.31 --undefined-- 35.757
3.32 --undefined-- 34.915
3.33 --undefined-- 35.095
3.34 --undefined-- 39.577
3.35 --undefined-- 46.214
3.36 --undefined-- 52.084
3.37 --undefined-- 57.648
3.38 --undefined-- 61.955
3.39 --undefined-- 64.381
3.40 --undefined-- 66.054
3.41 --undefined-- 68.037
3.42 124.973 69.663
3.43 121.004 70.282
3.44 119.088 70.207
3.45 116.884 69.882
3.46 118.093 69.859
3.47 116.847 70.255
3.48 118.088 70.631
3.49 116.813 70.748
3.50 --undefined-- 70.633
3.51 --undefined-- 70.123
3.52 --undefined-- 69.712
3.53 --undefined-- 69.805
3.54 --undefined-- 69.665
3.55 --undefined-- 69.180
3.56 --undefined-- 69.152
3.57 --undefined-- 69.694
3.58 --undefined-- 70.389
3.59 --undefined-- 70.415
3.60 --undefined-- 68.986
3.61 --undefined-- 67.779
3.62 --undefined-- 68.208
3.63 --undefined-- 68.237
3.64 --undefined-- 67.856
3.65 --undefined-- 67.981
3.66 --undefined-- 68.500
3.67 --undefined-- 68.656
3.68 --undefined-- 68.426
3.69 --undefined-- 68.034
3.70 --undefined-- 67.647
3.71 --undefined-- 67.246
3.72 270.743 66.613
3.73 265.594 65.873
3.74 261.713 64.959
3.75 258.334 63.810
3.76 --undefined-- 62.524
3.77 --undefined-- 60.374
3.78 --undefined-- 56.095
3.79 --undefined-- 50.345
3.80 --undefined-- 43.704
3.81 --undefined-- 37.758
3.82 --undefined-- 34.744
3.83 --undefined-- 33.319
3.84 --undefined-- 33.819
3.85 --undefined-- 35.848
3.86 --undefined-- 38.384
3.87 --undefined-- 39.801
3.88 --undefined-- 38.823
3.89 --undefined-- 36.398
3.90 --undefined-- 34.568
3.91 --undefined-- 35.305
3.92 --undefined-- 38.431
3.93 --undefined-- 39.417
3.94 --undefined-- 39.899
3.95 --undefined-- 41.162
3.96 --undefined-- 40.398
3.97 --undefined-- 37.304
3.98 --undefined-- 34.321
3.99 --undefined-- 34.371
4.00 --undefined-- 34.614
4.01 --undefined-- 35.162
4.02 --undefined-- 36.120
4.03 --undefined-- 36.394
4.04 --undefined-- 35.585
4.05 --undefined-- 33.930
4.06 --undefined-- 31.867
4.07 --undefined-- 30.641
4.08 --undefined-- 31.444
4.09 --undefined-- 32.536
4.10 --undefined-- 34.072
4.11 --undefined-- 35.704
4.12 --undefined-- 36.584
4.13 --undefined-- 36.800
4.14 --undefined-- 36.634
4.15 --undefined-- 35.334
4.16 --undefined-- 34.826
4.17 --undefined-- 35.967
4.18 --undefined-- 36.323
4.19 --undefined-- 35.360
4.20 --undefined-- 34.287
4.21 --undefined-- 33.545
4.22 --undefined-- 34.125
4.23 --undefined-- 35.264
4.24 --undefined-- 39.606
4.25 --undefined-- 47.670
4.26 --undefined-- 52.843
4.27 --undefined-- 54.394
4.28 --undefined-- 52.661
4.29 --undefined-- 48.584
4.30 --undefined-- 44.908
4.31 --undefined-- 46.096
4.32 --undefined-- 52.595
4.33 123.824 59.348
4.34 124.997 64.089
4.35 125.124 66.959
4.36 120.906 68.291
4.37 120.346 68.630
4.38 120.897 68.597
4.39 123.254 68.338
4.40 123.787 67.100
4.41 120.805 64.989
4.42 129.924 65.817
4.43 144.292 69.430
4.44 148.474 72.227
4.45 150.095 73.921
4.46 149.183 74.445
4.47 145.499 73.621
4.48 141.671 71.558
4.49 137.424 68.743
4.50 134.417 65.823
4.51 132.324 62.625
4.52 131.699 59.752
4.53 134.064 59.362
4.54 135.519 61.746
4.55 138.106 65.217
4.56 141.231 68.048
4.57 145.791 69.577
4.58 148.246 69.630
4.59 150.569 68.636
4.60 154.328 68.088
4.61 160.259 68.591
4.62 165.534 69.359
4.63 172.155 69.883
4.64 176.836 69.982
4.65 178.236 69.358
4.66 177.990 67.856
4.67 176.426 65.850
4.68 173.823 63.912
4.69 174.337 64.008
4.70 181.141 66.879
4.71 189.502 70.269
4.72 195.011 73.094
4.73 194.131 75.320
4.74 188.815 77.099
4.75 184.763 77.941
4.76 181.372 77.122
4.77 177.567 74.200
4.78 171.050 68.854
4.79 --undefined-- 61.140
4.80 --undefined-- 53.987
4.81 --undefined-- 51.285
4.82 --undefined-- 50.839
4.83 --undefined-- 53.680
4.84 168.728 60.767
4.85 171.562 68.135
4.86 172.855 73.244
4.87 173.939 76.044
4.88 173.564 77.248
4.89 172.707 77.772
4.90 171.146 77.738
4.91 169.814 76.937
4.92 168.217 75.227
4.93 166.009 72.329
4.94 163.164 68.203
4.95 158.931 64.023
4.96 153.542 62.106
4.97 149.742 61.800
4.98 146.723 62.051
4.99 142.781 61.954
5.00 135.475 62.263
5.01 129.387 63.274
5.02 121.912 63.391
5.03 119.404 62.331
5.04 117.716 60.640
5.05 118.019 58.816
5.06 119.511 57.150
5.07 116.587 55.165
5.08 114.381 52.622
5.09 --undefined-- 49.717
5.10 --undefined-- 47.281
5.11 --undefined-- 46.189
5.12 --undefined-- 44.472
5.13 --undefined-- 44.366
5.14 --undefined-- 51.245
5.15 --undefined-- 56.114
5.16 --undefined-- 60.112
5.17 165.261 65.567
5.18 168.657 69.692
5.19 167.360 71.674
5.20 166.476 72.039
5.21 165.734 71.037
5.22 165.805 68.572
5.23 164.844 65.093
5.24 165.191 63.840
5.25 166.079 64.984
5.26 167.402 65.691
5.27 167.899 65.745
5.28 167.455 65.460
5.29 165.571 65.125
5.30 163.215 64.912
5.31 163.787 65.268
5.32 166.847 66.187
5.33 167.687 66.801
5.34 166.371 66.603
5.35 162.721 64.991
5.36 156.308 61.133
5.37 --undefined-- 54.310
5.38 --undefined-- 45.944
5.39 --undefined-- 43.247
5.40 --undefined-- 45.698
5.41 --undefined-- 55.576
5.42 151.419 64.745
5.43 152.878 71.209
5.44 148.473 74.846
5.45 143.592 76.643
5.46 134.362 77.538
5.47 128.636 77.455
5.48 127.629 76.527
5.49 129.369 75.479
5.50 131.001 74.348
5.51 130.951 72.780
5.52 126.020 70.719
5.53 126.054 68.689
5.54 127.000 67.615
5.55 127.907 66.773
5.56 132.127 64.931
5.57 130.753 63.380
5.58 125.656 63.833
5.59 123.794 65.381
5.60 123.030 67.142
5.61 122.012 68.353
5.62 119.683 68.778
5.63 117.883 68.736
5.64 117.168 68.693
5.65 117.315 68.992
5.66 116.896 68.957
5.67 114.094 67.603
5.68 111.791 64.849
5.69 110.528 62.062
5.70 110.493 60.001
5.71 110.929 58.194
5.72 111.520 57.197
5.73 111.462 57.880
5.74 111.170 59.795
5.75 111.328 61.987
5.76 111.913 64.262
5.77 110.959 66.398
5.78 108.381 68.228
5.79 107.118 69.666
5.80 107.918 70.381
5.81 108.976 70.081
5.82 108.349 68.739
5.83 107.296 66.489
5.84 107.500 64.073
5.85 109.131 62.409
5.86 111.010 60.837
5.87 111.934 57.718
5.88 --undefined-- 52.934
5.89 --undefined-- 47.674
5.90 --undefined-- 43.633
5.91 --undefined-- 40.428
5.92 --undefined-- 37.591
5.93 --undefined-- 41.459
5.94 --undefined-- 52.004
5.95 176.830 60.589
5.96 176.639 66.025
5.97 176.314 68.973
5.98 176.503 70.123
5.99 175.198 70.337
6.00 172.711 69.940
6.01 168.776 68.559
6.02 166.920 65.500
6.03 --undefined-- 59.963
6.04 --undefined-- 51.363
6.05 --undefined-- 42.606
6.06 --undefined-- 38.707
6.07 --undefined-- 37.612
6.08 --undefined-- 48.881
6.09 --undefined-- 59.040
6.10 --undefined-- 64.781
6.11 --undefined-- 66.246
6.12 --undefined-- 63.899
6.13 --undefined-- 58.335
6.14 --undefined-- 58.489
6.15 --undefined-- 65.301
6.16 --undefined-- 68.503
6.17 --undefined-- 68.614
6.18 --undefined-- 67.165
6.19 --undefined-- --undefined--
6.20 --undefined-- --undefined--
6.21 --undefined-- --undefined--
6.22 --undefined-- --undefined--
