Time Pitch Intensity
0.01 --undefined-- --undefined--
0.02 98.404 --undefined--
0.03 99.902 --undefined--
0.04 100.615 --undefined--
0.05 101.594 69.590
0.06 103.077 69.962
0.07 106.328 70.289
0.08 107.216 70.476
0.09 106.702 70.399
0.10 108.057 69.691
0.11 107.655 67.695
0.12 94.040 64.342
0.13 93.970 60.590
0.14 --undefined-- 56.270
0.15 --undefined-- 50.442
0.16 --undefined-- 44.341
0.17 --undefined-- 40.642
0.18 --undefined-- 37.845
0.19 --undefined-- 35.996
0.20 --undefined-- 35.070
0.21 --undefined-- 33.775
0.22 --undefined-- 32.091
0.23 --undefined-- 31.681
0.24 --undefined-- 32.703
0.25 --undefined-- 32.897
0.26 --undefined-- 32.419
0.27 --undefined-- 31.311
0.28 --undefined-- 30.487
0.29 --undefined-- 30.640
0.30 --undefined-- 29.998
0.31 --undefined-- 29.356
0.32 --undefined-- 29.491
0.33 --undefined-- 29.518
0.34 --undefined-- 29.424
0.35 --undefined-- 30.014
0.36 --undefined-- 31.219
0.37 --undefined-- 30.990
0.38 --undefined-- 29.168
0.39 --undefined-- 28.997
0.40 --undefined-- 29.030
0.41 --undefined-- 28.584
0.42 --undefined-- 39.652
0.43 --undefined-- 49.807
0.44 --undefined-- 55.663
0.45 --undefined-- 58.863
0.46 --undefined-- 62.642
0.47 --undefined-- 67.096
0.48 --undefined-- 70.716
0.49 161.132 73.294
0.50 170.331 74.534
0.51 178.096 74.194
0.52 184.518 72.773
0.53 187.688 70.817
0.54 187.957 68.051
0.55 186.140 64.667
0.56 183.150 62.867
0.57 178.152 62.867
0.58 173.009 63.241
0.59 166.631 63.646
0.60 159.692 63.616
0.61 151.699 63.143
0.62 142.959 62.658
0.63 135.231 62.046
0.64 127.637 61.334
0.65 121.528 60.729
0.66 117.117 60.053
0.67 115.429 58.984
0.68 113.942 57.369
0.69 110.026 54.936
0.70 --undefined-- 51.112
0.71 --undefined-- 46.709
0.72 --undefined-- 44.501
0.73 --undefined-- 44.059
0.74 --undefined-- 43.787
0.75 --undefined-- 43.206
0.76 --undefined-- 43.338
0.77 --undefined-- 45.934
0.78 --undefined-- 49.255
0.79 --undefined-- 51.298
0.80 --undefined-- 53.293
0.81 --undefined-- 56.437
0.82 175.531 59.752
0.83 177.874 62.488
0.84 182.585 64.233
0.85 184.304 65.076
0.86 184.474 65.437
0.87 184.265 65.624
0.88 184.073 65.605
0.89 183.427 65.242
0.90 182.577 64.582
0.91 181.659 63.541
0.92 178.080 61.399
0.93 169.771 57.469
0.94 --undefined-- 52.074
0.95 --undefined-- 47.899
0.96 --undefined-- 53.361
0.97 --undefined-- 64.271
0.98 --undefined-- 71.585
0.99 --undefined-- 75.504
1.00 --undefined-- 76.671
1.01 141.730 76.024
1.02 135.729 74.807
1.03 129.536 73.463
1.04 123.835 72.142
1.05 119.796 71.301
1.06 117.474 70.538
1.07 114.844 69.459
1.08 112.159 67.707
1.09 109.136 64.811
1.10 104.204 60.948
1.11 --undefined-- 56.782
1.12 --undefined-- 51.618
1.13 --undefined-- 46.228
1.14 --undefined-- 44.507
1.15 --undefined-- 45.418
1.16 --undefined-- 46.590
1.17 --undefined-- 47.457
1.18 --undefined-- 48.137
1.19 --undefined-- 48.596
1.20 --undefined-- 48.506
1.21 --undefined-- 47.853
1.22 --undefined-- 47.021
1.23 --undefined-- 46.517
1.24 --undefined-- 46.231
1.25 --undefined-- 45.616
1.26 --undefined-- 44.505
1.27 --undefined-- 43.329
1.28 --undefined-- 41.855
1.29 --undefined-- 39.543
1.30 --undefined-- 36.666
1.31 --undefined-- 33.801
1.32 --undefined-- 31.130
1.33 --undefined-- 29.254
1.34 --undefined-- 28.855
1.35 --undefined-- 29.495
1.36 --undefined-- 31.994
1.37 --undefined-- 35.143
1.38 --undefined-- 36.899
1.39 --undefined-- 37.127
1.40 --undefined-- 37.245
1.41 --undefined-- 42.263
1.42 --undefined-- 56.095
1.43 --undefined-- 66.216
1.44 --undefined-- 72.448
1.45 --undefined-- 75.812
1.46 141.706 77.315
1.47 138.097 77.777
1.48 136.963 77.731
1.49 137.279 77.526
1.50 138.343 77.331
1.51 139.519 76.889
1.52 140.391 76.044
1.53 140.644 75.157
1.54 140.516 74.172
1.55 140.087 72.165
1.56 139.661 69.053
1.57 138.536 66.669
1.58 135.708 65.413
1.59 135.164 64.345
1.60 138.505 64.003
1.61 144.265 64.241
1.62 147.587 65.100
1.63 149.070 67.178
1.64 149.507 69.369
1.65 150.997 70.742
1.66 152.239 70.859
1.67 153.181 69.712
1.68 153.317 67.668
1.69 153.117 64.214
1.70 --undefined-- 58.445
1.71 --undefined-- 51.632
1.72 --undefined-- 48.000
1.73 --undefined-- 46.537
1.74 --undefined-- 45.664
1.75 --undefined-- 44.745
1.76 --undefined-- 43.654
1.77 --undefined-- 42.710
1.78 --undefined-- 43.810
1.79 --undefined-- 50.356
1.80 164.762 58.227
1.81 170.112 66.072
1.82 173.120 72.141
1.83 172.958 75.754
1.84 173.567 77.131
1.85 170.507 76.735
1.86 167.763 75.786
1.87 166.252 75.855
1.88 164.057 76.496
1.89 160.964 76.759
1.90 158.071 76.139
1.91 155.509 74.345
1.92 150.268 71.177
1.93 --undefined-- 66.290
1.94 --undefined-- 59.535
1.95 --undefined-- 53.512
1.96 --undefined-- 51.012
1.97 --undefined-- 49.378
1.98 --undefined-- 48.386
1.99 --undefined-- 50.189
2.00 --undefined-- 54.162
2.01 --undefined-- 56.396
2.02 --undefined-- 56.376
2.03 --undefined-- 57.517
2.04 175.246 62.472
2.05 172.919 66.910
2.06 174.173 69.325
2.07 178.271 70.126
2.08 180.044 70.125
2.09 180.204 69.797
2.10 179.126 68.650
2.11 176.337 65.852
2.12 164.993 60.879
2.13 --undefined-- 53.959
2.14 --undefined-- 47.587
2.15 --undefined-- 50.247
2.16 --undefined-- 61.882
2.17 --undefined-- 69.881
2.18 167.219 74.608
2.19 159.165 76.803
2.20 151.460 76.902
2.21 141.852 75.678
2.22 136.347 74.474
2.23 134.489 73.682
2.24 133.590 72.804
2.25 132.137 71.645
2.26 130.050 70.162
2.27 128.121 68.358
2.28 125.779 66.047
2.29 120.683 63.066
2.30 116.859 60.180
2.31 113.303 58.775
2.32 110.041 58.394
2.33 107.448 57.763
2.34 105.646 56.833
2.35 103.362 56.135
2.36 102.409 55.758
2.37 101.487 55.784
2.38 101.576 56.461
2.39 101.550 57.403
2.40 102.232 58.236
2.41 103.127 59.193
2.42 104.556 60.408
2.43 105.194 61.222
2.44 105.179 61.262
2.45 105.203 60.962
2.46 105.009 60.344
2.47 104.827 58.361
2.48 --undefined-- 54.150
2.49 --undefined-- 48.234
2.50 --undefined-- 44.059
2.51 --undefined-- 45.750
2.52 --undefined-- 51.643
2.53 --undefined-- 55.323
2.54 --undefined-- 58.281
2.55 --undefined-- 64.308
2.56 --undefined-- 69.494
2.57 120.718 72.847
2.58 119.779 75.125
2.59 121.218 76.825
2.60 125.184 78.189
2.61 130.964 79.555
2.62 136.029 80.823
2.63 141.298 81.285
2.64 146.634 80.548
2.65 151.200 78.723
2.66 153.958 75.588
2.67 153.908 70.514
2.68 152.886 63.348
2.69 --undefined-- 55.263
2.70 --undefined-- 48.382
2.71 --undefined-- 43.982
2.72 --undefined-- 40.345
2.73 --undefined-- 38.764
2.74 --undefined-- 49.003
2.75 --undefined-- 58.257
2.76 --undefined-- 66.003
2.77 155.569 71.636
2.78 154.460 74.454
2.79 150.204 74.592
2.80 142.342 72.984
2.81 140.580 71.499
2.82 138.159 70.440
2.83 137.737 69.157
2.84 138.839 67.652
2.85 140.255 65.111
2.86 133.716 60.750
2.87 --undefined-- 54.785
2.88 --undefined-- 48.728
2.89 --undefined-- 45.866
2.90 --undefined-- 49.790
2.91 --undefined-- 54.167
2.92 --undefined-- 56.985
2.93 --undefined-- 61.480
2.94 146.872 66.159
2.95 143.362 68.430
2.96 140.368 68.158
2.97 136.240 66.406
2.98 --undefined-- 65.089
2.99 --undefined-- 65.057
3.00 --undefined-- 65.952
3.01 --undefined-- 65.935
3.02 --undefined-- 64.089
3.03 --undefined-- 61.918
3.04 --undefined-- 61.024
3.05 --undefined-- 61.351
3.06 129.348 63.574
3.07 127.651 66.410
3.08 126.192 68.057
3.09 120.330 68.824
3.10 117.048 68.798
3.11 112.859 67.464
3.12 110.237 64.267
3.13 97.735 59.662
3.14 --undefined-- 55.234
3.15 --undefined-- 51.574
3.16 --undefined-- 51.429
3.17 104.585 54.170
3.18 106.263 57.012
3.19 109.886 59.496
3.20 116.108 62.235
3.21 120.483 65.464
3.22 123.391 68.246
3.23 125.792 69.717
3.24 125.499 69.789
3.25 123.101 68.900
3.26 119.242 67.460
3.27 118.069 65.570
3.28 116.945 62.918
3.29 111.443 59.032
3.30 --undefined-- 53.714
3.31 --undefined-- 48.362
3.32 --undefined-- 48.153
3.33 --undefined-- 54.396
3.34 113.362 60.728
3.35 115.729 65.218
3.36 115.796 67.904
3.37 114.308 69.082
3.38 112.479 68.901
3.39 109.915 67.290
3.40 106.359 64.121
3.41 103.294 60.032
3.42 101.383 57.187
3.43 100.920 56.894
3.44 99.509 60.389
3.45 104.410 65.256
3.46 101.883 68.371
3.47 101.803 69.791
3.48 100.512 70.019
3.49 98.118 69.034
3.50 99.935 67.939
3.51 93.059 67.241
3.52 93.721 67.001
3.53 91.067 66.913
3.54 94.667 67.521
3.55 93.694 68.419
3.56 97.837 69.596
3.57 96.833 70.963
3.58 105.116 72.630
3.59 105.130 73.767
3.60 112.649 73.692
3.61 110.763 71.725
3.62 114.196 68.385
3.63 117.008 66.311
3.64 118.969 65.375
3.65 120.077 65.926
3.66 127.710 69.431
3.67 126.450 72.627
3.68 127.169 74.109
3.69 126.512 73.983
3.70 126.196 72.423
3.71 124.880 69.897
3.72 123.397 66.862
3.73 121.125 63.259
3.74 116.690 59.070
3.75 112.832 54.603
3.76 --undefined-- 50.170
3.77 --undefined-- 45.688
3.78 --undefined-- 41.562
3.79 --undefined-- 38.846
3.80 --undefined-- 37.740
3.81 --undefined-- 37.654
3.82 --undefined-- 36.364
3.83 --undefined-- 33.943
3.84 --undefined-- 31.960
3.85 --undefined-- 32.359
3.86 --undefined-- 32.687
3.87 --undefined-- 30.810
3.88 --undefined-- 29.843
3.89 --undefined-- 29.786
3.90 --undefined-- 28.164
3.91 --undefined-- 27.261
3.92 --undefined-- 27.512
3.93 --undefined-- 26.863
3.94 --undefined-- 26.649
3.95 --undefined-- 27.195
3.96 --undefined-- 26.748
3.97 --undefined-- 25.639
3.98 --undefined-- 28.351
3.99 --undefined-- 38.793
4.00 --undefined-- 47.875
4.01 --undefined-- 55.797
4.02 --undefined-- 64.992
4.03 198.882 71.973
4.04 191.116 75.624
4.05 185.571 76.249
4.06 --undefined-- 73.760
4.07 --undefined-- 68.285
4.08 --undefined-- 60.548
4.09 --undefined-- 53.518
4.10 --undefined-- 51.680
4.11 --undefined-- 50.911
4.12 --undefined-- 49.520
4.13 --undefined-- 47.290
4.14 --undefined-- 43.833
4.15 --undefined-- 39.433
4.16 --undefined-- 35.125
4.17 --undefined-- 34.927
4.18 --undefined-- 39.958
4.19 --undefined-- 47.576
4.20 --undefined-- 54.139
4.21 --undefined-- 57.849
4.22 --undefined-- 59.079
4.23 --undefined-- 59.166
4.24 --undefined-- 60.227
4.25 194.606 62.867
4.26 193.013 65.489
4.27 193.968 66.952
4.28 193.671 67.417
4.29 192.248 67.559
4.30 189.750 67.651
4.31 186.547 67.785
4.32 181.690 68.715
4.33 174.404 70.273
4.34 168.961 71.479
4.35 148.975 72.856
4.36 141.607 74.764
4.37 136.127 76.420
4.38 125.599 77.247
4.39 122.320 77.307
4.40 120.849 76.750
4.41 120.989 75.636
4.42 121.992 74.105
4.43 124.415 72.536
4.44 127.102 71.586
4.45 130.536 71.081
4.46 133.773 70.662
4.47 137.719 70.534
4.48 141.645 70.773
4.49 144.544 70.805
4.50 146.769 70.221
4.51 148.219 68.866
4.52 152.925 66.700
4.53 151.425 64.161
4.54 144.383 61.849
4.55 140.477 59.900
4.56 135.546 58.653
4.57 131.495 60.929
4.58 138.554 65.848
4.59 138.255 69.601
4.60 136.187 71.592
4.61 --undefined-- 71.358
4.62 --undefined-- 68.679
4.63 --undefined-- 65.623
4.64 --undefined-- 64.943
4.65 --undefined-- 62.753
4.66 --undefined-- 59.357
4.67 --undefined-- 55.876
4.68 --undefined-- 49.655
4.69 --undefined-- 45.956
4.70 --undefined-- 45.235
4.71 --undefined-- 46.078
4.72 --undefined-- 48.474
4.73 --undefined-- 50.659
4.74 --undefined-- 53.091
4.75 --undefined-- 55.627
4.76 125.540 57.625
4.77 129.132 59.758
4.78 130.198 62.443
4.79 132.182 66.198
4.80 137.224 70.365
4.81 137.673 73.313
4.82 137.313 74.666
4.83 136.818 74.828
4.84 136.976 73.977
4.85 136.935 72.091
4.86 135.278 69.001
4.87 131.614 64.500
4.88 126.206 59.364
4.89 --undefined-- 55.181
4.90 --undefined-- 52.478
4.91 --undefined-- 50.019
4.92 --undefined-- 47.092
4.93 --undefined-- 43.598
4.94 --undefined-- 39.928
4.95 --undefined-- 35.951
4.96 --undefined-- 35.628
4.97 --undefined-- 39.064
4.98 --undefined-- 41.886
4.99 --undefined-- 43.562
5.00 --undefined-- 44.047
5.01 --undefined-- 43.595
5.02 --undefined-- 42.432
5.03 --undefined-- 41.156
5.04 --undefined-- 40.804
5.05 --undefined-- 41.082
5.06 --undefined-- 41.281
5.07 --undefined-- 41.059
5.08 --undefined-- 39.571
5.09 --undefined-- 36.407
5.10 --undefined-- 31.808
5.11 --undefined-- 30.291
5.12 --undefined-- 31.968
5.13 --undefined-- 31.967
5.14 --undefined-- 30.542
5.15 --undefined-- 30.081
5.16 --undefined-- 30.870
5.17 --undefined-- 31.750
5.18 --undefined-- 32.761
5.19 --undefined-- 33.138
5.20 --undefined-- 31.633
5.21 --undefined-- 29.080
5.22 --undefined-- 29.582
5.23 --undefined-- 31.388
5.24 --undefined-- 32.157
5.25 --undefined-- 32.907
5.26 --undefined-- 33.688
5.27 --undefined-- 33.366
5.28 --undefined-- 31.996
5.29 --undefined-- 30.442
5.30 --undefined-- 29.335
5.31 --undefined-- 29.929
5.32 --undefined-- 30.768
5.33 --undefined-- 30.587
5.34 --undefined-- 31.079
5.35 --undefined-- 32.015
5.36 --undefined-- 34.368
5.37 --undefined-- 40.567
5.38 --undefined-- 50.761
5.39 --undefined-- 61.101
5.40 144.981 67.806
5.41 143.836 71.587
5.42 143.782 73.045
5.43 143.139 72.723
5.44 141.849 71.027
5.45 137.583 68.068
5.46 132.884 63.944
5.47 126.417 59.377
5.48 --undefined-- 55.512
5.49 --undefined-- 54.299
5.50 --undefined-- 55.883
5.51 --undefined-- 57.167
5.52 --undefined-- 57.276
5.53 --undefined-- 57.072
5.54 --undefined-- 57.096
5.55 --undefined-- 58.060
5.56 --undefined-- 63.993
5.57 190.933 70.373
5.58 192.239 74.600
5.59 193.005 77.047
5.60 191.121 78.413
5.61 188.956 78.881
5.62 187.740 78.369
5.63 186.871 76.970
5.64 186.262 75.017
5.65 185.733 72.537
5.66 183.449 69.428
5.67 181.984 67.185
5.68 179.217 66.353
5.69 174.938 65.332
5.70 168.418 63.125
5.71 160.018 59.490
5.72 --undefined-- 55.388
5.73 --undefined-- 58.165
5.74 --undefined-- 64.394
5.75 145.236 68.586
5.76 144.856 71.544
5.77 146.104 73.485
5.78 148.329 73.960
5.79 151.503 73.045
5.80 155.603 71.159
5.81 157.586 68.615
5.82 159.653 65.765
5.83 163.387 63.874
5.84 162.558 63.170
5.85 159.530 62.660
5.86 155.044 62.406
5.87 149.519 63.190
5.88 142.062 64.909
5.89 136.621 66.877
5.90 --undefined-- 68.123
5.91 --undefined-- 68.014
5.92 --undefined-- 66.629
5.93 --undefined-- 65.126
5.94 --undefined-- 63.711
5.95 --undefined-- 60.481
5.96 --undefined-- 56.092
5.97 --undefined-- 51.552
5.98 --undefined-- 47.104
5.99 --undefined-- 46.766
6.00 --undefined-- 47.048
6.01 --undefined-- 47.388
6.02 --undefined-- 48.259
6.03 --undefined-- 48.653
6.04 --undefined-- 47.530
6.05 --undefined-- 44.847
6.06 --undefined-- 49.643
6.07 --undefined-- 57.307
6.08 139.929 64.375
6.09 135.522 69.476
6.10 133.191 72.688
6.11 133.226 74.203
6.12 131.107 74.070
6.13 128.139 72.041
6.14 --undefined-- 67.613
6.15 --undefined-- 60.814
6.16 --undefined-- 53.787
6.17 --undefined-- 50.959
6.18 --undefined-- 49.511
6.19 --undefined-- 47.212
6.20 --undefined-- 44.470
6.21 --undefined-- 42.107
6.22 --undefined-- 39.628
6.23 --undefined-- 38.673
6.24 --undefined-- 49.247
6.25 --undefined-- 59.001
6.26 --undefined-- 64.234
6.27 --undefined-- 65.488
6.28 --undefined-- 63.666
6.29 --undefined-- 61.083
6.30 --undefined-- 60.212
6.31 --undefined-- 61.887
6.32 --undefined-- 64.782
6.33 --undefined-- 68.504
6.34 --undefined-- 71.251
6.35 --undefined-- 71.928
6.36 --undefined-- 71.292
6.37 124.911 69.863
6.38 125.506 68.187
6.39 128.003 66.281
6.40 129.446 63.497
6.41 135.730 60.844
6.42 141.337 60.469
6.43 144.433 60.939
6.44 146.469 61.189
6.45 148.583 61.272
6.46 148.809 61.245
6.47 147.657 60.441
6.48 143.734 58.034
6.49 --undefined-- 53.646
6.50 --undefined-- 47.540
6.51 --undefined-- 41.245
6.52 --undefined-- 37.269
6.53 --undefined-- --undefined--
6.54 --undefined-- --undefined--
6.55 --undefined-- --undefined--
6.56 --undefined-- --undefined--
