Time Pitch Intensity
0.01 --undefined-- --undefined--
0.02 187.844 --undefined--
0.03 188.612 --undefined--
0.04 192.226 --undefined--
0.05 196.862 67.462
0.06 200.628 67.412
0.07 204.739 67.309
0.08 207.957 66.436
0.09 211.399 64.775
0.10 216.809 63.130
0.11 222.983 61.408
0.12 224.621 58.555
0.13 229.692 55.706
0.14 --undefined-- 59.941
0.15 --undefined-- 62.995
0.16 --undefined-- 61.939
0.17 --undefined-- 58.684
0.18 --undefined-- 61.274
0.19 219.270 64.511
0.20 212.761 66.190
0.21 204.981 67.445
0.22 196.160 68.243
0.23 190.336 68.257
0.24 187.281 68.001
0.25 184.148 68.089
0.26 183.407 68.258
0.27 179.070 68.152
0.28 166.962 67.972
0.29 155.564 68.033
0.30 148.326 68.367
0.31 143.000 68.481
0.32 138.660 67.227
0.33 134.697 63.714
0.34 129.478 57.715
0.35 --undefined-- 50.601
0.36 --undefined-- 47.149
0.37 --undefined-- 45.550
0.38 --undefined-- 43.663
0.39 --undefined-- 41.795
0.40 --undefined-- 41.492
0.41 --undefined-- 43.725
0.42 --undefined-- 49.517
0.43 --undefined-- 55.870
0.44 --undefined-- 60.545
0.45 --undefined-- 63.154
0.46 --undefined-- 64.194
0.47 --undefined-- 63.955
0.48 --undefined-- 62.810
0.49 194.553 64.737
0.50 193.695 68.647
0.51 196.949 71.026
0.52 201.511 72.131
0.53 209.026 72.854
0.54 222.302 73.317
0.55 237.962 73.494
0.56 250.413 73.968
0.57 255.577 74.488
0.58 258.087 73.884
0.59 255.120 71.330
0.60 239.463 67.058
0.61 228.981 64.365
0.62 223.194 64.295
0.63 217.971 64.352
0.64 207.569 64.462
0.65 --undefined-- 64.979
0.66 --undefined-- 66.113
0.67 --undefined-- 67.363
0.68 154.440 67.910
0.69 150.552 67.353
0.70 147.765 65.499
0.71 149.327 63.402
0.72 153.471 63.200
0.73 159.418 64.128
0.74 167.161 65.172
0.75 176.317 66.023
0.76 187.520 66.689
0.77 199.556 67.218
0.78 207.142 67.373
0.79 213.373 67.174
0.80 211.619 66.629
0.81 208.384 65.965
0.82 209.462 65.707
0.83 212.598 66.402
0.84 210.578 68.473
0.85 208.887 70.574
0.86 209.309 71.769
0.87 209.969 71.771
0.88 209.383 70.775
0.89 207.726 69.283
0.90 205.265 68.188
0.91 202.800 67.435
0.92 204.168 65.127
0.93 --undefined-- 59.855
0.94 --undefined-- 51.882
0.95 --undefined-- 49.077
0.96 --undefined-- 54.885
0.97 --undefined-- 62.388
0.98 --undefined-- 67.412
0.99 --undefined-- 69.517
1.00 168.524 69.290
1.01 166.012 67.463
1.02 165.150 65.382
1.03 159.591 65.156
1.04 157.000 65.494
1.05 154.187 65.080
1.06 149.650 64.296
1.07 147.549 63.387
1.08 144.489 61.927
1.09 141.625 60.042
1.10 139.855 57.881
1.11 138.185 54.942
1.12 --undefined-- 51.362
1.13 --undefined-- 49.846
1.14 --undefined-- 51.389
1.15 --undefined-- 52.863
1.16 --undefined-- 54.047
1.17 --undefined-- 54.662
1.18 --undefined-- 59.169
1.19 226.368 65.840
1.20 211.480 70.040
1.21 209.931 72.091
1.22 209.238 72.449
1.23 205.745 71.277
1.24 204.086 69.472
1.25 203.454 68.187
1.26 201.671 66.886
1.27 200.602 64.941
1.28 197.671 62.122
1.29 196.581 58.771
1.30 --undefined-- 60.133
1.31 --undefined-- 65.352
1.32 --undefined-- 67.283
1.33 --undefined-- 67.470
1.34 --undefined-- 70.289
1.35 --undefined-- 72.516
1.36 --undefined-- 72.037
1.37 --undefined-- 68.976
1.38 --undefined-- 64.189
1.39 --undefined-- 58.571
1.40 --undefined-- 53.228
1.41 --undefined-- 49.576
1.42 --undefined-- 45.862
1.43 --undefined-- 41.896
1.44 --undefined-- 40.411
1.45 --undefined-- 41.014
1.46 --undefined-- 40.935
1.47 --undefined-- 46.413
1.48 --undefined-- 53.053
1.49 --undefined-- 58.056
1.50 --undefined-- 62.185
1.51 --undefined-- 64.551
1.52 --undefined-- 65.148
1.53 --undefined-- 65.485
1.54 --undefined-- 66.710
1.55 164.619 67.417
1.56 160.779 67.020
1.57 160.825 66.247
1.58 162.529 65.813
1.59 166.297 65.953
1.60 170.862 66.364
1.61 173.827 65.687
1.62 174.169 62.758
1.63 169.858 57.297
1.64 168.212 50.436
1.65 --undefined-- 50.259
1.66 --undefined-- 59.429
1.67 171.698 66.308
1.68 169.464 69.979
1.69 167.432 70.743
1.70 160.957 69.143
1.71 155.638 66.325
1.72 151.196 63.504
1.73 145.248 60.294
1.74 --undefined-- 55.389
1.75 --undefined-- 48.231
1.76 --undefined-- 42.400
1.77 --undefined-- 40.846
1.78 --undefined-- 41.923
1.79 --undefined-- 46.976
1.80 --undefined-- 54.454
1.81 --undefined-- 62.655
1.82 206.805 68.802
1.83 201.547 71.874
1.84 197.052 72.482
1.85 195.407 71.778
1.86 194.478 70.804
1.87 193.583 69.895
1.88 192.245 68.977
1.89 190.474 67.896
1.90 188.089 66.344
1.91 185.247 63.795
1.92 180.651 59.767
1.93 --undefined-- 54.922
1.94 --undefined-- 51.452
1.95 --undefined-- 50.345
1.96 --undefined-- 52.896
1.97 --undefined-- 57.244
1.98 --undefined-- 63.263
1.99 --undefined-- 68.040
2.00 --undefined-- 70.306
2.01 153.430 70.573
2.02 148.733 69.615
2.03 144.887 68.742
2.04 140.999 68.460
2.05 138.357 67.772
2.06 133.939 65.759
2.07 129.492 61.803
2.08 --undefined-- 56.923
2.09 --undefined-- 56.563
2.10 --undefined-- 58.570
2.11 --undefined-- 59.517
2.12 --undefined-- 59.458
2.13 --undefined-- 58.590
2.14 --undefined-- 56.473
2.15 --undefined-- 58.606
2.16 161.772 64.242
2.17 163.964 67.688
2.18 165.522 68.977
2.19 161.262 68.714
2.20 134.985 67.384
2.21 135.011 64.331
2.22 --undefined-- 59.217
2.23 --undefined-- 53.982
2.24 --undefined-- 49.482
2.25 --undefined-- 45.892
2.26 --undefined-- 43.915
2.27 --undefined-- 42.223
2.28 --undefined-- 42.126
2.29 --undefined-- 43.644
2.30 --undefined-- 45.368
2.31 --undefined-- 46.645
2.32 --undefined-- 49.543
2.33 --undefined-- 55.101
2.34 --undefined-- 58.941
2.35 144.500 60.224
2.36 142.115 60.265
2.37 142.242 60.354
2.38 142.786 59.923
2.39 143.149 59.030
2.40 143.903 58.643
2.41 144.391 58.392
2.42 145.446 57.932
2.43 147.393 57.140
2.44 149.592 55.627
2.45 150.737 53.811
2.46 155.331 54.886
2.47 --undefined-- 59.755
2.48 --undefined-- 64.947
2.49 --undefined-- 68.447
2.50 --undefined-- 69.781
2.51 144.006 69.976
2.52 141.660 69.842
2.53 139.895 69.055
2.54 138.432 68.164
2.55 138.699 68.095
2.56 139.674 68.859
2.57 141.528 69.975
2.58 143.817 70.486
2.59 145.833 69.766
2.60 148.779 67.950
2.61 151.785 66.115
2.62 151.535 64.846
2.63 151.458 63.589
2.64 159.493 64.358
2.65 163.328 67.299
2.66 162.961 69.081
2.67 160.742 68.600
2.68 154.753 65.826
2.69 145.914 61.586
2.70 142.682 57.214
2.71 --undefined-- 52.275
2.72 --undefined-- 47.074
2.73 --undefined-- 43.850
2.74 --undefined-- 41.914
2.75 --undefined-- 40.606
2.76 --undefined-- 39.635
2.77 --undefined-- 44.432
2.78 --undefined-- 49.918
2.79 --undefined-- 52.071
2.80 --undefined-- 53.147
2.81 --undefined-- 55.301
2.82 --undefined-- 57.594
2.83 --undefined-- 59.404
2.84 --undefined-- 59.796
2.85 --undefined-- 58.602
2.86 --undefined-- 57.483
2.87 147.123 58.510
2.88 142.731 59.878
2.89 142.223 60.466
2.90 138.540 60.400
2.91 139.702 60.006
2.92 140.035 59.534
2.93 141.420 59.049
2.94 142.990 58.704
2.95 144.857 58.702
2.96 151.084 59.380
2.97 158.300 61.330
2.98 164.901 63.839
2.99 172.506 65.993
3.00 176.442 67.590
3.01 178.080 68.499
3.02 175.068 68.591
3.03 166.919 67.957
3.04 158.872 67.021
3.05 151.742 66.167
3.06 147.372 65.438
3.07 147.873 64.591
3.08 152.032 63.125
3.09 150.296 60.856
3.10 146.980 57.608
3.11 146.361 52.907
3.12 --undefined-- 50.307
3.13 --undefined-- 57.747
3.14 156.841 64.524
3.15 151.206 68.211
3.16 136.952 69.685
3.17 134.698 70.196
3.18 133.941 69.783
3.19 133.841 68.134
3.20 133.275 66.496
3.21 135.864 66.184
3.22 138.139 66.383
3.23 141.202 66.559
3.24 144.006 66.317
3.25 146.316 65.119
3.26 148.835 62.889
3.27 153.368 60.403
3.28 161.253 62.268
3.29 158.154 65.760
3.30 151.763 66.910
3.31 141.755 66.152
3.32 136.770 64.766
3.33 133.275 62.898
3.34 127.478 59.786
3.35 --undefined-- 54.696
3.36 --undefined-- 48.023
3.37 --undefined-- 44.722
3.38 --undefined-- 44.708
3.39 --undefined-- 46.681
3.40 --undefined-- 50.784
3.41 --undefined-- 53.847
3.42 --undefined-- 56.110
3.43 --undefined-- 57.874
3.44 --undefined-- 57.660
3.45 --undefined-- 57.364
3.46 --undefined-- 60.809
3.47 146.702 64.031
3.48 145.581 65.985
3.49 146.726 67.601
3.50 148.022 69.535
3.51 149.244 71.387
3.52 149.385 72.352
3.53 148.526 72.078
3.54 148.300 71.123
3.55 149.134 70.586
3.56 148.860 70.308
3.57 147.396 69.461
3.58 144.087 67.497
3.59 141.365 63.644
3.60 --undefined-- 57.063
3.61 --undefined-- 48.570
3.62 --undefined-- 44.898
3.63 --undefined-- 43.951
3.64 --undefined-- 42.980
3.65 --undefined-- 41.654
3.66 --undefined-- 40.493
3.67 --undefined-- 43.275
3.68 --undefined-- 54.768
3.69 --undefined-- 62.026
3.70 --undefined-- 64.472
3.71 --undefined-- 64.329
3.72 --undefined-- 68.200
3.73 --undefined-- 71.798
3.74 165.472 72.590
3.75 162.422 71.984
3.76 158.941 71.449
3.77 156.773 70.520
3.78 157.338 68.162
3.79 --undefined-- 63.453
3.80 --undefined-- 56.116
3.81 --undefined-- 51.560
3.82 --undefined-- 52.438
3.83 150.961 53.656
3.84 150.213 54.283
3.85 150.026 53.665
3.86 151.474 51.923
3.87 --undefined-- 49.220
3.88 --undefined-- 45.998
3.89 --undefined-- 43.465
3.90 --undefined-- 41.938
3.91 --undefined-- 41.096
3.92 --undefined-- 41.534
3.93 --undefined-- 42.169
3.94 --undefined-- 43.302
3.95 --undefined-- 45.879
3.96 --undefined-- 48.609
3.97 --undefined-- 50.493
3.98 --undefined-- 50.939
3.99 --undefined-- 50.516
4.00 --undefined-- 50.329
4.01 --undefined-- 50.314
4.02 --undefined-- 50.577
4.03 --undefined-- 51.079
4.04 --undefined-- 51.524
4.05 --undefined-- 51.549
4.06 --undefined-- 51.639
4.07 --undefined-- 52.438
4.08 --undefined-- 53.478
4.09 --undefined-- 53.959
4.10 --undefined-- 54.053
4.11 --undefined-- 53.851
4.12 --undefined-- 53.647
4.13 --undefined-- 54.124
4.14 --undefined-- 55.192
4.15 --undefined-- 55.809
4.16 --undefined-- 56.070
4.17 --undefined-- 56.419
4.18 --undefined-- 56.322
4.19 --undefined-- 56.701
4.20 --undefined-- 57.604
4.21 --undefined-- 57.822
4.22 --undefined-- 57.517
4.23 --undefined-- 56.982
4.24 --undefined-- 56.378
4.25 --undefined-- 56.042
4.26 --undefined-- 55.542
4.27 --undefined-- 55.289
4.28 --undefined-- 55.379
4.29 --undefined-- 54.502
4.30 --undefined-- 53.127
4.31 --undefined-- 52.640
4.32 --undefined-- 51.866
4.33 --undefined-- 50.118
4.34 --undefined-- 48.174
4.35 --undefined-- 45.513
4.36 --undefined-- 42.511
4.37 --undefined-- 40.192
4.38 --undefined-- 38.597
4.39 --undefined-- 38.353
4.40 --undefined-- 40.570
4.41 --undefined-- 51.000
4.42 --undefined-- 60.878
4.43 --undefined-- 67.407
4.44 --undefined-- 71.014
4.45 --undefined-- 72.255
4.46 193.528 71.843
4.47 189.774 71.026
4.48 186.462 70.632
4.49 185.176 70.522
4.50 187.063 70.392
4.51 188.924 70.522
4.52 191.519 70.756
4.53 194.970 70.626
4.54 199.137 69.749
4.55 204.067 68.094
4.56 213.139 66.698
4.57 219.111 66.055
4.58 224.857 65.080
4.59 231.381 63.629
4.60 247.049 64.761
4.61 274.044 68.532
4.62 280.632 70.229
4.63 289.004 69.446
4.64 298.573 67.746
4.65 153.030 67.296
4.66 153.558 67.867
4.67 154.152 68.431
4.68 154.413 68.613
4.69 154.507 68.237
4.70 153.551 67.387
4.71 151.529 66.169
4.72 148.309 64.648
4.73 147.134 63.373
4.74 147.284 62.549
4.75 147.864 62.240
4.76 149.456 62.400
4.77 292.584 62.314
4.78 279.669 63.970
4.79 254.046 68.742
4.80 239.175 72.675
4.81 222.535 74.413
4.82 206.061 74.594
4.83 197.455 74.463
4.84 192.073 74.255
4.85 186.623 73.629
4.86 182.127 72.615
4.87 178.816 71.771
4.88 176.997 71.397
4.89 176.860 71.154
4.90 178.415 70.993
4.91 180.436 70.816
4.92 182.154 70.587
4.93 183.647 70.252
4.94 188.317 69.395
4.95 195.701 68.117
4.96 201.549 67.827
4.97 207.863 69.403
4.98 214.177 71.794
4.99 215.728 73.420
5.00 216.315 73.920
5.01 216.190 73.808
5.02 214.507 73.299
5.03 211.370 71.945
5.04 208.028 69.201
5.05 201.825 65.209
5.06 196.675 60.198
5.07 --undefined-- 53.696
5.08 --undefined-- 47.963
5.09 --undefined-- 49.633
5.10 --undefined-- 55.605
5.11 --undefined-- 63.952
5.12 186.656 69.330
5.13 183.998 71.678
5.14 176.430 72.274
5.15 169.992 72.048
5.16 163.415 71.058
5.17 158.942 69.199
5.18 154.989 66.563
5.19 149.992 64.466
5.20 147.567 64.035
5.21 146.178 63.750
5.22 146.156 63.216
5.23 146.816 63.176
5.24 144.866 63.598
5.25 144.426 64.258
5.26 143.519 64.293
5.27 143.571 63.262
5.28 144.874 --undefined--
5.29 145.445 --undefined--
5.30 --undefined-- --undefined--
5.31 --undefined-- --undefined--
