Time Pitch Intensity
0.01 --undefined-- --undefined--
0.02 --undefined-- --undefined--
0.03 --undefined-- --undefined--
0.04 --undefined-- --undefined--
0.05 --undefined-- 47.827
0.06 --undefined-- 47.478
0.07 --undefined-- 46.121
0.08 --undefined-- 44.942
0.09 --undefined-- 44.449
0.10 --undefined-- 43.284
0.11 --undefined-- 41.998
0.12 --undefined-- 41.376
0.13 --undefined-- 40.706
0.14 --undefined-- 39.418
0.15 --undefined-- 38.234
0.16 --undefined-- 37.925
0.17 --undefined-- 38.074
0.18 --undefined-- 37.861
0.19 --undefined-- 37.798
0.20 --undefined-- 38.226
0.21 --undefined-- 38.513
0.22 --undefined-- 41.047
0.23 --undefined-- 51.990
0.24 --undefined-- 60.324
0.25 --undefined-- 64.566
0.26 --undefined-- 66.095
0.27 --undefined-- 67.974
0.28 --undefined-- 70.138
0.29 --undefined-- 70.493
0.30 --undefined-- 69.396
0.31 --undefined-- 67.560
0.32 --undefined-- 65.161
0.33 --undefined-- 62.252
0.34 143.413 60.470
0.35 144.159 60.535
0.36 144.657 60.715
0.37 144.787 60.801
0.38 144.349 60.926
0.39 143.576 61.052
0.40 142.254 61.118
0.41 140.693 61.186
0.42 139.164 61.358
0.43 138.717 61.637
0.44 137.652 61.916
0.45 137.172 62.110
0.46 136.506 62.385
0.47 135.728 62.717
0.48 135.222 62.886
0.49 135.263 62.975
0.50 135.568 62.974
0.51 134.867 62.468
0.52 132.900 61.113
0.53 127.762 59.182
0.54 122.882 57.371
0.55 122.847 55.365
0.56 121.955 53.990
0.57 --undefined-- 58.234
0.58 --undefined-- 61.735
0.59 --undefined-- 63.368
0.60 124.358 66.925
0.61 124.386 70.094
0.62 122.752 71.414
0.63 120.263 71.531
0.64 116.676 71.023
0.65 115.188 70.436
0.66 113.171 70.047
0.67 111.873 69.419
0.68 111.543 68.029
0.69 112.238 65.990
0.70 114.331 64.520
0.71 115.123 64.042
0.72 115.083 63.368
0.73 111.660 61.910
0.74 110.701 59.647
0.75 106.426 56.592
0.76 103.384 52.670
0.77 106.758 48.503
0.78 105.712 45.389
0.79 --undefined-- 42.784
0.80 --undefined-- 39.864
0.81 --undefined-- 38.444
0.82 --undefined-- 43.469
0.83 --undefined-- 52.524
0.84 --undefined-- 59.702
0.85 --undefined-- 63.078
0.86 --undefined-- 62.857
0.87 --undefined-- 62.791
0.88 --undefined-- 67.269
0.89 --undefined-- 70.193
0.90 141.166 70.806
0.91 137.804 70.222
0.92 136.058 69.349
0.93 133.420 68.242
0.94 131.405 66.372
0.95 130.846 63.954
0.96 130.712 61.668
0.97 132.190 59.911
0.98 132.118 58.956
0.99 130.420 58.880
1.00 128.689 59.288
1.01 126.436 59.841
1.02 124.522 60.274
1.03 122.239 60.412
1.04 120.287 60.375
1.05 116.949 60.401
1.06 114.567 60.512
1.07 108.842 61.039
1.08 103.517 62.910
1.09 100.093 65.690
1.10 97.269 68.092
1.11 --undefined-- 69.456
1.12 --undefined-- 69.655
1.13 --undefined-- 69.026
1.14 81.545 68.062
1.15 80.193 67.108
1.16 77.787 66.293
1.17 77.978 65.875
1.18 77.512 65.725
1.19 75.783 65.412
1.20 75.362 65.279
1.21 --undefined-- 65.583
1.22 --undefined-- 65.760
1.23 --undefined-- 65.138
1.24 75.368 64.391
1.25 75.721 64.513
1.26 76.191 65.160
1.27 76.854 65.852
1.28 76.185 66.328
1.29 75.857 66.362
1.30 76.098 65.982
1.31 76.691 65.584
1.32 75.600 65.349
1.33 74.544 65.107
1.34 74.973 64.735
1.35 76.022 64.220
1.36 83.893 63.230
1.37 75.724 62.506
1.38 76.430 63.116
1.39 77.054 63.715
1.40 77.675 63.641
1.41 79.853 63.302
1.42 80.427 62.764
1.43 81.049 61.350
1.44 82.498 59.100
1.45 84.679 56.977
1.46 85.072 55.345
1.47 86.294 54.104
1.48 86.736 54.095
1.49 88.315 55.291
1.50 90.300 57.184
1.51 91.977 59.103
1.52 93.304 60.483
1.53 94.653 61.337
1.54 94.928 61.940
1.55 94.611 62.230
1.56 94.724 62.160
1.57 96.144 61.896
1.58 96.185 61.460
1.59 94.904 60.627
1.60 95.053 59.731
1.61 94.033 59.310
1.62 94.185 59.504
1.63 94.716 59.920
1.64 92.832 59.753
1.65 91.995 59.179
1.66 91.406 58.435
1.67 93.397 58.015
1.68 93.313 57.607
1.69 93.812 56.861
1.70 91.642 55.583
1.71 88.028 53.236
1.72 --undefined-- 49.381
1.73 --undefined-- 44.240
1.74 --undefined-- 39.972
1.75 --undefined-- 38.543
1.76 --undefined-- 39.567
1.77 --undefined-- 44.657
1.78 --undefined-- 49.587
1.79 --undefined-- 52.915
1.80 --undefined-- 57.468
1.81 --undefined-- 59.633
1.82 --undefined-- 57.657
1.83 --undefined-- 53.896
1.84 --undefined-- 56.279
1.85 --undefined-- 59.417
1.86 95.123 61.468
1.87 94.348 63.130
1.88 93.513 64.370
1.89 94.800 64.963
1.90 98.506 65.433
1.91 101.704 66.097
1.92 107.181 66.378
1.93 115.163 65.584
1.94 115.148 63.515
1.95 120.813 61.367
1.96 126.135 61.101
1.97 126.647 61.548
1.98 127.476 61.624
1.99 127.340 61.282
2.00 125.747 60.548
2.01 122.578 59.220
2.02 117.727 58.040
2.03 --undefined-- 59.125
2.04 --undefined-- 63.549
2.05 --undefined-- 67.914
2.06 114.423 70.200
2.07 115.069 70.624
2.08 111.794 69.539
2.09 106.767 66.935
2.10 102.837 62.539
2.11 100.646 56.979
2.12 100.595 54.622
2.13 100.264 54.787
2.14 100.004 55.140
2.15 98.118 55.468
2.16 95.525 55.340
2.17 94.668 54.736
2.18 93.447 54.329
2.19 92.580 56.111
2.20 --undefined-- 61.236
2.21 90.169 65.373
2.22 90.476 67.654
2.23 89.948 68.641
2.24 88.963 68.584
2.25 86.312 68.053
2.26 81.084 67.500
2.27 80.973 67.101
2.28 81.234 67.102
2.29 81.393 67.176
2.30 80.722 67.077
2.31 82.038 66.954
2.32 82.375 66.768
2.33 83.062 66.354
2.34 84.164 65.587
2.35 85.623 64.116
2.36 86.669 61.759
2.37 88.842 59.249
2.38 91.130 57.832
2.39 93.725 57.363
2.40 94.991 56.901
2.41 96.637 56.506
2.42 96.582 56.866
2.43 96.704 57.783
2.44 96.996 58.431
2.45 99.697 58.624
2.46 99.325 58.686
2.47 100.028 58.640
2.48 100.568 58.264
2.49 100.600 56.837
2.50 99.562 53.838
2.51 97.638 49.299
2.52 --undefined-- 44.678
2.53 --undefined-- 45.762
2.54 --undefined-- 51.205
2.55 --undefined-- 56.445
2.56 --undefined-- 59.590
2.57 --undefined-- 63.098
2.58 --undefined-- 67.891
2.59 --undefined-- 70.554
2.60 --undefined-- 70.668
2.61 --undefined-- 69.233
2.62 --undefined-- 67.343
2.63 --undefined-- 64.934
2.64 --undefined-- 61.846
2.65 --undefined-- 58.458
2.66 --undefined-- 56.641
2.67 --undefined-- 56.813
2.68 --undefined-- 57.451
2.69 --undefined-- 57.727
2.70 76.472 57.430
2.71 82.633 58.106
2.72 83.383 59.648
2.73 84.210 60.223
2.74 --undefined-- 58.904
2.75 --undefined-- 55.148
2.76 87.760 50.567
2.77 87.482 50.003
2.78 87.375 50.651
2.79 87.381 50.689
2.80 87.230 50.075
2.81 86.927 49.286
2.82 87.068 49.034
2.83 86.982 49.257
2.84 86.341 49.143
2.85 85.432 48.669
2.86 87.102 48.756
2.87 87.742 49.685
2.88 88.399 50.631
2.89 91.980 51.457
2.90 93.120 52.803
2.91 95.743 56.312
2.92 100.091 61.414
2.93 100.892 64.639
2.94 101.076 65.671
2.95 100.488 65.326
2.96 99.486 63.721
2.97 95.194 60.655
2.98 --undefined-- 57.875
2.99 --undefined-- 58.778
3.00 --undefined-- 58.665
3.01 --undefined-- 55.763
3.02 --undefined-- 53.059
3.03 --undefined-- 51.773
3.04 --undefined-- 50.548
3.05 --undefined-- 49.410
3.06 --undefined-- 48.035
3.07 --undefined-- 46.919
3.08 --undefined-- 45.946
3.09 --undefined-- 44.826
3.10 --undefined-- 43.164
3.11 --undefined-- 41.093
3.12 --undefined-- 39.315
3.13 --undefined-- 38.295
3.14 --undefined-- 38.052
3.15 --undefined-- 37.969
3.16 --undefined-- 37.850
3.17 --undefined-- 37.722
3.18 --undefined-- 37.458
3.19 --undefined-- 37.671
3.20 --undefined-- 41.479
3.21 --undefined-- 48.202
3.22 --undefined-- 53.692
3.23 --undefined-- 57.188
3.24 --undefined-- 58.375
3.25 --undefined-- 60.844
3.26 --undefined-- 65.833
3.27 119.273 68.744
3.28 119.501 69.271
3.29 --undefined-- 68.190
3.30 --undefined-- 67.094
3.31 --undefined-- 66.462
3.32 103.186 66.105
3.33 103.661 65.694
3.34 105.631 64.825
3.35 105.907 63.754
3.36 106.112 62.766
3.37 104.912 62.162
3.38 102.345 62.027
3.39 102.018 61.880
3.40 101.475 61.288
3.41 101.603 60.751
3.42 101.207 60.948
3.43 100.187 61.517
3.44 100.502 61.889
3.45 100.243 62.024
3.46 101.529 62.253
3.47 101.552 62.269
3.48 101.119 61.705
3.49 100.874 60.452
3.50 100.709 58.766
3.51 101.148 57.676
3.52 --undefined-- 57.421
3.53 --undefined-- 57.297
3.54 --undefined-- 56.882
3.55 --undefined-- 57.297
3.56 --undefined-- 58.546
3.57 --undefined-- 59.167
3.58 --undefined-- 59.163
3.59 --undefined-- 59.568
3.60 --undefined-- 60.248
3.61 --undefined-- 60.385
3.62 --undefined-- 59.660
3.63 --undefined-- 61.860
3.64 --undefined-- 67.308
3.65 --undefined-- 70.198
3.66 132.717 70.450
3.67 130.253 69.316
3.68 128.753 67.920
3.69 128.312 66.477
3.70 127.334 64.272
3.71 124.933 60.461
3.72 124.379 56.148
3.73 122.830 54.736
3.74 121.559 54.783
3.75 121.035 54.745
3.76 121.265 54.901
3.77 121.649 55.265
3.78 121.679 55.539
3.79 121.181 55.676
3.80 119.946 55.807
3.81 119.040 55.910
3.82 118.252 56.126
3.83 117.299 56.598
3.84 116.585 56.979
3.85 116.742 57.186
3.86 116.840 57.383
3.87 116.052 57.562
3.88 115.533 57.839
3.89 114.788 58.130
3.90 114.222 58.261
3.91 112.876 58.191
3.92 111.454 57.715
3.93 107.926 56.598
3.94 106.897 54.599
3.95 105.334 51.293
3.96 --undefined-- 46.720
3.97 --undefined-- 43.149
3.98 --undefined-- 49.063
3.99 --undefined-- 57.665
4.00 --undefined-- 63.072
4.01 --undefined-- 64.706
4.02 --undefined-- 62.514
4.03 --undefined-- 59.397
4.04 102.539 64.084
4.05 102.384 67.997
4.06 86.338 69.215
4.07 90.307 68.797
4.08 88.209 67.798
4.09 85.158 66.607
4.10 83.166 65.683
4.11 82.822 65.098
4.12 82.017 64.913
4.13 81.725 65.092
4.14 83.508 65.148
4.15 84.864 64.854
4.16 85.836 64.421
4.17 86.247 64.125
4.18 87.615 63.922
4.19 90.527 63.431
4.20 92.410 62.433
4.21 93.929 60.841
4.22 96.099 58.972
4.23 97.561 58.120
4.24 100.077 58.329
4.25 102.532 58.930
4.26 104.806 59.459
4.27 107.940 59.844
4.28 109.790 60.136
4.29 111.157 60.218
4.30 112.213 60.081
4.31 112.318 59.787
4.32 112.568 59.496
4.33 112.703 59.549
4.34 112.817 59.883
4.35 111.770 60.313
4.36 111.211 61.536
4.37 111.328 63.561
4.38 110.955 65.211
4.39 109.887 66.367
4.40 108.705 66.962
4.41 109.084 67.233
4.42 108.958 67.367
4.43 107.323 67.277
4.44 106.687 67.213
4.45 106.125 67.278
4.46 104.352 67.195
4.47 102.976 66.902
4.48 99.181 66.296
4.49 98.395 65.210
4.50 95.814 63.514
4.51 92.239 60.846
4.52 91.885 56.420
4.53 --undefined-- 50.063
4.54 --undefined-- 46.238
4.55 --undefined-- 48.636
4.56 --undefined-- 54.116
4.57 --undefined-- 61.011
4.58 --undefined-- 65.795
4.59 --undefined-- 67.951
4.60 --undefined-- 68.036
4.61 --undefined-- 67.118
4.62 87.911 66.326
4.63 83.705 65.902
4.64 83.453 65.666
4.65 83.722 65.331
4.66 84.677 65.164
4.67 85.381 65.339
4.68 85.404 65.609
4.69 84.368 65.663
4.70 85.342 65.518
4.71 86.383 65.312
4.72 86.197 64.860
4.73 86.565 64.135
4.74 86.665 63.867
4.75 85.312 64.265
4.76 84.710 65.175
4.77 85.190 66.578
4.78 85.367 67.807
4.79 85.108 68.328
4.80 84.783 68.411
4.81 85.067 68.516
4.82 84.602 68.304
4.83 85.000 67.776
4.84 85.489 67.473
4.85 85.604 67.104
4.86 85.663 66.435
4.87 87.387 65.824
4.88 86.380 65.027
4.89 85.360 63.828
4.90 --undefined-- 62.202
4.91 --undefined-- 58.979
4.92 --undefined-- 53.615
4.93 --undefined-- 47.018
4.94 --undefined-- 42.749
4.95 --undefined-- 41.232
4.96 --undefined-- 40.340
4.97 --undefined-- 39.969
4.98 --undefined-- 40.637
4.99 --undefined-- 42.285
5.00 --undefined-- 44.351
5.01 --undefined-- 45.860
5.02 --undefined-- 46.836
5.03 --undefined-- 47.286
5.04 --undefined-- 47.012
5.05 --undefined-- 46.578
5.06 --undefined-- 46.534
5.07 --undefined-- 45.552
5.08 --undefined-- 48.434
5.09 --undefined-- 54.066
5.10 --undefined-- 56.464
5.11 --undefined-- 56.396
5.12 --undefined-- 61.118
5.13 --undefined-- 66.919
5.14 119.728 69.754
5.15 120.074 70.179
5.16 118.271 69.681
5.17 118.704 69.558
5.18 119.171 69.556
5.19 120.876 69.159
5.20 122.394 68.606
5.21 123.320 67.989
5.22 123.568 67.001
5.23 123.026 65.435
5.24 122.697 63.566
5.25 121.676 61.928
5.26 120.067 60.384
5.27 118.026 59.148
5.28 114.869 59.081
5.29 112.388 59.874
5.30 109.210 60.956
5.31 107.894 63.410
5.32 106.811 66.346
5.33 105.946 --undefined--
5.34 105.850 --undefined--
5.35 --undefined-- --undefined--
5.36 --undefined-- --undefined--
