Time Pitch Intensity
0.01 --undefined-- --undefined--
0.02 --undefined-- --undefined--
0.03 --undefined-- --undefined--
0.04 --undefined-- --undefined--
0.05 --undefined-- 51.003
0.06 --undefined-- 55.878
0.07 --undefined-- 60.387
0.08 --undefined-- 62.970
0.09 --undefined-- 64.771
0.10 184.389 66.146
0.11 184.735 67.082
0.12 186.741 67.418
0.13 192.479 66.884
0.14 195.121 65.403
0.15 191.568 62.958
0.16 189.262 59.440
0.17 190.199 55.561
0.18 --undefined-- 53.697
0.19 --undefined-- 53.408
0.20 --undefined-- 52.923
0.21 --undefined-- 51.336
0.22 --undefined-- 49.994
0.23 --undefined-- 53.649
0.24 --undefined-- 59.602
0.25 206.436 63.312
0.26 195.950 65.525
0.27 187.690 66.971
0.28 184.553 67.484
0.29 183.879 67.091
0.30 184.992 66.269
0.31 189.434 65.517
0.32 195.400 64.735
0.33 200.949 63.315
0.34 198.261 61.060
0.35 187.373 58.805
0.36 183.460 57.446
0.37 185.901 56.706
0.38 186.752 56.529
0.39 191.141 57.012
0.40 197.796 58.101
0.41 220.845 60.237
0.42 242.196 63.003
0.43 240.607 64.863
0.44 235.531 65.653
0.45 235.506 65.855
0.46 236.450 65.804
0.47 238.064 65.849
0.48 240.410 66.020
0.49 241.587 66.136
0.50 242.505 66.215
0.51 242.927 66.275
0.52 242.688 66.298
0.53 242.195 66.207
0.54 240.813 65.763
0.55 236.958 64.337
0.56 228.612 61.253
0.57 215.823 56.415
0.58 --undefined-- 54.187
0.59 --undefined-- 59.807
0.60 254.927 64.496
0.61 243.464 66.931
0.62 240.331 68.106
0.63 238.113 68.676
0.64 236.756 68.851
0.65 236.565 68.779
0.66 237.148 68.647
0.67 237.588 68.481
0.68 238.138 68.219
0.69 239.034 68.021
0.70 239.917 67.911
0.71 240.585 67.793
0.72 240.502 67.690
0.73 240.343 67.360
0.74 239.947 66.519
0.75 238.955 65.704
0.76 240.504 65.674
0.77 239.257 65.781
0.78 237.156 65.725
0.79 234.785 65.668
0.80 231.496 65.758
0.81 230.031 66.147
0.82 220.432 66.686
0.83 213.254 67.320
0.84 205.151 68.444
0.85 199.970 69.959
0.86 196.647 71.319
0.87 195.728 72.191
0.88 196.925 72.709
0.89 195.959 73.394
0.90 194.528 74.338
0.91 191.956 74.769
0.92 188.882 73.859
0.93 --undefined-- 71.521
0.94 --undefined-- 68.493
0.95 --undefined-- 65.859
0.96 --undefined-- 63.498
0.97 --undefined-- 60.050
0.98 --undefined-- 55.626
0.99 --undefined-- 53.980
1.00 --undefined-- 56.681
1.01 --undefined-- 58.377
1.02 --undefined-- 57.727
1.03 --undefined-- 55.010
1.04 --undefined-- 53.357
1.05 --undefined-- 56.174
1.06 --undefined-- 58.370
1.07 --undefined-- 58.867
1.08 --undefined-- 57.721
1.09 --undefined-- 54.402
1.10 --undefined-- 51.312
1.11 --undefined-- 51.699
1.12 --undefined-- 51.778
1.13 --undefined-- 51.276
1.14 --undefined-- 50.041
1.15 --undefined-- 51.433
1.16 --undefined-- 52.885
1.17 --undefined-- 51.430
1.18 --undefined-- 49.592
1.19 --undefined-- 49.852
1.20 --undefined-- 49.020
1.21 --undefined-- 47.315
1.22 --undefined-- 46.017
1.23 --undefined-- 47.910
1.24 --undefined-- 50.905
1.25 --undefined-- 52.669
1.26 --undefined-- 52.738
1.27 --undefined-- 50.616
1.28 --undefined-- 48.619
1.29 --undefined-- 48.604
1.30 --undefined-- 47.009
1.31 --undefined-- 44.778
1.32 --undefined-- 46.976
1.33 --undefined-- 51.603
1.34 --undefined-- 56.137
1.35 --undefined-- 62.750
1.36 152.184 67.682
1.37 152.663 70.202
1.38 156.006 71.278
1.39 159.841 71.846
1.40 162.518 72.110
1.41 163.576 72.120
1.42 163.330 72.662
1.43 163.362 73.665
1.44 162.910 74.456
1.45 162.312 74.919
1.46 161.392 75.039
1.47 159.267 74.810
1.48 155.778 74.221
1.49 --undefined-- 73.441
1.50 291.396 72.626
1.51 282.825 71.383
1.52 254.118 69.881
1.53 235.743 69.306
1.54 224.807 69.155
1.55 210.962 68.579
1.56 207.072 67.987
1.57 204.814 67.606
1.58 205.160 67.035
1.59 205.699 66.155
1.60 207.009 65.598
1.61 215.866 65.753
1.62 217.968 66.129
1.63 222.772 66.377
1.64 229.087 65.981
1.65 230.381 64.301
1.66 221.899 61.046
1.67 218.790 58.646
1.68 --undefined-- 63.455
1.69 149.059 68.204
1.70 150.527 70.581
1.71 152.157 71.314
1.72 153.291 71.137
1.73 155.644 70.470
1.74 158.724 69.847
1.75 160.255 69.745
1.76 161.382 70.055
1.77 162.465 70.412
1.78 163.673 70.572
1.79 163.914 70.477
1.80 162.533 70.039
1.81 160.110 68.844
1.82 158.168 66.193
1.83 --undefined-- 61.417
1.84 --undefined-- 54.927
1.85 --undefined-- 49.870
1.86 --undefined-- 48.159
1.87 --undefined-- 52.260
1.88 --undefined-- 59.718
1.89 263.072 65.741
1.90 251.406 69.279
1.91 235.260 70.877
1.92 227.603 71.185
1.93 225.635 70.765
1.94 231.287 70.131
1.95 244.118 69.416
1.96 258.269 68.658
1.97 271.952 67.804
1.98 161.297 66.918
1.99 172.165 66.172
2.00 174.994 66.188
2.01 174.972 66.651
2.02 175.302 66.471
2.03 171.877 64.987
2.04 158.243 61.760
2.05 --undefined-- 57.387
2.06 --undefined-- 57.331
2.07 --undefined-- 62.775
2.08 290.552 66.547
2.09 260.998 68.186
2.10 244.676 68.531
2.11 236.148 68.337
2.12 231.193 67.872
2.13 228.334 67.008
2.14 228.844 65.721
2.15 230.409 63.956
2.16 227.641 61.534
2.17 228.209 58.561
2.18 239.064 55.671
2.19 --undefined-- 58.735
2.20 154.678 63.812
2.21 155.412 66.512
2.22 161.664 67.515
2.23 163.365 67.501
2.24 160.174 66.313
2.25 154.617 63.145
2.26 --undefined-- 57.643
2.27 --undefined-- 52.710
2.28 --undefined-- 50.887
2.29 --undefined-- 49.631
2.30 --undefined-- 49.153
2.31 --undefined-- 51.817
2.32 163.568 58.644
2.33 161.023 63.600
2.34 158.072 66.192
2.35 157.785 67.258
2.36 158.804 67.702
2.37 162.417 68.475
2.38 166.752 69.541
2.39 167.971 70.212
2.40 167.828 70.455
2.41 166.928 70.615
2.42 164.970 71.028
2.43 161.491 71.632
2.44 157.587 71.835
2.45 151.273 71.156
2.46 285.535 69.787
2.47 269.329 68.012
2.48 248.275 66.446
2.49 235.354 66.308
2.50 227.510 66.650
2.51 218.003 66.153
2.52 215.629 65.150
2.53 217.660 64.651
2.54 222.162 64.679
2.55 228.231 64.822
2.56 234.357 65.291
2.57 240.804 65.794
2.58 245.529 65.549
2.59 246.229 64.365
2.60 240.426 61.951
2.61 229.183 57.730
2.62 238.994 53.426
2.63 266.444 57.362
2.64 259.108 62.990
2.65 251.544 66.087
2.66 239.668 66.977
2.67 221.888 66.842
2.68 212.716 67.136
2.69 206.453 67.600
2.70 202.543 67.532
2.71 198.619 67.371
2.72 197.195 67.448
2.73 196.776 67.530
2.74 197.168 67.586
2.75 196.579 67.724
2.76 195.654 67.926
2.77 194.952 68.027
2.78 193.880 68.025
2.79 193.501 67.899
2.80 194.232 67.655
2.81 194.330 67.806
2.82 193.126 68.550
2.83 191.956 68.889
2.84 192.236 68.059
2.85 193.376 66.273
2.86 190.153 64.453
2.87 182.310 63.118
2.88 172.522 62.711
2.89 176.430 64.203
2.90 180.162 65.940
2.91 180.758 66.653
2.92 171.680 66.427
2.93 160.935 65.537
2.94 151.333 63.996
2.95 135.180 61.591
2.96 147.779 59.150
2.97 155.847 58.446
2.98 153.536 58.672
2.99 150.279 59.107
3.00 150.978 60.009
3.01 151.204 60.466
3.02 151.409 60.342
3.03 150.816 60.249
3.04 152.495 60.315
3.05 152.510 60.471
3.06 152.812 60.887
3.07 153.713 61.475
3.08 155.854 61.520
3.09 156.761 60.957
3.10 157.716 60.580
3.11 158.945 60.610
3.12 160.260 60.625
3.13 160.912 60.569
3.14 159.975 60.249
3.15 --undefined-- 58.545
3.16 --undefined-- 54.575
3.17 --undefined-- 49.814
3.18 --undefined-- 49.128
3.19 --undefined-- 52.636
3.20 --undefined-- 56.169
3.21 --undefined-- 57.633
3.22 --undefined-- 56.671
3.23 --undefined-- 53.861
3.24 --undefined-- 52.402
3.25 --undefined-- 52.834
3.26 --undefined-- 52.749
3.27 --undefined-- 53.356
3.28 --undefined-- 55.370
3.29 --undefined-- 55.764
3.30 --undefined-- 55.778
3.31 237.944 59.342
3.32 238.012 62.831
3.33 224.727 64.527
3.34 221.931 65.044
3.35 218.124 65.047
3.36 213.184 64.633
3.37 210.545 63.998
3.38 209.459 63.563
3.39 210.055 63.530
3.40 213.037 63.980
3.41 217.046 65.024
3.42 221.507 66.560
3.43 228.558 68.133
3.44 232.673 69.085
3.45 232.988 68.638
3.46 231.032 66.811
3.47 239.178 65.991
3.48 248.049 67.068
3.49 256.063 68.119
3.50 261.388 69.051
3.51 265.135 70.214
3.52 270.578 71.285
3.53 275.364 71.904
3.54 279.935 72.158
3.55 283.017 72.204
3.56 284.611 71.911
3.57 284.918 71.186
3.58 282.272 70.447
3.59 276.076 70.049
3.60 262.866 69.975
3.61 --undefined-- 70.248
3.62 --undefined-- 70.309
3.63 --undefined-- 70.119
3.64 164.722 69.956
3.65 160.470 69.403
3.66 159.843 68.233
3.67 165.643 66.422
3.68 170.323 63.649
3.69 --undefined-- 59.780
3.70 --undefined-- 54.555
3.71 --undefined-- 49.698
3.72 --undefined-- 48.042
3.73 --undefined-- 46.615
3.74 --undefined-- 48.090
3.75 --undefined-- 53.573
3.76 --undefined-- 57.961
3.77 --undefined-- 60.166
3.78 --undefined-- 60.338
3.79 --undefined-- 59.134
3.80 245.407 58.152
3.81 245.999 59.587
3.82 258.422 62.465
3.83 290.765 65.206
3.84 154.437 67.265
3.85 153.643 68.123
3.86 298.314 67.749
3.87 259.472 66.555
3.88 237.415 64.532
3.89 --undefined-- 61.337
3.90 --undefined-- 57.423
3.91 --undefined-- 53.630
3.92 --undefined-- 50.095
3.93 --undefined-- 50.017
3.94 --undefined-- 51.932
3.95 --undefined-- 53.100
3.96 --undefined-- 54.642
3.97 191.561 57.069
3.98 191.482 59.793
3.99 187.993 62.244
4.00 186.737 64.247
4.01 184.203 65.369
4.02 175.882 65.373
4.03 175.234 64.672
4.04 175.698 63.902
4.05 174.832 63.168
4.06 174.093 62.543
4.07 174.057 61.945
4.08 173.932 61.217
4.09 172.972 60.488
4.10 174.195 59.982
4.11 176.430 59.797
4.12 179.312 59.442
4.13 181.361 57.940
4.14 184.805 54.508
4.15 191.706 52.141
4.16 --undefined-- 53.178
4.17 --undefined-- 53.164
4.18 --undefined-- 51.200
4.19 --undefined-- 48.027
4.20 --undefined-- 45.431
4.21 --undefined-- 45.031
4.22 --undefined-- 46.652
4.23 --undefined-- 47.551
4.24 --undefined-- 47.313
4.25 --undefined-- 49.953
4.26 --undefined-- 51.990
4.27 --undefined-- 52.208
4.28 --undefined-- 53.457
4.29 --undefined-- 54.573
4.30 --undefined-- 54.026
4.31 --undefined-- 52.539
4.32 --undefined-- 52.034
4.33 --undefined-- 54.589
4.34 205.595 57.436
4.35 173.089 59.052
4.36 169.576 60.172
4.37 --undefined-- 61.366
4.38 --undefined-- 61.892
4.39 --undefined-- 61.570
4.40 154.365 61.656
4.41 157.411 61.614
4.42 --undefined-- 60.129
4.43 --undefined-- 57.782
4.44 --undefined-- 56.747
4.45 --undefined-- 56.620
4.46 --undefined-- 55.471
4.47 --undefined-- 53.606
4.48 --undefined-- 54.329
4.49 --undefined-- 55.097
4.50 --undefined-- 54.983
4.51 --undefined-- 57.259
4.52 --undefined-- 59.277
4.53 --undefined-- 61.367
4.54 186.136 63.999
4.55 184.356 65.143
4.56 178.001 64.347
4.57 170.843 61.494
4.58 --undefined-- 56.922
4.59 --undefined-- 52.453
4.60 --undefined-- 48.991
4.61 --undefined-- 48.620
4.62 --undefined-- 50.810
4.63 --undefined-- 52.830
4.64 --undefined-- 53.129
4.65 --undefined-- 50.755
4.66 --undefined-- 47.203
4.67 --undefined-- 45.558
4.68 --undefined-- 45.298
4.69 --undefined-- 47.364
4.70 --undefined-- 48.531
4.71 --undefined-- 47.701
4.72 --undefined-- 47.020
4.73 --undefined-- 49.375
4.74 --undefined-- 50.730
4.75 --undefined-- 50.426
4.76 --undefined-- 53.246
4.77 --undefined-- 59.129
4.78 207.666 63.033
4.79 206.704 64.869
4.80 204.255 65.480
4.81 202.579 65.431
4.82 202.223 64.732
4.83 201.828 63.104
4.84 194.851 60.429
4.85 185.848 56.631
4.86 --undefined-- 52.137
4.87 --undefined-- 48.470
4.88 --undefined-- 47.748
4.89 --undefined-- 48.830
4.90 --undefined-- 50.076
4.91 --undefined-- 50.943
4.92 --undefined-- 51.155
4.93 --undefined-- 50.605
4.94 --undefined-- 49.514
4.95 --undefined-- 50.689
4.96 --undefined-- 50.951
4.97 --undefined-- 47.974
4.98 --undefined-- --undefined--
4.99 --undefined-- --undefined--
5.00 --undefined-- --undefined--
5.01 --undefined-- --undefined--
