Time Pitch Intensity
0.01 --undefined-- --undefined--
0.02 210.084 --undefined--
0.03 195.050 --undefined--
0.04 186.024 --undefined--
0.05 177.776 76.861
0.06 174.863 77.334
0.07 174.428 77.339
0.08 174.124 77.001
0.09 174.296 76.493
0.10 174.958 75.498
0.11 174.031 73.925
0.12 168.675 72.567
0.13 167.373 72.384
0.14 172.274 72.968
0.15 169.758 73.393
0.16 164.868 73.576
0.17 159.606 73.856
0.18 154.377 74.397
0.19 148.863 74.935
0.20 142.390 75.184
0.21 139.439 75.089
0.22 127.436 74.701
0.23 119.958 74.067
0.24 114.958 73.027
0.25 109.605 71.318
0.26 105.227 69.521
0.27 102.207 68.441
0.28 99.308 67.705
0.29 95.750 67.023
0.30 93.347 66.582
0.31 92.761 66.600
0.32 93.636 66.690
0.33 95.075 66.615
0.34 98.242 66.769
0.35 100.929 67.067
0.36 101.166 67.184
0.37 101.623 67.755
0.38 104.522 68.975
0.39 104.432 69.660
0.40 104.316 69.872
0.41 105.984 70.107
0.42 108.245 70.382
0.43 110.602 70.728
0.44 112.548 71.232
0.45 116.180 71.717
0.46 113.412 72.101
0.47 113.488 72.351
0.48 112.584 72.398
0.49 112.292 72.350
0.50 112.744 72.230
0.51 113.483 72.055
0.52 114.118 71.903
0.53 114.806 71.778
0.54 115.240 71.524
0.55 114.659 70.956
0.56 113.502 69.858
0.57 111.446 67.802
0.58 106.907 64.240
0.59 --undefined-- 58.728
0.60 --undefined-- 54.319
0.61 --undefined-- 56.516
0.62 --undefined-- 59.178
0.63 --undefined-- 64.999
0.64 136.586 69.773
0.65 134.284 72.379
0.66 127.366 73.516
0.67 122.866 73.953
0.68 122.863 74.229
0.69 123.458 74.328
0.70 122.920 74.227
0.71 123.322 73.857
0.72 122.942 72.667
0.73 116.791 69.871
0.74 115.813 64.873
0.75 --undefined-- 57.961
0.76 --undefined-- 54.607
0.77 --undefined-- 56.098
0.78 --undefined-- 56.609
0.79 --undefined-- 56.429
0.80 --undefined-- 55.647
0.81 --undefined-- 54.651
0.82 --undefined-- 57.158
0.83 --undefined-- 64.200
0.84 150.926 69.473
0.85 130.867 72.305
0.86 128.664 73.487
0.87 127.328 73.611
0.88 123.506 72.393
0.89 118.904 69.047
0.90 --undefined-- 64.112
0.91 --undefined-- 63.434
0.92 --undefined-- 64.870
0.93 --undefined-- 63.452
0.94 --undefined-- 59.527
0.95 --undefined-- 53.989
0.96 --undefined-- 46.921
0.97 --undefined-- 42.855
0.98 --undefined-- 42.259
0.99 --undefined-- 42.094
1.00 --undefined-- 41.911
1.01 --undefined-- 41.580
1.02 --undefined-- 48.238
1.03 --undefined-- 59.432
1.04 159.966 66.557
1.05 152.166 70.588
1.06 145.693 72.614
1.07 144.167 73.641
1.08 143.983 74.500
1.09 144.289 75.354
1.10 144.339 75.648
1.11 138.073 74.832
1.12 134.607 73.531
1.13 137.010 72.912
1.14 136.034 72.823
1.15 133.035 72.802
1.16 130.229 72.841
1.17 130.405 73.179
1.18 118.800 73.582
1.19 115.426 73.736
1.20 111.588 73.283
1.21 106.008 72.278
1.22 103.149 71.299
1.23 101.621 70.610
1.24 100.964 69.923
1.25 101.125 69.143
1.26 100.712 68.344
1.27 98.937 68.185
1.28 102.057 68.902
1.29 103.501 69.367
1.30 103.067 69.329
1.31 104.125 69.250
1.32 108.828 69.121
1.33 113.332 68.588
1.34 102.529 67.109
1.35 91.318 64.174
1.36 85.560 59.882
1.37 --undefined-- 56.802
1.38 87.078 59.054
1.39 93.457 62.534
1.40 104.398 65.523
1.41 103.373 67.690
1.42 98.358 68.681
1.43 97.037 68.777
1.44 96.546 68.709
1.45 97.036 68.726
1.46 97.920 68.813
1.47 100.141 69.616
1.48 104.949 70.769
1.49 109.619 71.638
1.50 114.012 72.347
1.51 117.334 72.771
1.52 122.019 72.828
1.53 127.057 72.757
1.54 132.256 72.823
1.55 138.856 73.281
1.56 145.616 74.054
1.57 149.319 74.354
1.58 155.196 73.769
1.59 156.805 72.823
1.60 156.593 71.865
1.61 153.204 70.467
1.62 150.264 68.166
1.63 149.736 65.017
1.64 159.631 61.239
1.65 --undefined-- 56.175
1.66 --undefined-- 49.751
1.67 --undefined-- 45.104
1.68 --undefined-- 42.235
1.69 --undefined-- 39.186
1.70 --undefined-- 37.326
1.71 --undefined-- 38.036
1.72 --undefined-- 39.349
1.73 --undefined-- 40.006
1.74 --undefined-- 39.744
1.75 --undefined-- 39.537
1.76 --undefined-- 40.350
1.77 --undefined-- 41.629
1.78 --undefined-- 42.505
1.79 --undefined-- 42.609
1.80 --undefined-- 42.819
1.81 --undefined-- 43.084
1.82 --undefined-- 43.073
1.83 --undefined-- 43.268
1.84 --undefined-- 43.002
1.85 --undefined-- 42.898
1.86 --undefined-- 43.159
1.87 --undefined-- 43.152
1.88 --undefined-- 43.214
1.89 --undefined-- 43.224
1.90 --undefined-- 42.615
1.91 --undefined-- 41.149
1.92 --undefined-- 39.290
1.93 --undefined-- 38.444
1.94 --undefined-- 37.644
1.95 --undefined-- 36.381
1.96 --undefined-- 36.870
1.97 --undefined-- 40.620
1.98 --undefined-- 45.323
1.99 --undefined-- 49.162
2.00 --undefined-- 51.925
2.01 --undefined-- 58.273
2.02 --undefined-- 66.480
2.03 143.048 71.705
2.04 142.735 74.368
2.05 142.779 75.727
2.06 143.799 76.807
2.07 144.975 77.824
2.08 145.037 78.496
2.09 145.409 78.745
2.10 147.061 79.113
2.11 148.488 79.777
2.12 150.253 80.287
2.13 150.972 80.102
2.14 150.447 78.898
2.15 147.432 76.827
2.16 138.418 74.007
2.17 135.102 70.100
2.18 --undefined-- 66.590
2.19 90.637 66.372
2.20 88.211 65.992
2.21 82.435 63.632
2.22 76.950 59.663
2.23 --undefined-- 56.080
2.24 --undefined-- 56.929
2.25 --undefined-- 64.931
2.26 --undefined-- 70.787
2.27 117.378 74.204
2.28 117.664 76.155
2.29 120.289 77.401
2.30 123.615 78.240
2.31 127.797 78.762
2.32 131.927 79.015
2.33 135.715 78.982
2.34 139.739 78.912
2.35 145.716 79.007
2.36 152.382 79.199
2.37 161.711 79.216
2.38 169.330 78.604
2.39 184.284 77.728
2.40 192.119 77.512
2.41 193.310 77.686
2.42 190.382 77.628
2.43 183.810 77.252
2.44 173.717 77.089
2.45 163.179 78.004
2.46 154.206 79.235
2.47 147.658 79.296
2.48 140.143 77.827
2.49 132.423 75.732
2.50 129.152 74.625
2.51 126.064 74.609
2.52 123.679 74.701
2.53 124.363 74.626
2.54 128.521 74.608
2.55 132.411 74.525
2.56 133.517 74.301
2.57 132.712 73.850
2.58 130.085 72.589
2.59 125.488 69.616
2.60 116.144 64.221
2.61 --undefined-- 56.732
2.62 --undefined-- 50.715
2.63 --undefined-- 51.526
2.64 --undefined-- 54.291
2.65 --undefined-- 58.781
2.66 167.074 65.908
2.67 156.159 71.055
2.68 142.701 73.604
2.69 131.500 74.175
2.70 125.101 73.575
2.71 119.058 72.093
2.72 116.483 70.573
2.73 119.047 70.653
2.74 118.944 71.492
2.75 117.045 71.955
2.76 116.296 71.926
2.77 116.001 71.588
2.78 117.158 71.222
2.79 117.909 70.951
2.80 118.082 70.458
2.81 116.401 69.164
2.82 115.319 66.585
2.83 114.073 62.191
2.84 --undefined-- 55.437
2.85 --undefined-- 47.687
2.86 --undefined-- 45.281
2.87 --undefined-- 47.465
2.88 --undefined-- 53.769
2.89 --undefined-- 62.774
2.90 178.986 69.248
2.91 159.463 72.722
2.92 150.493 74.189
2.93 148.127 74.696
2.94 145.733 74.617
2.95 143.904 73.863
2.96 140.332 71.962
2.97 133.962 68.207
2.98 119.498 62.857
2.99 118.962 58.729
3.00 --undefined-- 59.732
3.01 --undefined-- 66.106
3.02 --undefined-- 71.501
3.03 --undefined-- 74.504
3.04 --undefined-- 75.546
3.05 115.822 75.352
3.06 111.897 74.546
3.07 110.662 73.594
3.08 108.730 72.434
3.09 106.549 70.564
3.10 108.340 68.663
3.11 111.244 68.661
3.12 120.199 71.027
3.13 127.051 73.894
3.14 129.624 75.782
3.15 128.509 76.478
3.16 127.509 76.333
3.17 126.873 75.683
3.18 127.077 74.664
3.19 126.774 73.233
3.20 127.440 72.340
3.21 131.681 72.918
3.22 132.839 73.559
3.23 132.459 73.592
3.24 131.296 72.934
3.25 128.176 71.248
3.26 122.596 68.135
3.27 112.619 63.291
3.28 110.783 57.898
3.29 --undefined-- 57.398
3.30 --undefined-- 58.556
3.31 --undefined-- 58.005
3.32 --undefined-- 57.528
3.33 --undefined-- 61.778
3.34 129.270 66.297
3.35 127.685 68.338
3.36 103.819 68.647
3.37 101.741 68.461
3.38 104.562 67.974
3.39 92.258 66.964
3.40 89.719 66.246
3.41 88.408 66.181
3.42 90.981 66.289
3.43 91.668 66.181
3.44 91.588 65.801
3.45 91.826 65.260
3.46 91.887 64.337
3.47 90.803 63.167
3.48 89.447 62.341
3.49 88.743 62.057
3.50 91.564 61.798
3.51 83.760 61.243
3.52 --undefined-- 60.590
3.53 --undefined-- 58.310
3.54 --undefined-- 53.179
3.55 --undefined-- 48.636
3.56 --undefined-- 46.532
3.57 --undefined-- 42.236
3.58 --undefined-- 37.897
3.59 --undefined-- 37.430
3.60 --undefined-- 37.299
3.61 --undefined-- 36.758
3.62 --undefined-- 36.516
3.63 --undefined-- 37.458
3.64 --undefined-- 39.155
3.65 --undefined-- 38.675
3.66 --undefined-- 35.563
3.67 --undefined-- 34.210
3.68 --undefined-- 35.684
3.69 --undefined-- 36.923
3.70 --undefined-- 37.913
3.71 --undefined-- 38.019
3.72 --undefined-- 37.515
3.73 --undefined-- 37.079
3.74 --undefined-- 36.698
3.75 --undefined-- 36.477
3.76 --undefined-- 36.735
3.77 --undefined-- 37.492
3.78 --undefined-- 36.641
3.79 --undefined-- 35.458
3.80 --undefined-- 37.414
3.81 --undefined-- 38.539
3.82 --undefined-- 38.533
3.83 --undefined-- 37.721
3.84 --undefined-- 34.643
3.85 --undefined-- 32.716
3.86 --undefined-- 35.383
3.87 --undefined-- 38.298
3.88 --undefined-- 39.969
3.89 --undefined-- 40.253
3.90 --undefined-- 40.103
3.91 --undefined-- 39.974
3.92 --undefined-- 39.327
3.93 --undefined-- 39.342
3.94 --undefined-- 40.211
3.95 --undefined-- 41.038
3.96 --undefined-- 41.972
3.97 --undefined-- 42.685
3.98 --undefined-- 43.103
3.99 --undefined-- 43.586
4.00 --undefined-- 44.408
4.01 --undefined-- 45.189
4.02 --undefined-- 45.521
4.03 --undefined-- 45.089
4.04 --undefined-- 43.984
4.05 --undefined-- 42.749
4.06 --undefined-- 42.172
4.07 --undefined-- 42.779
4.08 --undefined-- 42.786
4.09 --undefined-- 41.159
4.10 --undefined-- 38.611
4.11 --undefined-- 37.372
4.12 --undefined-- 38.960
4.13 --undefined-- 43.006
4.14 --undefined-- 47.237
4.15 --undefined-- 50.463
4.16 --undefined-- 52.059
4.17 --undefined-- 51.986
4.18 --undefined-- 53.738
4.19 --undefined-- 60.491
4.20 --undefined-- 65.806
4.21 114.433 69.136
4.22 112.759 71.497
4.23 118.554 73.462
4.24 120.725 74.905
4.25 121.519 75.740
4.26 123.545 76.251
4.27 126.346 76.654
4.28 129.917 76.903
4.29 135.024 76.980
4.30 139.948 76.921
4.31 143.253 76.832
4.32 151.300 76.771
4.33 157.303 76.597
4.34 156.038 76.498
4.35 152.845 76.804
4.36 149.628 77.426
4.37 147.976 78.065
4.38 139.406 78.000
4.39 133.761 77.112
4.40 130.275 75.957
4.41 128.235 75.194
4.42 126.705 75.255
4.43 123.107 75.421
4.44 120.301 75.191
4.45 118.762 75.105
4.46 119.224 75.829
4.47 120.875 76.888
4.48 122.536 77.562
4.49 124.446 77.490
4.50 127.000 77.084
4.51 130.511 77.133
4.52 132.294 77.400
4.53 132.820 77.334
4.54 131.301 76.861
4.55 127.614 75.855
4.56 122.009 73.818
4.57 115.263 70.617
4.58 117.710 66.227
4.59 --undefined-- 60.635
4.60 --undefined-- 55.626
4.61 --undefined-- 51.796
4.62 --undefined-- 47.016
4.63 --undefined-- 43.645
4.64 --undefined-- 41.050
4.65 --undefined-- 39.371
4.66 --undefined-- 40.419
4.67 --undefined-- 42.639
4.68 --undefined-- 47.821
4.69 --undefined-- 51.448
4.70 --undefined-- 52.195
4.71 --undefined-- 52.176
4.72 --undefined-- 52.925
4.73 --undefined-- 53.067
4.74 --undefined-- 52.785
4.75 --undefined-- 52.923
4.76 --undefined-- 53.880
4.77 --undefined-- 55.375
4.78 --undefined-- 61.984
4.79 137.965 68.607
4.80 122.669 72.670
4.81 122.405 74.731
4.82 123.147 75.135
4.83 127.139 74.832
4.84 134.136 75.493
4.85 140.865 76.984
4.86 148.234 77.915
4.87 153.958 77.933
4.88 156.510 76.769
4.89 152.986 73.982
4.90 155.008 72.951
4.91 167.993 76.405
4.92 167.341 78.858
4.93 160.420 79.830
4.94 156.124 80.312
4.95 153.336 80.655
4.96 151.150 80.541
4.97 148.804 79.773
4.98 145.575 77.988
4.99 142.173 74.910
5.00 137.699 70.518
5.01 137.962 64.551
5.02 --undefined-- 56.468
5.03 --undefined-- 48.437
5.04 --undefined-- 45.984
5.05 --undefined-- 44.441
5.06 --undefined-- 42.636
5.07 --undefined-- 42.081
5.08 --undefined-- 42.316
5.09 --undefined-- 49.812
5.10 --undefined-- 59.333
5.11 131.616 64.982
5.12 117.886 67.784
5.13 111.694 68.804
5.14 107.812 68.901
5.15 104.042 68.754
5.16 102.265 68.711
5.17 100.866 68.621
5.18 100.885 68.464
5.19 101.112 68.294
5.20 101.171 68.196
5.21 101.809 68.325
5.22 103.345 68.622
5.23 103.500 68.935
5.24 104.646 69.312
5.25 106.633 69.777
5.26 107.819 70.194
5.27 106.916 70.347
5.28 106.209 70.143
5.29 104.474 69.453
5.30 100.786 68.317
5.31 102.868 66.940
5.32 102.750 64.561
5.33 95.493 60.781
5.34 --undefined-- 56.367
5.35 --undefined-- 50.398
5.36 --undefined-- 44.160
5.37 --undefined-- 42.109
5.38 --undefined-- 43.441
5.39 --undefined-- 52.838
5.40 135.747 60.648
5.41 124.533 65.862
5.42 114.278 68.997
5.43 109.784 70.720
5.44 109.091 71.617
5.45 108.326 72.093
5.46 109.531 72.401
5.47 111.455 72.638
5.48 113.754 72.665
5.49 115.650 72.460
5.50 115.943 72.230
5.51 117.124 72.012
5.52 118.288 71.606
5.53 119.207 71.207
5.54 119.690 71.313
5.55 118.467 71.973
5.56 120.290 73.251
5.57 124.526 74.719
5.58 125.649 75.545
5.59 125.961 75.757
5.60 128.325 76.040
5.61 131.352 76.797
5.62 135.138 77.666
5.63 140.342 77.830
5.64 145.847 77.312
5.65 144.532 76.514
5.66 144.497 74.711
5.67 139.900 70.971
5.68 133.398 64.806
5.69 --undefined-- 57.158
5.70 --undefined-- 51.368
5.71 --undefined-- 53.308
5.72 --undefined-- 61.215
5.73 --undefined-- 68.810
5.74 179.665 73.529
5.75 167.230 75.876
5.76 164.799 76.828
5.77 163.972 77.187
5.78 165.842 77.472
5.79 165.761 77.476
5.80 162.574 76.974
5.81 166.443 76.466
5.82 165.510 76.023
5.83 163.636 75.238
5.84 160.585 73.967
5.85 155.225 71.907
5.86 148.284 --undefined--
5.87 143.851 --undefined--
5.88 --undefined-- --undefined--
5.89 --undefined-- --undefined--
