Time Pitch Intensity
0.01 --undefined-- --undefined--
0.02 --undefined-- --undefined--
0.03 --undefined-- --undefined--
0.04 --undefined-- --undefined--
0.05 116.486 62.365
0.06 116.222 64.698
0.07 --undefined-- 68.769
0.08 --undefined-- 72.043
0.09 118.241 73.415
0.10 118.006 73.979
0.11 117.393 74.068
0.12 116.275 73.309
0.13 115.868 71.854
0.14 115.158 70.490
0.15 123.340 69.054
0.16 119.034 67.391
0.17 122.196 67.097
0.18 126.426 68.347
0.19 127.802 69.825
0.20 128.360 70.742
0.21 --undefined-- 70.580
0.22 --undefined-- 68.670
0.23 113.321 64.961
0.24 117.606 62.330
0.25 125.541 62.437
0.26 129.494 63.048
0.27 130.709 63.081
0.28 131.581 62.850
0.29 133.297 63.111
0.30 --undefined-- 63.516
0.31 --undefined-- 63.592
0.32 --undefined-- 63.586
0.33 --undefined-- 64.094
0.34 --undefined-- 64.931
0.35 --undefined-- 66.012
0.36 --undefined-- 66.813
0.37 --undefined-- 68.144
0.38 --undefined-- 69.726
0.39 --undefined-- 70.067
0.40 --undefined-- 69.475
0.41 --undefined-- 68.253
0.42 --undefined-- 67.896
0.43 --undefined-- 68.386
0.44 112.010 67.935
0.45 109.282 67.321
0.46 107.964 67.407
0.47 106.913 67.559
0.48 104.952 67.532
0.49 104.078 67.405
0.50 103.904 67.167
0.51 103.244 66.956
0.52 102.275 66.404
0.53 102.578 65.202
0.54 102.864 63.931
0.55 102.786 62.523
0.56 102.729 60.057
0.57 103.626 56.343
0.58 104.185 53.634
0.59 104.986 53.054
0.60 105.427 52.744
0.61 106.855 52.296
0.62 105.607 51.378
0.63 --undefined-- 49.625
0.64 --undefined-- 51.551
0.65 --undefined-- 56.909
0.66 --undefined-- 59.540
0.67 --undefined-- 61.842
0.68 --undefined-- 65.171
0.69 108.790 67.401
0.70 109.425 68.199
0.71 110.271 68.329
0.72 110.144 68.335
0.73 109.810 68.233
0.74 109.523 68.082
0.75 109.527 67.763
0.76 108.588 66.869
0.77 108.037 65.350
0.78 103.185 63.047
0.79 104.018 59.556
0.80 104.352 56.085
0.81 103.001 55.923
0.82 102.229 57.398
0.83 98.553 58.710
0.84 97.657 59.565
0.85 98.562 60.058
0.86 99.693 60.782
0.87 100.000 61.476
0.88 99.244 62.796
0.89 99.449 65.368
0.90 --undefined-- 66.223
0.91 --undefined-- 63.348
0.92 --undefined-- 55.637
0.93 --undefined-- 42.987
0.94 --undefined-- 36.398
0.95 --undefined-- 36.213
0.96 --undefined-- 36.412
0.97 --undefined-- 36.099
0.98 --undefined-- 36.442
0.99 --undefined-- 36.968
1.00 --undefined-- 37.212
1.01 --undefined-- 42.780
1.02 --undefined-- 55.083
1.03 --undefined-- 62.606
1.04 --undefined-- 67.364
1.05 --undefined-- 71.471
1.06 --undefined-- 73.542
1.07 --undefined-- 72.950
1.08 83.373 70.773
1.09 85.279 68.826
1.10 86.616 67.415
1.11 87.655 66.133
1.12 88.726 65.076
1.13 --undefined-- 63.321
1.14 --undefined-- 59.860
1.15 --undefined-- 56.465
1.16 103.538 56.097
1.17 108.482 57.011
1.18 111.897 58.627
1.19 112.248 60.495
1.20 112.868 61.893
1.21 112.449 62.262
1.22 111.116 61.340
1.23 112.798 60.868
1.24 114.807 61.917
1.25 115.621 62.919
1.26 115.916 64.154
1.27 117.580 66.574
1.28 119.041 69.041
1.29 119.388 70.418
1.30 118.821 70.734
1.31 117.848 70.468
1.32 116.717 70.007
1.33 115.804 69.595
1.34 114.861 69.286
1.35 113.627 68.839
1.36 111.768 67.959
1.37 109.824 66.250
1.38 107.540 63.360
1.39 105.634 59.721
1.40 103.576 55.838
1.41 --undefined-- 51.123
1.42 --undefined-- 45.366
1.43 --undefined-- 39.393
1.44 --undefined-- 36.443
1.45 --undefined-- 36.005
1.46 --undefined-- 37.151
1.47 --undefined-- 39.545
1.48 --undefined-- 41.615
1.49 --undefined-- 43.483
1.50 --undefined-- 45.628
1.51 --undefined-- 47.325
1.52 --undefined-- 48.549
1.53 --undefined-- 49.761
1.54 --undefined-- 50.699
1.55 --undefined-- 51.147
1.56 --undefined-- 50.975
1.57 --undefined-- 50.478
1.58 --undefined-- 50.571
1.59 --undefined-- 51.134
1.60 --undefined-- 51.226
1.61 --undefined-- 52.171
1.62 --undefined-- 53.821
1.63 --undefined-- 54.249
1.64 --undefined-- 53.180
1.65 --undefined-- 51.352
1.66 --undefined-- 50.372
1.67 --undefined-- 50.869
1.68 --undefined-- 51.042
1.69 --undefined-- 50.371
1.70 --undefined-- 49.572
1.71 --undefined-- 49.066
1.72 --undefined-- 48.896
1.73 --undefined-- 48.542
1.74 --undefined-- 47.566
1.75 --undefined-- 46.315
1.76 --undefined-- 44.928
1.77 --undefined-- 43.774
1.78 --undefined-- 44.103
1.79 --undefined-- 44.306
1.80 --undefined-- 42.657
1.81 --undefined-- 40.985
1.82 --undefined-- 42.853
1.83 --undefined-- 46.926
1.84 --undefined-- 50.961
1.85 --undefined-- 53.735
1.86 --undefined-- 55.251
1.87 --undefined-- 58.170
1.88 --undefined-- 63.774
1.89 111.011 67.707
1.90 108.458 69.501
1.91 103.784 69.807
1.92 103.369 69.458
1.93 100.051 69.179
1.94 97.930 68.881
1.95 97.004 68.477
1.96 95.509 68.087
1.97 94.653 67.840
1.98 93.319 67.298
1.99 92.492 66.418
2.00 92.975 66.062
2.01 93.311 65.574
2.02 92.891 64.513
2.03 92.085 63.676
2.04 91.621 63.338
2.05 90.459 63.236
2.06 91.069 63.135
2.07 91.468 63.265
2.08 94.204 64.136
2.09 95.705 65.332
2.10 95.423 66.066
2.11 92.093 65.670
2.12 --undefined-- 63.621
2.13 --undefined-- 60.220
2.14 --undefined-- 57.577
2.15 --undefined-- 55.650
2.16 --undefined-- 53.214
2.17 --undefined-- 52.352
2.18 --undefined-- 52.910
2.19 --undefined-- 52.208
2.20 --undefined-- 51.005
2.21 --undefined-- 52.364
2.22 --undefined-- 55.185
2.23 --undefined-- 56.730
2.24 --undefined-- 57.197
2.25 --undefined-- 60.252
2.26 --undefined-- 64.158
2.27 117.457 66.557
2.28 116.791 67.856
2.29 115.716 68.566
2.30 115.645 68.681
2.31 114.628 68.247
2.32 113.056 67.599
2.33 110.728 66.761
2.34 --undefined-- 65.367
2.35 --undefined-- 62.512
2.36 --undefined-- 58.735
2.37 --undefined-- 57.716
2.38 --undefined-- 60.088
2.39 --undefined-- 65.313
2.40 --undefined-- 69.742
2.41 116.171 71.487
2.42 115.788 71.001
2.43 114.663 69.587
2.44 120.070 68.361
2.45 123.505 67.397
2.46 128.221 66.150
2.47 132.033 63.976
2.48 --undefined-- 60.263
2.49 --undefined-- 54.080
2.50 --undefined-- 45.063
2.51 --undefined-- 45.920
2.52 --undefined-- 54.474
2.53 --undefined-- 59.478
2.54 --undefined-- 60.798
2.55 --undefined-- 60.121
2.56 --undefined-- 59.919
2.57 --undefined-- 58.735
2.58 --undefined-- 54.882
2.59 --undefined-- 49.217
2.60 --undefined-- 46.873
2.61 --undefined-- 45.506
2.62 --undefined-- 40.808
2.63 --undefined-- 33.984
2.64 --undefined-- 32.809
2.65 --undefined-- 34.432
2.66 --undefined-- 34.686
2.67 --undefined-- 33.892
2.68 --undefined-- 39.961
2.69 --undefined-- 50.766
2.70 --undefined-- 59.805
2.71 --undefined-- 66.084
2.72 126.374 69.222
2.73 105.782 69.768
2.74 104.170 68.846
2.75 103.137 67.607
2.76 103.448 66.400
2.77 102.864 65.175
2.78 103.368 64.169
2.79 103.743 63.376
2.80 103.107 62.152
2.81 101.721 60.569
2.82 101.193 58.896
2.83 100.633 56.027
2.84 --undefined-- 50.775
2.85 --undefined-- 43.826
2.86 --undefined-- 48.036
2.87 --undefined-- 59.283
2.88 --undefined-- 67.042
2.89 --undefined-- 70.956
2.90 --undefined-- 71.294
2.91 --undefined-- 68.488
2.92 107.066 65.494
2.93 107.287 66.512
2.94 102.546 67.502
2.95 101.647 67.448
2.96 101.088 67.212
2.97 100.694 66.545
2.98 100.184 65.145
2.99 100.275 63.445
3.00 102.489 61.524
3.01 104.134 58.782
3.02 108.110 54.903
3.03 115.979 52.335
3.04 117.217 52.467
3.05 117.515 52.819
3.06 117.934 52.907
3.07 118.358 51.470
3.08 --undefined-- 47.619
3.09 --undefined-- 47.121
3.10 --undefined-- 58.228
3.11 --undefined-- 64.646
3.12 --undefined-- 66.336
3.13 --undefined-- 64.119
3.14 --undefined-- 62.176
3.15 127.273 65.131
3.16 127.309 67.609
3.17 126.282 68.680
3.18 124.318 68.657
3.19 122.709 67.935
3.20 120.926 66.942
3.21 120.138 65.632
3.22 119.776 63.783
3.23 117.873 61.293
3.24 115.650 58.333
3.25 120.095 56.963
3.26 119.405 57.160
3.27 119.720 57.425
3.28 120.561 57.530
3.29 120.579 57.356
3.30 120.591 57.324
3.31 120.473 57.769
3.32 120.003 58.124
3.33 120.789 58.469
3.34 121.586 59.055
3.35 121.686 59.088
3.36 121.238 58.827
3.37 122.027 58.812
3.38 123.139 58.803
3.39 124.605 58.579
3.40 124.615 58.154
3.41 124.464 57.434
3.42 121.081 56.072
3.43 121.415 53.743
3.44 --undefined-- 51.455
3.45 --undefined-- 59.083
3.46 --undefined-- 67.329
3.47 --undefined-- 71.834
3.48 --undefined-- 72.981
3.49 --undefined-- 71.390
3.50 --undefined-- 68.042
3.51 --undefined-- 63.777
3.52 --undefined-- 59.886
3.53 --undefined-- 61.917
3.54 --undefined-- 66.067
3.55 --undefined-- 68.137
3.56 98.042 67.967
3.57 90.958 66.408
3.58 87.026 64.904
3.59 83.705 63.806
3.60 81.585 62.932
3.61 82.562 61.980
3.62 82.367 59.947
3.63 --undefined-- 56.390
3.64 --undefined-- 51.284
3.65 --undefined-- 45.476
3.66 --undefined-- 47.684
3.67 --undefined-- 53.675
3.68 --undefined-- 56.790
3.69 --undefined-- 57.290
3.70 --undefined-- 56.983
3.71 102.099 56.716
3.72 102.470 55.292
3.73 99.818 53.028
3.74 101.599 51.584
3.75 102.775 51.505
3.76 102.631 51.353
3.77 101.760 50.292
3.78 --undefined-- 48.249
3.79 --undefined-- 44.982
3.80 --undefined-- 40.678
3.81 --undefined-- 41.456
3.82 --undefined-- 50.181
3.83 --undefined-- 57.878
3.84 --undefined-- 63.561
3.85 100.407 66.719
3.86 99.067 67.864
3.87 96.983 67.733
3.88 95.900 66.728
3.89 95.959 65.179
3.90 96.032 63.407
3.91 95.694 61.558
3.92 95.513 60.032
3.93 95.184 59.063
3.94 94.923 57.620
3.95 --undefined-- 54.164
3.96 --undefined-- 48.044
3.97 --undefined-- 48.458
3.98 --undefined-- 57.577
3.99 --undefined-- 64.113
4.00 --undefined-- 66.943
4.01 --undefined-- 66.690
4.02 --undefined-- 66.716
4.03 102.793 68.651
4.04 96.979 69.474
4.05 97.347 69.259
4.06 90.808 68.791
4.07 89.420 68.443
4.08 88.756 67.927
4.09 88.753 66.899
4.10 89.112 65.776
4.11 89.755 64.314
4.12 93.543 62.592
4.13 98.288 61.645
4.14 101.818 60.753
4.15 107.533 59.743
4.16 110.662 59.663
4.17 112.456 60.554
4.18 113.887 63.029
4.19 116.574 66.897
4.20 116.707 69.707
4.21 115.938 70.952
4.22 115.055 71.371
4.23 114.273 71.619
4.24 113.341 71.825
4.25 112.140 71.883
4.26 110.390 71.787
4.27 108.025 71.483
4.28 106.744 71.116
4.29 105.574 70.835
4.30 104.851 70.056
4.31 104.083 68.410
4.32 103.198 66.876
4.33 102.380 65.633
4.34 102.560 63.566
4.35 102.179 60.016
4.36 98.344 55.573
4.37 --undefined-- 50.792
4.38 --undefined-- 45.516
4.39 --undefined-- 40.581
4.40 --undefined-- 38.055
4.41 --undefined-- 36.557
4.42 --undefined-- 35.539
4.43 --undefined-- 35.322
4.44 --undefined-- 35.882
4.45 --undefined-- 37.455
4.46 --undefined-- 38.822
4.47 --undefined-- 39.523
4.48 --undefined-- 39.820
4.49 --undefined-- 38.411
4.50 --undefined-- 35.476
4.51 --undefined-- 34.155
4.52 --undefined-- 35.903
4.53 --undefined-- 38.022
4.54 --undefined-- 37.961
4.55 --undefined-- 38.064
4.56 --undefined-- 48.846
4.57 --undefined-- 59.510
4.58 --undefined-- 67.015
4.59 --undefined-- 71.128
4.60 --undefined-- 72.462
4.61 108.312 71.995
4.62 106.022 70.996
4.63 105.714 69.776
4.64 106.541 68.567
4.65 106.201 67.715
4.66 105.781 66.132
4.67 107.087 63.160
4.68 108.337 59.767
4.69 107.623 57.141
4.70 107.018 53.928
4.71 --undefined-- 48.787
4.72 --undefined-- 42.970
4.73 --undefined-- 41.198
4.74 --undefined-- 40.902
4.75 --undefined-- 39.724
4.76 --undefined-- 37.422
4.77 --undefined-- 36.550
4.78 --undefined-- 37.156
4.79 --undefined-- 37.483
4.80 --undefined-- 40.480
4.81 --undefined-- 53.449
4.82 --undefined-- 62.139
4.83 --undefined-- 66.147
4.84 --undefined-- 66.152
4.85 --undefined-- 62.840
4.86 --undefined-- 60.120
4.87 --undefined-- 60.647
4.88 --undefined-- 60.314
4.89 --undefined-- 58.779
4.90 --undefined-- 57.991
4.91 --undefined-- 62.073
4.92 --undefined-- 66.828
4.93 113.326 68.880
4.94 113.002 68.624
4.95 110.487 67.214
4.96 112.353 65.523
4.97 --undefined-- 64.171
4.98 --undefined-- 63.470
4.99 --undefined-- 62.686
5.00 --undefined-- 62.070
5.01 --undefined-- 61.847
5.02 --undefined-- 61.848
5.03 --undefined-- 62.084
5.04 --undefined-- 62.384
5.05 --undefined-- 62.840
5.06 --undefined-- 62.881
5.07 --undefined-- 61.934
5.08 --undefined-- 61.492
5.09 108.603 62.322
5.10 104.448 63.284
5.11 103.123 64.909
5.12 --undefined-- 67.128
5.13 --undefined-- 68.034
5.14 --undefined-- 67.414
5.15 --undefined-- 67.459
5.16 83.746 68.201
5.17 75.973 67.284
5.18 81.424 65.694
5.19 81.637 65.328
5.20 82.444 64.973
5.21 --undefined-- 64.099
5.22 --undefined-- 63.560
5.23 --undefined-- 63.761
5.24 --undefined-- 62.544
5.25 --undefined-- 59.314
5.26 --undefined-- 56.657
5.27 --undefined-- 55.785
5.28 --undefined-- 55.864
5.29 --undefined-- 58.852
5.30 --undefined-- 61.209
5.31 --undefined-- 62.573
5.32 99.262 64.157
5.33 100.452 65.478
5.34 103.285 66.600
5.35 104.681 67.430
5.36 105.113 67.260
5.37 105.213 66.056
5.38 106.712 64.871
5.39 106.687 63.805
5.40 --undefined-- 62.164
5.41 --undefined-- 59.761
5.42 --undefined-- 56.142
5.43 --undefined-- 51.926
5.44 --undefined-- 48.547
5.45 --undefined-- 45.039
5.46 --undefined-- 40.877
5.47 --undefined-- 37.084
5.48 --undefined-- 36.111
5.49 --undefined-- 37.627
5.50 --undefined-- 39.524
5.51 --undefined-- 41.149
5.52 --undefined-- 42.842
5.53 --undefined-- 44.028
5.54 --undefined-- 45.669
5.55 --undefined-- 48.072
5.56 --undefined-- 49.304
5.57 --undefined-- 48.999
5.58 --undefined-- 48.535
5.59 --undefined-- 49.313
5.60 --undefined-- 50.105
5.61 --undefined-- 50.661
5.62 --undefined-- 52.093
5.63 --undefined-- 52.720
5.64 --undefined-- 52.033
5.65 --undefined-- 51.916
5.66 --undefined-- 52.428
5.67 --undefined-- --undefined--
5.68 --undefined-- --undefined--
5.69 --undefined-- --undefined--
5.70 --undefined-- --undefined--
