Time Pitch Intensity
0.01 --undefined-- --undefined--
0.02 248.966 --undefined--
0.03 246.226 --undefined--
0.04 244.639 --undefined--
0.05 240.575 67.531
0.06 235.862 66.527
0.07 226.578 64.350
0.08 214.785 61.742
0.09 241.973 59.761
0.10 --undefined-- 61.416
0.11 --undefined-- 64.860
0.12 --undefined-- 66.111
0.13 --undefined-- 65.788
0.14 --undefined-- 65.208
0.15 --undefined-- 64.554
0.16 --undefined-- 63.374
0.17 --undefined-- 61.836
0.18 203.589 61.533
0.19 195.286 63.200
0.20 189.099 64.867
0.21 207.618 65.512
0.22 217.658 65.975
0.23 203.909 66.840
0.24 187.368 67.520
0.25 181.812 67.671
0.26 178.447 67.295
0.27 175.673 66.719
0.28 174.786 66.333
0.29 174.065 66.197
0.30 173.126 66.162
0.31 171.483 65.710
0.32 171.073 65.061
0.33 171.691 64.882
0.34 172.063 64.990
0.35 172.473 65.190
0.36 173.237 65.283
0.37 174.560 65.393
0.38 177.689 66.009
0.39 179.858 67.012
0.40 182.469 67.873
0.41 185.882 68.172
0.42 188.309 67.511
0.43 187.670 65.462
0.44 186.514 62.090
0.45 --undefined-- 60.356
0.46 --undefined-- 62.230
0.47 227.229 64.207
0.48 221.269 65.115
0.49 222.701 65.494
0.50 213.985 66.144
0.51 201.480 67.472
0.52 187.820 68.692
0.53 170.163 69.510
0.54 168.784 70.004
0.55 170.223 69.986
0.56 172.044 69.310
0.57 173.125 68.167
0.58 174.289 67.159
0.59 175.887 66.867
0.60 175.621 67.242
0.61 175.023 67.636
0.62 175.601 67.941
0.63 176.497 68.475
0.64 178.925 69.192
0.65 181.427 69.605
0.66 184.244 68.836
0.67 187.024 66.453
0.68 208.324 64.864
0.69 230.431 67.138
0.70 241.084 70.232
0.71 251.288 72.686
0.72 259.963 73.877
0.73 270.111 73.613
0.74 281.355 72.848
0.75 292.231 72.458
0.76 151.505 72.776
0.77 150.957 73.117
0.78 149.543 72.231
0.79 299.469 70.143
0.80 284.692 68.179
0.81 258.445 66.713
0.82 227.513 65.365
0.83 213.822 65.203
0.84 193.272 66.111
0.85 194.934 67.786
0.86 204.749 69.863
0.87 201.898 70.814
0.88 200.383 70.572
0.89 201.227 69.755
0.90 192.927 68.715
0.91 186.441 68.094
0.92 180.826 67.909
0.93 174.466 67.751
0.94 177.828 67.271
0.95 177.108 66.442
0.96 174.934 65.937
0.97 171.077 66.020
0.98 170.656 66.358
0.99 171.140 66.288
1.00 171.137 65.924
1.01 171.652 66.446
1.02 166.605 66.873
1.03 167.206 66.385
1.04 170.131 65.760
1.05 173.128 65.397
1.06 173.845 65.413
1.07 170.130 65.897
1.08 176.401 66.335
1.09 177.595 66.554
1.10 176.232 66.812
1.11 176.516 67.147
1.12 177.977 67.613
1.13 179.774 68.267
1.14 181.625 68.970
1.15 184.720 69.843
1.16 187.538 70.979
1.17 188.323 71.880
1.18 188.870 72.233
1.19 188.571 72.319
1.20 188.484 72.486
1.21 190.306 72.464
1.22 191.558 71.375
1.23 190.565 68.416
1.24 190.902 64.101
1.25 191.872 62.609
1.26 191.394 62.453
1.27 191.618 60.171
1.28 192.332 58.151
1.29 194.385 60.367
1.30 --undefined-- 61.321
1.31 --undefined-- 59.806
1.32 --undefined-- 57.359
1.33 --undefined-- 57.079
1.34 --undefined-- 57.744
1.35 --undefined-- 57.437
1.36 --undefined-- 59.081
1.37 --undefined-- 61.634
1.38 --undefined-- 63.815
1.39 222.581 68.277
1.40 217.297 71.382
1.41 207.955 72.319
1.42 203.301 72.123
1.43 200.614 71.652
1.44 199.414 71.489
1.45 199.252 71.726
1.46 198.964 72.040
1.47 198.124 72.267
1.48 197.921 72.243
1.49 198.933 71.516
1.50 200.680 69.807
1.51 200.399 67.589
1.52 192.315 65.479
1.53 190.862 64.162
1.54 196.558 63.004
1.55 202.431 60.314
1.56 --undefined-- 56.569
1.57 --undefined-- 57.260
1.58 --undefined-- 60.389
1.59 --undefined-- 62.425
1.60 --undefined-- 62.992
1.61 267.529 63.346
1.62 266.331 64.626
1.63 --undefined-- 64.674
1.64 --undefined-- 63.389
1.65 210.110 63.091
1.66 212.798 64.779
1.67 191.167 66.955
1.68 185.591 67.772
1.69 178.618 66.617
1.70 171.612 64.197
1.71 168.105 62.333
1.72 165.826 61.738
1.73 162.777 61.684
1.74 160.521 61.245
1.75 157.205 60.505
1.76 158.512 60.727
1.77 159.227 61.499
1.78 160.778 62.188
1.79 164.537 62.751
1.80 167.015 61.755
1.81 163.846 58.718
1.82 --undefined-- 55.960
1.83 --undefined-- 56.549
1.84 --undefined-- 61.217
1.85 --undefined-- 65.648
1.86 231.434 68.031
1.87 232.773 68.918
1.88 238.828 69.006
1.89 246.087 68.435
1.90 250.584 67.690
1.91 252.519 67.493
1.92 253.386 67.549
1.93 254.442 67.631
1.94 254.963 67.923
1.95 256.473 68.189
1.96 259.998 68.222
1.97 260.880 67.597
1.98 254.384 65.484
1.99 247.844 61.475
2.00 256.317 55.959
2.01 --undefined-- 51.763
2.02 --undefined-- 52.261
2.03 --undefined-- 53.166
2.04 --undefined-- 54.937
2.05 --undefined-- 59.384
2.06 249.760 65.569
2.07 244.568 69.858
2.08 229.684 71.549
2.09 214.286 71.466
2.10 204.944 70.548
2.11 198.211 69.547
2.12 193.766 68.946
2.13 193.500 68.582
2.14 194.353 67.673
2.15 196.482 65.698
2.16 195.671 62.632
2.17 194.707 59.614
2.18 --undefined-- 59.217
2.19 --undefined-- 59.537
2.20 --undefined-- 57.748
2.21 --undefined-- 53.845
2.22 --undefined-- 55.508
2.23 --undefined-- 61.297
2.24 --undefined-- 64.223
2.25 --undefined-- 64.080
2.26 --undefined-- 63.176
2.27 --undefined-- 65.462
2.28 --undefined-- 67.003
2.29 --undefined-- 66.570
2.30 175.083 66.729
2.31 186.685 68.959
2.32 188.151 71.431
2.33 184.824 72.945
2.34 184.403 73.352
2.35 184.743 73.259
2.36 186.082 73.153
2.37 188.682 72.651
2.38 190.808 71.283
2.39 194.919 69.611
2.40 213.702 69.083
2.41 223.756 69.451
2.42 231.339 69.622
2.43 238.653 69.429
2.44 243.634 69.651
2.45 242.471 70.254
2.46 237.414 70.304
2.47 229.767 70.308
2.48 223.821 70.819
2.49 --undefined-- 71.024
2.50 --undefined-- 70.413
2.51 85.770 69.399
2.52 86.597 68.232
2.53 --undefined-- 66.231
2.54 --undefined-- 64.769
2.55 --undefined-- 64.961
2.56 --undefined-- 64.191
2.57 --undefined-- 62.091
2.58 --undefined-- 60.412
2.59 180.273 60.277
2.60 175.842 61.215
2.61 181.928 61.671
2.62 194.649 60.398
2.63 198.006 57.880
2.64 187.419 55.643
2.65 --undefined-- 57.107
2.66 --undefined-- 58.894
2.67 --undefined-- 58.055
2.68 --undefined-- 57.706
2.69 --undefined-- 60.620
2.70 --undefined-- 62.820
2.71 --undefined-- 63.883
2.72 --undefined-- 65.172
2.73 245.351 68.019
2.74 238.679 70.138
2.75 237.409 71.077
2.76 238.932 71.875
2.77 240.718 72.565
2.78 241.892 72.820
2.79 243.636 72.852
2.80 244.934 72.774
2.81 245.014 72.550
2.82 244.526 72.184
2.83 243.734 71.727
2.84 242.885 71.224
2.85 241.185 70.620
2.86 239.630 69.855
2.87 238.508 68.863
2.88 237.387 67.662
2.89 235.995 66.830
2.90 234.250 66.649
2.91 230.488 66.618
2.92 225.571 66.736
2.93 217.500 67.182
2.94 208.234 68.039
2.95 198.229 69.522
2.96 190.578 71.616
2.97 185.872 73.235
2.98 182.897 73.476
2.99 179.618 72.786
3.00 180.636 72.417
3.01 183.634 72.481
3.02 186.932 72.229
3.03 192.373 71.588
3.04 192.190 70.155
3.05 188.086 67.195
3.06 186.035 63.564
3.07 189.276 61.375
3.08 189.297 60.667
3.09 --undefined-- 60.447
3.10 --undefined-- 58.933
3.11 --undefined-- 56.425
3.12 --undefined-- 58.610
3.13 --undefined-- 63.592
3.14 252.304 66.979
3.15 252.394 68.596
3.16 255.562 68.822
3.17 268.644 68.353
3.18 277.318 68.610
3.19 146.964 70.180
3.20 154.103 71.950
3.21 158.932 73.206
3.22 162.891 74.067
3.23 167.245 74.542
3.24 171.307 74.341
3.25 174.557 72.963
3.26 175.126 69.778
3.27 171.053 65.070
3.28 172.385 61.332
3.29 174.192 62.321
3.30 179.841 66.354
3.31 170.896 68.830
3.32 162.863 70.169
3.33 152.894 71.435
3.34 292.781 72.240
3.35 278.781 72.268
3.36 268.184 71.905
3.37 251.876 71.808
3.38 242.624 71.847
3.39 235.169 71.365
3.40 230.866 70.487
3.41 227.108 69.221
3.42 223.218 67.545
3.43 224.837 66.664
3.44 219.884 66.801
3.45 215.955 67.651
3.46 211.224 69.031
3.47 203.418 70.213
3.48 195.083 71.423
3.49 189.837 72.716
3.50 188.180 73.358
3.51 178.459 72.921
3.52 174.343 71.897
3.53 173.136 70.912
3.54 175.678 70.205
3.55 181.663 70.254
3.56 182.760 70.628
3.57 185.055 71.126
3.58 187.775 71.887
3.59 191.209 72.311
3.60 197.289 71.699
3.61 205.685 70.119
3.62 209.054 68.407
3.63 210.042 67.346
3.64 218.725 67.732
3.65 219.561 68.649
3.66 217.953 69.033
3.67 208.465 70.211
3.68 203.332 72.718
3.69 199.303 74.409
3.70 185.901 74.895
3.71 180.087 74.555
3.72 167.803 73.681
3.73 162.551 72.659
3.74 159.922 71.697
3.75 160.360 71.016
3.76 159.613 70.444
3.77 157.229 69.833
3.78 --undefined-- 70.065
3.79 --undefined-- 70.802
3.80 --undefined-- 70.815
3.81 --undefined-- 70.297
3.82 --undefined-- 68.656
3.83 --undefined-- 65.778
3.84 --undefined-- 62.097
3.85 --undefined-- 58.898
3.86 --undefined-- 60.307
3.87 --undefined-- 63.287
3.88 --undefined-- 64.434
3.89 238.340 63.320
3.90 199.016 61.322
3.91 194.725 61.840
3.92 202.593 63.201
3.93 207.873 63.802
3.94 205.015 63.879
3.95 200.828 63.518
3.96 196.887 63.402
3.97 192.273 63.731
3.98 187.920 64.052
3.99 187.837 64.884
4.00 198.100 66.775
4.01 215.411 69.199
4.02 219.503 70.883
4.03 207.066 71.791
4.04 207.109 72.971
4.05 204.510 73.850
4.06 201.767 73.267
4.07 200.144 71.278
4.08 200.503 69.343
4.09 199.664 67.688
4.10 196.303 66.069
4.11 192.341 66.384
4.12 190.960 67.239
4.13 190.724 67.401
4.14 190.827 67.319
4.15 191.701 67.236
4.16 193.356 66.941
4.17 194.726 66.589
4.18 196.083 66.448
4.19 196.469 66.539
4.20 197.138 66.512
4.21 197.546 66.162
4.22 198.860 65.642
4.23 197.809 64.524
4.24 194.155 61.922
4.25 --undefined-- 58.252
4.26 --undefined-- 55.847
4.27 --undefined-- 58.147
4.28 236.649 62.241
4.29 291.547 63.946
4.30 295.091 62.753
4.31 298.839 61.849
4.32 276.003 66.460
4.33 256.953 69.912
4.34 244.075 71.172
4.35 234.981 71.180
4.36 229.106 70.764
4.37 223.732 70.274
4.38 221.852 69.530
4.39 223.299 68.771
4.40 223.224 68.664
4.41 225.226 68.819
4.42 229.087 68.871
4.43 233.431 68.746
4.44 238.802 68.450
4.45 244.660 68.244
4.46 251.159 68.195
4.47 261.783 68.443
4.48 277.703 69.552
4.49 283.393 71.054
4.50 293.365 72.543
4.51 152.405 73.865
4.52 156.448 74.309
4.53 160.230 73.363
4.54 160.637 71.062
4.55 156.049 67.900
4.56 --undefined-- 64.478
4.57 --undefined-- 62.100
4.58 --undefined-- 60.461
4.59 --undefined-- 58.286
4.60 --undefined-- 56.600
4.61 --undefined-- 56.353
4.62 --undefined-- 57.525
4.63 --undefined-- 58.752
4.64 --undefined-- 59.209
4.65 --undefined-- 58.686
4.66 --undefined-- 57.569
4.67 --undefined-- 57.398
4.68 --undefined-- 57.689
4.69 --undefined-- 58.475
4.70 --undefined-- 57.594
4.71 --undefined-- 55.036
4.72 --undefined-- 55.941
4.73 --undefined-- 57.307
4.74 --undefined-- 57.458
4.75 --undefined-- 58.301
4.76 --undefined-- 59.365
4.77 --undefined-- 60.218
4.78 229.215 61.262
4.79 205.843 62.497
4.80 193.230 64.203
4.81 190.716 66.395
4.82 188.726 68.243
4.83 187.689 69.816
4.84 188.172 71.635
4.85 189.638 73.644
4.86 190.394 75.085
4.87 188.433 75.470
4.88 185.472 74.754
4.89 182.042 73.123
4.90 178.276 71.069
4.91 176.129 69.247
4.92 173.669 68.044
4.93 173.195 --undefined--
4.94 174.640 --undefined--
4.95 --undefined-- --undefined--
4.96 --undefined-- --undefined--
