Time Pitch Intensity
0.01 --undefined-- --undefined--
0.02 143.129 --undefined--
0.03 140.784 --undefined--
0.04 137.586 --undefined--
0.05 132.430 72.888
0.06 127.121 72.657
0.07 126.814 73.728
0.08 121.320 75.020
0.09 111.464 75.308
0.10 107.270 75.393
0.11 101.719 75.768
0.12 98.163 76.032
0.13 96.960 76.004
0.14 97.000 75.465
0.15 98.259 74.861
0.16 100.022 74.942
0.17 101.532 75.232
0.18 103.356 75.266
0.19 104.965 75.455
0.20 107.850 76.001
0.21 110.252 76.551
0.22 114.718 76.978
0.23 119.667 77.360
0.24 124.994 77.591
0.25 128.946 77.275
0.26 129.775 76.459
0.27 130.022 75.992
0.28 129.130 75.606
0.29 125.644 74.720
0.30 117.214 73.931
0.31 115.334 73.861
0.32 114.241 73.908
0.33 112.575 73.840
0.34 111.373 74.065
0.35 109.380 74.647
0.36 105.172 75.054
0.37 104.281 74.555
0.38 103.959 72.908
0.39 102.093 70.912
0.40 102.273 69.992
0.41 103.292 70.930
0.42 105.719 73.178
0.43 108.395 75.148
0.44 107.748 75.995
0.45 104.744 76.157
0.46 104.101 76.137
0.47 103.211 75.922
0.48 101.716 75.339
0.49 100.562 73.996
0.50 102.833 72.169
0.51 107.748 71.190
0.52 114.110 71.369
0.53 116.822 71.567
0.54 121.575 71.622
0.55 132.386 72.107
0.56 138.281 73.196
0.57 146.595 74.822
0.58 153.370 76.162
0.59 160.059 76.763
0.60 165.464 76.921
0.61 169.379 76.699
0.62 171.370 75.816
0.63 170.113 73.987
0.64 167.128 71.358
0.65 171.575 69.900
0.66 174.385 71.075
0.67 172.244 72.453
0.68 167.667 73.286
0.69 162.415 73.826
0.70 155.915 74.148
0.71 149.714 74.550
0.72 134.685 75.000
0.73 130.507 74.993
0.74 127.731 74.939
0.75 124.838 75.106
0.76 122.822 75.133
0.77 121.867 75.133
0.78 122.048 75.332
0.79 123.803 75.725
0.80 126.506 76.043
0.81 128.911 76.017
0.82 133.036 75.883
0.83 137.301 75.928
0.84 142.000 75.875
0.85 146.137 75.429
0.86 149.882 74.948
0.87 153.289 74.869
0.88 157.618 75.024
0.89 159.398 74.434
0.90 159.581 71.779
0.91 161.070 66.603
0.92 160.005 60.586
0.93 155.801 56.331
0.94 154.371 53.001
0.95 157.025 50.324
0.96 --undefined-- 49.005
0.97 --undefined-- 54.406
0.98 --undefined-- 63.413
0.99 177.562 69.466
1.00 168.737 72.442
1.01 168.425 73.315
1.02 168.708 73.275
1.03 168.405 72.956
1.04 167.984 72.586
1.05 167.532 72.699
1.06 167.272 73.643
1.07 163.805 75.199
1.08 160.916 76.509
1.09 155.443 76.907
1.10 152.828 76.248
1.11 136.573 75.144
1.12 129.250 74.771
1.13 122.083 74.514
1.14 109.764 74.038
1.15 107.748 73.662
1.16 102.932 73.319
1.17 102.583 72.781
1.18 101.607 71.355
1.19 92.988 68.633
1.20 --undefined-- 67.457
1.21 111.035 69.232
1.22 101.880 70.831
1.23 101.174 71.879
1.24 103.864 72.456
1.25 105.672 72.628
1.26 108.226 72.780
1.27 114.669 73.173
1.28 119.802 73.856
1.29 122.174 74.429
1.30 128.221 74.612
1.31 132.347 74.522
1.32 135.076 74.629
1.33 137.008 74.954
1.34 138.278 75.101
1.35 138.775 75.043
1.36 137.656 74.487
1.37 136.422 72.751
1.38 135.566 69.267
1.39 129.445 63.880
1.40 133.840 57.636
1.41 135.692 55.328
1.42 --undefined-- 56.525
1.43 --undefined-- 56.471
1.44 --undefined-- 54.528
1.45 --undefined-- 54.442
1.46 --undefined-- 59.192
1.47 142.565 65.477
1.48 137.766 69.586
1.49 128.430 71.300
1.50 111.695 71.293
1.51 103.723 70.507
1.52 101.138 70.118
1.53 99.816 70.497
1.54 103.548 71.244
1.55 104.323 71.936
1.56 104.090 72.463
1.57 104.340 72.944
1.58 105.348 73.334
1.59 106.261 73.548
1.60 106.819 73.558
1.61 106.980 73.490
1.62 107.587 73.467
1.63 109.129 73.405
1.64 110.802 73.062
1.65 112.016 72.204
1.66 112.881 70.848
1.67 116.184 69.607
1.68 122.986 69.016
1.69 129.444 68.594
1.70 139.020 68.375
1.71 151.818 69.018
1.72 161.990 69.852
1.73 177.341 70.565
1.74 188.861 71.539
1.75 195.386 72.673
1.76 197.323 73.507
1.77 198.705 73.983
1.78 196.954 74.385
1.79 192.265 74.367
1.80 186.038 73.306
1.81 175.788 70.698
1.82 162.221 66.246
1.83 186.808 60.944
1.84 197.599 58.286
1.85 197.261 57.990
1.86 --undefined-- 57.711
1.87 --undefined-- 57.053
1.88 --undefined-- 56.055
1.89 --undefined-- 57.656
1.90 221.190 65.278
1.91 212.277 70.549
1.92 197.093 72.568
1.93 189.820 72.504
1.94 182.904 72.155
1.95 177.130 73.164
1.96 174.211 74.814
1.97 169.461 75.798
1.98 159.044 75.830
1.99 154.768 74.779
2.00 123.298 73.608
2.01 123.520 73.901
2.02 111.264 74.487
2.03 109.351 74.397
2.04 102.969 73.652
2.05 98.932 72.655
2.06 97.652 71.486
2.07 95.346 69.628
2.08 79.775 67.100
2.09 102.471 67.108
2.10 110.200 69.176
2.11 101.580 70.526
2.12 102.320 70.765
2.13 101.429 69.350
2.14 100.609 65.673
2.15 102.260 59.393
2.16 --undefined-- 52.515
2.17 --undefined-- 52.707
2.18 --undefined-- 58.549
2.19 --undefined-- 66.467
2.20 149.824 72.515
2.21 146.421 75.544
2.22 139.934 76.388
2.23 136.783 76.345
2.24 135.052 76.220
2.25 132.572 75.968
2.26 128.792 75.181
2.27 125.220 73.337
2.28 120.876 69.715
2.29 100.799 64.047
2.30 127.904 59.238
2.31 126.434 56.806
2.32 127.833 53.516
2.33 --undefined-- 49.624
2.34 --undefined-- 46.984
2.35 --undefined-- 47.665
2.36 --undefined-- 53.202
2.37 --undefined-- 61.101
2.38 153.195 67.178
2.39 149.594 71.016
2.40 148.681 73.212
2.41 148.235 74.477
2.42 144.473 74.992
2.43 142.563 75.039
2.44 142.856 75.366
2.45 144.109 75.868
2.46 145.106 76.138
2.47 145.059 75.943
2.48 144.173 75.123
2.49 141.665 73.657
2.50 136.099 71.806
2.51 135.839 70.307
2.52 133.008 69.580
2.53 130.549 69.481
2.54 128.967 69.980
2.55 126.490 70.949
2.56 127.676 72.164
2.57 129.217 73.353
2.58 125.785 74.334
2.59 120.817 75.003
2.60 117.433 75.268
2.61 114.191 74.956
2.62 112.393 74.189
2.63 113.527 73.237
2.64 112.064 72.120
2.65 110.524 71.359
2.66 110.464 71.610
2.67 112.267 72.675
2.68 115.397 74.069
2.69 116.228 75.313
2.70 115.535 75.982
2.71 109.402 75.882
2.72 107.247 75.516
2.73 101.561 75.463
2.74 99.787 75.630
2.75 100.653 75.702
2.76 102.663 75.610
2.77 103.822 75.478
2.78 107.885 75.293
2.79 109.987 74.721
2.80 112.173 73.554
2.81 112.715 72.067
2.82 111.011 71.154
2.83 123.788 71.745
2.84 123.953 72.537
2.85 123.739 72.691
2.86 123.858 72.622
2.87 124.489 72.364
2.88 124.502 71.532
2.89 122.101 69.846
2.90 114.697 67.274
2.91 99.644 64.075
2.92 --undefined-- 60.733
2.93 --undefined-- 57.823
2.94 --undefined-- 58.005
2.95 --undefined-- 61.720
2.96 --undefined-- 64.496
2.97 126.752 66.687
2.98 134.367 68.476
2.99 132.728 70.056
3.00 129.533 71.800
3.01 123.420 72.801
3.02 117.410 72.706
3.03 117.173 72.537
3.04 116.798 72.767
3.05 115.871 72.557
3.06 108.385 71.075
3.07 101.806 67.832
3.08 116.027 63.073
3.09 115.517 58.428
3.10 119.916 55.515
3.11 120.940 52.433
3.12 --undefined-- 48.303
3.13 --undefined-- 45.197
3.14 --undefined-- 44.225
3.15 --undefined-- 43.585
3.16 --undefined-- 42.092
3.17 --undefined-- 43.071
3.18 --undefined-- 46.753
3.19 --undefined-- 48.126
3.20 --undefined-- 47.951
3.21 --undefined-- 48.832
3.22 --undefined-- 50.961
3.23 --undefined-- 53.110
3.24 --undefined-- 55.302
3.25 --undefined-- 57.051
3.26 --undefined-- 58.053
3.27 --undefined-- 59.108
3.28 --undefined-- 60.552
3.29 --undefined-- 65.466
3.30 145.240 70.482
3.31 127.311 72.703
3.32 120.092 72.599
3.33 114.999 71.020
3.34 106.030 68.406
3.35 98.126 65.556
3.36 121.856 62.701
3.37 115.268 58.240
3.38 114.083 53.373
3.39 --undefined-- 55.891
3.40 --undefined-- 62.139
3.41 --undefined-- 64.929
3.42 --undefined-- 65.511
3.43 --undefined-- 69.452
3.44 137.686 72.987
3.45 129.368 73.863
3.46 124.393 72.710
3.47 119.722 69.968
3.48 100.575 65.525
3.49 100.123 60.553
3.50 121.474 57.996
3.51 122.735 56.474
3.52 119.073 54.063
3.53 --undefined-- 52.145
3.54 --undefined-- 56.154
3.55 --undefined-- 61.114
3.56 --undefined-- 67.217
3.57 --undefined-- 72.898
3.58 --undefined-- 75.759
3.59 142.453 76.386
3.60 137.122 75.984
3.61 131.297 75.269
3.62 124.694 74.484
3.63 121.693 73.664
3.64 120.814 72.931
3.65 122.043 72.976
3.66 125.512 73.606
3.67 129.252 74.150
3.68 131.090 74.384
3.69 132.895 74.159
3.70 134.553 73.358
3.71 134.982 71.966
3.72 125.525 70.874
3.73 135.287 71.678
3.74 136.900 73.034
3.75 137.330 73.995
3.76 137.679 74.606
3.77 137.375 74.894
3.78 137.245 74.919
3.79 136.492 74.636
3.80 134.695 74.249
3.81 134.480 74.052
3.82 132.700 73.796
3.83 130.204 73.261
3.84 126.892 72.536
3.85 121.250 72.090
3.86 115.935 72.397
3.87 106.885 73.269
3.88 105.567 73.966
3.89 103.741 74.360
3.90 100.983 74.923
3.91 99.931 75.376
3.92 100.546 75.062
3.93 102.778 74.411
3.94 102.614 74.063
3.95 102.881 74.023
3.96 104.565 74.380
3.97 108.183 75.215
3.98 113.116 76.195
3.99 118.638 76.711
4.00 121.217 76.468
4.01 120.000 76.090
4.02 118.063 76.009
4.03 116.161 75.871
4.04 113.864 75.603
4.05 101.242 74.787
4.06 90.194 73.096
4.07 89.987 70.650
4.08 83.387 67.519
4.09 110.712 63.939
4.10 114.997 60.164
4.11 117.099 55.869
4.12 116.544 52.987
4.13 114.216 52.547
4.14 110.228 52.823
4.15 --undefined-- 53.152
4.16 --undefined-- 52.759
4.17 --undefined-- 52.203
4.18 --undefined-- 51.913
4.19 --undefined-- 51.599
4.20 --undefined-- 51.327
4.21 --undefined-- 50.978
4.22 --undefined-- 50.947
4.23 --undefined-- 51.592
4.24 --undefined-- 51.918
4.25 --undefined-- 51.275
4.26 --undefined-- 50.091
4.27 --undefined-- 49.474
4.28 --undefined-- 50.519
4.29 --undefined-- 51.520
4.30 --undefined-- 51.591
4.31 --undefined-- 51.232
4.32 --undefined-- 50.342
4.33 --undefined-- 49.181
4.34 --undefined-- 48.192
4.35 --undefined-- 47.155
4.36 --undefined-- 45.195
4.37 --undefined-- 42.640
4.38 --undefined-- 41.443
4.39 --undefined-- 42.132
4.40 --undefined-- 43.819
4.41 --undefined-- 52.144
4.42 --undefined-- 62.174
4.43 211.444 68.488
4.44 201.530 71.646
4.45 206.177 73.034
4.46 211.722 73.676
4.47 214.674 73.873
4.48 212.553 73.487
4.49 206.283 72.258
4.50 193.262 70.183
4.51 195.390 68.144
4.52 195.693 69.465
4.53 218.966 73.462
4.54 222.549 76.208
4.55 221.644 77.222
4.56 218.868 77.330
4.57 218.143 77.288
4.58 216.949 77.175
4.59 213.749 76.792
4.60 209.170 76.116
4.61 204.925 75.525
4.62 200.225 75.414
4.63 193.683 75.820
4.64 184.779 76.427
4.65 177.870 76.712
4.66 170.448 76.551
4.67 165.183 75.663
4.68 160.647 73.124
4.69 154.945 68.420
4.70 --undefined-- 62.599
4.71 --undefined-- 59.093
4.72 --undefined-- 61.200
4.73 --undefined-- 68.430
4.74 172.181 73.642
4.75 161.564 75.966
4.76 156.321 76.357
4.77 152.019 75.982
4.78 149.105 75.577
4.79 146.390 75.233
4.80 141.909 74.964
4.81 138.674 74.784
4.82 135.791 74.693
4.83 135.125 74.928
4.84 134.936 75.477
4.85 134.375 75.885
4.86 132.522 75.870
4.87 125.946 75.814
4.88 122.993 75.946
4.89 121.631 75.461
4.90 119.634 73.482
4.91 101.257 70.547
4.92 127.153 70.281
4.93 120.155 71.832
4.94 119.557 72.808
4.95 119.231 73.160
4.96 118.553 73.205
4.97 118.142 73.205
4.98 118.001 73.267
4.99 118.041 73.385
5.00 116.447 73.091
5.01 114.603 72.209
5.02 113.776 71.409
5.03 110.697 71.423
5.04 108.101 72.446
5.05 107.706 73.878
5.06 108.742 --undefined--
5.07 106.571 --undefined--
5.08 --undefined-- --undefined--
5.09 --undefined-- --undefined--
