Time Pitch Intensity
0.01 --undefined-- --undefined--
0.02 --undefined-- --undefined--
0.03 --undefined-- --undefined--
0.04 --undefined-- --undefined--
0.05 --undefined-- 52.392
0.06 --undefined-- 49.657
0.07 --undefined-- 49.574
0.08 --undefined-- 47.980
0.09 --undefined-- 47.711
0.10 --undefined-- 51.989
0.11 --undefined-- 54.248
0.12 --undefined-- 53.791
0.13 --undefined-- 57.491
0.14 --undefined-- 64.983
0.15 --undefined-- 69.350
0.16 150.337 70.649
0.17 153.196 70.017
0.18 155.799 69.131
0.19 157.156 68.749
0.20 157.387 68.384
0.21 155.850 67.529
0.22 151.732 65.918
0.23 293.439 62.916
0.24 --undefined-- 57.836
0.25 --undefined-- 51.746
0.26 --undefined-- 48.159
0.27 --undefined-- 46.817
0.28 --undefined-- 47.428
0.29 --undefined-- 48.515
0.30 --undefined-- 48.768
0.31 --undefined-- 49.057
0.32 --undefined-- 50.637
0.33 --undefined-- 51.562
0.34 --undefined-- 50.128
0.35 --undefined-- 48.444
0.36 --undefined-- 49.184
0.37 --undefined-- 51.836
0.38 --undefined-- 58.872
0.39 --undefined-- 64.348
0.40 --undefined-- 66.839
0.41 --undefined-- 66.985
0.42 --undefined-- 66.111
0.43 145.125 65.487
0.44 142.068 65.138
0.45 140.374 64.761
0.46 --undefined-- 64.561
0.47 --undefined-- 64.873
0.48 --undefined-- 65.300
0.49 172.071 65.261
0.50 177.166 64.747
0.51 182.664 63.877
0.52 185.123 62.612
0.53 209.628 61.848
0.54 217.192 61.921
0.55 220.737 62.008
0.56 222.859 61.684
0.57 223.792 60.204
0.58 220.645 57.019
0.59 --undefined-- 55.284
0.60 --undefined-- 59.284
0.61 --undefined-- 63.008
0.62 215.067 64.402
0.63 204.954 64.865
0.64 197.546 65.927
0.65 190.953 67.182
0.66 186.306 67.750
0.67 184.380 67.648
0.68 186.472 67.468
0.69 187.530 66.851
0.70 186.914 64.674
0.71 185.280 60.250
0.72 185.879 54.607
0.73 189.103 51.876
0.74 --undefined-- 52.684
0.75 --undefined-- 53.808
0.76 --undefined-- 54.399
0.77 214.517 58.395
0.78 214.335 62.910
0.79 223.287 64.943
0.80 241.429 65.252
0.81 250.888 65.789
0.82 245.094 66.211
0.83 242.196 65.840
0.84 248.425 65.798
0.85 252.011 66.666
0.86 253.557 67.282
0.87 255.168 67.100
0.88 256.953 66.822
0.89 259.309 66.833
0.90 261.212 66.656
0.91 260.969 65.921
0.92 260.125 63.976
0.93 243.677 60.593
0.94 242.510 56.811
0.95 --undefined-- 53.395
0.96 --undefined-- 52.188
0.97 --undefined-- 53.066
0.98 --undefined-- 52.042
0.99 --undefined-- 53.998
1.00 270.375 59.615
1.01 257.516 63.029
1.02 260.367 64.684
1.03 261.834 65.367
1.04 262.092 65.543
1.05 262.100 65.458
1.06 262.175 65.310
1.07 262.001 65.235
1.08 261.224 64.975
1.09 260.443 64.518
1.10 260.554 64.169
1.11 260.882 63.576
1.12 260.579 62.151
1.13 260.152 59.582
1.14 266.461 56.184
1.15 268.822 54.125
1.16 290.643 54.785
1.17 289.200 56.239
1.18 289.478 57.419
1.19 290.351 57.989
1.20 --undefined-- 57.282
1.21 --undefined-- 56.462
1.22 --undefined-- 56.748
1.23 --undefined-- 56.360
1.24 --undefined-- 54.670
1.25 --undefined-- 54.723
1.26 --undefined-- 57.211
1.27 --undefined-- 59.155
1.28 --undefined-- 60.367
1.29 294.293 63.178
1.30 272.576 66.603
1.31 270.829 68.611
1.32 271.995 69.548
1.33 272.344 69.958
1.34 272.937 70.044
1.35 273.802 69.999
1.36 274.108 69.961
1.37 274.009 69.931
1.38 272.884 70.019
1.39 269.067 70.455
1.40 262.119 71.227
1.41 245.503 71.653
1.42 237.020 70.444
1.43 --undefined-- 66.894
1.44 --undefined-- 61.724
1.45 --undefined-- 57.176
1.46 283.558 54.998
1.47 281.433 55.183
1.48 286.160 56.874
1.49 --undefined-- 57.072
1.50 --undefined-- 55.039
1.51 --undefined-- 51.712
1.52 --undefined-- 51.188
1.53 --undefined-- 53.898
1.54 --undefined-- 56.654
1.55 --undefined-- 58.192
1.56 --undefined-- 57.510
1.57 --undefined-- 54.800
1.58 --undefined-- 51.300
1.59 --undefined-- 50.485
1.60 --undefined-- 52.084
1.61 --undefined-- 53.693
1.62 --undefined-- 54.734
1.63 --undefined-- 53.586
1.64 --undefined-- 50.703
1.65 --undefined-- 49.504
1.66 --undefined-- 50.528
1.67 --undefined-- 50.953
1.68 --undefined-- 49.376
1.69 --undefined-- 48.419
1.70 --undefined-- 50.790
1.71 --undefined-- 51.733
1.72 --undefined-- 49.888
1.73 --undefined-- 47.832
1.74 --undefined-- 47.242
1.75 --undefined-- 45.272
1.76 --undefined-- 42.783
1.77 --undefined-- 43.643
1.78 --undefined-- 45.413
1.79 --undefined-- 47.996
1.80 --undefined-- 52.261
1.81 --undefined-- 54.169
1.82 --undefined-- 52.618
1.83 --undefined-- 48.870
1.84 --undefined-- 48.941
1.85 --undefined-- 55.630
1.86 265.842 62.229
1.87 251.246 66.182
1.88 252.328 68.289
1.89 255.072 69.442
1.90 257.429 70.040
1.91 260.074 70.299
1.92 263.784 70.387
1.93 267.302 70.521
1.94 270.340 70.702
1.95 272.415 70.890
1.96 274.498 71.165
1.97 277.634 71.447
1.98 279.747 71.675
1.99 280.879 71.512
2.00 280.253 70.150
2.01 276.885 66.772
2.02 274.810 61.069
2.03 278.262 55.642
2.04 280.063 58.663
2.05 261.240 62.045
2.06 --undefined-- 63.602
2.07 163.094 65.990
2.08 159.844 68.643
2.09 160.277 70.038
2.10 159.730 70.429
2.11 159.783 70.383
2.12 160.177 70.312
2.13 160.695 70.253
2.14 161.081 70.114
2.15 161.266 69.890
2.16 161.245 69.497
2.17 160.665 68.890
2.18 160.272 68.277
2.19 160.269 67.984
2.20 160.677 68.066
2.21 158.649 68.245
2.22 154.825 68.875
2.23 154.177 69.840
2.24 --undefined-- 70.101
2.25 289.572 69.370
2.26 272.477 68.053
2.27 253.437 67.164
2.28 238.114 66.973
2.29 207.443 67.423
2.30 191.965 69.333
2.31 181.935 71.296
2.32 175.551 71.849
2.33 173.349 71.013
2.34 173.381 69.407
2.35 174.284 68.004
2.36 176.871 67.835
2.37 179.368 68.491
2.38 180.613 68.974
2.39 181.617 68.678
2.40 184.264 67.736
2.41 187.156 67.133
2.42 189.014 66.982
2.43 190.438 65.969
2.44 190.681 62.967
2.45 186.846 57.574
2.46 188.702 50.857
2.47 --undefined-- 47.276
2.48 --undefined-- 54.065
2.49 --undefined-- 62.142
2.50 154.552 67.091
2.51 156.831 69.340
2.52 163.633 69.668
2.53 168.288 69.057
2.54 169.961 68.499
2.55 169.689 68.110
2.56 167.299 67.389
2.57 160.955 65.833
2.58 158.131 63.056
2.59 160.197 61.696
2.60 167.073 65.030
2.61 163.754 67.306
2.62 158.331 67.738
2.63 150.620 67.739
2.64 290.175 68.529
2.65 284.214 69.395
2.66 283.637 69.185
2.67 286.540 68.006
2.68 287.734 66.742
2.69 285.438 65.242
2.70 277.317 62.295
2.71 276.799 58.172
2.72 282.602 55.789
2.73 292.584 54.707
2.74 --undefined-- 54.033
2.75 --undefined-- 53.050
2.76 --undefined-- 51.866
2.77 --undefined-- 53.594
2.78 --undefined-- 56.997
2.79 --undefined-- 62.424
2.80 --undefined-- 67.337
2.81 --undefined-- 69.238
2.82 --undefined-- 67.774
2.83 --undefined-- 63.251
2.84 --undefined-- 57.741
2.85 --undefined-- 57.407
2.86 --undefined-- 61.684
2.87 --undefined-- 64.951
2.88 146.768 66.185
2.89 150.297 65.931
2.90 167.445 65.523
2.91 173.295 65.674
2.92 176.704 65.604
2.93 182.876 65.471
2.94 191.534 65.806
2.95 199.948 66.103
2.96 210.770 65.718
2.97 222.718 64.547
2.98 227.327 62.404
2.99 207.652 58.651
3.00 189.763 54.090
3.01 193.308 53.233
3.02 231.076 58.085
3.03 209.386 63.867
3.04 197.264 67.825
3.05 194.471 69.830
3.06 185.425 70.355
3.07 184.505 70.473
3.08 185.653 70.896
3.09 187.795 71.348
3.10 191.138 71.516
3.11 193.250 71.148
3.12 199.067 70.278
3.13 206.407 69.201
3.14 208.703 67.891
3.15 203.020 66.121
3.16 207.455 64.264
3.17 206.035 62.667
3.18 --undefined-- 61.092
3.19 --undefined-- 59.082
3.20 --undefined-- 56.010
3.21 --undefined-- 52.018
3.22 --undefined-- 50.840
3.23 --undefined-- 49.734
3.24 --undefined-- 47.129
3.25 --undefined-- 47.786
3.26 --undefined-- 49.672
3.27 --undefined-- 50.246
3.28 --undefined-- 51.805
3.29 --undefined-- 52.771
3.30 --undefined-- 50.599
3.31 --undefined-- 46.473
3.32 --undefined-- 46.876
3.33 --undefined-- 52.140
3.34 --undefined-- 58.506
3.35 197.981 63.079
3.36 191.341 65.652
3.37 186.441 66.504
3.38 183.810 65.682
3.39 181.124 62.930
3.40 --undefined-- 58.182
3.41 --undefined-- 53.457
3.42 --undefined-- 55.820
3.43 193.230 60.834
3.44 190.486 64.165
3.45 186.595 65.662
3.46 180.919 65.663
3.47 175.416 64.839
3.48 173.622 63.626
3.49 171.584 62.369
3.50 172.670 62.449
3.51 178.502 63.157
3.52 179.686 63.242
3.53 178.199 63.196
3.54 175.898 63.372
3.55 174.194 63.747
3.56 172.773 64.143
3.57 174.004 63.822
3.58 161.819 62.707
3.59 157.746 62.037
3.60 153.289 61.663
3.61 --undefined-- 60.710
3.62 --undefined-- 59.807
3.63 --undefined-- 59.048
3.64 --undefined-- 58.783
3.65 --undefined-- 59.759
3.66 --undefined-- 60.360
3.67 --undefined-- 60.309
3.68 157.589 60.352
3.69 159.728 60.999
3.70 161.349 61.929
3.71 169.470 62.493
3.72 176.939 62.449
3.73 182.183 61.841
3.74 187.282 60.561
3.75 188.120 58.371
3.76 --undefined-- 56.754
3.77 --undefined-- 57.067
3.78 --undefined-- 56.675
3.79 --undefined-- 56.036
3.80 --undefined-- 58.765
3.81 184.431 61.575
3.82 171.375 62.798
3.83 161.503 63.017
3.84 155.331 62.752
3.85 155.475 62.120
3.86 159.457 61.432
3.87 160.384 61.081
3.88 161.418 60.548
3.89 162.677 58.761
3.90 162.363 55.636
3.91 --undefined-- 52.416
3.92 --undefined-- 52.426
3.93 --undefined-- 55.198
3.94 --undefined-- 56.472
3.95 --undefined-- 55.205
3.96 --undefined-- 51.395
3.97 --undefined-- 48.174
3.98 --undefined-- 52.287
3.99 191.098 57.897
4.00 188.835 61.539
4.01 167.343 63.158
4.02 162.597 63.132
4.03 159.346 61.764
4.04 157.863 59.176
4.05 --undefined-- 54.917
4.06 --undefined-- 50.551
4.07 --undefined-- 49.425
4.08 --undefined-- 48.149
4.09 --undefined-- 47.940
4.10 --undefined-- 49.424
4.11 --undefined-- 49.821
4.12 --undefined-- 49.164
4.13 --undefined-- 48.024
4.14 --undefined-- 50.871
4.15 --undefined-- 54.150
4.16 --undefined-- 54.877
4.17 --undefined-- 53.932
4.18 --undefined-- 56.456
4.19 --undefined-- 61.071
4.20 166.784 63.541
4.21 165.697 64.215
4.22 155.209 64.125
4.23 155.560 63.818
4.24 156.092 63.477
4.25 156.567 63.261
4.26 157.344 62.983
4.27 155.156 62.301
4.28 149.796 62.082
4.29 161.093 63.117
4.30 168.645 63.878
4.31 174.574 63.807
4.32 182.250 63.838
4.33 187.139 64.261
4.34 191.832 64.361
4.35 196.957 63.935
4.36 200.412 63.094
4.37 203.248 62.049
4.38 200.518 60.721
4.39 192.218 58.902
4.40 195.337 59.849
4.41 201.876 63.527
4.42 201.027 66.907
4.43 197.050 69.794
4.44 191.980 71.774
4.45 187.669 73.045
4.46 185.785 73.850
4.47 184.826 74.127
4.48 182.648 73.883
4.49 180.803 73.400
4.50 178.502 73.015
4.51 176.544 72.898
4.52 174.954 72.781
4.53 172.214 72.289
4.54 166.780 71.350
4.55 --undefined-- 69.913
4.56 --undefined-- 67.482
4.57 --undefined-- 64.459
4.58 --undefined-- 61.603
4.59 --undefined-- 58.827
4.60 --undefined-- 56.342
4.61 --undefined-- 53.777
4.62 --undefined-- 51.639
4.63 --undefined-- 49.229
4.64 --undefined-- 46.181
4.65 --undefined-- 46.380
4.66 --undefined-- 47.069
4.67 --undefined-- 47.463
4.68 --undefined-- 50.090
4.69 --undefined-- 51.383
4.70 --undefined-- 49.295
4.71 --undefined-- 45.536
4.72 --undefined-- 45.832
4.73 --undefined-- 47.972
4.74 --undefined-- 48.947
4.75 --undefined-- 48.960
4.76 --undefined-- 49.681
4.77 --undefined-- 51.840
4.78 --undefined-- 52.822
4.79 --undefined-- 51.491
4.80 --undefined-- 48.978
4.81 --undefined-- 47.028
4.82 --undefined-- 46.743
4.83 --undefined-- 49.168
4.84 --undefined-- 50.654
4.85 --undefined-- 49.772
4.86 --undefined-- 49.809
4.87 --undefined-- 50.801
4.88 --undefined-- 49.874
4.89 --undefined-- 48.274
4.90 --undefined-- 48.618
4.91 --undefined-- 50.837
4.92 --undefined-- 52.008
4.93 --undefined-- 51.186
4.94 --undefined-- 50.874
4.95 --undefined-- 53.237
4.96 --undefined-- 54.945
4.97 --undefined-- 54.438
4.98 --undefined-- 51.314
4.99 --undefined-- 47.648
5.00 --undefined-- 47.297
5.01 --undefined-- 49.648
5.02 --undefined-- --undefined--
5.03 --undefined-- --undefined--
5.04 --undefined-- --undefined--
5.05 --undefined-- --undefined--
