Time Pitch Intensity
0.01 --undefined-- --undefined--
0.02 151.826 --undefined--
0.03 146.511 --undefined--
0.04 139.885 --undefined--
0.05 134.792 76.918
0.06 121.314 77.427
0.07 116.644 77.577
0.08 109.598 77.225
0.09 103.239 76.762
0.10 102.665 76.368
0.11 100.185 75.746
0.12 98.203 75.049
0.13 100.973 74.960
0.14 101.714 75.155
0.15 102.100 75.264
0.16 103.260 75.396
0.17 105.658 75.476
0.18 109.336 75.566
0.19 113.367 75.971
0.20 121.106 76.774
0.21 123.555 77.467
0.22 125.172 77.877
0.23 126.470 78.101
0.24 127.875 78.182
0.25 127.561 78.156
0.26 126.008 77.851
0.27 121.766 77.194
0.28 117.438 76.296
0.29 111.647 74.967
0.30 105.439 73.016
0.31 110.072 70.403
0.32 113.504 66.330
0.33 115.698 60.212
0.34 --undefined-- 54.438
0.35 --undefined-- 53.576
0.36 --undefined-- 55.006
0.37 --undefined-- 55.621
0.38 --undefined-- 55.760
0.39 --undefined-- 55.986
0.40 --undefined-- 56.287
0.41 --undefined-- 56.975
0.42 --undefined-- 57.153
0.43 --undefined-- 56.938
0.44 --undefined-- 57.047
0.45 --undefined-- 57.123
0.46 --undefined-- 56.560
0.47 --undefined-- 55.863
0.48 --undefined-- 55.390
0.49 --undefined-- 54.397
0.50 --undefined-- 53.198
0.51 --undefined-- 51.198
0.52 --undefined-- 48.595
0.53 --undefined-- 48.151
0.54 --undefined-- 48.440
0.55 --undefined-- 49.474
0.56 --undefined-- 50.368
0.57 --undefined-- 49.141
0.58 --undefined-- 48.702
0.59 --undefined-- 51.815
0.60 --undefined-- 59.876
0.61 --undefined-- 69.618
0.62 --undefined-- 75.433
0.63 --undefined-- 77.910
0.64 154.874 78.312
0.65 151.994 78.171
0.66 151.151 78.343
0.67 150.868 78.766
0.68 151.344 78.847
0.69 152.945 78.259
0.70 152.961 77.153
0.71 149.669 75.937
0.72 147.060 74.701
0.73 146.095 73.551
0.74 146.325 73.058
0.75 147.412 73.698
0.76 148.361 75.269
0.77 148.617 76.949
0.78 149.001 78.249
0.79 149.747 79.109
0.80 147.510 79.560
0.81 146.408 79.789
0.82 146.006 79.550
0.83 144.545 78.746
0.84 143.267 77.964
0.85 142.398 77.522
0.86 141.272 77.241
0.87 140.840 76.982
0.88 140.059 76.790
0.89 139.999 76.735
0.90 140.044 76.832
0.91 140.012 77.112
0.92 140.700 77.616
0.93 141.531 78.274
0.94 143.667 78.837
0.95 146.161 79.020
0.96 148.434 78.993
0.97 151.474 79.081
0.98 154.445 78.983
0.99 157.306 78.513
1.00 162.330 78.241
1.01 164.633 78.090
1.02 165.466 77.687
1.03 167.420 77.086
1.04 173.851 76.516
1.05 186.540 77.029
1.06 193.446 78.192
1.07 195.614 78.588
1.08 197.097 78.639
1.09 197.648 78.821
1.10 196.858 78.996
1.11 193.933 79.033
1.12 189.114 78.934
1.13 184.631 78.738
1.14 180.130 78.619
1.15 176.275 78.614
1.16 172.047 78.553
1.17 168.250 78.460
1.18 163.633 78.437
1.19 159.096 78.460
1.20 155.345 78.337
1.21 151.706 78.051
1.22 147.899 77.559
1.23 142.399 76.751
1.24 --undefined-- 75.825
1.25 --undefined-- 74.625
1.26 --undefined-- 72.412
1.27 --undefined-- 68.604
1.28 --undefined-- 64.739
1.29 --undefined-- 63.876
1.30 --undefined-- 65.139
1.31 --undefined-- 66.712
1.32 --undefined-- 69.891
1.33 --undefined-- 72.971
1.34 114.067 74.703
1.35 114.814 75.997
1.36 116.255 76.817
1.37 132.402 77.130
1.38 130.433 77.279
1.39 129.037 77.542
1.40 127.738 77.906
1.41 126.978 78.055
1.42 125.789 77.689
1.43 124.826 76.507
1.44 124.175 73.847
1.45 109.703 68.937
1.46 110.351 62.142
1.47 120.812 57.668
1.48 122.408 55.365
1.49 --undefined-- 52.032
1.50 --undefined-- 47.702
1.51 --undefined-- 45.841
1.52 --undefined-- 48.300
1.53 --undefined-- 52.495
1.54 --undefined-- 57.215
1.55 --undefined-- 65.414
1.56 --undefined-- 72.144
1.57 159.447 75.465
1.58 148.331 76.033
1.59 145.240 74.889
1.60 143.408 73.419
1.61 146.785 73.548
1.62 148.396 75.355
1.63 147.657 77.087
1.64 145.236 77.882
1.65 144.168 77.779
1.66 144.180 77.018
1.67 143.641 75.062
1.68 --undefined-- 70.906
1.69 --undefined-- 64.208
1.70 --undefined-- 56.051
1.71 --undefined-- 49.617
1.72 --undefined-- 47.233
1.73 --undefined-- 47.741
1.74 --undefined-- 49.188
1.75 --undefined-- 48.730
1.76 --undefined-- 46.226
1.77 --undefined-- 43.539
1.78 --undefined-- 44.742
1.79 --undefined-- 53.194
1.80 --undefined-- 60.655
1.81 --undefined-- 65.387
1.82 --undefined-- 71.644
1.83 172.475 76.735
1.84 163.856 78.901
1.85 156.672 79.082
1.86 148.871 78.700
1.87 145.223 78.608
1.88 143.484 78.219
1.89 140.841 76.752
1.90 136.930 74.050
1.91 --undefined-- 70.045
1.92 --undefined-- 64.498
1.93 --undefined-- 58.461
1.94 --undefined-- 59.865
1.95 --undefined-- 65.516
1.96 --undefined-- 69.822
1.97 --undefined-- 73.032
1.98 161.328 75.356
1.99 168.899 76.847
2.00 169.235 77.513
2.01 167.311 77.715
2.02 166.035 77.780
2.03 164.803 77.707
2.04 162.945 77.458
2.05 159.974 76.879
2.06 155.015 76.179
2.07 155.010 76.123
2.08 153.569 76.613
2.09 151.105 77.117
2.10 146.281 77.517
2.11 139.906 77.775
2.12 134.341 77.801
2.13 130.143 77.564
2.14 127.439 76.456
2.15 121.678 73.485
2.16 119.456 68.086
2.17 126.598 60.819
2.18 128.791 55.559
2.19 --undefined-- 56.428
2.20 --undefined-- 59.621
2.21 --undefined-- 61.732
2.22 --undefined-- 62.450
2.23 --undefined-- 64.497
2.24 --undefined-- 68.107
2.25 --undefined-- 71.061
2.26 156.579 73.030
2.27 158.096 74.291
2.28 161.448 74.863
2.29 158.121 75.094
2.30 155.365 75.258
2.31 155.424 75.729
2.32 156.769 76.599
2.33 158.510 77.320
2.34 158.996 77.601
2.35 158.281 77.637
2.36 157.371 78.096
2.37 158.928 79.001
2.38 157.181 79.617
2.39 154.847 79.842
2.40 151.994 79.815
2.41 148.388 79.352
2.42 144.054 78.100
2.43 138.305 76.092
2.44 132.535 74.602
2.45 129.583 75.306
2.46 126.831 76.897
2.47 125.289 78.032
2.48 123.041 78.712
2.49 122.754 79.215
2.50 123.792 79.601
2.51 125.173 79.761
2.52 125.851 79.527
2.53 125.658 78.720
2.54 124.369 77.271
2.55 122.713 75.357
2.56 122.217 73.467
2.57 127.129 73.249
2.58 142.330 76.000
2.59 144.838 78.659
2.60 146.606 79.735
2.61 148.670 79.734
2.62 149.072 79.186
2.63 147.122 77.821
2.64 141.919 74.976
2.65 139.307 70.790
2.66 144.069 69.311
2.67 148.938 72.824
2.68 144.476 76.055
2.69 137.393 77.694
2.70 133.620 78.254
2.71 123.413 78.248
2.72 122.186 78.116
2.73 124.643 77.623
2.74 126.776 76.108
2.75 123.207 73.498
2.76 127.209 70.081
2.77 126.021 65.800
2.78 --undefined-- 61.390
2.79 --undefined-- 59.378
2.80 --undefined-- 59.153
2.81 --undefined-- 62.319
2.82 172.909 70.393
2.83 168.147 76.176
2.84 159.020 78.739
2.85 152.056 79.082
2.86 151.103 78.702
2.87 152.491 78.550
2.88 153.781 78.480
2.89 154.216 78.270
2.90 155.108 78.032
2.91 155.093 77.756
2.92 154.433 77.457
2.93 153.326 77.367
2.94 152.427 77.504
2.95 151.763 77.746
2.96 151.412 78.071
2.97 149.767 78.041
2.98 145.389 77.042
2.99 144.579 74.482
3.00 139.864 69.633
3.01 --undefined-- 62.306
3.02 --undefined-- 58.960
3.03 --undefined-- 65.789
3.04 156.570 72.922
3.05 155.759 76.937
3.06 140.728 78.167
3.07 131.735 77.584
3.08 120.520 76.025
3.09 112.094 74.279
3.10 113.888 73.182
3.11 114.455 72.707
3.12 113.916 72.077
3.13 112.610 70.125
3.14 --undefined-- 65.751
3.15 --undefined-- 58.451
3.16 --undefined-- 51.926
3.17 --undefined-- 51.041
3.18 --undefined-- 51.565
3.19 --undefined-- 51.460
3.20 --undefined-- 50.221
3.21 --undefined-- 48.697
3.22 --undefined-- 49.099
3.23 --undefined-- 50.256
3.24 --undefined-- 52.235
3.25 --undefined-- 59.488
3.26 158.730 67.380
3.27 152.526 72.763
3.28 146.606 75.824
3.29 147.034 77.461
3.30 147.097 78.451
3.31 146.294 78.983
3.32 144.159 78.571
3.33 139.336 76.736
3.34 133.671 74.500
3.35 140.692 75.042
3.36 145.624 77.162
3.37 145.359 78.582
3.38 144.705 79.055
3.39 142.629 78.795
3.40 139.999 78.287
3.41 137.872 77.826
3.42 136.559 77.327
3.43 136.016 76.730
3.44 134.827 76.047
3.45 134.092 75.146
3.46 135.409 73.550
3.47 135.485 71.086
3.48 --undefined-- 68.451
3.49 --undefined-- 66.551
3.50 --undefined-- 65.893
3.51 --undefined-- 67.584
3.52 150.993 71.404
3.53 151.573 74.718
3.54 145.293 76.290
3.55 140.877 76.447
3.56 138.937 75.654
3.57 134.901 73.716
3.58 127.027 70.072
3.59 124.068 64.381
3.60 --undefined-- 57.209
3.61 --undefined-- 52.283
3.62 --undefined-- 51.638
3.63 --undefined-- 50.801
3.64 --undefined-- 48.539
3.65 --undefined-- 44.845
3.66 --undefined-- 42.324
3.67 --undefined-- 45.818
3.68 --undefined-- 54.683
3.69 --undefined-- 61.299
3.70 --undefined-- 65.290
3.71 --undefined-- 70.577
3.72 --undefined-- 75.080
3.73 135.995 77.039
3.74 127.485 77.632
3.75 121.530 78.372
3.76 120.628 78.930
3.77 119.463 78.872
3.78 118.049 78.417
3.79 116.377 77.849
3.80 116.663 77.705
3.81 117.387 77.950
3.82 117.262 78.000
3.83 116.039 77.789
3.84 115.638 77.637
3.85 114.964 77.580
3.86 114.313 77.447
3.87 114.509 77.304
3.88 113.397 77.287
3.89 112.542 77.500
3.90 112.807 77.712
3.91 113.175 77.678
3.92 112.003 77.417
3.93 106.487 76.369
3.94 --undefined-- 73.594
3.95 --undefined-- 70.895
3.96 --undefined-- 70.482
3.97 --undefined-- 67.875
3.98 --undefined-- 61.851
3.99 --undefined-- 57.755
4.00 --undefined-- 58.720
4.01 --undefined-- 60.247
4.02 --undefined-- 60.499
4.03 --undefined-- 59.051
4.04 --undefined-- 58.359
4.05 139.668 60.837
4.06 121.071 62.278
4.07 109.452 62.174
4.08 110.563 62.607
4.09 103.562 64.479
4.10 97.454 67.111
4.11 97.923 69.570
4.12 99.584 71.523
4.13 100.936 72.947
4.14 101.901 74.015
4.15 102.369 74.798
4.16 102.635 75.305
4.17 102.905 75.551
4.18 103.894 75.664
4.19 105.100 75.732
4.20 106.184 75.812
4.21 108.414 75.863
4.22 111.599 75.521
4.23 110.705 74.143
4.24 108.324 71.430
4.25 107.413 67.301
4.26 106.415 61.306
4.27 --undefined-- 56.217
4.28 --undefined-- 65.100
4.29 --undefined-- 73.427
4.30 --undefined-- 77.777
4.31 --undefined-- 79.081
4.32 125.824 78.756
4.33 123.881 78.586
4.34 122.690 78.515
4.35 119.817 77.732
4.36 116.913 76.099
4.37 114.583 75.052
4.38 117.432 75.880
4.39 118.587 76.989
4.40 118.714 77.643
4.41 120.380 78.150
4.42 121.948 78.502
4.43 123.567 78.485
4.44 125.966 78.254
4.45 132.251 78.115
4.46 133.735 78.080
4.47 133.421 78.055
4.48 131.506 77.947
4.49 128.215 77.758
4.50 124.481 77.368
4.51 118.875 76.368
4.52 109.707 74.295
4.53 110.621 71.019
4.54 110.089 66.743
4.55 122.483 61.086
4.56 --undefined-- 54.575
4.57 --undefined-- 52.196
4.58 --undefined-- 52.055
4.59 --undefined-- 52.494
4.60 --undefined-- 53.528
4.61 --undefined-- 54.874
4.62 --undefined-- 55.794
4.63 --undefined-- 56.197
4.64 --undefined-- 56.738
4.65 --undefined-- 57.880
4.66 194.773 59.665
4.67 194.160 61.056
4.68 188.778 61.694
4.69 196.242 61.969
4.70 170.563 61.236
4.71 167.680 59.226
4.72 174.348 57.282
4.73 --undefined-- 55.975
4.74 --undefined-- 54.741
4.75 --undefined-- 52.490
4.76 --undefined-- 48.632
4.77 --undefined-- 44.844
4.78 --undefined-- 43.919
4.79 --undefined-- 44.597
4.80 --undefined-- 45.791
4.81 --undefined-- 56.357
4.82 --undefined-- 65.897
4.83 --undefined-- 71.549
4.84 75.124 74.527
4.85 126.595 75.583
4.86 128.565 75.692
4.87 136.686 76.179
4.88 137.165 76.887
4.89 138.561 77.427
4.90 139.712 77.713
4.91 141.565 77.916
4.92 141.472 78.116
4.93 140.373 78.147
4.94 136.969 77.896
4.95 136.127 77.672
4.96 133.303 77.718
4.97 132.035 77.922
4.98 130.439 78.091
4.99 128.736 78.209
5.00 127.841 78.302
5.01 127.357 78.456
5.02 126.944 78.721
5.03 126.521 78.885
5.04 125.684 78.917
5.05 124.644 78.893
5.06 123.374 78.786
5.07 123.471 78.604
5.08 124.032 78.400
5.09 123.788 78.245
5.10 123.046 78.120
5.11 123.157 77.827
5.12 124.179 77.083
5.13 122.268 75.250
5.14 117.727 71.438
5.15 100.660 --undefined--
5.16 97.797 --undefined--
5.17 --undefined-- --undefined--
5.18 --undefined-- --undefined--
