Time Pitch Intensity
0.01 --undefined-- --undefined--
0.02 --undefined-- --undefined--
0.03 --undefined-- --undefined--
0.04 --undefined-- --undefined--
0.05 --undefined-- 37.616
0.06 --undefined-- 38.565
0.07 --undefined-- 38.375
0.08 --undefined-- 37.431
0.09 --undefined-- 36.479
0.10 --undefined-- 35.571
0.11 --undefined-- 34.959
0.12 --undefined-- 36.198
0.13 --undefined-- 46.387
0.14 --undefined-- 57.910
0.15 --undefined-- 65.618
0.16 --undefined-- 70.245
0.17 --undefined-- 72.490
0.18 --undefined-- 72.829
0.19 113.124 72.093
0.20 113.264 71.515
0.21 113.154 71.288
0.22 112.406 71.108
0.23 111.671 70.827
0.24 111.521 69.917
0.25 112.010 68.496
0.26 114.728 67.188
0.27 116.560 66.261
0.28 118.678 65.502
0.29 118.492 64.330
0.30 117.421 61.815
0.31 --undefined-- 57.237
0.32 --undefined-- 51.172
0.33 --undefined-- 46.994
0.34 --undefined-- 43.846
0.35 --undefined-- 40.764
0.36 --undefined-- 38.709
0.37 --undefined-- 43.843
0.38 --undefined-- 50.481
0.39 --undefined-- 53.704
0.40 --undefined-- 57.983
0.41 --undefined-- 64.676
0.42 --undefined-- 68.651
0.43 108.833 69.548
0.44 104.748 68.534
0.45 103.526 67.114
0.46 102.820 65.459
0.47 103.550 63.241
0.48 100.675 60.734
0.49 100.859 58.171
0.50 100.018 55.290
0.51 --undefined-- 51.323
0.52 --undefined-- 46.689
0.53 --undefined-- 45.625
0.54 --undefined-- 50.854
0.55 --undefined-- 55.255
0.56 --undefined-- 57.451
0.57 --undefined-- 58.167
0.58 --undefined-- 58.061
0.59 --undefined-- 57.740
0.60 90.981 57.359
0.61 91.454 56.960
0.62 89.455 56.532
0.63 89.544 55.606
0.64 88.059 53.840
0.65 --undefined-- 50.836
0.66 --undefined-- 46.509
0.67 --undefined-- 43.618
0.68 --undefined-- 44.044
0.69 --undefined-- 45.095
0.70 --undefined-- 46.309
0.71 --undefined-- 46.950
0.72 --undefined-- 46.891
0.73 --undefined-- 46.921
0.74 --undefined-- 47.350
0.75 --undefined-- 47.519
0.76 --undefined-- 47.443
0.77 --undefined-- 48.040
0.78 --undefined-- 51.793
0.79 --undefined-- 57.016
0.80 92.444 60.827
0.81 92.755 63.081
0.82 92.215 64.110
0.83 91.315 64.030
0.84 90.738 62.678
0.85 90.358 59.975
0.86 --undefined-- 55.799
0.87 --undefined-- 51.665
0.88 92.531 50.847
0.89 92.896 51.109
0.90 92.054 51.434
0.91 93.419 51.967
0.92 94.636 52.154
0.93 96.369 51.938
0.94 98.524 52.287
0.95 100.940 56.751
0.96 104.489 62.903
0.97 105.088 67.059
0.98 105.797 69.433
0.99 107.131 70.607
1.00 107.870 71.008
1.01 108.508 71.282
1.02 110.045 71.720
1.03 110.011 71.935
1.04 108.988 71.814
1.05 107.793 71.477
1.06 --undefined-- 70.504
1.07 --undefined-- 68.260
1.08 --undefined-- 64.474
1.09 --undefined-- 61.604
1.10 --undefined-- 61.686
1.11 --undefined-- 62.089
1.12 --undefined-- 62.291
1.13 --undefined-- 62.066
1.14 --undefined-- 61.915
1.15 --undefined-- 61.831
1.16 --undefined-- 60.235
1.17 --undefined-- 57.368
1.18 --undefined-- 55.092
1.19 --undefined-- 53.575
1.20 --undefined-- 51.700
1.21 --undefined-- 48.653
1.22 --undefined-- 44.032
1.23 --undefined-- 39.644
1.24 --undefined-- 38.009
1.25 --undefined-- 38.334
1.26 --undefined-- 39.511
1.27 --undefined-- 39.914
1.28 --undefined-- 39.579
1.29 --undefined-- 38.990
1.30 --undefined-- 38.719
1.31 --undefined-- 39.240
1.32 --undefined-- 39.745
1.33 --undefined-- 39.904
1.34 --undefined-- 40.611
1.35 --undefined-- 44.560
1.36 --undefined-- 53.620
1.37 --undefined-- 59.145
1.38 --undefined-- 60.096
1.39 --undefined-- 56.809
1.40 --undefined-- 50.541
1.41 --undefined-- 47.869
1.42 --undefined-- 52.893
1.43 --undefined-- 58.934
1.44 97.366 63.561
1.45 98.896 67.261
1.46 100.599 69.912
1.47 98.694 70.946
1.48 98.214 70.626
1.49 98.931 70.361
1.50 99.949 70.845
1.51 100.472 71.200
1.52 100.965 71.143
1.53 101.354 70.885
1.54 101.586 70.488
1.55 101.811 70.178
1.56 102.793 69.845
1.57 104.449 69.246
1.58 105.800 68.254
1.59 106.536 66.139
1.60 --undefined-- 61.962
1.61 --undefined-- 55.332
1.62 --undefined-- 48.828
1.63 --undefined-- 46.467
1.64 --undefined-- 45.556
1.65 --undefined-- 45.259
1.66 --undefined-- 46.631
1.67 --undefined-- 50.933
1.68 --undefined-- 53.591
1.69 --undefined-- 52.752
1.70 --undefined-- 49.411
1.71 --undefined-- 51.717
1.72 --undefined-- 56.440
1.73 --undefined-- 59.322
1.74 --undefined-- 63.040
1.75 105.073 67.010
1.76 99.859 68.862
1.77 94.893 68.411
1.78 92.346 66.828
1.79 91.537 65.553
1.80 90.840 64.557
1.81 87.952 63.466
1.82 86.684 62.678
1.83 86.023 61.758
1.84 85.465 59.609
1.85 --undefined-- 55.301
1.86 --undefined-- 48.922
1.87 --undefined-- 45.732
1.88 --undefined-- 46.026
1.89 --undefined-- 45.884
1.90 --undefined-- 44.986
1.91 --undefined-- 44.126
1.92 --undefined-- 43.599
1.93 --undefined-- 43.132
1.94 --undefined-- 43.035
1.95 --undefined-- 43.299
1.96 --undefined-- 43.262
1.97 --undefined-- 43.264
1.98 --undefined-- 43.862
1.99 --undefined-- 47.474
2.00 --undefined-- 52.741
2.01 --undefined-- 54.614
2.02 --undefined-- 52.799
2.03 --undefined-- 51.697
2.04 --undefined-- 53.799
2.05 --undefined-- 54.767
2.06 --undefined-- 54.962
2.07 --undefined-- 56.538
2.08 --undefined-- 60.200
2.09 --undefined-- 63.680
2.10 --undefined-- 65.521
2.11 --undefined-- 66.783
2.12 --undefined-- 69.375
2.13 --undefined-- 70.321
2.14 --undefined-- 68.003
2.15 --undefined-- 62.216
2.16 --undefined-- 53.449
2.17 --undefined-- 45.087
2.18 --undefined-- 41.166
2.19 --undefined-- 43.631
2.20 --undefined-- 49.445
2.21 --undefined-- 52.712
2.22 --undefined-- 53.292
2.23 --undefined-- 52.724
2.24 --undefined-- 53.694
2.25 --undefined-- 58.105
2.26 --undefined-- 60.676
2.27 --undefined-- 59.129
2.28 --undefined-- 52.962
2.29 --undefined-- 43.442
2.30 --undefined-- 40.449
2.31 --undefined-- 40.901
2.32 --undefined-- 42.075
2.33 --undefined-- 45.137
2.34 --undefined-- 49.064
2.35 --undefined-- 53.699
2.36 --undefined-- 60.694
2.37 --undefined-- 66.462
2.38 --undefined-- 68.739
2.39 --undefined-- 67.322
2.40 --undefined-- 64.225
2.41 --undefined-- 64.447
2.42 --undefined-- 64.897
2.43 96.062 64.165
2.44 94.364 62.874
2.45 93.161 61.151
2.46 91.067 59.355
2.47 89.488 57.621
2.48 88.093 54.909
2.49 --undefined-- 50.004
2.50 --undefined-- 43.401
2.51 --undefined-- 39.642
2.52 --undefined-- 39.488
2.53 --undefined-- 37.782
2.54 --undefined-- 35.772
2.55 --undefined-- 40.220
2.56 --undefined-- 48.937
2.57 --undefined-- 53.718
2.58 --undefined-- 54.521
2.59 --undefined-- 55.706
2.60 --undefined-- 61.185
2.61 --undefined-- 64.514
2.62 --undefined-- 65.398
2.63 98.890 65.253
2.64 98.750 64.803
2.65 97.875 63.787
2.66 96.567 62.167
2.67 95.744 60.301
2.68 95.005 58.491
2.69 93.404 56.325
2.70 90.806 53.744
2.71 --undefined-- 52.159
2.72 --undefined-- 51.731
2.73 --undefined-- 52.377
2.74 --undefined-- 54.135
2.75 --undefined-- 53.596
2.76 --undefined-- 49.434
2.77 --undefined-- 45.212
2.78 --undefined-- 54.542
2.79 --undefined-- 63.036
2.80 --undefined-- 67.989
2.81 --undefined-- 70.058
2.82 --undefined-- 69.614
2.83 --undefined-- 67.960
2.84 --undefined-- 67.811
2.85 87.361 67.922
2.86 87.463 67.404
2.87 87.103 66.851
2.88 86.913 66.597
2.89 87.116 66.309
2.90 87.747 66.119
2.91 90.362 66.191
2.92 92.307 66.036
2.93 94.546 65.538
2.94 96.649 64.896
2.95 99.931 63.746
2.96 100.739 61.316
2.97 103.979 57.570
2.98 108.059 55.150
2.99 107.222 54.697
3.00 106.634 54.198
3.01 104.137 53.219
3.02 101.378 52.466
3.03 100.174 54.665
3.04 98.689 59.018
3.05 96.874 62.474
3.06 97.227 64.527
3.07 96.511 65.496
3.08 93.412 65.592
3.09 90.303 65.318
3.10 90.179 64.409
3.11 --undefined-- 61.964
3.12 --undefined-- 57.903
3.13 --undefined-- 53.179
3.14 --undefined-- 49.259
3.15 --undefined-- 46.400
3.16 --undefined-- 44.627
3.17 --undefined-- 41.869
3.18 --undefined-- 37.075
3.19 --undefined-- 33.358
3.20 --undefined-- 33.709
3.21 --undefined-- 34.586
3.22 --undefined-- 34.712
3.23 --undefined-- 33.595
3.24 --undefined-- 34.102
3.25 --undefined-- 38.069
3.26 --undefined-- 40.861
3.27 --undefined-- 41.853
3.28 --undefined-- 41.897
3.29 --undefined-- 41.836
3.30 --undefined-- 41.823
3.31 --undefined-- 41.919
3.32 --undefined-- 41.786
3.33 --undefined-- 41.710
3.34 --undefined-- 42.200
3.35 --undefined-- 43.420
3.36 --undefined-- 45.537
3.37 --undefined-- 47.550
3.38 --undefined-- 48.342
3.39 --undefined-- 48.311
3.40 --undefined-- 48.698
3.41 --undefined-- 49.143
3.42 --undefined-- 49.319
3.43 --undefined-- 49.529
3.44 --undefined-- 49.561
3.45 --undefined-- 49.988
3.46 --undefined-- 51.876
3.47 --undefined-- 53.195
3.48 --undefined-- 52.573
3.49 --undefined-- 51.425
3.50 --undefined-- 51.182
3.51 --undefined-- 51.209
3.52 --undefined-- 51.394
3.53 --undefined-- 52.220
3.54 --undefined-- 53.393
3.55 --undefined-- 54.129
3.56 --undefined-- 54.195
3.57 --undefined-- 54.079
3.58 --undefined-- 53.799
3.59 --undefined-- 53.363
3.60 --undefined-- 53.620
3.61 --undefined-- 53.993
3.62 --undefined-- 53.716
3.63 --undefined-- 54.098
3.64 --undefined-- 54.858
3.65 --undefined-- 54.226
3.66 --undefined-- 52.368
3.67 --undefined-- 50.533
3.68 --undefined-- 49.066
3.69 --undefined-- 47.440
3.70 --undefined-- 45.604
3.71 --undefined-- 43.440
3.72 --undefined-- 40.902
3.73 --undefined-- 40.441
3.74 --undefined-- 42.516
3.75 --undefined-- 43.565
3.76 --undefined-- 44.723
3.77 --undefined-- 49.558
3.78 --undefined-- 54.143
3.79 --undefined-- 56.877
3.80 --undefined-- 57.098
3.81 --undefined-- 55.061
3.82 --undefined-- 59.555
3.83 --undefined-- 65.922
3.84 --undefined-- 69.111
3.85 121.853 69.473
3.86 122.227 67.351
3.87 123.115 62.907
3.88 132.330 58.284
3.89 138.692 57.721
3.90 140.380 58.561
3.91 140.776 59.029
3.92 139.091 58.855
3.93 130.954 58.574
3.94 127.494 58.834
3.95 118.935 59.348
3.96 113.142 59.976
3.97 109.511 60.538
3.98 105.980 60.624
3.99 102.555 60.142
4.00 100.032 59.224
4.01 99.454 58.444
4.02 99.187 58.249
4.03 98.357 58.352
4.04 98.159 58.018
4.05 98.050 57.323
4.06 99.224 56.798
4.07 96.740 55.705
4.08 94.641 53.267
4.09 --undefined-- 49.299
4.10 --undefined-- 43.675
4.11 --undefined-- 38.140
4.12 --undefined-- 36.771
4.13 --undefined-- 37.740
4.14 --undefined-- 38.234
4.15 --undefined-- 37.875
4.16 --undefined-- 49.068
4.17 --undefined-- 61.123
4.18 --undefined-- 68.469
4.19 --undefined-- 71.489
4.20 --undefined-- 70.893
4.21 --undefined-- 68.666
4.22 --undefined-- 69.493
4.23 129.851 71.000
4.24 127.392 71.175
4.25 123.500 70.593
4.26 122.731 69.550
4.27 122.789 68.165
4.28 123.143 67.379
4.29 123.638 67.670
4.30 124.536 67.545
4.31 --undefined-- 65.192
4.32 --undefined-- 59.578
4.33 --undefined-- 53.884
4.34 --undefined-- 60.331
4.35 --undefined-- 67.538
4.36 --undefined-- 72.070
4.37 --undefined-- 73.869
4.38 --undefined-- 73.669
4.39 115.647 72.564
4.40 114.607 71.577
4.41 114.262 70.671
4.42 112.920 68.926
4.43 111.690 66.099
4.44 --undefined-- 62.615
4.45 --undefined-- 57.491
4.46 --undefined-- 51.457
4.47 113.342 49.777
4.48 112.764 50.236
4.49 111.002 51.547
4.50 109.874 57.754
4.51 --undefined-- 65.134
4.52 --undefined-- 69.484
4.53 107.817 70.824
4.54 105.545 69.621
4.55 104.821 66.315
4.56 104.329 60.895
4.57 104.539 54.470
4.58 108.907 51.047
4.59 109.427 50.774
4.60 110.252 51.018
4.61 110.936 51.353
4.62 111.844 51.277
4.63 112.389 50.624
4.64 --undefined-- 49.643
4.65 --undefined-- 50.005
4.66 --undefined-- 53.972
4.67 --undefined-- 60.488
4.68 --undefined-- 65.003
4.69 --undefined-- 65.921
4.70 --undefined-- 65.766
4.71 --undefined-- 67.265
4.72 --undefined-- 68.716
4.73 --undefined-- 70.091
4.74 118.083 70.795
4.75 115.987 70.053
4.76 113.929 67.971
4.77 --undefined-- 65.404
4.78 --undefined-- 63.022
4.79 100.780 60.604
4.80 99.352 58.337
4.81 96.526 56.656
4.82 98.848 56.034
4.83 106.209 56.572
4.84 110.345 57.882
4.85 114.208 60.132
4.86 119.913 63.921
4.87 130.464 67.779
4.88 131.808 70.218
4.89 132.483 71.303
4.90 133.037 71.066
4.91 133.788 69.889
4.92 133.732 68.717
4.93 132.507 67.814
4.94 131.595 66.542
4.95 126.652 64.892
4.96 125.381 64.145
4.97 121.862 64.945
4.98 120.951 66.842
4.99 119.710 68.961
5.00 116.382 70.074
5.01 --undefined-- 69.162
5.02 --undefined-- 65.682
5.03 --undefined-- 59.337
5.04 --undefined-- 50.129
5.05 --undefined-- 42.746
5.06 --undefined-- 40.055
5.07 --undefined-- 38.075
5.08 --undefined-- 37.096
5.09 --undefined-- 37.479
5.10 --undefined-- 45.739
5.11 --undefined-- 53.884
5.12 --undefined-- 60.990
5.13 --undefined-- 67.566
5.14 --undefined-- 71.348
5.15 135.275 72.259
5.16 134.397 72.350
5.17 130.769 72.828
5.18 129.510 72.471
5.19 126.837 70.285
5.20 --undefined-- 66.215
5.21 --undefined-- 61.859
5.22 --undefined-- 59.248
5.23 --undefined-- 58.931
5.24 --undefined-- 59.933
5.25 --undefined-- 62.425
5.26 120.700 66.220
5.27 119.818 69.316
5.28 118.445 71.172
5.29 115.953 71.788
5.30 107.155 71.303
5.31 104.806 70.146
5.32 105.084 69.238
5.33 105.426 69.084
5.34 106.706 69.277
5.35 108.186 69.257
5.36 107.858 69.140
5.37 107.043 69.026
5.38 106.780 68.388
5.39 106.827 67.608
5.40 105.791 67.322
5.41 105.533 67.342
5.42 105.261 66.985
5.43 105.023 65.710
5.44 105.678 63.990
5.45 107.857 62.587
5.46 --undefined-- 60.226
5.47 --undefined-- 55.329
5.48 --undefined-- 52.847
5.49 --undefined-- 58.721
5.50 101.018 62.514
5.51 100.974 64.001
5.52 101.147 64.521
5.53 101.360 65.345
5.54 100.819 67.482
5.55 100.166 70.240
5.56 100.385 72.043
5.57 100.222 72.603
5.58 99.836 72.438
5.59 99.290 71.651
5.60 103.399 70.258
5.61 104.976 68.973
5.62 108.173 68.476
5.63 110.042 68.108
5.64 110.674 66.968
5.65 110.665 64.838
5.66 112.714 62.324
5.67 116.302 62.208
5.68 124.146 66.054
5.69 125.220 69.296
5.70 128.075 70.685
5.71 130.826 70.845
5.72 132.125 70.734
5.73 133.955 --undefined--
5.74 134.074 --undefined--
5.75 --undefined-- --undefined--
5.76 --undefined-- --undefined--
