Time Pitch Intensity
0.01 --undefined-- --undefined--
0.02 153.850 --undefined--
0.03 154.404 --undefined--
0.04 156.805 --undefined--
0.05 159.482 65.854
0.06 161.692 64.763
0.07 162.320 63.658
0.08 --undefined-- 61.735
0.09 --undefined-- 58.767
0.10 --undefined-- 55.871
0.11 --undefined-- 54.353
0.12 --undefined-- 52.644
0.13 --undefined-- 50.299
0.14 --undefined-- 47.895
0.15 --undefined-- 44.127
0.16 --undefined-- 38.493
0.17 --undefined-- 32.360
0.18 --undefined-- 27.755
0.19 --undefined-- 26.495
0.20 --undefined-- 26.349
0.21 --undefined-- 26.170
0.22 --undefined-- 25.945
0.23 --undefined-- 25.488
0.24 --undefined-- 24.235
0.25 --undefined-- 21.918
0.26 --undefined-- 20.636
0.27 --undefined-- 24.852
0.28 --undefined-- 30.796
0.29 --undefined-- 35.680
0.30 --undefined-- 41.016
0.31 --undefined-- 46.165
0.32 --undefined-- 49.940
0.33 --undefined-- 52.547
0.34 --undefined-- 53.503
0.35 --undefined-- 53.271
0.36 203.499 54.583
0.37 203.293 55.975
0.38 --undefined-- 56.063
0.39 --undefined-- 55.983
0.40 --undefined-- 55.867
0.41 288.331 55.562
0.42 294.067 54.981
0.43 --undefined-- 53.788
0.44 --undefined-- 52.800
0.45 --undefined-- 52.147
0.46 --undefined-- 52.173
0.47 --undefined-- 51.243
0.48 --undefined-- 48.287
0.49 --undefined-- 43.974
0.50 --undefined-- 38.955
0.51 --undefined-- 33.553
0.52 --undefined-- 28.811
0.53 --undefined-- 25.859
0.54 --undefined-- 24.391
0.55 --undefined-- 25.081
0.56 --undefined-- 27.813
0.57 --undefined-- 31.499
0.58 --undefined-- 35.218
0.59 --undefined-- 38.010
0.60 --undefined-- 40.352
0.61 --undefined-- 44.055
0.62 --undefined-- 46.936
0.63 --undefined-- 48.344
0.64 --undefined-- 49.536
0.65 --undefined-- 57.496
0.66 232.517 66.332
0.67 227.314 71.496
0.68 222.536 73.389
0.69 210.796 73.267
0.70 200.832 72.543
0.71 198.927 71.589
0.72 198.730 69.962
0.73 197.582 67.669
0.74 194.194 65.222
0.75 193.337 63.153
0.76 193.947 61.348
0.77 196.025 59.971
0.78 199.071 59.391
0.79 199.559 59.546
0.80 199.722 60.006
0.81 201.061 60.265
0.82 200.516 60.453
0.83 199.301 60.800
0.84 200.779 61.017
0.85 203.726 61.001
0.86 205.984 60.857
0.87 206.422 60.365
0.88 205.863 59.331
0.89 203.442 57.180
0.90 199.596 53.593
0.91 --undefined-- 49.268
0.92 --undefined-- 44.927
0.93 --undefined-- 42.458
0.94 --undefined-- 44.557
0.95 --undefined-- 51.261
0.96 --undefined-- 58.827
0.97 --undefined-- 64.282
0.98 208.510 67.793
0.99 207.234 69.722
1.00 205.423 70.354
1.01 204.918 70.083
1.02 205.856 69.333
1.03 207.115 68.586
1.04 209.786 67.956
1.05 209.724 67.021
1.06 209.286 65.624
1.07 207.463 63.500
1.08 200.570 60.188
1.09 197.501 56.666
1.10 198.357 56.316
1.11 --undefined-- 58.780
1.12 --undefined-- 59.516
1.13 --undefined-- 58.049
1.14 --undefined-- 56.314
1.15 --undefined-- 55.621
1.16 --undefined-- 56.548
1.17 --undefined-- 58.726
1.18 --undefined-- 61.616
1.19 --undefined-- 64.654
1.20 --undefined-- 66.257
1.21 --undefined-- 66.704
1.22 --undefined-- 67.139
1.23 --undefined-- 68.125
1.24 154.560 68.857
1.25 156.163 68.708
1.26 166.302 68.407
1.27 167.328 68.571
1.28 168.758 68.538
1.29 168.709 68.066
1.30 167.310 68.018
1.31 166.811 68.697
1.32 167.007 69.559
1.33 166.506 70.121
1.34 165.872 70.146
1.35 162.525 69.932
1.36 161.075 69.867
1.37 166.707 69.785
1.38 171.380 69.366
1.39 175.620 68.393
1.40 186.741 67.109
1.41 193.237 66.608
1.42 198.375 66.918
1.43 200.112 67.131
1.44 199.883 66.878
1.45 197.222 66.175
1.46 194.236 65.384
1.47 189.505 64.326
1.48 183.475 62.620
1.49 --undefined-- 60.002
1.50 --undefined-- 55.966
1.51 --undefined-- 52.422
1.52 --undefined-- 52.228
1.53 --undefined-- 51.663
1.54 --undefined-- 52.903
1.55 --undefined-- 55.851
1.56 --undefined-- 59.826
1.57 --undefined-- 63.052
1.58 --undefined-- 65.444
1.59 --undefined-- 67.210
1.60 --undefined-- 67.695
1.61 176.430 68.316
1.62 182.863 70.093
1.63 188.935 71.262
1.64 202.212 71.233
1.65 210.661 70.694
1.66 214.850 70.001
1.67 221.521 68.758
1.68 226.916 66.761
1.69 225.240 63.649
1.70 217.008 59.002
1.71 220.900 53.200
1.72 --undefined-- 46.852
1.73 --undefined-- 40.999
1.74 --undefined-- 41.753
1.75 --undefined-- 54.501
1.76 --undefined-- 62.086
1.77 --undefined-- 65.002
1.78 --undefined-- 64.070
1.79 --undefined-- 59.976
1.80 --undefined-- 56.044
1.81 --undefined-- 59.656
1.82 --undefined-- 64.709
1.83 188.355 68.182
1.84 183.110 69.714
1.85 169.888 70.063
1.86 150.889 70.235
1.87 147.198 70.290
1.88 144.758 69.778
1.89 140.569 68.743
1.90 136.022 67.589
1.91 139.149 66.390
1.92 --undefined-- 65.401
1.93 175.686 65.319
1.94 190.118 65.690
1.95 198.226 65.681
1.96 203.918 65.118
1.97 204.485 64.750
1.98 204.384 64.806
1.99 204.168 64.451
2.00 204.305 63.154
2.01 202.509 60.539
2.02 --undefined-- 57.222
2.03 --undefined-- 53.916
2.04 --undefined-- 48.638
2.05 --undefined-- 40.758
2.06 --undefined-- 38.536
2.07 --undefined-- 38.377
2.08 --undefined-- 34.719
2.09 --undefined-- 28.010
2.10 --undefined-- 25.641
2.11 --undefined-- 26.725
2.12 --undefined-- 27.783
2.13 --undefined-- 40.575
2.14 --undefined-- 52.639
2.15 --undefined-- 61.011
2.16 --undefined-- 66.231
2.17 --undefined-- 68.805
2.18 159.696 70.029
2.19 159.335 70.891
2.20 158.193 70.766
2.21 157.554 69.554
2.22 158.800 67.992
2.23 159.827 66.215
2.24 161.669 64.039
2.25 160.902 62.341
2.26 161.050 61.660
2.27 162.495 61.632
2.28 164.106 62.040
2.29 164.406 62.267
2.30 164.094 62.046
2.31 163.515 62.297
2.32 161.215 63.758
2.33 158.706 65.598
2.34 161.449 67.313
2.35 159.150 68.521
2.36 153.949 68.646
2.37 150.291 67.780
2.38 150.861 66.834
2.39 151.991 66.554
2.40 150.787 66.463
2.41 147.019 66.354
2.42 145.400 66.023
2.43 142.091 64.907
2.44 138.811 63.022
2.45 --undefined-- 60.448
2.46 --undefined-- 57.852
2.47 83.704 56.734
2.48 79.424 56.721
2.49 76.028 57.252
2.50 75.591 57.735
2.51 74.951 58.317
2.52 97.685 59.124
2.53 145.489 59.756
2.54 143.370 60.165
2.55 142.854 60.313
2.56 142.971 60.568
2.57 144.014 61.379
2.58 144.662 62.413
2.59 145.270 63.202
2.60 145.136 63.170
2.61 142.772 61.932
2.62 138.884 59.441
2.63 138.525 55.745
2.64 --undefined-- 51.349
2.65 --undefined-- 46.860
2.66 --undefined-- 43.419
2.67 --undefined-- 49.934
2.68 214.170 58.753
2.69 208.980 64.885
2.70 205.915 68.149
2.71 201.779 69.586
2.72 199.990 70.373
2.73 199.680 70.504
2.74 199.937 69.855
2.75 202.026 68.922
2.76 204.997 68.286
2.77 205.563 68.344
2.78 205.452 68.674
2.79 206.851 68.322
2.80 210.354 66.814
2.81 212.580 64.861
2.82 216.410 64.119
2.83 222.924 64.092
2.84 212.870 63.793
2.85 205.914 62.903
2.86 200.527 61.310
2.87 194.628 59.401
2.88 174.397 58.631
2.89 170.930 60.537
2.90 165.326 62.795
2.91 157.613 63.648
2.92 147.042 62.986
2.93 145.374 61.795
2.94 146.526 61.212
2.95 144.395 60.334
2.96 144.970 58.048
2.97 144.479 54.650
2.98 --undefined-- 51.909
2.99 --undefined-- 50.189
3.00 --undefined-- 48.278
3.01 --undefined-- 46.840
3.02 --undefined-- 48.546
3.03 --undefined-- 51.783
3.04 --undefined-- 54.197
3.05 225.430 55.634
3.06 223.011 56.947
3.07 217.684 57.637
3.08 --undefined-- 56.592
3.09 --undefined-- 55.149
3.10 --undefined-- 53.122
3.11 --undefined-- 47.794
3.12 --undefined-- 38.446
3.13 --undefined-- 34.528
3.14 --undefined-- 47.552
3.15 --undefined-- 55.920
3.16 --undefined-- 59.366
3.17 --undefined-- 60.764
3.18 --undefined-- 65.298
3.19 --undefined-- 68.998
3.20 157.727 69.957
3.21 143.816 68.979
3.22 141.302 67.350
3.23 141.434 65.467
3.24 147.563 63.316
3.25 151.164 61.545
3.26 166.427 61.023
3.27 175.849 61.400
3.28 181.306 61.444
3.29 185.978 61.015
3.30 190.364 60.640
3.31 189.752 60.542
3.32 189.861 60.435
3.33 189.798 60.328
3.34 186.517 60.587
3.35 181.472 61.127
3.36 176.608 61.962
3.37 173.771 63.863
3.38 170.107 66.008
3.39 167.559 67.522
3.40 165.894 68.541
3.41 160.458 69.282
3.42 156.531 69.866
3.43 155.572 70.094
3.44 156.069 69.605
3.45 154.083 68.346
3.46 146.136 66.777
3.47 141.635 64.690
3.48 --undefined-- 60.819
3.49 --undefined-- 54.446
3.50 --undefined-- 46.348
3.51 --undefined-- 39.900
3.52 --undefined-- 34.155
3.53 --undefined-- 28.650
3.54 --undefined-- 26.582
3.55 --undefined-- 26.297
3.56 --undefined-- 32.077
3.57 --undefined-- 43.808
3.58 --undefined-- 50.904
3.59 --undefined-- 54.956
3.60 --undefined-- 60.144
3.61 --undefined-- 65.218
3.62 155.232 68.001
3.63 149.778 68.829
3.64 138.397 68.664
3.65 132.863 67.864
3.66 131.375 66.647
3.67 132.689 65.065
3.68 136.959 63.035
3.69 --undefined-- 61.022
3.70 --undefined-- 59.273
3.71 --undefined-- 57.818
3.72 --undefined-- 56.228
3.73 --undefined-- 53.069
3.74 --undefined-- 47.994
3.75 --undefined-- 41.836
3.76 --undefined-- 34.856
3.77 --undefined-- 28.279
3.78 --undefined-- 25.398
3.79 --undefined-- 24.817
3.80 --undefined-- 25.018
3.81 --undefined-- 25.471
3.82 --undefined-- 25.888
3.83 --undefined-- 26.054
3.84 --undefined-- 25.975
3.85 --undefined-- 27.757
3.86 --undefined-- 32.469
3.87 --undefined-- 37.379
3.88 --undefined-- 41.413
3.89 --undefined-- 43.697
3.90 --undefined-- 44.399
3.91 --undefined-- 44.429
3.92 --undefined-- 44.623
3.93 --undefined-- 45.855
3.94 --undefined-- 47.500
3.95 --undefined-- 48.946
3.96 --undefined-- 49.243
3.97 --undefined-- 48.331
3.98 --undefined-- 47.668
3.99 --undefined-- 46.840
4.00 --undefined-- 44.935
4.01 --undefined-- 43.105
4.02 --undefined-- 40.449
4.03 --undefined-- 35.179
4.04 --undefined-- 29.586
4.05 --undefined-- 27.885
4.06 --undefined-- 26.708
4.07 --undefined-- 25.760
4.08 --undefined-- 25.835
4.09 --undefined-- 26.363
4.10 --undefined-- 26.748
4.11 --undefined-- 26.782
4.12 --undefined-- 26.621
4.13 --undefined-- 30.903
4.14 --undefined-- 42.425
4.15 --undefined-- 50.460
4.16 --undefined-- 55.107
4.17 --undefined-- 57.133
4.18 --undefined-- 58.898
4.19 --undefined-- 61.685
4.20 178.341 64.143
4.21 177.804 65.983
4.22 176.436 66.863
4.23 174.081 66.384
4.24 172.421 64.907
4.25 169.221 63.022
4.26 159.291 61.346
4.27 162.298 62.725
4.28 175.541 67.059
4.29 177.580 70.533
4.30 176.623 72.151
4.31 171.331 72.406
4.32 166.674 72.209
4.33 166.098 71.981
4.34 166.884 71.552
4.35 170.206 70.581
4.36 176.802 69.521
4.37 182.143 68.988
4.38 190.645 68.658
4.39 194.171 67.843
4.40 197.734 65.837
4.41 205.324 62.152
4.42 224.158 57.528
4.43 227.890 54.380
4.44 --undefined-- 52.946
4.45 --undefined-- 52.988
4.46 --undefined-- 53.664
4.47 --undefined-- 53.884
4.48 --undefined-- 53.466
4.49 --undefined-- 53.949
4.50 --undefined-- 54.443
4.51 --undefined-- 54.502
4.52 --undefined-- 54.995
4.53 --undefined-- 54.653
4.54 --undefined-- 53.998
4.55 --undefined-- 54.160
4.56 --undefined-- 54.578
4.57 --undefined-- 58.583
4.58 --undefined-- 64.672
4.59 --undefined-- 68.807
4.60 --undefined-- 70.704
4.61 --undefined-- 70.738
4.62 131.483 69.675
4.63 127.558 67.987
4.64 124.432 65.712
4.65 --undefined-- 64.340
4.66 --undefined-- 64.283
4.67 --undefined-- 64.342
4.68 --undefined-- 64.090
4.69 143.755 63.653
4.70 153.736 63.701
4.71 156.817 64.150
4.72 170.012 64.555
4.73 176.295 64.142
4.74 187.024 62.327
4.75 199.980 59.447
4.76 198.867 56.805
4.77 212.166 56.020
4.78 --undefined-- 56.768
4.79 --undefined-- 57.735
4.80 --undefined-- 59.060
4.81 --undefined-- 59.619
4.82 --undefined-- 58.504
4.83 --undefined-- 56.516
4.84 --undefined-- 54.606
4.85 --undefined-- 58.208
4.86 --undefined-- 63.675
4.87 --undefined-- 66.702
4.88 --undefined-- 67.728
4.89 159.413 67.907
4.90 156.937 67.789
4.91 155.922 66.960
4.92 155.236 65.300
4.93 153.486 63.340
4.94 151.286 62.064
4.95 151.388 62.284
4.96 151.415 63.164
4.97 151.773 63.246
4.98 152.014 62.655
4.99 153.020 62.829
5.00 154.916 63.436
5.01 154.174 63.523
5.02 152.207 63.356
5.03 149.840 63.397
5.04 150.342 64.720
5.05 159.148 67.506
5.06 162.221 69.033
5.07 --undefined-- 68.710
5.08 --undefined-- 68.188
5.09 --undefined-- 68.415
5.10 --undefined-- 68.663
5.11 --undefined-- 67.012
5.12 --undefined-- 64.394
5.13 --undefined-- 61.109
5.14 --undefined-- 55.310
5.15 --undefined-- 47.603
5.16 --undefined-- 38.479
5.17 --undefined-- 31.130
5.18 --undefined-- 27.572
5.19 --undefined-- 33.615
5.20 --undefined-- 46.273
5.21 --undefined-- 53.679
5.22 --undefined-- 56.773
5.23 --undefined-- 59.118
5.24 --undefined-- 64.857
5.25 153.576 68.909
5.26 150.372 69.897
5.27 147.579 68.307
5.28 149.822 65.918
5.29 153.461 65.543
5.30 156.219 66.088
5.31 156.856 66.213
5.32 156.690 65.948
5.33 156.267 65.750
5.34 153.854 65.935
5.35 147.239 66.666
5.36 144.528 67.116
5.37 --undefined-- 66.768
5.38 --undefined-- 66.837
5.39 --undefined-- 67.752
5.40 --undefined-- 67.347
5.41 151.487 65.437
5.42 152.144 62.840
5.43 154.262 60.180
5.44 154.588 59.204
5.45 153.311 60.290
5.46 153.655 62.653
5.47 154.804 65.119
5.48 155.633 67.289
5.49 154.223 69.329
5.50 154.304 70.612
5.51 156.849 70.643
5.52 159.413 69.902
5.53 159.604 68.694
5.54 159.361 66.971
5.55 159.488 65.277
5.56 159.682 63.559
5.57 160.421 61.246
5.58 160.717 58.098
5.59 160.504 54.238
5.60 --undefined-- 49.586
5.61 --undefined-- 44.683
5.62 --undefined-- 40.126
5.63 --undefined-- 35.048
5.64 --undefined-- 28.644
5.65 --undefined-- 25.587
5.66 --undefined-- 25.479
5.67 --undefined-- 24.839
5.68 --undefined-- 24.243
5.69 --undefined-- 24.557
5.70 --undefined-- 24.985
5.71 --undefined-- 25.411
5.72 --undefined-- 25.825
5.73 --undefined-- 25.707
5.74 --undefined-- 25.307
5.75 --undefined-- 25.335
5.76 --undefined-- 25.739
5.77 --undefined-- 25.944
5.78 --undefined-- 25.969
5.79 --undefined-- 25.970
5.80 --undefined-- 25.927
5.81 --undefined-- 25.739
5.82 --undefined-- 25.792
5.83 --undefined-- 26.451
5.84 --undefined-- 26.848
5.85 --undefined-- 26.515
5.86 --undefined-- 25.841
5.87 --undefined-- 25.709
5.88 --undefined-- 26.113
5.89 --undefined-- 26.371
5.90 --undefined-- 26.283
5.91 --undefined-- 26.153
5.92 --undefined-- 26.194
5.93 --undefined-- 26.141
5.94 --undefined-- 25.891
5.95 --undefined-- 25.716
5.96 --undefined-- 25.586
5.97 --undefined-- 30.175
5.98 --undefined-- 42.187
5.99 --undefined-- 51.514
6.00 --undefined-- 58.809
6.01 --undefined-- 63.835
6.02 195.785 66.245
6.03 190.513 66.552
6.04 193.506 66.437
6.05 205.469 67.158
6.06 218.026 68.006
6.07 224.106 68.376
6.08 229.884 68.301
6.09 234.004 68.195
6.10 231.335 68.270
6.11 229.476 68.472
6.12 227.643 68.640
6.13 221.452 68.096
6.14 206.290 66.594
6.15 201.353 64.635
6.16 188.601 62.712
6.17 181.229 60.907
6.18 178.432 57.963
6.19 182.805 53.187
6.20 --undefined-- 46.517
6.21 --undefined-- 39.597
6.22 --undefined-- --undefined--
6.23 --undefined-- --undefined--
6.24 --undefined-- --undefined--
6.25 --undefined-- --undefined--
