Time Pitch Intensity
0.01 --undefined-- --undefined--
0.02 206.896 --undefined--
0.03 --undefined-- --undefined--
0.04 --undefined-- --undefined--
0.05 235.751 63.784
0.06 234.167 66.370
0.07 223.664 66.793
0.08 210.651 66.746
0.09 205.403 66.940
0.10 197.961 66.988
0.11 194.313 67.454
0.12 190.610 68.060
0.13 189.073 67.983
0.14 187.641 67.306
0.15 185.977 66.852
0.16 184.546 66.702
0.17 184.279 66.593
0.18 184.664 66.700
0.19 183.976 66.720
0.20 182.474 66.032
0.21 182.666 64.105
0.22 181.957 61.099
0.23 171.744 58.442
0.24 167.963 56.905
0.25 163.789 55.627
0.26 160.694 55.870
0.27 163.984 58.568
0.28 166.060 61.740
0.29 166.899 64.340
0.30 165.391 66.188
0.31 162.753 67.329
0.32 161.702 67.752
0.33 162.361 67.431
0.34 163.524 66.695
0.35 163.994 65.774
0.36 162.964 64.648
0.37 160.736 63.248
0.38 159.656 61.596
0.39 158.736 59.975
0.40 158.827 58.872
0.41 159.837 58.422
0.42 160.827 58.612
0.43 162.071 59.413
0.44 163.895 60.477
0.45 166.997 61.594
0.46 170.659 62.778
0.47 174.132 64.086
0.48 177.101 65.662
0.49 179.064 67.528
0.50 180.845 69.309
0.51 183.034 70.695
0.52 185.082 71.522
0.53 186.159 71.895
0.54 186.284 72.005
0.55 185.782 71.875
0.56 185.441 71.100
0.57 186.353 68.846
0.58 186.432 64.338
0.59 184.425 57.606
0.60 --undefined-- 51.306
0.61 --undefined-- 48.034
0.62 --undefined-- 46.948
0.63 --undefined-- 47.642
0.64 --undefined-- 50.034
0.65 --undefined-- 54.297
0.66 --undefined-- 58.476
0.67 --undefined-- 60.945
0.68 --undefined-- 61.573
0.69 --undefined-- 61.152
0.70 --undefined-- 60.438
0.71 --undefined-- 60.587
0.72 --undefined-- 61.724
0.73 --undefined-- 62.103
0.74 --undefined-- 61.458
0.75 --undefined-- 60.665
0.76 288.469 62.091
0.77 243.504 65.446
0.78 228.804 68.227
0.79 225.386 69.886
0.80 220.940 70.460
0.81 220.402 70.459
0.82 223.244 70.441
0.83 225.166 70.535
0.84 225.269 70.804
0.85 224.668 71.258
0.86 223.393 71.688
0.87 220.145 71.514
0.88 215.885 70.147
0.89 207.671 67.526
0.90 --undefined-- 65.048
0.91 --undefined-- 63.389
0.92 --undefined-- 60.341
0.93 --undefined-- 55.403
0.94 --undefined-- 50.188
0.95 --undefined-- 46.862
0.96 --undefined-- 44.996
0.97 --undefined-- 42.781
0.98 --undefined-- 42.219
0.99 --undefined-- 44.710
1.00 --undefined-- 46.338
1.01 --undefined-- 47.529
1.02 --undefined-- 47.868
1.03 --undefined-- 48.414
1.04 --undefined-- 53.009
1.05 --undefined-- 57.046
1.06 --undefined-- 58.520
1.07 --undefined-- 58.964
1.08 --undefined-- 59.875
1.09 --undefined-- 60.460
1.10 226.811 61.417
1.11 224.370 63.081
1.12 220.706 64.938
1.13 219.828 66.450
1.14 227.231 67.585
1.15 240.399 68.286
1.16 256.526 68.438
1.17 286.400 68.580
1.18 162.050 68.669
1.19 172.926 68.844
1.20 181.639 69.460
1.21 184.757 69.460
1.22 184.717 67.264
1.23 188.597 61.896
1.24 --undefined-- 54.022
1.25 --undefined-- 50.742
1.26 --undefined-- 51.922
1.27 --undefined-- 53.793
1.28 --undefined-- 54.687
1.29 --undefined-- 53.443
1.30 --undefined-- 50.804
1.31 --undefined-- 50.293
1.32 --undefined-- 50.590
1.33 --undefined-- 52.637
1.34 --undefined-- 60.956
1.35 --undefined-- 66.564
1.36 188.798 69.004
1.37 179.941 69.221
1.38 170.360 68.448
1.39 162.238 67.437
1.40 156.229 66.495
1.41 155.185 66.025
1.42 155.060 66.045
1.43 155.169 66.221
1.44 156.559 66.013
1.45 160.919 64.969
1.46 172.311 63.480
1.47 185.007 63.012
1.48 195.656 63.244
1.49 212.576 63.086
1.50 235.644 63.480
1.51 247.028 64.637
1.52 257.408 65.804
1.53 260.801 66.179
1.54 256.173 65.405
1.55 255.070 65.148
1.56 281.348 67.204
1.57 293.899 69.073
1.58 291.271 69.846
1.59 268.604 70.910
1.60 256.931 71.603
1.61 236.002 70.395
1.62 215.038 67.526
1.63 --undefined-- 63.461
1.64 --undefined-- 57.941
1.65 --undefined-- 52.310
1.66 --undefined-- 48.617
1.67 --undefined-- 46.866
1.68 --undefined-- 48.930
1.69 --undefined-- 53.068
1.70 --undefined-- 54.696
1.71 --undefined-- 53.258
1.72 --undefined-- 49.458
1.73 --undefined-- 46.040
1.74 --undefined-- 46.425
1.75 --undefined-- 48.726
1.76 --undefined-- 51.248
1.77 --undefined-- 52.278
1.78 --undefined-- 51.354
1.79 --undefined-- 52.156
1.80 --undefined-- 55.757
1.81 --undefined-- 57.335
1.82 --undefined-- 56.329
1.83 192.157 55.758
1.84 193.269 57.957
1.85 214.608 60.761
1.86 204.080 62.719
1.87 187.914 63.657
1.88 177.609 63.575
1.89 175.779 62.836
1.90 175.210 61.997
1.91 173.268 61.408
1.92 172.483 61.045
1.93 172.390 60.730
1.94 173.465 60.481
1.95 167.256 60.452
1.96 163.894 60.904
1.97 160.983 61.752
1.98 158.132 62.447
1.99 155.922 62.797
2.00 155.036 63.077
2.01 154.487 63.456
2.02 155.739 63.603
2.03 156.862 63.262
2.04 157.439 62.756
2.05 158.067 62.401
2.06 159.762 62.356
2.07 163.753 62.834
2.08 164.220 63.541
2.09 165.380 64.016
2.10 166.516 63.816
2.11 168.392 62.594
2.12 169.463 59.996
2.13 164.283 56.199
2.14 --undefined-- 53.184
2.15 --undefined-- 51.596
2.16 --undefined-- 51.001
2.17 --undefined-- 52.217
2.18 --undefined-- 53.054
2.19 --undefined-- 52.079
2.20 --undefined-- 50.217
2.21 --undefined-- 50.432
2.22 --undefined-- 51.938
2.23 --undefined-- 52.823
2.24 --undefined-- 54.039
2.25 --undefined-- 55.544
2.26 --undefined-- 58.012
2.27 --undefined-- 63.194
2.28 157.093 67.162
2.29 159.165 69.014
2.30 162.899 69.539
2.31 163.417 69.635
2.32 166.128 69.827
2.33 167.173 70.105
2.34 166.864 70.487
2.35 166.577 70.925
2.36 166.000 70.665
2.37 161.928 68.739
2.38 159.293 64.662
2.39 168.038 59.433
2.40 --undefined-- 56.670
2.41 --undefined-- 55.035
2.42 --undefined-- 54.057
2.43 289.020 57.988
2.44 279.290 62.466
2.45 261.764 64.314
2.46 --undefined-- 63.918
2.47 --undefined-- 62.540
2.48 --undefined-- 61.356
2.49 --undefined-- 60.678
2.50 --undefined-- 60.141
2.51 214.503 59.417
2.52 179.545 59.002
2.53 176.197 58.249
2.54 182.631 55.826
2.55 --undefined-- 51.913
2.56 --undefined-- 50.831
2.57 --undefined-- 51.110
2.58 --undefined-- 50.667
2.59 --undefined-- 54.758
2.60 --undefined-- 60.285
2.61 207.467 63.751
2.62 200.817 65.683
2.63 196.549 66.988
2.64 196.132 67.917
2.65 196.107 68.382
2.66 196.416 68.422
2.67 196.781 67.952
2.68 198.209 66.843
2.69 198.664 65.559
2.70 197.775 64.873
2.71 196.503 65.161
2.72 195.145 65.910
2.73 194.454 66.556
2.74 194.277 67.312
2.75 192.307 68.271
2.76 189.363 68.844
2.77 185.799 68.479
2.78 180.522 67.331
2.79 176.890 65.949
2.80 177.563 64.260
2.81 179.015 61.492
2.82 183.310 57.197
2.83 --undefined-- 51.914
2.84 --undefined-- 48.188
2.85 --undefined-- 48.335
2.86 --undefined-- 48.789
2.87 --undefined-- 49.348
2.88 --undefined-- 50.738
2.89 --undefined-- 51.490
2.90 --undefined-- 51.313
2.91 --undefined-- 50.306
2.92 --undefined-- 50.213
2.93 --undefined-- 50.485
2.94 --undefined-- 50.035
2.95 --undefined-- 51.037
2.96 --undefined-- 51.482
2.97 --undefined-- 54.761
2.98 --undefined-- 62.279
2.99 293.473 67.191
3.00 290.404 69.583
3.01 289.974 70.621
3.02 290.642 71.168
3.03 292.032 71.468
3.04 292.974 71.495
3.05 294.744 71.141
3.06 297.839 70.407
3.07 151.037 69.691
3.08 152.776 69.586
3.09 154.201 69.667
3.10 155.408 68.976
3.11 155.077 67.454
3.12 151.031 67.484
3.13 150.825 69.352
3.14 292.640 70.252
3.15 280.310 69.763
3.16 268.769 68.459
3.17 256.455 66.999
3.18 243.208 66.131
3.19 230.171 66.130
3.20 216.519 66.221
3.21 200.270 66.597
3.22 189.976 67.559
3.23 184.417 68.139
3.24 178.447 67.772
3.25 177.256 66.888
3.26 176.770 66.115
3.27 177.419 65.154
3.28 177.678 63.941
3.29 185.000 63.777
3.30 190.664 64.243
3.31 196.499 64.104
3.32 204.003 63.500
3.33 226.749 63.877
3.34 238.443 65.700
3.35 245.283 67.647
3.36 251.461 69.501
3.37 256.183 71.188
3.38 260.578 72.057
3.39 265.791 71.476
3.40 272.297 69.444
3.41 277.462 66.773
3.42 277.810 63.852
3.43 275.879 59.751
3.44 --undefined-- 54.993
3.45 --undefined-- 53.203
3.46 --undefined-- 52.254
3.47 --undefined-- 50.662
3.48 --undefined-- 50.922
3.49 --undefined-- 53.008
3.50 --undefined-- 53.400
3.51 --undefined-- 51.565
3.52 --undefined-- 49.037
3.53 --undefined-- 48.000
3.54 --undefined-- 48.254
3.55 --undefined-- 48.823
3.56 --undefined-- 48.848
3.57 --undefined-- 48.025
3.58 --undefined-- 47.791
3.59 --undefined-- 48.989
3.60 --undefined-- 49.387
3.61 --undefined-- 48.339
3.62 --undefined-- 47.890
3.63 --undefined-- 48.419
3.64 --undefined-- 48.311
3.65 --undefined-- 47.569
3.66 --undefined-- 46.376
3.67 --undefined-- 46.032
3.68 --undefined-- 47.982
3.69 --undefined-- 48.995
3.70 --undefined-- 48.086
3.71 --undefined-- 46.475
3.72 --undefined-- 45.491
3.73 --undefined-- 48.348
3.74 --undefined-- 51.404
3.75 --undefined-- 53.414
3.76 --undefined-- 56.604
3.77 --undefined-- 62.116
3.78 194.526 66.612
3.79 188.697 69.590
3.80 184.620 71.153
3.81 182.675 71.394
3.82 184.038 70.984
3.83 185.085 70.934
3.84 183.663 71.141
3.85 181.044 70.977
3.86 178.058 70.222
3.87 177.457 68.982
3.88 177.792 67.734
3.89 179.755 67.102
3.90 181.135 67.178
3.91 183.762 67.668
3.92 191.627 68.478
3.93 199.751 68.956
3.94 211.922 68.379
3.95 231.637 67.190
3.96 245.696 66.431
3.97 259.224 66.489
3.98 267.183 67.049
3.99 269.176 67.421
4.00 266.836 67.185
4.01 262.481 66.454
4.02 257.360 65.982
4.03 256.255 66.185
4.04 252.810 66.419
4.05 246.298 66.222
4.06 229.422 65.948
4.07 219.272 66.146
4.08 209.221 66.419
4.09 197.174 66.584
4.10 195.287 66.956
4.11 192.165 67.119
4.12 193.528 66.727
4.13 193.682 66.173
4.14 191.133 65.892
4.15 189.944 65.308
4.16 188.534 63.620
4.17 197.311 62.483
4.18 212.583 63.790
4.19 217.812 65.017
4.20 222.916 65.842
4.21 226.767 66.254
4.22 228.507 66.206
4.23 228.734 66.158
4.24 228.051 66.283
4.25 221.714 66.159
4.26 214.020 66.362
4.27 205.113 67.935
4.28 194.525 69.534
4.29 186.649 70.082
4.30 177.317 69.744
4.31 170.718 68.776
4.32 169.229 67.784
4.33 169.600 67.364
4.34 174.595 66.810
4.35 178.207 66.182
4.36 180.964 66.059
4.37 183.568 65.578
4.38 184.659 63.741
4.39 179.407 60.085
4.40 175.700 55.230
4.41 --undefined-- 51.526
4.42 --undefined-- 51.706
4.43 --undefined-- 53.739
4.44 --undefined-- 54.266
4.45 --undefined-- 53.521
4.46 218.403 55.518
4.47 212.239 59.069
4.48 200.600 61.180
4.49 182.334 62.238
4.50 168.969 62.641
4.51 161.688 62.483
4.52 159.531 62.110
4.53 158.852 61.723
4.54 158.659 61.518
4.55 158.810 61.661
4.56 158.358 61.850
4.57 158.047 61.814
4.58 159.622 61.708
4.59 160.705 61.481
4.60 164.990 61.263
4.61 171.036 61.508
4.62 180.073 62.436
4.63 188.270 63.555
4.64 195.079 64.043
4.65 202.461 63.749
4.66 208.609 63.292
4.67 212.173 62.852
4.68 211.475 61.389
4.69 207.049 59.229
4.70 --undefined-- 62.036
4.71 223.602 66.511
4.72 222.015 69.626
4.73 216.503 71.963
4.74 213.509 73.900
4.75 211.595 75.132
4.76 210.320 75.549
4.77 209.002 75.377
4.78 207.479 75.061
4.79 204.990 75.408
4.80 200.876 76.097
4.81 193.293 76.138
4.82 --undefined-- 75.101
4.83 --undefined-- 72.969
4.84 --undefined-- 70.140
4.85 --undefined-- 66.875
4.86 --undefined-- 63.598
4.87 --undefined-- 60.177
4.88 --undefined-- 56.415
4.89 --undefined-- 54.796
4.90 --undefined-- 55.670
4.91 --undefined-- 55.295
4.92 --undefined-- 52.706
4.93 --undefined-- 50.867
4.94 --undefined-- 52.947
4.95 --undefined-- 55.156
4.96 --undefined-- 55.735
4.97 --undefined-- 54.693
4.98 --undefined-- 52.424
4.99 --undefined-- 48.736
5.00 --undefined-- 47.631
5.01 --undefined-- 48.854
5.02 --undefined-- 48.817
5.03 --undefined-- --undefined--
5.04 --undefined-- --undefined--
5.05 --undefined-- --undefined--
5.06 --undefined-- --undefined--
