Time Pitch Intensity
0.01 --undefined-- --undefined--
0.02 129.260 --undefined--
0.03 127.538 --undefined--
0.04 126.864 --undefined--
0.05 125.714 78.380
0.06 125.510 78.112
0.07 122.391 77.638
0.08 124.262 76.641
0.09 124.743 75.160
0.10 129.876 74.509
0.11 133.165 75.044
0.12 132.328 75.384
0.13 129.873 75.207
0.14 129.076 75.110
0.15 129.711 75.464
0.16 132.569 75.812
0.17 130.859 75.091
0.18 128.829 72.340
0.19 128.413 67.091
0.20 --undefined-- 59.647
0.21 --undefined-- 60.898
0.22 --undefined-- 66.403
0.23 --undefined-- 69.125
0.24 --undefined-- 69.221
0.25 --undefined-- 70.660
0.26 144.929 75.483
0.27 147.664 78.736
0.28 137.842 79.681
0.29 121.853 78.900
0.30 120.290 76.784
0.31 119.414 72.867
0.32 98.267 66.312
0.33 122.849 58.426
0.34 122.799 53.973
0.35 --undefined-- 51.907
0.36 --undefined-- 53.251
0.37 --undefined-- 63.923
0.38 --undefined-- 71.665
0.39 --undefined-- 75.617
0.40 117.672 77.131
0.41 115.985 77.600
0.42 116.426 78.273
0.43 117.259 79.143
0.44 116.618 79.379
0.45 115.385 79.120
0.46 115.382 78.882
0.47 117.541 78.766
0.48 120.785 78.754
0.49 120.856 78.711
0.50 119.115 78.337
0.51 117.243 77.270
0.52 112.510 75.479
0.53 113.241 74.410
0.54 118.681 75.359
0.55 119.388 76.352
0.56 119.982 76.719
0.57 119.185 76.794
0.58 118.789 76.782
0.59 118.992 76.822
0.60 119.975 77.106
0.61 121.996 77.612
0.62 123.465 77.980
0.63 124.351 78.085
0.64 125.153 78.074
0.65 125.079 78.046
0.66 124.011 77.992
0.67 123.012 77.852
0.68 122.507 77.675
0.69 122.479 77.640
0.70 122.815 77.735
0.71 122.612 77.765
0.72 122.928 77.781
0.73 124.397 77.951
0.74 124.700 78.074
0.75 124.220 78.027
0.76 123.765 77.925
0.77 122.801 77.660
0.78 121.917 76.933
0.79 121.180 75.621
0.80 120.573 74.243
0.81 123.091 74.324
0.82 126.054 76.017
0.83 128.597 77.569
0.84 130.802 78.200
0.85 134.149 78.183
0.86 138.563 78.129
0.87 143.260 78.244
0.88 147.320 77.979
0.89 147.804 76.252
0.90 142.555 72.522
0.91 147.695 68.390
0.92 146.688 66.818
0.93 150.141 70.507
0.94 148.291 75.651
0.95 143.459 78.137
0.96 132.586 78.484
0.97 126.275 78.457
0.98 121.793 78.584
0.99 117.746 78.291
1.00 113.232 77.527
1.01 110.517 76.933
1.02 110.235 76.837
1.03 110.981 76.860
1.04 112.429 76.768
1.05 114.353 76.613
1.06 116.176 76.650
1.07 118.332 77.098
1.08 124.279 78.058
1.09 125.906 78.908
1.10 125.597 79.110
1.11 126.308 79.071
1.12 126.644 79.143
1.13 126.977 79.226
1.14 127.194 79.263
1.15 127.619 79.218
1.16 128.063 78.767
1.17 126.207 77.220
1.18 122.501 73.791
1.19 124.173 67.932
1.20 125.223 60.608
1.21 --undefined-- 56.601
1.22 --undefined-- 56.458
1.23 --undefined-- 63.482
1.24 --undefined-- 71.213
1.25 136.913 75.365
1.26 126.612 76.788
1.27 122.796 76.660
1.28 119.822 76.021
1.29 118.182 75.200
1.30 115.757 74.173
1.31 114.639 73.315
1.32 113.122 72.875
1.33 112.374 72.691
1.34 112.982 72.626
1.35 112.317 72.552
1.36 111.089 72.554
1.37 112.063 72.911
1.38 115.657 73.538
1.39 115.313 74.190
1.40 114.884 74.845
1.41 114.472 75.512
1.42 112.209 76.130
1.43 109.153 76.754
1.44 108.940 77.412
1.45 108.926 77.994
1.46 109.123 78.407
1.47 108.997 78.677
1.48 109.288 78.876
1.49 109.210 78.956
1.50 108.255 78.825
1.51 107.694 78.425
1.52 107.596 77.484
1.53 106.216 75.392
1.54 95.680 71.535
1.55 --undefined-- 65.759
1.56 --undefined-- 58.379
1.57 --undefined-- 51.208
1.58 --undefined-- 55.952
1.59 --undefined-- 67.504
1.60 --undefined-- 74.673
1.61 --undefined-- 78.122
1.62 110.835 79.016
1.63 109.874 78.785
1.64 108.409 78.517
1.65 108.597 78.376
1.66 107.828 78.172
1.67 106.499 77.861
1.68 106.349 77.510
1.69 106.448 77.210
1.70 106.309 76.881
1.71 105.983 76.439
1.72 107.104 75.778
1.73 106.936 74.494
1.74 104.996 72.032
1.75 104.772 67.705
1.76 --undefined-- 61.119
1.77 --undefined-- 53.571
1.78 --undefined-- 50.223
1.79 --undefined-- 49.053
1.80 --undefined-- 52.526
1.81 --undefined-- 61.058
1.82 --undefined-- 66.192
1.83 --undefined-- 69.167
1.84 --undefined-- 73.669
1.85 149.744 77.232
1.86 141.333 78.384
1.87 139.965 78.362
1.88 141.865 78.272
1.89 145.393 78.113
1.90 147.466 77.913
1.91 149.937 77.887
1.92 152.129 78.091
1.93 152.627 78.332
1.94 152.210 78.382
1.95 151.929 78.233
1.96 152.385 77.945
1.97 153.378 77.578
1.98 153.311 77.289
1.99 152.896 77.181
2.00 152.505 77.236
2.01 152.641 77.599
2.02 151.598 78.098
2.03 149.063 77.964
2.04 144.820 76.909
2.05 141.843 75.312
2.06 140.792 73.711
2.07 138.861 72.466
2.08 135.319 71.858
2.09 136.950 72.303
2.10 143.152 73.982
2.11 147.382 75.946
2.12 146.705 77.297
2.13 145.827 78.081
2.14 146.061 78.503
2.15 145.610 78.713
2.16 144.386 78.851
2.17 143.369 78.901
2.18 142.369 78.872
2.19 140.893 78.924
2.20 140.780 79.003
2.21 140.332 78.831
2.22 140.384 78.444
2.23 141.388 78.340
2.24 141.266 78.415
2.25 137.474 77.633
2.26 131.566 75.177
2.27 124.235 70.916
2.28 128.148 65.280
2.29 --undefined-- 58.459
2.30 --undefined-- 52.289
2.31 --undefined-- 51.919
2.32 --undefined-- 54.669
2.33 --undefined-- 60.688
2.34 --undefined-- 69.220
2.35 --undefined-- 74.852
2.36 --undefined-- 77.223
2.37 --undefined-- 77.520
2.38 103.763 76.919
2.39 93.568 75.451
2.40 88.623 73.366
2.41 97.026 72.068
2.42 95.060 72.002
2.43 99.355 72.841
2.44 101.951 74.196
2.45 103.660 75.435
2.46 106.819 76.036
2.47 108.898 75.832
2.48 111.124 75.679
2.49 118.483 76.282
2.50 121.726 76.932
2.51 123.752 77.320
2.52 126.104 77.407
2.53 128.654 77.030
2.54 130.487 75.784
2.55 129.477 73.061
2.56 128.142 68.585
2.57 142.012 63.117
2.58 134.139 58.892
2.59 127.519 58.352
2.60 --undefined-- 64.780
2.61 --undefined-- 71.816
2.62 133.988 75.658
2.63 112.459 77.036
2.64 107.910 77.352
2.65 105.999 77.605
2.66 106.807 77.784
2.67 107.225 77.880
2.68 108.097 78.158
2.69 108.738 78.490
2.70 110.139 78.776
2.71 112.445 78.844
2.72 116.872 78.460
2.73 121.218 77.932
2.74 122.946 77.357
2.75 121.633 75.879
2.76 117.712 72.575
2.77 122.043 67.142
2.78 --undefined-- 60.497
2.79 --undefined-- 57.818
2.80 --undefined-- 60.288
2.81 --undefined-- 62.743
2.82 --undefined-- 65.372
2.83 --undefined-- 67.391
2.84 --undefined-- 67.583
2.85 --undefined-- 66.513
2.86 --undefined-- 65.795
2.87 --undefined-- 66.082
2.88 --undefined-- 66.522
2.89 --undefined-- 66.540
2.90 --undefined-- 65.699
2.91 --undefined-- 63.979
2.92 --undefined-- 64.896
2.93 --undefined-- 69.780
2.94 109.662 73.088
2.95 101.129 74.688
2.96 98.737 75.553
2.97 97.487 76.133
2.98 97.289 76.579
2.99 99.553 77.018
3.00 101.791 77.414
3.01 103.871 77.665
3.02 106.196 77.815
3.03 108.984 78.009
3.04 111.451 78.332
3.05 115.692 78.618
3.06 118.596 78.100
3.07 119.265 75.847
3.08 116.595 71.351
3.09 113.287 64.756
3.10 115.242 58.300
3.11 --undefined-- 59.546
3.12 --undefined-- 63.974
3.13 --undefined-- 65.877
3.14 --undefined-- 65.324
3.15 --undefined-- 69.566
3.16 164.462 75.963
3.17 148.650 79.352
3.18 133.776 80.125
3.19 124.063 79.420
3.20 117.961 78.463
3.21 113.607 77.550
3.22 111.842 76.176
3.23 107.855 73.794
3.24 106.214 69.743
3.25 --undefined-- 63.448
3.26 --undefined-- 55.717
3.27 --undefined-- 51.275
3.28 --undefined-- 49.729
3.29 --undefined-- 48.844
3.30 --undefined-- 48.247
3.31 --undefined-- 52.680
3.32 --undefined-- 63.051
3.33 --undefined-- 71.226
3.34 --undefined-- 76.502
3.35 142.526 78.926
3.36 132.762 79.220
3.37 124.805 78.974
3.38 123.483 79.077
3.39 121.991 78.786
3.40 120.969 77.990
3.41 117.865 77.481
3.42 115.796 77.287
3.43 106.597 76.739
3.44 98.266 75.403
3.45 --undefined-- 72.712
3.46 --undefined-- 67.715
3.47 --undefined-- 60.516
3.48 --undefined-- 55.754
3.49 --undefined-- 54.375
3.50 --undefined-- 54.337
3.51 --undefined-- 55.131
3.52 --undefined-- 55.626
3.53 --undefined-- 55.399
3.54 --undefined-- 55.011
3.55 --undefined-- 54.741
3.56 --undefined-- 54.516
3.57 --undefined-- 55.250
3.58 --undefined-- 56.178
3.59 --undefined-- 56.523
3.60 --undefined-- 56.594
3.61 --undefined-- 56.432
3.62 --undefined-- 56.220
3.63 --undefined-- 55.737
3.64 --undefined-- 55.100
3.65 --undefined-- 55.834
3.66 164.807 57.862
3.67 151.217 60.039
3.68 151.534 61.338
3.69 145.800 61.036
3.70 142.263 59.107
3.71 --undefined-- 55.797
3.72 --undefined-- 51.203
3.73 --undefined-- 47.427
3.74 --undefined-- 47.040
3.75 --undefined-- 50.347
3.76 --undefined-- 61.688
3.77 --undefined-- 69.974
3.78 166.694 74.661
3.79 161.275 76.837
3.80 138.537 77.591
3.81 135.662 77.834
3.82 125.951 77.565
3.83 116.960 76.826
3.84 111.007 76.251
3.85 109.928 76.622
3.86 110.687 77.541
3.87 109.271 77.657
3.88 106.133 75.960
3.89 95.508 71.995
3.90 102.887 66.114
3.91 113.659 63.480
3.92 147.858 70.941
3.93 142.806 76.177
3.94 134.147 78.368
3.95 128.937 78.615
3.96 125.792 78.366
3.97 124.878 78.334
3.98 125.366 78.133
3.99 125.655 77.042
4.00 121.521 74.263
4.01 98.586 69.200
4.02 99.566 61.978
4.03 124.594 58.333
4.04 --undefined-- 61.838
4.05 --undefined-- 69.083
4.06 --undefined-- 75.149
4.07 141.233 77.940
4.08 130.781 78.384
4.09 127.982 77.976
4.10 125.167 77.503
4.11 122.944 76.366
4.12 120.086 73.546
4.13 122.247 68.463
4.14 123.023 61.504
4.15 124.767 58.340
4.16 137.800 60.091
4.17 158.521 66.585
4.18 157.771 73.252
4.19 134.126 76.657
4.20 131.703 77.618
4.21 128.283 77.526
4.22 125.572 77.448
4.23 126.152 77.670
4.24 131.166 77.982
4.25 135.469 78.234
4.26 139.865 78.488
4.27 144.540 78.666
4.28 148.566 78.481
4.29 151.845 77.499
4.30 154.545 75.141
4.31 158.148 70.588
4.32 151.646 64.899
4.33 --undefined-- 65.468
4.34 --undefined-- 70.458
4.35 160.392 75.943
4.36 150.877 78.889
4.37 136.492 79.494
4.38 127.994 78.905
4.39 124.060 78.054
4.40 121.464 76.979
4.41 120.297 75.918
4.42 124.837 75.872
4.43 126.810 76.023
4.44 129.468 75.713
4.45 133.409 75.316
4.46 136.493 75.079
4.47 139.087 74.963
4.48 141.317 74.653
4.49 140.261 73.796
4.50 135.054 72.448
4.51 119.087 70.916
4.52 96.169 68.813
4.53 --undefined-- 64.906
4.54 --undefined-- 58.594
4.55 --undefined-- 54.825
4.56 --undefined-- 61.411
4.57 --undefined-- 67.936
4.58 --undefined-- 72.209
4.59 --undefined-- 74.972
4.60 --undefined-- 76.550
4.61 124.592 77.637
4.62 129.170 78.380
4.63 127.348 78.732
4.64 125.748 78.889
4.65 125.138 79.029
4.66 125.576 79.121
4.67 125.590 79.191
4.68 125.243 79.330
4.69 124.887 79.510
4.70 125.872 79.672
4.71 125.138 79.744
4.72 123.888 79.713
4.73 123.627 79.680
4.74 124.085 79.655
4.75 124.022 79.594
4.76 124.643 79.649
4.77 122.164 79.718
4.78 119.366 79.488
4.79 117.234 79.153
4.80 116.095 79.005
4.81 115.647 78.874
4.82 114.003 78.636
4.83 113.564 78.254
4.84 113.724 77.596
4.85 114.132 76.819
4.86 115.492 76.409
4.87 119.411 76.460
4.88 121.994 76.706
4.89 124.652 76.966
4.90 126.588 77.081
4.91 129.872 77.074
4.92 133.743 77.046
4.93 136.339 77.033
4.94 137.800 76.666
4.95 137.262 75.006
4.96 133.710 71.184
4.97 135.946 64.795
4.98 --undefined-- 56.583
4.99 --undefined-- 55.351
5.00 --undefined-- 65.958
5.01 --undefined-- --undefined--
5.02 --undefined-- --undefined--
5.03 --undefined-- --undefined--
5.04 --undefined-- --undefined--
