Time Pitch Intensity
0.01 --undefined-- --undefined--
0.02 269.911 --undefined--
0.03 275.392 --undefined--
0.04 280.090 --undefined--
0.05 284.037 72.250
0.06 285.463 72.347
0.07 283.313 71.980
0.08 279.388 71.238
0.09 275.379 69.811
0.10 272.113 67.021
0.11 271.371 62.462
0.12 297.775 58.288
0.13 --undefined-- 56.542
0.14 --undefined-- 54.421
0.15 --undefined-- 54.594
0.16 --undefined-- 58.800
0.17 --undefined-- 63.870
0.18 219.186 68.078
0.19 211.464 70.748
0.20 201.538 71.894
0.21 196.588 72.016
0.22 195.415 71.650
0.23 195.591 70.846
0.24 197.329 69.571
0.25 199.191 68.278
0.26 203.710 67.463
0.27 209.117 66.756
0.28 218.038 66.959
0.29 226.951 68.541
0.30 229.775 69.625
0.31 234.202 69.100
0.32 241.349 67.114
0.33 254.277 65.101
0.34 262.723 64.149
0.35 263.886 63.163
0.36 252.726 61.285
0.37 247.550 58.540
0.38 244.447 55.140
0.39 --undefined-- 52.427
0.40 --undefined-- 52.172
0.41 --undefined-- 51.539
0.42 --undefined-- 51.851
0.43 --undefined-- 53.235
0.44 --undefined-- 55.509
0.45 --undefined-- 59.573
0.46 --undefined-- 62.805
0.47 --undefined-- 65.226
0.48 167.724 66.779
0.49 160.511 67.212
0.50 162.684 66.848
0.51 165.452 65.876
0.52 166.619 64.142
0.53 166.250 62.437
0.54 164.190 61.666
0.55 162.016 60.978
0.56 160.420 60.376
0.57 158.913 60.619
0.58 156.825 61.221
0.59 155.446 61.826
0.60 154.955 61.931
0.61 155.409 61.894
0.62 155.458 62.551
0.63 156.605 63.408
0.64 157.190 64.175
0.65 157.610 64.971
0.66 157.867 65.586
0.67 159.364 65.746
0.68 161.373 65.709
0.69 163.410 65.962
0.70 164.955 66.490
0.71 167.334 67.202
0.72 169.355 67.694
0.73 170.832 67.313
0.74 171.015 66.237
0.75 171.093 65.115
0.76 170.453 64.237
0.77 167.197 63.692
0.78 --undefined-- 63.082
0.79 --undefined-- 61.692
0.80 --undefined-- 58.887
0.81 --undefined-- 55.182
0.82 --undefined-- 56.730
0.83 --undefined-- 61.279
0.84 --undefined-- 65.560
0.85 199.388 68.563
0.86 200.810 69.945
0.87 202.863 70.173
0.88 203.955 69.895
0.89 204.689 68.959
0.90 210.408 67.596
0.91 213.428 67.032
0.92 215.295 67.046
0.93 218.829 67.070
0.94 219.624 67.058
0.95 221.557 66.892
0.96 223.309 66.529
0.97 222.189 66.043
0.98 219.759 65.233
0.99 216.001 63.497
1.00 212.897 60.351
1.01 --undefined-- 57.446
1.02 --undefined-- 59.804
1.03 --undefined-- 62.712
1.04 --undefined-- 63.975
1.05 --undefined-- 65.652
1.06 202.787 68.325
1.07 192.781 70.901
1.08 187.908 73.030
1.09 184.816 74.178
1.10 179.164 74.516
1.11 175.121 74.771
1.12 172.527 75.304
1.13 172.027 76.028
1.14 172.496 76.647
1.15 173.255 77.005
1.16 174.278 77.058
1.17 172.989 76.594
1.18 171.786 75.111
1.19 --undefined-- 73.050
1.20 --undefined-- 71.788
1.21 252.465 70.379
1.22 253.618 67.893
1.23 273.377 64.264
1.24 252.870 62.457
1.25 257.998 61.305
1.26 268.789 57.972
1.27 --undefined-- 56.841
1.28 --undefined-- 58.770
1.29 --undefined-- 59.941
1.30 --undefined-- 61.693
1.31 --undefined-- 62.226
1.32 --undefined-- 60.391
1.33 --undefined-- 57.872
1.34 --undefined-- 55.721
1.35 --undefined-- 53.914
1.36 --undefined-- 56.731
1.37 --undefined-- 58.736
1.38 --undefined-- 59.317
1.39 --undefined-- 61.066
1.40 --undefined-- 61.104
1.41 --undefined-- 58.558
1.42 --undefined-- 56.722
1.43 --undefined-- 55.936
1.44 --undefined-- 54.651
1.45 --undefined-- 52.880
1.46 --undefined-- 53.279
1.47 --undefined-- 53.808
1.48 --undefined-- 52.921
1.49 --undefined-- 53.479
1.50 291.934 55.317
1.51 287.443 56.991
1.52 244.195 58.220
1.53 298.728 58.537
1.54 291.996 59.222
1.55 295.076 58.934
1.56 --undefined-- 56.863
1.57 --undefined-- 56.723
1.58 --undefined-- 58.690
1.59 --undefined-- 60.448
1.60 --undefined-- 62.088
1.61 --undefined-- 62.158
1.62 --undefined-- 59.762
1.63 --undefined-- 56.512
1.64 --undefined-- 57.101
1.65 --undefined-- 59.552
1.66 --undefined-- 61.442
1.67 291.562 61.490
1.68 286.822 60.436
1.69 285.412 61.862
1.70 --undefined-- 62.819
1.71 --undefined-- 60.760
1.72 --undefined-- 55.912
1.73 --undefined-- 52.910
1.74 --undefined-- 57.338
1.75 235.157 62.066
1.76 221.925 65.108
1.77 224.189 67.271
1.78 232.200 69.749
1.79 233.019 71.916
1.80 234.834 73.210
1.81 238.264 73.968
1.82 241.414 74.462
1.83 245.304 74.855
1.84 250.998 75.132
1.85 255.818 74.909
1.86 255.859 73.251
1.87 253.539 69.372
1.88 250.730 64.911
1.89 251.574 64.215
1.90 251.973 64.058
1.91 256.324 61.837
1.92 254.859 62.834
1.93 --undefined-- 69.223
1.94 154.322 72.698
1.95 156.432 73.296
1.96 159.272 72.244
1.97 161.795 71.169
1.98 163.265 70.947
1.99 164.704 71.554
2.00 164.833 72.501
2.01 163.501 73.139
2.02 161.098 73.231
2.03 157.381 72.660
2.04 153.448 71.622
2.05 151.341 70.746
2.06 294.174 70.092
2.07 273.624 69.442
2.08 261.201 69.075
2.09 249.236 68.745
2.10 243.171 68.373
2.11 238.071 68.083
2.12 233.256 68.116
2.13 223.056 68.605
2.14 222.939 68.993
2.15 219.512 69.253
2.16 217.744 69.535
2.17 217.651 69.690
2.18 217.648 69.836
2.19 217.374 69.967
2.20 217.761 69.969
2.21 217.891 69.836
2.22 216.789 69.491
2.23 214.075 69.069
2.24 213.213 68.991
2.25 215.732 69.188
2.26 216.023 69.211
2.27 214.949 69.073
2.28 213.473 69.114
2.29 210.782 69.260
2.30 209.162 69.220
2.31 208.601 68.968
2.32 208.942 68.835
2.33 208.918 68.930
2.34 210.893 68.778
2.35 213.591 68.455
2.36 215.083 68.259
2.37 216.031 68.215
2.38 216.030 68.329
2.39 216.274 68.623
2.40 215.903 69.166
2.41 216.256 70.173
2.42 216.239 71.755
2.43 215.442 73.137
2.44 213.517 73.812
2.45 212.138 74.043
2.46 211.953 74.035
2.47 211.960 73.702
2.48 211.410 73.054
2.49 210.776 72.375
2.50 211.266 71.657
2.51 212.475 70.797
2.52 213.207 70.459
2.53 215.392 70.570
2.54 218.138 70.167
2.55 230.268 68.977
2.56 233.100 67.331
2.57 217.890 65.092
2.58 216.759 61.944
2.59 216.976 58.610
2.60 --undefined-- 58.052
2.61 --undefined-- 62.206
2.62 --undefined-- 67.109
2.63 174.032 71.348
2.64 176.401 73.898
2.65 180.550 74.968
2.66 184.635 75.453
2.67 187.942 75.573
2.68 190.998 75.019
2.69 192.610 73.731
2.70 194.357 71.575
2.71 191.909 68.700
2.72 186.417 65.606
2.73 190.548 62.497
2.74 195.717 64.565
2.75 190.446 69.848
2.76 184.036 73.174
2.77 --undefined-- 74.038
2.78 --undefined-- 73.035
2.79 295.327 71.185
2.80 285.173 68.601
2.81 278.633 65.114
2.82 297.695 60.968
2.83 298.481 56.250
2.84 --undefined-- 54.370
2.85 --undefined-- 58.741
2.86 --undefined-- 63.065
2.87 --undefined-- 64.341
2.88 221.811 63.332
2.89 227.545 63.971
2.90 226.959 65.379
2.91 221.511 65.407
2.92 218.172 64.359
2.93 223.907 63.336
2.94 233.458 63.730
2.95 231.095 64.949
2.96 224.166 66.283
2.97 204.869 67.470
2.98 198.749 68.212
2.99 197.772 68.564
3.00 199.369 68.760
3.01 200.979 68.790
3.02 207.457 69.044
3.03 219.753 69.714
3.04 232.063 69.804
3.05 251.392 68.709
3.06 265.499 67.212
3.07 273.291 65.789
3.08 274.740 63.474
3.09 274.054 62.144
3.10 --undefined-- 63.977
3.11 286.285 63.949
3.12 285.512 61.750
3.13 296.508 61.538
3.14 281.220 63.127
3.15 266.981 64.435
3.16 266.368 65.393
3.17 268.747 65.692
3.18 265.349 66.235
3.19 249.654 67.450
3.20 217.527 68.256
3.21 199.298 68.412
3.22 191.148 68.460
3.23 186.918 68.224
3.24 183.365 67.650
3.25 179.700 67.264
3.26 176.712 67.076
3.27 173.677 66.962
3.28 172.105 66.969
3.29 170.572 66.728
3.30 169.776 66.296
3.31 169.675 65.807
3.32 167.591 64.582
3.33 163.676 62.645
3.34 164.526 61.609
3.35 170.018 61.781
3.36 173.756 62.565
3.37 173.719 63.488
3.38 172.409 63.580
3.39 171.664 62.778
3.40 173.821 61.286
3.41 189.692 59.345
3.42 --undefined-- 56.931
3.43 --undefined-- 54.951
3.44 --undefined-- 56.363
3.45 --undefined-- 57.264
3.46 --undefined-- 55.522
3.47 --undefined-- 52.209
3.48 --undefined-- 52.705
3.49 --undefined-- 56.276
3.50 --undefined-- 57.298
3.51 --undefined-- 56.126
3.52 --undefined-- 55.339
3.53 --undefined-- 54.408
3.54 --undefined-- 52.616
3.55 --undefined-- 55.949
3.56 --undefined-- 64.402
3.57 --undefined-- 69.974
3.58 --undefined-- 72.208
3.59 --undefined-- 71.989
3.60 --undefined-- 70.013
3.61 --undefined-- 66.224
3.62 --undefined-- 61.575
3.63 --undefined-- 58.621
3.64 --undefined-- 56.634
3.65 --undefined-- 53.973
3.66 --undefined-- 51.292
3.67 --undefined-- 52.334
3.68 --undefined-- 53.519
3.69 --undefined-- 52.947
3.70 --undefined-- 53.151
3.71 --undefined-- 53.478
3.72 --undefined-- 52.228
3.73 --undefined-- 51.822
3.74 --undefined-- 52.238
3.75 --undefined-- 53.124
3.76 --undefined-- 58.151
3.77 206.748 63.184
3.78 199.846 66.102
3.79 198.142 67.107
3.80 202.421 66.956
3.81 203.046 66.935
3.82 200.822 67.258
3.83 198.529 67.352
3.84 196.766 67.564
3.85 197.205 69.280
3.86 197.384 71.604
3.87 193.470 72.533
3.88 191.633 72.151
3.89 192.529 71.160
3.90 191.847 69.824
3.91 188.885 67.830
3.92 186.116 64.387
3.93 191.268 59.517
3.94 190.643 55.752
3.95 190.521 53.084
3.96 --undefined-- 50.209
3.97 --undefined-- 48.725
3.98 --undefined-- 51.261
3.99 --undefined-- 53.905
4.00 --undefined-- 54.800
4.01 --undefined-- 53.708
4.02 --undefined-- 52.983
4.03 --undefined-- 54.714
4.04 --undefined-- 55.567
4.05 --undefined-- 59.553
4.06 --undefined-- 64.116
4.07 --undefined-- 65.210
4.08 --undefined-- 63.116
4.09 --undefined-- 59.652
4.10 --undefined-- 56.820
4.11 --undefined-- 54.671
4.12 --undefined-- 53.055
4.13 --undefined-- 50.609
4.14 --undefined-- 51.621
4.15 --undefined-- 55.670
4.16 --undefined-- 56.998
4.17 --undefined-- 55.636
4.18 --undefined-- 55.917
4.19 186.598 58.632
4.20 182.646 60.062
4.21 179.884 60.635
4.22 191.334 61.342
4.23 194.566 62.299
4.24 206.292 63.643
4.25 199.596 65.925
4.26 184.369 68.215
4.27 179.008 69.322
4.28 173.491 69.299
4.29 170.659 68.596
4.30 168.569 67.182
4.31 166.841 65.059
4.32 164.955 63.199
4.33 153.945 62.305
4.34 157.737 63.074
4.35 162.137 64.180
4.36 161.753 63.773
4.37 160.069 62.720
4.38 161.156 62.523
4.39 163.668 63.431
4.40 167.653 64.121
4.41 171.281 63.804
4.42 172.490 63.414
4.43 172.676 62.807
4.44 173.485 61.987
4.45 197.908 64.087
4.46 199.994 66.983
4.47 203.097 68.796
4.48 202.837 69.912
4.49 202.309 71.171
4.50 203.823 72.702
4.51 205.388 73.972
4.52 206.355 74.796
4.53 205.979 75.259
4.54 205.534 75.552
4.55 205.789 75.912
4.56 206.011 76.345
4.57 205.739 76.529
4.58 205.040 76.317
4.59 204.128 75.901
4.60 203.085 75.455
4.61 202.269 74.787
4.62 203.244 73.557
4.63 205.056 72.218
4.64 206.292 71.302
4.65 208.725 70.402
4.66 198.127 69.566
4.67 197.803 68.390
4.68 199.062 66.051
4.69 194.914 64.265
4.70 189.391 64.593
4.71 186.213 65.292
4.72 181.366 65.710
4.73 177.102 65.962
4.74 176.464 66.915
4.75 177.288 68.009
4.76 174.603 67.884
4.77 164.956 66.884
4.78 161.220 66.670
4.79 160.263 67.554
4.80 160.148 68.469
4.81 160.706 68.619
4.82 161.452 67.955
4.83 162.337 67.328
4.84 164.165 67.433
4.85 166.552 67.894
4.86 168.478 68.383
4.87 174.072 69.065
4.88 181.245 69.819
4.89 187.387 70.580
4.90 196.651 71.187
4.91 203.181 71.366
4.92 210.676 70.832
4.93 222.622 69.242
4.94 231.621 --undefined--
4.95 233.145 --undefined--
4.96 --undefined-- --undefined--
4.97 --undefined-- --undefined--
