Time Pitch Intensity
0.01 --undefined-- --undefined--
0.02 --undefined-- --undefined--
0.03 --undefined-- --undefined--
0.04 --undefined-- --undefined--
0.05 --undefined-- 52.286
0.06 --undefined-- 48.641
0.07 --undefined-- 44.103
0.08 --undefined-- 46.777
0.09 --undefined-- 52.049
0.10 --undefined-- 54.813
0.11 --undefined-- 55.223
0.12 --undefined-- 55.102
0.13 --undefined-- 55.394
0.14 --undefined-- 54.904
0.15 --undefined-- 54.213
0.16 --undefined-- 55.912
0.17 --undefined-- 61.595
0.18 161.791 66.647
0.19 163.460 69.762
0.20 160.897 71.485
0.21 161.006 72.044
0.22 158.794 71.224
0.23 156.711 68.357
0.24 158.745 63.052
0.25 159.713 57.265
0.26 158.780 54.081
0.27 157.410 53.046
0.28 --undefined-- 53.161
0.29 --undefined-- 52.468
0.30 --undefined-- 49.697
0.31 --undefined-- 50.152
0.32 --undefined-- 53.619
0.33 --undefined-- 54.001
0.34 --undefined-- 51.871
0.35 --undefined-- 50.839
0.36 --undefined-- 51.585
0.37 --undefined-- 53.552
0.38 --undefined-- 56.162
0.39 --undefined-- 57.986
0.40 --undefined-- 58.003
0.41 --undefined-- 56.927
0.42 --undefined-- 59.475
0.43 246.254 63.440
0.44 229.709 65.227
0.45 224.281 65.026
0.46 202.618 65.021
0.47 193.983 66.323
0.48 191.075 67.809
0.49 187.897 69.108
0.50 186.076 69.656
0.51 185.657 69.254
0.52 186.251 68.687
0.53 187.604 68.489
0.54 189.540 68.465
0.55 191.319 68.214
0.56 191.872 67.661
0.57 191.095 66.562
0.58 189.639 64.897
0.59 186.254 63.401
0.60 182.224 62.675
0.61 179.855 62.109
0.62 171.402 60.785
0.63 --undefined-- 59.034
0.64 --undefined-- 57.738
0.65 --undefined-- 56.284
0.66 --undefined-- 54.441
0.67 --undefined-- 55.708
0.68 --undefined-- 59.178
0.69 --undefined-- 61.805
0.70 201.836 63.987
0.71 192.025 65.644
0.72 186.360 66.507
0.73 177.583 66.735
0.74 174.577 66.957
0.75 173.201 66.965
0.76 172.784 66.615
0.77 172.760 66.432
0.78 172.211 66.270
0.79 172.027 65.966
0.80 172.407 65.776
0.81 173.040 65.411
0.82 174.508 64.791
0.83 176.009 64.481
0.84 176.306 64.440
0.85 176.695 63.930
0.86 176.930 62.654
0.87 176.199 61.666
0.88 175.470 61.533
0.89 177.731 61.679
0.90 177.903 61.869
0.91 176.965 61.903
0.92 176.773 61.330
0.93 174.448 59.283
0.94 175.308 56.076
0.95 --undefined-- 53.698
0.96 --undefined-- 50.814
0.97 --undefined-- 48.730
0.98 --undefined-- 52.993
0.99 --undefined-- 55.928
1.00 --undefined-- 56.398
1.01 --undefined-- 55.668
1.02 --undefined-- 56.546
1.03 --undefined-- 58.443
1.04 --undefined-- 59.561
1.05 287.021 62.254
1.06 265.463 66.044
1.07 262.552 68.332
1.08 262.076 69.450
1.09 262.121 70.229
1.10 261.693 70.612
1.11 261.480 70.409
1.12 260.482 69.952
1.13 261.244 69.873
1.14 264.858 70.462
1.15 267.441 71.230
1.16 268.763 71.822
1.17 269.632 72.259
1.18 269.832 72.464
1.19 269.044 71.971
1.20 266.480 70.779
1.21 267.339 69.532
1.22 270.232 68.537
1.23 273.322 67.809
1.24 273.471 67.203
1.25 269.177 66.500
1.26 256.958 65.632
1.27 248.929 64.865
1.28 239.147 63.974
1.29 235.797 62.573
1.30 211.942 60.952
1.31 207.807 59.675
1.32 206.231 58.309
1.33 208.958 58.192
1.34 209.715 59.908
1.35 202.312 62.053
1.36 192.667 64.592
1.37 183.332 67.093
1.38 177.873 68.902
1.39 175.433 69.568
1.40 173.722 68.952
1.41 172.259 67.606
1.42 172.285 66.676
1.43 170.986 66.208
1.44 169.205 65.909
1.45 167.668 65.734
1.46 167.715 65.293
1.47 167.941 64.873
1.48 167.113 64.920
1.49 167.816 65.003
1.50 167.628 65.258
1.51 167.112 65.582
1.52 167.369 65.022
1.53 166.847 63.408
1.54 165.572 62.065
1.55 167.643 61.804
1.56 167.938 60.714
1.57 --undefined-- 57.657
1.58 --undefined-- 52.820
1.59 --undefined-- 49.815
1.60 --undefined-- 49.910
1.61 --undefined-- 48.421
1.62 --undefined-- 48.125
1.63 --undefined-- 53.913
1.64 --undefined-- 58.800
1.65 --undefined-- 61.367
1.66 --undefined-- 61.444
1.67 --undefined-- 58.916
1.68 --undefined-- 55.419
1.69 --undefined-- 54.625
1.70 --undefined-- 55.288
1.71 --undefined-- 57.504
1.72 --undefined-- 61.461
1.73 --undefined-- 66.683
1.74 --undefined-- 70.759
1.75 --undefined-- 72.289
1.76 --undefined-- 72.559
1.77 164.695 72.022
1.78 160.004 70.100
1.79 155.226 67.800
1.80 150.061 66.404
1.81 145.617 65.416
1.82 143.206 64.175
1.83 142.215 62.699
1.84 140.060 61.058
1.85 142.205 59.996
1.86 144.994 60.369
1.87 146.920 61.347
1.88 149.794 62.343
1.89 153.403 63.215
1.90 154.750 63.816
1.91 155.986 64.097
1.92 158.205 63.664
1.93 160.551 61.951
1.94 158.013 58.931
1.95 --undefined-- 58.585
1.96 --undefined-- 60.568
1.97 --undefined-- 61.308
1.98 --undefined-- 60.845
1.99 --undefined-- 59.288
2.00 --undefined-- 57.151
2.01 --undefined-- 58.803
2.02 238.150 63.648
2.03 234.029 66.901
2.04 234.328 68.815
2.05 234.707 69.962
2.06 234.833 70.168
2.07 238.213 69.273
2.08 243.475 67.896
2.09 242.517 67.056
2.10 239.987 67.079
2.11 239.515 67.319
2.12 239.522 67.176
2.13 241.961 67.011
2.14 244.232 67.116
2.15 240.714 67.134
2.16 237.632 66.939
2.17 235.235 66.643
2.18 232.601 66.493
2.19 229.434 66.398
2.20 226.295 65.976
2.21 220.827 65.144
2.22 213.228 64.241
2.23 204.838 63.863
2.24 202.075 64.172
2.25 199.099 64.585
2.26 191.255 64.884
2.27 185.482 65.096
2.28 182.950 64.833
2.29 181.043 63.820
2.30 180.499 62.478
2.31 176.714 61.303
2.32 174.666 60.514
2.33 173.251 60.801
2.34 172.781 62.046
2.35 172.585 62.776
2.36 173.040 62.369
2.37 174.962 61.821
2.38 178.282 62.148
2.39 181.005 62.643
2.40 184.721 62.706
2.41 188.480 62.679
2.42 191.632 62.808
2.43 194.389 62.884
2.44 197.356 62.861
2.45 199.580 62.649
2.46 201.065 62.065
2.47 201.082 61.415
2.48 198.613 61.252
2.49 194.672 62.457
2.50 193.021 64.057
2.51 --undefined-- 64.419
2.52 --undefined-- 63.510
2.53 --undefined-- 62.855
2.54 259.625 64.734
2.55 229.885 67.463
2.56 226.778 69.725
2.57 225.054 70.969
2.58 225.191 70.894
2.59 227.416 69.441
2.60 229.810 66.171
2.61 228.934 61.320
2.62 227.216 59.981
2.63 225.388 62.343
2.64 --undefined-- 64.317
2.65 --undefined-- 65.251
2.66 --undefined-- 65.126
2.67 --undefined-- 63.872
2.68 --undefined-- 61.337
2.69 --undefined-- 57.061
2.70 --undefined-- 55.481
2.71 238.594 60.323
2.72 216.739 64.269
2.73 214.180 66.503
2.74 186.474 67.271
2.75 191.668 66.966
2.76 195.779 65.940
2.77 179.783 65.768
2.78 --undefined-- 68.215
2.79 --undefined-- 70.338
2.80 --undefined-- 71.103
2.81 --undefined-- 72.137
2.82 150.911 72.992
2.83 150.451 72.162
2.84 150.800 69.194
2.85 149.846 65.411
2.86 150.924 65.703
2.87 153.767 68.210
2.88 159.494 69.585
2.89 166.710 69.661
2.90 177.420 68.738
2.91 183.966 68.407
2.92 188.060 70.248
2.93 192.294 71.463
2.94 196.657 70.838
2.95 199.513 68.836
2.96 200.198 66.211
2.97 199.095 65.257
2.98 194.827 66.903
2.99 189.824 68.537
3.00 189.852 69.357
3.01 179.061 69.391
3.02 172.764 68.895
3.03 170.855 68.065
3.04 170.507 66.964
3.05 171.083 65.454
3.06 170.589 63.618
3.07 171.222 62.120
3.08 172.417 61.868
3.09 172.508 62.527
3.10 172.460 63.530
3.11 171.784 64.625
3.12 171.315 65.206
3.13 171.242 65.150
3.14 170.765 64.671
3.15 171.268 63.906
3.16 170.033 62.559
3.17 164.793 60.340
3.18 161.968 58.423
3.19 182.308 60.709
3.20 183.442 64.288
3.21 181.646 67.333
3.22 179.032 69.715
3.23 176.068 71.137
3.24 174.837 71.538
3.25 174.097 71.252
3.26 174.114 71.151
3.27 176.577 71.727
3.28 178.605 72.569
3.29 180.354 73.139
3.30 181.618 73.467
3.31 182.097 73.648
3.32 181.557 73.528
3.33 181.175 73.083
3.34 179.628 72.111
3.35 175.424 70.396
3.36 169.740 68.668
3.37 162.877 67.551
3.38 --undefined-- 65.643
3.39 --undefined-- 61.995
3.40 --undefined-- 58.505
3.41 --undefined-- 56.533
3.42 --undefined-- 55.017
3.43 --undefined-- 56.552
3.44 --undefined-- 58.984
3.45 --undefined-- 59.632
3.46 --undefined-- 57.913
3.47 --undefined-- 54.317
3.48 --undefined-- 51.900
3.49 --undefined-- 52.711
3.50 --undefined-- 52.947
3.51 --undefined-- 54.611
3.52 --undefined-- 56.801
3.53 --undefined-- 56.622
3.54 --undefined-- 55.253
3.55 --undefined-- 56.208
3.56 --undefined-- 57.766
3.57 --undefined-- 57.157
3.58 --undefined-- 54.208
3.59 --undefined-- 51.144
3.60 --undefined-- 53.907
3.61 --undefined-- 58.082
3.62 --undefined-- 61.297
3.63 --undefined-- 63.377
3.64 --undefined-- 64.146
3.65 --undefined-- 63.698
3.66 --undefined-- 62.619
3.67 --undefined-- 62.555
3.68 --undefined-- 63.351
3.69 292.377 62.974
3.70 288.724 60.239
3.71 281.512 55.063
3.72 --undefined-- 51.484
3.73 --undefined-- 53.841
3.74 --undefined-- 56.999
3.75 --undefined-- 59.695
3.76 277.301 61.734
3.77 282.130 62.643
3.78 285.291 62.021
3.79 285.825 59.296
3.80 --undefined-- 54.828
3.81 --undefined-- 52.180
3.82 --undefined-- 51.887
3.83 --undefined-- 51.916
3.84 272.906 53.379
3.85 275.090 57.425
3.86 279.835 61.733
3.87 279.543 64.753
3.88 --undefined-- 66.212
3.89 --undefined-- 66.442
3.90 --undefined-- 65.997
3.91 --undefined-- 64.621
3.92 286.009 61.654
3.93 261.432 57.559
3.94 --undefined-- 58.318
3.95 --undefined-- 61.810
3.96 --undefined-- 64.610
3.97 --undefined-- 67.027
3.98 262.447 68.715
3.99 243.508 69.491
4.00 240.379 69.689
4.01 247.017 70.092
4.02 251.980 71.093
4.03 255.810 72.244
4.04 258.972 72.754
4.05 261.611 72.228
4.06 260.888 70.149
4.07 255.249 66.116
4.08 253.859 61.273
4.09 257.884 62.404
4.10 263.443 66.114
4.11 266.800 68.161
4.12 270.767 68.900
4.13 270.244 69.078
4.14 261.212 70.278
4.15 234.270 72.923
4.16 228.452 74.574
4.17 225.147 74.057
4.18 226.107 72.493
4.19 232.024 71.456
4.20 248.873 70.436
4.21 257.317 70.175
4.22 267.216 70.798
4.23 283.568 71.227
4.24 153.940 71.748
4.25 158.159 72.136
4.26 158.437 71.652
4.27 155.799 69.502
4.28 149.986 65.236
4.29 --undefined-- 60.658
4.30 --undefined-- 59.987
4.31 --undefined-- 60.469
4.32 --undefined-- 60.449
4.33 --undefined-- 61.800
4.34 --undefined-- 64.536
4.35 183.787 67.464
4.36 185.196 69.053
4.37 183.700 69.668
4.38 183.881 70.359
4.39 184.977 71.219
4.40 186.305 71.722
4.41 187.496 71.927
4.42 188.902 72.201
4.43 190.189 72.601
4.44 191.250 72.765
4.45 192.255 72.603
4.46 192.887 72.239
4.47 193.485 71.775
4.48 194.198 71.327
4.49 194.390 70.866
4.50 194.026 70.116
4.51 191.905 69.234
4.52 189.549 68.952
4.53 189.614 69.114
4.54 191.286 69.476
4.55 192.010 70.323
4.56 191.070 71.491
4.57 189.984 72.697
4.58 189.443 73.664
4.59 189.063 74.173
4.60 188.820 74.366
4.61 188.340 74.323
4.62 187.815 73.948
4.63 187.151 73.034
4.64 185.987 71.499
4.65 183.843 69.920
4.66 180.850 69.401
4.67 176.721 70.308
4.68 167.947 72.137
4.69 160.035 74.011
4.70 152.001 75.212
4.71 278.071 75.540
4.72 246.814 75.147
4.73 224.585 74.332
4.74 201.224 73.197
4.75 191.627 71.581
4.76 190.432 69.155
4.77 209.384 65.858
4.78 197.692 63.127
4.79 189.679 63.503
4.80 186.385 65.391
4.81 188.370 66.895
4.82 191.865 67.749
4.83 201.677 68.082
4.84 202.658 68.140
4.85 204.624 68.084
4.86 217.584 68.039
4.87 225.912 67.918
4.88 244.129 67.960
4.89 268.267 68.674
4.90 289.880 70.038
4.91 154.154 71.052
4.92 162.801 70.878
4.93 166.420 69.760
4.94 165.265 68.798
4.95 161.915 68.290
4.96 158.133 67.354
4.97 151.228 65.167
4.98 140.186 62.475
4.99 --undefined-- 60.941
5.00 --undefined-- 59.475
5.01 --undefined-- --undefined--
5.02 --undefined-- --undefined--
5.03 --undefined-- --undefined--
5.04 --undefined-- --undefined--
