Time Pitch Intensity
0.01 --undefined-- --undefined--
0.02 106.306 --undefined--
0.03 104.211 --undefined--
0.04 100.675 --undefined--
0.05 97.843 70.272
0.06 --undefined-- 73.102
0.07 --undefined-- 75.017
0.08 --undefined-- 75.012
0.09 --undefined-- 73.680
0.10 130.666 72.395
0.11 128.765 71.502
0.12 130.447 70.615
0.13 131.422 70.055
0.14 131.276 69.922
0.15 131.575 69.727
0.16 132.082 69.287
0.17 132.223 68.358
0.18 133.022 66.175
0.19 --undefined-- 61.894
0.20 --undefined-- 54.844
0.21 --undefined-- 46.731
0.22 --undefined-- 42.305
0.23 --undefined-- 40.823
0.24 --undefined-- 40.322
0.25 --undefined-- 39.323
0.26 --undefined-- 39.399
0.27 --undefined-- 42.984
0.28 --undefined-- 45.282
0.29 --undefined-- 45.934
0.30 --undefined-- 45.997
0.31 --undefined-- 45.852
0.32 --undefined-- 45.278
0.33 --undefined-- 46.300
0.34 --undefined-- 50.034
0.35 --undefined-- 54.538
0.36 134.336 58.045
0.37 133.199 59.933
0.38 132.013 60.776
0.39 130.239 61.582
0.40 128.519 62.271
0.41 127.275 62.435
0.42 126.482 62.386
0.43 126.024 62.359
0.44 126.341 61.953
0.45 126.367 60.820
0.46 126.122 60.075
0.47 130.052 60.310
0.48 129.524 60.753
0.49 128.863 61.211
0.50 127.251 61.288
0.51 125.893 61.256
0.52 123.581 61.515
0.53 122.007 61.906
0.54 118.580 62.614
0.55 117.371 64.044
0.56 115.272 65.181
0.57 114.948 65.307
0.58 113.933 64.593
0.59 109.330 64.235
0.60 109.437 65.262
0.61 110.733 65.960
0.62 111.175 65.515
0.63 110.478 64.276
0.64 108.288 62.644
0.65 103.627 60.102
0.66 99.754 56.364
0.67 102.239 54.561
0.68 108.420 56.251
0.69 113.595 58.171
0.70 118.300 59.447
0.71 118.682 60.327
0.72 121.439 61.065
0.73 121.024 61.493
0.74 123.163 61.880
0.75 123.041 62.594
0.76 122.911 63.520
0.77 124.863 64.738
0.78 124.892 65.796
0.79 127.660 66.867
0.80 130.085 69.007
0.81 131.652 71.238
0.82 132.390 72.492
0.83 132.933 72.988
0.84 132.857 73.176
0.85 133.247 73.171
0.86 133.597 73.064
0.87 134.064 72.791
0.88 134.435 72.200
0.89 134.756 71.464
0.90 134.308 70.868
0.91 134.737 70.315
0.92 134.758 69.644
0.93 134.934 69.005
0.94 135.460 68.294
0.95 135.338 67.423
0.96 134.709 66.628
0.97 134.333 65.673
0.98 133.268 64.244
0.99 133.334 62.631
1.00 133.242 61.148
1.01 132.771 59.469
1.02 131.758 57.010
1.03 130.388 53.971
1.04 128.389 51.193
1.05 128.548 48.229
1.06 --undefined-- 44.820
1.07 --undefined-- 42.146
1.08 --undefined-- 40.580
1.09 --undefined-- 38.650
1.10 --undefined-- 36.352
1.11 --undefined-- 35.196
1.12 --undefined-- 34.983
1.13 --undefined-- 33.702
1.14 --undefined-- 31.282
1.15 --undefined-- 30.486
1.16 --undefined-- 30.071
1.17 --undefined-- 28.258
1.18 --undefined-- 28.063
1.19 --undefined-- 28.183
1.20 --undefined-- 26.981
1.21 --undefined-- 26.131
1.22 --undefined-- 27.577
1.23 --undefined-- 29.334
1.24 --undefined-- 29.369
1.25 --undefined-- 34.632
1.26 --undefined-- 45.600
1.27 --undefined-- 55.477
1.28 --undefined-- 64.826
1.29 188.659 71.363
1.30 196.752 75.032
1.31 212.852 76.781
1.32 228.773 77.367
1.33 232.443 76.283
1.34 231.490 72.860
1.35 249.372 69.048
1.36 267.623 68.113
1.37 274.672 68.095
1.38 280.332 67.967
1.39 282.729 67.984
1.40 285.392 68.074
1.41 285.412 68.161
1.42 282.583 69.101
1.43 277.880 71.156
1.44 271.947 72.969
1.45 261.745 73.825
1.46 252.787 73.713
1.47 242.695 73.181
1.48 233.269 73.011
1.49 225.624 73.360
1.50 217.695 73.622
1.51 206.534 72.641
1.52 193.902 69.735
1.53 178.238 65.620
1.54 171.677 61.605
1.55 170.878 57.137
1.56 --undefined-- 51.856
1.57 --undefined-- 49.956
1.58 --undefined-- 56.796
1.59 --undefined-- 63.261
1.60 --undefined-- 68.606
1.61 171.629 72.357
1.62 168.486 74.776
1.63 166.552 76.261
1.64 165.556 76.943
1.65 164.570 76.786
1.66 163.030 75.798
1.67 160.169 74.644
1.68 157.893 73.879
1.69 154.734 72.881
1.70 145.705 71.349
1.71 135.275 69.867
1.72 126.607 68.894
1.73 117.226 68.269
1.74 110.840 67.933
1.75 106.710 67.709
1.76 104.472 67.293
1.77 102.449 66.623
1.78 101.916 66.254
1.79 104.754 66.482
1.80 106.592 66.899
1.81 108.921 67.275
1.82 111.459 67.600
1.83 113.224 67.907
1.84 115.246 68.088
1.85 120.292 68.245
1.86 124.744 68.806
1.87 122.580 69.968
1.88 124.163 71.273
1.89 124.027 72.027
1.90 125.003 72.152
1.91 125.308 71.948
1.92 126.093 71.570
1.93 126.872 71.282
1.94 129.503 71.295
1.95 130.946 71.307
1.96 130.645 71.106
1.97 129.862 70.786
1.98 128.425 70.389
1.99 125.895 69.888
2.00 122.924 69.271
2.01 120.152 68.608
2.02 117.212 68.047
2.03 113.233 67.675
2.04 110.327 67.936
2.05 110.377 69.043
2.06 108.548 70.172
2.07 106.526 70.601
2.08 103.279 70.157
2.09 100.962 69.543
2.10 100.374 69.156
2.11 100.100 68.864
2.12 100.644 68.765
2.13 101.769 68.715
2.14 102.122 68.589
2.15 106.440 68.602
2.16 108.314 68.787
2.17 110.537 69.064
2.18 114.546 69.233
2.19 116.010 69.100
2.20 124.856 69.205
2.21 132.534 69.713
2.22 137.966 70.218
2.23 147.784 70.748
2.24 155.428 71.351
2.25 159.748 71.905
2.26 164.144 72.395
2.27 169.691 72.674
2.28 174.854 72.780
2.29 178.037 72.909
2.30 180.407 73.063
2.31 181.578 73.224
2.32 181.678 73.455
2.33 181.132 73.710
2.34 179.305 73.796
2.35 176.406 73.325
2.36 171.657 71.861
2.37 163.948 69.509
2.38 163.014 66.738
2.39 154.869 63.211
2.40 154.952 58.548
2.41 --undefined-- 52.611
2.42 --undefined-- 46.990
2.43 --undefined-- 45.140
2.44 --undefined-- 44.639
2.45 --undefined-- 46.532
2.46 --undefined-- 48.958
2.47 --undefined-- 55.913
2.48 --undefined-- 63.892
2.49 164.749 68.787
2.50 155.746 71.385
2.51 150.118 72.663
2.52 146.587 73.046
2.53 141.675 72.871
2.54 138.206 72.687
2.55 140.530 72.693
2.56 141.905 72.612
2.57 142.335 72.426
2.58 142.374 72.275
2.59 141.840 72.203
2.60 141.873 72.207
2.61 142.523 72.263
2.62 143.085 72.355
2.63 143.818 72.444
2.64 144.690 72.432
2.65 145.733 72.161
2.66 146.335 71.432
2.67 146.694 69.969
2.68 145.583 67.460
2.69 143.724 63.745
2.70 149.404 59.889
2.71 --undefined-- 58.677
2.72 --undefined-- 58.375
2.73 --undefined-- 60.161
2.74 189.932 66.913
2.75 183.738 71.560
2.76 175.992 73.464
2.77 173.162 73.694
2.78 171.441 73.228
2.79 168.590 72.208
2.80 164.665 70.965
2.81 166.147 70.531
2.82 167.177 70.799
2.83 167.990 71.242
2.84 168.293 71.680
2.85 168.154 72.017
2.86 167.430 72.204
2.87 166.324 72.286
2.88 164.654 72.303
2.89 162.105 72.221
2.90 158.566 72.085
2.91 154.274 71.836
2.92 149.301 71.492
2.93 144.592 71.384
2.94 140.713 71.658
2.95 136.855 71.935
2.96 131.643 71.895
2.97 130.024 71.936
2.98 122.098 72.298
2.99 121.433 72.318
3.00 115.518 71.862
3.01 113.815 71.369
3.02 112.125 71.083
3.03 111.550 70.908
3.04 110.475 70.799
3.05 110.496 70.902
3.06 110.778 71.158
3.07 110.378 71.288
3.08 110.106 71.331
3.09 110.301 71.497
3.10 111.030 71.730
3.11 111.293 71.797
3.12 110.825 71.559
3.13 110.203 70.846
3.14 107.292 69.448
3.15 102.706 67.394
3.16 100.890 65.544
3.17 101.797 65.511
3.18 101.839 66.724
3.19 98.493 67.617
3.20 96.505 67.652
3.21 90.082 67.131
3.22 86.910 66.474
3.23 84.573 65.945
3.24 84.560 65.729
3.25 85.790 65.769
3.26 87.427 65.924
3.27 90.107 66.101
3.28 93.928 66.322
3.29 96.820 66.683
3.30 98.757 67.206
3.31 99.462 67.770
3.32 99.129 68.056
3.33 96.215 67.535
3.34 94.376 65.681
3.35 82.179 62.786
3.36 83.826 60.289
3.37 --undefined-- 57.791
3.38 --undefined-- 54.432
3.39 --undefined-- 52.300
3.40 --undefined-- 51.299
3.41 --undefined-- 50.700
3.42 --undefined-- 50.180
3.43 --undefined-- 49.565
3.44 --undefined-- 51.667
3.45 --undefined-- 57.211
3.46 --undefined-- 61.012
3.47 88.363 62.667
3.48 89.251 63.706
3.49 89.366 64.422
3.50 89.527 64.326
3.51 89.766 63.788
3.52 92.503 63.456
3.53 97.827 63.705
3.54 104.196 64.851
3.55 113.633 66.789
3.56 122.507 69.351
3.57 130.249 71.822
3.58 134.819 73.274
3.59 140.755 73.581
3.60 149.277 73.477
3.61 152.005 73.426
3.62 151.260 73.288
3.63 158.874 73.130
3.64 158.493 72.837
3.65 155.164 72.483
3.66 149.955 72.391
3.67 144.840 72.924
3.68 138.242 73.606
3.69 128.375 73.112
3.70 116.378 71.276
3.71 105.767 69.315
3.72 98.237 68.055
3.73 93.438 66.798
3.74 89.307 65.470
3.75 85.789 64.360
3.76 86.087 63.519
3.77 87.188 63.184
3.78 87.971 63.693
3.79 89.004 64.854
3.80 91.433 65.957
3.81 93.556 66.896
3.82 96.023 67.685
3.83 97.675 68.167
3.84 99.501 68.751
3.85 102.318 69.642
3.86 104.441 70.519
3.87 105.903 71.235
3.88 107.783 71.673
3.89 110.477 71.698
3.90 113.074 71.143
3.91 113.311 69.442
3.92 117.430 66.414
3.93 118.348 62.337
3.94 --undefined-- 57.595
3.95 --undefined-- 59.610
3.96 --undefined-- 63.113
3.97 --undefined-- 63.328
3.98 --undefined-- 60.420
3.99 --undefined-- 56.610
4.00 --undefined-- 60.314
4.01 146.791 68.085
4.02 153.455 73.043
4.03 149.860 75.220
4.04 144.513 75.325
4.05 138.364 74.037
4.06 130.336 71.710
4.07 120.258 68.755
4.08 113.835 66.100
4.09 110.005 64.845
4.10 106.785 64.902
4.11 105.867 65.815
4.12 104.617 67.122
4.13 104.307 68.397
4.14 104.167 69.238
4.15 102.084 69.479
4.16 99.776 69.340
4.17 97.549 69.088
4.18 96.659 68.670
4.19 93.689 68.042
4.20 93.227 67.732
4.21 94.214 67.949
4.22 94.127 68.261
4.23 93.831 68.460
4.24 93.733 68.487
4.25 94.220 68.399
4.26 95.087 67.970
4.27 94.745 66.492
4.28 92.837 63.713
4.29 98.524 60.259
4.30 109.117 56.622
4.31 --undefined-- 51.712
4.32 --undefined-- 45.216
4.33 --undefined-- 42.240
4.34 --undefined-- 52.941
4.35 --undefined-- 61.821
4.36 --undefined-- 66.974
4.37 98.292 69.669
4.38 95.356 71.098
4.39 95.296 71.929
4.40 95.780 72.206
4.41 98.084 71.835
4.42 98.049 71.073
4.43 103.842 71.381
4.44 108.507 72.735
4.45 111.648 73.772
4.46 116.602 74.437
4.47 121.543 74.980
4.48 125.204 75.403
4.49 127.114 75.743
4.50 129.534 76.060
4.51 131.384 76.313
4.52 127.841 76.357
4.53 125.967 76.164
4.54 124.040 75.802
4.55 122.228 75.316
4.56 121.032 74.686
4.57 120.120 73.849
4.58 117.638 72.711
4.59 115.706 71.541
4.60 114.011 70.769
4.61 112.277 70.576
4.62 111.122 70.894
4.63 109.599 71.396
4.64 107.456 71.640
4.65 104.916 71.473
4.66 102.176 71.083
4.67 101.751 70.734
4.68 101.097 70.597
4.69 100.941 70.650
4.70 102.112 70.665
4.71 102.996 70.563
4.72 103.151 70.457
4.73 106.885 70.512
4.74 109.275 70.605
4.75 110.139 70.590
4.76 109.172 70.465
4.77 107.371 70.182
4.78 105.830 69.787
4.79 104.818 69.767
4.80 102.631 70.406
4.81 101.684 71.049
4.82 101.479 71.222
4.83 99.902 70.765
4.84 99.123 69.182
4.85 91.526 66.020
4.86 96.585 62.251
4.87 103.385 58.824
4.88 102.827 54.732
4.89 --undefined-- 49.681
4.90 --undefined-- 47.845
4.91 --undefined-- 53.928
4.92 --undefined-- 57.986
4.93 --undefined-- 62.015
4.94 --undefined-- 66.897
4.95 109.301 70.232
4.96 106.474 71.944
4.97 103.124 72.445
4.98 98.951 71.938
4.99 95.389 70.438
5.00 90.087 67.573
5.01 83.857 63.152
5.02 88.790 58.531
5.03 --undefined-- 54.028
5.04 --undefined-- 47.813
5.05 --undefined-- 42.933
5.06 --undefined-- 43.917
5.07 --undefined-- 42.790
5.08 --undefined-- 43.926
5.09 --undefined-- 50.796
5.10 --undefined-- 55.456
5.11 --undefined-- 60.290
5.12 --undefined-- 65.622
5.13 --undefined-- 68.772
5.14 101.293 69.655
5.15 95.673 68.935
5.16 92.313 67.613
5.17 88.534 66.624
5.18 84.535 66.138
5.19 82.398 65.910
5.20 81.583 65.731
5.21 82.411 65.594
5.22 87.139 --undefined--
5.23 90.265 --undefined--
5.24 --undefined-- --undefined--
5.25 --undefined-- --undefined--
