Time Pitch Intensity
0.01 --undefined-- --undefined--
0.02 --undefined-- --undefined--
0.03 --undefined-- --undefined--
0.04 --undefined-- --undefined--
0.05 --undefined-- 71.514
0.06 --undefined-- 72.441
0.07 --undefined-- 71.033
0.08 --undefined-- 67.602
0.09 --undefined-- 62.464
0.10 101.473 57.575
0.11 97.953 55.786
0.12 94.574 54.733
0.13 93.691 55.146
0.14 --undefined-- 58.188
0.15 --undefined-- 61.167
0.16 87.384 63.075
0.17 86.496 64.259
0.18 85.746 64.600
0.19 85.171 63.548
0.20 --undefined-- 60.525
0.21 --undefined-- 55.570
0.22 --undefined-- 54.708
0.23 --undefined-- 60.695
0.24 --undefined-- 63.310
0.25 --undefined-- 63.058
0.26 --undefined-- 65.728
0.27 --undefined-- 68.869
0.28 --undefined-- 69.478
0.29 --undefined-- 67.505
0.30 --undefined-- 62.532
0.31 --undefined-- 54.634
0.32 --undefined-- 48.246
0.33 --undefined-- 48.044
0.34 --undefined-- 48.513
0.35 --undefined-- 48.373
0.36 --undefined-- 47.698
0.37 --undefined-- 47.217
0.38 --undefined-- 47.537
0.39 --undefined-- 49.022
0.40 --undefined-- 51.096
0.41 --undefined-- 51.275
0.42 --undefined-- 48.313
0.43 --undefined-- 46.026
0.44 --undefined-- 57.090
0.45 --undefined-- 64.290
0.46 --undefined-- 66.777
0.47 --undefined-- 65.384
0.48 --undefined-- 63.352
0.49 92.771 65.645
0.50 92.333 67.873
0.51 89.583 68.972
0.52 85.498 69.535
0.53 81.135 69.223
0.54 --undefined-- 67.753
0.55 --undefined-- 65.292
0.56 --undefined-- 62.946
0.57 --undefined-- 62.420
0.58 --undefined-- 60.414
0.59 --undefined-- 55.148
0.60 --undefined-- 52.524
0.61 252.906 55.456
0.62 260.603 57.638
0.63 268.448 59.011
0.64 281.706 60.251
0.65 286.000 60.516
0.66 --undefined-- 60.118
0.67 --undefined-- 61.967
0.68 --undefined-- 64.899
0.69 76.726 66.203
0.70 76.793 65.989
0.71 80.257 64.978
0.72 78.816 63.338
0.73 77.751 61.956
0.74 78.144 61.732
0.75 --undefined-- 61.373
0.76 --undefined-- 59.063
0.77 --undefined-- 54.319
0.78 --undefined-- 49.256
0.79 --undefined-- 44.652
0.80 --undefined-- 38.840
0.81 --undefined-- 34.929
0.82 --undefined-- 34.999
0.83 --undefined-- 35.732
0.84 --undefined-- 35.991
0.85 --undefined-- 35.888
0.86 --undefined-- 36.289
0.87 --undefined-- 37.311
0.88 --undefined-- 38.815
0.89 --undefined-- 40.855
0.90 --undefined-- 42.428
0.91 --undefined-- 42.947
0.92 --undefined-- 43.412
0.93 --undefined-- 43.904
0.94 --undefined-- 44.215
0.95 --undefined-- 44.817
0.96 --undefined-- 45.447
0.97 --undefined-- 50.534
0.98 --undefined-- 57.005
0.99 --undefined-- 59.696
1.00 --undefined-- 58.617
1.01 --undefined-- 55.533
1.02 --undefined-- 53.256
1.03 --undefined-- 51.230
1.04 --undefined-- 49.397
1.05 --undefined-- 47.959
1.06 --undefined-- 46.632
1.07 --undefined-- 46.256
1.08 --undefined-- 45.949
1.09 --undefined-- 45.541
1.10 --undefined-- 46.318
1.11 --undefined-- 46.650
1.12 --undefined-- 45.397
1.13 --undefined-- 42.874
1.14 --undefined-- 40.385
1.15 --undefined-- 39.656
1.16 --undefined-- 43.770
1.17 --undefined-- 53.554
1.18 --undefined-- 59.442
1.19 --undefined-- 61.076
1.20 --undefined-- 62.397
1.21 --undefined-- 67.198
1.22 126.042 70.286
1.23 125.335 70.649
1.24 125.148 68.229
1.25 129.167 63.681
1.26 133.468 60.854
1.27 133.957 60.733
1.28 134.746 60.777
1.29 136.039 60.788
1.30 137.052 60.715
1.31 138.062 60.694
1.32 138.211 60.884
1.33 137.477 61.833
1.34 136.060 63.063
1.35 134.662 62.553
1.36 131.773 60.164
1.37 124.275 58.007
1.38 117.394 60.371
1.39 --undefined-- 66.739
1.40 --undefined-- 70.619
1.41 --undefined-- 71.947
1.42 --undefined-- 72.484
1.43 93.951 72.880
1.44 90.161 72.330
1.45 87.499 71.497
1.46 83.733 70.705
1.47 80.155 69.507
1.48 --undefined-- 68.406
1.49 78.312 67.735
1.50 77.662 67.525
1.51 79.073 68.519
1.52 79.777 69.651
1.53 79.815 69.905
1.54 80.027 69.671
1.55 81.969 69.329
1.56 81.711 68.943
1.57 81.415 68.635
1.58 82.414 68.443
1.59 82.661 68.503
1.60 82.887 67.771
1.61 82.840 66.262
1.62 83.082 64.025
1.63 --undefined-- 60.295
1.64 --undefined-- 54.472
1.65 --undefined-- 46.357
1.66 --undefined-- 39.578
1.67 --undefined-- 38.343
1.68 --undefined-- 40.601
1.69 --undefined-- 50.927
1.70 --undefined-- 58.086
1.71 --undefined-- 62.851
1.72 --undefined-- 66.497
1.73 --undefined-- 68.551
1.74 98.976 69.309
1.75 95.551 69.340
1.76 93.401 68.895
1.77 92.275 68.202
1.78 91.325 67.354
1.79 91.123 66.502
1.80 91.390 65.622
1.81 91.923 64.634
1.82 91.899 63.677
1.83 91.417 62.698
1.84 91.678 62.141
1.85 92.446 62.064
1.86 93.545 62.203
1.87 93.547 62.180
1.88 93.537 61.834
1.89 --undefined-- 61.333
1.90 --undefined-- 59.742
1.91 --undefined-- 56.872
1.92 --undefined-- 56.478
1.93 --undefined-- 59.221
1.94 --undefined-- 61.950
1.95 --undefined-- 63.118
1.96 --undefined-- 63.018
1.97 --undefined-- 63.476
1.98 --undefined-- 64.122
1.99 --undefined-- 63.473
2.00 --undefined-- 62.799
2.01 --undefined-- 63.770
2.02 --undefined-- 65.337
2.03 --undefined-- 66.097
2.04 99.449 66.122
2.05 99.220 66.211
2.06 98.799 66.859
2.07 98.041 67.298
2.08 94.665 67.267
2.09 94.799 67.354
2.10 92.008 67.606
2.11 89.268 67.633
2.12 87.834 67.151
2.13 87.514 66.464
2.14 86.587 66.581
2.15 86.367 67.177
2.16 86.132 67.082
2.17 85.397 66.559
2.18 86.117 66.303
2.19 86.769 66.147
2.20 86.866 66.097
2.21 86.405 66.477
2.22 86.330 66.750
2.23 84.817 66.948
2.24 84.578 67.309
2.25 84.744 66.834
2.26 84.655 65.335
2.27 --undefined-- 63.496
2.28 --undefined-- 61.616
2.29 --undefined-- 59.589
2.30 --undefined-- 56.681
2.31 --undefined-- 53.789
2.32 --undefined-- 52.414
2.33 --undefined-- 51.970
2.34 --undefined-- 51.125
2.35 --undefined-- 49.438
2.36 --undefined-- 48.763
2.37 --undefined-- 49.531
2.38 --undefined-- 49.945
2.39 --undefined-- 50.516
2.40 --undefined-- 51.399
2.41 --undefined-- 51.506
2.42 --undefined-- 50.791
2.43 --undefined-- 50.077
2.44 --undefined-- 49.540
2.45 --undefined-- 51.143
2.46 --undefined-- 56.481
2.47 --undefined-- 60.303
2.48 87.764 62.260
2.49 87.951 63.526
2.50 88.222 64.208
2.51 89.185 64.328
2.52 89.507 63.792
2.53 89.492 62.222
2.54 87.123 59.983
2.55 85.463 57.784
2.56 84.712 55.814
2.57 84.056 54.072
2.58 83.728 51.993
2.59 --undefined-- 48.991
2.60 --undefined-- 46.682
2.61 --undefined-- 46.402
2.62 --undefined-- 47.172
2.63 90.988 48.371
2.64 91.380 49.596
2.65 94.532 51.480
2.66 95.014 53.226
2.67 96.203 53.265
2.68 89.220 51.900
2.69 93.068 51.066
2.70 93.047 51.389
2.71 --undefined-- 56.256
2.72 --undefined-- 61.767
2.73 100.589 64.796
2.74 100.377 66.140
2.75 106.194 66.638
2.76 109.996 66.944
2.77 109.553 66.791
2.78 106.334 65.175
2.79 106.475 61.631
2.80 --undefined-- 56.098
2.81 --undefined-- 50.596
2.82 --undefined-- 51.358
2.83 --undefined-- 56.612
2.84 --undefined-- 61.712
2.85 89.788 64.543
2.86 89.165 65.614
2.87 88.400 65.964
2.88 86.253 66.112
2.89 85.687 66.023
2.90 85.274 65.567
2.91 84.457 64.980
2.92 84.238 64.664
2.93 83.997 64.530
2.94 83.849 64.297
2.95 83.829 64.084
2.96 84.044 64.055
2.97 85.114 64.527
2.98 83.683 65.269
2.99 82.267 65.611
3.00 81.925 65.737
3.01 81.652 66.064
3.02 79.604 65.820
3.03 79.610 64.621
3.04 80.302 63.169
3.05 79.940 62.783
3.06 79.876 63.311
3.07 81.207 63.244
3.08 80.685 62.538
3.09 81.016 61.027
3.10 82.748 58.027
3.11 84.850 55.006
3.12 --undefined-- 52.693
3.13 --undefined-- 51.587
3.14 --undefined-- 52.044
3.15 --undefined-- 50.385
3.16 --undefined-- 45.259
3.17 --undefined-- 38.097
3.18 --undefined-- 35.348
3.19 --undefined-- 36.460
3.20 --undefined-- 36.770
3.21 --undefined-- 36.043
3.22 --undefined-- 38.515
3.23 --undefined-- 50.367
3.24 --undefined-- 59.207
3.25 --undefined-- 65.714
3.26 --undefined-- 69.919
3.27 --undefined-- 71.171
3.28 --undefined-- 69.205
3.29 --undefined-- 64.070
3.30 --undefined-- 56.208
3.31 --undefined-- 46.620
3.32 --undefined-- 40.707
3.33 --undefined-- 39.580
3.34 --undefined-- 38.522
3.35 --undefined-- 36.992
3.36 --undefined-- 35.956
3.37 --undefined-- 41.312
3.38 --undefined-- 52.260
3.39 --undefined-- 60.344
3.40 --undefined-- 67.021
3.41 --undefined-- 71.686
3.42 --undefined-- 73.612
3.43 90.327 72.971
3.44 91.154 70.711
3.45 90.726 67.801
3.46 91.527 64.044
3.47 95.139 59.404
3.48 99.659 55.663
3.49 104.015 54.210
3.50 105.076 54.138
3.51 105.251 54.326
3.52 104.632 54.261
3.53 100.605 55.182
3.54 97.318 56.974
3.55 97.290 59.734
3.56 98.270 63.468
3.57 98.230 66.176
3.58 95.412 66.720
3.59 --undefined-- 64.718
3.60 --undefined-- 59.895
3.61 --undefined-- 52.196
3.62 --undefined-- 45.090
3.63 --undefined-- 44.974
3.64 --undefined-- 49.116
3.65 --undefined-- 53.673
3.66 --undefined-- 54.994
3.67 --undefined-- 56.885
3.68 --undefined-- 65.084
3.69 --undefined-- 71.175
3.70 118.557 74.190
3.71 113.349 74.823
3.72 112.433 73.897
3.73 109.191 72.211
3.74 108.288 70.155
3.75 106.862 67.522
3.76 106.332 64.217
3.77 105.809 61.396
3.78 104.363 59.606
3.79 103.163 57.773
3.80 103.558 55.859
3.81 103.543 54.419
3.82 103.902 52.754
3.83 --undefined-- 50.042
3.84 --undefined-- 45.793
3.85 --undefined-- 40.615
3.86 --undefined-- 37.868
3.87 --undefined-- 41.476
3.88 --undefined-- 48.727
3.89 --undefined-- 53.161
3.90 --undefined-- 56.287
3.91 --undefined-- 62.059
3.92 --undefined-- 66.347
3.93 --undefined-- 67.947
3.94 95.679 67.780
3.95 91.933 67.663
3.96 90.574 68.311
3.97 87.627 68.223
3.98 84.116 66.968
3.99 82.303 65.133
4.00 83.717 63.186
4.01 83.958 60.695
4.02 --undefined-- 57.119
4.03 --undefined-- 53.347
4.04 --undefined-- 51.781
4.05 --undefined-- 52.497
4.06 --undefined-- 52.144
4.07 --undefined-- 51.118
4.08 --undefined-- 51.218
4.09 --undefined-- 49.954
4.10 --undefined-- 48.264
4.11 --undefined-- 49.678
4.12 --undefined-- 55.286
4.13 --undefined-- 59.899
4.14 --undefined-- 63.065
4.15 --undefined-- 64.747
4.16 --undefined-- 65.390
4.17 --undefined-- 65.704
4.18 74.874 65.623
4.19 75.032 64.830
4.20 75.421 63.585
4.21 76.191 62.599
4.22 --undefined-- 61.807
4.23 --undefined-- 61.064
4.24 --undefined-- 61.229
4.25 --undefined-- 60.745
4.26 --undefined-- 58.453
4.27 --undefined-- 54.177
4.28 --undefined-- 46.969
4.29 --undefined-- 37.903
4.30 --undefined-- 33.879
4.31 --undefined-- 33.290
4.32 --undefined-- 36.493
4.33 --undefined-- 46.639
4.34 --undefined-- 54.492
4.35 --undefined-- 58.250
4.36 --undefined-- 60.090
4.37 --undefined-- 62.015
4.38 --undefined-- 62.828
4.39 85.455 62.557
4.40 84.584 62.136
4.41 83.011 61.572
4.42 82.218 61.140
4.43 81.027 60.883
4.44 80.796 60.443
4.45 80.539 60.104
4.46 80.637 60.253
4.47 80.386 60.612
4.48 80.554 60.925
4.49 79.014 60.963
4.50 78.122 60.603
4.51 77.520 59.980
4.52 77.226 59.274
4.53 76.769 58.564
4.54 75.901 57.410
4.55 --undefined-- 55.074
4.56 --undefined-- 51.317
4.57 --undefined-- 46.962
4.58 --undefined-- 42.057
4.59 --undefined-- 36.454
4.60 --undefined-- 33.917
4.61 --undefined-- 39.866
4.62 --undefined-- 45.931
4.63 --undefined-- 48.436
4.64 --undefined-- 48.353
4.65 --undefined-- 49.784
4.66 --undefined-- 53.194
4.67 --undefined-- 55.843
4.68 --undefined-- 59.612
4.69 --undefined-- 65.694
4.70 --undefined-- 71.070
4.71 105.598 74.229
4.72 105.382 75.800
4.73 99.048 75.858
4.74 95.222 74.222
4.75 95.454 71.355
4.76 92.709 67.032
4.77 92.846 60.952
4.78 96.199 55.637
4.79 98.994 54.080
4.80 99.611 53.948
4.81 99.887 53.989
4.82 100.499 54.306
4.83 101.468 54.614
4.84 100.954 54.745
4.85 100.088 54.784
4.86 99.252 55.060
4.87 98.831 55.346
4.88 98.912 55.722
4.89 101.406 56.260
4.90 101.501 56.426
4.91 102.066 56.352
4.92 103.440 56.176
4.93 --undefined-- 55.489
4.94 --undefined-- 54.459
4.95 --undefined-- 55.787
4.96 --undefined-- 59.209
4.97 --undefined-- 62.818
4.98 --undefined-- 65.715
4.99 --undefined-- 66.964
5.00 --undefined-- 66.738
5.01 --undefined-- 65.910
5.02 --undefined-- 64.909
5.03 --undefined-- 63.322
5.04 --undefined-- 61.015
5.05 --undefined-- 58.259
5.06 --undefined-- 57.206
5.07 --undefined-- 59.626
5.08 98.124 61.620
5.09 95.494 62.443
5.10 92.021 62.488
5.11 89.087 61.857
5.12 86.909 60.692
5.13 85.482 59.332
5.14 84.961 58.491
5.15 85.771 58.801
5.16 87.860 60.315
5.17 88.412 61.635
5.18 --undefined-- 61.127
5.19 --undefined-- 58.000
5.20 --undefined-- 52.978
5.21 --undefined-- 56.545
5.22 --undefined-- 63.960
5.23 102.891 68.842
5.24 102.877 71.418
5.25 102.881 72.057
5.26 105.293 71.391
5.27 105.874 70.589
5.28 109.227 70.309
5.29 108.950 69.718
5.30 108.097 68.255
5.31 107.662 65.201
5.32 --undefined-- 59.560
5.33 --undefined-- 50.876
5.34 --undefined-- 49.267
5.35 --undefined-- 54.266
5.36 --undefined-- 59.645
5.37 104.384 64.379
5.38 105.117 67.264
5.39 104.552 68.447
5.40 103.797 68.365
5.41 103.369 --undefined--
5.42 102.560 --undefined--
5.43 --undefined-- --undefined--
5.44 --undefined-- --undefined--
