Time Pitch Intensity
0.01 --undefined-- --undefined--
0.02 138.498 --undefined--
0.03 133.843 --undefined--
0.04 129.180 --undefined--
0.05 123.116 78.470
0.06 118.694 78.173
0.07 115.256 77.755
0.08 114.867 77.569
0.09 115.583 77.704
0.10 116.037 77.913
0.11 116.929 78.038
0.12 118.426 77.893
0.13 117.942 77.480
0.14 119.781 77.300
0.15 121.070 77.440
0.16 120.389 77.546
0.17 118.487 77.560
0.18 118.621 77.669
0.19 117.836 77.951
0.20 111.452 78.020
0.21 107.457 77.649
0.22 103.724 76.949
0.23 101.699 76.116
0.24 103.441 75.707
0.25 103.528 75.813
0.26 101.986 76.007
0.27 100.443 76.092
0.28 99.299 76.035
0.29 98.037 75.622
0.30 97.586 74.327
0.31 99.486 71.470
0.32 101.470 66.386
0.33 101.387 59.504
0.34 99.912 53.954
0.35 --undefined-- 51.365
0.36 --undefined-- 50.338
0.37 --undefined-- 53.585
0.38 --undefined-- 62.764
0.39 --undefined-- 70.124
0.40 --undefined-- 73.706
0.41 --undefined-- 74.249
0.42 94.482 72.769
0.43 87.964 69.959
0.44 --undefined-- 65.282
0.45 --undefined-- 58.422
0.46 --undefined-- 56.493
0.47 152.086 63.684
0.48 149.808 70.433
0.49 115.848 74.550
0.50 107.230 76.296
0.51 125.280 76.546
0.52 124.898 76.611
0.53 141.592 77.467
0.54 146.445 78.555
0.55 151.446 79.417
0.56 156.879 80.004
0.57 158.992 80.360
0.58 159.493 80.566
0.59 162.137 80.731
0.60 159.333 80.640
0.61 152.280 80.069
0.62 145.778 79.277
0.63 140.272 78.372
0.64 133.407 77.445
0.65 129.368 77.096
0.66 124.560 77.193
0.67 123.598 77.019
0.68 124.479 76.667
0.69 127.168 76.442
0.70 129.100 76.249
0.71 131.549 76.190
0.72 134.889 76.446
0.73 137.148 76.793
0.74 139.254 76.929
0.75 141.487 76.689
0.76 143.184 76.251
0.77 145.677 75.980
0.78 146.992 75.563
0.79 145.764 74.146
0.80 142.916 71.829
0.81 149.015 72.768
0.82 148.758 76.288
0.83 146.619 78.153
0.84 144.045 78.362
0.85 133.637 77.999
0.86 130.161 77.774
0.87 127.626 77.420
0.88 125.382 76.258
0.89 117.771 73.508
0.90 113.782 68.803
0.91 --undefined-- 62.751
0.92 --undefined-- 56.564
0.93 --undefined-- 52.718
0.94 --undefined-- 55.724
0.95 --undefined-- 60.072
0.96 --undefined-- 65.903
0.97 --undefined-- 72.197
0.98 --undefined-- 75.604
0.99 103.509 76.477
1.00 104.792 76.428
1.01 107.366 76.564
1.02 107.921 76.763
1.03 110.519 76.949
1.04 112.001 77.344
1.05 115.084 77.828
1.06 119.232 78.130
1.07 124.603 78.130
1.08 129.238 77.823
1.09 136.063 77.565
1.10 141.869 77.717
1.11 144.293 77.894
1.12 145.278 77.591
1.13 144.395 76.889
1.14 141.256 76.354
1.15 136.804 76.286
1.16 128.172 76.593
1.17 121.511 77.081
1.18 115.023 77.378
1.19 109.056 77.363
1.20 100.801 77.141
1.21 97.567 76.747
1.22 96.815 76.314
1.23 98.098 76.379
1.24 99.523 76.735
1.25 100.445 76.704
1.26 102.655 75.781
1.27 100.366 73.251
1.28 98.699 68.648
1.29 99.875 62.599
1.30 99.754 57.414
1.31 --undefined-- 54.532
1.32 --undefined-- 53.730
1.33 --undefined-- 53.408
1.34 --undefined-- 55.051
1.35 --undefined-- 65.296
1.36 --undefined-- 73.232
1.37 155.519 77.510
1.38 149.948 79.241
1.39 149.685 79.563
1.40 151.050 79.125
1.41 146.785 78.359
1.42 142.482 77.959
1.43 138.352 77.858
1.44 131.772 77.793
1.45 125.932 78.141
1.46 120.855 78.731
1.47 116.190 79.056
1.48 113.351 78.916
1.49 111.638 78.282
1.50 111.883 77.539
1.51 112.603 77.297
1.52 115.254 77.535
1.53 119.052 77.880
1.54 121.856 78.180
1.55 122.948 78.419
1.56 126.146 78.820
1.57 129.667 79.361
1.58 130.520 79.511
1.59 131.019 79.348
1.60 131.986 79.313
1.61 133.705 79.295
1.62 135.026 78.917
1.63 134.806 78.026
1.64 132.638 76.533
1.65 133.905 74.024
1.66 134.052 69.566
1.67 133.103 62.247
1.68 132.797 54.957
1.69 132.724 54.293
1.70 132.861 54.539
1.71 --undefined-- 55.640
1.72 --undefined-- 61.860
1.73 --undefined-- 70.094
1.74 139.678 75.072
1.75 127.680 77.182
1.76 121.328 77.604
1.77 115.439 77.581
1.78 111.244 77.618
1.79 110.968 77.770
1.80 111.091 77.895
1.81 109.677 77.541
1.82 107.907 76.200
1.83 106.697 73.470
1.84 109.108 69.269
1.85 116.942 63.642
1.86 --undefined-- 57.102
1.87 --undefined-- 55.778
1.88 --undefined-- 59.445
1.89 --undefined-- 63.123
1.90 --undefined-- 70.342
1.91 --undefined-- 75.963
1.92 138.175 78.395
1.93 130.709 78.672
1.94 125.414 78.404
1.95 122.879 78.484
1.96 122.678 78.668
1.97 121.994 78.631
1.98 121.002 78.239
1.99 120.200 77.209
2.00 116.406 74.978
2.01 111.545 71.189
2.02 116.618 66.428
2.03 115.044 61.215
2.04 115.737 58.042
2.05 --undefined-- 59.934
2.06 --undefined-- 65.159
2.07 --undefined-- 72.641
2.08 160.105 77.061
2.09 155.720 78.309
2.10 150.485 77.647
2.11 144.776 76.785
2.12 143.706 76.461
2.13 144.109 76.443
2.14 146.283 76.607
2.15 148.233 76.837
2.16 148.313 76.833
2.17 147.933 76.055
2.18 145.927 73.764
2.19 147.800 69.479
2.20 162.263 63.249
2.21 --undefined-- 55.314
2.22 --undefined-- 57.097
2.23 --undefined-- 67.773
2.24 --undefined-- 74.279
2.25 134.668 77.317
2.26 119.459 78.090
2.27 113.868 77.840
2.28 108.938 77.356
2.29 105.891 76.725
2.30 102.641 75.268
2.31 97.199 72.198
2.32 87.705 67.353
2.33 --undefined-- 61.323
2.34 --undefined-- 54.462
2.35 --undefined-- 49.252
2.36 --undefined-- 48.465
2.37 --undefined-- 51.824
2.38 --undefined-- 59.725
2.39 --undefined-- 67.966
2.40 --undefined-- 74.698
2.41 155.211 78.135
2.42 146.054 78.608
2.43 137.280 76.941
2.44 131.250 73.561
2.45 115.356 68.205
2.46 --undefined-- 60.766
2.47 --undefined-- 53.487
2.48 --undefined-- 51.017
2.49 --undefined-- 49.984
2.50 --undefined-- 49.012
2.51 --undefined-- 47.587
2.52 --undefined-- 45.544
2.53 --undefined-- 42.742
2.54 --undefined-- 40.376
2.55 --undefined-- 42.353
2.56 --undefined-- 44.410
2.57 --undefined-- 44.194
2.58 --undefined-- 43.174
2.59 --undefined-- 44.538
2.60 --undefined-- 45.670
2.61 --undefined-- 44.245
2.62 --undefined-- 42.286
2.63 --undefined-- 42.368
2.64 --undefined-- 42.522
2.65 --undefined-- 43.963
2.66 --undefined-- 57.892
2.67 --undefined-- 68.747
2.68 --undefined-- 74.706
2.69 --undefined-- 77.016
2.70 122.190 77.038
2.71 111.070 76.477
2.72 110.637 76.417
2.73 111.558 76.986
2.74 110.230 77.670
2.75 107.871 78.040
2.76 106.199 78.047
2.77 105.162 77.873
2.78 104.691 77.786
2.79 106.070 77.840
2.80 106.836 77.835
2.81 107.010 77.683
2.82 107.032 77.568
2.83 107.922 77.551
2.84 110.087 77.607
2.85 110.552 77.683
2.86 110.821 77.520
2.87 110.258 76.578
2.88 105.800 74.240
2.89 100.955 70.196
2.90 107.407 66.821
2.91 148.124 72.188
2.92 155.905 77.186
2.93 130.543 79.236
2.94 130.491 79.518
2.95 122.903 79.463
2.96 123.259 79.400
2.97 124.145 78.966
2.98 124.459 78.269
2.99 123.771 77.716
3.00 112.615 77.014
3.01 112.758 75.184
3.02 --undefined-- 71.238
3.03 --undefined-- 64.702
3.04 --undefined-- 57.123
3.05 --undefined-- 53.365
3.06 --undefined-- 51.899
3.07 --undefined-- 52.192
3.08 --undefined-- 53.454
3.09 --undefined-- 55.160
3.10 --undefined-- 56.816
3.11 --undefined-- 57.036
3.12 --undefined-- 56.132
3.13 --undefined-- 55.682
3.14 --undefined-- 56.035
3.15 --undefined-- 55.866
3.16 --undefined-- 55.127
3.17 --undefined-- 54.497
3.18 --undefined-- 54.069
3.19 --undefined-- 53.701
3.20 --undefined-- 53.703
3.21 --undefined-- 54.031
3.22 --undefined-- 54.334
3.23 --undefined-- 54.498
3.24 --undefined-- 54.567
3.25 --undefined-- 54.715
3.26 --undefined-- 55.140
3.27 --undefined-- 55.141
3.28 --undefined-- 53.174
3.29 --undefined-- 49.145
3.30 --undefined-- 45.820
3.31 --undefined-- 44.602
3.32 --undefined-- 45.093
3.33 --undefined-- 45.717
3.34 --undefined-- 45.424
3.35 --undefined-- 50.749
3.36 --undefined-- 62.001
3.37 228.884 69.313
3.38 215.385 73.079
3.39 209.448 74.343
3.40 198.319 74.649
3.41 207.131 76.432
3.42 224.326 78.932
3.43 222.930 79.931
3.44 215.297 79.613
3.45 208.052 78.485
3.46 197.412 76.240
3.47 183.816 73.568
3.48 178.724 73.211
3.49 177.348 75.520
3.50 179.269 77.817
3.51 180.710 78.814
3.52 177.790 78.856
3.53 174.228 78.885
3.54 173.217 78.991
3.55 172.189 78.916
3.56 172.901 78.560
3.57 178.070 77.766
3.58 181.404 77.059
3.59 183.715 77.237
3.60 186.512 77.947
3.61 186.138 78.426
3.62 186.291 78.552
3.63 187.019 78.326
3.64 185.691 77.473
3.65 180.357 75.389
3.66 164.491 71.115
3.67 --undefined-- 64.084
3.68 --undefined-- 57.552
3.69 --undefined-- 59.014
3.70 --undefined-- 63.397
3.71 --undefined-- 70.514
3.72 165.091 75.714
3.73 152.034 77.846
3.74 140.125 77.985
3.75 129.764 77.595
3.76 118.782 77.216
3.77 114.439 77.144
3.78 113.832 77.624
3.79 114.942 78.259
3.80 117.999 78.759
3.81 122.143 79.014
3.82 125.898 78.934
3.83 129.602 78.582
3.84 128.369 78.167
3.85 129.500 77.836
3.86 130.684 77.409
3.87 129.680 76.224
3.88 125.198 73.669
3.89 124.587 69.604
3.90 129.016 64.242
3.91 128.388 58.634
3.92 123.088 55.434
3.93 --undefined-- 53.917
3.94 --undefined-- 52.471
3.95 --undefined-- 51.454
3.96 --undefined-- 51.186
3.97 --undefined-- 51.437
3.98 --undefined-- 56.560
3.99 --undefined-- 65.924
4.00 --undefined-- 72.122
4.01 119.539 75.482
4.02 117.907 77.124
4.03 117.799 77.705
4.04 117.453 77.360
4.05 116.537 75.756
4.06 106.275 72.603
4.07 104.310 68.534
4.08 107.437 63.845
4.09 118.049 59.185
4.10 --undefined-- 58.471
4.11 --undefined-- 60.917
4.12 --undefined-- 67.535
4.13 --undefined-- 72.682
4.14 129.640 75.487
4.15 129.081 76.603
4.16 126.221 76.894
4.17 126.786 76.923
4.18 128.979 76.973
4.19 133.339 77.321
4.20 139.531 77.903
4.21 143.708 78.237
4.22 149.164 78.263
4.23 156.454 78.259
4.24 162.292 78.364
4.25 165.634 78.350
4.26 167.061 77.791
4.27 168.934 76.797
4.28 167.773 75.864
4.29 165.786 75.020
4.30 164.458 74.383
4.31 163.467 74.135
4.32 161.686 73.879
4.33 160.221 72.947
4.34 158.348 71.230
4.35 157.575 68.721
4.36 157.825 65.218
4.37 153.000 60.613
4.38 161.614 55.997
4.39 --undefined-- 55.367
4.40 --undefined-- 61.690
4.41 --undefined-- 70.480
4.42 --undefined-- 75.722
4.43 171.000 77.714
4.44 165.986 77.774
4.45 161.879 77.656
4.46 160.227 77.636
4.47 159.590 77.053
4.48 158.156 76.071
4.49 155.539 75.975
4.50 152.984 76.402
4.51 151.242 76.698
4.52 145.370 76.964
4.53 138.466 76.975
4.54 130.637 76.970
4.55 125.973 77.240
4.56 121.157 77.365
4.57 119.429 76.556
4.58 120.711 73.983
4.59 116.381 69.145
4.60 98.223 63.073
4.61 100.950 60.685
4.62 --undefined-- 63.033
4.63 --undefined-- 70.592
4.64 --undefined-- 75.672
4.65 135.104 77.604
4.66 129.545 77.832
4.67 126.637 77.735
4.68 126.745 77.627
4.69 126.114 77.115
4.70 123.635 75.717
4.71 121.922 73.007
4.72 122.602 68.517
4.73 121.297 62.080
4.74 121.498 57.150
4.75 121.033 57.175
4.76 --undefined-- 64.247
4.77 --undefined-- 72.086
4.78 161.678 76.253
4.79 152.997 77.331
4.80 149.004 76.247
4.81 143.103 73.687
4.82 139.419 71.827
4.83 141.052 72.840
4.84 144.228 74.758
4.85 147.069 76.363
4.86 148.096 77.177
4.87 147.282 77.162
4.88 146.064 76.240
4.89 144.352 74.057
4.90 140.991 71.714
4.91 152.165 73.602
4.92 150.511 76.399
4.93 147.109 77.514
4.94 143.352 77.431
4.95 141.304 76.904
4.96 140.238 75.989
4.97 139.286 74.228
4.98 141.211 70.645
4.99 --undefined-- 64.168
5.00 --undefined-- 54.789
5.01 --undefined-- 50.342
5.02 --undefined-- 54.864
5.03 --undefined-- 62.628
5.04 --undefined-- 67.236
5.05 --undefined-- 68.918
5.06 --undefined-- 69.320
5.07 --undefined-- 69.153
5.08 --undefined-- 68.672
5.09 --undefined-- 68.552
5.10 135.558 70.228
5.11 124.545 72.274
5.12 116.429 73.465
5.13 115.000 74.574
5.14 113.338 75.743
5.15 111.472 76.401
5.16 110.097 76.603
5.17 109.990 76.904
5.18 111.464 77.363
5.19 111.548 77.573
5.20 114.685 77.581
5.21 114.440 --undefined--
5.22 112.526 --undefined--
5.23 --undefined-- --undefined--
5.24 --undefined-- --undefined--
