Time Pitch Intensity
0.01 --undefined-- --undefined--
0.02 175.932 --undefined--
0.03 176.605 --undefined--
0.04 177.978 --undefined--
0.05 180.041 77.173
0.06 180.775 76.980
0.07 176.423 75.898
0.08 173.188 74.015
0.09 176.018 71.986
0.10 170.579 69.515
0.11 166.341 66.415
0.12 166.150 63.920
0.13 177.663 67.848
0.14 186.876 73.614
0.15 185.478 76.711
0.16 183.089 77.489
0.17 179.088 77.193
0.18 174.564 77.268
0.19 168.501 77.894
0.20 162.806 78.754
0.21 157.969 79.091
0.22 151.120 78.420
0.23 142.746 77.343
0.24 138.340 76.652
0.25 135.275 76.005
0.26 132.486 75.250
0.27 129.997 74.984
0.28 128.412 74.464
0.29 123.263 72.516
0.30 118.959 69.163
0.31 121.645 65.644
0.32 124.189 62.700
0.33 122.682 59.835
0.34 123.751 56.850
0.35 --undefined-- 53.593
0.36 --undefined-- 49.956
0.37 --undefined-- 46.044
0.38 --undefined-- 42.914
0.39 --undefined-- 41.694
0.40 --undefined-- 40.789
0.41 --undefined-- 38.995
0.42 --undefined-- 40.605
0.43 --undefined-- 49.801
0.44 --undefined-- 60.146
0.45 --undefined-- 67.175
0.46 --undefined-- 72.256
0.47 197.670 75.598
0.48 187.361 76.638
0.49 181.991 76.163
0.50 178.236 75.371
0.51 172.559 74.244
0.52 183.324 73.575
0.53 189.968 74.435
0.54 194.836 75.836
0.55 196.817 77.141
0.56 196.226 78.152
0.57 195.061 78.822
0.58 193.563 79.237
0.59 191.427 79.505
0.60 190.225 79.684
0.61 188.532 79.586
0.62 184.258 78.774
0.63 176.857 76.629
0.64 167.277 72.655
0.65 148.980 66.974
0.66 --undefined-- 61.549
0.67 --undefined-- 59.250
0.68 --undefined-- 59.814
0.69 --undefined-- 61.837
0.70 --undefined-- 66.086
0.71 --undefined-- 72.142
0.72 --undefined-- 76.081
0.73 148.045 77.807
0.74 137.045 77.951
0.75 130.597 76.733
0.76 123.792 74.449
0.77 122.596 71.548
0.78 124.102 68.462
0.79 128.510 67.732
0.80 139.022 72.082
0.81 143.982 76.124
0.82 143.519 77.794
0.83 137.219 77.830
0.84 135.148 77.362
0.85 134.370 76.601
0.86 129.101 75.592
0.87 133.742 74.522
0.88 130.912 73.012
0.89 119.821 70.619
0.90 113.962 68.477
0.91 113.166 67.443
0.92 --undefined-- 67.176
0.93 --undefined-- 67.619
0.94 --undefined-- 68.127
0.95 --undefined-- 68.793
0.96 --undefined-- 69.461
0.97 --undefined-- 70.188
0.98 --undefined-- 71.071
0.99 --undefined-- 71.227
1.00 --undefined-- 70.758
1.01 --undefined-- 70.771
1.02 --undefined-- 70.965
1.03 --undefined-- 71.633
1.04 --undefined-- 72.770
1.05 --undefined-- 73.042
1.06 --undefined-- 72.591
1.07 --undefined-- 72.059
1.08 --undefined-- 70.974
1.09 --undefined-- 69.991
1.10 --undefined-- 69.926
1.11 --undefined-- 71.180
1.12 113.382 72.478
1.13 113.244 72.724
1.14 109.814 72.691
1.15 106.279 72.723
1.16 103.917 72.287
1.17 102.757 71.243
1.18 101.527 70.147
1.19 100.072 69.521
1.20 98.953 69.378
1.21 98.675 69.769
1.22 98.967 70.523
1.23 99.330 71.208
1.24 99.708 71.693
1.25 99.714 72.021
1.26 99.696 72.215
1.27 99.529 72.299
1.28 98.886 72.319
1.29 98.552 72.394
1.30 99.206 72.665
1.31 100.170 72.994
1.32 101.161 73.228
1.33 102.642 73.358
1.34 104.092 73.453
1.35 105.738 73.618
1.36 107.518 73.632
1.37 108.490 72.868
1.38 107.394 70.850
1.39 105.905 67.608
1.40 106.125 63.737
1.41 105.896 59.932
1.42 105.200 57.521
1.43 --undefined-- 64.235
1.44 --undefined-- 71.256
1.45 --undefined-- 74.843
1.46 124.081 75.773
1.47 117.528 75.199
1.48 113.804 74.045
1.49 110.768 72.703
1.50 109.357 71.507
1.51 110.647 70.739
1.52 111.823 70.552
1.53 112.329 70.684
1.54 114.636 71.083
1.55 115.377 71.684
1.56 114.577 72.187
1.57 114.592 72.657
1.58 115.770 73.256
1.59 119.267 73.989
1.60 122.411 74.757
1.61 125.966 75.486
1.62 129.897 76.015
1.63 136.520 76.476
1.64 138.531 76.895
1.65 141.332 77.002
1.66 143.553 76.652
1.67 148.939 76.819
1.68 150.240 77.825
1.69 151.325 78.388
1.70 151.976 78.394
1.71 151.812 78.210
1.72 151.168 77.960
1.73 149.958 77.690
1.74 148.161 77.272
1.75 143.646 76.475
1.76 136.568 75.068
1.77 134.309 72.737
1.78 --undefined-- 69.553
1.79 --undefined-- 66.851
1.80 --undefined-- 65.384
1.81 --undefined-- 65.345
1.82 125.223 67.007
1.83 126.656 70.063
1.84 127.677 72.558
1.85 123.136 73.488
1.86 118.254 73.263
1.87 115.698 72.922
1.88 112.968 72.967
1.89 111.502 73.262
1.90 112.735 73.857
1.91 113.376 74.710
1.92 113.301 75.391
1.93 113.912 75.620
1.94 114.741 75.562
1.95 115.396 75.603
1.96 115.417 75.608
1.97 114.332 75.430
1.98 108.933 75.502
1.99 111.500 76.018
2.00 110.540 76.436
2.01 110.032 76.668
2.02 110.320 76.849
2.03 110.910 76.926
2.04 111.312 76.844
2.05 112.961 76.618
2.06 116.192 76.103
2.07 117.622 75.119
2.08 116.263 73.676
2.09 111.426 71.882
2.10 105.826 70.155
2.11 101.372 69.125
2.12 101.318 69.248
2.13 105.651 70.388
2.14 110.155 71.962
2.15 112.368 73.380
2.16 112.599 74.252
2.17 113.417 74.974
2.18 116.044 75.890
2.19 113.950 76.448
2.20 111.124 76.597
2.21 109.930 76.602
2.22 109.600 76.559
2.23 109.348 76.387
2.24 108.379 76.060
2.25 106.319 75.728
2.26 104.258 75.333
2.27 102.720 74.672
2.28 100.842 73.588
2.29 96.323 72.014
2.30 91.316 70.435
2.31 97.318 69.906
2.32 98.709 70.035
2.33 100.400 70.467
2.34 101.667 71.093
2.35 102.277 71.544
2.36 102.790 72.030
2.37 102.712 72.586
2.38 103.084 72.965
2.39 103.925 73.152
2.40 104.685 73.180
2.41 105.091 72.904
2.42 105.817 71.935
2.43 106.833 69.864
2.44 110.642 66.726
2.45 112.114 62.940
2.46 107.960 58.705
2.47 104.544 54.465
2.48 --undefined-- 52.059
2.49 --undefined-- 60.283
2.50 --undefined-- 69.717
2.51 --undefined-- 75.043
2.52 167.519 77.326
2.53 163.822 77.970
2.54 160.607 78.112
2.55 159.348 77.948
2.56 157.858 77.313
2.57 157.614 76.830
2.58 159.504 76.970
2.59 160.855 77.198
2.60 161.189 77.055
2.61 161.225 76.671
2.62 162.367 76.528
2.63 163.506 76.605
2.64 164.245 76.540
2.65 164.255 76.211
2.66 163.307 75.345
2.67 161.069 73.233
2.68 156.356 69.363
2.69 150.319 64.789
2.70 157.778 62.851
2.71 162.167 63.051
2.72 163.421 64.890
2.73 --undefined-- 70.256
2.74 138.077 74.678
2.75 127.780 76.179
2.76 118.279 75.749
2.77 117.348 75.050
2.78 117.828 74.479
2.79 118.495 73.674
2.80 120.613 73.006
2.81 124.576 73.220
2.82 128.311 74.096
2.83 132.083 75.045
2.84 134.861 75.585
2.85 136.841 75.540
2.86 139.915 74.569
2.87 140.846 71.965
2.88 140.610 67.207
2.89 147.681 61.083
2.90 147.415 58.290
2.91 143.138 63.797
2.92 --undefined-- 71.579
2.93 167.953 75.730
2.94 161.455 76.633
2.95 152.257 75.792
2.96 146.082 75.238
2.97 141.592 74.984
2.98 140.738 74.309
2.99 142.548 73.419
3.00 143.681 73.089
3.01 144.603 73.547
3.02 144.339 73.891
3.03 143.847 73.541
3.04 144.108 72.383
3.05 145.346 70.125
3.06 148.570 66.351
3.07 150.885 61.529
3.08 147.129 62.428
3.09 --undefined-- 69.839
3.10 --undefined-- 74.383
3.11 152.544 75.946
3.12 146.212 76.008
3.13 142.358 75.975
3.14 140.004 75.850
3.15 138.896 75.709
3.16 138.455 75.700
3.17 137.462 75.363
3.18 135.086 74.292
3.19 133.896 73.582
3.20 135.245 73.971
3.21 133.108 74.519
3.22 128.689 74.942
3.23 124.629 75.341
3.24 121.312 75.699
3.25 114.778 75.753
3.26 111.942 75.373
3.27 109.216 74.813
3.28 107.444 74.382
3.29 105.926 74.040
3.30 105.362 73.583
3.31 103.396 73.120
3.32 106.879 73.076
3.33 111.810 73.528
3.34 119.362 74.273
3.35 127.226 75.181
3.36 128.636 76.085
3.37 130.534 76.794
3.38 132.118 77.194
3.39 132.924 77.363
3.40 133.285 77.526
3.41 132.618 77.469
3.42 129.130 76.446
3.43 123.309 73.616
3.44 121.067 68.731
3.45 126.332 63.659
3.46 124.667 61.244
3.47 --undefined-- 64.863
3.48 131.151 70.676
3.49 124.389 74.327
3.50 119.846 75.693
3.51 111.051 75.443
3.52 106.324 74.737
3.53 103.904 74.204
3.54 103.133 73.760
3.55 102.956 72.958
3.56 98.828 70.858
3.57 95.972 67.428
3.58 98.176 64.141
3.59 99.505 61.340
3.60 101.698 58.373
3.61 103.415 55.190
3.62 --undefined-- 52.729
3.63 --undefined-- 58.884
3.64 --undefined-- 65.690
3.65 --undefined-- 69.670
3.66 106.465 72.026
3.67 103.138 73.261
3.68 101.913 73.577
3.69 102.850 73.545
3.70 105.376 73.595
3.71 107.987 74.005
3.72 111.169 74.681
3.73 115.236 75.412
3.74 121.477 76.122
3.75 126.493 76.793
3.76 130.935 77.443
3.77 135.463 77.876
3.78 139.577 77.886
3.79 142.264 77.338
3.80 142.441 76.182
3.81 144.393 74.391
3.82 145.250 71.514
3.83 145.625 66.984
3.84 145.898 61.354
3.85 145.776 57.728
3.86 146.123 56.866
3.87 --undefined-- 56.474
3.88 --undefined-- 55.819
3.89 --undefined-- 56.872
3.90 --undefined-- 63.913
3.91 --undefined-- 70.732
3.92 123.848 74.760
3.93 116.099 76.459
3.94 113.693 76.753
3.95 112.755 76.633
3.96 113.657 76.518
3.97 114.254 76.427
3.98 114.590 76.606
3.99 118.413 77.243
4.00 119.049 77.433
4.01 117.895 76.660
4.02 117.452 75.829
4.03 113.810 75.523
4.04 112.297 75.300
4.05 110.981 74.645
4.06 104.918 73.906
4.07 103.693 73.611
4.08 102.828 73.182
4.09 100.229 72.398
4.10 98.540 71.221
4.11 98.199 69.592
4.12 98.161 67.379
4.13 111.150 64.263
4.14 103.722 59.760
4.15 103.718 54.764
4.16 --undefined-- 54.742
4.17 --undefined-- 57.023
4.18 --undefined-- 56.949
4.19 --undefined-- 56.147
4.20 --undefined-- 57.033
4.21 --undefined-- 57.554
4.22 --undefined-- 57.221
4.23 --undefined-- 56.909
4.24 --undefined-- 56.609
4.25 --undefined-- 56.186
4.26 --undefined-- 55.687
4.27 --undefined-- 55.667
4.28 --undefined-- 56.023
4.29 --undefined-- 56.000
4.30 --undefined-- 55.681
4.31 --undefined-- 55.286
4.32 --undefined-- 54.587
4.33 --undefined-- 53.654
4.34 --undefined-- 52.513
4.35 --undefined-- 50.498
4.36 --undefined-- 47.944
4.37 --undefined-- 46.135
4.38 --undefined-- 45.809
4.39 --undefined-- 47.706
4.40 --undefined-- 52.758
4.41 --undefined-- 59.608
4.42 --undefined-- 67.127
4.43 --undefined-- 72.183
4.44 133.274 74.430
4.45 139.542 75.381
4.46 152.952 76.195
4.47 169.408 76.976
4.48 188.352 77.597
4.49 207.311 78.588
4.50 217.818 79.578
4.51 224.129 79.343
4.52 236.232 78.315
4.53 247.855 77.757
4.54 252.823 77.724
4.55 254.220 77.402
4.56 248.830 76.296
4.57 229.759 74.498
4.58 212.126 72.230
4.59 206.026 69.512
4.60 213.326 65.473
4.61 238.638 59.951
4.62 226.016 58.910
4.63 --undefined-- 68.227
4.64 --undefined-- 74.775
4.65 205.661 77.210
4.66 195.056 76.752
4.67 179.615 76.084
4.68 173.140 76.736
4.69 168.603 77.598
4.70 167.722 78.419
4.71 166.059 78.934
4.72 164.828 79.246
4.73 161.868 79.516
4.74 159.181 79.520
4.75 157.153 78.937
4.76 165.076 78.089
4.77 167.154 77.630
4.78 164.336 77.766
4.79 164.146 78.466
4.80 163.475 79.070
4.81 163.013 79.166
4.82 162.935 78.833
4.83 164.525 77.949
4.84 169.775 76.311
4.85 166.435 73.620
4.86 160.117 69.716
4.87 163.375 64.587
4.88 167.120 60.702
4.89 167.001 60.463
4.90 166.065 60.201
4.91 159.095 59.346
4.92 158.626 58.343
4.93 158.726 60.804
4.94 --undefined-- 69.891
4.95 231.258 76.005
4.96 218.451 78.651
4.97 216.552 79.150
4.98 214.974 79.039
4.99 212.085 78.859
5.00 209.223 78.242
5.01 206.297 76.560
5.02 190.085 --undefined--
5.03 178.066 --undefined--
5.04 --undefined-- --undefined--
5.05 --undefined-- --undefined--
