Time Pitch Intensity
0.01 --undefined-- --undefined--
0.02 97.290 --undefined--
0.03 96.994 --undefined--
0.04 96.842 --undefined--
0.05 96.837 63.614
0.06 94.404 62.690
0.07 95.195 61.643
0.08 94.959 60.717
0.09 96.779 60.273
0.10 97.289 60.497
0.11 96.359 60.838
0.12 97.872 60.879
0.13 95.370 60.563
0.14 97.179 60.250
0.15 97.620 60.232
0.16 97.723 60.232
0.17 96.854 59.911
0.18 97.140 59.288
0.19 98.782 58.262
0.20 102.781 56.269
0.21 105.802 53.252
0.22 --undefined-- 49.790
0.23 --undefined-- 45.734
0.24 --undefined-- 40.752
0.25 --undefined-- 36.647
0.26 --undefined-- 34.950
0.27 --undefined-- 34.149
0.28 --undefined-- 33.334
0.29 --undefined-- 33.870
0.30 --undefined-- 34.599
0.31 --undefined-- 34.089
0.32 --undefined-- 33.496
0.33 --undefined-- 33.169
0.34 --undefined-- 33.260
0.35 --undefined-- 33.707
0.36 --undefined-- 33.531
0.37 --undefined-- 33.151
0.38 --undefined-- 33.333
0.39 --undefined-- 33.029
0.40 --undefined-- 31.397
0.41 --undefined-- 36.403
0.42 --undefined-- 46.930
0.43 --undefined-- 57.690
0.44 --undefined-- 65.262
0.45 108.020 69.191
0.46 107.780 70.595
0.47 107.648 70.676
0.48 106.847 70.263
0.49 106.289 69.908
0.50 106.106 69.950
0.51 104.929 70.053
0.52 105.376 70.006
0.53 105.131 69.930
0.54 103.733 69.730
0.55 103.491 69.429
0.56 103.166 69.482
0.57 102.168 69.175
0.58 102.098 67.817
0.59 105.019 66.098
0.60 105.671 64.737
0.61 106.401 63.868
0.62 107.045 62.905
0.63 106.969 60.788
0.64 106.903 57.011
0.65 --undefined-- 52.137
0.66 --undefined-- 48.422
0.67 --undefined-- 47.017
0.68 --undefined-- 45.759
0.69 --undefined-- 44.194
0.70 --undefined-- 43.777
0.71 --undefined-- 44.080
0.72 --undefined-- 44.736
0.73 --undefined-- 45.775
0.74 --undefined-- 46.522
0.75 --undefined-- 46.367
0.76 --undefined-- 46.250
0.77 --undefined-- 51.076
0.78 --undefined-- 56.653
0.79 129.213 59.375
0.80 124.624 59.123
0.81 --undefined-- 55.942
0.82 --undefined-- 50.533
0.83 --undefined-- 45.895
0.84 --undefined-- 42.811
0.85 --undefined-- 40.662
0.86 --undefined-- 41.897
0.87 --undefined-- 47.347
0.88 --undefined-- 52.316
0.89 --undefined-- 56.706
0.90 111.815 60.052
0.91 108.396 61.956
0.92 104.423 62.726
0.93 101.423 62.947
0.94 98.557 63.061
0.95 97.235 63.368
0.96 97.753 63.512
0.97 96.475 62.383
0.98 95.989 59.672
0.99 98.993 57.417
1.00 100.264 57.570
1.01 101.494 58.145
1.02 100.978 58.045
1.03 101.521 57.647
1.04 102.512 58.851
1.05 --undefined-- 62.612
1.06 --undefined-- 65.903
1.07 104.708 67.707
1.08 106.209 68.382
1.09 106.863 68.293
1.10 106.733 68.008
1.11 107.120 67.831
1.12 107.360 67.740
1.13 107.257 67.687
1.14 107.351 67.628
1.15 107.838 67.530
1.16 108.185 67.369
1.17 108.229 67.125
1.18 109.993 67.004
1.19 111.031 66.912
1.20 111.314 66.695
1.21 111.795 66.459
1.22 112.041 66.272
1.23 112.248 66.190
1.24 112.311 66.051
1.25 112.871 65.784
1.26 113.198 65.335
1.27 113.025 64.421
1.28 113.744 63.132
1.29 114.298 62.020
1.30 114.630 61.537
1.31 114.917 61.271
1.32 115.896 60.590
1.33 116.268 59.542
1.34 116.899 58.015
1.35 116.483 55.384
1.36 --undefined-- 51.200
1.37 --undefined-- 45.913
1.38 --undefined-- 41.614
1.39 --undefined-- 39.316
1.40 --undefined-- 39.089
1.41 --undefined-- 39.477
1.42 --undefined-- 38.897
1.43 --undefined-- 38.282
1.44 --undefined-- 38.032
1.45 --undefined-- 38.413
1.46 --undefined-- 40.626
1.47 --undefined-- 42.838
1.48 --undefined-- 44.506
1.49 --undefined-- 46.039
1.50 --undefined-- 47.832
1.51 --undefined-- 49.312
1.52 --undefined-- 49.974
1.53 --undefined-- 49.944
1.54 --undefined-- 51.026
1.55 --undefined-- 57.702
1.56 --undefined-- 63.967
1.57 111.909 67.375
1.58 96.215 68.963
1.59 98.436 69.880
1.60 97.163 70.247
1.61 96.676 70.168
1.62 --undefined-- 69.657
1.63 --undefined-- 68.325
1.64 --undefined-- 66.424
1.65 91.287 64.928
1.66 94.153 64.295
1.67 96.992 64.052
1.68 99.014 63.524
1.69 100.475 62.202
1.70 103.577 60.569
1.71 103.576 60.115
1.72 103.475 61.506
1.73 105.944 63.544
1.74 103.925 65.048
1.75 103.669 65.661
1.76 104.246 65.785
1.77 105.591 65.713
1.78 106.502 65.204
1.79 106.865 64.024
1.80 108.243 62.443
1.81 108.463 60.978
1.82 108.661 59.824
1.83 110.722 59.018
1.84 111.637 58.602
1.85 111.329 58.196
1.86 111.118 56.916
1.87 111.012 54.124
1.88 --undefined-- 49.769
1.89 --undefined-- 44.312
1.90 --undefined-- 39.938
1.91 --undefined-- 39.522
1.92 --undefined-- 40.424
1.93 --undefined-- 41.805
1.94 --undefined-- 43.409
1.95 --undefined-- 44.347
1.96 --undefined-- 44.508
1.97 --undefined-- 44.384
1.98 --undefined-- 44.042
1.99 --undefined-- 43.796
2.00 --undefined-- 43.830
2.01 --undefined-- 43.490
2.02 --undefined-- 46.481
2.03 --undefined-- 53.054
2.04 114.453 57.145
2.05 109.759 58.804
2.06 105.452 59.426
2.07 104.594 60.341
2.08 104.438 61.716
2.09 106.927 63.167
2.10 107.195 64.767
2.11 109.172 66.005
2.12 105.849 66.525
2.13 103.508 66.972
2.14 101.857 67.310
2.15 102.108 67.420
2.16 101.355 67.914
2.17 99.982 68.656
2.18 100.627 69.297
2.19 102.404 69.769
2.20 103.020 69.830
2.21 101.610 69.773
2.22 101.380 70.072
2.23 102.263 70.465
2.24 103.591 70.613
2.25 104.398 70.229
2.26 106.000 69.008
2.27 107.338 67.314
2.28 108.765 65.619
2.29 109.353 64.686
2.30 --undefined-- 64.333
2.31 --undefined-- 63.081
2.32 --undefined-- 62.019
2.33 --undefined-- 62.360
2.34 --undefined-- 63.492
2.35 --undefined-- 64.957
2.36 --undefined-- 66.720
2.37 117.755 68.730
2.38 110.795 69.825
2.39 108.799 69.542
2.40 107.587 68.390
2.41 107.300 67.064
2.42 106.913 66.020
2.43 104.940 65.342
2.44 104.500 64.869
2.45 104.188 65.047
2.46 102.851 65.873
2.47 98.504 66.348
2.48 96.022 65.857
2.49 92.206 64.405
2.50 89.681 62.424
2.51 90.621 60.466
2.52 90.387 58.746
2.53 --undefined-- 56.289
2.54 --undefined-- 52.099
2.55 --undefined-- 47.297
2.56 --undefined-- 45.794
2.57 --undefined-- 48.278
2.58 --undefined-- 50.496
2.59 --undefined-- 52.294
2.60 --undefined-- 57.867
2.61 273.229 63.005
2.62 274.814 66.134
2.63 277.423 69.589
2.64 259.063 72.432
2.65 283.808 72.829
2.66 --undefined-- 70.247
2.67 --undefined-- 65.183
2.68 --undefined-- 64.279
2.69 --undefined-- 67.228
2.70 --undefined-- 69.022
2.71 90.105 69.119
2.72 85.615 67.960
2.73 86.615 66.783
2.74 88.606 66.061
2.75 89.571 65.801
2.76 --undefined-- 65.638
2.77 --undefined-- 65.299
2.78 97.920 64.705
2.79 100.132 63.324
2.80 99.861 60.558
2.81 --undefined-- 56.259
2.82 --undefined-- 50.899
2.83 --undefined-- 47.290
2.84 --undefined-- 48.027
2.85 --undefined-- 49.275
2.86 --undefined-- 49.676
2.87 --undefined-- 50.336
2.88 --undefined-- 51.711
2.89 --undefined-- 52.268
2.90 --undefined-- 54.162
2.91 --undefined-- 59.465
2.92 108.269 63.501
2.93 100.144 65.813
2.94 96.462 67.061
2.95 91.546 67.517
2.96 88.098 67.226
2.97 88.063 65.891
2.98 --undefined-- 63.424
2.99 --undefined-- 61.484
3.00 --undefined-- 59.607
3.01 --undefined-- 55.367
3.02 --undefined-- 52.356
3.03 --undefined-- 51.039
3.04 --undefined-- 46.946
3.05 --undefined-- 41.485
3.06 --undefined-- 39.469
3.07 --undefined-- 40.844
3.08 --undefined-- 41.258
3.09 --undefined-- 38.920
3.10 --undefined-- 35.791
3.11 --undefined-- 34.895
3.12 --undefined-- 35.579
3.13 --undefined-- 36.111
3.14 --undefined-- 35.812
3.15 --undefined-- 36.109
3.16 --undefined-- 37.310
3.17 --undefined-- 37.830
3.18 --undefined-- 37.732
3.19 --undefined-- 37.943
3.20 --undefined-- 38.315
3.21 --undefined-- 38.449
3.22 --undefined-- 38.400
3.23 --undefined-- 38.333
3.24 --undefined-- 38.631
3.25 --undefined-- 39.164
3.26 --undefined-- 39.118
3.27 --undefined-- 38.730
3.28 --undefined-- 38.538
3.29 --undefined-- 38.130
3.30 --undefined-- 37.965
3.31 --undefined-- 37.761
3.32 --undefined-- 37.490
3.33 --undefined-- 37.247
3.34 --undefined-- 36.734
3.35 --undefined-- 35.906
3.36 --undefined-- 34.751
3.37 --undefined-- 34.591
3.38 --undefined-- 35.192
3.39 --undefined-- 35.668
3.40 --undefined-- 35.190
3.41 --undefined-- 34.992
3.42 --undefined-- 36.130
3.43 --undefined-- 36.279
3.44 --undefined-- 35.504
3.45 --undefined-- 35.317
3.46 --undefined-- 34.643
3.47 --undefined-- 33.965
3.48 --undefined-- 34.182
3.49 --undefined-- 34.233
3.50 --undefined-- 34.877
3.51 --undefined-- 36.511
3.52 --undefined-- 40.400
3.53 --undefined-- 46.817
3.54 --undefined-- 51.113
3.55 98.120 53.359
3.56 101.386 55.152
3.57 100.887 56.693
3.58 99.438 57.688
3.59 99.222 58.531
3.60 98.232 59.235
3.61 98.561 59.382
3.62 98.615 59.114
3.63 98.555 58.882
3.64 99.297 58.569
3.65 100.522 57.893
3.66 102.340 56.829
3.67 106.903 55.819
3.68 105.649 54.875
3.69 103.081 52.820
3.70 --undefined-- 48.627
3.71 --undefined-- 42.401
3.72 --undefined-- 37.656
3.73 --undefined-- 38.633
3.74 --undefined-- 40.438
3.75 --undefined-- 42.130
3.76 --undefined-- 44.085
3.77 --undefined-- 44.689
3.78 --undefined-- 46.561
3.79 --undefined-- 51.754
3.80 132.815 55.995
3.81 135.316 59.027
3.82 139.887 61.537
3.83 144.816 64.069
3.84 151.389 66.192
3.85 151.137 67.497
3.86 153.385 68.392
3.87 159.840 68.841
3.88 161.088 68.221
3.89 163.329 66.117
3.90 164.191 62.703
3.91 155.785 59.758
3.92 132.907 59.604
3.93 132.224 60.328
3.94 132.719 60.404
3.95 --undefined-- 59.778
3.96 --undefined-- 59.675
3.97 --undefined-- 63.100
3.98 --undefined-- 68.425
3.99 --undefined-- 72.665
4.00 --undefined-- 75.218
4.01 --undefined-- 76.257
4.02 --undefined-- 76.123
4.03 113.844 75.138
4.04 110.904 73.771
4.05 109.106 72.309
4.06 107.946 70.844
4.07 107.267 69.168
4.08 106.658 67.454
4.09 106.694 66.494
4.10 105.391 66.182
4.11 103.466 65.881
4.12 102.060 64.892
4.13 101.958 62.768
4.14 99.262 59.303
4.15 97.988 54.875
4.16 --undefined-- 50.731
4.17 --undefined-- 47.393
4.18 --undefined-- 47.106
4.19 --undefined-- 54.550
4.20 --undefined-- 61.501
4.21 --undefined-- 64.977
4.22 --undefined-- 65.012
4.23 --undefined-- 62.379
4.24 --undefined-- 61.218
4.25 --undefined-- 64.244
4.26 117.249 66.368
4.27 112.817 67.495
4.28 107.994 68.508
4.29 105.222 69.403
4.30 104.075 70.135
4.31 104.088 70.632
4.32 103.520 70.770
4.33 103.517 70.572
4.34 103.140 69.973
4.35 101.985 68.989
4.36 101.696 68.165
4.37 101.926 67.776
4.38 101.927 67.513
4.39 101.732 66.998
4.40 102.109 66.315
4.41 102.117 65.840
4.42 102.093 65.337
4.43 100.942 63.988
4.44 100.424 61.786
4.45 101.348 59.673
4.46 101.679 58.215
4.47 101.880 57.584
4.48 102.509 57.691
4.49 101.773 58.041
4.50 102.106 59.242
4.51 104.229 62.610
4.52 --undefined-- 66.082
4.53 99.868 68.146
4.54 99.712 69.482
4.55 97.628 70.545
4.56 100.840 71.139
4.57 102.169 71.265
4.58 101.890 71.177
4.59 101.525 70.883
4.60 100.934 70.032
4.61 99.710 68.465
4.62 99.099 66.657
4.63 95.975 65.037
4.64 97.329 62.764
4.65 --undefined-- 59.017
4.66 --undefined-- 53.496
4.67 --undefined-- 48.334
4.68 --undefined-- 46.493
4.69 --undefined-- 46.257
4.70 --undefined-- 46.462
4.71 --undefined-- 47.086
4.72 --undefined-- 47.748
4.73 --undefined-- 47.736
4.74 --undefined-- 47.678
4.75 --undefined-- 48.517
4.76 --undefined-- 49.096
4.77 --undefined-- 47.932
4.78 --undefined-- 45.284
4.79 --undefined-- 47.665
4.80 --undefined-- 58.696
4.81 --undefined-- 66.157
4.82 131.985 69.983
4.83 118.143 71.468
4.84 117.298 71.856
4.85 117.318 71.922
4.86 117.568 71.813
4.87 118.190 71.641
4.88 118.107 71.560
4.89 118.087 71.567
4.90 115.747 71.460
4.91 115.592 71.353
4.92 114.934 71.384
4.93 115.033 71.437
4.94 113.911 71.325
4.95 116.096 71.077
4.96 114.695 70.753
4.97 116.024 70.235
4.98 116.938 69.259
4.99 116.756 67.571
5.00 119.016 65.579
5.01 120.055 64.199
5.02 119.994 63.546
5.03 119.522 63.152
5.04 119.341 62.970
5.05 118.382 62.886
5.06 117.204 62.683
5.07 116.415 62.605
5.08 116.369 62.861
5.09 115.903 63.244
5.10 115.113 63.475
5.11 113.710 63.369
5.12 111.544 62.904
5.13 109.254 62.568
5.14 108.545 64.206
5.15 108.184 66.973
5.16 103.970 68.429
5.17 103.188 68.198
5.18 96.631 66.798
5.19 96.624 66.009
5.20 93.334 65.517
5.21 89.170 64.358
5.22 92.516 62.727
5.23 74.629 60.422
5.24 --undefined-- 58.457
5.25 --undefined-- 57.966
5.26 --undefined-- 57.035
5.27 --undefined-- 54.175
5.28 --undefined-- 52.789
5.29 --undefined-- 53.487
5.30 --undefined-- 54.054
5.31 --undefined-- 55.949
5.32 --undefined-- 56.809
5.33 --undefined-- 55.646
5.34 --undefined-- 53.365
5.35 --undefined-- 51.050
5.36 --undefined-- 49.342
5.37 --undefined-- 48.659
5.38 --undefined-- 48.587
5.39 --undefined-- 49.010
5.40 --undefined-- 49.747
5.41 --undefined-- 50.230
5.42 --undefined-- 50.699
5.43 --undefined-- 52.056
5.44 --undefined-- 53.258
5.45 --undefined-- 56.423
5.46 --undefined-- 61.803
5.47 104.680 65.289
5.48 99.017 66.952
5.49 98.846 67.663
5.50 97.896 67.789
5.51 97.548 67.420
5.52 98.132 66.769
5.53 98.765 66.215
5.54 98.643 65.862
5.55 97.803 65.359
5.56 96.969 64.749
5.57 97.079 64.193
5.58 96.238 63.391
5.59 94.772 62.327
5.60 96.469 61.294
5.61 96.178 60.578
5.62 95.632 60.112
5.63 95.869 59.732
5.64 95.497 59.309
5.65 96.104 58.813
5.66 94.870 58.570
5.67 95.101 58.640
5.68 95.209 58.833
5.69 94.786 59.098
5.70 95.122 59.124
5.71 96.001 58.371
5.72 94.244 56.326
5.73 --undefined-- 52.615
5.74 --undefined-- 47.064
5.75 --undefined-- 40.847
5.76 --undefined-- 36.954
5.77 --undefined-- 34.394
5.78 --undefined-- 33.071
5.79 --undefined-- 32.260
5.80 --undefined-- 31.594
5.81 --undefined-- 32.198
5.82 --undefined-- 33.262
5.83 --undefined-- 33.982
5.84 --undefined-- 35.039
5.85 --undefined-- 36.148
5.86 --undefined-- 36.770
5.87 --undefined-- 37.053
5.88 --undefined-- 37.042
5.89 --undefined-- 36.918
5.90 --undefined-- 37.147
5.91 --undefined-- 37.154
5.92 --undefined-- 36.457
5.93 --undefined-- 36.610
5.94 --undefined-- 37.910
5.95 --undefined-- 38.226
5.96 --undefined-- 37.622
5.97 --undefined-- 37.790
5.98 --undefined-- 37.599
5.99 --undefined-- 35.993
6.00 --undefined-- 34.217
6.01 --undefined-- 33.286
6.02 --undefined-- 32.073
6.03 --undefined-- 31.606
6.04 --undefined-- 32.099
6.05 --undefined-- 32.057
6.06 --undefined-- 31.495
6.07 --undefined-- 30.794
6.08 --undefined-- 29.977
6.09 --undefined-- 31.968
6.10 --undefined-- 34.968
6.11 --undefined-- 40.823
6.12 --undefined-- 47.847
6.13 114.985 52.114
6.14 107.663 55.359
6.15 106.184 61.771
6.16 --undefined-- --undefined--
6.17 --undefined-- --undefined--
6.18 --undefined-- --undefined--
6.19 --undefined-- --undefined--
