Time Pitch Intensity
0.01 --undefined-- --undefined--
0.02 216.841 --undefined--
0.03 220.100 --undefined--
0.04 222.670 --undefined--
0.05 223.462 70.293
0.06 222.947 69.845
0.07 222.368 68.669
0.08 222.586 66.262
0.09 222.000 61.925
0.10 219.128 55.899
0.11 --undefined-- 52.656
0.12 --undefined-- 53.172
0.13 --undefined-- 53.231
0.14 229.900 53.082
0.15 228.338 54.217
0.16 221.326 55.942
0.17 214.084 57.922
0.18 206.411 58.727
0.19 183.625 58.346
0.20 166.545 58.521
0.21 153.657 58.837
0.22 284.096 58.370
0.23 273.799 57.364
0.24 288.012 56.935
0.25 96.228 57.274
0.26 99.340 58.236
0.27 95.174 60.019
0.28 150.124 61.918
0.29 156.929 63.087
0.30 157.986 63.401
0.31 157.708 63.082
0.32 155.882 62.050
0.33 151.558 60.635
0.34 155.074 61.141
0.35 161.852 63.604
0.36 160.492 65.845
0.37 159.656 67.238
0.38 159.265 67.696
0.39 159.811 67.572
0.40 159.726 67.257
0.41 159.627 66.502
0.42 159.153 65.435
0.43 157.018 64.890
0.44 157.166 64.779
0.45 159.687 64.785
0.46 160.456 65.142
0.47 161.710 65.576
0.48 163.945 65.701
0.49 165.791 65.336
0.50 166.675 64.789
0.51 166.896 64.401
0.52 166.560 62.934
0.53 166.336 59.181
0.54 --undefined-- 53.421
0.55 --undefined-- 50.514
0.56 --undefined-- 52.004
0.57 --undefined-- 53.773
0.58 --undefined-- 55.219
0.59 --undefined-- 55.573
0.60 --undefined-- 54.240
0.61 --undefined-- 52.897
0.62 --undefined-- 58.285
0.63 --undefined-- 64.468
0.64 --undefined-- 68.019
0.65 --undefined-- 69.362
0.66 --undefined-- 69.038
0.67 --undefined-- 68.060
0.68 --undefined-- 68.034
0.69 --undefined-- 68.316
0.70 --undefined-- 67.683
0.71 --undefined-- 67.622
0.72 169.935 68.001
0.73 177.124 67.670
0.74 185.436 66.299
0.75 190.110 64.246
0.76 199.437 62.415
0.77 199.879 60.736
0.78 198.620 58.266
0.79 194.212 54.503
0.80 --undefined-- 50.340
0.81 --undefined-- 47.278
0.82 --undefined-- 43.994
0.83 --undefined-- 45.092
0.84 --undefined-- 57.328
0.85 198.871 65.944
0.86 200.462 70.875
0.87 198.717 72.958
0.88 194.974 72.797
0.89 188.786 71.010
0.90 176.502 69.319
0.91 171.550 69.303
0.92 169.975 69.562
0.93 168.486 69.093
0.94 166.318 67.910
0.95 165.634 65.988
0.96 165.866 63.234
0.97 165.739 59.557
0.98 165.311 54.552
0.99 --undefined-- 47.939
1.00 --undefined-- 42.013
1.01 --undefined-- 40.670
1.02 --undefined-- 43.005
1.03 --undefined-- 49.311
1.04 --undefined-- 53.040
1.05 --undefined-- 53.807
1.06 --undefined-- 55.600
1.07 --undefined-- 61.056
1.08 --undefined-- 65.754
1.09 172.223 68.899
1.10 169.592 70.658
1.11 166.975 71.180
1.12 165.836 70.704
1.13 166.269 70.015
1.14 168.079 69.290
1.15 167.515 67.496
1.16 162.701 63.997
1.17 --undefined-- 58.490
1.18 --undefined-- 51.015
1.19 --undefined-- 44.408
1.20 --undefined-- 47.620
1.21 --undefined-- 52.838
1.22 --undefined-- 54.781
1.23 --undefined-- 55.100
1.24 --undefined-- 61.467
1.25 250.237 67.138
1.26 253.375 69.733
1.27 243.251 70.671
1.28 218.512 71.383
1.29 219.897 71.737
1.30 220.263 71.113
1.31 216.780 69.530
1.32 217.437 68.214
1.33 218.688 67.260
1.34 216.365 65.621
1.35 209.803 63.558
1.36 204.166 62.190
1.37 201.320 62.036
1.38 198.906 62.112
1.39 192.719 62.016
1.40 187.438 63.324
1.41 180.537 67.079
1.42 175.869 70.616
1.43 172.428 72.479
1.44 168.213 72.770
1.45 159.053 72.454
1.46 157.278 72.239
1.47 159.279 71.920
1.48 161.624 71.812
1.49 164.237 71.774
1.50 166.990 71.547
1.51 171.418 71.156
1.52 174.258 70.527
1.53 178.642 70.036
1.54 181.547 69.317
1.55 184.512 67.370
1.56 194.813 64.275
1.57 201.694 60.827
1.58 203.209 57.629
1.59 194.695 54.755
1.60 189.973 51.855
1.61 --undefined-- 49.321
1.62 --undefined-- 46.921
1.63 --undefined-- 44.251
1.64 --undefined-- 41.527
1.65 --undefined-- 37.518
1.66 --undefined-- 32.150
1.67 --undefined-- 27.000
1.68 --undefined-- 24.920
1.69 --undefined-- 27.650
1.70 --undefined-- 34.023
1.71 --undefined-- 41.084
1.72 --undefined-- 47.185
1.73 --undefined-- 50.945
1.74 --undefined-- 52.337
1.75 253.021 52.611
1.76 255.890 52.877
1.77 256.869 52.322
1.78 --undefined-- 50.969
1.79 --undefined-- 50.429
1.80 --undefined-- 50.379
1.81 --undefined-- 50.150
1.82 --undefined-- 49.983
1.83 --undefined-- 49.592
1.84 --undefined-- 48.973
1.85 --undefined-- 48.887
1.86 --undefined-- 49.755
1.87 --undefined-- 50.831
1.88 --undefined-- 50.908
1.89 --undefined-- 49.935
1.90 --undefined-- 48.269
1.91 --undefined-- 46.841
1.92 --undefined-- 45.017
1.93 --undefined-- 42.789
1.94 --undefined-- 41.181
1.95 --undefined-- 39.140
1.96 --undefined-- 35.438
1.97 --undefined-- 30.431
1.98 --undefined-- 27.173
1.99 --undefined-- 25.659
2.00 --undefined-- 24.942
2.01 --undefined-- 25.237
2.02 --undefined-- 25.852
2.03 --undefined-- 25.859
2.04 --undefined-- 26.004
2.05 --undefined-- 32.001
2.06 --undefined-- 39.986
2.07 --undefined-- 52.618
2.08 --undefined-- 62.978
2.09 192.338 68.843
2.10 190.920 70.857
2.11 186.253 69.406
2.12 180.165 64.653
2.13 --undefined-- 56.903
2.14 --undefined-- 48.367
2.15 --undefined-- 42.363
2.16 --undefined-- 36.370
2.17 --undefined-- 30.588
2.18 --undefined-- 35.434
2.19 --undefined-- 54.377
2.20 --undefined-- 66.075
2.21 212.702 72.481
2.22 213.819 74.893
2.23 213.040 74.572
2.24 210.814 73.471
2.25 210.354 72.633
2.26 211.116 72.077
2.27 213.980 71.896
2.28 216.840 71.413
2.29 219.865 70.409
2.30 222.447 69.337
2.31 225.325 68.674
2.32 227.453 68.591
2.33 230.299 68.699
2.34 233.470 68.314
2.35 234.815 67.013
2.36 233.536 64.868
2.37 229.078 61.937
2.38 227.421 58.820
2.39 233.782 55.704
2.40 --undefined-- 51.795
2.41 --undefined-- 48.668
2.42 --undefined-- 49.530
2.43 --undefined-- 52.026
2.44 --undefined-- 55.216
2.45 --undefined-- 56.880
2.46 --undefined-- 56.522
2.47 --undefined-- 55.977
2.48 --undefined-- 57.469
2.49 207.924 61.901
2.50 198.909 66.210
2.51 187.664 68.974
2.52 182.194 70.319
2.53 178.158 70.940
2.54 174.883 71.488
2.55 174.727 71.722
2.56 174.250 71.404
2.57 173.342 70.593
2.58 171.613 68.712
2.59 162.172 65.018
2.60 --undefined-- 59.539
2.61 --undefined-- 53.559
2.62 --undefined-- 49.761
2.63 --undefined-- 47.065
2.64 --undefined-- 42.264
2.65 --undefined-- 35.145
2.66 --undefined-- 29.686
2.67 --undefined-- 26.905
2.68 --undefined-- 26.067
2.69 --undefined-- 25.948
2.70 --undefined-- 26.043
2.71 --undefined-- 26.621
2.72 --undefined-- 26.954
2.73 --undefined-- 26.629
2.74 --undefined-- 25.034
2.75 --undefined-- 23.930
2.76 --undefined-- 28.548
2.77 --undefined-- 33.075
2.78 --undefined-- 33.877
2.79 --undefined-- 30.868
2.80 --undefined-- 26.733
2.81 --undefined-- 26.227
2.82 --undefined-- 29.155
2.83 --undefined-- 38.187
2.84 --undefined-- 44.981
2.85 --undefined-- 50.116
2.86 --undefined-- 58.704
2.87 --undefined-- 65.874
2.88 --undefined-- 69.702
2.89 --undefined-- 70.916
2.90 200.759 71.114
2.91 203.619 71.536
2.92 204.983 71.852
2.93 205.167 71.738
2.94 205.745 71.419
2.95 202.772 71.464
2.96 199.733 71.743
2.97 199.851 71.723
2.98 198.730 71.217
2.99 195.546 70.015
3.00 193.723 67.531
3.01 188.392 63.642
3.02 181.627 61.378
3.03 176.899 61.788
3.04 170.276 62.602
3.05 167.506 62.997
3.06 164.823 62.484
3.07 164.448 63.312
3.08 165.428 66.476
3.09 164.324 68.757
3.10 164.276 69.582
3.11 166.247 69.774
3.12 166.824 69.808
3.13 166.534 69.666
3.14 166.830 69.382
3.15 168.356 69.186
3.16 169.694 69.153
3.17 169.300 68.865
3.18 169.419 68.292
3.19 169.523 67.688
3.20 169.818 67.486
3.21 170.049 67.709
3.22 170.673 67.790
3.23 172.758 67.512
3.24 173.207 67.401
3.25 173.723 67.898
3.26 174.558 68.595
3.27 176.290 69.196
3.28 177.433 69.778
3.29 175.550 70.092
3.30 173.621 69.925
3.31 173.992 69.674
3.32 173.964 69.549
3.33 173.503 69.503
3.34 174.050 69.404
3.35 166.681 68.804
3.36 165.623 67.349
3.37 156.894 65.257
3.38 163.639 63.708
3.39 172.466 62.587
3.40 --undefined-- 60.587
3.41 278.395 57.860
3.42 278.838 54.297
3.43 --undefined-- 48.168
3.44 --undefined-- 37.913
3.45 --undefined-- 28.259
3.46 --undefined-- 30.639
3.47 --undefined-- 34.088
3.48 --undefined-- 37.347
3.49 --undefined-- 40.493
3.50 --undefined-- 42.812
3.51 --undefined-- 44.406
3.52 --undefined-- 45.393
3.53 --undefined-- 44.922
3.54 --undefined-- 42.847
3.55 --undefined-- 43.077
3.56 --undefined-- 45.222
3.57 --undefined-- 44.340
3.58 --undefined-- 39.719
3.59 --undefined-- 35.364
3.60 --undefined-- 48.441
3.61 --undefined-- 57.930
3.62 --undefined-- 63.386
3.63 --undefined-- 67.077
3.64 --undefined-- 69.441
3.65 153.831 70.301
3.66 153.838 70.465
3.67 153.403 69.947
3.68 153.552 68.736
3.69 153.203 66.929
3.70 152.619 64.658
3.71 --undefined-- 62.760
3.72 --undefined-- 61.019
3.73 293.825 58.551
3.74 297.143 55.462
3.75 --undefined-- 51.736
3.76 --undefined-- 47.650
3.77 --undefined-- 51.630
3.78 --undefined-- 56.967
3.79 --undefined-- 60.183
3.80 --undefined-- 62.205
3.81 --undefined-- 62.810
3.82 --undefined-- 61.328
3.83 --undefined-- 59.129
3.84 --undefined-- 59.750
3.85 250.799 62.090
3.86 257.903 64.016
3.87 275.431 66.143
3.88 285.083 67.939
3.89 283.047 68.613
3.90 277.316 68.365
3.91 275.574 67.813
3.92 275.531 67.507
3.93 273.935 67.372
3.94 269.164 66.899
3.95 262.228 66.105
3.96 255.626 65.625
3.97 248.727 65.398
3.98 230.804 65.151
3.99 208.446 66.299
4.00 192.628 69.471
4.01 185.148 72.279
4.02 177.882 73.668
4.03 --undefined-- 73.608
4.04 153.512 72.683
4.05 148.668 71.454
4.06 144.023 69.895
4.07 145.412 67.803
4.08 --undefined-- 65.633
4.09 --undefined-- 64.983
4.10 --undefined-- 65.264
4.11 --undefined-- 64.353
4.12 148.280 62.414
4.13 150.033 62.058
4.14 153.666 62.238
4.15 167.221 62.206
4.16 180.717 63.569
4.17 187.735 66.720
4.18 201.848 69.661
4.19 208.215 71.100
4.20 221.123 71.134
4.21 228.719 70.561
4.22 233.756 70.176
4.23 238.650 70.366
4.24 241.823 70.739
4.25 242.091 70.644
4.26 242.125 70.295
4.27 242.070 70.311
4.28 242.104 70.213
4.29 242.707 69.259
4.30 243.191 67.915
4.31 247.227 66.884
4.32 256.038 65.988
4.33 263.597 65.047
4.34 273.802 64.528
4.35 280.572 64.338
4.36 --undefined-- 63.864
4.37 154.370 62.613
4.38 154.096 60.286
4.39 149.757 57.482
4.40 146.016 55.581
4.41 144.898 54.145
4.42 --undefined-- 52.492
4.43 --undefined-- 51.214
4.44 --undefined-- 51.628
4.45 145.374 53.763
4.46 149.474 55.282
4.47 153.971 54.361
4.48 --undefined-- 50.321
4.49 --undefined-- 43.490
4.50 --undefined-- 36.032
4.51 --undefined-- 29.551
4.52 --undefined-- 26.702
4.53 --undefined-- 26.689
4.54 --undefined-- 26.844
4.55 --undefined-- 27.247
4.56 --undefined-- 27.251
4.57 --undefined-- 26.836
4.58 --undefined-- 25.598
4.59 --undefined-- 24.010
4.60 --undefined-- 30.077
4.61 --undefined-- 37.122
4.62 --undefined-- 40.624
4.63 --undefined-- 48.095
4.64 --undefined-- 57.310
4.65 --undefined-- 62.760
4.66 --undefined-- 65.566
4.67 --undefined-- 66.968
4.68 --undefined-- 67.451
4.69 160.329 67.618
4.70 159.957 68.712
4.71 159.710 69.818
4.72 159.198 70.013
4.73 159.013 69.809
4.74 159.224 69.567
4.75 157.767 69.035
4.76 156.501 68.341
4.77 154.939 67.749
4.78 154.049 67.311
4.79 153.337 67.015
4.80 151.474 66.762
4.81 150.359 66.446
4.82 150.593 66.517
4.83 151.932 66.905
4.84 153.618 66.854
4.85 154.368 66.174
4.86 154.128 65.560
4.87 153.808 65.533
4.88 153.798 65.759
4.89 153.631 66.023
4.90 154.001 66.115
4.91 154.630 66.023
4.92 154.573 65.905
4.93 156.162 65.619
4.94 160.178 64.852
4.95 162.778 62.778
4.96 170.076 58.912
4.97 --undefined-- 54.233
4.98 --undefined-- 51.405
4.99 --undefined-- 50.737
5.00 --undefined-- 49.489
5.01 --undefined-- 47.715
5.02 --undefined-- 46.506
5.03 --undefined-- 46.573
5.04 --undefined-- 48.232
5.05 --undefined-- 49.635
5.06 --undefined-- 54.314
5.07 --undefined-- 62.801
5.08 169.663 68.352
5.09 170.316 70.714
5.10 153.917 70.976
5.11 153.485 70.434
5.12 153.885 69.810
5.13 155.304 69.245
5.14 158.644 68.740
5.15 166.592 67.983
5.16 180.901 66.807
5.17 190.486 65.191
5.18 202.104 63.026
5.19 209.107 60.400
5.20 217.894 57.600
5.21 218.772 54.798
5.22 --undefined-- 50.879
5.23 --undefined-- 47.069
5.24 --undefined-- 48.682
5.25 --undefined-- 51.779
5.26 --undefined-- 57.252
5.27 276.227 63.883
5.28 270.318 68.293
5.29 261.575 70.525
5.30 250.580 71.291
5.31 245.508 71.131
5.32 242.751 70.224
5.33 --undefined-- 69.025
5.34 126.442 68.359
5.35 126.483 68.546
5.36 126.248 68.949
5.37 125.145 68.753
5.38 124.466 67.124
5.39 250.148 63.772
5.40 250.301 61.756
5.41 250.827 62.740
5.42 251.376 63.150
5.43 249.224 62.573
5.44 252.000 62.567
5.45 257.849 64.447
5.46 258.888 68.523
5.47 258.807 72.191
5.48 258.868 73.950
5.49 260.846 73.859
5.50 265.489 72.850
5.51 266.226 71.918
5.52 266.862 71.149
5.53 270.277 70.268
5.54 275.907 69.365
5.55 280.807 68.628
5.56 284.815 67.951
5.57 285.743 66.852
5.58 286.176 65.213
5.59 286.537 63.553
5.60 286.339 62.371
5.61 296.312 62.073
5.62 151.281 61.582
5.63 148.258 59.786
5.64 139.765 56.810
5.65 --undefined-- 53.496
5.66 --undefined-- 49.768
5.67 --undefined-- 45.390
5.68 --undefined-- 41.448
5.69 --undefined-- 41.723
5.70 --undefined-- 43.280
5.71 --undefined-- 44.000
5.72 --undefined-- 43.355
5.73 --undefined-- 42.387
5.74 --undefined-- 41.272
5.75 --undefined-- 39.025
5.76 --undefined-- 37.476
5.77 --undefined-- 38.092
5.78 --undefined-- 37.391
5.79 --undefined-- 33.750
5.80 --undefined-- 28.476
5.81 --undefined-- 34.534
5.82 --undefined-- 42.697
5.83 --undefined-- 47.208
5.84 --undefined-- --undefined--
5.85 --undefined-- --undefined--
5.86 --undefined-- --undefined--
5.87 --undefined-- --undefined--
