Time Pitch Intensity
0.01 --undefined-- --undefined--
0.02 --undefined-- --undefined--
0.03 --undefined-- --undefined--
0.04 --undefined-- --undefined--
0.05 --undefined-- 55.885
0.06 --undefined-- 53.819
0.07 --undefined-- 57.993
0.08 --undefined-- 65.081
0.09 --undefined-- 68.697
0.10 --undefined-- 69.611
0.11 136.491 69.362
0.12 125.305 69.528
0.13 116.696 69.618
0.14 111.865 69.301
0.15 107.735 68.436
0.16 103.917 67.544
0.17 103.209 67.379
0.18 105.422 67.520
0.19 107.136 67.571
0.20 109.342 67.734
0.21 112.500 68.169
0.22 117.212 68.385
0.23 120.475 68.195
0.24 124.285 68.106
0.25 127.393 68.403
0.26 130.528 68.651
0.27 131.205 68.958
0.28 135.188 69.803
0.29 139.604 70.614
0.30 142.719 70.883
0.31 143.994 70.781
0.32 143.773 70.508
0.33 141.552 70.213
0.34 137.970 69.934
0.35 133.766 69.368
0.36 126.921 68.422
0.37 120.902 67.682
0.38 111.957 67.714
0.39 108.769 67.937
0.40 103.688 67.609
0.41 100.930 66.935
0.42 98.752 66.408
0.43 97.605 66.128
0.44 96.782 65.997
0.45 95.106 65.721
0.46 91.879 65.001
0.47 81.991 63.529
0.48 --undefined-- 60.372
0.49 --undefined-- 54.916
0.50 --undefined-- 50.122
0.51 --undefined-- 46.848
0.52 --undefined-- 43.314
0.53 --undefined-- 40.677
0.54 --undefined-- 38.414
0.55 --undefined-- 36.658
0.56 --undefined-- 35.442
0.57 --undefined-- 34.113
0.58 --undefined-- 32.808
0.59 --undefined-- 31.890
0.60 --undefined-- 32.244
0.61 --undefined-- 33.121
0.62 --undefined-- 33.379
0.63 --undefined-- 33.362
0.64 --undefined-- 33.714
0.65 --undefined-- 34.367
0.66 --undefined-- 33.764
0.67 --undefined-- 33.909
0.68 --undefined-- 35.759
0.69 --undefined-- 40.639
0.70 --undefined-- 52.879
0.71 --undefined-- 61.448
0.72 151.138 66.274
0.73 154.359 68.105
0.74 155.584 68.009
0.75 165.819 68.040
0.76 174.841 68.705
0.77 184.097 68.803
0.78 196.294 68.647
0.79 202.959 69.203
0.80 208.798 70.004
0.81 210.423 70.426
0.82 210.284 70.305
0.83 206.910 69.515
0.84 201.003 68.265
0.85 196.070 67.618
0.86 178.512 67.840
0.87 164.918 68.699
0.88 157.150 70.688
0.89 147.338 73.512
0.90 129.118 74.962
0.91 126.752 74.393
0.92 125.371 73.306
0.93 124.836 73.248
0.94 124.061 74.423
0.95 125.544 75.588
0.96 124.775 75.675
0.97 124.444 75.362
0.98 126.237 75.450
0.99 128.356 75.687
1.00 131.735 75.483
1.01 131.840 74.666
1.02 130.977 73.747
1.03 130.313 73.313
1.04 128.867 73.255
1.05 128.525 73.360
1.06 132.981 73.686
1.07 129.404 73.688
1.08 127.478 72.745
1.09 125.325 71.758
1.10 128.046 72.055
1.11 132.301 72.920
1.12 136.529 73.535
1.13 139.905 73.759
1.14 147.758 73.609
1.15 150.113 73.028
1.16 152.096 72.432
1.17 153.772 72.196
1.18 154.322 71.962
1.19 153.470 71.099
1.20 299.974 69.082
1.21 256.617 66.251
1.22 264.933 62.929
1.23 --undefined-- 57.595
1.24 --undefined-- 50.496
1.25 --undefined-- 47.565
1.26 --undefined-- 46.712
1.27 --undefined-- 52.682
1.28 --undefined-- 63.997
1.29 --undefined-- 70.972
1.30 --undefined-- 73.886
1.31 --undefined-- 73.623
1.32 --undefined-- 71.559
1.33 --undefined-- 69.544
1.34 195.282 68.246
1.35 194.082 67.676
1.36 193.212 67.671
1.37 191.866 67.883
1.38 190.983 68.074
1.39 188.041 68.040
1.40 199.331 68.429
1.41 194.796 68.972
1.42 193.431 68.811
1.43 --undefined-- 68.731
1.44 --undefined-- 69.104
1.45 --undefined-- 69.093
1.46 --undefined-- 68.386
1.47 --undefined-- 67.479
1.48 200.577 67.873
1.49 200.898 69.430
1.50 200.138 71.046
1.51 202.124 72.227
1.52 206.829 72.631
1.53 215.918 71.972
1.54 221.138 70.302
1.55 212.480 68.001
1.56 211.080 64.904
1.57 209.486 59.672
1.58 --undefined-- 52.814
1.59 --undefined-- 54.204
1.60 --undefined-- 56.550
1.61 --undefined-- 56.324
1.62 --undefined-- 55.054
1.63 --undefined-- 54.376
1.64 --undefined-- 53.491
1.65 --undefined-- 54.433
1.66 229.272 62.591
1.67 226.229 69.138
1.68 219.267 72.463
1.69 209.616 73.412
1.70 198.120 73.000
1.71 185.095 72.127
1.72 179.732 71.418
1.73 179.934 70.985
1.74 181.864 70.624
1.75 181.642 70.291
1.76 180.740 70.083
1.77 179.436 69.924
1.78 178.527 69.679
1.79 179.066 69.526
1.80 182.184 69.816
1.81 187.024 70.623
1.82 192.304 71.697
1.83 197.030 72.671
1.84 202.401 73.227
1.85 209.119 73.412
1.86 216.659 73.551
1.87 225.559 73.776
1.88 234.276 73.845
1.89 239.593 73.035
1.90 239.543 71.053
1.91 238.357 69.491
1.92 237.223 68.762
1.93 237.109 68.062
1.94 248.372 68.925
1.95 277.481 71.039
1.96 289.175 72.322
1.97 293.753 72.592
1.98 294.770 72.461
1.99 297.286 72.331
2.00 150.938 72.300
2.01 153.143 72.381
2.02 154.542 72.352
2.03 153.055 71.505
2.04 296.257 69.124
2.05 279.364 64.842
2.06 265.908 59.122
2.07 286.693 53.798
2.08 --undefined-- 49.448
2.09 --undefined-- 47.178
2.10 --undefined-- 46.775
2.11 --undefined-- 47.990
2.12 --undefined-- 55.730
2.13 --undefined-- 65.154
2.14 --undefined-- 70.685
2.15 294.844 73.030
2.16 287.330 73.820
2.17 280.761 74.661
2.18 279.386 75.286
2.19 278.811 75.139
2.20 273.890 74.692
2.21 270.431 74.628
2.22 270.259 74.716
2.23 269.132 74.569
2.24 268.592 74.338
2.25 267.979 74.138
2.26 266.607 73.958
2.27 264.396 73.802
2.28 261.324 73.619
2.29 257.880 73.349
2.30 253.597 72.959
2.31 248.588 72.453
2.32 244.147 71.950
2.33 240.325 71.539
2.34 236.654 71.022
2.35 232.055 70.078
2.36 224.209 68.546
2.37 211.176 66.386
2.38 183.610 63.816
2.39 --undefined-- 61.859
2.40 --undefined-- 60.537
2.41 --undefined-- 58.983
2.42 --undefined-- 57.861
2.43 --undefined-- 57.693
2.44 --undefined-- 59.712
2.45 --undefined-- 61.702
2.46 --undefined-- 63.698
2.47 130.455 65.636
2.48 143.439 66.734
2.49 157.196 67.875
2.50 156.234 69.875
2.51 156.503 71.623
2.52 157.015 72.470
2.53 156.622 72.570
2.54 157.169 72.636
2.55 158.527 73.222
2.56 160.484 73.894
2.57 162.548 74.170
2.58 165.402 74.203
2.59 169.165 74.113
2.60 173.950 73.681
2.61 180.971 72.845
2.62 195.760 71.837
2.63 202.758 70.366
2.64 204.352 67.418
2.65 210.176 62.758
2.66 209.164 57.487
2.67 --undefined-- 52.485
2.68 --undefined-- 50.500
2.69 --undefined-- 52.131
2.70 --undefined-- 53.668
2.71 --undefined-- 56.902
2.72 277.535 65.524
2.73 265.133 71.293
2.74 253.854 73.845
2.75 238.357 74.301
2.76 226.757 73.788
2.77 221.436 72.887
2.78 219.340 72.139
2.79 218.915 71.742
2.80 218.661 71.114
2.81 218.672 70.195
2.82 217.665 70.120
2.83 219.603 71.383
2.84 221.640 72.381
2.85 220.695 72.590
2.86 221.007 72.391
2.87 223.543 71.780
2.88 221.409 70.964
2.89 219.954 70.622
2.90 217.867 70.660
2.91 216.431 70.651
2.92 215.361 70.169
2.93 210.827 68.876
2.94 204.450 67.214
2.95 199.132 66.111
2.96 194.824 65.641
2.97 189.383 65.322
2.98 180.401 65.161
2.99 174.485 65.363
3.00 168.589 65.536
3.01 163.077 65.543
3.02 158.876 65.595
3.03 154.439 65.664
3.04 150.437 65.652
3.05 144.839 65.530
3.06 140.696 65.316
3.07 136.687 64.792
3.08 136.062 63.603
3.09 139.968 61.996
3.10 146.233 61.127
3.11 148.284 61.669
3.12 154.633 63.233
3.13 154.481 64.573
3.14 161.651 65.512
3.15 163.189 66.120
3.16 162.632 66.509
3.17 162.731 67.103
3.18 165.104 67.880
3.19 168.694 68.620
3.20 170.546 69.281
3.21 163.856 69.733
3.22 157.681 69.822
3.23 149.529 69.592
3.24 138.289 69.255
3.25 131.342 68.908
3.26 125.666 68.413
3.27 124.555 67.776
3.28 126.178 67.363
3.29 128.721 67.426
3.30 133.251 68.026
3.31 136.745 68.891
3.32 139.380 69.607
3.33 144.293 69.894
3.34 152.586 69.699
3.35 160.168 69.401
3.36 164.431 69.478
3.37 166.405 69.948
3.38 166.685 70.606
3.39 167.118 71.298
3.40 166.521 71.702
3.41 148.733 71.836
3.42 149.326 72.100
3.43 150.092 72.261
3.44 151.346 72.702
3.45 152.107 73.546
3.46 152.100 73.955
3.47 151.209 73.867
3.48 148.958 73.606
3.49 291.187 72.934
3.50 282.638 72.025
3.51 274.437 71.592
3.52 263.337 70.780
3.53 247.728 69.351
3.54 233.366 68.270
3.55 222.335 68.029
3.56 205.529 69.146
3.57 190.254 71.576
3.58 176.588 73.800
3.59 170.278 74.714
3.60 163.691 74.402
3.61 160.344 73.622
3.62 154.668 73.552
3.63 154.680 74.691
3.64 154.565 75.538
3.65 152.849 75.323
3.66 150.395 74.230
3.67 150.299 72.609
3.68 149.728 70.740
3.69 146.171 69.001
3.70 138.823 67.844
3.71 137.110 67.205
3.72 --undefined-- 66.286
3.73 --undefined-- 64.665
3.74 --undefined-- 63.944
3.75 --undefined-- 67.578
3.76 219.890 70.978
3.77 215.166 72.544
3.78 211.057 73.150
3.79 207.262 73.250
3.80 205.445 73.120
3.81 205.946 73.145
3.82 207.471 73.275
3.83 210.570 73.414
3.84 214.092 73.272
3.85 217.075 72.771
3.86 220.002 72.393
3.87 220.672 72.163
3.88 218.738 71.046
3.89 213.648 68.680
3.90 213.075 66.319
3.91 211.538 65.200
3.92 210.020 65.148
3.93 211.562 66.585
3.94 214.850 68.809
3.95 214.250 70.181
3.96 212.389 70.500
3.97 210.917 70.358
3.98 209.940 70.164
3.99 209.568 70.081
4.00 209.287 70.130
4.01 209.045 70.263
4.02 209.541 70.471
4.03 210.163 70.645
4.04 210.190 70.694
4.05 209.895 70.642
4.06 209.369 70.469
4.07 208.896 70.086
4.08 208.880 69.333
4.09 209.694 67.891
4.10 210.170 65.413
4.11 205.709 62.279
4.12 202.645 59.688
4.13 200.021 58.055
4.14 201.142 56.214
4.15 202.693 52.804
4.16 --undefined-- 47.561
4.17 --undefined-- 44.640
4.18 --undefined-- 44.374
4.19 --undefined-- 43.037
4.20 --undefined-- 40.538
4.21 --undefined-- 39.761
4.22 --undefined-- 40.646
4.23 --undefined-- 40.608
4.24 --undefined-- 39.833
4.25 --undefined-- 41.216
4.26 --undefined-- 44.999
4.27 --undefined-- 50.029
4.28 --undefined-- 57.771
4.29 221.750 63.346
4.30 193.324 66.187
4.31 183.194 67.587
4.32 176.418 68.594
4.33 171.202 69.448
4.34 167.457 69.381
4.35 164.065 67.558
4.36 154.723 63.891
4.37 136.635 59.408
4.38 132.243 55.182
4.39 --undefined-- 50.267
4.40 --undefined-- 46.270
4.41 --undefined-- 43.752
4.42 --undefined-- 40.362
4.43 --undefined-- 37.137
4.44 --undefined-- 35.419
4.45 --undefined-- 34.017
4.46 --undefined-- 32.900
4.47 --undefined-- 31.571
4.48 --undefined-- 30.082
4.49 --undefined-- 29.741
4.50 --undefined-- 30.510
4.51 --undefined-- 30.539
4.52 --undefined-- 31.646
4.53 --undefined-- 37.398
4.54 --undefined-- 43.200
4.55 --undefined-- 51.724
4.56 --undefined-- 60.268
4.57 --undefined-- 65.991
4.58 158.755 69.252
4.59 156.692 70.515
4.60 147.396 70.648
4.61 141.587 70.369
4.62 138.177 69.464
4.63 131.974 68.169
4.64 130.089 67.330
4.65 128.468 66.782
4.66 128.442 66.168
4.67 127.570 65.517
4.68 128.082 64.854
4.69 127.961 64.460
4.70 121.216 64.814
4.71 122.259 65.765
4.72 123.276 66.318
4.73 123.412 66.309
4.74 123.676 66.181
4.75 123.847 66.200
4.76 124.118 66.309
4.77 124.633 66.425
4.78 125.234 66.600
4.79 125.495 66.831
4.80 126.203 67.024
4.81 127.286 67.122
4.82 128.600 67.105
4.83 129.606 67.000
4.84 129.607 66.891
4.85 129.180 66.900
4.86 128.550 66.999
4.87 127.908 67.058
4.88 127.189 67.032
4.89 126.590 66.954
4.90 126.026 66.821
4.91 125.958 66.675
4.92 126.423 66.695
4.93 126.943 66.876
4.94 127.690 67.052
4.95 128.389 67.130
4.96 129.035 67.138
4.97 129.889 67.094
4.98 130.329 66.962
4.99 130.178 66.709
5.00 129.160 66.207
5.01 126.259 65.213
5.02 120.999 63.645
5.03 118.622 61.922
5.04 125.985 59.821
5.05 133.621 56.385
5.06 --undefined-- 51.434
5.07 --undefined-- 46.427
5.08 --undefined-- 43.309
5.09 --undefined-- 42.743
5.10 --undefined-- 42.588
5.11 --undefined-- 40.961
5.12 --undefined-- 39.594
5.13 --undefined-- 40.615
5.14 --undefined-- 47.948
5.15 --undefined-- 60.171
5.16 --undefined-- 68.371
5.17 221.207 72.548
5.18 222.651 73.783
5.19 222.228 73.335
5.20 222.650 72.848
5.21 223.285 72.936
5.22 221.240 72.348
5.23 182.135 70.445
5.24 178.715 68.610
5.25 176.155 68.043
5.26 173.895 68.169
5.27 171.917 68.405
5.28 169.816 68.409
5.29 166.863 68.238
5.30 162.116 68.301
5.31 158.429 68.990
5.32 154.978 70.825
5.33 210.209 73.422
5.34 207.225 74.601
5.35 202.544 74.131
5.36 200.688 73.206
5.37 199.632 --undefined--
5.38 201.645 --undefined--
5.39 --undefined-- --undefined--
5.40 --undefined-- --undefined--
