Time Pitch Intensity
0.01 --undefined-- --undefined--
0.02 --undefined-- --undefined--
0.03 --undefined-- --undefined--
0.04 166.166 --undefined--
0.05 159.215 71.610
0.06 151.152 70.767
0.07 143.980 68.364
0.08 138.095 65.038
0.09 132.255 61.738
0.10 134.660 59.659
0.11 142.847 58.757
0.12 142.916 58.729
0.13 139.500 58.761
0.14 --undefined-- 59.750
0.15 119.680 61.205
0.16 120.475 61.862
0.17 120.958 61.974
0.18 121.912 61.967
0.19 123.773 62.030
0.20 124.152 62.183
0.21 125.146 62.111
0.22 125.848 61.534
0.23 126.612 60.350
0.24 127.294 58.317
0.25 126.395 55.110
0.26 --undefined-- 51.435
0.27 --undefined-- 55.133
0.28 --undefined-- 61.898
0.29 --undefined-- 65.204
0.30 --undefined-- 65.737
0.31 --undefined-- 67.340
0.32 144.044 70.604
0.33 146.699 72.339
0.34 149.882 72.518
0.35 151.547 71.912
0.36 150.754 71.135
0.37 149.812 70.756
0.38 149.397 70.825
0.39 148.897 70.835
0.40 149.224 70.634
0.41 149.368 70.439
0.42 150.147 70.323
0.43 150.608 69.885
0.44 151.685 69.005
0.45 154.223 67.816
0.46 156.249 65.822
0.47 154.877 62.121
0.48 151.189 56.954
0.49 --undefined-- 58.910
0.50 --undefined-- 62.882
0.51 --undefined-- 64.237
0.52 --undefined-- 66.677
0.53 165.723 70.384
0.54 166.167 72.337
0.55 166.984 72.763
0.56 170.003 72.641
0.57 172.505 72.460
0.58 175.879 72.442
0.59 178.795 72.288
0.60 181.720 71.824
0.61 183.288 71.416
0.62 183.592 71.247
0.63 181.834 71.226
0.64 178.759 71.124
0.65 174.864 70.921
0.66 171.121 70.587
0.67 166.212 70.152
0.68 160.694 70.095
0.69 156.163 70.507
0.70 153.066 70.926
0.71 151.331 70.806
0.72 150.998 69.843
0.73 152.103 68.158
0.74 151.626 65.764
0.75 148.328 62.027
0.76 147.890 56.714
0.77 151.079 52.474
0.78 149.708 50.332
0.79 --undefined-- 47.495
0.80 --undefined-- 44.605
0.81 --undefined-- 42.244
0.82 --undefined-- 40.742
0.83 --undefined-- 48.073
0.84 --undefined-- 55.468
0.85 --undefined-- 58.981
0.86 --undefined-- 62.285
0.87 215.001 67.295
0.88 208.117 70.254
0.89 202.485 70.523
0.90 199.982 68.306
0.91 200.306 65.176
0.92 207.205 66.537
0.93 202.750 68.739
0.94 194.797 68.999
0.95 187.089 67.998
0.96 182.883 66.320
0.97 180.416 63.693
0.98 179.535 60.194
0.99 188.895 56.723
1.00 --undefined-- 53.703
1.01 --undefined-- 50.769
1.02 --undefined-- 49.686
1.03 --undefined-- 52.399
1.04 --undefined-- 58.209
1.05 --undefined-- 65.122
1.06 --undefined-- 69.492
1.07 --undefined-- 71.119
1.08 162.659 71.113
1.09 155.180 70.684
1.10 149.365 70.136
1.11 144.579 69.620
1.12 140.977 68.972
1.13 138.365 67.512
1.14 136.346 64.985
1.15 135.135 61.744
1.16 135.272 59.055
1.17 142.129 60.025
1.18 139.954 62.103
1.19 137.389 62.191
1.20 131.979 59.803
1.21 --undefined-- 56.158
1.22 --undefined-- 55.670
1.23 --undefined-- 57.584
1.24 --undefined-- 57.738
1.25 --undefined-- 55.282
1.26 --undefined-- 52.879
1.27 --undefined-- 54.546
1.28 --undefined-- 57.118
1.29 --undefined-- 63.454
1.30 --undefined-- 69.254
1.31 --undefined-- 71.712
1.32 --undefined-- 71.068
1.33 --undefined-- 68.333
1.34 --undefined-- 65.581
1.35 --undefined-- 63.167
1.36 --undefined-- 59.806
1.37 --undefined-- 56.444
1.38 --undefined-- 53.602
1.39 --undefined-- 50.642
1.40 --undefined-- 46.592
1.41 --undefined-- 43.236
1.42 --undefined-- 42.194
1.43 --undefined-- 41.864
1.44 --undefined-- 40.894
1.45 --undefined-- 40.245
1.46 --undefined-- 41.705
1.47 --undefined-- 43.902
1.48 --undefined-- 45.917
1.49 --undefined-- 47.406
1.50 --undefined-- 48.094
1.51 --undefined-- 48.357
1.52 --undefined-- 49.937
1.53 --undefined-- 52.095
1.54 --undefined-- 52.331
1.55 --undefined-- 51.272
1.56 --undefined-- 52.566
1.57 --undefined-- 55.893
1.58 145.976 58.893
1.59 145.109 61.110
1.60 144.857 62.376
1.61 145.836 62.882
1.62 146.657 62.873
1.63 147.626 62.433
1.64 149.358 61.708
1.65 151.028 60.691
1.66 152.466 59.136
1.67 154.431 57.385
1.68 --undefined-- 59.128
1.69 174.132 63.892
1.70 175.276 68.063
1.71 176.952 70.891
1.72 175.770 72.149
1.73 173.297 71.839
1.74 167.009 70.545
1.75 162.454 69.646
1.76 160.450 69.701
1.77 159.755 69.760
1.78 159.976 69.369
1.79 160.623 68.509
1.80 161.044 67.244
1.81 161.223 65.950
1.82 160.961 64.574
1.83 160.501 62.031
1.84 160.555 57.322
1.85 160.988 50.610
1.86 --undefined-- 46.438
1.87 --undefined-- 50.988
1.88 --undefined-- 55.829
1.89 --undefined-- 58.234
1.90 --undefined-- 61.995
1.91 --undefined-- 66.770
1.92 249.945 69.177
1.93 259.953 69.316
1.94 269.195 68.329
1.95 275.415 66.061
1.96 84.847 64.033
1.97 98.902 63.845
1.98 --undefined-- 64.567
1.99 176.791 66.415
2.00 173.361 67.879
2.01 170.783 67.480
2.02 166.366 64.974
2.03 160.947 60.298
2.04 158.501 53.655
2.05 --undefined-- 47.944
2.06 --undefined-- 52.551
2.07 --undefined-- 61.519
2.08 157.474 67.427
2.09 155.331 69.944
2.10 151.120 69.425
2.11 147.587 65.931
2.12 --undefined-- 59.156
2.13 --undefined-- 49.617
2.14 --undefined-- 43.436
2.15 --undefined-- 40.593
2.16 --undefined-- 39.727
2.17 --undefined-- 40.450
2.18 --undefined-- 40.593
2.19 --undefined-- 40.012
2.20 --undefined-- 40.313
2.21 --undefined-- 46.518
2.22 --undefined-- 56.714
2.23 --undefined-- 64.972
2.24 --undefined-- 70.311
2.25 185.555 72.860
2.26 185.657 73.462
2.27 182.162 73.318
2.28 179.673 73.280
2.29 177.452 73.508
2.30 175.269 73.687
2.31 173.493 73.444
2.32 171.310 72.765
2.33 168.822 71.864
2.34 166.322 70.741
2.35 163.309 69.351
2.36 160.698 67.983
2.37 159.306 66.811
2.38 159.051 66.111
2.39 161.742 66.915
2.40 164.526 69.186
2.41 166.529 71.442
2.42 166.691 72.598
2.43 165.405 72.243
2.44 163.528 70.090
2.45 160.981 65.652
2.46 164.543 58.594
2.47 165.247 51.200
2.48 165.260 48.390
2.49 --undefined-- 46.016
2.50 --undefined-- 43.095
2.51 --undefined-- 44.217
2.52 --undefined-- 51.531
2.53 --undefined-- 57.836
2.54 --undefined-- 62.032
2.55 180.468 65.463
2.56 165.583 67.400
2.57 155.255 67.314
2.58 147.065 65.757
2.59 140.808 63.619
2.60 134.966 61.511
2.61 129.942 60.048
2.62 127.011 59.200
2.63 122.851 58.277
2.64 120.580 56.909
2.65 119.408 55.041
2.66 --undefined-- 54.311
2.67 --undefined-- 55.094
2.68 --undefined-- 56.322
2.69 --undefined-- 57.357
2.70 --undefined-- 57.662
2.71 --undefined-- 58.527
2.72 109.438 59.930
2.73 115.152 61.547
2.74 116.646 64.142
2.75 115.076 66.057
2.76 115.394 66.502
2.77 115.501 65.867
2.78 115.289 64.591
2.79 112.832 62.661
2.80 113.278 59.784
2.81 --undefined-- 55.938
2.82 --undefined-- 51.553
2.83 --undefined-- 47.806
2.84 --undefined-- 44.267
2.85 --undefined-- 40.254
2.86 --undefined-- 39.296
2.87 --undefined-- 40.667
2.88 --undefined-- 41.339
2.89 --undefined-- 40.616
2.90 --undefined-- 39.587
2.91 --undefined-- 39.585
2.92 --undefined-- 39.953
2.93 --undefined-- 39.564
2.94 --undefined-- 38.761
2.95 --undefined-- 39.065
2.96 --undefined-- 39.843
2.97 --undefined-- 40.525
2.98 --undefined-- 41.625
2.99 --undefined-- 42.353
3.00 --undefined-- 42.570
3.01 --undefined-- 43.159
3.02 --undefined-- 44.011
3.03 --undefined-- 44.308
3.04 --undefined-- 44.161
3.05 --undefined-- 44.423
3.06 --undefined-- 44.489
3.07 --undefined-- 48.088
3.08 --undefined-- 55.188
3.09 --undefined-- 58.440
3.10 --undefined-- 57.212
3.11 --undefined-- 51.625
3.12 --undefined-- 44.485
3.13 --undefined-- 42.164
3.14 --undefined-- 41.911
3.15 --undefined-- 42.819
3.16 --undefined-- 43.643
3.17 --undefined-- 43.256
3.18 --undefined-- 41.169
3.19 --undefined-- 39.107
3.20 --undefined-- 39.490
3.21 --undefined-- 40.169
3.22 --undefined-- 44.778
3.23 --undefined-- 55.568
3.24 --undefined-- 64.435
3.25 227.284 70.016
3.26 224.958 72.369
3.27 224.929 71.517
3.28 222.341 67.679
3.29 241.071 64.877
3.30 249.710 66.473
3.31 261.944 68.109
3.32 273.446 69.138
3.33 287.664 69.651
3.34 295.408 69.617
3.35 290.075 68.857
3.36 276.829 67.835
3.37 260.228 67.011
3.38 247.662 65.543
3.39 229.506 62.646
3.40 244.533 58.537
3.41 252.668 54.514
3.42 240.201 52.481
3.43 --undefined-- 50.465
3.44 --undefined-- 47.905
3.45 --undefined-- 49.159
3.46 --undefined-- 54.863
3.47 --undefined-- 59.442
3.48 --undefined-- 65.001
3.49 --undefined-- 70.295
3.50 183.050 72.756
3.51 183.469 72.702
3.52 187.166 71.976
3.53 192.907 71.944
3.54 198.311 71.956
3.55 202.556 71.697
3.56 203.240 70.776
3.57 201.085 68.153
3.58 195.416 62.929
3.59 192.781 55.120
3.60 --undefined-- 50.291
3.61 --undefined-- 55.614
3.62 --undefined-- 60.245
3.63 --undefined-- 62.403
3.64 151.978 63.110
3.65 145.712 63.101
3.66 141.419 62.841
3.67 140.654 63.411
3.68 142.125 64.759
3.69 144.058 65.548
3.70 147.687 65.637
3.71 152.985 65.851
3.72 157.375 66.326
3.73 163.075 66.409
3.74 176.555 66.629
3.75 185.292 66.945
3.76 187.821 66.356
3.77 184.432 64.995
3.78 176.595 63.873
3.79 166.886 63.839
3.80 158.959 64.426
3.81 151.577 64.403
3.82 144.098 62.683
3.83 --undefined-- 58.348
3.84 --undefined-- 51.289
3.85 --undefined-- 49.706
3.86 --undefined-- 55.480
3.87 --undefined-- 58.571
3.88 --undefined-- 58.748
3.89 --undefined-- 58.461
3.90 --undefined-- 59.473
3.91 --undefined-- 61.709
3.92 --undefined-- 65.612
3.93 --undefined-- 69.020
3.94 --undefined-- 70.373
3.95 --undefined-- 69.589
3.96 --undefined-- 67.643
3.97 146.674 66.175
3.98 147.118 64.727
3.99 149.595 61.976
4.00 152.176 57.773
4.01 --undefined-- 52.315
4.02 --undefined-- 49.214
4.03 --undefined-- 52.582
4.04 --undefined-- 54.721
4.05 --undefined-- 54.373
4.06 --undefined-- 54.824
4.07 195.786 60.978
4.08 187.066 66.439
4.09 179.614 69.563
4.10 172.979 70.536
4.11 167.756 69.753
4.12 168.190 67.407
4.13 168.723 64.009
4.14 168.129 61.098
4.15 --undefined-- 59.274
4.16 --undefined-- 59.691
4.17 --undefined-- 63.001
4.18 257.193 63.943
4.19 256.740 60.842
4.20 --undefined-- 54.284
4.21 --undefined-- 55.565
4.22 --undefined-- 60.558
4.23 75.702 63.564
4.24 75.931 66.202
4.25 86.571 68.208
4.26 101.598 68.865
4.27 --undefined-- 68.336
4.28 134.690 67.616
4.29 135.602 67.728
4.30 132.361 68.010
4.31 129.562 67.767
4.32 128.113 67.096
4.33 128.186 65.482
4.34 --undefined-- 62.407
4.35 --undefined-- 57.009
4.36 --undefined-- 49.444
4.37 --undefined-- 43.342
4.38 --undefined-- 43.241
4.39 --undefined-- 48.181
4.40 --undefined-- 55.225
4.41 --undefined-- 60.889
4.42 --undefined-- 64.021
4.43 --undefined-- 65.697
4.44 --undefined-- 65.870
4.45 --undefined-- 64.333
4.46 --undefined-- 62.527
4.47 --undefined-- 60.477
4.48 --undefined-- 57.852
4.49 --undefined-- 57.633
4.50 --undefined-- 60.192
4.51 --undefined-- 62.968
4.52 76.648 64.156
4.53 76.985 65.211
4.54 --undefined-- 67.259
4.55 82.527 67.825
4.56 82.582 66.031
4.57 --undefined-- 61.893
4.58 --undefined-- 56.148
4.59 --undefined-- 51.384
4.60 --undefined-- 47.129
4.61 --undefined-- 44.143
4.62 --undefined-- 41.001
4.63 --undefined-- 39.271
4.64 --undefined-- 40.713
4.65 --undefined-- 42.514
4.66 --undefined-- 44.372
4.67 --undefined-- 45.992
4.68 --undefined-- 46.910
4.69 --undefined-- 47.820
4.70 --undefined-- 48.551
4.71 --undefined-- 49.295
4.72 --undefined-- 50.096
4.73 --undefined-- 50.046
4.74 --undefined-- 49.734
4.75 --undefined-- 49.514
4.76 --undefined-- 49.760
4.77 --undefined-- 50.692
4.78 --undefined-- 51.062
4.79 --undefined-- 51.140
4.80 --undefined-- 51.115
4.81 --undefined-- 50.742
4.82 --undefined-- 50.804
4.83 --undefined-- 51.257
4.84 --undefined-- 51.444
4.85 --undefined-- 51.178
4.86 --undefined-- 50.583
4.87 --undefined-- 49.990
4.88 --undefined-- 49.976
4.89 --undefined-- 50.713
4.90 --undefined-- 50.819
4.91 --undefined-- 49.929
4.92 --undefined-- 48.092
4.93 --undefined-- 44.896
4.94 --undefined-- 41.291
4.95 --undefined-- 39.484
4.96 --undefined-- 39.103
4.97 --undefined-- 38.729
4.98 --undefined-- 39.086
4.99 --undefined-- 50.444
5.00 --undefined-- 61.551
5.01 --undefined-- 67.844
5.02 --undefined-- 70.105
5.03 --undefined-- 69.032
5.04 150.680 66.196
5.05 148.843 63.987
5.06 148.289 63.038
5.07 147.705 62.848
5.08 144.329 62.409
5.09 142.920 61.609
5.10 141.722 60.411
5.11 141.305 58.905
5.12 --undefined-- 57.176
5.13 --undefined-- 56.756
5.14 --undefined-- 57.111
5.15 --undefined-- 56.013
5.16 --undefined-- 54.744
5.17 --undefined-- 54.557
5.18 --undefined-- 55.248
5.19 --undefined-- 56.019
5.20 --undefined-- 58.621
5.21 --undefined-- 64.943
5.22 --undefined-- 69.295
5.23 147.416 70.481
5.24 145.170 69.492
5.25 141.681 67.828
5.26 140.275 66.184
5.27 139.022 64.567
5.28 136.645 62.265
5.29 132.973 59.334
5.30 132.577 57.737
5.31 132.616 56.358
5.32 --undefined-- 53.727
5.33 --undefined-- 53.779
5.34 --undefined-- 56.963
5.35 --undefined-- 61.329
5.36 157.764 65.180
5.37 154.563 66.948
5.38 152.830 66.524
5.39 151.536 64.021
5.40 150.995 59.568
5.41 --undefined-- 54.512
5.42 --undefined-- 54.339
5.43 --undefined-- 54.540
5.44 --undefined-- 53.144
5.45 --undefined-- 56.217
5.46 --undefined-- --undefined--
5.47 197.265 --undefined--
5.48 --undefined-- --undefined--
5.49 --undefined-- --undefined--
