Time Pitch Intensity
0.01 --undefined-- --undefined--
0.02 157.190 --undefined--
0.03 158.049 --undefined--
0.04 159.401 --undefined--
0.05 161.197 76.495
0.06 162.857 76.035
0.07 164.323 75.035
0.08 165.155 73.082
0.09 162.457 69.956
0.10 146.255 65.603
0.11 151.787 61.016
0.12 163.894 57.297
0.13 --undefined-- 53.072
0.14 --undefined-- 48.060
0.15 --undefined-- 45.809
0.16 --undefined-- 50.040
0.17 --undefined-- 56.248
0.18 --undefined-- 62.751
0.19 169.320 68.805
0.20 160.844 73.006
0.21 160.454 75.350
0.22 161.424 76.238
0.23 169.067 75.778
0.24 180.751 74.146
0.25 187.971 71.928
0.26 188.818 69.911
0.27 202.239 69.342
0.28 213.733 69.551
0.29 222.363 69.979
0.30 228.727 70.929
0.31 227.923 72.564
0.32 223.155 75.013
0.33 218.427 77.240
0.34 212.138 78.428
0.35 202.211 79.177
0.36 195.025 79.755
0.37 188.245 79.206
0.38 181.571 77.026
0.39 176.174 74.103
0.40 170.697 72.341
0.41 167.827 71.667
0.42 164.104 71.166
0.43 160.121 70.545
0.44 155.440 69.761
0.45 149.756 69.344
0.46 147.535 71.076
0.47 143.263 74.332
0.48 142.291 76.583
0.49 140.461 76.962
0.50 133.825 75.782
0.51 129.319 74.083
0.52 123.824 72.340
0.53 120.632 69.578
0.54 --undefined-- 64.644
0.55 --undefined-- 57.003
0.56 --undefined-- 48.551
0.57 --undefined-- 44.777
0.58 --undefined-- 42.366
0.59 --undefined-- 40.668
0.60 --undefined-- 41.907
0.61 --undefined-- 52.878
0.62 --undefined-- 63.015
0.63 --undefined-- 69.238
0.64 153.383 72.445
0.65 146.030 74.045
0.66 140.163 75.110
0.67 136.482 75.945
0.68 134.984 76.423
0.69 134.945 76.443
0.70 134.841 76.234
0.71 133.770 76.120
0.72 132.531 76.115
0.73 132.056 76.062
0.74 132.662 75.884
0.75 132.472 75.540
0.76 132.938 74.932
0.77 133.047 73.752
0.78 129.305 71.500
0.79 124.990 68.607
0.80 126.281 66.454
0.81 121.004 64.591
0.82 123.647 62.681
0.83 81.275 60.191
0.84 --undefined-- 56.783
0.85 --undefined-- 53.743
0.86 --undefined-- 51.582
0.87 --undefined-- 49.167
0.88 --undefined-- 45.851
0.89 --undefined-- 46.292
0.90 --undefined-- 49.378
0.91 --undefined-- 51.481
0.92 --undefined-- 51.720
0.93 --undefined-- 50.134
0.94 --undefined-- 47.667
0.95 --undefined-- 45.677
0.96 --undefined-- 45.507
0.97 --undefined-- 47.597
0.98 --undefined-- 49.153
0.99 --undefined-- 49.001
1.00 --undefined-- 48.296
1.01 --undefined-- 47.240
1.02 --undefined-- 48.330
1.03 --undefined-- 50.603
1.04 --undefined-- 52.070
1.05 --undefined-- 53.824
1.06 --undefined-- 56.384
1.07 110.574 59.563
1.08 111.555 62.804
1.09 --undefined-- 65.691
1.10 --undefined-- 68.071
1.11 136.492 70.320
1.12 140.969 72.539
1.13 142.134 74.039
1.14 137.955 74.954
1.15 138.495 76.157
1.16 139.269 77.262
1.17 140.493 77.852
1.18 143.513 78.349
1.19 145.622 78.732
1.20 148.326 78.386
1.21 151.763 77.537
1.22 153.635 76.489
1.23 156.398 75.278
1.24 156.415 74.697
1.25 153.902 74.741
1.26 149.606 74.760
1.27 145.509 74.766
1.28 143.854 75.493
1.29 140.990 77.175
1.30 139.291 78.006
1.31 135.333 77.142
1.32 131.825 75.954
1.33 130.771 75.706
1.34 130.206 75.376
1.35 130.842 74.517
1.36 132.670 73.558
1.37 137.219 73.026
1.38 140.997 72.787
1.39 142.905 71.883
1.40 144.108 70.338
1.41 149.657 69.755
1.42 153.168 69.904
1.43 152.982 70.028
1.44 149.389 70.130
1.45 144.165 70.315
1.46 145.540 71.003
1.47 132.750 71.727
1.48 127.761 71.316
1.49 113.153 69.803
1.50 109.264 68.205
1.51 107.064 66.892
1.52 104.286 65.931
1.53 105.607 65.617
1.54 108.192 65.709
1.55 109.435 65.936
1.56 110.998 66.083
1.57 111.594 65.598
1.58 109.656 63.747
1.59 102.369 59.933
1.60 --undefined-- 54.176
1.61 --undefined-- 47.712
1.62 --undefined-- 43.360
1.63 --undefined-- 44.717
1.64 --undefined-- 54.072
1.65 --undefined-- 62.030
1.66 145.949 66.432
1.67 130.982 68.082
1.68 121.529 68.113
1.69 117.769 67.636
1.70 116.597 67.025
1.71 112.762 66.482
1.72 115.306 66.385
1.73 115.171 66.629
1.74 116.469 67.165
1.75 119.486 67.992
1.76 123.257 68.725
1.77 124.271 69.156
1.78 129.616 70.071
1.79 135.332 71.438
1.80 143.505 72.945
1.81 148.884 74.957
1.82 150.452 76.735
1.83 151.071 77.531
1.84 154.497 77.480
1.85 149.743 77.021
1.86 148.593 76.361
1.87 148.285 75.782
1.88 147.534 75.613
1.89 147.527 75.755
1.90 148.656 75.806
1.91 149.747 75.464
1.92 149.631 74.473
1.93 148.010 72.493
1.94 144.978 69.345
1.95 --undefined-- 65.343
1.96 --undefined-- 61.114
1.97 --undefined-- 56.776
1.98 --undefined-- 52.176
1.99 --undefined-- 47.443
2.00 --undefined-- 42.001
2.01 --undefined-- 38.135
2.02 --undefined-- 38.598
2.03 --undefined-- 39.752
2.04 --undefined-- 40.057
2.05 --undefined-- 39.664
2.06 --undefined-- 39.557
2.07 --undefined-- 39.773
2.08 --undefined-- 39.003
2.09 --undefined-- 38.877
2.10 --undefined-- 45.888
2.11 --undefined-- 53.052
2.12 --undefined-- 56.406
2.13 --undefined-- 56.484
2.14 --undefined-- 55.919
2.15 --undefined-- 57.245
2.16 --undefined-- 60.800
2.17 --undefined-- 65.231
2.18 139.478 67.672
2.19 133.706 68.095
2.20 130.920 67.853
2.21 128.125 67.732
2.22 126.732 67.395
2.23 128.119 67.266
2.24 134.247 68.267
2.25 140.424 69.627
2.26 146.433 70.589
2.27 151.635 71.008
2.28 156.857 71.014
2.29 161.844 71.145
2.30 163.102 71.259
2.31 160.540 70.185
2.32 153.619 67.129
2.33 145.045 61.867
2.34 --undefined-- 54.970
2.35 --undefined-- 50.348
2.36 --undefined-- 49.855
2.37 --undefined-- 53.962
2.38 --undefined-- 63.665
2.39 212.153 70.518
2.40 181.982 74.361
2.41 176.128 76.186
2.42 174.163 76.547
2.43 174.564 75.623
2.44 175.961 73.677
2.45 174.896 71.664
2.46 174.882 71.010
2.47 173.136 71.140
2.48 169.438 71.137
2.49 163.916 70.818
2.50 156.988 70.245
2.51 151.079 69.280
2.52 144.881 67.727
2.53 131.735 66.413
2.54 123.157 66.180
2.55 118.090 66.549
2.56 114.125 66.840
2.57 111.668 66.823
2.58 108.468 66.662
2.59 108.705 66.769
2.60 111.358 67.318
2.61 115.005 67.684
2.62 117.613 67.002
2.63 115.525 64.717
2.64 111.960 60.753
2.65 --undefined-- 56.328
2.66 --undefined-- 58.374
2.67 --undefined-- 62.788
2.68 --undefined-- 64.338
2.69 --undefined-- 63.323
2.70 --undefined-- 60.841
2.71 --undefined-- 61.110
2.72 177.222 67.703
2.73 182.791 73.051
2.74 183.015 76.322
2.75 180.119 77.856
2.76 180.512 77.988
2.77 185.563 77.566
2.78 189.480 77.658
2.79 192.009 78.304
2.80 194.664 78.643
2.81 197.709 77.820
2.82 199.160 75.388
2.83 192.502 71.259
2.84 84.670 66.241
2.85 81.375 62.713
2.86 --undefined-- 59.894
2.87 --undefined-- 55.854
2.88 --undefined-- 51.118
2.89 --undefined-- 46.475
2.90 --undefined-- 41.838
2.91 --undefined-- 41.008
2.92 --undefined-- 40.003
2.93 --undefined-- 37.721
2.94 --undefined-- 38.021
2.95 --undefined-- 39.051
2.96 --undefined-- 38.770
2.97 --undefined-- 37.853
2.98 --undefined-- 36.981
2.99 --undefined-- 37.641
3.00 --undefined-- 39.074
3.01 --undefined-- 39.074
3.02 --undefined-- 39.422
3.03 --undefined-- 39.967
3.04 --undefined-- 39.060
3.05 --undefined-- 37.496
3.06 --undefined-- 37.027
3.07 --undefined-- 37.989
3.08 --undefined-- 38.943
3.09 --undefined-- 39.515
3.10 --undefined-- 39.506
3.11 --undefined-- 38.683
3.12 --undefined-- 38.578
3.13 --undefined-- 39.728
3.14 --undefined-- 40.520
3.15 --undefined-- 40.705
3.16 --undefined-- 40.889
3.17 --undefined-- 41.884
3.18 --undefined-- 43.311
3.19 --undefined-- 43.397
3.20 --undefined-- 42.159
3.21 --undefined-- 41.496
3.22 --undefined-- 41.701
3.23 --undefined-- 41.565
3.24 --undefined-- 41.783
3.25 --undefined-- 42.710
3.26 --undefined-- 43.442
3.27 --undefined-- 43.953
3.28 --undefined-- 44.130
3.29 --undefined-- 44.302
3.30 --undefined-- 44.488
3.31 --undefined-- 43.751
3.32 --undefined-- 42.615
3.33 --undefined-- 42.134
3.34 --undefined-- 45.895
3.35 --undefined-- 51.658
3.36 --undefined-- 53.827
3.37 --undefined-- 51.759
3.38 --undefined-- 45.351
3.39 --undefined-- 37.131
3.40 --undefined-- 42.867
3.41 --undefined-- 56.738
3.42 --undefined-- 66.909
3.43 197.312 73.546
3.44 199.218 77.443
3.45 196.086 79.114
3.46 193.821 78.799
3.47 189.579 76.266
3.48 151.568 71.011
3.49 142.138 63.193
3.50 --undefined-- 55.445
3.51 --undefined-- 49.586
3.52 --undefined-- 49.244
3.53 --undefined-- 58.489
3.54 --undefined-- 66.639
3.55 174.396 72.168
3.56 170.086 75.553
3.57 164.711 77.608
3.58 157.696 78.901
3.59 152.075 80.087
3.60 150.033 81.508
3.61 148.599 82.508
3.62 146.957 82.709
3.63 145.668 82.375
3.64 145.151 81.958
3.65 145.752 81.649
3.66 146.590 81.444
3.67 148.637 81.382
3.68 151.074 81.344
3.69 153.789 81.220
3.70 155.806 81.100
3.71 157.108 80.879
3.72 157.262 80.373
3.73 156.656 79.456
3.74 154.361 77.910
3.75 147.902 75.700
3.76 144.989 72.594
3.77 137.151 68.131
3.78 136.846 63.327
3.79 144.884 59.632
3.80 --undefined-- 55.268
3.81 --undefined-- 49.060
3.82 --undefined-- 44.109
3.83 --undefined-- 42.357
3.84 --undefined-- 41.815
3.85 --undefined-- 41.532
3.86 --undefined-- 41.691
3.87 --undefined-- 41.850
3.88 --undefined-- 40.853
3.89 --undefined-- 39.492
3.90 --undefined-- 38.403
3.91 --undefined-- 37.457
3.92 --undefined-- 37.708
3.93 --undefined-- 39.672
3.94 --undefined-- 41.361
3.95 --undefined-- 41.857
3.96 --undefined-- 41.447
3.97 --undefined-- 40.186
3.98 --undefined-- 43.146
3.99 --undefined-- 50.677
4.00 --undefined-- 55.406
4.01 136.601 57.386
4.02 130.926 58.004
4.03 127.738 58.202
4.04 127.768 58.227
4.05 134.140 58.970
4.06 139.832 61.637
4.07 159.602 66.615
4.08 184.117 71.682
4.09 191.797 75.938
4.10 197.691 79.322
4.11 200.268 81.554
4.12 202.614 82.814
4.13 206.314 83.522
4.14 209.783 83.876
4.15 212.688 83.684
4.16 214.291 82.526
4.17 214.783 79.967
4.18 213.800 76.243
4.19 212.825 74.467
4.20 214.477 74.910
4.21 213.796 75.046
4.22 214.283 74.788
4.23 214.503 74.474
4.24 213.359 74.159
4.25 211.942 73.926
4.26 211.821 73.730
4.27 210.505 73.030
4.28 203.051 71.136
4.29 188.760 67.652
4.30 179.145 62.550
4.31 --undefined-- 55.944
4.32 --undefined-- 49.760
4.33 --undefined-- 46.571
4.34 --undefined-- 47.839
4.35 --undefined-- 51.939
4.36 --undefined-- 61.169
4.37 --undefined-- 68.168
4.38 --undefined-- 71.637
4.39 --undefined-- 72.458
4.40 --undefined-- 71.627
4.41 121.779 70.265
4.42 114.266 69.244
4.43 112.810 68.841
4.44 110.741 68.613
4.45 108.265 68.272
4.46 106.430 67.941
4.47 105.119 67.756
4.48 104.684 67.646
4.49 103.740 67.563
4.50 102.647 67.512
4.51 102.644 67.373
4.52 102.621 67.032
4.53 99.203 66.329
4.54 96.013 65.104
4.55 95.169 63.506
4.56 95.313 62.211
4.57 105.222 61.616
4.58 --undefined-- 60.732
4.59 --undefined-- 58.590
4.60 --undefined-- 55.265
4.61 --undefined-- 50.765
4.62 --undefined-- 47.275
4.63 --undefined-- 45.238
4.64 --undefined-- 42.721
4.65 --undefined-- 44.681
4.66 --undefined-- 46.130
4.67 --undefined-- 44.368
4.68 --undefined-- 40.200
4.69 --undefined-- 37.178
4.70 --undefined-- 36.821
4.71 --undefined-- 37.721
4.72 --undefined-- 39.174
4.73 --undefined-- 41.436
4.74 --undefined-- 51.439
4.75 --undefined-- 62.533
4.76 --undefined-- 69.611
4.77 157.284 73.844
4.78 149.342 76.062
4.79 143.777 76.568
4.80 138.510 75.732
4.81 138.394 74.060
4.82 138.582 72.357
4.83 137.155 71.559
4.84 135.136 71.318
4.85 132.182 70.963
4.86 129.768 70.476
4.87 128.582 70.074
4.88 128.543 69.845
4.89 128.574 69.639
4.90 128.373 69.281
4.91 126.928 68.680
4.92 124.978 67.874
4.93 126.640 67.872
4.94 138.754 70.055
4.95 126.997 72.440
4.96 125.539 73.720
4.97 125.022 73.800
4.98 125.950 72.942
4.99 134.263 72.173
5.00 138.799 72.478
5.01 140.508 73.516
5.02 142.541 74.534
5.03 145.564 74.998
5.04 147.509 74.328
5.05 148.281 71.840
5.06 146.875 66.823
5.07 --undefined-- 59.411
5.08 --undefined-- 51.560
5.09 --undefined-- 47.465
5.10 --undefined-- 45.910
5.11 --undefined-- 47.156
5.12 --undefined-- 55.110
5.13 --undefined-- 64.964
5.14 --undefined-- 71.505
5.15 --undefined-- 75.144
5.16 177.270 77.101
5.17 174.190 78.099
5.18 172.637 78.547
5.19 171.611 78.303
5.20 171.094 77.241
5.21 170.428 75.786
5.22 170.745 74.121
5.23 167.568 72.605
5.24 161.753 71.527
5.25 155.863 70.194
5.26 153.165 69.439
5.27 150.162 70.885
5.28 135.036 71.815
5.29 133.327 71.369
5.30 129.943 70.586
5.31 127.264 70.255
5.32 127.224 70.337
5.33 127.752 69.938
5.34 126.165 68.369
5.35 120.951 66.407
5.36 128.580 66.128
5.37 134.077 66.773
5.38 137.675 67.552
5.39 139.851 67.667
5.40 139.375 66.288
5.41 137.446 63.080
5.42 --undefined-- 58.454
5.43 --undefined-- 57.273
5.44 --undefined-- 65.871
5.45 --undefined-- 72.489
5.46 --undefined-- 76.300
5.47 150.213 78.050
5.48 143.401 78.230
5.49 138.898 77.677
5.50 138.402 77.569
5.51 138.682 78.063
5.52 138.273 78.484
5.53 136.788 78.318
5.54 135.813 77.467
5.55 135.699 76.212
5.56 135.986 75.226
5.57 135.615 74.839
5.58 135.998 74.450
5.59 137.951 73.486
5.60 137.729 71.608
5.61 133.743 69.166
5.62 --undefined-- 66.789
5.63 --undefined-- 64.293
5.64 --undefined-- 60.156
5.65 --undefined-- 54.729
5.66 --undefined-- 51.538
5.67 --undefined-- 47.915
5.68 --undefined-- 43.307
5.69 --undefined-- 41.629
5.70 --undefined-- 39.027
5.71 --undefined-- 38.117
5.72 --undefined-- 41.267
5.73 --undefined-- 42.447
5.74 --undefined-- 41.529
5.75 --undefined-- 40.702
5.76 --undefined-- 41.704
5.77 --undefined-- 42.179
5.78 --undefined-- 40.690
5.79 --undefined-- 39.154
5.80 --undefined-- 39.025
5.81 --undefined-- 38.984
5.82 --undefined-- 37.764
5.83 --undefined-- 37.003
5.84 --undefined-- 38.212
5.85 --undefined-- 39.473
5.86 --undefined-- 41.021
5.87 --undefined-- 41.584
5.88 --undefined-- 40.973
5.89 --undefined-- 40.554
5.90 --undefined-- 40.595
5.91 --undefined-- 40.577
5.92 --undefined-- 39.891
5.93 --undefined-- 38.278
5.94 --undefined-- 36.310
5.95 --undefined-- 37.017
5.96 --undefined-- 38.798
5.97 --undefined-- 39.084
5.98 --undefined-- 38.543
5.99 --undefined-- --undefined--
6.00 --undefined-- --undefined--
6.01 --undefined-- --undefined--
6.02 --undefined-- --undefined--
