Time Pitch Intensity
0.01 --undefined-- --undefined--
0.02 224.603 --undefined--
0.03 221.846 --undefined--
0.04 218.481 --undefined--
0.05 213.633 75.804
0.06 207.730 76.066
0.07 201.546 75.958
0.08 194.451 75.119
0.09 --undefined-- 73.463
0.10 --undefined-- 71.768
0.11 --undefined-- 71.365
0.12 --undefined-- 71.833
0.13 --undefined-- 71.504
0.14 --undefined-- 69.191
0.15 --undefined-- 64.912
0.16 --undefined-- 59.579
0.17 --undefined-- 53.048
0.18 --undefined-- 46.851
0.19 --undefined-- 45.721
0.20 --undefined-- 50.978
0.21 --undefined-- 56.238
0.22 --undefined-- 59.378
0.23 --undefined-- 62.167
0.24 148.877 65.076
0.25 160.833 67.595
0.26 164.450 69.397
0.27 165.553 70.645
0.28 167.008 71.996
0.29 167.856 73.556
0.30 167.861 74.944
0.31 167.645 75.789
0.32 166.597 76.090
0.33 164.285 76.061
0.34 162.154 75.815
0.35 160.864 75.456
0.36 159.849 75.264
0.37 159.297 75.302
0.38 158.768 75.286
0.39 158.374 74.969
0.40 158.511 74.576
0.41 158.292 74.467
0.42 158.738 74.473
0.43 159.124 74.055
0.44 157.127 72.542
0.45 153.072 69.383
0.46 162.093 64.805
0.47 158.572 59.509
0.48 153.987 54.074
0.49 161.909 53.765
0.50 --undefined-- 59.212
0.51 --undefined-- 65.240
0.52 --undefined-- 71.445
0.53 190.137 75.468
0.54 186.530 77.058
0.55 183.758 77.126
0.56 179.815 76.554
0.57 177.808 76.046
0.58 176.247 75.928
0.59 174.791 76.016
0.60 173.065 76.140
0.61 171.602 76.222
0.62 170.315 76.303
0.63 169.679 76.391
0.64 169.546 76.510
0.65 169.791 76.823
0.66 170.420 77.029
0.67 170.880 76.591
0.68 170.715 75.006
0.69 167.144 71.896
0.70 160.545 67.133
0.71 163.632 61.062
0.72 165.000 55.371
0.73 169.133 51.671
0.74 --undefined-- 49.269
0.75 --undefined-- 46.979
0.76 --undefined-- 45.215
0.77 --undefined-- 44.820
0.78 --undefined-- 43.231
0.79 --undefined-- 41.156
0.80 --undefined-- 41.665
0.81 --undefined-- 43.818
0.82 --undefined-- 45.847
0.83 --undefined-- 47.065
0.84 --undefined-- 48.129
0.85 --undefined-- 51.474
0.86 --undefined-- 58.409
0.87 235.911 64.009
0.88 220.464 67.346
0.89 220.245 69.305
0.90 221.247 70.569
0.91 221.243 71.479
0.92 221.746 72.137
0.93 222.390 72.599
0.94 223.262 73.010
0.95 223.479 73.364
0.96 223.796 73.590
0.97 224.242 73.697
0.98 224.276 73.689
0.99 223.403 73.443
1.00 221.944 72.586
1.01 209.260 70.623
1.02 199.218 67.490
1.03 200.828 63.588
1.04 198.850 58.599
1.05 --undefined-- 52.513
1.06 --undefined-- 49.826
1.07 --undefined-- 56.273
1.08 --undefined-- 63.757
1.09 --undefined-- 70.407
1.10 --undefined-- 74.781
1.11 227.781 76.436
1.12 221.350 76.298
1.13 215.425 75.614
1.14 212.797 75.405
1.15 211.905 75.846
1.16 211.394 75.822
1.17 211.229 74.516
1.18 210.985 72.135
1.19 213.382 70.417
1.20 213.032 70.229
1.21 212.804 70.453
1.22 213.202 70.771
1.23 213.655 71.072
1.24 213.799 71.303
1.25 213.959 71.501
1.26 214.351 71.680
1.27 214.891 71.908
1.28 215.227 72.296
1.29 216.067 72.973
1.30 217.262 73.840
1.31 216.542 74.482
1.32 217.356 75.032
1.33 215.200 75.447
1.34 212.367 75.435
1.35 210.009 75.273
1.36 207.648 75.231
1.37 205.684 75.103
1.38 203.233 74.854
1.39 199.654 74.308
1.40 196.197 72.304
1.41 193.620 67.853
1.42 203.186 61.912
1.43 202.017 56.983
1.44 203.868 53.549
1.45 202.700 59.194
1.46 --undefined-- 68.045
1.47 173.180 73.777
1.48 166.372 76.512
1.49 158.486 76.942
1.50 152.185 76.514
1.51 154.636 76.861
1.52 156.459 77.496
1.53 157.934 77.516
1.54 161.765 76.667
1.55 163.923 75.292
1.56 164.467 74.147
1.57 163.184 72.730
1.58 159.477 69.685
1.59 167.250 64.341
1.60 162.588 57.740
1.61 --undefined-- 52.779
1.62 --undefined-- 54.341
1.63 --undefined-- 57.703
1.64 --undefined-- 60.728
1.65 --undefined-- 65.170
1.66 182.394 70.046
1.67 188.338 72.761
1.68 187.531 73.495
1.69 185.059 73.335
1.70 183.583 72.592
1.71 181.488 71.139
1.72 182.534 70.171
1.73 185.608 70.329
1.74 187.538 70.715
1.75 188.865 70.996
1.76 189.087 71.115
1.77 189.171 71.195
1.78 189.457 71.399
1.79 189.970 71.683
1.80 191.037 71.818
1.81 192.017 71.460
1.82 189.245 70.298
1.83 188.894 68.034
1.84 190.825 64.436
1.85 181.937 59.501
1.86 --undefined-- 54.832
1.87 --undefined-- 53.037
1.88 --undefined-- 53.834
1.89 --undefined-- 55.704
1.90 --undefined-- 57.329
1.91 --undefined-- 59.131
1.92 181.935 60.676
1.93 182.004 61.412
1.94 182.223 65.242
1.95 180.418 70.423
1.96 170.235 73.672
1.97 165.384 75.371
1.98 159.959 76.059
1.99 157.714 75.980
2.00 155.729 75.508
2.01 155.473 75.147
2.02 155.201 74.952
2.03 155.469 74.593
2.04 155.512 73.604
2.05 153.931 71.223
2.06 146.404 66.599
2.07 161.171 59.629
2.08 157.783 53.352
2.09 --undefined-- 54.582
2.10 --undefined-- 61.221
2.11 --undefined-- 66.331
2.12 --undefined-- 71.248
2.13 176.893 74.652
2.14 170.345 75.622
2.15 161.526 75.195
2.16 156.946 74.782
2.17 155.350 74.597
2.18 155.597 74.815
2.19 156.328 75.375
2.20 157.204 75.732
2.21 160.041 75.859
2.22 161.632 75.981
2.23 162.574 75.707
2.24 164.325 74.950
2.25 163.738 74.243
2.26 163.746 74.073
2.27 166.969 74.757
2.28 170.693 75.873
2.29 176.419 76.580
2.30 173.251 76.176
2.31 161.834 74.686
2.32 153.991 72.885
2.33 142.999 71.714
2.34 142.246 71.287
2.35 141.028 70.668
2.36 138.971 69.087
2.37 141.313 67.470
2.38 141.846 67.279
2.39 142.878 67.521
2.40 145.040 67.746
2.41 148.774 68.338
2.42 151.809 69.035
2.43 153.707 69.480
2.44 154.848 69.887
2.45 155.900 70.430
2.46 157.617 70.973
2.47 159.275 71.474
2.48 160.144 71.833
2.49 161.139 72.235
2.50 163.012 73.202
2.51 160.015 74.425
2.52 158.517 75.136
2.53 157.434 75.326
2.54 155.640 75.407
2.55 154.183 75.544
2.56 150.868 75.498
2.57 147.001 75.097
2.58 143.516 74.390
2.59 143.408 73.610
2.60 142.728 73.066
2.61 148.809 72.604
2.62 163.521 71.879
2.63 154.870 71.402
2.64 151.238 70.857
2.65 148.904 69.165
2.66 143.717 66.236
2.67 --undefined-- 66.303
2.68 --undefined-- 71.392
2.69 187.170 75.138
2.70 188.693 76.501
2.71 188.395 76.347
2.72 189.630 76.169
2.73 189.106 76.269
2.74 186.521 76.066
2.75 183.681 75.443
2.76 177.535 74.313
2.77 --undefined-- 72.532
2.78 --undefined-- 69.667
2.79 --undefined-- 65.077
2.80 --undefined-- 58.525
2.81 --undefined-- 51.527
2.82 --undefined-- 48.362
2.83 --undefined-- 46.374
2.84 --undefined-- 44.354
2.85 --undefined-- 43.634
2.86 --undefined-- 43.396
2.87 --undefined-- 43.449
2.88 --undefined-- 44.124
2.89 --undefined-- 47.034
2.90 --undefined-- 50.000
2.91 --undefined-- 50.234
2.92 --undefined-- 48.168
2.93 --undefined-- 47.062
2.94 --undefined-- 48.013
2.95 --undefined-- 48.899
2.96 --undefined-- 49.454
2.97 --undefined-- 50.058
2.98 --undefined-- 50.853
2.99 --undefined-- 52.148
3.00 --undefined-- 53.767
3.01 --undefined-- 55.159
3.02 --undefined-- 56.042
3.03 --undefined-- 56.180
3.04 --undefined-- 55.518
3.05 --undefined-- 54.977
3.06 --undefined-- 54.516
3.07 --undefined-- 53.758
3.08 --undefined-- 52.912
3.09 --undefined-- 52.072
3.10 --undefined-- 51.313
3.11 --undefined-- 50.478
3.12 --undefined-- 49.677
3.13 --undefined-- 48.833
3.14 --undefined-- 47.213
3.15 --undefined-- 45.369
3.16 --undefined-- 45.293
3.17 --undefined-- 47.156
3.18 --undefined-- 48.744
3.19 --undefined-- 56.386
3.20 239.738 63.692
3.21 228.103 67.876
3.22 234.897 70.207
3.23 248.780 71.930
3.24 260.302 73.201
3.25 269.861 73.673
3.26 276.865 73.380
3.27 277.123 72.145
3.28 268.834 69.649
3.29 --undefined-- 67.820
3.30 --undefined-- 71.044
3.31 150.518 75.717
3.32 150.680 78.235
3.33 299.185 78.704
3.34 294.277 78.244
3.35 280.914 77.557
3.36 260.029 76.877
3.37 236.759 76.205
3.38 218.926 75.560
3.39 210.984 75.020
3.40 204.113 74.257
3.41 197.352 72.696
3.42 190.957 69.853
3.43 185.968 65.499
3.44 184.981 59.789
3.45 --undefined-- 53.843
3.46 --undefined-- 50.259
3.47 --undefined-- 49.562
3.48 --undefined-- 52.370
3.49 --undefined-- 61.520
3.50 --undefined-- 69.692
3.51 241.301 74.906
3.52 244.188 77.407
3.53 244.784 77.902
3.54 245.979 77.514
3.55 249.776 77.080
3.56 255.996 76.241
3.57 264.544 74.295
3.58 265.611 71.039
3.59 254.196 66.559
3.60 251.638 60.996
3.61 --undefined-- 56.069
3.62 --undefined-- 54.231
3.63 --undefined-- 53.762
3.64 --undefined-- 52.918
3.65 --undefined-- 52.777
3.66 --undefined-- 54.135
3.67 --undefined-- 58.882
3.68 275.246 66.494
3.69 281.527 71.543
3.70 277.857 73.910
3.71 270.668 74.737
3.72 265.924 74.940
3.73 264.005 74.826
3.74 262.010 74.577
3.75 257.802 74.334
3.76 252.481 74.212
3.77 247.537 73.932
3.78 243.603 73.305
3.79 241.903 72.564
3.80 241.943 71.945
3.81 243.285 71.716
3.82 245.989 71.856
3.83 249.011 71.940
3.84 251.434 71.534
3.85 251.715 70.319
3.86 246.382 68.104
3.87 240.223 64.707
3.88 240.712 60.030
3.89 --undefined-- 55.556
3.90 --undefined-- 53.293
3.91 --undefined-- 52.881
3.92 --undefined-- 55.805
3.93 --undefined-- 63.221
3.94 249.459 69.428
3.95 236.889 72.844
3.96 226.642 74.447
3.97 217.076 75.113
3.98 209.783 74.914
3.99 202.401 73.875
4.00 196.644 72.917
4.01 197.683 72.936
4.02 197.901 73.345
4.03 199.145 73.748
4.04 201.547 74.177
4.05 205.367 74.686
4.06 213.240 75.291
4.07 224.061 75.894
4.08 228.869 76.134
4.09 234.600 75.906
4.10 239.241 75.410
4.11 242.819 74.784
4.12 246.327 73.812
4.13 252.606 71.929
4.14 261.169 68.467
4.15 254.091 63.098
4.16 --undefined-- 55.828
4.17 --undefined-- 50.337
4.18 --undefined-- 49.200
4.19 --undefined-- 49.386
4.20 --undefined-- 49.863
4.21 --undefined-- 50.142
4.22 --undefined-- 50.262
4.23 --undefined-- 50.445
4.24 --undefined-- 50.411
4.25 --undefined-- 50.030
4.26 --undefined-- 49.435
4.27 --undefined-- 48.853
4.28 --undefined-- 48.237
4.29 --undefined-- 47.933
4.30 --undefined-- 47.558
4.31 --undefined-- 46.326
4.32 --undefined-- 44.594
4.33 --undefined-- 43.413
4.34 --undefined-- 43.272
4.35 --undefined-- 43.497
4.36 --undefined-- 42.851
4.37 --undefined-- 41.110
4.38 --undefined-- 40.709
4.39 --undefined-- 42.747
4.40 --undefined-- 51.715
4.41 --undefined-- 59.661
4.42 263.732 64.499
4.43 250.347 67.836
4.44 246.787 70.499
4.45 250.230 72.862
4.46 252.173 74.751
4.47 253.285 75.842
4.48 254.190 76.296
4.49 255.918 76.595
4.50 257.012 76.961
4.51 256.913 77.328
4.52 256.561 77.605
4.53 256.315 77.752
4.54 256.764 77.705
4.55 258.007 77.370
4.56 258.960 76.758
4.57 259.406 75.919
4.58 258.390 74.473
4.59 248.966 71.891
4.60 228.167 68.034
4.61 216.160 63.235
4.62 237.963 58.645
4.63 242.320 61.473
4.64 --undefined-- 69.347
4.65 159.448 74.486
4.66 159.654 76.935
4.67 159.854 77.507
4.68 160.691 77.041
4.69 162.884 76.197
4.70 164.910 75.540
4.71 164.607 75.343
4.72 162.912 75.149
4.73 160.460 74.503
4.74 157.391 73.381
4.75 153.835 72.488
4.76 296.629 72.675
4.77 281.460 73.328
4.78 255.844 74.111
4.79 238.031 74.703
4.80 219.654 74.445
4.81 201.109 73.676
4.82 188.458 73.236
4.83 177.315 72.518
4.84 166.936 70.778
4.85 156.087 68.669
4.86 153.824 67.588
4.87 154.028 67.393
4.88 156.005 67.765
4.89 159.036 68.606
4.90 162.631 69.579
4.91 164.318 70.349
4.92 165.459 70.534
4.93 168.347 70.017
4.94 182.064 69.378
4.95 187.016 69.567
4.96 188.094 70.462
4.97 187.606 71.253
4.98 188.372 71.849
4.99 188.684 72.466
5.00 186.794 73.115
5.01 184.821 73.697
5.02 184.309 74.139
5.03 183.881 74.671
5.04 183.275 75.358
5.05 182.952 75.846
5.06 182.598 75.849
5.07 183.244 75.285
5.08 184.305 74.459
5.09 185.023 73.794
5.10 185.132 73.045
5.11 181.318 71.837
5.12 177.304 70.742
5.13 178.731 70.528
5.14 178.554 70.763
5.15 177.895 70.979
5.16 175.501 71.088
5.17 173.084 71.202
5.18 170.768 71.454
5.19 167.761 71.862
5.20 169.252 --undefined--
5.21 164.028 --undefined--
5.22 --undefined-- --undefined--
5.23 --undefined-- --undefined--
