Time Pitch Intensity
0.01 --undefined-- --undefined--
0.02 156.203 --undefined--
0.03 155.188 --undefined--
0.04 152.045 --undefined--
0.05 293.850 69.496
0.06 283.555 69.025
0.07 269.957 67.679
0.08 253.368 65.303
0.09 230.124 62.728
0.10 214.397 61.237
0.11 201.732 61.358
0.12 195.050 63.233
0.13 192.685 66.635
0.14 190.247 70.286
0.15 188.772 72.928
0.16 187.010 73.963
0.17 185.595 73.439
0.18 188.922 72.386
0.19 196.334 71.743
0.20 207.419 71.453
0.21 222.738 71.706
0.22 234.795 71.578
0.23 246.097 70.196
0.24 262.726 68.384
0.25 272.901 67.448
0.26 279.896 67.488
0.27 282.404 67.702
0.28 277.430 66.700
0.29 270.101 63.961
0.30 --undefined-- 59.964
0.31 --undefined-- 55.921
0.32 --undefined-- 52.013
0.33 --undefined-- 48.542
0.34 --undefined-- 47.293
0.35 --undefined-- 49.164
0.36 --undefined-- 49.939
0.37 --undefined-- 48.396
0.38 --undefined-- 48.221
0.39 --undefined-- 48.716
0.40 --undefined-- 47.525
0.41 --undefined-- 46.749
0.42 --undefined-- 46.733
0.43 --undefined-- 46.437
0.44 --undefined-- 49.150
0.45 --undefined-- 53.337
0.46 --undefined-- 54.147
0.47 --undefined-- 51.465
0.48 --undefined-- 54.580
0.49 --undefined-- 62.368
0.50 154.346 67.119
0.51 155.674 69.797
0.52 157.244 71.354
0.53 157.732 72.175
0.54 157.991 72.407
0.55 158.447 72.293
0.56 158.875 71.997
0.57 159.908 71.561
0.58 161.760 70.912
0.59 162.555 70.143
0.60 162.123 69.687
0.61 161.833 69.605
0.62 160.560 69.650
0.63 157.717 69.545
0.64 153.392 69.036
0.65 296.478 68.351
0.66 287.432 67.485
0.67 271.720 65.897
0.68 249.890 64.638
0.69 240.741 65.426
0.70 232.340 66.664
0.71 222.998 67.158
0.72 216.728 67.491
0.73 216.752 68.297
0.74 217.493 68.769
0.75 217.362 68.056
0.76 222.717 65.978
0.77 228.655 63.102
0.78 215.265 60.832
0.79 207.797 59.809
0.80 207.568 59.773
0.81 203.823 59.945
0.82 204.760 60.006
0.83 217.295 60.769
0.84 212.499 62.038
0.85 199.855 63.205
0.86 192.883 64.356
0.87 188.421 65.397
0.88 186.117 65.872
0.89 184.570 65.904
0.90 184.222 66.103
0.91 183.304 66.490
0.92 181.718 66.741
0.93 180.549 66.836
0.94 180.024 66.859
0.95 180.785 66.747
0.96 182.298 66.050
0.97 183.292 64.089
0.98 184.494 60.608
0.99 184.575 56.229
1.00 --undefined-- 51.795
1.01 --undefined-- 49.978
1.02 --undefined-- 49.886
1.03 --undefined-- 48.861
1.04 --undefined-- 49.039
1.05 --undefined-- 50.269
1.06 --undefined-- 50.888
1.07 --undefined-- 50.356
1.08 --undefined-- 49.628
1.09 --undefined-- 52.200
1.10 --undefined-- 55.797
1.11 --undefined-- 59.055
1.12 --undefined-- 60.920
1.13 --undefined-- 61.123
1.14 --undefined-- 60.868
1.15 --undefined-- 60.958
1.16 --undefined-- 60.541
1.17 --undefined-- 59.786
1.18 --undefined-- 60.229
1.19 --undefined-- 61.331
1.20 --undefined-- 62.299
1.21 159.404 63.761
1.22 161.886 65.545
1.23 162.927 66.492
1.24 165.266 66.432
1.25 170.074 66.036
1.26 178.044 65.915
1.27 190.217 65.839
1.28 202.481 65.072
1.29 232.683 64.269
1.30 250.664 64.863
1.31 271.640 66.365
1.32 286.326 67.711
1.33 289.361 67.520
1.34 283.076 64.667
1.35 --undefined-- 58.753
1.36 --undefined-- 52.104
1.37 --undefined-- 50.576
1.38 --undefined-- 51.466
1.39 --undefined-- 52.409
1.40 --undefined-- 52.264
1.41 --undefined-- 51.030
1.42 --undefined-- 49.693
1.43 --undefined-- 49.948
1.44 --undefined-- 51.898
1.45 --undefined-- 54.754
1.46 --undefined-- 56.259
1.47 261.118 59.013
1.48 265.466 63.092
1.49 256.971 65.219
1.50 244.461 65.698
1.51 237.110 65.889
1.52 230.723 66.463
1.53 228.918 67.621
1.54 230.098 69.260
1.55 234.259 70.434
1.56 232.684 70.174
1.57 229.728 68.864
1.58 240.173 68.554
1.59 244.523 69.048
1.60 247.146 69.749
1.61 253.641 72.279
1.62 257.613 75.345
1.63 257.286 76.938
1.64 256.665 77.164
1.65 256.513 76.693
1.66 253.555 75.632
1.67 246.137 73.991
1.68 235.437 72.280
1.69 224.626 70.416
1.70 201.163 67.463
1.71 197.758 63.124
1.72 194.876 58.132
1.73 --undefined-- 53.973
1.74 --undefined-- 50.078
1.75 --undefined-- 49.219
1.76 --undefined-- 51.851
1.77 --undefined-- 52.984
1.78 --undefined-- 53.468
1.79 --undefined-- 54.911
1.80 --undefined-- 55.142
1.81 --undefined-- 53.368
1.82 --undefined-- 52.617
1.83 --undefined-- 54.211
1.84 --undefined-- 54.413
1.85 --undefined-- 53.431
1.86 --undefined-- 54.302
1.87 --undefined-- 54.419
1.88 --undefined-- 51.543
1.89 --undefined-- 47.186
1.90 --undefined-- 47.428
1.91 --undefined-- 50.409
1.92 --undefined-- 53.096
1.93 --undefined-- 53.907
1.94 --undefined-- 53.033
1.95 --undefined-- 52.058
1.96 --undefined-- 50.934
1.97 --undefined-- 50.623
1.98 --undefined-- 50.085
1.99 --undefined-- 51.342
2.00 --undefined-- 56.444
2.01 --undefined-- 59.417
2.02 --undefined-- 60.341
2.03 --undefined-- 64.315
2.04 170.523 68.550
2.05 171.724 70.402
2.06 172.363 70.726
2.07 173.583 70.607
2.08 175.334 70.426
2.09 176.147 69.945
2.10 169.408 69.742
2.11 168.029 71.088
2.12 169.112 72.091
2.13 170.406 71.924
2.14 172.085 71.160
2.15 173.911 70.253
2.16 174.616 69.550
2.17 177.597 69.492
2.18 182.086 70.098
2.19 178.394 70.101
2.20 172.258 68.581
2.21 158.737 66.121
2.22 295.923 63.764
2.23 277.669 61.261
2.24 253.144 58.723
2.25 244.157 57.853
2.26 237.440 59.375
2.27 247.222 62.046
2.28 256.632 64.915
2.29 247.140 67.299
2.30 199.226 69.162
2.31 194.125 70.584
2.32 185.331 71.130
2.33 180.467 70.764
2.34 178.841 69.938
2.35 178.122 68.712
2.36 177.378 67.014
2.37 176.606 65.143
2.38 175.981 63.954
2.39 178.727 64.230
2.40 180.581 65.115
2.41 183.244 65.666
2.42 186.440 65.706
2.43 190.721 65.450
2.44 195.677 64.849
2.45 201.545 63.733
2.46 209.417 62.703
2.47 212.808 62.026
2.48 209.216 60.250
2.49 201.837 56.053
2.50 --undefined-- 50.138
2.51 --undefined-- 48.386
2.52 --undefined-- 48.561
2.53 --undefined-- 47.928
2.54 --undefined-- 47.743
2.55 --undefined-- 47.107
2.56 --undefined-- 44.873
2.57 --undefined-- 43.302
2.58 --undefined-- 44.320
2.59 --undefined-- 48.093
2.60 --undefined-- 53.205
2.61 --undefined-- 57.774
2.62 --undefined-- 62.292
2.63 288.969 66.392
2.64 284.270 68.898
2.65 280.855 69.923
2.66 278.035 70.054
2.67 279.620 69.535
2.68 282.911 68.593
2.69 285.039 67.986
2.70 287.983 68.063
2.71 289.486 68.282
2.72 288.869 68.179
2.73 286.753 67.515
2.74 281.801 65.846
2.75 251.677 63.282
2.76 238.047 62.397
2.77 230.571 63.905
2.78 227.504 65.612
2.79 212.958 66.993
2.80 203.269 67.974
2.81 192.543 68.443
2.82 181.150 68.248
2.83 178.566 67.143
2.84 175.407 65.618
2.85 175.690 64.596
2.86 178.254 64.421
2.87 181.247 64.749
2.88 185.553 65.139
2.89 193.295 65.204
2.90 204.867 64.416
2.91 222.120 63.121
2.92 237.442 63.039
2.93 275.076 64.870
2.94 296.115 66.779
2.95 157.879 68.136
2.96 168.355 69.085
2.97 176.217 69.430
2.98 179.946 68.646
2.99 180.793 65.904
3.00 --undefined-- 60.589
3.01 --undefined-- 53.589
3.02 --undefined-- 48.309
3.03 --undefined-- 45.960
3.04 --undefined-- 46.137
3.05 --undefined-- 46.267
3.06 --undefined-- 46.840
3.07 --undefined-- 49.845
3.08 --undefined-- 51.697
3.09 --undefined-- 51.753
3.10 --undefined-- 50.971
3.11 --undefined-- 56.078
3.12 --undefined-- 63.532
3.13 230.692 67.661
3.14 221.776 69.168
3.15 210.642 69.192
3.16 205.387 68.619
3.17 200.740 67.967
3.18 198.052 67.854
3.19 195.694 68.290
3.20 193.435 68.841
3.21 192.597 69.193
3.22 192.306 69.063
3.23 190.832 68.211
3.24 187.686 66.589
3.25 184.459 64.987
3.26 188.246 65.197
3.27 196.929 66.208
3.28 199.450 66.489
3.29 199.607 66.709
3.30 201.707 67.000
3.31 204.515 66.643
3.32 207.773 65.532
3.33 209.186 63.750
3.34 200.106 60.894
3.35 188.472 56.699
3.36 --undefined-- 52.461
3.37 --undefined-- 49.344
3.38 --undefined-- 47.854
3.39 --undefined-- 48.357
3.40 --undefined-- 48.936
3.41 --undefined-- 49.329
3.42 --undefined-- 48.652
3.43 --undefined-- 47.119
3.44 --undefined-- 46.791
3.45 --undefined-- 49.989
3.46 --undefined-- 53.389
3.47 --undefined-- 56.360
3.48 --undefined-- 58.129
3.49 --undefined-- 60.625
3.50 150.003 64.526
3.51 148.722 66.750
3.52 149.788 67.353
3.53 149.367 67.151
3.54 149.384 66.506
3.55 148.681 65.987
3.56 150.354 66.428
3.57 152.127 67.372
3.58 152.907 68.099
3.59 153.883 68.584
3.60 154.372 68.870
3.61 154.681 68.936
3.62 155.239 68.886
3.63 155.566 68.769
3.64 155.301 68.590
3.65 154.704 68.343
3.66 153.185 67.568
3.67 --undefined-- 65.307
3.68 290.314 60.843
3.69 284.843 55.778
3.70 --undefined-- 53.407
3.71 --undefined-- 50.442
3.72 --undefined-- 49.825
3.73 --undefined-- 53.250
3.74 222.465 56.265
3.75 223.289 58.873
3.76 225.064 60.706
3.77 226.983 61.440
3.78 213.876 61.738
3.79 185.400 62.607
3.80 168.536 63.731
3.81 160.821 64.350
3.82 159.360 64.549
3.83 157.640 64.199
3.84 157.041 63.206
3.85 157.652 61.677
3.86 158.033 59.154
3.87 --undefined-- 55.436
3.88 --undefined-- 51.943
3.89 --undefined-- 48.432
3.90 --undefined-- 44.755
3.91 --undefined-- 44.145
3.92 --undefined-- 50.531
3.93 --undefined-- 55.591
3.94 --undefined-- 58.184
3.95 184.638 59.367
3.96 183.950 59.243
3.97 183.366 59.021
3.98 180.625 60.019
3.99 168.362 61.239
4.00 159.875 61.760
4.01 156.703 61.878
4.02 151.257 61.833
4.03 148.526 61.423
4.04 150.271 61.013
4.05 156.508 60.641
4.06 160.060 60.099
4.07 159.790 59.664
4.08 159.495 59.384
4.09 159.810 59.196
4.10 159.511 59.234
4.11 161.531 59.337
4.12 162.400 59.110
4.13 163.808 58.670
4.14 166.310 58.405
4.15 167.207 58.148
4.16 167.657 57.676
4.17 168.750 56.746
4.18 --undefined-- 54.980
4.19 --undefined-- 53.701
4.20 --undefined-- 54.157
4.21 --undefined-- 54.913
4.22 --undefined-- 53.788
4.23 --undefined-- 51.654
4.24 --undefined-- 54.719
4.25 --undefined-- 60.046
4.26 171.061 63.807
4.27 170.235 66.122
4.28 171.620 67.840
4.29 173.953 69.289
4.30 176.706 70.634
4.31 180.732 72.153
4.32 186.614 73.268
4.33 194.588 73.455
4.34 210.540 73.316
4.35 227.957 74.327
4.36 242.066 75.560
4.37 260.252 75.561
4.38 279.892 74.491
4.39 290.838 73.348
4.40 296.784 72.763
4.41 289.106 72.838
4.42 262.369 73.208
4.43 252.054 72.286
4.44 252.715 69.085
4.45 --undefined-- 64.350
4.46 --undefined-- 59.134
4.47 --undefined-- 53.236
4.48 --undefined-- 48.960
4.49 --undefined-- 47.163
4.50 --undefined-- 46.514
4.51 --undefined-- 46.515
4.52 --undefined-- 48.690
4.53 --undefined-- 51.911
4.54 --undefined-- 52.462
4.55 --undefined-- 51.052
4.56 --undefined-- 50.550
4.57 --undefined-- 51.601
4.58 --undefined-- 51.650
4.59 --undefined-- 49.493
4.60 --undefined-- 48.213
4.61 --undefined-- 50.439
4.62 --undefined-- 53.413
4.63 --undefined-- 54.014
4.64 --undefined-- 52.060
4.65 --undefined-- 50.725
4.66 --undefined-- 51.235
4.67 --undefined-- 51.647
4.68 --undefined-- 50.890
4.69 --undefined-- 50.426
4.70 --undefined-- 51.253
4.71 --undefined-- 52.461
4.72 --undefined-- 52.718
4.73 --undefined-- 50.420
4.74 --undefined-- 47.147
4.75 --undefined-- 46.081
4.76 --undefined-- 45.331
4.77 --undefined-- 45.259
4.78 --undefined-- 45.618
4.79 --undefined-- 45.445
4.80 --undefined-- 46.905
4.81 --undefined-- 49.253
4.82 --undefined-- 50.406
4.83 --undefined-- 51.279
4.84 --undefined-- 52.686
4.85 --undefined-- 54.150
4.86 --undefined-- 57.383
4.87 202.767 62.161
4.88 197.881 65.373
4.89 184.041 66.882
4.90 181.726 67.203
4.91 179.748 66.952
4.92 180.889 67.002
4.93 179.952 67.613
4.94 178.850 68.130
4.95 179.921 68.250
4.96 177.183 68.113
4.97 178.052 68.019
4.98 184.277 68.131
4.99 193.384 68.078
5.00 202.218 --undefined--
5.01 211.412 --undefined--
5.02 --undefined-- --undefined--
5.03 --undefined-- --undefined--
