Time Pitch Intensity
0.01 --undefined-- --undefined--
0.02 138.602 --undefined--
0.03 143.255 --undefined--
0.04 146.986 --undefined--
0.05 158.098 70.902
0.06 160.372 71.780
0.07 165.982 71.676
0.08 169.124 69.958
0.09 172.815 67.640
0.10 180.186 67.233
0.11 181.297 67.934
0.12 176.774 68.210
0.13 170.550 68.093
0.14 163.351 67.814
0.15 155.737 67.450
0.16 148.885 67.224
0.17 142.709 67.860
0.18 152.909 70.208
0.19 119.179 72.898
0.20 116.862 74.522
0.21 116.263 74.802
0.22 116.316 74.480
0.23 117.832 74.309
0.24 119.576 73.942
0.25 121.858 72.754
0.26 125.507 71.136
0.27 130.245 70.161
0.28 133.467 69.672
0.29 134.949 68.734
0.30 133.643 67.226
0.31 133.920 66.034
0.32 135.110 65.782
0.33 134.122 66.087
0.34 130.543 66.467
0.35 127.166 67.049
0.36 127.977 68.883
0.37 129.620 71.327
0.38 124.995 72.615
0.39 117.528 72.454
0.40 112.421 71.188
0.41 108.689 68.944
0.42 102.146 66.231
0.43 105.635 64.509
0.44 106.970 64.384
0.45 106.627 64.837
0.46 107.911 65.221
0.47 108.948 65.300
0.48 108.399 65.019
0.49 106.103 63.956
0.50 98.153 61.510
0.51 --undefined-- 57.911
0.52 --undefined-- 53.924
0.53 --undefined-- 48.113
0.54 --undefined-- 40.046
0.55 --undefined-- 39.077
0.56 --undefined-- 47.631
0.57 --undefined-- 54.828
0.58 --undefined-- 59.554
0.59 138.366 62.914
0.60 137.405 65.550
0.61 135.799 67.609
0.62 131.998 69.110
0.63 131.849 70.220
0.64 132.005 71.000
0.65 132.274 71.102
0.66 132.702 70.046
0.67 124.017 67.718
0.68 --undefined-- 64.488
0.69 --undefined-- 59.995
0.70 --undefined-- 54.871
0.71 --undefined-- 52.530
0.72 --undefined-- 52.513
0.73 --undefined-- 56.594
0.74 --undefined-- 62.615
0.75 135.067 66.469
0.76 134.147 68.362
0.77 132.741 69.045
0.78 128.070 68.744
0.79 122.610 67.218
0.80 112.159 63.942
0.81 --undefined-- 58.557
0.82 --undefined-- 51.420
0.83 --undefined-- 45.215
0.84 --undefined-- 42.917
0.85 --undefined-- 40.508
0.86 --undefined-- 40.304
0.87 --undefined-- 48.674
0.88 --undefined-- 55.971
0.89 --undefined-- 59.155
0.90 --undefined-- 58.740
0.91 --undefined-- 56.671
0.92 --undefined-- 55.687
0.93 --undefined-- 56.075
0.94 129.887 59.642
0.95 137.352 63.746
0.96 122.864 66.743
0.97 118.702 69.078
0.98 116.901 70.690
0.99 121.574 71.475
1.00 134.456 72.347
1.01 141.719 73.429
1.02 151.894 73.638
1.03 162.397 72.786
1.04 164.596 71.590
1.05 169.710 71.142
1.06 168.043 72.729
1.07 152.375 75.168
1.08 151.086 76.435
1.09 146.073 75.974
1.10 137.278 74.391
1.11 130.762 72.579
1.12 123.721 70.587
1.13 118.751 68.504
1.14 119.710 67.073
1.15 117.800 66.289
1.16 115.900 65.615
1.17 116.354 64.727
1.18 120.586 63.346
1.19 122.157 61.108
1.20 119.597 57.519
1.21 --undefined-- 51.957
1.22 --undefined-- 45.907
1.23 --undefined-- 46.693
1.24 --undefined-- 49.592
1.25 --undefined-- 54.442
1.26 190.495 62.186
1.27 180.095 68.037
1.28 166.975 71.610
1.29 164.797 73.437
1.30 164.455 73.825
1.31 163.830 73.033
1.32 162.605 71.465
1.33 158.167 69.847
1.34 155.440 68.754
1.35 152.412 67.864
1.36 148.796 67.080
1.37 147.060 67.170
1.38 142.189 67.950
1.39 137.378 69.144
1.40 134.574 70.816
1.41 131.978 72.650
1.42 130.767 74.326
1.43 129.327 75.365
1.44 127.493 75.734
1.45 127.394 75.845
1.46 127.665 75.884
1.47 128.376 75.687
1.48 128.228 75.254
1.49 127.652 74.577
1.50 127.085 73.659
1.51 126.835 72.667
1.52 126.990 71.819
1.53 123.521 71.174
1.54 123.725 70.209
1.55 124.277 68.833
1.56 122.446 67.250
1.57 115.531 65.220
1.58 118.712 62.561
1.59 168.296 59.751
1.60 163.685 57.746
1.61 --undefined-- 54.234
1.62 --undefined-- 47.848
1.63 --undefined-- 43.698
1.64 --undefined-- 42.116
1.65 --undefined-- 39.200
1.66 --undefined-- 37.021
1.67 --undefined-- 36.999
1.68 --undefined-- 37.359
1.69 --undefined-- 37.942
1.70 --undefined-- 39.142
1.71 --undefined-- 40.392
1.72 --undefined-- 41.325
1.73 --undefined-- 42.301
1.74 --undefined-- 42.750
1.75 --undefined-- 42.226
1.76 --undefined-- 41.736
1.77 --undefined-- 42.189
1.78 --undefined-- 43.183
1.79 --undefined-- 44.574
1.80 --undefined-- 45.401
1.81 --undefined-- 44.722
1.82 --undefined-- 43.249
1.83 --undefined-- 42.347
1.84 --undefined-- 42.642
1.85 --undefined-- 43.130
1.86 --undefined-- 42.505
1.87 --undefined-- 41.869
1.88 --undefined-- 41.046
1.89 --undefined-- 38.640
1.90 --undefined-- 37.340
1.91 --undefined-- 37.606
1.92 --undefined-- 36.826
1.93 --undefined-- 36.344
1.94 --undefined-- 39.166
1.95 --undefined-- 48.261
1.96 --undefined-- 55.973
1.97 --undefined-- 59.441
1.98 --undefined-- 59.137
1.99 --undefined-- 56.661
2.00 --undefined-- 58.521
2.01 203.004 66.513
2.02 202.965 72.826
2.03 190.305 76.649
2.04 179.426 78.678
2.05 175.573 79.251
2.06 173.287 78.288
2.07 173.305 75.976
2.08 171.497 73.083
2.09 174.333 70.957
2.10 176.107 70.367
2.11 177.809 70.381
2.12 179.487 70.294
2.13 178.626 69.927
2.14 176.785 69.178
2.15 173.020 67.669
2.16 169.136 64.898
2.17 171.963 60.529
2.18 --undefined-- 54.510
2.19 --undefined-- 51.058
2.20 --undefined-- 60.274
2.21 206.958 68.451
2.22 195.611 73.406
2.23 176.314 76.139
2.24 167.477 77.691
2.25 162.674 78.481
2.26 157.969 78.523
2.27 156.207 77.749
2.28 156.951 76.297
2.29 157.632 75.080
2.30 158.054 74.353
2.31 157.748 72.986
2.32 153.834 69.989
2.33 145.599 64.932
2.34 151.457 58.649
2.35 --undefined-- 52.386
2.36 --undefined-- 50.328
2.37 --undefined-- 61.343
2.38 --undefined-- 69.709
2.39 --undefined-- 74.405
2.40 169.719 76.510
2.41 165.210 77.444
2.42 162.217 78.253
2.43 160.188 78.467
2.44 159.511 77.697
2.45 158.909 76.681
2.46 158.443 76.148
2.47 160.328 75.573
2.48 161.421 74.569
2.49 159.358 73.739
2.50 156.870 72.737
2.51 152.938 70.160
2.52 140.658 65.271
2.53 140.930 59.199
2.54 --undefined-- 55.093
2.55 --undefined-- 55.376
2.56 --undefined-- 61.658
2.57 --undefined-- 68.068
2.58 --undefined-- 71.748
2.59 --undefined-- 73.111
2.60 130.057 73.055
2.61 126.004 72.408
2.62 121.618 72.186
2.63 119.660 72.685
2.64 120.226 73.152
2.65 121.659 73.188
2.66 122.369 72.798
2.67 126.408 71.886
2.68 130.400 70.504
2.69 134.315 69.493
2.70 143.638 69.530
2.71 149.370 69.756
2.72 154.530 69.600
2.73 160.001 69.094
2.74 162.186 68.660
2.75 161.747 68.489
2.76 160.517 68.505
2.77 159.950 68.814
2.78 156.213 69.219
2.79 149.826 69.378
2.80 142.804 69.674
2.81 141.001 71.242
2.82 136.492 73.437
2.83 133.283 74.645
2.84 128.278 74.755
2.85 124.537 74.488
2.86 123.368 74.259
2.87 124.231 73.955
2.88 125.305 73.471
2.89 123.921 73.227
2.90 123.196 73.388
2.91 125.277 73.587
2.92 130.303 73.787
2.93 136.350 73.768
2.94 141.717 73.304
2.95 144.947 72.372
2.96 147.086 70.908
2.97 150.849 69.263
2.98 156.107 68.365
2.99 157.840 68.414
3.00 157.435 68.770
3.01 156.846 69.087
3.02 155.464 69.917
3.03 155.302 72.435
3.04 152.227 75.415
3.05 151.134 76.981
3.06 145.133 77.087
3.07 140.339 76.704
3.08 137.137 76.497
3.09 135.426 76.517
3.10 134.348 76.505
3.11 133.588 76.275
3.12 132.370 75.990
3.13 130.643 75.820
3.14 129.211 75.731
3.15 128.181 75.494
3.16 127.104 74.990
3.17 125.895 74.256
3.18 125.405 73.285
3.19 124.686 72.221
3.20 123.569 71.433
3.21 122.564 70.710
3.22 120.837 69.245
3.23 120.461 67.204
3.24 123.864 65.713
3.25 125.097 64.658
3.26 125.029 63.489
3.27 123.514 62.051
3.28 120.016 60.444
3.29 121.863 58.835
3.30 --undefined-- 56.557
3.31 --undefined-- 53.266
3.32 --undefined-- 49.069
3.33 --undefined-- 44.035
3.34 --undefined-- 41.408
3.35 --undefined-- 40.379
3.36 --undefined-- 39.094
3.37 --undefined-- 38.321
3.38 --undefined-- 37.879
3.39 --undefined-- 36.765
3.40 --undefined-- 37.392
3.41 --undefined-- 38.959
3.42 --undefined-- 38.554
3.43 --undefined-- 37.335
3.44 --undefined-- 38.054
3.45 --undefined-- 38.763
3.46 --undefined-- 38.084
3.47 --undefined-- 37.686
3.48 --undefined-- 37.625
3.49 --undefined-- 36.110
3.50 --undefined-- 35.259
3.51 --undefined-- 36.501
3.52 --undefined-- 37.211
3.53 --undefined-- 38.642
3.54 --undefined-- 47.080
3.55 --undefined-- 56.097
3.56 142.737 62.116
3.57 130.775 65.914
3.58 130.692 68.345
3.59 135.303 70.167
3.60 138.505 71.777
3.61 140.610 73.079
3.62 143.328 73.924
3.63 145.867 73.984
3.64 146.129 72.479
3.65 139.338 68.651
3.66 128.190 62.364
3.67 --undefined-- 56.016
3.68 --undefined-- 55.561
3.69 --undefined-- 58.305
3.70 --undefined-- 60.694
3.71 144.980 65.790
3.72 145.475 70.088
3.73 136.487 72.085
3.74 133.436 72.788
3.75 130.002 73.149
3.76 128.569 73.775
3.77 127.249 74.970
3.78 127.257 76.006
3.79 125.934 76.328
3.80 123.947 75.880
3.81 122.033 74.865
3.82 --undefined-- 72.938
3.83 --undefined-- 69.059
3.84 --undefined-- 62.438
3.85 --undefined-- 54.086
3.86 --undefined-- 47.365
3.87 --undefined-- 43.311
3.88 --undefined-- 41.659
3.89 --undefined-- 40.048
3.90 --undefined-- 39.365
3.91 --undefined-- 39.697
3.92 --undefined-- 39.821
3.93 --undefined-- 38.327
3.94 --undefined-- 36.256
3.95 --undefined-- 37.882
3.96 --undefined-- 39.772
3.97 --undefined-- 39.973
3.98 --undefined-- 39.498
3.99 --undefined-- 38.968
4.00 --undefined-- 38.483
4.01 --undefined-- 39.869
4.02 --undefined-- 42.389
4.03 --undefined-- 45.590
4.04 --undefined-- 49.995
4.05 --undefined-- 54.154
4.06 --undefined-- 56.659
4.07 --undefined-- 60.001
4.08 --undefined-- 65.101
4.09 138.090 68.463
4.10 131.544 69.707
4.11 124.854 69.716
4.12 120.441 69.257
4.13 118.724 68.746
4.14 119.428 68.059
4.15 123.410 67.265
4.16 130.472 66.898
4.17 133.563 67.132
4.18 136.091 67.928
4.19 141.194 69.104
4.20 147.162 70.160
4.21 152.563 70.672
4.22 158.308 70.817
4.23 163.391 71.239
4.24 165.627 71.875
4.25 166.119 72.285
4.26 161.699 72.710
4.27 160.057 73.888
4.28 146.315 75.719
4.29 144.487 76.669
4.30 135.787 75.849
4.31 127.522 73.932
4.32 126.070 72.571
4.33 123.449 71.997
4.34 118.757 72.024
4.35 118.372 72.187
4.36 118.039 71.849
4.37 122.073 71.426
4.38 122.781 71.393
4.39 125.680 71.051
4.40 129.801 70.008
4.41 131.197 68.597
4.42 131.129 66.842
4.43 120.622 64.383
4.44 115.303 61.350
4.45 118.113 57.567
4.46 --undefined-- 52.852
4.47 --undefined-- 46.744
4.48 --undefined-- 41.973
4.49 --undefined-- 43.034
4.50 --undefined-- 54.114
4.51 --undefined-- 61.975
4.52 --undefined-- 65.959
4.53 --undefined-- 67.941
4.54 120.834 69.084
4.55 120.332 69.373
4.56 116.803 69.276
4.57 115.088 69.156
4.58 114.792 69.058
4.59 115.038 68.976
4.60 114.207 68.627
4.61 113.164 68.060
4.62 112.874 67.744
4.63 110.797 67.490
4.64 109.459 67.363
4.65 109.200 67.667
4.66 108.857 67.842
4.67 108.276 66.602
4.68 97.410 62.788
4.69 95.173 57.136
4.70 --undefined-- 52.326
4.71 --undefined-- 48.057
4.72 --undefined-- 44.568
4.73 --undefined-- 48.997
4.74 --undefined-- 58.334
4.75 --undefined-- 64.699
4.76 120.977 68.360
4.77 118.149 70.336
4.78 116.097 71.309
4.79 115.877 71.536
4.80 118.645 71.305
4.81 123.533 71.228
4.82 129.271 71.776
4.83 135.290 72.606
4.84 142.696 72.877
4.85 148.025 71.551
4.86 147.193 67.717
4.87 --undefined-- 60.918
4.88 --undefined-- 54.387
4.89 --undefined-- 62.253
4.90 --undefined-- 70.907
4.91 --undefined-- 76.057
4.92 173.166 78.702
4.93 170.365 79.779
4.94 169.988 79.633
4.95 170.474 78.570
4.96 170.442 76.638
4.97 168.808 73.650
4.98 165.193 69.764
4.99 159.321 65.793
5.00 145.623 62.584
5.01 --undefined-- 59.390
5.02 --undefined-- 55.442
5.03 --undefined-- 50.852
5.04 --undefined-- 45.053
5.05 --undefined-- 40.843
5.06 --undefined-- 39.180
5.07 --undefined-- 38.957
5.08 --undefined-- 38.940
5.09 --undefined-- 38.187
5.10 --undefined-- 37.830
5.11 --undefined-- 37.137
5.12 --undefined-- 37.604
5.13 --undefined-- 38.478
5.14 --undefined-- 38.590
5.15 --undefined-- 37.311
5.16 --undefined-- 34.278
5.17 --undefined-- 32.461
5.18 --undefined-- 33.092
5.19 --undefined-- 33.145
5.20 --undefined-- 36.029
5.21 --undefined-- 47.451
5.22 --undefined-- 57.564
5.23 140.072 63.742
5.24 139.616 66.921
5.25 137.708 68.489
5.26 132.584 69.453
5.27 130.146 69.704
5.28 125.265 69.012
5.29 122.966 67.348
5.30 115.567 64.309
5.31 108.462 58.977
5.32 --undefined-- 51.349
5.33 --undefined-- 44.256
5.34 --undefined-- 42.355
5.35 --undefined-- 47.133
5.36 --undefined-- 58.135
5.37 --undefined-- 66.277
5.38 172.833 71.066
5.39 163.648 73.799
5.40 158.933 75.321
5.41 157.685 75.895
5.42 159.623 75.447
5.43 160.541 74.397
5.44 158.739 73.501
5.45 155.264 72.138
5.46 150.220 68.964
5.47 140.890 63.195
5.48 --undefined-- 55.238
5.49 --undefined-- 51.935
5.50 --undefined-- 57.645
5.51 --undefined-- 62.649
5.52 --undefined-- 64.227
5.53 --undefined-- 62.698
5.54 --undefined-- 59.915
5.55 --undefined-- 60.902
5.56 191.562 67.470
5.57 188.388 72.208
5.58 181.928 74.390
5.59 171.111 74.315
5.60 168.908 72.205
5.61 152.588 68.904
5.62 149.871 65.384
5.63 --undefined-- 61.188
5.64 --undefined-- 55.263
5.65 --undefined-- 48.256
5.66 --undefined-- 41.472
5.67 --undefined-- 38.905
5.68 --undefined-- 37.905
5.69 --undefined-- 41.338
5.70 --undefined-- 51.225
5.71 --undefined-- 58.332
5.72 129.270 62.948
5.73 125.416 65.599
5.74 121.575 66.624
5.75 118.951 66.717
5.76 117.346 66.414
5.77 115.379 65.736
5.78 113.592 64.609
5.79 104.425 62.931
5.80 99.752 61.214
5.81 100.175 60.739
5.82 106.288 61.636
5.83 108.260 62.388
5.84 107.290 62.046
5.85 104.610 60.455
5.86 104.515 --undefined--
5.87 --undefined-- --undefined--
5.88 --undefined-- --undefined--
5.89 --undefined-- --undefined--
