Time Pitch Intensity
0.01 --undefined-- --undefined--
0.02 --undefined-- --undefined--
0.03 --undefined-- --undefined--
0.04 115.591 --undefined--
0.05 116.505 73.308
0.06 117.240 73.651
0.07 117.490 73.799
0.08 116.460 73.837
0.09 115.212 73.796
0.10 114.065 73.593
0.11 113.574 73.336
0.12 113.497 72.984
0.13 112.523 72.549
0.14 111.802 72.172
0.15 110.898 71.758
0.16 110.215 71.045
0.17 109.790 70.038
0.18 110.562 68.763
0.19 110.794 66.843
0.20 104.841 63.515
0.21 --undefined-- 58.052
0.22 --undefined-- 50.047
0.23 --undefined-- 42.820
0.24 --undefined-- 40.629
0.25 --undefined-- 39.311
0.26 --undefined-- 37.352
0.27 --undefined-- 35.124
0.28 --undefined-- 32.736
0.29 --undefined-- 32.314
0.30 --undefined-- 33.747
0.31 --undefined-- 33.442
0.32 --undefined-- 31.725
0.33 --undefined-- 32.725
0.34 --undefined-- 36.268
0.35 --undefined-- 43.200
0.36 --undefined-- 51.566
0.37 --undefined-- 58.750
0.38 --undefined-- 64.020
0.39 --undefined-- 66.859
0.40 --undefined-- 68.163
0.41 --undefined-- 69.038
0.42 --undefined-- 69.631
0.43 91.692 69.963
0.44 90.690 70.087
0.45 90.027 70.203
0.46 90.074 70.486
0.47 90.784 70.404
0.48 91.288 69.689
0.49 91.395 68.635
0.50 92.950 67.637
0.51 95.934 67.058
0.52 97.216 66.597
0.53 99.421 65.852
0.54 101.016 65.069
0.55 102.525 64.385
0.56 103.611 63.799
0.57 104.483 63.372
0.58 105.399 62.917
0.59 105.993 62.301
0.60 106.297 61.621
0.61 105.594 60.986
0.62 104.923 60.482
0.63 104.252 60.230
0.64 104.586 60.340
0.65 106.131 60.685
0.66 106.308 61.127
0.67 105.170 63.167
0.68 101.534 66.739
0.69 101.461 68.880
0.70 --undefined-- 68.362
0.71 --undefined-- 65.619
0.72 --undefined-- 62.633
0.73 --undefined-- 60.119
0.74 --undefined-- 58.117
0.75 --undefined-- 56.524
0.76 --undefined-- 55.022
0.77 --undefined-- 54.366
0.78 --undefined-- 54.482
0.79 --undefined-- 54.714
0.80 --undefined-- 55.255
0.81 --undefined-- 55.457
0.82 --undefined-- 57.636
0.83 --undefined-- 65.283
0.84 --undefined-- 70.669
0.85 121.830 72.904
0.86 121.368 73.045
0.87 117.930 72.103
0.88 115.534 70.745
0.89 114.223 69.521
0.90 114.063 68.950
0.91 113.801 68.462
0.92 113.460 67.479
0.93 113.773 66.629
0.94 115.555 66.646
0.95 116.433 67.043
0.96 116.947 67.186
0.97 117.747 67.154
0.98 117.650 67.146
0.99 117.990 67.064
1.00 117.164 65.998
1.01 116.071 62.757
1.02 120.141 57.197
1.03 120.055 53.756
1.04 120.124 53.749
1.05 119.410 53.854
1.06 119.146 54.017
1.07 118.748 54.304
1.08 117.295 54.243
1.09 115.733 53.774
1.10 114.317 53.108
1.11 113.015 52.630
1.12 110.691 53.464
1.13 109.401 55.118
1.14 101.017 57.548
1.15 97.343 61.199
1.16 95.947 64.896
1.17 97.630 67.879
1.18 97.205 69.566
1.19 96.854 70.023
1.20 96.212 69.902
1.21 94.026 69.371
1.22 92.679 68.174
1.23 94.271 66.679
1.24 95.459 65.290
1.25 99.083 63.832
1.26 99.353 62.310
1.27 101.817 60.835
1.28 106.519 59.812
1.29 111.940 59.133
1.30 112.551 58.058
1.31 113.338 56.581
1.32 114.236 55.526
1.33 --undefined-- 55.412
1.34 --undefined-- 55.038
1.35 --undefined-- 53.869
1.36 --undefined-- 53.529
1.37 --undefined-- 54.900
1.38 --undefined-- 57.208
1.39 --undefined-- 60.262
1.40 --undefined-- 62.587
1.41 --undefined-- 62.889
1.42 --undefined-- 61.538
1.43 --undefined-- 59.755
1.44 --undefined-- 58.938
1.45 --undefined-- 59.321
1.46 --undefined-- 59.439
1.47 --undefined-- 59.011
1.48 --undefined-- 57.983
1.49 --undefined-- 55.621
1.50 --undefined-- 51.540
1.51 --undefined-- 46.439
1.52 --undefined-- 44.845
1.53 --undefined-- 46.057
1.54 --undefined-- 46.446
1.55 --undefined-- 46.323
1.56 --undefined-- 46.046
1.57 --undefined-- 45.847
1.58 --undefined-- 45.342
1.59 --undefined-- 43.845
1.60 --undefined-- 42.121
1.61 --undefined-- 40.606
1.62 --undefined-- 39.014
1.63 --undefined-- 37.964
1.64 --undefined-- 39.571
1.65 --undefined-- 46.458
1.66 --undefined-- 55.275
1.67 --undefined-- 62.963
1.68 --undefined-- 67.765
1.69 --undefined-- 70.028
1.70 --undefined-- 70.987
1.71 --undefined-- 71.392
1.72 --undefined-- 70.977
1.73 --undefined-- 70.423
1.74 --undefined-- 70.016
1.75 --undefined-- 68.938
1.76 --undefined-- 67.432
1.77 --undefined-- 65.488
1.78 --undefined-- 63.221
1.79 --undefined-- 61.577
1.80 --undefined-- 60.129
1.81 99.305 58.871
1.82 99.736 58.011
1.83 98.375 57.849
1.84 98.866 58.131
1.85 98.299 57.987
1.86 98.797 57.573
1.87 98.579 57.125
1.88 97.895 56.331
1.89 99.024 55.075
1.90 98.620 53.225
1.91 98.155 50.920
1.92 98.136 49.884
1.93 99.572 50.152
1.94 98.986 50.823
1.95 97.561 51.378
1.96 98.290 52.139
1.97 95.608 57.052
1.98 --undefined-- 63.412
1.99 --undefined-- 66.555
2.00 --undefined-- 66.792
2.01 83.959 66.047
2.02 83.959 65.689
2.03 85.310 64.394
2.04 --undefined-- 61.466
2.05 --undefined-- 57.167
2.06 --undefined-- 51.469
2.07 --undefined-- 46.080
2.08 --undefined-- 43.613
2.09 --undefined-- 41.894
2.10 --undefined-- 40.357
2.11 --undefined-- 40.505
2.12 --undefined-- 41.208
2.13 --undefined-- 41.203
2.14 --undefined-- 41.191
2.15 --undefined-- 41.044
2.16 --undefined-- 41.549
2.17 --undefined-- 41.983
2.18 --undefined-- 41.419
2.19 --undefined-- 40.288
2.20 --undefined-- 39.115
2.21 --undefined-- 37.611
2.22 --undefined-- 40.158
2.23 --undefined-- 49.140
2.24 --undefined-- 55.354
2.25 --undefined-- 58.130
2.26 --undefined-- 60.240
2.27 --undefined-- 64.171
2.28 102.991 67.178
2.29 99.729 68.554
2.30 99.264 68.897
2.31 98.432 68.780
2.32 97.507 68.690
2.33 95.583 68.374
2.34 94.588 67.630
2.35 93.829 66.926
2.36 93.830 66.406
2.37 93.883 65.969
2.38 93.985 65.674
2.39 94.014 65.790
2.40 93.885 65.977
2.41 94.910 66.082
2.42 95.174 66.287
2.43 94.697 66.619
2.44 94.719 67.106
2.45 94.996 67.196
2.46 94.838 66.911
2.47 95.516 66.792
2.48 95.882 66.690
2.49 95.759 66.562
2.50 96.045 66.637
2.51 95.269 66.769
2.52 96.037 66.521
2.53 96.361 66.094
2.54 95.242 66.237
2.55 95.678 66.684
2.56 95.200 66.993
2.57 94.921 67.328
2.58 96.091 67.785
2.59 96.095 68.182
2.60 95.550 68.033
2.61 96.186 67.634
2.62 96.082 67.126
2.63 95.316 66.346
2.64 94.693 65.349
2.65 93.306 64.474
2.66 92.710 63.846
2.67 95.221 63.160
2.68 96.589 62.243
2.69 97.046 61.210
2.70 97.498 60.207
2.71 99.211 58.975
2.72 96.318 57.506
2.73 96.720 56.011
2.74 97.259 54.737
2.75 93.947 53.620
2.76 93.497 52.733
2.77 92.222 52.760
2.78 92.634 53.377
2.79 97.165 53.360
2.80 97.243 52.279
2.81 96.892 50.361
2.82 --undefined-- 48.068
2.83 --undefined-- 45.766
2.84 --undefined-- 42.870
2.85 --undefined-- 39.541
2.86 --undefined-- 37.264
2.87 --undefined-- 38.103
2.88 --undefined-- 39.945
2.89 --undefined-- 40.613
2.90 --undefined-- 40.563
2.91 --undefined-- 39.500
2.92 --undefined-- 40.011
2.93 --undefined-- 44.602
2.94 --undefined-- 49.503
2.95 --undefined-- 53.345
2.96 --undefined-- 56.730
2.97 --undefined-- 59.648
2.98 --undefined-- 61.240
2.99 --undefined-- 61.135
3.00 --undefined-- 60.709
3.01 --undefined-- 61.438
3.02 --undefined-- 61.372
3.03 --undefined-- 60.495
3.04 --undefined-- 60.206
3.05 --undefined-- 60.318
3.06 --undefined-- 59.391
3.07 --undefined-- 58.738
3.08 --undefined-- 60.098
3.09 --undefined-- 62.032
3.10 --undefined-- 62.940
3.11 --undefined-- 63.119
3.12 --undefined-- 63.244
3.13 --undefined-- 63.079
3.14 101.758 62.905
3.15 101.518 63.776
3.16 98.607 64.942
3.17 98.839 65.563
3.18 94.614 65.424
3.19 90.505 64.734
3.20 78.130 63.749
3.21 --undefined-- 62.925
3.22 --undefined-- 61.611
3.23 --undefined-- 58.782
3.24 --undefined-- 54.727
3.25 --undefined-- 51.169
3.26 --undefined-- 50.655
3.27 89.770 51.117
3.28 89.748 51.788
3.29 94.427 52.716
3.30 94.580 53.707
3.31 97.627 57.143
3.32 --undefined-- 61.981
3.33 99.005 65.018
3.34 102.197 66.767
3.35 103.087 67.958
3.36 104.829 68.855
3.37 105.971 69.249
3.38 107.126 68.997
3.39 108.014 68.567
3.40 109.415 68.055
3.41 110.874 67.240
3.42 113.313 66.305
3.43 113.737 65.098
3.44 111.265 63.596
3.45 108.403 62.085
3.46 107.683 60.594
3.47 106.990 58.537
3.48 106.762 55.346
3.49 105.239 51.408
3.50 --undefined-- 47.525
3.51 --undefined-- 44.489
3.52 --undefined-- 42.815
3.53 --undefined-- 44.929
3.54 --undefined-- 51.547
3.55 --undefined-- 57.450
3.56 --undefined-- 61.679
3.57 95.321 64.211
3.58 96.565 65.209
3.59 89.167 64.933
3.60 89.132 63.669
3.61 88.033 62.295
3.62 89.507 61.784
3.63 90.617 61.526
3.64 89.924 60.853
3.65 89.416 59.842
3.66 88.255 58.783
3.67 87.718 57.515
3.68 87.249 55.854
3.69 87.615 54.369
3.70 87.371 53.382
3.71 86.989 52.607
3.72 88.109 52.013
3.73 89.835 51.220
3.74 --undefined-- 49.098
3.75 --undefined-- 45.303
3.76 --undefined-- 41.143
3.77 --undefined-- 37.512
3.78 --undefined-- 34.934
3.79 --undefined-- 34.779
3.80 --undefined-- 34.465
3.81 --undefined-- 34.923
3.82 --undefined-- 37.926
3.83 --undefined-- 40.264
3.84 --undefined-- 41.277
3.85 --undefined-- 41.772
3.86 --undefined-- 41.809
3.87 --undefined-- 41.752
3.88 --undefined-- 46.274
3.89 --undefined-- 57.793
3.90 --undefined-- 66.923
3.91 --undefined-- 71.979
3.92 --undefined-- 73.452
3.93 109.320 72.334
3.94 107.685 70.166
3.95 106.726 67.916
3.96 106.718 66.006
3.97 107.103 64.798
3.98 107.671 64.124
3.99 108.851 63.603
4.00 110.142 62.490
4.01 110.541 60.451
4.02 108.884 57.114
4.03 --undefined-- 51.853
4.04 --undefined-- 44.814
4.05 --undefined-- 39.041
4.06 --undefined-- 42.106
4.07 --undefined-- 48.657
4.08 --undefined-- 52.607
4.09 --undefined-- 53.679
4.10 --undefined-- 54.140
4.11 --undefined-- 58.771
4.12 --undefined-- 62.406
4.13 --undefined-- 63.102
4.14 --undefined-- 61.206
4.15 --undefined-- 56.891
4.16 --undefined-- 49.713
4.17 --undefined-- 40.752
4.18 --undefined-- 37.268
4.19 --undefined-- 36.828
4.20 --undefined-- 35.871
4.21 --undefined-- 34.573
4.22 --undefined-- 33.702
4.23 --undefined-- 34.027
4.24 --undefined-- 36.275
4.25 --undefined-- 37.581
4.26 --undefined-- 37.414
4.27 --undefined-- 36.771
4.28 --undefined-- 37.254
4.29 --undefined-- 39.786
4.30 --undefined-- 42.666
4.31 --undefined-- 44.788
4.32 --undefined-- 44.958
4.33 --undefined-- 46.326
4.34 --undefined-- 50.488
4.35 --undefined-- 55.837
4.36 219.003 61.301
4.37 219.900 64.415
4.38 --undefined-- 64.549
4.39 --undefined-- 63.832
4.40 --undefined-- 66.967
4.41 --undefined-- 70.039
4.42 116.112 71.341
4.43 115.559 71.765
4.44 115.747 71.588
4.45 115.345 70.997
4.46 114.560 70.170
4.47 114.416 68.622
4.48 111.877 65.684
4.49 112.932 64.279
4.50 112.855 66.818
4.51 111.863 68.832
4.52 110.692 69.180
4.53 111.173 68.491
4.54 111.711 67.700
4.55 111.115 66.592
4.56 109.044 64.155
4.57 106.575 60.274
4.58 --undefined-- 56.431
4.59 --undefined-- 55.151
4.60 --undefined-- 54.441
4.61 --undefined-- 53.891
4.62 --undefined-- 53.946
4.63 --undefined-- 53.757
4.64 --undefined-- 53.037
4.65 --undefined-- 51.444
4.66 --undefined-- 50.417
4.67 --undefined-- 51.205
4.68 --undefined-- 53.272
4.69 --undefined-- 55.790
4.70 --undefined-- 57.740
4.71 --undefined-- 61.136
4.72 --undefined-- 65.207
4.73 --undefined-- 67.648
4.74 127.051 68.472
4.75 121.281 68.717
4.76 118.865 68.785
4.77 117.666 67.979
4.78 116.280 65.452
4.79 --undefined-- 60.620
4.80 118.760 55.061
4.81 118.905 53.374
4.82 118.255 52.773
4.83 112.729 51.435
4.84 --undefined-- 52.897
4.85 --undefined-- 58.575
4.86 110.374 62.712
4.87 107.594 64.643
4.88 105.170 64.690
4.89 101.626 63.145
4.90 98.143 60.338
4.91 --undefined-- 56.800
4.92 --undefined-- 53.722
4.93 --undefined-- 51.518
4.94 --undefined-- 50.854
4.95 --undefined-- 51.492
4.96 --undefined-- 52.770
4.97 --undefined-- 54.276
4.98 --undefined-- 55.029
4.99 --undefined-- 54.902
5.00 --undefined-- 57.467
5.01 --undefined-- 61.685
5.02 92.746 63.657
5.03 92.708 63.411
5.04 --undefined-- 61.625
5.05 --undefined-- 58.660
5.06 --undefined-- 54.037
5.07 --undefined-- 48.719
5.08 --undefined-- 46.329
5.09 --undefined-- 45.813
5.10 --undefined-- 46.173
5.11 --undefined-- 46.662
5.12 --undefined-- 46.765
5.13 --undefined-- 47.466
5.14 --undefined-- 50.673
5.15 --undefined-- 54.996
5.16 94.370 58.057
5.17 94.292 60.526
5.18 98.553 62.705
5.19 99.157 63.841
5.20 101.656 64.416
5.21 103.606 65.139
5.22 104.161 65.765
5.23 105.608 66.006
5.24 106.325 66.012
5.25 107.008 66.056
5.26 108.316 66.096
5.27 109.875 66.019
5.28 111.108 65.623
5.29 113.483 64.931
5.30 116.330 64.104
5.31 117.974 63.071
5.32 118.155 61.488
5.33 117.785 58.708
5.34 118.255 54.245
5.35 --undefined-- 48.024
5.36 --undefined-- 42.897
5.37 --undefined-- 40.401
5.38 --undefined-- 38.869
5.39 --undefined-- 39.982
5.40 --undefined-- 41.932
5.41 --undefined-- 43.239
5.42 --undefined-- 44.350
5.43 --undefined-- 45.802
5.44 --undefined-- 46.615
5.45 --undefined-- 46.651
5.46 --undefined-- 47.203
5.47 --undefined-- 47.853
5.48 --undefined-- 46.848
5.49 --undefined-- 44.749
5.50 --undefined-- 43.271
5.51 --undefined-- 42.512
5.52 --undefined-- 42.313
5.53 --undefined-- 42.421
5.54 --undefined-- 42.075
5.55 --undefined-- 41.696
5.56 --undefined-- 42.221
5.57 --undefined-- 42.831
5.58 --undefined-- 42.405
5.59 --undefined-- 41.250
5.60 --undefined-- 41.017
5.61 --undefined-- 41.665
5.62 --undefined-- 41.237
5.63 --undefined-- 39.819
5.64 --undefined-- 38.835
5.65 --undefined-- 40.124
5.66 --undefined-- 45.437
5.67 --undefined-- 50.249
5.68 104.888 53.023
5.69 108.432 54.693
5.70 108.351 57.677
5.71 --undefined-- 63.456
5.72 --undefined-- 67.940
5.73 --undefined-- 70.219
5.74 --undefined-- 70.929
5.75 92.860 70.618
5.76 91.879 70.182
5.77 90.461 69.685
5.78 93.597 68.594
5.79 93.653 66.861
5.80 93.426 64.287
5.81 93.957 --undefined--
5.82 95.876 --undefined--
5.83 --undefined-- --undefined--
5.84 --undefined-- --undefined--
