Time Pitch Intensity
0.01 --undefined-- --undefined--
0.02 83.262 --undefined--
0.03 80.985 --undefined--
0.04 --undefined-- --undefined--
0.05 91.646 72.568
0.06 92.012 72.111
0.07 92.258 70.987
0.08 92.746 69.401
0.09 --undefined-- 66.443
0.10 --undefined-- 60.953
0.11 --undefined-- 52.485
0.12 --undefined-- 42.127
0.13 --undefined-- 36.217
0.14 --undefined-- 36.827
0.15 --undefined-- 37.984
0.16 --undefined-- 38.875
0.17 --undefined-- 38.890
0.18 --undefined-- 38.522
0.19 --undefined-- 37.569
0.20 --undefined-- 36.107
0.21 --undefined-- 35.646
0.22 --undefined-- 36.401
0.23 --undefined-- 36.887
0.24 --undefined-- 38.304
0.25 --undefined-- 39.172
0.26 --undefined-- 37.880
0.27 --undefined-- 35.919
0.28 --undefined-- 35.141
0.29 --undefined-- 34.062
0.30 --undefined-- 33.416
0.31 --undefined-- 34.925
0.32 --undefined-- 35.659
0.33 --undefined-- 34.364
0.34 --undefined-- 32.277
0.35 --undefined-- 32.910
0.36 --undefined-- 36.389
0.37 --undefined-- 38.614
0.38 --undefined-- 39.049
0.39 --undefined-- 38.339
0.40 --undefined-- 42.408
0.41 --undefined-- 52.011
0.42 --undefined-- 59.836
0.43 94.950 65.635
0.44 96.094 69.940
0.45 96.369 72.940
0.46 94.856 74.488
0.47 95.353 74.074
0.48 95.406 71.521
0.49 95.460 67.536
0.50 95.825 62.943
0.51 --undefined-- 59.666
0.52 --undefined-- 58.615
0.53 --undefined-- 57.452
0.54 --undefined-- 56.251
0.55 --undefined-- 55.125
0.56 --undefined-- 58.686
0.57 --undefined-- 66.126
0.58 --undefined-- 71.037
0.59 --undefined-- 73.152
0.60 --undefined-- 73.171
0.61 92.463 72.313
0.62 89.088 71.789
0.63 87.418 71.819
0.64 87.574 72.182
0.65 89.284 72.244
0.66 92.030 71.898
0.67 94.420 71.552
0.68 95.499 71.134
0.69 96.387 69.889
0.70 --undefined-- 66.879
0.71 --undefined-- 61.202
0.72 --undefined-- 52.232
0.73 --undefined-- 42.182
0.74 --undefined-- 36.695
0.75 --undefined-- 35.714
0.76 --undefined-- 35.469
0.77 --undefined-- 34.965
0.78 --undefined-- 39.350
0.79 --undefined-- 50.300
0.80 --undefined-- 58.688
0.81 108.841 64.889
0.82 106.899 69.598
0.83 105.132 73.015
0.84 101.385 75.247
0.85 101.051 76.229
0.86 101.223 76.129
0.87 101.999 75.521
0.88 102.106 74.937
0.89 102.203 74.448
0.90 101.857 74.142
0.91 101.349 74.051
0.92 100.404 73.980
0.93 100.363 73.938
0.94 100.306 73.965
0.95 101.044 74.044
0.96 102.152 74.165
0.97 102.797 74.253
0.98 102.585 74.211
0.99 101.976 73.490
1.00 --undefined-- 71.252
1.01 --undefined-- 70.081
1.02 --undefined-- 70.819
1.03 --undefined-- 68.734
1.04 --undefined-- 64.351
1.05 --undefined-- 59.861
1.06 --undefined-- 52.521
1.07 --undefined-- 41.641
1.08 --undefined-- 48.912
1.09 --undefined-- 59.636
1.10 --undefined-- 67.145
1.11 --undefined-- 71.762
1.12 86.704 74.183
1.13 87.387 74.934
1.14 88.789 74.396
1.15 91.385 72.958
1.16 --undefined-- 70.661
1.17 --undefined-- 66.951
1.18 --undefined-- 60.912
1.19 --undefined-- 56.036
1.20 --undefined-- 62.020
1.21 108.706 68.563
1.22 107.200 72.509
1.23 105.489 74.146
1.24 102.171 74.012
1.25 100.443 72.218
1.26 94.555 68.487
1.27 --undefined-- 62.610
1.28 --undefined-- 54.940
1.29 --undefined-- 47.132
1.30 --undefined-- 41.603
1.31 --undefined-- 43.104
1.32 --undefined-- 51.048
1.33 --undefined-- 60.435
1.34 --undefined-- 67.646
1.35 --undefined-- 72.235
1.36 --undefined-- 74.457
1.37 89.334 74.814
1.38 86.821 73.954
1.39 82.327 72.527
1.40 81.190 70.570
1.41 80.607 67.291
1.42 --undefined-- 62.371
1.43 --undefined-- 55.981
1.44 --undefined-- 48.352
1.45 --undefined-- 40.088
1.46 --undefined-- 35.570
1.47 --undefined-- 35.213
1.48 --undefined-- 35.684
1.49 --undefined-- 37.507
1.50 --undefined-- 43.101
1.51 --undefined-- 49.921
1.52 --undefined-- 58.581
1.53 --undefined-- 65.640
1.54 102.379 70.140
1.55 100.362 72.498
1.56 96.196 73.044
1.57 92.352 72.517
1.58 91.776 71.984
1.59 93.641 71.945
1.60 96.481 72.267
1.61 99.059 72.438
1.62 100.536 72.024
1.63 100.675 70.800
1.64 100.257 68.676
1.65 96.506 65.808
1.66 92.372 61.716
1.67 --undefined-- 55.909
1.68 --undefined-- 49.683
1.69 --undefined-- 43.943
1.70 --undefined-- 45.036
1.71 --undefined-- 51.750
1.72 99.821 58.157
1.73 98.820 63.489
1.74 94.011 67.637
1.75 93.567 70.223
1.76 90.106 71.254
1.77 89.459 71.595
1.78 85.484 71.901
1.79 84.826 72.123
1.80 84.467 72.265
1.81 81.097 72.687
1.82 81.294 73.138
1.83 --undefined-- 73.102
1.84 --undefined-- 72.818
1.85 --undefined-- 72.352
1.86 --undefined-- 71.366
1.87 --undefined-- 70.375
1.88 --undefined-- 69.613
1.89 --undefined-- 68.347
1.90 --undefined-- 66.278
1.91 --undefined-- 62.759
1.92 --undefined-- 57.730
1.93 --undefined-- 53.193
1.94 --undefined-- 49.687
1.95 --undefined-- 46.113
1.96 --undefined-- 42.854
1.97 --undefined-- 41.125
1.98 --undefined-- 40.927
1.99 --undefined-- 40.424
2.00 --undefined-- 40.596
2.01 --undefined-- 42.559
2.02 --undefined-- 46.670
2.03 --undefined-- 51.741
2.04 82.114 57.007
2.05 86.738 62.449
2.06 91.700 67.151
2.07 94.089 70.588
2.08 98.558 72.666
2.09 --undefined-- 73.216
2.10 --undefined-- 72.275
2.11 --undefined-- 69.866
2.12 --undefined-- 65.519
2.13 --undefined-- 58.986
2.14 --undefined-- 51.509
2.15 --undefined-- 43.932
2.16 --undefined-- 35.675
2.17 --undefined-- 33.411
2.18 --undefined-- 35.652
2.19 --undefined-- 36.863
2.20 --undefined-- 37.297
2.21 --undefined-- 38.072
2.22 --undefined-- 38.160
2.23 --undefined-- 37.631
2.24 --undefined-- 38.252
2.25 --undefined-- 38.919
2.26 --undefined-- 38.816
2.27 --undefined-- 38.376
2.28 --undefined-- 37.243
2.29 --undefined-- 35.797
2.30 --undefined-- 35.563
2.31 --undefined-- 37.162
2.32 --undefined-- 41.018
2.33 --undefined-- 44.832
2.34 --undefined-- 47.960
2.35 --undefined-- 55.657
2.36 --undefined-- 62.009
2.37 117.086 66.276
2.38 114.841 69.663
2.39 113.034 71.861
2.40 112.033 73.027
2.41 110.837 73.969
2.42 106.862 74.764
2.43 102.346 75.083
2.44 97.649 74.898
2.45 92.198 74.449
2.46 91.174 74.110
2.47 87.087 73.740
2.48 83.967 72.785
2.49 82.330 70.954
2.50 81.998 68.438
2.51 --undefined-- 65.669
2.52 --undefined-- 61.864
2.53 --undefined-- 55.893
2.54 --undefined-- 49.128
2.55 --undefined-- 49.599
2.56 --undefined-- 56.236
2.57 --undefined-- 64.530
2.58 100.146 69.869
2.59 92.549 72.440
2.60 92.242 73.145
2.61 92.096 73.042
2.62 93.883 72.738
2.63 95.588 72.439
2.64 96.408 71.896
2.65 --undefined-- 70.141
2.66 --undefined-- 66.070
2.67 --undefined-- 59.190
2.68 --undefined-- 52.571
2.69 --undefined-- 60.354
2.70 113.347 68.461
2.71 112.595 73.051
2.72 111.477 74.665
2.73 108.170 74.482
2.74 104.811 74.146
2.75 101.027 74.043
2.76 99.516 74.001
2.77 96.122 74.213
2.78 92.472 74.364
2.79 91.506 74.268
2.80 91.219 74.234
2.81 91.837 74.535
2.82 92.155 74.755
2.83 --undefined-- 73.969
2.84 --undefined-- 72.582
2.85 265.904 71.631
2.86 273.045 70.569
2.87 275.006 71.333
2.88 268.455 72.821
2.89 269.337 73.876
2.90 --undefined-- 74.569
2.91 --undefined-- 73.833
2.92 --undefined-- 72.746
2.93 113.357 71.765
2.94 112.246 69.375
2.95 109.804 65.397
2.96 108.476 59.964
2.97 --undefined-- 52.977
2.98 --undefined-- 44.623
2.99 --undefined-- 38.674
3.00 --undefined-- 37.099
3.01 --undefined-- 37.129
3.02 --undefined-- 39.115
3.03 --undefined-- 41.943
3.04 --undefined-- 43.429
3.05 --undefined-- 44.340
3.06 --undefined-- 46.769
3.07 --undefined-- 53.687
3.08 --undefined-- 62.328
3.09 --undefined-- 68.552
3.10 --undefined-- 72.201
3.11 100.142 74.001
3.12 95.832 74.742
3.13 91.464 74.768
3.14 87.857 74.081
3.15 85.745 72.883
3.16 85.652 71.651
3.17 85.754 70.627
3.18 87.372 69.689
3.19 89.261 68.659
3.20 91.234 67.834
3.21 93.704 67.845
3.22 94.886 68.599
3.23 96.373 69.305
3.24 96.752 69.696
3.25 97.182 70.109
3.26 97.899 70.610
3.27 100.427 70.918
3.28 101.581 71.010
3.29 102.465 70.820
3.30 104.186 70.242
3.31 107.270 69.742
3.32 109.462 69.896
3.33 112.116 70.297
3.34 115.673 70.067
3.35 115.033 68.630
3.36 --undefined-- 66.635
3.37 --undefined-- 64.872
3.38 --undefined-- 62.903
3.39 169.889 62.202
3.40 164.986 61.569
3.41 178.582 60.103
3.42 --undefined-- 60.005
3.43 --undefined-- 61.822
3.44 --undefined-- 64.118
3.45 --undefined-- 66.999
3.46 --undefined-- 70.141
3.47 --undefined-- 73.055
3.48 --undefined-- 74.330
3.49 --undefined-- 74.041
3.50 --undefined-- 73.465
3.51 83.486 73.227
3.52 84.047 73.232
3.53 86.177 73.335
3.54 87.818 73.000
3.55 89.777 71.709
3.56 95.453 69.930
3.57 102.512 68.777
3.58 105.382 68.994
3.59 106.510 70.209
3.60 105.946 71.525
3.61 105.602 72.542
3.62 105.674 73.207
3.63 104.389 73.608
3.64 101.722 73.764
3.65 98.976 73.549
3.66 94.318 73.155
3.67 90.711 72.819
3.68 86.007 72.489
3.69 82.742 71.971
3.70 78.641 71.184
3.71 --undefined-- 69.790
3.72 --undefined-- 67.136
3.73 --undefined-- 63.028
3.74 --undefined-- 57.592
3.75 --undefined-- 51.930
3.76 --undefined-- 47.266
3.77 --undefined-- 43.266
3.78 --undefined-- 40.245
3.79 --undefined-- 38.186
3.80 --undefined-- 37.349
3.81 --undefined-- 37.369
3.82 --undefined-- 37.570
3.83 --undefined-- 38.265
3.84 --undefined-- 38.790
3.85 --undefined-- 37.988
3.86 --undefined-- 37.459
3.87 --undefined-- 38.921
3.88 --undefined-- 40.408
3.89 --undefined-- 42.514
3.90 --undefined-- 46.067
3.91 --undefined-- 50.395
3.92 --undefined-- 54.744
3.93 82.982 58.887
3.94 81.775 62.797
3.95 81.775 66.231
3.96 86.453 69.032
3.97 90.273 70.985
3.98 90.037 71.685
3.99 89.930 70.968
4.00 89.266 68.932
4.01 88.164 65.837
4.02 89.721 62.950
4.03 92.943 62.481
4.04 96.940 63.067
4.05 99.989 63.297
4.06 103.202 63.378
4.07 104.830 63.405
4.08 104.769 62.999
4.09 104.132 61.620
4.10 --undefined-- 59.264
4.11 --undefined-- 60.138
4.12 --undefined-- 65.888
4.13 --undefined-- 71.229
4.14 110.362 74.611
4.15 111.980 75.854
4.16 109.939 75.512
4.17 104.548 74.705
4.18 100.667 74.483
4.19 98.715 73.867
4.20 96.681 71.661
4.21 94.571 66.969
4.22 --undefined-- 58.975
4.23 --undefined-- 48.561
4.24 --undefined-- 40.732
4.25 --undefined-- 37.794
4.26 --undefined-- 37.375
4.27 --undefined-- 40.747
4.28 --undefined-- 49.387
4.29 --undefined-- 57.251
4.30 100.760 63.075
4.31 98.084 67.294
4.32 93.540 70.098
4.33 89.083 72.040
4.34 88.856 73.126
4.35 84.357 73.147
4.36 80.529 72.332
4.37 77.001 71.166
4.38 --undefined-- 69.697
4.39 --undefined-- 67.606
4.40 --undefined-- 64.904
4.41 76.687 62.208
4.42 79.576 61.234
4.43 79.592 61.624
4.44 79.651 62.385
4.45 83.010 64.076
4.46 85.818 66.222
4.47 87.177 67.821
4.48 88.462 68.958
4.49 89.483 70.128
4.50 89.592 71.282
4.51 89.487 72.113
4.52 89.817 72.530
4.53 90.639 72.547
4.54 90.826 72.175
4.55 92.769 71.178
4.56 91.931 68.757
4.57 --undefined-- 64.303
4.58 --undefined-- 57.912
4.59 --undefined-- 50.323
4.60 --undefined-- 42.153
4.61 --undefined-- 39.698
4.62 --undefined-- 39.302
4.63 --undefined-- 37.899
4.64 --undefined-- 42.081
4.65 --undefined-- 49.262
4.66 --undefined-- 56.355
4.67 96.739 62.819
4.68 96.312 67.969
4.69 94.312 71.198
4.70 93.532 72.712
4.71 93.287 72.978
4.72 90.208 72.701
4.73 89.361 72.315
4.74 88.549 71.761
4.75 87.354 70.695
4.76 84.452 68.598
4.77 --undefined-- 64.741
4.78 --undefined-- 58.656
4.79 --undefined-- 50.578
4.80 --undefined-- 42.745
4.81 --undefined-- 39.054
4.82 --undefined-- 36.422
4.83 --undefined-- 35.911
4.84 --undefined-- 37.046
4.85 --undefined-- 37.267
4.86 --undefined-- 37.107
4.87 --undefined-- 37.358
4.88 --undefined-- 40.149
4.89 --undefined-- 46.191
4.90 --undefined-- 53.357
4.91 105.092 59.564
4.92 103.855 64.258
4.93 102.532 67.773
4.94 101.785 69.504
4.95 101.276 68.882
4.96 --undefined-- 65.543
4.97 --undefined-- 59.157
4.98 --undefined-- 49.779
4.99 --undefined-- 42.392
5.00 --undefined-- 43.822
5.01 --undefined-- 49.822
5.02 --undefined-- 57.272
5.03 --undefined-- 62.936
5.04 --undefined-- 67.276
5.05 --undefined-- 70.616
5.06 --undefined-- 73.117
5.07 84.586 74.475
5.08 81.449 74.516
5.09 79.883 73.785
5.10 79.700 72.648
5.11 80.158 70.976
5.12 80.832 68.498
5.13 80.401 64.933
5.14 80.661 60.595
5.15 --undefined-- 56.971
5.16 --undefined-- 53.650
5.17 --undefined-- 50.272
5.18 --undefined-- 46.828
5.19 --undefined-- 44.315
5.20 --undefined-- 44.660
5.21 --undefined-- 46.649
5.22 --undefined-- 49.391
5.23 87.291 54.438
5.24 84.494 60.352
5.25 82.560 65.167
5.26 81.961 68.346
5.27 81.766 70.153
5.28 79.406 71.063
5.29 78.765 71.288
5.30 77.496 71.210
5.31 77.447 71.245
5.32 77.916 70.999
5.33 77.429 70.165
5.34 76.755 68.952
5.35 76.692 67.662
5.36 77.317 66.668
5.37 76.020 65.236
5.38 76.523 62.465
5.39 --undefined-- 57.786
5.40 --undefined-- 50.831
5.41 --undefined-- 43.215
5.42 --undefined-- 39.305
5.43 --undefined-- 37.518
5.44 --undefined-- 37.476
5.45 --undefined-- 37.064
5.46 --undefined-- 36.291
5.47 --undefined-- 36.132
5.48 --undefined-- 37.319
5.49 --undefined-- 39.898
5.50 --undefined-- 42.458
5.51 --undefined-- 44.456
5.52 --undefined-- 45.857
5.53 --undefined-- 46.581
5.54 --undefined-- 46.879
5.55 --undefined-- 47.021
5.56 --undefined-- 46.947
5.57 --undefined-- 47.253
5.58 --undefined-- 47.493
5.59 --undefined-- 47.488
5.60 --undefined-- 47.143
5.61 --undefined-- 46.494
5.62 --undefined-- 46.928
5.63 --undefined-- 47.263
5.64 --undefined-- 46.603
5.65 --undefined-- 45.776
5.66 --undefined-- 45.261
5.67 --undefined-- 44.841
5.68 --undefined-- 43.739
5.69 --undefined-- 41.841
5.70 --undefined-- 40.173
5.71 --undefined-- 39.789
5.72 --undefined-- 39.184
5.73 --undefined-- 37.261
5.74 --undefined-- 36.640
5.75 --undefined-- 36.718
5.76 --undefined-- 36.616
5.77 --undefined-- 42.093
5.78 --undefined-- 51.634
5.79 --undefined-- 61.795
5.80 --undefined-- 69.085
5.81 86.176 73.145
5.82 85.744 74.784
5.83 85.662 74.941
5.84 87.664 74.540
5.85 87.262 74.063
5.86 86.411 73.391
5.87 86.096 72.373
5.88 86.270 71.425
5.89 87.084 70.908
5.90 88.555 70.498
5.91 91.192 69.893
5.92 95.487 69.600
5.93 100.081 69.996
5.94 102.511 70.458
5.95 104.319 70.135
5.96 105.261 68.602
5.97 104.422 66.169
5.98 99.111 65.853
5.99 98.633 69.439
6.00 103.074 72.884
6.01 103.624 74.477
6.02 --undefined-- 74.319
6.03 --undefined-- 73.315
6.04 --undefined-- 72.750
6.05 84.882 72.616
6.06 81.966 71.989
6.07 82.351 70.358
6.08 82.123 67.601
6.09 82.049 64.840
6.10 82.098 62.786
6.11 82.083 60.773
6.12 81.854 57.743
6.13 81.600 52.895
6.14 --undefined-- 46.230
6.15 --undefined-- 40.762
6.16 --undefined-- 38.888
6.17 --undefined-- 37.803
6.18 --undefined-- 37.056
6.19 --undefined-- 37.749
6.20 --undefined-- 41.284
6.21 --undefined-- 46.071
6.22 --undefined-- --undefined--
6.23 --undefined-- --undefined--
6.24 --undefined-- --undefined--
6.25 --undefined-- --undefined--
