Time Pitch Intensity
0.01 --undefined-- --undefined--
0.02 205.170 --undefined--
0.03 209.665 --undefined--
0.04 214.427 --undefined--
0.05 216.788 61.872
0.06 215.833 61.605
0.07 214.422 61.114
0.08 210.109 59.766
0.09 205.216 57.075
0.10 202.397 54.525
0.11 --undefined-- 60.008
0.12 --undefined-- 64.984
0.13 --undefined-- 66.764
0.14 --undefined-- 68.020
0.15 --undefined-- 70.248
0.16 193.446 71.955
0.17 187.455 72.810
0.18 184.683 72.854
0.19 182.298 72.200
0.20 178.629 71.184
0.21 174.345 70.352
0.22 173.828 69.732
0.23 173.880 69.605
0.24 172.029 70.185
0.25 170.596 70.680
0.26 170.526 70.751
0.27 169.563 70.313
0.28 167.133 69.275
0.29 165.995 67.721
0.30 165.732 65.344
0.31 166.738 62.072
0.32 168.658 57.724
0.33 167.108 52.339
0.34 --undefined-- 48.626
0.35 --undefined-- 46.638
0.36 --undefined-- 43.149
0.37 --undefined-- 37.809
0.38 --undefined-- 31.480
0.39 --undefined-- 26.401
0.40 --undefined-- 24.890
0.41 --undefined-- 24.794
0.42 --undefined-- 25.106
0.43 --undefined-- 25.464
0.44 --undefined-- 25.222
0.45 --undefined-- 23.663
0.46 --undefined-- 21.422
0.47 --undefined-- 20.216
0.48 --undefined-- 19.645
0.49 --undefined-- 19.629
0.50 --undefined-- 20.244
0.51 --undefined-- 21.043
0.52 --undefined-- 21.074
0.53 --undefined-- 19.945
0.54 --undefined-- 19.095
0.55 --undefined-- 19.908
0.56 --undefined-- 20.492
0.57 --undefined-- 20.558
0.58 --undefined-- 22.597
0.59 --undefined-- 25.776
0.60 --undefined-- 27.296
0.61 --undefined-- 27.068
0.62 --undefined-- 26.744
0.63 --undefined-- 26.798
0.64 --undefined-- 26.466
0.65 --undefined-- 25.886
0.66 --undefined-- 25.932
0.67 --undefined-- 26.372
0.68 --undefined-- 26.692
0.69 --undefined-- 28.348
0.70 --undefined-- 37.404
0.71 --undefined-- 46.568
0.72 --undefined-- 53.818
0.73 178.610 60.253
0.74 181.483 65.737
0.75 183.563 69.429
0.76 186.645 71.408
0.77 188.851 72.539
0.78 191.584 73.642
0.79 191.518 74.411
0.80 190.100 73.828
0.81 191.493 71.955
0.82 190.311 70.628
0.83 187.516 70.613
0.84 185.496 70.612
0.85 186.784 69.854
0.86 190.087 67.832
0.87 195.081 64.731
0.88 196.738 62.078
0.89 193.774 60.786
0.90 191.365 60.081
0.91 188.878 60.481
0.92 184.190 63.316
0.93 185.041 67.715
0.94 187.510 70.947
0.95 186.073 72.267
0.96 183.602 72.539
0.97 183.647 72.525
0.98 183.638 72.166
0.99 182.740 71.869
1.00 182.511 72.009
1.01 182.667 71.826
1.02 184.411 70.608
1.03 187.500 68.789
1.04 189.965 67.229
1.05 190.917 65.664
1.06 190.490 63.732
1.07 190.684 62.336
1.08 190.365 61.962
1.09 190.337 61.747
1.10 192.642 61.041
1.11 186.582 59.892
1.12 187.140 58.412
1.13 200.448 56.744
1.14 206.412 54.776
1.15 213.842 52.136
1.16 --undefined-- 50.994
1.17 --undefined-- 51.563
1.18 --undefined-- 51.725
1.19 --undefined-- 51.724
1.20 --undefined-- 51.682
1.21 --undefined-- 51.410
1.22 --undefined-- 53.908
1.23 --undefined-- 62.557
1.24 295.987 69.476
1.25 295.024 72.849
1.26 294.259 73.165
1.27 287.460 71.113
1.28 281.177 67.996
1.29 276.104 65.386
1.30 274.777 63.709
1.31 273.440 63.051
1.32 272.489 63.322
1.33 275.474 63.992
1.34 276.678 64.417
1.35 276.914 64.720
1.36 275.139 65.680
1.37 274.523 66.891
1.38 275.474 67.774
1.39 276.803 68.550
1.40 277.236 69.861
1.41 278.631 72.007
1.42 283.069 74.045
1.43 285.174 74.991
1.44 285.301 74.726
1.45 285.412 73.879
1.46 284.953 73.228
1.47 286.078 72.824
1.48 285.905 72.095
1.49 285.027 71.057
1.50 284.838 70.168
1.51 286.562 69.586
1.52 291.844 69.173
1.53 296.170 68.860
1.54 296.452 68.276
1.55 296.541 67.193
1.56 296.173 65.990
1.57 296.114 65.128
1.58 296.240 64.388
1.59 296.188 63.634
1.60 295.604 63.267
1.61 294.571 62.867
1.62 293.599 61.468
1.63 297.410 59.526
1.64 154.797 58.744
1.65 151.544 59.145
1.66 152.660 59.392
1.67 151.520 58.372
1.68 147.153 56.151
1.69 144.792 53.992
1.70 143.243 52.214
1.71 --undefined-- 49.507
1.72 --undefined-- 45.231
1.73 --undefined-- 40.259
1.74 --undefined-- 35.828
1.75 --undefined-- 31.674
1.76 --undefined-- 27.983
1.77 --undefined-- 26.473
1.78 --undefined-- 33.834
1.79 --undefined-- 46.792
1.80 --undefined-- 54.409
1.81 --undefined-- 57.759
1.82 --undefined-- 60.748
1.83 --undefined-- 67.177
1.84 279.762 71.835
1.85 275.873 73.971
1.86 272.374 74.435
1.87 268.325 74.192
1.88 270.011 73.761
1.89 273.559 73.275
1.90 274.394 72.580
1.91 275.663 71.564
1.92 280.156 70.811
1.93 283.264 70.702
1.94 284.428 70.735
1.95 285.712 70.783
1.96 286.004 70.828
1.97 286.478 70.581
1.98 290.859 69.795
1.99 297.562 68.379
2.00 150.903 66.031
2.01 152.490 62.501
2.02 147.281 59.714
2.03 149.074 61.122
2.04 151.669 64.235
2.05 154.053 67.066
2.06 154.151 69.321
2.07 153.255 70.781
2.08 152.452 71.662
2.09 152.264 72.028
2.10 150.508 71.656
2.11 296.488 70.586
2.12 291.975 68.885
2.13 285.040 66.626
2.14 277.734 65.123
2.15 277.538 65.575
2.16 278.830 66.197
2.17 276.611 65.957
2.18 271.694 65.625
2.19 271.488 66.068
2.20 274.556 66.914
2.21 275.452 67.513
2.22 276.235 67.702
2.23 280.895 67.471
2.24 285.805 66.199
2.25 287.676 63.133
2.26 277.572 57.989
2.27 276.910 52.438
2.28 --undefined-- 49.438
2.29 --undefined-- 46.750
2.30 --undefined-- 44.352
2.31 --undefined-- 43.467
2.32 --undefined-- 43.497
2.33 --undefined-- 43.965
2.34 --undefined-- 45.416
2.35 --undefined-- 47.913
2.36 --undefined-- 50.065
2.37 --undefined-- 54.191
2.38 --undefined-- 59.453
2.39 206.962 63.770
2.40 205.620 66.562
2.41 204.413 67.805
2.42 201.498 67.867
2.43 199.589 66.793
2.44 197.622 64.095
2.45 193.729 59.592
2.46 189.407 53.825
2.47 --undefined-- 47.970
2.48 --undefined-- 43.741
2.49 --undefined-- 39.355
2.50 --undefined-- 33.479
2.51 --undefined-- 29.846
2.52 --undefined-- 28.411
2.53 --undefined-- 26.827
2.54 --undefined-- 25.950
2.55 --undefined-- 35.462
2.56 --undefined-- 50.400
2.57 --undefined-- 59.170
2.58 --undefined-- 63.281
2.59 --undefined-- 64.268
2.60 --undefined-- 63.584
2.61 --undefined-- 62.867
2.62 --undefined-- 66.838
2.63 --undefined-- 70.942
2.64 173.176 73.228
2.65 172.579 73.905
2.66 171.292 72.887
2.67 158.342 71.952
2.68 155.093 72.526
2.69 153.132 72.983
2.70 151.109 72.432
2.71 149.377 71.251
2.72 148.218 70.079
2.73 147.607 69.087
2.74 147.597 67.902
2.75 147.851 66.689
2.76 149.441 65.606
2.77 152.646 63.912
2.78 159.437 61.568
2.79 174.547 60.568
2.80 188.789 60.911
2.81 201.275 61.430
2.82 207.710 62.033
2.83 217.216 63.711
2.84 236.733 67.609
2.85 244.291 71.055
2.86 246.890 72.676
2.87 248.822 72.823
2.88 249.789 72.470
2.89 249.711 72.197
2.90 249.141 71.934
2.91 250.761 71.733
2.92 254.978 71.516
2.93 257.928 70.896
2.94 258.774 69.745
2.95 259.059 68.419
2.96 262.471 67.035
2.97 267.338 65.503
2.98 268.148 63.901
2.99 266.777 62.600
3.00 266.856 61.606
3.01 270.076 60.589
3.02 280.301 59.089
3.03 286.781 56.678
3.04 --undefined-- 54.634
3.05 --undefined-- 52.935
3.06 --undefined-- 48.918
3.07 --undefined-- 43.235
3.08 --undefined-- 43.198
3.09 --undefined-- 47.565
3.10 --undefined-- 51.595
3.11 218.941 56.583
3.12 221.241 61.939
3.13 226.374 66.353
3.14 230.700 69.308
3.15 234.170 70.736
3.16 237.662 71.090
3.17 241.671 70.676
3.18 245.338 69.274
3.19 247.543 66.802
3.20 238.608 62.986
3.21 216.689 57.634
3.22 --undefined-- 55.919
3.23 --undefined-- 59.821
3.24 284.194 63.461
3.25 263.483 65.846
3.26 257.951 67.017
3.27 256.531 66.640
3.28 254.538 64.073
3.29 248.438 58.880
3.30 --undefined-- 51.278
3.31 --undefined-- 43.571
3.32 --undefined-- 38.004
3.33 --undefined-- 33.701
3.34 --undefined-- 31.177
3.35 --undefined-- 34.134
3.36 --undefined-- 46.927
3.37 --undefined-- 55.342
3.38 --undefined-- 59.507
3.39 --undefined-- 62.539
3.40 --undefined-- 66.953
3.41 --undefined-- 69.570
3.42 171.827 69.800
3.43 164.437 68.655
3.44 155.918 67.482
3.45 153.904 67.254
3.46 153.452 67.217
3.47 153.155 66.819
3.48 151.509 66.393
3.49 150.916 66.023
3.50 156.167 65.726
3.51 154.084 65.789
3.52 154.414 65.725
3.53 156.916 64.502
3.54 157.176 61.620
3.55 156.288 57.604
3.56 157.609 54.951
3.57 157.174 56.155
3.58 --undefined-- 58.235
3.59 --undefined-- 58.517
3.60 --undefined-- 57.154
3.61 --undefined-- 54.824
3.62 --undefined-- 56.500
3.63 --undefined-- 62.290
3.64 --undefined-- 65.905
3.65 --undefined-- 67.205
3.66 --undefined-- 66.972
3.67 --undefined-- 67.153
3.68 --undefined-- 66.442
3.69 --undefined-- 62.191
3.70 --undefined-- 53.735
3.71 --undefined-- 50.991
3.72 --undefined-- 53.371
3.73 --undefined-- 54.717
3.74 159.365 57.352
3.75 160.950 60.071
3.76 178.822 61.995
3.77 182.955 63.312
3.78 186.700 64.209
3.79 188.440 64.913
3.80 184.974 65.768
3.81 181.501 66.633
3.82 177.349 67.116
3.83 170.328 66.617
3.84 160.993 64.449
3.85 152.861 60.554
3.86 154.895 54.999
3.87 --undefined-- 46.938
3.88 --undefined-- 36.798
3.89 --undefined-- 31.350
3.90 --undefined-- 29.303
3.91 --undefined-- 30.814
3.92 --undefined-- 45.409
3.93 --undefined-- 56.107
3.94 --undefined-- 62.160
3.95 --undefined-- 65.386
3.96 --undefined-- 68.065
3.97 224.300 70.518
3.98 218.904 71.783
3.99 215.429 71.748
4.00 212.424 70.922
4.01 210.275 70.381
4.02 209.783 70.524
4.03 209.846 70.653
4.04 207.984 70.479
4.05 204.857 70.234
4.06 204.020 69.922
4.07 204.598 69.423
4.08 207.155 68.680
4.09 209.707 67.408
4.10 210.114 64.907
4.11 210.532 61.902
4.12 210.273 60.677
4.13 211.024 60.539
4.14 213.926 60.329
4.15 216.809 59.938
4.16 219.241 59.777
4.17 221.872 60.302
4.18 223.935 60.597
4.19 228.263 59.941
4.20 230.340 58.011
4.21 229.497 54.472
4.22 --undefined-- 49.497
4.23 --undefined-- 51.210
4.24 --undefined-- 62.184
4.25 --undefined-- 69.683
4.26 254.002 73.545
4.27 243.764 74.478
4.28 236.355 73.717
4.29 233.373 72.481
4.30 229.746 70.969
4.31 224.090 69.299
4.32 207.941 67.324
4.33 198.340 64.588
4.34 --undefined-- 61.250
4.35 --undefined-- 57.733
4.36 --undefined-- 53.758
4.37 --undefined-- 48.272
4.38 --undefined-- 41.604
4.39 --undefined-- 34.756
4.40 --undefined-- 28.617
4.41 --undefined-- 24.594
4.42 --undefined-- 23.932
4.43 --undefined-- 24.712
4.44 --undefined-- 28.578
4.45 --undefined-- 37.571
4.46 --undefined-- 45.499
4.47 --undefined-- 50.640
4.48 --undefined-- 53.147
4.49 --undefined-- 53.226
4.50 --undefined-- 51.811
4.51 --undefined-- 51.146
4.52 --undefined-- 51.195
4.53 --undefined-- 50.225
4.54 --undefined-- 48.568
4.55 --undefined-- 48.476
4.56 --undefined-- 49.130
4.57 --undefined-- 49.504
4.58 --undefined-- 49.954
4.59 --undefined-- 49.906
4.60 --undefined-- 50.071
4.61 --undefined-- 51.090
4.62 --undefined-- 51.790
4.63 --undefined-- 52.095
4.64 --undefined-- 52.151
4.65 --undefined-- 51.859
4.66 --undefined-- 51.781
4.67 --undefined-- 51.568
4.68 --undefined-- 50.696
4.69 --undefined-- 49.138
4.70 --undefined-- 47.973
4.71 --undefined-- 48.185
4.72 --undefined-- 47.645
4.73 --undefined-- 46.073
4.74 --undefined-- 45.294
4.75 --undefined-- 44.211
4.76 --undefined-- 41.434
4.77 --undefined-- 37.484
4.78 --undefined-- 33.172
4.79 --undefined-- 29.956
4.80 --undefined-- 28.769
4.81 --undefined-- 27.719
4.82 --undefined-- 26.640
4.83 --undefined-- 26.138
4.84 --undefined-- 25.983
4.85 --undefined-- 26.320
4.86 --undefined-- 26.837
4.87 --undefined-- 28.776
4.88 --undefined-- 43.803
4.89 --undefined-- 57.732
4.90 --undefined-- 66.514
4.91 267.434 71.642
4.92 262.088 73.857
4.93 257.317 73.852
4.94 252.665 72.477
4.95 248.247 70.552
4.96 237.299 67.968
4.97 229.445 64.430
4.98 223.895 59.914
4.99 216.651 55.289
5.00 --undefined-- 53.334
5.01 --undefined-- 53.480
5.02 --undefined-- 53.752
5.03 221.406 56.852
5.04 221.950 60.563
5.05 220.778 63.301
5.06 212.957 65.952
5.07 --undefined-- 68.105
5.08 --undefined-- 69.938
5.09 --undefined-- 71.537
5.10 --undefined-- 71.922
5.11 --undefined-- 70.975
5.12 148.265 69.698
5.13 148.050 69.037
5.14 159.070 68.564
5.15 162.169 67.539
5.16 175.753 66.272
5.17 189.259 65.619
5.18 190.489 65.275
5.19 190.699 64.363
5.20 194.113 62.729
5.21 220.336 61.609
5.22 225.327 62.632
5.23 247.784 65.988
5.24 238.736 68.957
5.25 235.370 70.196
5.26 232.425 69.817
5.27 227.364 68.553
5.28 216.654 67.642
5.29 208.532 68.562
5.30 196.440 70.626
5.31 193.750 71.597
5.32 171.448 71.183
5.33 169.420 70.548
5.34 161.877 69.863
5.35 160.205 69.490
5.36 160.449 69.565
5.37 159.871 70.057
5.38 159.181 70.773
5.39 157.918 70.982
5.40 151.205 70.358
5.41 149.797 69.008
5.42 149.697 66.782
5.43 --undefined-- 63.821
5.44 --undefined-- 60.070
5.45 --undefined-- 54.585
5.46 --undefined-- 48.388
5.47 --undefined-- 45.835
5.48 --undefined-- 48.133
5.49 --undefined-- 50.643
5.50 --undefined-- 53.569
5.51 292.749 56.874
5.52 294.842 59.390
5.53 --undefined-- 61.832
5.54 --undefined-- 64.941
5.55 --undefined-- 67.514
5.56 --undefined-- 69.264
5.57 170.208 70.337
5.58 171.023 70.775
5.59 169.985 70.651
5.60 167.756 70.484
5.61 166.577 70.652
5.62 166.151 71.001
5.63 164.614 70.984
5.64 --undefined-- 70.068
5.65 152.188 68.453
5.66 151.467 66.808
5.67 147.816 65.172
5.68 142.535 62.646
5.69 140.053 58.775
5.70 --undefined-- 53.201
5.71 --undefined-- 46.824
5.72 --undefined-- 42.992
5.73 --undefined-- 41.111
5.74 --undefined-- 38.895
5.75 --undefined-- 36.067
5.76 --undefined-- 31.362
5.77 --undefined-- 24.734
5.78 --undefined-- 21.925
5.79 --undefined-- 22.103
5.80 --undefined-- 23.556
5.81 --undefined-- 36.672
5.82 --undefined-- 47.777
5.83 --undefined-- 53.695
5.84 --undefined-- 57.177
5.85 --undefined-- 62.022
5.86 170.726 66.329
5.87 173.047 68.955
5.88 173.800 70.274
5.89 173.423 70.525
5.90 172.914 69.799
5.91 173.362 68.196
5.92 173.735 65.378
5.93 172.581 --undefined--
5.94 169.472 --undefined--
5.95 --undefined-- --undefined--
5.96 --undefined-- --undefined--
