Time Pitch Intensity
0.01 --undefined-- --undefined--
0.02 243.852 --undefined--
0.03 244.163 --undefined--
0.04 246.694 --undefined--
0.05 250.897 72.117
0.06 252.451 70.882
0.07 253.124 69.991
0.08 254.308 69.342
0.09 254.628 68.971
0.10 252.764 68.605
0.11 247.402 67.789
0.12 235.126 66.269
0.13 229.685 63.616
0.14 233.501 59.279
0.15 --undefined-- 53.231
0.16 --undefined-- 47.893
0.17 --undefined-- 46.145
0.18 --undefined-- 44.650
0.19 --undefined-- 42.827
0.20 --undefined-- 41.717
0.21 --undefined-- 41.201
0.22 --undefined-- 41.260
0.23 --undefined-- 42.407
0.24 --undefined-- 48.133
0.25 --undefined-- 55.504
0.26 158.193 60.090
0.27 139.206 62.228
0.28 135.092 62.938
0.29 131.431 62.933
0.30 129.357 62.702
0.31 126.724 62.529
0.32 126.003 62.219
0.33 127.660 61.998
0.34 127.068 61.651
0.35 127.183 60.601
0.36 124.880 58.206
0.37 --undefined-- 53.754
0.38 --undefined-- 47.386
0.39 --undefined-- 42.918
0.40 --undefined-- 41.863
0.41 --undefined-- 42.600
0.42 --undefined-- 46.694
0.43 --undefined-- 54.135
0.44 --undefined-- 61.963
0.45 --undefined-- 66.714
0.46 167.881 68.828
0.47 163.108 69.618
0.48 158.982 70.111
0.49 156.076 70.487
0.50 154.879 70.544
0.51 154.826 70.184
0.52 157.132 69.608
0.53 164.402 69.311
0.54 172.456 69.329
0.55 181.014 69.018
0.56 188.385 67.592
0.57 190.148 64.566
0.58 189.118 59.975
0.59 --undefined-- 54.443
0.60 --undefined-- 50.925
0.61 --undefined-- 49.951
0.62 --undefined-- 53.256
0.63 --undefined-- 62.613
0.64 208.631 68.672
0.65 206.155 71.516
0.66 197.840 72.259
0.67 188.050 72.013
0.68 182.328 71.646
0.69 176.859 71.422
0.70 173.410 71.065
0.71 172.647 70.353
0.72 172.335 69.494
0.73 172.206 68.614
0.74 171.451 67.209
0.75 164.805 64.865
0.76 158.424 61.799
0.77 159.347 58.328
0.78 162.580 54.210
0.79 --undefined-- 50.302
0.80 --undefined-- 55.643
0.81 189.566 62.825
0.82 179.380 67.142
0.83 173.501 69.391
0.84 170.251 70.323
0.85 165.463 70.240
0.86 160.759 69.566
0.87 158.647 69.113
0.88 157.446 69.153
0.89 156.798 69.251
0.90 156.247 69.202
0.91 156.217 69.098
0.92 156.176 68.930
0.93 156.047 68.747
0.94 155.748 68.492
0.95 155.196 68.046
0.96 154.191 67.366
0.97 153.177 66.159
0.98 148.404 63.890
0.99 147.559 60.201
1.00 76.921 56.038
1.01 76.631 53.534
1.02 --undefined-- 51.338
1.03 --undefined-- 47.290
1.04 --undefined-- 42.732
1.05 --undefined-- 41.903
1.06 --undefined-- 43.489
1.07 --undefined-- 43.160
1.08 --undefined-- 41.440
1.09 --undefined-- 41.354
1.10 --undefined-- 42.346
1.11 --undefined-- 42.603
1.12 --undefined-- 42.199
1.13 --undefined-- 42.506
1.14 --undefined-- 41.847
1.15 --undefined-- 41.052
1.16 --undefined-- 41.529
1.17 --undefined-- 40.909
1.18 --undefined-- 39.832
1.19 --undefined-- 39.298
1.20 --undefined-- 39.222
1.21 --undefined-- 38.512
1.22 --undefined-- 38.027
1.23 --undefined-- 38.320
1.24 --undefined-- 37.951
1.25 --undefined-- 37.360
1.26 --undefined-- 44.104
1.27 --undefined-- 54.741
1.28 206.176 61.255
1.29 183.920 64.597
1.30 179.396 66.443
1.31 179.935 67.937
1.32 179.769 69.149
1.33 179.062 70.004
1.34 178.048 70.639
1.35 176.922 71.178
1.36 175.588 71.658
1.37 174.869 72.123
1.38 174.227 72.628
1.39 173.128 73.068
1.40 171.949 73.230
1.41 170.326 72.710
1.42 167.546 71.146
1.43 160.203 69.301
1.44 162.421 69.165
1.45 163.120 69.920
1.46 161.763 70.177
1.47 158.647 70.068
1.48 157.247 70.015
1.49 156.383 70.078
1.50 156.641 70.229
1.51 157.905 70.338
1.52 158.551 70.335
1.53 158.858 70.410
1.54 159.595 70.682
1.55 160.763 70.850
1.56 159.927 70.426
1.57 157.799 69.057
1.58 155.086 66.609
1.59 153.416 63.525
1.60 153.482 61.225
1.61 158.469 60.654
1.62 165.096 62.094
1.63 176.942 64.705
1.64 187.151 67.235
1.65 190.177 69.061
1.66 184.178 70.098
1.67 178.372 70.476
1.68 174.353 70.377
1.69 172.438 70.214
1.70 171.021 70.104
1.71 170.556 69.992
1.72 169.898 70.153
1.73 167.075 70.395
1.74 165.143 70.121
1.75 164.622 69.366
1.76 164.258 68.731
1.77 163.817 68.415
1.78 164.229 67.961
1.79 165.397 66.695
1.80 164.930 64.083
1.81 162.711 59.873
1.82 --undefined-- 53.987
1.83 --undefined-- 47.401
1.84 --undefined-- 43.748
1.85 --undefined-- 42.179
1.86 --undefined-- 43.237
1.87 --undefined-- 49.286
1.88 --undefined-- 57.308
1.89 --undefined-- 63.912
1.90 174.784 67.740
1.91 171.545 69.328
1.92 166.601 69.858
1.93 163.191 70.193
1.94 160.663 70.479
1.95 159.684 70.635
1.96 161.076 70.449
1.97 167.740 70.114
1.98 178.807 70.322
1.99 185.083 70.687
2.00 191.857 70.075
2.01 196.889 67.760
2.02 196.260 63.434
2.03 --undefined-- 56.826
2.04 --undefined-- 48.554
2.05 --undefined-- 44.949
2.06 --undefined-- 47.854
2.07 --undefined-- 49.474
2.08 --undefined-- 48.684
2.09 --undefined-- 51.308
2.10 --undefined-- 60.441
2.11 --undefined-- 66.487
2.12 189.654 69.214
2.13 183.112 69.958
2.14 178.154 70.007
2.15 175.474 69.851
2.16 173.895 69.666
2.17 174.045 69.585
2.18 174.528 69.597
2.19 175.676 69.544
2.20 177.132 69.381
2.21 178.750 69.198
2.22 179.994 68.982
2.23 181.181 68.504
2.24 179.427 66.865
2.25 174.824 63.029
2.26 177.736 56.564
2.27 --undefined-- 48.728
2.28 --undefined-- 45.276
2.29 --undefined-- 44.672
2.30 --undefined-- 44.947
2.31 --undefined-- 45.654
2.32 --undefined-- 47.461
2.33 --undefined-- 56.911
2.34 252.785 65.313
2.35 239.103 70.111
2.36 233.493 72.251
2.37 231.718 72.944
2.38 230.483 73.370
2.39 230.947 74.013
2.40 232.559 74.523
2.41 233.104 74.786
2.42 233.593 74.954
2.43 233.465 75.024
2.44 231.583 74.818
2.45 229.392 73.779
2.46 227.494 71.052
2.47 230.831 65.748
2.48 --undefined-- 57.500
2.49 --undefined-- 52.513
2.50 --undefined-- 52.591
2.51 --undefined-- 51.303
2.52 --undefined-- 54.678
2.53 215.435 61.688
2.54 219.029 66.155
2.55 219.312 68.168
2.56 202.528 68.613
2.57 179.327 68.378
2.58 166.916 67.903
2.59 155.717 67.126
2.60 145.321 66.177
2.61 144.889 65.185
2.62 138.239 63.532
2.63 137.923 60.455
2.64 --undefined-- 55.912
2.65 --undefined-- 52.023
2.66 --undefined-- 51.800
2.67 --undefined-- 51.946
2.68 --undefined-- 50.996
2.69 --undefined-- 48.386
2.70 --undefined-- 45.828
2.71 --undefined-- 45.122
2.72 --undefined-- 44.544
2.73 --undefined-- 43.573
2.74 --undefined-- 40.979
2.75 --undefined-- 37.350
2.76 --undefined-- 36.976
2.77 --undefined-- 39.264
2.78 --undefined-- 40.367
2.79 --undefined-- 39.494
2.80 --undefined-- 38.529
2.81 --undefined-- 40.123
2.82 --undefined-- 41.115
2.83 --undefined-- 39.827
2.84 --undefined-- 37.962
2.85 --undefined-- 37.629
2.86 --undefined-- 38.157
2.87 --undefined-- 38.755
2.88 --undefined-- 39.519
2.89 --undefined-- 40.084
2.90 --undefined-- 39.728
2.91 --undefined-- 38.435
2.92 --undefined-- 37.705
2.93 --undefined-- 38.889
2.94 --undefined-- 40.944
2.95 --undefined-- 42.461
2.96 --undefined-- 42.473
2.97 --undefined-- 42.273
2.98 --undefined-- 42.568
2.99 --undefined-- 42.135
3.00 --undefined-- 41.856
3.01 --undefined-- 42.159
3.02 --undefined-- 42.363
3.03 --undefined-- 42.518
3.04 --undefined-- 42.286
3.05 --undefined-- 41.430
3.06 --undefined-- 40.758
3.07 --undefined-- 39.594
3.08 --undefined-- 38.231
3.09 --undefined-- 36.985
3.10 --undefined-- 37.099
3.11 --undefined-- 38.835
3.12 --undefined-- 39.748
3.13 --undefined-- 39.484
3.14 --undefined-- 40.716
3.15 --undefined-- 42.492
3.16 --undefined-- 42.917
3.17 --undefined-- 42.618
3.18 --undefined-- 41.773
3.19 --undefined-- 40.861
3.20 --undefined-- 39.996
3.21 --undefined-- 39.246
3.22 --undefined-- 39.079
3.23 --undefined-- 39.252
3.24 --undefined-- 39.067
3.25 --undefined-- 38.903
3.26 --undefined-- 40.056
3.27 --undefined-- 40.684
3.28 --undefined-- 40.035
3.29 --undefined-- 40.392
3.30 --undefined-- 42.432
3.31 --undefined-- 44.176
3.32 --undefined-- 43.719
3.33 --undefined-- 41.839
3.34 --undefined-- 45.433
3.35 --undefined-- 49.411
3.36 --undefined-- 54.758
3.37 --undefined-- 64.497
3.38 246.951 71.088
3.39 240.484 74.663
3.40 235.925 76.521
3.41 234.887 77.727
3.42 234.043 78.475
3.43 232.019 78.484
3.44 229.351 77.504
3.45 226.441 75.232
3.46 221.134 71.221
3.47 208.966 65.056
3.48 --undefined-- 56.603
3.49 --undefined-- 48.763
3.50 --undefined-- 46.893
3.51 --undefined-- 47.384
3.52 --undefined-- 50.523
3.53 --undefined-- 60.423
3.54 222.402 67.682
3.55 213.689 71.231
3.56 196.427 72.188
3.57 184.964 72.264
3.58 179.434 72.669
3.59 175.923 73.016
3.60 172.399 72.904
3.61 169.165 72.457
3.62 166.592 71.994
3.63 166.512 71.850
3.64 168.177 71.904
3.65 169.234 71.665
3.66 169.228 71.176
3.67 170.281 71.280
3.68 174.502 71.864
3.69 174.245 71.972
3.70 175.092 71.451
3.71 175.348 70.156
3.72 173.956 67.643
3.73 175.045 63.365
3.74 --undefined-- 56.857
3.75 --undefined-- 57.450
3.76 213.615 65.171
3.77 203.649 69.569
3.78 192.539 71.258
3.79 189.715 71.545
3.80 188.625 71.480
3.81 187.439 71.273
3.82 185.257 70.891
3.83 184.079 70.384
3.84 183.202 69.481
3.85 181.675 67.222
3.86 181.095 62.694
3.87 --undefined-- 55.933
3.88 --undefined-- 55.266
3.89 --undefined-- 64.325
3.90 --undefined-- 69.958
3.91 185.254 72.477
3.92 183.155 73.194
3.93 181.503 73.256
3.94 182.341 73.023
3.95 185.437 72.724
3.96 189.028 72.666
3.97 193.235 72.989
3.98 197.959 73.490
3.99 206.036 73.757
4.00 218.097 73.422
4.01 230.168 72.379
4.02 233.631 70.568
4.03 231.973 67.615
4.04 228.380 63.112
4.05 235.951 56.635
4.06 --undefined-- 50.127
4.07 --undefined-- 47.934
4.08 --undefined-- 47.775
4.09 --undefined-- 47.595
4.10 --undefined-- 49.634
4.11 --undefined-- 59.932
4.12 --undefined-- 67.184
4.13 210.732 70.706
4.14 192.918 71.851
4.15 176.692 72.082
4.16 170.158 72.198
4.17 166.694 72.031
4.18 166.411 71.579
4.19 171.947 71.201
4.20 176.400 70.960
4.21 182.320 70.518
4.22 193.557 70.017
4.23 201.482 69.717
4.24 207.783 69.421
4.25 211.513 68.639
4.26 208.385 66.495
4.27 208.697 62.274
4.28 --undefined-- 56.192
4.29 --undefined-- 52.765
4.30 --undefined-- 53.649
4.31 --undefined-- 54.784
4.32 --undefined-- 57.149
4.33 --undefined-- 63.365
4.34 209.771 68.788
4.35 195.354 71.414
4.36 184.159 72.110
4.37 178.114 72.136
4.38 169.877 71.904
4.39 164.844 71.789
4.40 161.547 72.007
4.41 159.653 72.299
4.42 157.871 72.413
4.43 156.627 72.448
4.44 156.422 72.584
4.45 156.705 72.734
4.46 158.073 72.888
4.47 160.245 73.082
4.48 162.405 73.253
4.49 164.928 73.318
4.50 168.498 73.139
4.51 172.917 72.678
4.52 178.315 72.070
4.53 181.141 71.245
4.54 183.063 69.822
4.55 182.515 67.724
4.56 184.232 66.018
4.57 193.970 66.815
4.58 200.351 68.604
4.59 206.922 70.002
4.60 213.431 71.042
4.61 216.269 71.256
4.62 210.766 69.906
4.63 201.336 66.883
4.64 --undefined-- 62.925
4.65 --undefined-- 58.180
4.66 --undefined-- 51.456
4.67 --undefined-- 46.649
4.68 --undefined-- 43.947
4.69 --undefined-- 40.874
4.70 --undefined-- 39.291
4.71 --undefined-- 38.333
4.72 --undefined-- 37.294
4.73 --undefined-- 36.298
4.74 --undefined-- 41.407
4.75 --undefined-- 55.212
4.76 226.054 64.690
4.77 221.741 70.156
4.78 214.478 72.714
4.79 211.357 73.642
4.80 211.796 74.122
4.81 212.133 74.588
4.82 211.736 74.995
4.83 211.561 75.360
4.84 211.751 75.668
4.85 212.078 75.860
4.86 213.008 75.985
4.87 213.443 76.146
4.88 213.805 76.301
4.89 215.053 76.325
4.90 220.041 75.940
4.91 220.299 75.221
4.92 220.052 75.067
4.93 219.515 75.421
4.94 219.400 75.708
4.95 219.544 75.884
4.96 219.368 75.947
4.97 219.154 75.843
4.98 218.989 75.536
4.99 219.363 75.126
5.00 220.656 74.789
5.01 222.455 74.594
5.02 221.290 74.477
5.03 215.783 73.856
5.04 200.194 71.937
5.05 195.674 68.467
5.06 195.757 63.389
5.07 178.998 56.978
5.08 --undefined-- 48.923
5.09 --undefined-- 41.239
5.10 --undefined-- 40.056
5.11 --undefined-- 40.270
5.12 --undefined-- 40.195
5.13 --undefined-- 40.152
5.14 --undefined-- 42.485
5.15 --undefined-- 48.464
5.16 --undefined-- 51.873
5.17 --undefined-- 52.560
5.18 --undefined-- 52.755
5.19 --undefined-- 53.703
5.20 --undefined-- 53.905
5.21 --undefined-- 52.880
5.22 --undefined-- 51.489
5.23 --undefined-- 49.476
5.24 --undefined-- 47.131
5.25 --undefined-- 45.550
5.26 --undefined-- 43.483
5.27 --undefined-- 41.416
5.28 --undefined-- 39.650
5.29 --undefined-- 38.590
5.30 --undefined-- 39.834
5.31 --undefined-- 41.120
5.32 --undefined-- 41.400
5.33 --undefined-- 41.520
5.34 --undefined-- 44.236
5.35 --undefined-- 57.207
5.36 --undefined-- 66.726
5.37 235.741 72.220
5.38 233.057 74.876
5.39 231.273 75.899
5.40 230.494 76.127
5.41 230.760 76.109
5.42 230.568 76.289
5.43 228.267 77.062
5.44 225.502 77.930
5.45 223.714 78.371
5.46 222.457 78.595
5.47 221.872 78.780
5.48 221.924 78.899
5.49 222.802 78.922
5.50 224.040 78.827
5.51 225.468 78.612
5.52 226.433 78.306
5.53 226.965 77.886
5.54 226.499 77.165
5.55 223.559 75.751
5.56 219.426 72.978
5.57 218.961 68.169
5.58 --undefined-- 60.485
5.59 --undefined-- 50.553
5.60 --undefined-- 45.539
5.61 --undefined-- 45.601
5.62 --undefined-- 45.431
5.63 --undefined-- 44.981
5.64 --undefined-- 44.904
5.65 --undefined-- 43.431
5.66 --undefined-- 40.420
5.67 --undefined-- 38.750
5.68 --undefined-- 38.458
5.69 --undefined-- 39.480
5.70 --undefined-- 46.823
5.71 --undefined-- 53.036
5.72 --undefined-- 55.689
5.73 --undefined-- 56.660
5.74 --undefined-- 61.925
5.75 209.772 67.237
5.76 192.790 69.667
5.77 174.073 70.002
5.78 162.478 69.443
5.79 154.066 68.682
5.80 147.839 67.974
5.81 142.844 67.292
5.82 137.461 66.545
5.83 134.941 65.752
5.84 132.005 64.913
5.85 130.369 63.649
5.86 127.697 61.938
5.87 125.645 60.439
5.88 129.758 59.661
5.89 129.114 59.227
5.90 128.807 59.042
5.91 127.814 59.368
5.92 128.418 60.401
5.93 129.706 61.738
5.94 130.340 62.571
5.95 128.139 62.105
5.96 129.495 60.039
5.97 --undefined-- 56.561
5.98 --undefined-- 51.867
5.99 --undefined-- 46.028
6.00 --undefined-- 42.226
6.01 --undefined-- 41.681
6.02 --undefined-- 43.147
6.03 --undefined-- 45.412
6.04 --undefined-- 46.308
6.05 --undefined-- 47.151
6.06 --undefined-- 56.513
6.07 --undefined-- 66.712
6.08 240.411 72.783
6.09 236.674 75.687
6.10 231.345 76.684
6.11 227.346 76.857
6.12 224.848 --undefined--
6.13 222.871 --undefined--
6.14 --undefined-- --undefined--
6.15 --undefined-- --undefined--
