Time Pitch Intensity
0.01 --undefined-- --undefined--
0.02 177.952 --undefined--
0.03 177.833 --undefined--
0.04 178.253 --undefined--
0.05 176.394 69.415
0.06 174.475 69.484
0.07 174.875 69.606
0.08 175.002 69.306
0.09 175.109 68.222
0.10 175.768 66.352
0.11 178.204 63.875
0.12 181.151 61.336
0.13 177.584 58.880
0.14 173.846 56.285
0.15 173.044 54.648
0.16 183.986 57.031
0.17 186.424 61.808
0.18 185.586 65.616
0.19 182.794 68.004
0.20 177.210 69.535
0.21 164.568 71.040
0.22 161.813 72.296
0.23 159.622 72.860
0.24 159.117 72.923
0.25 160.613 72.367
0.26 165.535 70.771
0.27 172.343 68.802
0.28 175.584 68.084
0.29 179.824 68.254
0.30 182.052 68.303
0.31 184.066 67.734
0.32 185.203 66.298
0.33 188.551 64.182
0.34 190.643 61.591
0.35 191.311 58.144
0.36 194.639 54.150
0.37 197.503 50.926
0.38 --undefined-- 49.860
0.39 --undefined-- 50.579
0.40 --undefined-- 51.245
0.41 --undefined-- 51.775
0.42 --undefined-- 52.612
0.43 --undefined-- 52.997
0.44 --undefined-- 53.543
0.45 --undefined-- 53.865
0.46 233.047 56.664
0.47 233.496 63.749
0.48 230.862 68.722
0.49 219.367 71.234
0.50 207.256 72.564
0.51 193.463 73.656
0.52 188.131 74.089
0.53 185.355 73.567
0.54 184.493 72.275
0.55 184.098 70.377
0.56 184.594 67.842
0.57 185.227 64.707
0.58 184.344 61.430
0.59 185.012 57.956
0.60 --undefined-- 53.834
0.61 --undefined-- 50.695
0.62 --undefined-- 53.439
0.63 --undefined-- 57.159
0.64 --undefined-- 61.044
0.65 --undefined-- 62.938
0.66 --undefined-- 65.268
0.67 197.145 69.280
0.68 192.744 71.702
0.69 189.118 72.582
0.70 186.273 72.728
0.71 184.795 72.475
0.72 184.855 72.140
0.73 185.416 71.868
0.74 188.312 71.325
0.75 190.893 70.302
0.76 191.102 68.445
0.77 193.753 65.598
0.78 194.829 63.249
0.79 195.847 63.713
0.80 202.029 66.717
0.81 209.074 69.897
0.82 214.731 71.735
0.83 220.544 72.214
0.84 224.287 71.915
0.85 227.814 71.231
0.86 229.366 69.977
0.87 232.919 67.986
0.88 237.724 65.951
0.89 241.612 64.440
0.90 242.309 63.093
0.91 242.077 61.290
0.92 241.883 59.110
0.93 241.963 57.350
0.94 246.651 55.431
0.95 --undefined-- 51.725
0.96 --undefined-- 45.922
0.97 --undefined-- 39.576
0.98 --undefined-- 38.429
0.99 --undefined-- 41.129
1.00 --undefined-- 43.913
1.01 --undefined-- 46.034
1.02 --undefined-- 48.651
1.03 --undefined-- 56.583
1.04 --undefined-- 63.603
1.05 --undefined-- 67.538
1.06 --undefined-- 69.363
1.07 159.079 70.135
1.08 156.209 69.878
1.09 154.515 68.821
1.10 152.436 67.865
1.11 151.837 67.327
1.12 151.683 67.353
1.13 150.999 67.921
1.14 150.735 68.281
1.15 150.942 68.440
1.16 150.366 68.587
1.17 149.906 68.382
1.18 149.660 67.365
1.19 149.412 65.280
1.20 144.756 61.904
1.21 155.678 58.411
1.22 157.139 58.499
1.23 156.258 60.137
1.24 161.363 62.603
1.25 167.764 66.056
1.26 169.213 68.858
1.27 169.029 70.094
1.28 167.571 69.925
1.29 165.609 68.836
1.30 162.549 66.918
1.31 152.539 64.254
1.32 151.930 61.382
1.33 154.454 58.369
1.34 156.468 55.404
1.35 161.951 52.894
1.36 167.487 50.462
1.37 --undefined-- 46.841
1.38 --undefined-- 42.070
1.39 --undefined-- 39.390
1.40 --undefined-- 40.164
1.41 --undefined-- 44.081
1.42 --undefined-- 48.509
1.43 --undefined-- 52.218
1.44 --undefined-- 55.428
1.45 --undefined-- 59.636
1.46 256.372 64.158
1.47 241.893 67.833
1.48 235.241 70.128
1.49 231.997 70.780
1.50 223.268 70.485
1.51 218.278 69.806
1.52 214.633 68.282
1.53 214.299 66.121
1.54 214.970 64.001
1.55 215.518 62.248
1.56 219.175 61.017
1.57 225.316 60.464
1.58 228.843 60.549
1.59 232.989 60.842
1.60 237.740 60.995
1.61 242.166 60.461
1.62 247.010 58.931
1.63 256.551 57.804
1.64 --undefined-- 60.345
1.65 --undefined-- 62.205
1.66 --undefined-- 61.976
1.67 282.308 63.702
1.68 277.089 66.814
1.69 276.843 68.695
1.70 276.003 69.403
1.71 275.638 69.435
1.72 276.808 69.281
1.73 281.485 69.263
1.74 286.289 69.247
1.75 287.767 69.350
1.76 286.138 69.606
1.77 286.501 69.438
1.78 285.860 68.612
1.79 285.088 67.434
1.80 289.304 65.871
1.81 293.898 63.327
1.82 287.726 59.629
1.83 --undefined-- 56.254
1.84 --undefined-- 54.757
1.85 268.534 53.930
1.86 268.444 52.959
1.87 267.096 51.827
1.88 271.615 51.311
1.89 271.940 51.613
1.90 240.860 51.737
1.91 216.157 50.940
1.92 --undefined-- 50.693
1.93 --undefined-- 52.321
1.94 --undefined-- 53.548
1.95 --undefined-- 55.520
1.96 172.287 60.455
1.97 170.529 64.713
1.98 168.936 67.016
1.99 167.241 67.722
2.00 165.560 67.778
2.01 163.471 67.866
2.02 163.051 67.764
2.03 163.020 67.139
2.04 163.481 65.908
2.05 163.456 64.209
2.06 162.830 61.829
2.07 164.564 57.871
2.08 --undefined-- 51.748
2.09 --undefined-- 44.427
2.10 --undefined-- 41.447
2.11 --undefined-- 42.209
2.12 --undefined-- 43.482
2.13 --undefined-- 49.846
2.14 --undefined-- 57.899
2.15 --undefined-- 63.187
2.16 --undefined-- 65.583
2.17 274.081 67.912
2.18 256.771 70.861
2.19 246.137 72.356
2.20 243.057 72.331
2.21 243.645 71.564
2.22 243.494 70.796
2.23 242.493 70.557
2.24 244.032 70.807
2.25 247.266 71.216
2.26 247.092 71.397
2.27 247.418 70.858
2.28 248.645 69.733
2.29 244.837 68.340
2.30 241.522 66.145
2.31 240.789 63.146
2.32 238.321 61.564
2.33 232.861 61.684
2.34 228.416 61.805
2.35 224.330 62.076
2.36 213.642 63.587
2.37 197.996 66.912
2.38 189.918 70.073
2.39 186.568 71.608
2.40 281.743 71.170
2.41 285.143 68.580
2.42 290.521 64.223
2.43 292.495 60.022
2.44 --undefined-- 56.956
2.45 --undefined-- 55.584
2.46 --undefined-- 55.978
2.47 --undefined-- 57.733
2.48 149.580 59.589
2.49 143.984 59.858
2.50 140.603 58.656
2.51 139.361 58.174
2.52 149.522 60.536
2.53 168.229 63.621
2.54 170.570 66.152
2.55 170.612 67.682
2.56 170.431 67.677
2.57 170.220 66.364
2.58 170.401 64.566
2.59 169.698 62.954
2.60 167.056 61.236
2.61 159.415 58.359
2.62 151.551 54.606
2.63 160.815 55.449
2.64 163.946 60.645
2.65 168.650 64.323
2.66 168.555 66.120
2.67 166.590 67.357
2.68 164.742 68.740
2.69 162.746 69.634
2.70 161.460 69.476
2.71 160.028 68.587
2.72 160.235 67.711
2.73 158.967 66.882
2.74 157.058 66.063
2.75 159.267 65.381
2.76 160.533 64.806
2.77 160.324 64.329
2.78 161.687 63.898
2.79 164.883 63.782
2.80 167.350 64.038
2.81 166.633 63.640
2.82 163.943 61.346
2.83 170.287 56.443
2.84 --undefined-- 50.172
2.85 --undefined-- 50.232
2.86 --undefined-- 54.700
2.87 --undefined-- 57.768
2.88 --undefined-- 58.204
2.89 --undefined-- 56.434
2.90 --undefined-- 59.388
2.91 --undefined-- 65.406
2.92 --undefined-- 68.780
2.93 146.760 70.136
2.94 147.541 70.013
2.95 151.721 68.683
2.96 152.056 67.013
2.97 149.861 65.612
2.98 154.405 64.625
2.99 161.991 64.633
3.00 164.420 65.227
3.01 174.401 65.509
3.02 182.473 65.072
3.03 192.473 63.670
3.04 200.468 61.632
3.05 208.193 59.886
3.06 214.166 59.839
3.07 226.942 61.262
3.08 228.335 62.414
3.09 228.105 62.897
3.10 234.576 63.374
3.11 247.890 64.639
3.12 247.664 65.949
3.13 243.454 66.760
3.14 239.046 67.164
3.15 232.024 67.310
3.16 224.011 68.977
3.17 216.268 71.615
3.18 210.922 72.663
3.19 197.216 71.834
3.20 184.297 70.452
3.21 167.848 69.992
3.22 163.982 70.183
3.23 160.553 70.349
3.24 159.791 70.476
3.25 157.935 70.576
3.26 155.445 70.490
3.27 154.649 69.997
3.28 153.187 69.091
3.29 150.240 68.139
3.30 150.966 67.386
3.31 152.680 66.861
3.32 153.680 66.311
3.33 155.487 65.551
3.34 156.854 64.690
3.35 159.218 63.987
3.36 161.764 64.261
3.37 163.420 64.938
3.38 164.775 64.544
3.39 168.234 62.988
3.40 174.098 61.484
3.41 187.852 61.269
3.42 201.763 64.101
3.43 208.424 68.473
3.44 211.648 71.348
3.45 214.720 72.251
3.46 217.473 71.827
3.47 221.748 71.008
3.48 226.145 70.216
3.49 232.522 69.132
3.50 238.229 67.724
3.51 240.797 66.273
3.52 244.514 64.227
3.53 256.180 61.247
3.54 259.418 57.659
3.55 253.219 52.972
3.56 --undefined-- 47.147
3.57 --undefined-- 41.048
3.58 --undefined-- 34.661
3.59 --undefined-- 28.156
3.60 --undefined-- 25.281
3.61 --undefined-- 27.430
3.62 --undefined-- 34.078
3.63 --undefined-- 39.839
3.64 --undefined-- 42.654
3.65 --undefined-- 43.348
3.66 --undefined-- 44.490
3.67 --undefined-- 46.166
3.68 --undefined-- 47.187
3.69 --undefined-- 47.125
3.70 --undefined-- 46.189
3.71 --undefined-- 46.354
3.72 --undefined-- 48.626
3.73 --undefined-- 52.066
3.74 --undefined-- 54.523
3.75 --undefined-- 55.169
3.76 --undefined-- 54.714
3.77 --undefined-- 54.921
3.78 --undefined-- 54.964
3.79 --undefined-- 53.933
3.80 --undefined-- 52.901
3.81 --undefined-- 52.213
3.82 --undefined-- 51.816
3.83 --undefined-- 51.583
3.84 --undefined-- 50.964
3.85 --undefined-- 50.548
3.86 --undefined-- 50.172
3.87 --undefined-- 49.846
3.88 --undefined-- 49.663
3.89 --undefined-- 48.697
3.90 --undefined-- 46.544
3.91 --undefined-- 44.039
3.92 --undefined-- 40.930
3.93 --undefined-- 36.127
3.94 --undefined-- 30.613
3.95 --undefined-- 27.438
3.96 --undefined-- 27.068
3.97 --undefined-- 27.065
3.98 --undefined-- 26.418
3.99 --undefined-- 26.256
4.00 --undefined-- 26.983
4.01 --undefined-- 26.995
4.02 --undefined-- 26.498
4.03 --undefined-- 31.661
4.04 --undefined-- 44.804
4.05 --undefined-- 53.592
4.06 --undefined-- 59.252
4.07 --undefined-- 62.987
4.08 195.503 65.053
4.09 198.565 65.649
4.10 200.191 65.161
4.11 203.243 64.092
4.12 203.759 62.378
4.13 199.903 59.600
4.14 202.851 57.249
4.15 206.537 57.842
4.16 226.339 61.061
4.17 228.746 65.861
4.18 242.981 69.651
4.19 261.990 71.677
4.20 270.163 72.275
4.21 273.883 71.896
4.22 275.256 71.133
4.23 275.202 70.456
4.24 275.711 69.914
4.25 276.634 69.152
4.26 276.017 68.308
4.27 276.384 68.027
4.28 277.834 68.085
4.29 282.204 67.791
4.30 288.330 66.775
4.31 297.083 64.591
4.32 152.481 60.539
4.33 --undefined-- 55.199
4.34 --undefined-- 56.306
4.35 --undefined-- 59.168
4.36 --undefined-- 60.226
4.37 --undefined-- 59.326
4.38 --undefined-- 56.719
4.39 212.193 59.030
4.40 207.290 63.214
4.41 203.499 64.682
4.42 --undefined-- 63.892
4.43 --undefined-- 62.690
4.44 152.197 63.046
4.45 147.843 63.890
4.46 144.445 63.427
4.47 143.374 61.374
4.48 --undefined-- 59.243
4.49 --undefined-- 59.024
4.50 --undefined-- 58.967
4.51 --undefined-- 58.146
4.52 --undefined-- 57.613
4.53 159.898 58.004
4.54 159.353 58.709
4.55 159.468 59.995
4.56 160.031 61.895
4.57 160.172 62.907
4.58 154.878 62.287
4.59 149.621 61.474
4.60 150.019 63.162
4.61 152.039 65.891
4.62 156.921 68.030
4.63 161.613 69.302
4.64 162.097 69.873
4.65 161.144 69.725
4.66 163.171 68.990
4.67 170.558 67.958
4.68 173.828 67.331
4.69 173.607 67.733
4.70 176.346 68.115
4.71 182.302 67.528
4.72 186.215 65.981
4.73 189.265 64.431
4.74 192.973 64.228
4.75 194.109 65.849
4.76 191.324 68.257
4.77 186.462 69.683
4.78 178.615 69.641
4.79 170.755 69.364
4.80 165.376 69.678
4.81 156.416 69.853
4.82 146.565 69.122
4.83 144.929 67.177
4.84 142.358 63.824
4.85 157.436 59.317
4.86 154.199 56.389
4.87 155.325 55.687
4.88 --undefined-- 56.117
4.89 268.185 56.847
4.90 276.641 57.298
4.91 281.895 57.242
4.92 285.379 56.682
4.93 293.439 56.110
4.94 --undefined-- 55.326
4.95 293.478 54.020
4.96 --undefined-- 53.830
4.97 --undefined-- 54.889
4.98 --undefined-- 55.080
4.99 --undefined-- 55.342
5.00 --undefined-- 57.884
5.01 256.298 61.225
5.02 264.311 63.109
5.03 167.300 64.127
5.04 169.065 65.480
5.05 169.404 66.603
5.06 171.116 66.913
5.07 176.860 66.474
5.08 182.787 65.840
5.09 187.535 65.405
5.10 191.302 64.980
5.11 192.327 64.282
5.12 192.440 63.425
5.13 194.549 62.601
5.14 192.651 61.895
5.15 187.010 61.554
5.16 183.586 61.046
5.17 180.049 60.514
5.18 188.568 63.176
5.19 196.883 68.253
5.20 197.173 71.764
5.21 201.285 72.849
5.22 185.030 72.324
5.23 --undefined-- 71.773
5.24 --undefined-- 71.366
5.25 --undefined-- 70.131
5.26 79.403 68.313
5.27 79.530 --undefined--
5.28 --undefined-- --undefined--
5.29 --undefined-- --undefined--
5.30 --undefined-- --undefined--
