Time Pitch Intensity
0.01 --undefined-- --undefined--
0.02 --undefined-- --undefined--
0.03 --undefined-- --undefined--
0.04 --undefined-- --undefined--
0.05 --undefined-- 45.143
0.06 --undefined-- 40.779
0.07 --undefined-- 39.777
0.08 --undefined-- 41.708
0.09 --undefined-- 42.314
0.10 --undefined-- 41.279
0.11 --undefined-- 41.761
0.12 --undefined-- 45.329
0.13 124.404 48.509
0.14 125.614 51.049
0.15 126.715 53.292
0.16 126.966 55.397
0.17 125.785 57.412
0.18 124.688 58.643
0.19 123.334 58.843
0.20 123.091 58.570
0.21 122.243 58.662
0.22 120.834 61.438
0.23 199.147 65.729
0.24 194.169 68.582
0.25 192.907 70.125
0.26 191.209 71.345
0.27 188.581 72.483
0.28 185.746 73.357
0.29 184.175 73.945
0.30 184.474 74.139
0.31 186.991 74.046
0.32 189.123 73.883
0.33 189.969 73.779
0.34 191.743 73.680
0.35 195.617 73.440
0.36 199.452 73.261
0.37 202.656 73.407
0.38 205.265 73.782
0.39 205.824 74.160
0.40 212.163 74.546
0.41 217.151 74.844
0.42 217.511 75.079
0.43 215.607 75.403
0.44 211.890 75.719
0.45 206.287 75.820
0.46 199.128 75.554
0.47 193.015 74.749
0.48 185.797 73.625
0.49 176.363 72.703
0.50 168.451 72.037
0.51 162.624 71.619
0.52 158.694 71.239
0.53 155.003 70.604
0.54 150.995 69.555
0.55 147.121 68.489
0.56 146.354 67.756
0.57 147.373 67.138
0.58 147.431 66.724
0.59 148.045 66.818
0.60 151.609 67.257
0.61 154.748 67.703
0.62 156.592 68.202
0.63 160.152 68.777
0.64 162.559 69.141
0.65 164.127 69.376
0.66 164.691 69.479
0.67 169.164 68.990
0.68 163.184 67.561
0.69 155.721 64.683
0.70 127.440 60.559
0.71 129.235 58.120
0.72 130.417 57.955
0.73 131.136 58.038
0.74 132.795 57.878
0.75 134.634 57.750
0.76 135.653 57.883
0.77 136.415 57.791
0.78 136.998 57.369
0.79 137.515 56.870
0.80 138.667 55.922
0.81 141.663 57.071
0.82 271.581 61.667
0.83 271.010 65.082
0.84 272.316 67.043
0.85 272.650 68.223
0.86 271.744 68.854
0.87 270.389 69.146
0.88 268.880 69.198
0.89 267.390 68.861
0.90 263.653 68.037
0.91 241.227 66.863
0.92 240.830 65.785
0.93 240.204 64.182
0.94 235.524 60.708
0.95 --undefined-- 55.462
0.96 --undefined-- 51.325
0.97 --undefined-- 50.916
0.98 --undefined-- 55.739
0.99 --undefined-- 63.433
1.00 229.415 69.874
1.01 228.287 73.379
1.02 223.471 74.261
1.03 216.300 73.334
1.04 210.587 72.093
1.05 207.054 71.401
1.06 204.788 71.261
1.07 202.454 71.470
1.08 199.670 71.786
1.09 197.513 72.099
1.10 195.772 72.219
1.11 194.873 71.863
1.12 194.054 70.903
1.13 192.451 69.050
1.14 189.605 65.557
1.15 186.296 59.560
1.16 --undefined-- 50.839
1.17 --undefined-- 43.685
1.18 --undefined-- 41.758
1.19 --undefined-- 40.864
1.20 --undefined-- 45.240
1.21 --undefined-- 55.814
1.22 --undefined-- 64.721
1.23 201.280 69.789
1.24 198.871 71.925
1.25 193.683 72.608
1.26 188.605 73.110
1.27 184.114 73.431
1.28 180.598 73.559
1.29 179.346 73.198
1.30 180.047 71.559
1.31 181.948 68.125
1.32 175.572 62.654
1.33 178.393 55.147
1.34 --undefined-- 46.305
1.35 --undefined-- 41.035
1.36 --undefined-- 40.172
1.37 --undefined-- 39.350
1.38 --undefined-- 39.554
1.39 --undefined-- 43.131
1.40 --undefined-- 48.368
1.41 --undefined-- 56.523
1.42 257.796 64.180
1.43 241.949 68.827
1.44 236.029 71.124
1.45 234.171 72.194
1.46 232.374 72.744
1.47 230.594 72.884
1.48 228.606 72.620
1.49 227.594 72.269
1.50 227.626 72.119
1.51 227.487 72.100
1.52 227.729 72.108
1.53 228.209 72.173
1.54 228.589 72.293
1.55 228.769 72.399
1.56 228.518 72.552
1.57 228.338 72.740
1.58 228.645 72.854
1.59 229.122 72.911
1.60 229.086 72.966
1.61 228.679 72.997
1.62 228.176 73.026
1.63 227.125 73.095
1.64 224.003 73.245
1.65 217.743 73.173
1.66 --undefined-- 71.997
1.67 --undefined-- 68.925
1.68 --undefined-- 63.884
1.69 --undefined-- 57.324
1.70 --undefined-- 49.128
1.71 --undefined-- 42.118
1.72 --undefined-- 39.463
1.73 --undefined-- 40.913
1.74 --undefined-- 45.622
1.75 --undefined-- 50.892
1.76 130.629 54.216
1.77 129.656 56.567
1.78 126.929 58.968
1.79 126.512 60.527
1.80 122.914 60.624
1.81 121.987 60.242
1.82 121.907 60.431
1.83 121.729 60.923
1.84 119.990 61.108
1.85 120.491 61.093
1.86 --undefined-- 62.965
1.87 216.420 67.314
1.88 196.767 70.601
1.89 189.804 71.985
1.90 180.471 72.127
1.91 179.012 71.878
1.92 179.116 71.432
1.93 178.235 70.725
1.94 179.573 69.968
1.95 179.499 69.320
1.96 181.108 69.216
1.97 183.664 69.750
1.98 182.295 70.214
1.99 178.020 70.292
2.00 175.398 70.263
2.01 170.973 70.126
2.02 166.186 69.937
2.03 163.830 69.708
2.04 162.549 69.504
2.05 161.089 69.399
2.06 160.943 68.963
2.07 161.541 68.636
2.08 160.854 68.513
2.09 162.819 68.110
2.10 167.592 67.486
2.11 173.756 67.136
2.12 179.672 67.752
2.13 186.147 68.532
2.14 190.706 68.410
2.15 192.281 66.750
2.16 183.007 62.880
2.17 --undefined-- 57.368
2.18 98.617 53.526
2.19 99.470 51.823
2.20 98.787 50.424
2.21 --undefined-- 48.463
2.22 --undefined-- 46.037
2.23 --undefined-- 46.106
2.24 --undefined-- 54.664
2.25 --undefined-- 62.887
2.26 210.068 67.343
2.27 203.682 68.915
2.28 194.784 68.763
2.29 186.762 67.923
2.30 176.787 67.065
2.31 172.017 66.776
2.32 168.959 67.196
2.33 162.572 67.728
2.34 158.711 67.195
2.35 --undefined-- 64.975
2.36 146.705 61.569
2.37 140.948 58.481
2.38 138.805 57.134
2.39 137.048 57.231
2.40 135.895 57.773
2.41 133.304 58.492
2.42 130.115 59.583
2.43 --undefined-- 61.142
2.44 183.155 62.430
2.45 169.038 63.609
2.46 180.770 65.294
2.47 180.347 67.084
2.48 176.855 68.259
2.49 174.755 68.584
2.50 170.020 68.273
2.51 166.546 68.038
2.52 164.569 68.019
2.53 162.405 67.917
2.54 160.484 67.757
2.55 159.156 67.638
2.56 158.519 67.463
2.57 158.850 67.168
2.58 158.824 67.113
2.59 160.795 67.692
2.60 163.770 68.447
2.61 165.407 69.028
2.62 167.025 69.486
2.63 168.271 69.768
2.64 169.249 69.888
2.65 169.779 69.933
2.66 170.903 69.791
2.67 171.990 69.309
2.68 170.415 68.236
2.69 160.609 66.190
2.70 150.075 63.326
2.71 210.936 60.000
2.72 229.030 55.101
2.73 --undefined-- 47.700
2.74 --undefined-- 41.593
2.75 --undefined-- 40.948
2.76 --undefined-- 40.863
2.77 --undefined-- 42.459
2.78 --undefined-- 46.379
2.79 --undefined-- 48.968
2.80 --undefined-- 50.975
2.81 --undefined-- 52.047
2.82 --undefined-- 51.589
2.83 --undefined-- 50.974
2.84 --undefined-- 53.827
2.85 --undefined-- 60.982
2.86 205.274 66.687
2.87 204.536 69.711
2.88 200.349 70.871
2.89 195.396 71.191
2.90 190.317 71.283
2.91 186.884 71.425
2.92 185.289 71.634
2.93 186.034 71.611
2.94 188.653 70.811
2.95 188.809 68.573
2.96 179.148 64.282
2.97 180.015 57.652
2.98 --undefined-- 49.297
2.99 --undefined-- 44.354
3.00 --undefined-- 47.044
3.01 --undefined-- 50.164
3.02 --undefined-- 51.682
3.03 --undefined-- 51.516
3.04 --undefined-- 52.908
3.05 182.143 57.673
3.06 180.683 60.613
3.07 176.946 62.380
3.08 186.417 64.940
3.09 181.413 67.282
3.10 174.098 68.750
3.11 167.827 69.502
3.12 164.591 69.819
3.13 164.884 69.922
3.14 168.148 69.778
3.15 176.178 69.491
3.16 183.501 69.355
3.17 190.024 69.403
3.18 195.947 69.354
3.19 200.810 68.078
3.20 202.679 64.571
3.21 206.887 58.930
3.22 --undefined-- 54.107
3.23 --undefined-- 56.494
3.24 288.755 59.129
3.25 --undefined-- 59.215
3.26 --undefined-- 60.991
3.27 233.580 66.165
3.28 230.745 69.428
3.29 221.012 70.784
3.30 200.851 71.119
3.31 186.447 70.991
3.32 186.785 70.692
3.33 191.680 70.660
3.34 198.587 70.960
3.35 208.264 71.196
3.36 216.713 71.468
3.37 227.018 71.845
3.38 234.227 71.782
3.39 239.708 70.938
3.40 243.032 69.607
3.41 248.288 67.631
3.42 245.927 64.705
3.43 235.834 61.488
3.44 219.020 59.390
3.45 221.608 60.349
3.46 226.363 63.083
3.47 227.783 65.761
3.48 228.504 67.717
3.49 216.118 68.619
3.50 185.451 68.552
3.51 161.640 68.058
3.52 145.043 67.621
3.53 136.282 67.249
3.54 131.711 66.751
3.55 126.959 66.181
3.56 124.483 65.579
3.57 121.231 65.019
3.58 120.973 64.843
3.59 121.415 64.882
3.60 121.641 64.629
3.61 118.739 63.870
3.62 128.523 62.880
3.63 127.475 62.138
3.64 131.011 61.440
3.65 132.072 60.558
3.66 134.715 61.058
3.67 152.765 63.195
3.68 151.341 64.729
3.69 147.300 65.071
3.70 145.108 65.109
3.71 145.368 65.511
3.72 145.913 65.926
3.73 146.746 66.157
3.74 145.203 66.202
3.75 148.261 66.465
3.76 151.243 66.864
3.77 152.683 67.095
3.78 152.992 66.975
3.79 153.147 66.371
3.80 153.057 64.926
3.81 150.415 61.958
3.82 146.331 56.740
3.83 --undefined-- 49.325
3.84 --undefined-- 48.565
3.85 --undefined-- 57.537
3.86 --undefined-- 64.568
3.87 187.834 68.622
3.88 183.943 70.753
3.89 181.764 71.907
3.90 180.321 72.425
3.91 177.473 72.509
3.92 174.718 72.424
3.93 172.135 72.114
3.94 170.071 71.559
3.95 168.732 71.195
3.96 167.932 71.136
3.97 167.500 71.113
3.98 166.375 70.958
3.99 164.635 70.561
4.00 157.964 69.631
4.01 --undefined-- 67.713
4.02 --undefined-- 64.714
4.03 --undefined-- 60.375
4.04 --undefined-- 53.986
4.05 --undefined-- 47.465
4.06 --undefined-- 44.812
4.07 --undefined-- 42.436
4.08 --undefined-- 41.321
4.09 --undefined-- 42.567
4.10 --undefined-- 43.621
4.11 --undefined-- 44.928
4.12 --undefined-- 47.368
4.13 --undefined-- 49.193
4.14 --undefined-- 49.641
4.15 --undefined-- 48.921
4.16 --undefined-- 48.186
4.17 --undefined-- 47.788
4.18 --undefined-- 47.061
4.19 --undefined-- 45.759
4.20 --undefined-- 44.137
4.21 --undefined-- 43.216
4.22 --undefined-- 42.411
4.23 --undefined-- 41.214
4.24 --undefined-- 40.217
4.25 --undefined-- 40.522
4.26 --undefined-- 41.505
4.27 --undefined-- 41.594
4.28 --undefined-- 41.248
4.29 --undefined-- 40.313
4.30 --undefined-- 38.918
4.31 --undefined-- 38.518
4.32 --undefined-- 39.793
4.33 --undefined-- 40.772
4.34 --undefined-- 40.387
4.35 --undefined-- 39.491
4.36 --undefined-- 38.782
4.37 --undefined-- 38.305
4.38 --undefined-- 39.207
4.39 --undefined-- 39.536
4.40 --undefined-- 38.927
4.41 --undefined-- 39.183
4.42 --undefined-- 39.247
4.43 --undefined-- 38.666
4.44 --undefined-- 38.478
4.45 --undefined-- 39.176
4.46 --undefined-- 39.202
4.47 --undefined-- 39.172
4.48 --undefined-- 38.839
4.49 --undefined-- 37.636
4.50 --undefined-- 37.062
4.51 --undefined-- 37.327
4.52 --undefined-- 38.135
4.53 --undefined-- 38.391
4.54 --undefined-- 38.984
4.55 --undefined-- 40.134
4.56 --undefined-- 40.450
4.57 --undefined-- 40.051
4.58 --undefined-- 38.879
4.59 --undefined-- 37.654
4.60 --undefined-- 37.450
4.61 --undefined-- 41.842
4.62 --undefined-- 53.876
4.63 247.284 62.673
4.64 243.350 68.228
4.65 245.496 71.282
4.66 249.262 72.866
4.67 251.412 73.640
4.68 254.822 73.922
4.69 257.670 73.787
4.70 260.915 73.415
4.71 262.890 72.918
4.72 263.496 71.942
4.73 261.385 70.255
4.74 250.931 68.193
4.75 243.800 65.636
4.76 235.090 61.839
4.77 235.429 56.880
4.78 247.655 52.092
4.79 247.729 49.672
4.80 --undefined-- 50.293
4.81 --undefined-- 53.087
4.82 --undefined-- 54.227
4.83 --undefined-- 54.489
4.84 --undefined-- 61.032
4.85 --undefined-- 66.499
4.86 283.171 68.644
4.87 271.413 68.676
4.88 268.273 67.617
4.89 253.020 65.907
4.90 249.129 64.099
4.91 256.984 61.747
4.92 294.806 61.554
4.93 271.547 66.136
4.94 243.568 69.800
4.95 228.369 71.735
4.96 211.387 72.173
4.97 197.785 71.689
4.98 177.174 70.897
4.99 164.872 70.114
5.00 151.837 69.809
5.01 149.319 69.757
5.02 147.066 69.421
5.03 144.074 68.962
5.04 142.813 68.784
5.05 143.092 68.790
5.06 141.208 68.722
5.07 142.603 68.624
5.08 144.370 68.493
5.09 143.553 68.344
5.10 141.565 67.664
5.11 138.498 65.738
5.12 136.628 62.543
5.13 138.637 59.752
5.14 138.047 58.799
5.15 135.894 58.171
5.16 132.958 57.918
5.17 134.264 58.397
5.18 --undefined-- 58.242
5.19 --undefined-- 62.194
5.20 195.999 68.337
5.21 196.146 71.936
5.22 193.391 73.533
5.23 187.961 74.037
5.24 184.932 74.178
5.25 182.817 74.407
5.26 181.382 74.807
5.27 180.536 75.228
5.28 179.987 75.289
5.29 180.177 74.683
5.30 180.959 73.291
5.31 181.395 70.914
5.32 177.024 67.631
5.33 175.511 64.177
5.34 --undefined-- 61.546
5.35 120.654 59.547
5.36 119.536 58.780
5.37 119.661 58.633
5.38 119.547 59.032
5.39 120.371 59.640
5.40 120.585 59.878
5.41 120.915 59.467
5.42 120.239 59.062
5.43 122.399 60.036
5.44 123.851 63.281
5.45 206.259 67.454
5.46 188.587 69.597
5.47 174.032 69.711
5.48 166.368 68.850
5.49 164.084 67.107
5.50 160.819 64.295
5.51 --undefined-- 61.119
5.52 110.783 58.341
5.53 108.481 56.030
5.54 105.633 54.045
5.55 103.614 52.814
5.56 102.555 52.683
5.57 101.542 53.260
5.58 100.932 53.529
5.59 99.220 53.242
5.60 95.823 52.319
5.61 93.547 51.184
5.62 90.097 --undefined--
5.63 --undefined-- --undefined--
5.64 --undefined-- --undefined--
5.65 --undefined-- --undefined--
