Time Pitch Intensity
0.01 --undefined-- --undefined--
0.02 150.433 --undefined--
0.03 149.275 --undefined--
0.04 152.282 --undefined--
0.05 --undefined-- 64.203
0.06 --undefined-- 56.220
0.07 --undefined-- 51.471
0.08 --undefined-- 49.964
0.09 --undefined-- 52.398
0.10 --undefined-- 63.351
0.11 --undefined-- 71.680
0.12 166.560 76.363
0.13 162.668 78.501
0.14 164.196 79.063
0.15 159.005 78.875
0.16 158.419 78.802
0.17 158.584 79.028
0.18 158.799 79.103
0.19 155.721 78.970
0.20 152.276 78.618
0.21 150.172 78.075
0.22 147.041 77.370
0.23 142.255 76.482
0.24 136.810 76.224
0.25 133.587 77.442
0.26 132.204 78.708
0.27 129.443 78.627
0.28 124.583 76.610
0.29 --undefined-- 72.261
0.30 --undefined-- 65.026
0.31 132.288 56.792
0.32 132.591 53.552
0.33 --undefined-- 51.143
0.34 --undefined-- 48.781
0.35 --undefined-- 47.490
0.36 --undefined-- 47.021
0.37 --undefined-- 50.308
0.38 --undefined-- 63.184
0.39 --undefined-- 72.241
0.40 --undefined-- 77.061
0.41 168.037 78.889
0.42 166.454 79.181
0.43 167.159 79.317
0.44 168.040 79.465
0.45 168.751 79.302
0.46 169.721 78.502
0.47 168.343 76.396
0.48 160.165 72.405
0.49 159.040 66.614
0.50 165.542 60.008
0.51 168.077 55.587
0.52 169.114 53.906
0.53 --undefined-- 53.144
0.54 --undefined-- 55.509
0.55 --undefined-- 58.945
0.56 --undefined-- 64.594
0.57 --undefined-- 72.285
0.58 --undefined-- 77.089
0.59 156.159 78.589
0.60 148.335 77.635
0.61 139.442 75.568
0.62 129.167 74.438
0.63 132.416 75.356
0.64 130.788 76.221
0.65 126.357 76.371
0.66 123.861 76.455
0.67 123.798 76.705
0.68 124.110 76.852
0.69 124.905 76.883
0.70 125.944 76.925
0.71 127.165 77.081
0.72 128.407 77.327
0.73 128.539 77.169
0.74 127.013 75.673
0.75 127.509 71.978
0.76 --undefined-- 65.720
0.77 --undefined-- 59.389
0.78 --undefined-- 61.027
0.79 --undefined-- 68.998
0.80 --undefined-- 74.781
0.81 136.909 77.369
0.82 121.453 77.670
0.83 113.992 77.033
0.84 113.705 76.185
0.85 114.003 74.465
0.86 105.017 70.937
0.87 102.094 65.384
0.88 --undefined-- 58.772
0.89 --undefined-- 52.090
0.90 --undefined-- 46.722
0.91 --undefined-- 45.324
0.92 --undefined-- 48.615
0.93 --undefined-- 54.365
0.94 --undefined-- 59.285
0.95 --undefined-- 62.895
0.96 --undefined-- 67.345
0.97 --undefined-- 73.366
0.98 --undefined-- 77.259
0.99 126.462 78.668
1.00 121.966 78.933
1.01 122.417 79.243
1.02 123.939 79.500
1.03 126.650 79.453
1.04 131.549 79.318
1.05 137.695 79.324
1.06 147.997 79.506
1.07 153.821 79.264
1.08 156.474 77.695
1.09 --undefined-- 74.237
1.10 --undefined-- 69.002
1.11 --undefined-- 62.786
1.12 --undefined-- 56.467
1.13 --undefined-- 54.018
1.14 --undefined-- 53.591
1.15 --undefined-- 54.032
1.16 --undefined-- 55.802
1.17 --undefined-- 57.558
1.18 --undefined-- 58.617
1.19 --undefined-- 59.382
1.20 --undefined-- 59.133
1.21 --undefined-- 57.945
1.22 --undefined-- 56.730
1.23 --undefined-- 55.944
1.24 --undefined-- 55.243
1.25 --undefined-- 54.177
1.26 --undefined-- 53.936
1.27 --undefined-- 54.342
1.28 --undefined-- 54.247
1.29 --undefined-- 53.513
1.30 --undefined-- 52.377
1.31 --undefined-- 50.478
1.32 --undefined-- 48.055
1.33 --undefined-- 45.438
1.34 --undefined-- 42.906
1.35 --undefined-- 44.459
1.36 --undefined-- 49.777
1.37 --undefined-- 53.963
1.38 --undefined-- 57.199
1.39 --undefined-- 59.994
1.40 --undefined-- 64.220
1.41 --undefined-- 70.964
1.42 161.709 75.731
1.43 137.101 77.505
1.44 134.369 77.316
1.45 131.302 76.717
1.46 130.008 76.473
1.47 129.326 76.740
1.48 128.853 77.214
1.49 128.170 77.636
1.50 129.084 78.012
1.51 130.333 78.267
1.52 131.180 78.387
1.53 131.904 78.444
1.54 132.931 78.496
1.55 133.784 78.543
1.56 134.375 78.549
1.57 135.005 78.536
1.58 135.647 78.529
1.59 135.450 78.391
1.60 133.822 77.919
1.61 131.751 77.056
1.62 130.464 76.102
1.63 131.122 76.279
1.64 136.136 77.917
1.65 136.295 79.006
1.66 134.327 78.909
1.67 133.068 78.260
1.68 131.325 77.477
1.69 129.431 76.961
1.70 130.782 77.145
1.71 132.609 77.516
1.72 133.958 77.607
1.73 135.080 77.300
1.74 136.116 76.459
1.75 137.499 74.868
1.76 138.264 72.648
1.77 150.024 72.160
1.78 169.002 75.279
1.79 166.114 78.256
1.80 167.464 79.670
1.81 168.622 80.003
1.82 168.904 80.035
1.83 168.512 79.800
1.84 168.556 78.784
1.85 167.408 76.865
1.86 161.768 75.526
1.87 159.114 76.549
1.88 157.546 78.326
1.89 152.033 79.050
1.90 141.561 78.712
1.91 121.926 78.147
1.92 119.399 77.857
1.93 105.305 77.629
1.94 103.213 77.328
1.95 104.056 76.973
1.96 103.003 76.363
1.97 99.837 75.678
1.98 104.169 76.027
1.99 107.072 76.791
2.00 109.037 77.256
2.01 113.329 77.633
2.02 119.123 78.009
2.03 127.327 78.295
2.04 133.450 78.452
2.05 141.157 78.730
2.06 152.157 78.971
2.07 155.479 78.796
2.08 160.761 78.503
2.09 165.713 78.241
2.10 170.838 77.800
2.11 175.342 77.259
2.12 177.429 76.911
2.13 175.158 76.509
2.14 170.859 75.332
2.15 169.662 72.541
2.16 172.365 67.390
2.17 175.058 59.947
2.18 172.866 54.671
2.19 173.111 53.302
2.20 --undefined-- 51.847
2.21 --undefined-- 50.291
2.22 --undefined-- 50.197
2.23 --undefined-- 50.675
2.24 --undefined-- 50.203
2.25 --undefined-- 49.141
2.26 --undefined-- 48.399
2.27 --undefined-- 47.745
2.28 --undefined-- 46.867
2.29 --undefined-- 46.055
2.30 --undefined-- 45.111
2.31 --undefined-- 43.970
2.32 --undefined-- 42.824
2.33 --undefined-- 42.479
2.34 --undefined-- 42.860
2.35 --undefined-- 42.690
2.36 --undefined-- 43.168
2.37 --undefined-- 47.259
2.38 --undefined-- 52.644
2.39 --undefined-- 57.127
2.40 --undefined-- 59.979
2.41 --undefined-- 61.429
2.42 --undefined-- 63.474
2.43 --undefined-- 69.422
2.44 --undefined-- 74.893
2.45 149.003 77.599
2.46 140.993 78.350
2.47 139.216 78.441
2.48 137.594 78.538
2.49 135.149 78.580
2.50 132.992 78.500
2.51 125.119 78.260
2.52 127.282 77.853
2.53 125.334 77.645
2.54 124.536 77.874
2.55 125.304 78.127
2.56 129.766 78.197
2.57 130.008 78.131
2.58 129.631 77.398
2.59 126.386 74.999
2.60 113.947 70.420
2.61 --undefined-- 64.312
2.62 --undefined-- 59.000
2.63 --undefined-- 60.307
2.64 --undefined-- 65.225
2.65 143.547 71.645
2.66 146.123 76.022
2.67 134.667 77.701
2.68 122.603 77.593
2.69 108.800 77.047
2.70 105.010 76.834
2.71 104.025 76.848
2.72 102.422 76.896
2.73 101.210 76.932
2.74 101.915 77.066
2.75 103.446 77.239
2.76 103.571 77.368
2.77 103.583 77.521
2.78 104.132 77.636
2.79 105.166 77.591
2.80 106.935 77.404
2.81 110.043 77.159
2.82 112.625 76.842
2.83 114.887 76.257
2.84 117.472 75.087
2.85 119.762 73.208
2.86 124.428 71.450
2.87 138.048 71.359
2.88 147.687 73.013
2.89 154.899 75.154
2.90 162.508 76.865
2.91 171.732 77.989
2.92 180.365 78.581
2.93 189.227 78.982
2.94 192.741 79.364
2.95 191.949 79.301
2.96 185.415 78.267
2.97 174.814 75.682
2.98 170.420 71.113
2.99 --undefined-- 65.556
3.00 --undefined-- 62.677
3.01 263.266 62.145
3.02 261.582 64.493
3.03 234.925 71.945
3.04 215.357 77.121
3.05 203.619 79.155
3.06 197.837 78.985
3.07 185.035 77.729
3.08 172.346 77.019
3.09 165.475 77.782
3.10 158.439 78.287
3.11 148.742 77.866
3.12 136.826 77.091
3.13 113.874 76.434
3.14 107.016 76.283
3.15 101.469 76.375
3.16 102.459 76.262
3.17 99.971 76.024
3.18 99.020 75.753
3.19 95.869 75.401
3.20 94.193 74.979
3.21 94.352 74.740
3.22 98.568 74.867
3.23 101.496 74.809
3.24 102.169 73.842
3.25 99.717 71.267
3.26 97.336 66.512
3.27 --undefined-- 62.625
3.28 --undefined-- 67.344
3.29 --undefined-- 73.467
3.30 --undefined-- 77.404
3.31 128.163 78.821
3.32 128.937 78.669
3.33 128.379 78.159
3.34 --undefined-- 77.507
3.35 --undefined-- 75.991
3.36 --undefined-- 73.024
3.37 120.499 68.291
3.38 122.610 61.702
3.39 125.294 56.880
3.40 126.767 60.842
3.41 130.443 68.212
3.42 118.392 72.611
3.43 109.008 74.619
3.44 115.432 75.609
3.45 111.942 76.441
3.46 110.233 76.999
3.47 109.863 77.194
3.48 110.282 77.240
3.49 111.006 77.313
3.50 112.721 77.426
3.51 113.752 77.278
3.52 112.491 76.181
3.53 104.085 73.461
3.54 109.975 69.072
3.55 113.037 63.622
3.56 115.950 59.924
3.57 --undefined-- 64.278
3.58 --undefined-- 71.942
3.59 --undefined-- 76.776
3.60 137.491 78.542
3.61 130.363 78.477
3.62 130.389 78.214
3.63 131.922 78.242
3.64 132.696 78.090
3.65 133.428 77.516
3.66 135.028 76.666
3.67 136.527 76.184
3.68 138.861 76.398
3.69 138.238 76.614
3.70 136.212 76.533
3.71 133.931 76.393
3.72 131.496 76.214
3.73 129.355 75.485
3.74 132.332 73.223
3.75 146.113 68.384
3.76 136.679 60.983
3.77 132.516 57.867
3.78 132.892 58.728
3.79 --undefined-- 60.458
3.80 --undefined-- 67.810
3.81 --undefined-- 73.876
3.82 120.486 76.586
3.83 116.834 76.837
3.84 104.354 76.079
3.85 93.854 75.536
3.86 94.187 75.176
3.87 94.616 74.889
3.88 95.446 74.957
3.89 97.949 75.258
3.90 99.788 75.403
3.91 100.030 75.032
3.92 100.620 74.247
3.93 101.884 73.612
3.94 103.077 73.671
3.95 107.605 74.395
3.96 111.564 74.978
3.97 111.198 74.288
3.98 107.595 71.673
3.99 114.969 67.277
4.00 116.038 61.571
4.01 --undefined-- 55.032
4.02 --undefined-- 53.929
4.03 --undefined-- 60.446
4.04 --undefined-- 69.351
4.05 --undefined-- 75.114
4.06 --undefined-- 77.248
4.07 128.554 76.711
4.08 121.898 74.773
4.09 --undefined-- 71.312
4.10 --undefined-- 65.410
4.11 --undefined-- 58.038
4.12 --undefined-- 53.371
4.13 --undefined-- 59.391
4.14 --undefined-- 66.696
4.15 115.392 71.306
4.16 127.170 74.529
4.17 130.081 76.875
4.18 126.924 78.064
4.19 121.773 78.139
4.20 118.870 77.616
4.21 115.853 76.425
4.22 113.213 74.210
4.23 107.688 71.465
4.24 109.942 69.548
4.25 114.226 68.384
4.26 120.281 68.167
4.27 120.286 69.198
4.28 117.401 70.883
4.29 116.942 72.223
4.30 109.844 73.073
4.31 94.835 73.989
4.32 95.428 74.742
4.33 83.908 74.905
4.34 82.557 74.495
4.35 84.638 73.367
4.36 88.813 71.754
4.37 87.770 70.257
4.38 86.136 69.183
4.39 --undefined-- 69.614
4.40 --undefined-- 70.637
4.41 --undefined-- 72.095
4.42 --undefined-- 73.911
4.43 91.573 75.085
4.44 88.423 75.781
4.45 88.508 76.203
4.46 86.733 76.364
4.47 84.959 76.170
4.48 78.156 75.549
4.49 --undefined-- 74.612
4.50 --undefined-- 73.402
4.51 86.867 71.772
4.52 85.105 69.804
4.53 98.431 67.501
4.54 99.293 65.034
4.55 103.283 62.663
4.56 123.245 59.281
4.57 --undefined-- 54.220
4.58 --undefined-- 48.695
4.59 --undefined-- 52.222
4.60 --undefined-- 60.001
4.61 --undefined-- 64.240
4.62 --undefined-- 67.907
4.63 --undefined-- 72.929
4.64 119.168 76.251
4.65 114.295 77.369
4.66 109.313 77.402
4.67 105.905 77.138
4.68 104.059 76.599
4.69 102.828 75.788
4.70 101.458 74.715
4.71 99.974 73.317
4.72 98.535 71.665
4.73 97.953 69.880
4.74 99.145 68.728
4.75 101.639 68.680
4.76 102.791 69.202
4.77 103.162 70.019
4.78 102.075 71.183
4.79 99.130 72.412
4.80 98.513 73.160
4.81 94.326 73.211
4.82 97.965 73.049
4.83 100.401 73.162
4.84 100.524 73.397
4.85 100.384 73.572
4.86 99.869 73.615
4.87 99.016 73.517
4.88 99.237 73.212
4.89 97.324 72.242
4.90 93.796 69.993
4.91 --undefined-- 66.909
4.92 --undefined-- 66.491
4.93 --undefined-- 68.611
4.94 --undefined-- 70.951
4.95 --undefined-- 71.177
4.96 --undefined-- 68.668
4.97 --undefined-- 64.299
4.98 --undefined-- 61.244
4.99 --undefined-- 63.787
5.00 --undefined-- 68.572
5.01 --undefined-- 71.902
5.02 --undefined-- 73.067
5.03 --undefined-- 72.375
5.04 82.244 71.120
5.05 93.329 70.107
5.06 92.901 68.976
5.07 90.250 67.645
5.08 88.632 66.301
5.09 85.603 64.347
5.10 --undefined-- 61.778
5.11 --undefined-- 59.390
5.12 --undefined-- 57.527
5.13 --undefined-- 56.498
5.14 --undefined-- 55.340
5.15 --undefined-- 52.509
5.16 --undefined-- 50.029
5.17 --undefined-- 49.386
5.18 --undefined-- 48.547
5.19 --undefined-- 47.536
5.20 --undefined-- 46.339
5.21 --undefined-- 45.064
5.22 --undefined-- 44.178
5.23 --undefined-- 43.610
5.24 --undefined-- 44.182
5.25 --undefined-- --undefined--
5.26 --undefined-- --undefined--
5.27 --undefined-- --undefined--
5.28 --undefined-- --undefined--
