Time Pitch Intensity
0.01 --undefined-- --undefined--
0.02 117.694 --undefined--
0.03 115.860 --undefined--
0.04 115.115 --undefined--
0.05 114.900 74.928
0.06 113.603 74.683
0.07 113.476 74.514
0.08 114.128 74.509
0.09 115.402 74.591
0.10 117.017 74.638
0.11 117.363 74.414
0.12 118.004 73.857
0.13 119.975 73.047
0.14 117.694 72.107
0.15 114.198 71.269
0.16 112.148 70.832
0.17 111.735 70.997
0.18 112.588 71.529
0.19 113.073 71.963
0.20 111.839 72.197
0.21 110.292 72.331
0.22 108.736 72.334
0.23 107.770 72.102
0.24 106.472 71.956
0.25 106.940 72.468
0.26 106.911 73.039
0.27 105.857 73.038
0.28 102.561 72.494
0.29 100.470 71.532
0.30 96.330 70.413
0.31 96.269 69.746
0.32 96.444 69.457
0.33 95.309 69.077
0.34 94.699 68.717
0.35 95.536 68.661
0.36 96.665 68.836
0.37 97.131 69.092
0.38 97.855 69.600
0.39 99.162 70.409
0.40 100.592 71.140
0.41 102.268 71.614
0.42 104.131 71.956
0.43 106.720 72.273
0.44 108.934 72.317
0.45 109.727 71.635
0.46 109.839 69.885
0.47 110.440 66.838
0.48 113.841 62.677
0.49 118.000 57.997
0.50 --undefined-- 53.751
0.51 --undefined-- 51.446
0.52 --undefined-- 53.996
0.53 --undefined-- 63.713
0.54 --undefined-- 70.902
0.55 --undefined-- 74.722
0.56 124.360 76.135
0.57 120.915 76.292
0.58 118.716 76.202
0.59 117.744 76.154
0.60 117.125 76.007
0.61 117.066 75.709
0.62 117.332 75.441
0.63 117.706 75.392
0.64 118.330 75.499
0.65 118.992 75.543
0.66 118.796 75.371
0.67 118.661 75.015
0.68 118.178 74.624
0.69 116.843 74.624
0.70 119.033 75.086
0.71 120.028 75.380
0.72 120.932 75.406
0.73 121.947 75.362
0.74 123.036 75.290
0.75 123.660 75.103
0.76 123.841 74.629
0.77 123.409 73.680
0.78 122.542 71.979
0.79 121.044 68.969
0.80 100.161 64.223
0.81 --undefined-- 58.979
0.82 --undefined-- 54.518
0.83 --undefined-- 50.599
0.84 --undefined-- 51.598
0.85 --undefined-- 55.818
0.86 --undefined-- 60.270
0.87 --undefined-- 65.780
0.88 --undefined-- 71.963
0.89 --undefined-- 75.945
0.90 131.200 77.734
0.91 127.303 78.242
0.92 123.288 77.947
0.93 120.483 76.696
0.94 114.793 74.152
0.95 111.346 70.638
0.96 114.234 66.631
0.97 --undefined-- 63.835
0.98 --undefined-- 67.907
0.99 --undefined-- 72.324
1.00 122.786 74.766
1.01 118.924 75.841
1.02 116.452 76.349
1.03 115.527 76.604
1.04 114.578 76.657
1.05 115.177 76.628
1.06 116.346 76.534
1.07 118.032 76.247
1.08 119.385 75.730
1.09 120.892 74.953
1.10 121.753 74.161
1.11 131.469 73.937
1.12 133.873 74.241
1.13 136.477 74.457
1.14 142.430 74.307
1.15 143.650 74.073
1.16 142.193 73.519
1.17 139.212 71.780
1.18 135.752 68.112
1.19 --undefined-- 63.575
1.20 --undefined-- 62.863
1.21 --undefined-- 63.290
1.22 --undefined-- 65.191
1.23 --undefined-- 69.730
1.24 --undefined-- 72.403
1.25 113.280 73.027
1.26 113.197 72.847
1.27 101.137 72.536
1.28 102.147 72.375
1.29 96.865 72.127
1.30 101.843 71.828
1.31 101.769 71.508
1.32 102.487 71.104
1.33 104.388 70.662
1.34 105.584 69.786
1.35 105.286 68.108
1.36 106.572 66.072
1.37 111.110 64.280
1.38 129.629 63.944
1.39 134.929 66.433
1.40 126.301 69.631
1.41 120.709 71.898
1.42 116.827 73.102
1.43 116.208 73.696
1.44 116.568 74.061
1.45 116.665 74.377
1.46 118.205 74.736
1.47 119.213 74.999
1.48 119.602 75.072
1.49 120.472 74.980
1.50 121.715 74.666
1.51 124.417 73.956
1.52 126.003 72.627
1.53 125.628 70.475
1.54 122.610 67.401
1.55 121.729 64.657
1.56 132.706 66.158
1.57 149.555 69.810
1.58 140.565 72.736
1.59 131.962 74.570
1.60 126.329 75.225
1.61 122.567 75.172
1.62 122.175 74.936
1.63 121.194 74.649
1.64 122.547 74.301
1.65 122.025 73.701
1.66 120.368 72.636
1.67 120.210 71.090
1.68 119.790 68.974
1.69 115.301 65.920
1.70 106.794 61.650
1.71 --undefined-- 56.146
1.72 --undefined-- 50.773
1.73 --undefined-- 49.663
1.74 --undefined-- 59.848
1.75 --undefined-- 70.517
1.76 210.546 76.947
1.77 187.580 80.341
1.78 175.917 81.737
1.79 184.175 81.840
1.80 192.489 81.107
1.81 200.525 80.086
1.82 201.170 79.075
1.83 199.016 78.029
1.84 199.685 76.970
1.85 197.922 75.270
1.86 188.359 71.792
1.87 --undefined-- 65.540
1.88 --undefined-- 56.356
1.89 --undefined-- 50.015
1.90 --undefined-- 47.937
1.91 --undefined-- 46.969
1.92 --undefined-- 47.959
1.93 --undefined-- 47.743
1.94 --undefined-- 45.775
1.95 --undefined-- 43.567
1.96 --undefined-- 42.830
1.97 --undefined-- 42.944
1.98 --undefined-- 42.664
1.99 --undefined-- 41.585
2.00 --undefined-- 40.013
2.01 --undefined-- 38.440
2.02 --undefined-- 36.917
2.03 --undefined-- 35.449
2.04 --undefined-- 33.601
2.05 --undefined-- 30.821
2.06 --undefined-- 29.355
2.07 --undefined-- 30.548
2.08 --undefined-- 32.825
2.09 --undefined-- 34.904
2.10 --undefined-- 35.817
2.11 --undefined-- 37.055
2.12 --undefined-- 39.239
2.13 --undefined-- 40.760
2.14 --undefined-- 41.555
2.15 --undefined-- 41.549
2.16 --undefined-- 40.682
2.17 --undefined-- 39.218
2.18 --undefined-- 37.886
2.19 --undefined-- 38.843
2.20 --undefined-- 40.389
2.21 --undefined-- 43.132
2.22 --undefined-- 52.242
2.23 --undefined-- 61.470
2.24 --undefined-- 67.952
2.25 123.291 71.395
2.26 119.709 72.442
2.27 114.810 72.527
2.28 120.081 72.598
2.29 126.236 72.143
2.30 132.703 71.580
2.31 137.074 71.649
2.32 140.783 71.649
2.33 135.672 70.774
2.34 129.862 68.838
2.35 125.605 66.413
2.36 131.105 65.638
2.37 168.431 68.892
2.38 149.471 72.564
2.39 147.112 74.539
2.40 123.349 74.922
2.41 122.198 74.386
2.42 120.683 73.745
2.43 120.137 73.227
2.44 117.043 72.983
2.45 117.751 73.355
2.46 117.098 73.814
2.47 113.250 73.847
2.48 109.439 73.602
2.49 106.353 73.069
2.50 104.652 72.209
2.51 105.426 71.202
2.52 105.461 70.258
2.53 106.306 69.208
2.54 105.428 67.492
2.55 107.372 65.174
2.56 111.267 62.387
2.57 --undefined-- 58.632
2.58 --undefined-- 54.758
2.59 --undefined-- 53.426
2.60 --undefined-- 53.508
2.61 --undefined-- 54.917
2.62 --undefined-- 56.483
2.63 --undefined-- 59.068
2.64 138.631 63.808
2.65 137.678 67.660
2.66 107.421 70.015
2.67 101.782 71.178
2.68 99.432 71.358
2.69 96.151 71.062
2.70 97.531 70.926
2.71 97.591 70.779
2.72 96.457 70.333
2.73 94.284 69.715
2.74 93.127 69.300
2.75 94.566 69.524
2.76 93.764 70.148
2.77 93.216 70.659
2.78 91.908 70.854
2.79 90.156 70.882
2.80 89.032 70.662
2.81 87.642 70.141
2.82 89.443 69.685
2.83 92.092 69.610
2.84 95.120 69.406
2.85 94.906 68.206
2.86 91.069 65.918
2.87 89.348 63.031
2.88 --undefined-- 59.336
2.89 --undefined-- 54.369
2.90 --undefined-- 49.107
2.91 --undefined-- 46.906
2.92 --undefined-- 54.085
2.93 --undefined-- 63.227
2.94 --undefined-- 69.599
2.95 128.553 74.114
2.96 127.041 77.318
2.97 127.939 79.451
2.98 134.099 80.936
2.99 139.953 82.072
3.00 152.850 83.129
3.01 160.198 84.017
3.02 171.332 83.958
3.03 180.249 82.658
3.04 181.701 80.756
3.05 179.794 78.608
3.06 174.331 75.379
3.07 --undefined-- 69.927
3.08 --undefined-- 61.607
3.09 --undefined-- 53.422
3.10 --undefined-- 51.190
3.11 --undefined-- 49.939
3.12 --undefined-- 50.165
3.13 --undefined-- 50.970
3.14 --undefined-- 51.281
3.15 --undefined-- 51.661
3.16 --undefined-- 51.917
3.17 --undefined-- 51.546
3.18 --undefined-- 51.055
3.19 --undefined-- 51.385
3.20 --undefined-- 51.809
3.21 --undefined-- 51.630
3.22 --undefined-- 51.244
3.23 --undefined-- 51.043
3.24 --undefined-- 50.728
3.25 --undefined-- 50.409
3.26 --undefined-- 50.384
3.27 --undefined-- 50.521
3.28 --undefined-- 50.328
3.29 --undefined-- 49.221
3.30 --undefined-- 47.423
3.31 --undefined-- 45.589
3.32 --undefined-- 44.405
3.33 --undefined-- 43.927
3.34 --undefined-- 42.144
3.35 --undefined-- 41.639
3.36 --undefined-- 51.428
3.37 --undefined-- 59.701
3.38 --undefined-- 64.403
3.39 117.398 66.977
3.40 107.385 68.561
3.41 98.538 69.450
3.42 98.187 69.759
3.43 98.716 69.642
3.44 95.921 69.131
3.45 95.655 68.448
3.46 95.910 68.017
3.47 101.982 68.360
3.48 109.244 69.199
3.49 116.075 69.847
3.50 119.725 70.603
3.51 125.035 71.960
3.52 122.962 73.564
3.53 117.440 74.759
3.54 113.865 75.355
3.55 114.864 75.680
3.56 115.487 75.902
3.57 116.655 75.936
3.58 118.266 75.817
3.59 119.856 75.721
3.60 122.915 75.753
3.61 125.001 75.582
3.62 124.801 74.777
3.63 123.481 73.163
3.64 122.774 70.886
3.65 121.348 68.257
3.66 119.157 66.030
3.67 121.915 65.139
3.68 125.700 65.554
3.69 129.676 67.811
3.70 129.533 70.382
3.71 119.028 71.930
3.72 110.465 72.325
3.73 108.412 72.097
3.74 107.628 71.643
3.75 107.022 70.738
3.76 105.931 68.971
3.77 103.314 66.254
3.78 102.806 63.547
3.79 117.079 61.396
3.80 122.600 58.231
3.81 --undefined-- 54.385
3.82 --undefined-- 57.063
3.83 --undefined-- 63.522
3.84 --undefined-- 68.419
3.85 125.619 71.412
3.86 122.669 73.047
3.87 124.436 73.820
3.88 127.899 73.992
3.89 130.879 73.880
3.90 132.726 73.703
3.91 132.058 72.916
3.92 123.700 70.702
3.93 122.514 66.763
3.94 --undefined-- 61.602
3.95 --undefined-- 57.526
3.96 --undefined-- 59.740
3.97 --undefined-- 65.559
3.98 --undefined-- 69.498
3.99 120.011 71.235
4.00 116.703 71.710
4.01 112.944 71.844
4.02 112.268 71.892
4.03 110.761 71.654
4.04 110.000 71.199
4.05 109.714 70.744
4.06 112.036 70.554
4.07 112.800 70.787
4.08 114.199 71.207
4.09 115.760 71.732
4.10 116.926 72.325
4.11 116.384 72.812
4.12 115.981 73.275
4.13 116.301 74.051
4.14 117.638 74.594
4.15 117.365 74.139
4.16 115.900 73.003
4.17 111.906 71.639
4.18 92.716 69.238
4.19 90.837 65.401
4.20 105.890 61.549
4.21 103.592 58.809
4.22 110.760 56.813
4.23 101.166 56.082
4.24 100.102 56.484
4.25 104.065 58.083
4.26 112.084 59.709
4.27 107.236 61.293
4.28 112.430 63.457
4.29 108.421 65.879
4.30 108.387 68.170
4.31 110.501 69.989
4.32 112.386 70.975
4.33 115.352 71.238
4.34 118.671 71.599
4.35 121.770 72.477
4.36 123.177 72.918
4.37 128.520 72.782
4.38 128.413 72.973
4.39 128.291 73.553
4.40 126.574 73.874
4.41 125.414 73.612
4.42 124.358 72.831
4.43 123.973 71.922
4.44 122.778 71.457
4.45 122.399 71.490
4.46 123.156 71.726
4.47 125.424 72.109
4.48 128.102 72.451
4.49 128.496 72.254
4.50 128.846 71.265
4.51 122.779 69.614
4.52 117.901 67.854
4.53 108.254 66.299
4.54 107.638 63.927
4.55 98.605 59.943
4.56 --undefined-- 55.082
4.57 --undefined-- 51.606
4.58 --undefined-- 50.623
4.59 --undefined-- 51.276
4.60 --undefined-- 55.781
4.61 --undefined-- 63.287
4.62 168.714 68.347
4.63 147.863 70.831
4.64 148.901 71.830
4.65 147.280 72.150
4.66 145.868 72.221
4.67 144.666 72.271
4.68 141.901 72.367
4.69 141.353 72.359
4.70 139.674 72.218
4.71 138.916 72.069
4.72 134.256 71.961
4.73 139.092 71.976
4.74 139.579 71.962
4.75 139.090 71.839
4.76 138.567 71.678
4.77 137.938 71.487
4.78 135.147 71.263
4.79 130.270 70.715
4.80 125.558 69.212
4.81 119.947 66.261
4.82 111.001 62.588
4.83 111.730 59.948
4.84 --undefined-- 61.230
4.85 --undefined-- 64.766
4.86 --undefined-- 66.995
4.87 --undefined-- 68.301
4.88 98.087 68.718
4.89 95.254 68.534
4.90 95.588 68.257
4.91 95.857 68.283
4.92 95.610 68.958
4.93 96.289 69.556
4.94 98.035 69.549
4.95 103.343 69.656
4.96 104.554 70.111
4.97 106.825 70.255
4.98 111.047 70.170
4.99 117.110 70.614
5.00 121.463 71.459
5.01 124.288 72.160
5.02 125.412 72.419
5.03 127.356 72.038
5.04 131.969 71.203
5.05 133.120 70.468
5.06 132.026 69.932
5.07 132.290 69.520
5.08 139.556 70.107
5.09 145.350 71.918
5.10 136.595 73.263
5.11 131.932 73.654
5.12 128.836 73.446
5.13 126.829 72.245
5.14 116.454 69.290
5.15 120.495 64.674
5.16 128.269 59.639
5.17 --undefined-- 54.761
5.18 --undefined-- 49.791
5.19 --undefined-- 49.051
5.20 --undefined-- 57.414
5.21 --undefined-- 65.729
5.22 --undefined-- 71.155
5.23 112.121 73.976
5.24 112.613 74.897
5.25 112.783 74.593
5.26 111.595 73.432
5.27 109.982 --undefined--
5.28 108.091 --undefined--
5.29 --undefined-- --undefined--
5.30 --undefined-- --undefined--
