Time Pitch Intensity
0.01 --undefined-- --undefined--
0.02 --undefined-- --undefined--
0.03 --undefined-- --undefined--
0.04 --undefined-- --undefined--
0.05 132.186 74.752
0.06 129.408 75.083
0.07 129.228 74.584
0.08 129.643 73.022
0.09 129.761 70.973
0.10 134.820 69.180
0.11 141.532 67.486
0.12 149.997 65.525
0.13 151.878 63.312
0.14 154.352 60.209
0.15 164.843 56.189
0.16 --undefined-- 51.868
0.17 --undefined-- 46.844
0.18 --undefined-- 40.988
0.19 --undefined-- 37.978
0.20 --undefined-- 38.008
0.21 --undefined-- 39.571
0.22 --undefined-- 43.377
0.23 --undefined-- 47.274
0.24 --undefined-- 52.646
0.25 --undefined-- 62.304
0.26 --undefined-- 69.677
0.27 --undefined-- 73.287
0.28 182.190 74.085
0.29 182.454 73.147
0.30 180.441 71.117
0.31 178.398 68.744
0.32 176.736 67.352
0.33 175.802 67.163
0.34 174.447 67.175
0.35 173.258 67.104
0.36 171.830 66.900
0.37 170.880 66.556
0.38 170.277 66.153
0.39 169.678 65.765
0.40 168.623 65.480
0.41 167.253 65.264
0.42 166.187 64.717
0.43 164.393 63.093
0.44 162.143 59.711
0.45 --undefined-- 57.682
0.46 --undefined-- 61.611
0.47 --undefined-- 64.163
0.48 --undefined-- 63.019
0.49 --undefined-- 57.996
0.50 --undefined-- 57.664
0.51 --undefined-- 65.268
0.52 --undefined-- 69.991
0.53 143.475 72.040
0.54 143.556 72.447
0.55 141.656 72.937
0.56 132.069 73.834
0.57 128.866 74.147
0.58 126.595 73.428
0.59 126.139 71.880
0.60 128.163 70.628
0.61 129.221 70.251
0.62 135.395 69.803
0.63 143.151 68.424
0.64 142.695 65.707
0.65 142.236 61.295
0.66 --undefined-- 54.530
0.67 --undefined-- 45.118
0.68 --undefined-- 38.815
0.69 --undefined-- 39.762
0.70 --undefined-- 43.999
0.71 --undefined-- 48.104
0.72 --undefined-- 50.887
0.73 --undefined-- 51.427
0.74 --undefined-- 50.403
0.75 --undefined-- 49.780
0.76 --undefined-- 49.765
0.77 --undefined-- 49.805
0.78 --undefined-- 50.497
0.79 --undefined-- 51.499
0.80 --undefined-- 51.970
0.81 --undefined-- 51.439
0.82 --undefined-- 50.242
0.83 --undefined-- 49.184
0.84 --undefined-- 48.804
0.85 --undefined-- 48.709
0.86 --undefined-- 48.484
0.87 --undefined-- 48.682
0.88 --undefined-- 48.527
0.89 --undefined-- 47.394
0.90 --undefined-- 46.108
0.91 --undefined-- 44.524
0.92 --undefined-- 42.100
0.93 --undefined-- 39.230
0.94 --undefined-- 36.968
0.95 --undefined-- 35.646
0.96 --undefined-- 34.569
0.97 --undefined-- 34.749
0.98 --undefined-- 35.999
0.99 --undefined-- 36.492
1.00 --undefined-- 36.933
1.01 --undefined-- 37.487
1.02 --undefined-- 37.366
1.03 --undefined-- 36.565
1.04 --undefined-- 34.891
1.05 --undefined-- 33.059
1.06 --undefined-- 33.816
1.07 --undefined-- 38.656
1.08 --undefined-- 46.659
1.09 --undefined-- 55.193
1.10 --undefined-- 61.728
1.11 --undefined-- 65.029
1.12 --undefined-- 65.362
1.13 --undefined-- 64.467
1.14 --undefined-- 63.976
1.15 --undefined-- 63.536
1.16 --undefined-- 63.077
1.17 --undefined-- 62.479
1.18 --undefined-- 61.923
1.19 --undefined-- 61.657
1.20 --undefined-- 61.475
1.21 --undefined-- 60.717
1.22 --undefined-- 59.322
1.23 --undefined-- 58.311
1.24 --undefined-- 59.255
1.25 --undefined-- 65.937
1.26 --undefined-- 72.565
1.27 191.674 75.856
1.28 185.230 76.378
1.29 179.999 75.390
1.30 177.439 74.727
1.31 173.848 74.861
1.32 173.616 75.015
1.33 174.312 74.974
1.34 174.165 74.803
1.35 173.634 74.651
1.36 173.695 74.605
1.37 173.867 74.617
1.38 173.421 74.659
1.39 172.566 74.754
1.40 171.265 74.784
1.41 169.590 74.757
1.42 168.768 74.981
1.43 167.691 75.193
1.44 166.427 74.881
1.45 166.590 74.289
1.46 167.588 73.967
1.47 168.532 73.962
1.48 169.928 73.565
1.49 170.531 72.322
1.50 170.226 70.912
1.51 171.549 70.355
1.52 173.670 70.188
1.53 178.872 69.634
1.54 179.603 68.172
1.55 175.663 65.321
1.56 173.876 60.568
1.57 --undefined-- 53.704
1.58 --undefined-- 46.499
1.59 --undefined-- 42.012
1.60 --undefined-- 39.085
1.61 --undefined-- 37.367
1.62 --undefined-- 43.060
1.63 --undefined-- 52.792
1.64 --undefined-- 58.162
1.65 --undefined-- 59.731
1.66 --undefined-- 62.749
1.67 --undefined-- 69.555
1.68 --undefined-- 73.858
1.69 166.568 75.627
1.70 165.988 76.029
1.71 164.243 75.751
1.72 161.603 74.652
1.73 161.562 73.190
1.74 163.189 72.598
1.75 162.831 72.474
1.76 161.301 72.197
1.77 80.882 72.093
1.78 80.493 72.281
1.79 79.820 72.231
1.80 79.244 71.976
1.81 79.939 72.018
1.82 79.162 72.180
1.83 78.810 72.040
1.84 78.431 71.781
1.85 78.340 71.680
1.86 155.471 71.733
1.87 156.089 71.792
1.88 157.429 72.250
1.89 156.125 72.402
1.90 156.485 72.171
1.91 156.006 72.070
1.92 155.196 71.918
1.93 155.397 71.774
1.94 156.045 71.711
1.95 155.284 71.459
1.96 154.157 71.180
1.97 152.344 71.018
1.98 150.787 70.697
1.99 150.147 69.576
2.00 149.786 67.044
2.01 151.414 62.697
2.02 150.555 56.499
2.03 --undefined-- 48.965
2.04 --undefined-- 42.011
2.05 --undefined-- 37.572
2.06 --undefined-- 35.311
2.07 --undefined-- 34.263
2.08 --undefined-- 34.868
2.09 --undefined-- 35.609
2.10 --undefined-- 35.548
2.11 --undefined-- 35.120
2.12 --undefined-- 35.080
2.13 --undefined-- 39.820
2.14 --undefined-- 50.378
2.15 --undefined-- 56.589
2.16 --undefined-- 58.504
2.17 --undefined-- 57.082
2.18 --undefined-- 54.880
2.19 --undefined-- 55.284
2.20 --undefined-- 56.523
2.21 --undefined-- 57.132
2.22 --undefined-- 57.230
2.23 --undefined-- 57.463
2.24 --undefined-- 58.048
2.25 --undefined-- 58.499
2.26 --undefined-- 58.396
2.27 --undefined-- 57.205
2.28 --undefined-- 56.537
2.29 --undefined-- 62.244
2.30 --undefined-- 68.052
2.31 159.440 71.616
2.32 152.389 73.319
2.33 153.854 73.595
2.34 153.530 72.980
2.35 147.758 71.736
2.36 144.244 69.575
2.37 139.279 66.399
2.38 134.869 62.711
2.39 129.914 59.437
2.40 137.916 58.150
2.41 138.582 58.008
2.42 135.263 57.884
2.43 134.402 57.875
2.44 135.403 57.778
2.45 136.474 57.566
2.46 135.081 57.441
2.47 135.247 57.285
2.48 136.829 56.920
2.49 138.775 56.496
2.50 142.075 56.337
2.51 142.503 56.649
2.52 141.817 57.292
2.53 142.529 58.081
2.54 144.362 59.005
2.55 145.077 60.035
2.56 145.478 61.038
2.57 146.644 61.926
2.58 148.596 63.171
2.59 150.894 66.542
2.60 150.115 70.451
2.61 150.629 72.376
2.62 154.115 72.877
2.63 155.429 73.055
2.64 156.996 73.258
2.65 159.009 73.674
2.66 159.312 74.027
2.67 157.833 74.231
2.68 157.220 74.586
2.69 155.490 74.794
2.70 154.750 74.317
2.71 155.908 72.967
2.72 155.636 71.090
2.73 154.906 69.471
2.74 154.626 68.372
2.75 153.946 67.562
2.76 154.509 66.971
2.77 153.695 66.385
2.78 151.389 65.370
2.79 150.443 63.412
2.80 150.224 60.205
2.81 --undefined-- 56.278
2.82 --undefined-- 52.611
2.83 --undefined-- 48.446
2.84 --undefined-- 42.366
2.85 --undefined-- 36.023
2.86 --undefined-- 33.463
2.87 --undefined-- 33.782
2.88 --undefined-- 33.993
2.89 --undefined-- 33.974
2.90 --undefined-- 33.997
2.91 --undefined-- 33.877
2.92 --undefined-- 33.478
2.93 --undefined-- 33.801
2.94 --undefined-- 36.825
2.95 --undefined-- 45.663
2.96 --undefined-- 55.237
2.97 --undefined-- 61.219
2.98 155.695 64.151
2.99 154.908 65.410
3.00 152.716 65.996
3.01 150.972 65.900
3.02 149.087 65.161
3.03 146.423 64.289
3.04 144.199 63.748
3.05 142.302 63.504
3.06 141.239 63.251
3.07 140.570 62.916
3.08 139.826 62.616
3.09 138.787 62.338
3.10 137.506 62.012
3.11 136.972 61.771
3.12 137.301 61.740
3.13 138.345 61.756
3.14 138.572 61.765
3.15 139.026 61.847
3.16 139.825 62.017
3.17 139.460 62.120
3.18 139.035 61.956
3.19 140.184 61.702
3.20 140.535 62.032
3.21 141.910 63.968
3.22 146.533 67.413
3.23 148.452 70.703
3.24 148.703 72.843
3.25 146.111 73.701
3.26 147.938 74.075
3.27 152.464 74.846
3.28 157.529 75.510
3.29 160.246 75.524
3.30 160.745 75.067
3.31 166.827 74.304
3.32 170.105 73.447
3.33 171.876 72.867
3.34 172.725 72.307
3.35 172.468 71.254
3.36 173.237 70.263
3.37 174.807 70.412
3.38 175.168 70.817
3.39 175.432 70.972
3.40 174.920 71.095
3.41 171.937 71.213
3.42 167.612 71.561
3.43 163.724 72.750
3.44 162.247 74.420
3.45 --undefined-- 75.101
3.46 --undefined-- 74.398
3.47 --undefined-- 73.205
3.48 --undefined-- 72.443
3.49 --undefined-- 71.553
3.50 --undefined-- 69.882
3.51 108.498 68.039
3.52 106.131 66.910
3.53 106.420 66.207
3.54 107.071 64.740
3.55 109.108 62.406
3.56 109.944 61.066
3.57 111.281 61.576
3.58 114.907 62.470
3.59 119.224 62.229
3.60 129.026 60.309
3.61 130.271 56.955
3.62 --undefined-- 51.861
3.63 --undefined-- 45.290
3.64 --undefined-- 41.479
3.65 --undefined-- 41.003
3.66 --undefined-- 41.490
3.67 --undefined-- 43.404
3.68 --undefined-- 46.898
3.69 --undefined-- 49.942
3.70 --undefined-- 53.300
3.71 --undefined-- 62.502
3.72 --undefined-- 70.093
3.73 215.242 73.944
3.74 214.254 75.081
3.75 212.742 74.724
3.76 211.740 73.489
3.77 209.334 71.043
3.78 208.951 66.833
3.79 209.322 60.657
3.80 --undefined-- 53.446
3.81 --undefined-- 48.963
3.82 --undefined-- 46.935
3.83 --undefined-- 44.929
3.84 --undefined-- 43.297
3.85 --undefined-- 42.440
3.86 --undefined-- 41.733
3.87 --undefined-- 41.358
3.88 --undefined-- 42.134
3.89 --undefined-- 43.226
3.90 --undefined-- 43.698
3.91 --undefined-- 53.010
3.92 --undefined-- 64.394
3.93 --undefined-- 70.866
3.94 --undefined-- 73.569
3.95 170.472 74.034
3.96 165.208 73.904
3.97 160.301 73.513
3.98 78.027 72.891
3.99 77.554 72.585
4.00 77.621 72.491
4.01 --undefined-- 72.155
4.02 --undefined-- 71.825
4.03 --undefined-- 71.557
4.04 --undefined-- 71.290
4.05 146.023 70.873
4.06 146.687 70.270
4.07 144.370 69.776
4.08 143.820 68.898
4.09 142.765 66.792
4.10 142.076 63.060
4.11 --undefined-- 58.729
4.12 --undefined-- 56.024
4.13 --undefined-- 55.118
4.14 --undefined-- 54.836
4.15 161.993 56.538
4.16 163.136 59.519
4.17 156.033 62.375
4.18 152.349 64.502
4.19 153.492 66.146
4.20 155.237 67.767
4.21 154.654 69.127
4.22 154.795 70.160
4.23 157.523 70.518
4.24 160.962 69.968
4.25 164.908 69.130
4.26 167.491 68.563
4.27 168.825 67.728
4.28 169.988 65.856
4.29 171.862 62.554
4.30 177.010 57.962
4.31 --undefined-- 52.374
4.32 --undefined-- 48.183
4.33 --undefined-- 52.722
4.34 --undefined-- 62.647
4.35 --undefined-- 69.613
4.36 184.058 73.433
4.37 181.596 75.096
4.38 179.371 75.289
4.39 178.386 74.806
4.40 178.841 74.400
4.41 179.701 74.117
4.42 180.080 73.524
4.43 179.644 72.151
4.44 178.985 69.842
4.45 177.029 66.586
4.46 175.519 62.222
4.47 179.766 57.052
4.48 178.375 52.787
4.49 --undefined-- 49.172
4.50 --undefined-- 47.209
4.51 --undefined-- 52.232
4.52 --undefined-- 55.785
4.53 --undefined-- 56.987
4.54 --undefined-- 63.251
4.55 --undefined-- 69.749
4.56 --undefined-- 73.152
4.57 157.168 74.000
4.58 152.122 73.720
4.59 150.817 73.421
4.60 148.990 72.815
4.61 147.454 71.385
4.62 146.718 69.254
4.63 146.685 66.628
4.64 147.057 62.508
4.65 --undefined-- 57.092
4.66 --undefined-- 55.212
4.67 --undefined-- 57.149
4.68 --undefined-- 58.452
4.69 --undefined-- 58.616
4.70 --undefined-- 59.674
4.71 --undefined-- 60.998
4.72 --undefined-- 61.385
4.73 --undefined-- 61.229
4.74 --undefined-- 61.110
4.75 --undefined-- 60.974
4.76 --undefined-- 60.824
4.77 --undefined-- 60.940
4.78 --undefined-- 60.984
4.79 --undefined-- 62.461
4.80 --undefined-- 68.563
4.81 --undefined-- 72.776
4.82 139.416 73.754
4.83 143.389 72.498
4.84 142.491 70.284
4.85 139.717 67.410
4.86 131.218 64.178
4.87 129.489 62.814
4.88 127.498 63.093
4.89 130.987 63.254
4.90 136.189 63.750
4.91 141.748 64.440
4.92 144.439 64.744
4.93 148.186 65.049
4.94 154.179 65.662
4.95 161.048 66.236
4.96 163.300 66.342
4.97 163.323 66.130
4.98 170.916 67.135
4.99 172.927 69.178
5.00 174.237 70.562
5.01 175.822 71.208
5.02 177.461 71.734
5.03 177.624 72.407
5.04 177.944 73.194
5.05 178.642 74.059
5.06 176.076 74.958
5.07 173.486 75.756
5.08 171.738 76.106
5.09 170.071 75.765
5.10 168.396 74.811
5.11 166.114 73.537
5.12 163.940 72.306
5.13 162.311 71.324
5.14 160.033 70.445
5.15 158.058 69.395
5.16 156.102 67.462
5.17 151.105 63.783
5.18 154.755 57.746
5.19 --undefined-- 51.088
5.20 --undefined-- 45.866
5.21 --undefined-- 43.411
5.22 --undefined-- 47.178
5.23 --undefined-- 51.232
5.24 --undefined-- 56.959
5.25 --undefined-- 61.011
5.26 --undefined-- 62.568
5.27 --undefined-- 63.608
5.28 139.317 64.254
5.29 140.127 64.142
5.30 139.657 63.671
5.31 139.446 63.290
5.32 138.405 63.229
5.33 137.088 63.386
5.34 135.687 63.685
5.35 134.537 63.568
5.36 133.303 62.399
5.37 132.447 60.474
5.38 135.691 59.124
5.39 137.466 58.795
5.40 138.239 59.058
5.41 138.847 59.941
5.42 142.723 61.971
5.43 146.381 64.952
5.44 148.601 67.882
5.45 153.171 70.536
5.46 156.076 72.382
5.47 158.879 73.156
5.48 166.009 72.869
5.49 170.586 71.420
5.50 174.045 68.669
5.51 186.827 65.774
5.52 196.575 65.580
5.53 199.873 65.863
5.54 205.054 65.022
5.55 209.776 63.820
5.56 211.447 64.495
5.57 211.623 69.005
5.58 209.076 73.076
5.59 204.785 74.783
5.60 198.370 --undefined--
5.61 192.567 --undefined--
5.62 --undefined-- --undefined--
5.63 --undefined-- --undefined--
