Time Pitch Intensity
0.01 --undefined-- --undefined--
0.02 84.908 --undefined--
0.03 84.407 --undefined--
0.04 95.712 --undefined--
0.05 111.162 60.483
0.06 110.973 56.758
0.07 --undefined-- 51.819
0.08 --undefined-- 48.402
0.09 --undefined-- 49.726
0.10 --undefined-- 51.995
0.11 --undefined-- 53.734
0.12 --undefined-- 54.901
0.13 --undefined-- 54.671
0.14 --undefined-- 53.234
0.15 --undefined-- 52.508
0.16 --undefined-- 52.907
0.17 --undefined-- 52.666
0.18 --undefined-- 51.739
0.19 --undefined-- 51.413
0.20 --undefined-- 51.513
0.21 --undefined-- 51.509
0.22 --undefined-- 51.328
0.23 --undefined-- 50.634
0.24 --undefined-- 49.542
0.25 --undefined-- 48.872
0.26 --undefined-- 48.754
0.27 --undefined-- 48.522
0.28 --undefined-- 47.781
0.29 --undefined-- 46.245
0.30 --undefined-- 44.361
0.31 --undefined-- 42.013
0.32 --undefined-- 37.291
0.33 --undefined-- 33.103
0.34 --undefined-- 35.042
0.35 --undefined-- 46.088
0.36 --undefined-- 58.717
0.37 --undefined-- 67.683
0.38 191.548 73.432
0.39 189.647 76.733
0.40 188.154 78.553
0.41 187.237 79.352
0.42 186.565 79.176
0.43 187.660 78.053
0.44 187.776 76.314
0.45 188.549 75.448
0.46 191.724 75.838
0.47 193.724 76.290
0.48 194.890 76.517
0.49 196.116 76.697
0.50 197.161 76.909
0.51 197.899 77.085
0.52 198.168 77.133
0.53 198.167 77.002
0.54 198.186 76.660
0.55 198.030 76.058
0.56 196.727 75.212
0.57 195.403 74.277
0.58 191.482 73.055
0.59 188.480 71.184
0.60 186.890 68.376
0.61 183.359 65.692
0.62 221.633 70.996
0.63 233.086 76.929
0.64 235.947 79.769
0.65 237.105 80.341
0.66 237.668 79.935
0.67 235.707 79.123
0.68 232.270 78.291
0.69 230.524 78.152
0.70 229.902 78.333
0.71 230.033 78.461
0.72 230.316 78.595
0.73 228.894 78.637
0.74 222.234 78.729
0.75 217.175 78.507
0.76 214.414 77.177
0.77 203.338 75.566
0.78 190.881 75.757
0.79 173.623 77.347
0.80 164.202 78.401
0.81 156.814 78.433
0.82 150.332 77.270
0.83 138.949 74.708
0.84 137.650 71.773
0.85 137.962 70.353
0.86 135.543 70.184
0.87 135.068 70.746
0.88 134.886 71.183
0.89 133.603 71.217
0.90 133.097 71.236
0.91 132.419 71.043
0.92 129.704 70.073
0.93 129.223 68.583
0.94 134.338 69.338
0.95 156.138 73.867
0.96 155.428 77.032
0.97 150.368 77.897
0.98 147.775 77.954
0.99 149.409 78.177
1.00 151.460 77.949
1.01 154.142 77.105
1.02 149.652 76.042
1.03 --undefined-- 74.714
1.04 --undefined-- 72.335
1.05 --undefined-- 68.820
1.06 --undefined-- 66.708
1.07 --undefined-- 67.061
1.08 --undefined-- 67.592
1.09 --undefined-- 68.151
1.10 --undefined-- 69.536
1.11 142.061 71.105
1.12 143.744 71.965
1.13 144.874 72.125
1.14 144.769 72.078
1.15 145.210 72.225
1.16 146.364 72.606
1.17 147.581 73.016
1.18 148.632 73.494
1.19 149.623 74.038
1.20 149.980 74.523
1.21 153.758 75.155
1.22 156.967 75.941
1.23 159.566 76.503
1.24 163.097 76.709
1.25 166.987 76.460
1.26 168.356 75.843
1.27 168.112 75.210
1.28 169.721 74.757
1.29 171.884 74.447
1.30 174.687 74.328
1.31 176.903 74.680
1.32 178.380 75.318
1.33 179.443 75.738
1.34 179.977 75.783
1.35 178.703 75.712
1.36 177.528 75.813
1.37 176.371 76.010
1.38 174.742 76.030
1.39 172.105 75.661
1.40 166.689 74.986
1.41 167.665 74.386
1.42 162.869 73.890
1.43 157.394 73.486
1.44 149.649 73.302
1.45 142.729 73.510
1.46 139.802 74.068
1.47 133.646 74.642
1.48 118.557 75.026
1.49 114.627 74.872
1.50 111.339 74.225
1.51 110.879 73.979
1.52 110.937 74.181
1.53 112.657 74.467
1.54 114.963 74.686
1.55 117.515 74.785
1.56 120.688 74.876
1.57 123.724 75.268
1.58 128.460 76.134
1.59 132.870 77.000
1.60 135.367 77.378
1.61 139.295 77.482
1.62 147.880 77.545
1.63 146.636 77.362
1.64 146.291 77.241
1.65 146.387 77.263
1.66 146.267 77.045
1.67 145.725 76.683
1.68 145.325 76.158
1.69 143.653 74.771
1.70 139.270 71.534
1.71 146.451 66.455
1.72 146.712 61.201
1.73 --undefined-- 56.401
1.74 --undefined-- 55.612
1.75 --undefined-- 63.670
1.76 --undefined-- 71.076
1.77 171.304 75.218
1.78 169.907 76.717
1.79 168.568 76.447
1.80 166.995 75.463
1.81 160.910 74.554
1.82 166.401 73.758
1.83 165.324 73.020
1.84 161.693 72.587
1.85 158.886 73.027
1.86 150.525 74.030
1.87 144.390 74.742
1.88 133.125 74.635
1.89 126.148 73.921
1.90 118.850 73.519
1.91 110.493 73.196
1.92 105.934 72.647
1.93 104.090 71.974
1.94 105.177 70.406
1.95 109.147 67.117
1.96 103.477 63.018
1.97 105.736 59.968
1.98 --undefined-- 56.546
1.99 --undefined-- 51.817
2.00 --undefined-- 50.633
2.01 --undefined-- 54.102
2.02 --undefined-- 61.240
2.03 --undefined-- 68.587
2.04 161.356 72.869
2.05 153.640 74.057
2.06 146.525 72.591
2.07 143.367 69.254
2.08 141.854 65.748
2.09 140.509 64.344
2.10 144.698 65.784
2.11 146.819 68.251
2.12 147.354 70.247
2.13 147.731 71.688
2.14 146.356 72.670
2.15 144.442 73.128
2.16 141.567 73.029
2.17 137.369 72.676
2.18 143.526 72.630
2.19 145.768 72.969
2.20 146.965 73.421
2.21 147.164 73.781
2.22 147.144 73.960
2.23 147.558 73.990
2.24 147.908 73.888
2.25 147.501 73.443
2.26 146.828 72.312
2.27 144.509 70.041
2.28 141.619 66.166
2.29 131.471 60.583
2.30 136.555 55.232
2.31 --undefined-- 52.498
2.32 --undefined-- 50.221
2.33 --undefined-- 49.390
2.34 --undefined-- 52.031
2.35 --undefined-- 56.892
2.36 --undefined-- 66.354
2.37 --undefined-- 73.586
2.38 148.862 77.595
2.39 146.552 79.318
2.40 142.825 79.663
2.41 139.622 79.203
2.42 136.744 78.037
2.43 132.491 76.072
2.44 130.602 74.097
2.45 136.877 73.721
2.46 137.384 74.136
2.47 136.064 74.408
2.48 134.968 74.523
2.49 134.131 74.580
2.50 133.064 74.700
2.51 132.345 74.818
2.52 132.185 74.873
2.53 131.967 74.848
2.54 131.782 74.689
2.55 131.987 74.276
2.56 129.980 73.041
2.57 123.349 70.182
2.58 120.933 65.401
2.59 137.257 59.921
2.60 134.501 57.301
2.61 129.684 57.154
2.62 124.537 57.623
2.63 --undefined-- 61.857
2.64 --undefined-- 69.442
2.65 --undefined-- 74.406
2.66 124.085 76.226
2.67 111.797 75.794
2.68 107.358 74.567
2.69 102.182 73.613
2.70 98.528 72.783
2.71 97.448 71.855
2.72 97.910 71.056
2.73 98.622 70.622
2.74 99.346 70.318
2.75 98.355 70.179
2.76 97.529 70.159
2.77 96.149 69.988
2.78 95.052 69.759
2.79 94.334 69.672
2.80 94.139 69.300
2.81 93.138 67.927
2.82 90.451 65.315
2.83 91.188 62.391
2.84 105.117 60.766
2.85 97.722 59.443
2.86 --undefined-- 61.323
2.87 --undefined-- 68.175
2.88 --undefined-- 72.993
2.89 --undefined-- 75.005
2.90 114.197 75.663
2.91 115.413 76.190
2.92 118.484 76.272
2.93 120.682 75.825
2.94 118.437 75.440
2.95 110.677 75.204
2.96 108.303 75.011
2.97 104.387 74.902
2.98 101.014 74.598
2.99 98.677 74.265
3.00 97.094 74.271
3.01 94.042 74.270
3.02 92.805 74.086
3.03 91.019 73.798
3.04 90.001 72.737
3.05 97.747 70.601
3.06 96.763 68.414
3.07 104.064 66.264
3.08 103.115 63.206
3.09 100.858 58.704
3.10 --undefined-- 53.382
3.11 --undefined-- 49.776
3.12 --undefined-- 50.228
3.13 --undefined-- 51.628
3.14 --undefined-- 51.357
3.15 --undefined-- 49.257
3.16 --undefined-- 47.310
3.17 --undefined-- 46.826
3.18 --undefined-- 46.764
3.19 --undefined-- 46.355
3.20 --undefined-- 45.636
3.21 --undefined-- 45.295
3.22 --undefined-- 45.639
3.23 --undefined-- 45.780
3.24 --undefined-- 45.018
3.25 --undefined-- 44.175
3.26 --undefined-- 44.788
3.27 --undefined-- 46.192
3.28 --undefined-- 46.202
3.29 --undefined-- 44.587
3.30 --undefined-- 42.945
3.31 --undefined-- 41.444
3.32 --undefined-- 39.658
3.33 --undefined-- 38.640
3.34 --undefined-- 40.927
3.35 --undefined-- 52.132
3.36 --undefined-- 60.951
3.37 148.789 66.365
3.38 153.451 69.525
3.39 155.119 71.431
3.40 157.443 72.816
3.41 161.599 73.953
3.42 164.271 74.543
3.43 163.682 74.023
3.44 156.334 72.243
3.45 153.606 70.073
3.46 150.066 69.750
3.47 166.425 73.307
3.48 164.409 77.033
3.49 162.148 79.074
3.50 161.841 79.698
3.51 159.051 79.469
3.52 153.695 78.843
3.53 148.015 78.389
3.54 145.629 78.317
3.55 144.262 78.276
3.56 144.122 78.348
3.57 142.469 78.842
3.58 139.877 79.482
3.59 138.587 79.708
3.60 140.422 79.611
3.61 140.595 79.547
3.62 140.740 79.333
3.63 139.102 78.693
3.64 139.654 77.910
3.65 139.478 77.380
3.66 139.278 77.038
3.67 140.387 76.585
3.68 142.765 75.851
3.69 147.551 75.017
3.70 154.521 74.582
3.71 162.371 74.782
3.72 166.637 74.882
3.73 170.007 74.192
3.74 170.656 72.469
3.75 168.530 69.717
3.76 170.413 66.746
3.77 166.971 64.427
3.78 169.325 62.026
3.79 171.974 59.885
3.80 164.750 64.222
3.81 --undefined-- 71.235
3.82 --undefined-- 75.417
3.83 --undefined-- 76.874
3.84 --undefined-- 76.018
3.85 143.968 73.300
3.86 132.738 69.992
3.87 131.084 68.141
3.88 128.933 68.638
3.89 127.555 70.061
3.90 131.804 71.548
3.91 134.321 73.455
3.92 130.908 75.343
3.93 127.984 76.410
3.94 127.625 76.561
3.95 128.026 76.507
3.96 128.668 76.508
3.97 127.177 75.553
3.98 121.270 72.675
3.99 127.790 68.141
4.00 126.669 63.862
4.01 129.265 62.530
4.02 139.510 67.512
4.03 139.155 73.083
4.04 137.369 76.274
4.05 134.207 77.486
4.06 131.845 77.771
4.07 134.528 78.232
4.08 140.348 78.861
4.09 146.031 79.368
4.10 149.595 79.751
4.11 152.889 79.750
4.12 156.148 78.796
4.13 157.892 76.353
4.14 158.550 72.312
4.15 155.461 67.981
4.16 153.563 63.669
4.17 152.873 59.646
4.18 151.310 57.880
4.19 154.032 58.477
4.20 154.472 60.582
4.21 --undefined-- 62.363
4.22 --undefined-- 62.974
4.23 --undefined-- 65.110
4.24 --undefined-- 70.236
4.25 127.908 73.905
4.26 118.236 75.336
4.27 111.625 75.191
4.28 105.188 74.318
4.29 105.926 73.041
4.30 102.014 71.056
4.31 101.363 69.394
4.32 108.787 69.652
4.33 111.944 70.744
4.34 115.570 71.819
4.35 121.342 72.613
4.36 130.520 73.395
4.37 134.171 74.318
4.38 135.839 74.992
4.39 138.346 75.369
4.40 147.109 75.716
4.41 149.059 76.253
4.42 150.296 76.862
4.43 151.993 77.478
4.44 152.564 77.814
4.45 150.460 77.167
4.46 143.406 74.856
4.47 146.194 70.962
4.48 148.655 66.527
4.49 150.822 62.055
4.50 154.822 57.767
4.51 151.671 55.547
4.52 158.260 60.173
4.53 171.629 68.131
4.54 161.007 73.468
4.55 151.989 76.249
4.56 146.853 77.086
4.57 141.452 75.966
4.58 129.142 72.664
4.59 130.648 67.783
4.60 131.878 63.031
4.61 133.697 58.738
4.62 --undefined-- 55.505
4.63 --undefined-- 54.578
4.64 --undefined-- 54.233
4.65 --undefined-- 55.496
4.66 --undefined-- 60.522
4.67 --undefined-- 68.550
4.68 --undefined-- 74.178
4.69 142.255 76.699
4.70 128.955 77.082
4.71 121.770 76.445
4.72 119.538 75.598
4.73 115.488 74.827
4.74 113.951 74.339
4.75 113.865 74.108
4.76 114.287 74.081
4.77 114.463 74.331
4.78 114.494 74.555
4.79 114.840 74.477
4.80 115.482 74.127
4.81 116.376 73.699
4.82 118.017 73.299
4.83 120.278 72.753
4.84 122.538 71.911
4.85 122.208 70.499
4.86 118.372 68.031
4.87 --undefined-- 63.907
4.88 --undefined-- 58.236
4.89 --undefined-- 52.046
4.90 --undefined-- 46.981
4.91 --undefined-- 46.978
4.92 --undefined-- 53.787
4.93 --undefined-- 65.017
4.94 --undefined-- 72.883
4.95 186.205 77.078
4.96 182.812 78.550
4.97 179.909 78.413
4.98 175.927 77.624
4.99 175.998 76.573
5.00 178.135 75.389
5.01 180.281 74.564
5.02 182.586 74.669
5.03 183.992 75.479
5.04 185.550 76.396
5.05 186.614 77.193
5.06 186.364 77.332
5.07 184.682 76.305
5.08 184.909 75.205
5.09 188.346 75.352
5.10 189.686 76.003
5.11 191.076 76.670
5.12 191.922 77.124
5.13 191.450 77.220
5.14 190.506 76.707
5.15 187.071 75.119
5.16 180.135 72.163
5.17 173.209 68.268
5.18 170.175 64.827
5.19 174.365 63.141
5.20 173.529 --undefined--
5.21 171.995 --undefined--
5.22 --undefined-- --undefined--
5.23 --undefined-- --undefined--
