Time Pitch Intensity
0.01 --undefined-- --undefined--
0.02 99.750 --undefined--
0.03 103.919 --undefined--
0.04 106.911 --undefined--
0.05 --undefined-- 54.597
0.06 --undefined-- 61.113
0.07 --undefined-- 67.627
0.08 155.716 71.483
0.09 151.196 73.185
0.10 152.639 73.727
0.11 154.439 73.819
0.12 157.173 73.846
0.13 158.348 73.859
0.14 158.875 73.868
0.15 159.502 73.866
0.16 157.873 73.787
0.17 154.713 73.428
0.18 150.981 72.448
0.19 148.094 70.378
0.20 147.858 66.560
0.21 153.581 61.133
0.22 154.069 56.904
0.23 156.837 56.455
0.24 --undefined-- 59.006
0.25 --undefined-- 64.891
0.26 --undefined-- 69.210
0.27 117.871 71.233
0.28 114.602 71.745
0.29 110.969 71.690
0.30 109.699 71.611
0.31 109.023 71.433
0.32 107.564 71.241
0.33 105.577 71.458
0.34 104.565 71.989
0.35 102.653 72.401
0.36 101.500 72.428
0.37 100.411 71.847
0.38 99.234 70.586
0.39 98.151 68.772
0.40 98.797 66.359
0.41 100.839 63.137
0.42 100.609 58.692
0.43 101.674 52.731
0.44 --undefined-- 47.457
0.45 --undefined-- 47.924
0.46 --undefined-- 50.797
0.47 --undefined-- 52.427
0.48 --undefined-- 52.447
0.49 --undefined-- 52.002
0.50 --undefined-- 51.913
0.51 --undefined-- 51.856
0.52 --undefined-- 51.733
0.53 --undefined-- 51.836
0.54 --undefined-- 52.402
0.55 --undefined-- 52.410
0.56 --undefined-- 51.310
0.57 --undefined-- 50.286
0.58 --undefined-- 49.625
0.59 --undefined-- 49.043
0.60 --undefined-- 48.853
0.61 --undefined-- 47.820
0.62 --undefined-- 45.560
0.63 --undefined-- 43.386
0.64 --undefined-- 43.782
0.65 --undefined-- 44.126
0.66 --undefined-- 41.897
0.67 --undefined-- 38.706
0.68 --undefined-- 38.774
0.69 --undefined-- 49.562
0.70 --undefined-- 61.289
0.71 188.948 68.410
0.72 187.187 71.977
0.73 182.733 73.302
0.74 180.129 73.635
0.75 179.640 73.672
0.76 178.153 73.831
0.77 175.245 74.329
0.78 173.717 74.915
0.79 172.281 75.300
0.80 171.159 75.589
0.81 171.065 75.628
0.82 172.172 74.918
0.83 174.887 73.374
0.84 176.104 71.973
0.85 174.607 71.451
0.86 173.212 70.709
0.87 167.963 69.028
0.88 165.550 67.390
0.89 163.269 66.107
0.90 156.476 63.709
0.91 147.569 60.428
0.92 154.681 57.854
0.93 160.896 55.878
0.94 160.783 54.100
0.95 160.427 52.396
0.96 --undefined-- 51.959
0.97 --undefined-- 55.007
0.98 --undefined-- 62.962
0.99 195.453 69.590
1.00 181.738 72.939
1.01 175.040 73.784
1.02 169.808 73.186
1.03 165.043 71.784
1.04 163.414 70.202
1.05 164.192 69.423
1.06 166.305 69.526
1.07 166.613 69.748
1.08 166.841 69.822
1.09 166.372 69.846
1.10 166.255 69.955
1.11 165.995 70.137
1.12 165.922 70.275
1.13 165.535 70.444
1.14 165.339 70.646
1.15 165.124 70.812
1.16 164.915 70.884
1.17 164.613 70.940
1.18 164.569 71.073
1.19 165.103 71.286
1.20 165.428 71.555
1.21 165.867 71.786
1.22 165.693 71.918
1.23 165.736 71.713
1.24 164.996 70.912
1.25 163.276 69.372
1.26 159.561 67.022
1.27 151.109 64.069
1.28 148.936 61.299
1.29 153.874 59.509
1.30 156.167 58.005
1.31 157.818 56.301
1.32 --undefined-- 54.738
1.33 --undefined-- 52.256
1.34 --undefined-- 48.473
1.35 --undefined-- 46.046
1.36 --undefined-- 44.303
1.37 --undefined-- 42.709
1.38 --undefined-- 42.200
1.39 --undefined-- 41.919
1.40 --undefined-- 41.199
1.41 --undefined-- 40.918
1.42 --undefined-- 41.063
1.43 --undefined-- 48.205
1.44 --undefined-- 57.478
1.45 135.664 63.689
1.46 120.839 67.506
1.47 120.902 70.048
1.48 122.883 71.734
1.49 126.391 72.792
1.50 131.434 73.722
1.51 136.792 74.789
1.52 142.578 75.779
1.53 150.008 76.488
1.54 156.903 76.598
1.55 165.770 75.483
1.56 181.867 73.317
1.57 194.174 71.867
1.58 198.316 71.339
1.59 198.374 69.901
1.60 182.731 67.154
1.61 174.947 64.104
1.62 163.940 61.284
1.63 --undefined-- 59.462
1.64 --undefined-- 61.480
1.65 --undefined-- 64.522
1.66 --undefined-- 68.098
1.67 --undefined-- 71.307
1.68 --undefined-- 72.176
1.69 114.940 71.014
1.70 105.797 68.664
1.71 103.531 66.007
1.72 112.229 65.112
1.73 115.317 65.913
1.74 122.334 66.935
1.75 131.889 68.346
1.76 141.121 70.209
1.77 148.442 71.846
1.78 155.481 72.825
1.79 161.880 73.255
1.80 165.442 73.076
1.81 165.963 71.716
1.82 164.566 68.747
1.83 159.989 64.418
1.84 155.829 60.351
1.85 154.903 61.217
1.86 158.251 66.230
1.87 147.369 70.422
1.88 146.129 72.178
1.89 122.839 71.955
1.90 117.959 70.861
1.91 104.874 69.460
1.92 101.058 68.326
1.93 98.161 67.987
1.94 97.458 68.359
1.95 97.477 68.698
1.96 96.940 68.641
1.97 95.451 68.207
1.98 93.993 67.024
1.99 90.627 64.730
2.00 88.028 61.687
2.01 87.413 60.914
2.02 108.239 64.753
2.03 108.033 67.807
2.04 105.508 69.062
2.05 104.407 69.165
2.06 102.662 68.758
2.07 99.926 68.161
2.08 98.075 67.572
2.09 96.826 67.145
2.10 96.181 66.854
2.11 95.788 66.579
2.12 95.841 65.920
2.13 93.686 64.383
2.14 --undefined-- 62.071
2.15 --undefined-- 60.122
2.16 --undefined-- 60.646
2.17 --undefined-- 61.983
2.18 --undefined-- 61.966
2.19 --undefined-- 61.513
2.20 --undefined-- 62.234
2.21 --undefined-- 65.679
2.22 --undefined-- 68.965
2.23 106.754 69.908
2.24 102.045 69.251
2.25 98.667 68.220
2.26 95.174 67.380
2.27 94.327 66.608
2.28 95.994 65.882
2.29 94.126 65.629
2.30 95.560 65.766
2.31 97.932 65.843
2.32 100.723 65.818
2.33 106.006 66.057
2.34 110.708 66.734
2.35 114.939 67.702
2.36 117.923 68.273
2.37 121.632 67.720
2.38 126.713 65.744
2.39 126.518 62.637
2.40 129.243 59.887
2.41 131.503 59.226
2.42 138.774 62.423
2.43 152.778 68.131
2.44 165.479 72.096
2.45 162.289 73.337
2.46 152.837 72.454
2.47 141.935 71.372
2.48 137.739 71.522
2.49 136.425 71.510
2.50 134.979 70.648
2.51 131.419 69.537
2.52 127.587 68.789
2.53 120.599 68.229
2.54 113.150 67.592
2.55 106.461 66.857
2.56 99.347 66.115
2.57 92.865 65.123
2.58 89.565 63.919
2.59 84.372 62.782
2.60 83.422 61.320
2.61 89.041 59.378
2.62 87.569 56.147
2.63 --undefined-- 51.425
2.64 --undefined-- 48.530
2.65 --undefined-- 46.120
2.66 --undefined-- 43.962
2.67 --undefined-- 44.588
2.68 --undefined-- 44.999
2.69 --undefined-- 43.607
2.70 --undefined-- 41.661
2.71 --undefined-- 42.941
2.72 --undefined-- 44.713
2.73 --undefined-- 46.137
2.74 --undefined-- 47.356
2.75 --undefined-- 48.008
2.76 --undefined-- 48.823
2.77 --undefined-- 49.936
2.78 --undefined-- 50.546
2.79 --undefined-- 50.536
2.80 --undefined-- 50.684
2.81 --undefined-- 50.662
2.82 --undefined-- 50.107
2.83 --undefined-- 49.924
2.84 --undefined-- 50.104
2.85 --undefined-- 49.650
2.86 --undefined-- 48.698
2.87 --undefined-- 46.766
2.88 --undefined-- 43.072
2.89 --undefined-- 39.154
2.90 --undefined-- 42.441
2.91 --undefined-- 54.590
2.92 --undefined-- 63.210
2.93 149.551 68.082
2.94 151.999 70.514
2.95 165.138 71.864
2.96 172.076 72.652
2.97 176.476 73.028
2.98 181.035 73.611
2.99 172.589 74.238
3.00 172.782 74.046
3.01 173.589 73.457
3.02 170.896 73.347
3.03 167.840 73.513
3.04 164.151 73.522
3.05 160.410 73.169
3.06 154.991 72.638
3.07 148.601 72.589
3.08 142.757 73.016
3.09 137.722 73.166
3.10 131.525 72.378
3.11 127.740 70.430
3.12 124.398 67.781
3.13 128.942 65.504
3.14 127.056 63.673
3.15 124.054 62.077
3.16 124.029 61.005
3.17 119.618 59.733
3.18 117.111 58.835
3.19 118.756 59.869
3.20 120.288 62.724
3.21 123.533 65.897
3.22 127.061 68.577
3.23 131.601 70.754
3.24 139.354 72.448
3.25 144.835 73.622
3.26 149.381 74.395
3.27 152.085 74.830
3.28 152.583 74.608
3.29 150.646 73.699
3.30 144.824 72.781
3.31 142.064 71.917
3.32 136.453 70.561
3.33 131.559 69.165
3.34 130.896 68.869
3.35 130.630 69.305
3.36 128.382 69.555
3.37 126.650 69.738
3.38 124.989 69.871
3.39 123.095 69.498
3.40 121.661 68.635
3.41 118.762 67.766
3.42 115.933 67.207
3.43 116.188 67.122
3.44 118.483 67.569
3.45 120.433 68.210
3.46 122.089 68.897
3.47 124.118 69.615
3.48 129.192 70.282
3.49 135.555 71.041
3.50 140.276 71.914
3.51 145.492 72.669
3.52 153.354 73.267
3.53 155.317 73.611
3.54 157.707 73.686
3.55 160.785 73.864
3.56 163.761 74.101
3.57 165.950 74.102
3.58 167.171 73.954
3.59 167.633 73.859
3.60 166.045 73.906
3.61 162.048 73.297
3.62 157.085 70.904
3.63 151.422 66.889
3.64 152.691 63.242
3.65 153.077 60.639
3.66 157.165 58.378
3.67 167.279 59.366
3.68 164.683 66.055
3.69 153.770 70.725
3.70 138.427 72.488
3.71 129.624 72.333
3.72 125.829 71.442
3.73 122.763 70.691
3.74 121.535 70.343
3.75 120.211 70.062
3.76 116.958 69.461
3.77 113.488 68.437
3.78 113.510 67.167
3.79 107.164 65.770
3.80 101.271 64.948
3.81 105.554 65.777
3.82 107.778 67.343
3.83 112.156 68.843
3.84 115.494 69.910
3.85 120.723 70.503
3.86 120.011 70.680
3.87 119.491 70.429
3.88 119.113 69.886
3.89 118.666 69.396
3.90 115.908 69.067
3.91 115.238 69.155
3.92 115.114 69.781
3.93 114.228 70.514
3.94 113.781 71.080
3.95 113.177 71.356
3.96 113.741 71.455
3.97 114.032 71.690
3.98 113.544 71.636
3.99 110.909 70.104
4.00 105.230 66.276
4.01 111.582 61.010
4.02 112.666 57.032
4.03 111.053 53.792
4.04 110.191 50.003
4.05 --undefined-- 46.653
4.06 --undefined-- 47.898
4.07 --undefined-- 51.976
4.08 --undefined-- 55.590
4.09 --undefined-- 63.083
4.10 --undefined-- 69.895
4.11 140.384 73.544
4.12 139.989 74.844
4.13 139.073 74.657
4.14 135.321 73.292
4.15 129.213 70.648
4.16 127.538 67.324
4.17 131.322 65.207
4.18 125.244 63.789
4.19 123.481 63.330
4.20 122.579 65.023
4.21 123.393 68.105
4.22 125.598 70.777
4.23 123.440 72.200
4.24 121.044 72.633
4.25 118.652 72.178
4.26 115.289 70.649
4.27 111.477 68.107
4.28 108.783 64.924
4.29 105.357 61.361
4.30 106.022 58.124
4.31 113.587 56.478
4.32 112.204 55.352
4.33 109.001 53.773
4.34 114.735 51.788
4.35 --undefined-- 48.721
4.36 --undefined-- 44.432
4.37 --undefined-- 41.578
4.38 --undefined-- 42.429
4.39 --undefined-- 43.508
4.40 --undefined-- 44.099
4.41 --undefined-- 44.950
4.42 --undefined-- 45.541
4.43 --undefined-- 48.433
4.44 --undefined-- 57.588
4.45 --undefined-- 65.287
4.46 123.233 69.879
4.47 123.675 72.164
4.48 120.593 72.969
4.49 119.569 73.042
4.50 117.789 72.947
4.51 116.555 72.825
4.52 115.929 72.627
4.53 115.684 72.448
4.54 115.696 72.275
4.55 115.289 71.595
4.56 108.901 69.926
4.57 115.872 68.507
4.58 116.616 68.511
4.59 117.147 68.830
4.60 117.327 69.075
4.61 115.891 69.223
4.62 114.063 69.282
4.63 111.937 69.415
4.64 110.111 69.940
4.65 113.030 70.970
4.66 110.702 71.603
4.67 105.482 71.318
4.68 104.136 70.660
4.69 103.550 70.037
4.70 101.794 69.306
4.71 99.000 68.455
4.72 96.865 67.723
4.73 96.834 67.453
4.74 97.180 67.499
4.75 96.283 67.283
4.76 95.027 66.861
4.77 94.972 66.676
4.78 95.648 66.770
4.79 96.410 66.862
4.80 97.616 66.883
4.81 98.749 66.984
4.82 99.729 67.213
4.83 100.812 67.446
4.84 102.535 67.481
4.85 104.656 67.174
4.86 106.293 66.354
4.87 107.676 64.681
4.88 104.731 62.039
4.89 108.291 59.481
4.90 115.954 60.420
4.91 133.624 66.029
4.92 145.602 70.686
4.93 141.634 72.636
4.94 135.264 72.576
4.95 132.802 72.380
4.96 130.683 73.011
4.97 129.185 73.689
4.98 128.666 73.763
4.99 127.858 73.050
5.00 127.119 72.054
5.01 124.281 71.536
5.02 121.978 71.691
5.03 121.052 71.807
5.04 118.840 70.902
5.05 114.043 68.760
5.06 108.961 65.811
5.07 105.650 62.475
5.08 121.854 57.994
5.09 123.314 52.818
5.10 121.514 50.250
5.11 122.810 49.303
5.12 --undefined-- 48.149
5.13 --undefined-- 46.912
5.14 --undefined-- 46.696
5.15 --undefined-- 47.048
5.16 --undefined-- 47.499
5.17 --undefined-- 48.197
5.18 --undefined-- 48.613
5.19 --undefined-- 48.008
5.20 --undefined-- 45.983
5.21 --undefined-- 43.549
5.22 --undefined-- 41.629
5.23 --undefined-- --undefined--
5.24 --undefined-- --undefined--
5.25 --undefined-- --undefined--
5.26 --undefined-- --undefined--
