Time Pitch Intensity
0.01 --undefined-- --undefined--
0.02 242.868 --undefined--
0.03 245.095 --undefined--
0.04 246.398 --undefined--
0.05 246.720 65.001
0.06 246.738 65.199
0.07 246.774 65.687
0.08 246.275 66.031
0.09 245.400 65.879
0.10 242.878 65.549
0.11 239.785 64.886
0.12 234.397 62.975
0.13 219.016 59.035
0.14 --undefined-- 53.640
0.15 --undefined-- 49.986
0.16 --undefined-- 51.369
0.17 --undefined-- 54.173
0.18 --undefined-- 57.327
0.19 230.888 61.004
0.20 209.998 63.282
0.21 194.285 64.119
0.22 184.806 64.368
0.23 178.150 64.512
0.24 174.269 64.649
0.25 172.350 64.716
0.26 170.911 64.849
0.27 170.596 65.131
0.28 171.228 65.334
0.29 171.625 65.167
0.30 172.493 64.585
0.31 173.710 63.990
0.32 175.231 64.246
0.33 177.520 65.540
0.34 179.605 66.830
0.35 182.558 67.542
0.36 184.672 68.006
0.37 186.423 68.665
0.38 188.066 69.553
0.39 188.995 70.278
0.40 189.625 70.421
0.41 189.351 69.911
0.42 189.080 68.854
0.43 187.805 67.355
0.44 191.506 65.439
0.45 212.949 62.933
0.46 222.875 59.593
0.47 229.314 57.087
0.48 --undefined-- 56.638
0.49 --undefined-- 55.530
0.50 --undefined-- 52.480
0.51 --undefined-- 49.299
0.52 --undefined-- 50.188
0.53 --undefined-- 51.575
0.54 --undefined-- 52.134
0.55 --undefined-- 51.074
0.56 --undefined-- 52.110
0.57 --undefined-- 54.484
0.58 --undefined-- 54.072
0.59 --undefined-- 51.838
0.60 --undefined-- 52.050
0.61 --undefined-- 54.069
0.62 --undefined-- 55.880
0.63 287.717 56.004
0.64 287.914 53.734
0.65 --undefined-- 51.011
0.66 --undefined-- 51.338
0.67 --undefined-- 52.768
0.68 --undefined-- 53.790
0.69 --undefined-- 54.242
0.70 --undefined-- 53.671
0.71 --undefined-- 53.166
0.72 --undefined-- 52.618
0.73 --undefined-- 52.946
0.74 --undefined-- 53.661
0.75 --undefined-- 53.788
0.76 --undefined-- 52.578
0.77 --undefined-- 50.539
0.78 --undefined-- 49.179
0.79 --undefined-- 48.602
0.80 --undefined-- 52.803
0.81 --undefined-- 57.433
0.82 297.240 59.775
0.83 271.195 61.347
0.84 256.507 63.370
0.85 251.317 65.396
0.86 255.309 67.213
0.87 260.680 68.578
0.88 266.557 69.416
0.89 273.616 69.640
0.90 273.942 68.501
0.91 258.149 65.572
0.92 239.975 62.351
0.93 261.568 59.674
0.94 281.168 58.084
0.95 --undefined-- 62.379
0.96 292.693 66.991
0.97 293.651 70.040
0.98 290.539 72.185
0.99 287.158 73.809
1.00 284.336 74.796
1.01 281.705 75.025
1.02 283.610 74.224
1.03 288.745 72.099
1.04 291.542 69.634
1.05 290.566 68.395
1.06 291.346 68.111
1.07 291.935 68.284
1.08 290.446 68.399
1.09 286.409 68.654
1.10 282.994 69.325
1.11 276.953 69.471
1.12 270.043 68.743
1.13 261.181 67.478
1.14 249.826 66.478
1.15 238.829 66.468
1.16 232.267 66.928
1.17 206.154 67.448
1.18 200.924 68.069
1.19 195.125 68.586
1.20 186.857 68.622
1.21 181.923 67.959
1.22 178.515 66.660
1.23 177.442 64.859
1.24 175.727 63.386
1.25 180.230 63.629
1.26 179.301 64.560
1.27 180.475 65.301
1.28 184.742 65.996
1.29 190.519 66.476
1.30 197.331 66.147
1.31 207.951 65.081
1.32 219.746 64.681
1.33 228.407 65.424
1.34 243.664 66.179
1.35 250.397 66.993
1.36 256.920 68.353
1.37 261.333 69.586
1.38 267.156 70.129
1.39 273.111 70.400
1.40 277.832 71.007
1.41 281.185 71.675
1.42 281.430 72.244
1.43 280.474 72.702
1.44 278.547 72.777
1.45 274.456 72.358
1.46 268.125 71.481
1.47 259.562 70.673
1.48 248.255 70.578
1.49 235.026 71.332
1.50 230.828 71.940
1.51 227.303 71.034
1.52 227.984 68.476
1.53 216.446 65.761
1.54 211.525 64.509
1.55 208.296 63.618
1.56 206.659 62.168
1.57 210.573 61.659
1.58 228.219 63.471
1.59 243.422 65.679
1.60 253.146 67.108
1.61 264.240 68.022
1.62 268.659 68.525
1.63 273.124 68.584
1.64 279.266 68.469
1.65 282.361 68.382
1.66 283.570 68.137
1.67 284.416 67.664
1.68 285.321 67.226
1.69 287.123 67.060
1.70 289.207 67.184
1.71 292.385 67.263
1.72 296.400 66.980
1.73 295.475 65.964
1.74 286.696 63.539
1.75 273.712 59.095
1.76 284.628 53.014
1.77 --undefined-- 48.068
1.78 --undefined-- 48.185
1.79 --undefined-- 52.228
1.80 --undefined-- 54.893
1.81 282.556 55.387
1.82 285.573 55.370
1.83 213.963 55.806
1.84 201.456 57.146
1.85 203.590 58.528
1.86 207.808 59.512
1.87 208.490 60.430
1.88 216.480 61.901
1.89 207.288 63.882
1.90 179.660 65.862
1.91 174.991 67.434
1.92 172.074 68.405
1.93 170.895 68.970
1.94 171.277 69.360
1.95 171.258 69.376
1.96 171.715 68.777
1.97 173.387 67.890
1.98 174.856 67.527
1.99 175.295 67.624
2.00 177.152 67.646
2.01 179.570 67.701
2.02 179.890 67.209
2.03 178.287 64.906
2.04 180.394 60.472
2.05 180.599 56.041
2.06 --undefined-- 55.707
2.07 --undefined-- 56.921
2.08 --undefined-- 60.411
2.09 231.117 65.686
2.10 222.019 69.273
2.11 214.384 71.066
2.12 214.613 71.501
2.13 216.599 71.035
2.14 219.953 69.921
2.15 223.400 68.128
2.16 223.515 65.305
2.17 216.860 61.187
2.18 217.459 57.525
2.19 --undefined-- 57.421
2.20 --undefined-- 57.383
2.21 --undefined-- 54.974
2.22 --undefined-- 51.594
2.23 --undefined-- 53.074
2.24 --undefined-- 58.881
2.25 286.107 64.413
2.26 276.318 67.719
2.27 270.447 69.183
2.28 271.091 69.767
2.29 274.576 70.253
2.30 277.398 70.758
2.31 279.072 71.221
2.32 279.794 71.466
2.33 280.330 71.353
2.34 280.561 71.004
2.35 281.140 70.506
2.36 281.803 70.060
2.37 283.018 69.879
2.38 284.521 69.840
2.39 285.983 69.800
2.40 288.137 69.693
2.41 290.332 69.431
2.42 293.726 69.019
2.43 291.135 68.193
2.44 285.061 66.155
2.45 267.353 62.427
2.46 267.120 57.475
2.47 274.664 52.453
2.48 --undefined-- 49.890
2.49 --undefined-- 48.617
2.50 --undefined-- 49.042
2.51 --undefined-- 53.249
2.52 --undefined-- 55.783
2.53 --undefined-- 56.035
2.54 259.928 55.436
2.55 260.777 55.845
2.56 265.877 58.581
2.57 260.677 61.934
2.58 274.083 64.639
2.59 281.866 66.911
2.60 290.666 68.632
2.61 297.308 69.398
2.62 152.131 69.233
2.63 152.799 68.727
2.64 152.114 68.399
2.65 151.586 68.234
2.66 151.266 68.063
2.67 151.577 67.832
2.68 152.206 67.641
2.69 152.458 67.550
2.70 151.468 67.176
2.71 295.540 65.746
2.72 281.773 62.692
2.73 273.176 58.768
2.74 --undefined-- 56.572
2.75 --undefined-- 54.473
2.76 --undefined-- 52.372
2.77 --undefined-- 51.501
2.78 --undefined-- 50.769
2.79 --undefined-- 50.146
2.80 --undefined-- 50.890
2.81 --undefined-- 54.771
2.82 --undefined-- 57.179
2.83 --undefined-- 58.096
2.84 239.890 61.372
2.85 232.656 64.789
2.86 228.663 66.853
2.87 214.950 67.916
2.88 200.475 68.559
2.89 198.001 69.440
2.90 194.717 70.670
2.91 192.638 71.814
2.92 192.824 72.491
2.93 196.274 72.621
2.94 204.068 72.155
2.95 207.874 71.280
2.96 212.530 70.764
2.97 217.164 71.107
2.98 220.486 71.546
2.99 224.068 71.618
3.00 226.269 71.564
3.01 227.369 71.706
3.02 225.996 72.151
3.03 223.063 72.377
3.04 218.022 71.475
3.05 212.226 68.797
3.06 198.054 64.447
3.07 200.748 59.762
3.08 213.001 57.016
3.09 224.451 58.561
3.10 224.102 60.576
3.11 --undefined-- 60.165
3.12 --undefined-- 57.887
3.13 --undefined-- 56.412
3.14 --undefined-- 55.681
3.15 --undefined-- 56.379
3.16 --undefined-- 58.085
3.17 --undefined-- 58.142
3.18 --undefined-- 56.517
3.19 --undefined-- 54.871
3.20 --undefined-- 54.008
3.21 --undefined-- 54.560
3.22 --undefined-- 55.642
3.23 --undefined-- 57.284
3.24 --undefined-- 57.613
3.25 --undefined-- 55.127
3.26 --undefined-- 50.876
3.27 --undefined-- 48.192
3.28 --undefined-- 50.566
3.29 --undefined-- 55.493
3.30 --undefined-- 58.121
3.31 --undefined-- 57.629
3.32 --undefined-- 54.747
3.33 --undefined-- 51.061
3.34 --undefined-- 49.937
3.35 --undefined-- 51.641
3.36 --undefined-- 55.005
3.37 --undefined-- 59.889
3.38 153.035 65.281
3.39 152.410 69.471
3.40 151.592 71.983
3.41 152.635 73.334
3.42 153.818 74.202
3.43 156.068 74.711
3.44 158.347 74.710
3.45 159.887 74.405
3.46 161.413 74.144
3.47 161.143 74.312
3.48 160.073 74.381
3.49 160.347 73.635
3.50 161.058 72.226
3.51 161.075 70.811
3.52 159.094 70.420
3.53 149.766 71.860
3.54 295.025 73.072
3.55 287.484 73.045
3.56 282.029 72.543
3.57 277.737 72.114
3.58 271.300 71.585
3.59 265.846 71.088
3.60 258.172 71.221
3.61 248.132 71.944
3.62 235.314 72.305
3.63 227.681 71.542
3.64 220.746 70.371
3.65 --undefined-- 69.731
3.66 --undefined-- 68.905
3.67 --undefined-- 67.286
3.68 --undefined-- 64.968
3.69 --undefined-- 62.556
3.70 --undefined-- 60.761
3.71 --undefined-- 61.137
3.72 177.668 62.529
3.73 185.457 63.581
3.74 192.361 64.694
3.75 196.578 65.305
3.76 195.435 65.512
3.77 190.414 65.871
3.78 189.859 66.315
3.79 189.876 66.749
3.80 191.402 66.985
3.81 192.995 66.767
3.82 194.868 66.274
3.83 197.074 65.813
3.84 198.377 65.335
3.85 199.183 64.836
3.86 200.839 64.399
3.87 202.158 64.180
3.88 201.834 64.268
3.89 200.883 64.532
3.90 201.503 64.726
3.91 203.531 64.791
3.92 204.339 64.943
3.93 205.874 65.264
3.94 211.682 65.917
3.95 215.516 67.183
3.96 213.682 68.840
3.97 208.664 70.192
3.98 206.525 70.535
3.99 205.567 70.039
4.00 203.756 70.021
4.01 203.599 70.692
4.02 206.859 71.297
4.03 214.009 71.966
4.04 222.747 72.551
4.05 234.676 72.292
4.06 246.743 70.942
4.07 261.682 69.303
4.08 275.317 68.449
4.09 288.875 68.464
4.10 153.541 69.152
4.11 161.168 70.080
4.12 163.552 70.676
4.13 162.425 70.141
4.14 157.951 67.525
4.15 148.261 62.410
4.16 163.003 57.152
4.17 163.829 55.287
4.18 162.751 52.358
4.19 --undefined-- 48.994
4.20 --undefined-- 51.764
4.21 --undefined-- 54.958
4.22 --undefined-- 56.407
4.23 --undefined-- 57.259
4.24 --undefined-- 57.768
4.25 --undefined-- 58.839
4.26 --undefined-- 62.440
4.27 290.629 65.509
4.28 277.076 66.996
4.29 271.892 67.513
4.30 267.854 67.672
4.31 264.028 67.847
4.32 259.493 68.213
4.33 255.886 68.628
4.34 252.704 68.788
4.35 250.112 69.284
4.36 249.260 70.519
4.37 247.851 71.469
4.38 246.164 71.751
4.39 244.901 71.762
4.40 244.717 71.748
4.41 245.836 71.698
4.42 247.487 71.588
4.43 249.529 71.258
4.44 250.236 70.560
4.45 250.641 69.553
4.46 250.970 68.487
4.47 250.857 67.761
4.48 250.732 67.752
4.49 249.951 68.377
4.50 253.741 69.108
4.51 260.156 69.318
4.52 264.954 68.903
4.53 270.558 68.092
4.54 276.016 67.272
4.55 284.975 67.135
4.56 293.639 67.875
4.57 295.242 68.253
4.58 299.529 68.139
4.59 150.893 68.079
4.60 150.494 68.306
4.61 294.711 69.092
4.62 287.486 70.410
4.63 279.572 71.447
4.64 268.757 71.715
4.65 253.898 71.567
4.66 239.513 71.182
4.67 223.629 70.362
4.68 211.498 69.071
4.69 204.015 67.382
4.70 202.462 65.543
4.71 190.936 63.633
4.72 189.052 60.885
4.73 192.030 57.118
4.74 --undefined-- 54.865
4.75 --undefined-- 53.404
4.76 --undefined-- 54.233
4.77 --undefined-- 56.912
4.78 --undefined-- 57.995
4.79 --undefined-- 57.851
4.80 --undefined-- 57.879
4.81 --undefined-- 59.619
4.82 192.853 61.745
4.83 181.991 62.991
4.84 174.601 63.439
4.85 167.442 63.076
4.86 161.925 62.293
4.87 157.587 62.043
4.88 156.559 62.357
4.89 157.222 63.306
4.90 159.044 64.561
4.91 160.206 64.874
4.92 162.757 64.097
4.93 164.211 --undefined--
4.94 166.479 --undefined--
4.95 --undefined-- --undefined--
4.96 --undefined-- --undefined--
