Time Pitch Intensity
0.01 --undefined-- --undefined--
0.02 126.339 --undefined--
0.03 125.954 --undefined--
0.04 126.081 --undefined--
0.05 125.606 77.203
0.06 122.637 75.081
0.07 124.274 72.664
0.08 129.775 71.570
0.09 128.898 71.307
0.10 128.468 71.444
0.11 133.547 72.728
0.12 135.652 74.702
0.13 122.509 76.098
0.14 121.396 76.766
0.15 120.825 76.679
0.16 117.256 75.897
0.17 117.066 74.949
0.18 119.405 74.289
0.19 125.162 74.466
0.20 129.964 75.213
0.21 134.940 75.815
0.22 139.916 75.760
0.23 143.354 74.930
0.24 152.265 74.341
0.25 157.652 74.847
0.26 161.016 75.233
0.27 164.389 74.842
0.28 167.859 73.830
0.29 169.089 72.737
0.30 169.003 72.435
0.31 169.477 73.330
0.32 168.525 74.573
0.33 167.957 75.778
0.34 161.238 77.062
0.35 159.653 77.927
0.36 158.258 77.838
0.37 153.029 77.229
0.38 151.939 77.239
0.39 152.701 77.511
0.40 153.636 77.210
0.41 154.992 76.349
0.42 155.251 75.273
0.43 155.380 74.576
0.44 157.412 74.440
0.45 159.298 74.351
0.46 161.295 73.915
0.47 162.327 72.907
0.48 160.512 71.073
0.49 153.646 68.571
0.50 151.303 67.611
0.51 154.893 70.252
0.52 156.135 74.162
0.53 153.941 77.003
0.54 150.500 77.834
0.55 140.913 76.780
0.56 131.925 75.335
0.57 129.942 75.120
0.58 129.943 75.397
0.59 131.486 75.549
0.60 130.929 75.326
0.61 130.739 74.223
0.62 133.996 72.248
0.63 144.926 70.973
0.64 163.173 72.839
0.65 171.800 75.396
0.66 179.009 76.307
0.67 184.844 75.854
0.68 189.535 75.282
0.69 194.174 74.517
0.70 194.608 73.034
0.71 198.978 71.954
0.72 203.411 71.620
0.73 202.419 71.341
0.74 197.135 71.610
0.75 191.326 72.944
0.76 181.507 74.679
0.77 165.672 75.555
0.78 153.483 75.821
0.79 143.881 76.188
0.80 134.485 76.445
0.81 130.127 76.078
0.82 127.832 75.224
0.83 126.628 74.894
0.84 135.165 74.980
0.85 140.545 74.237
0.86 147.971 72.840
0.87 158.112 73.092
0.88 160.067 74.990
0.89 161.409 75.941
0.90 171.684 75.268
0.91 176.951 73.562
0.92 176.827 71.410
0.93 168.062 69.571
0.94 165.696 69.073
0.95 168.493 69.878
0.96 174.014 71.877
0.97 178.578 73.790
0.98 181.596 74.765
0.99 182.328 74.888
1.00 182.414 74.434
1.01 182.071 73.718
1.02 180.990 72.535
1.03 175.888 70.157
1.04 159.762 66.890
1.05 161.554 63.880
1.06 165.015 60.041
1.07 --undefined-- 54.739
1.08 --undefined-- 53.433
1.09 --undefined-- 56.283
1.10 --undefined-- 63.883
1.11 --undefined-- 70.690
1.12 141.326 74.194
1.13 136.920 75.066
1.14 122.025 74.436
1.15 119.342 73.281
1.16 115.634 71.142
1.17 105.821 67.014
1.18 100.278 61.067
1.19 118.115 55.658
1.20 118.214 52.910
1.21 --undefined-- 51.107
1.22 --undefined-- 48.436
1.23 --undefined-- 45.277
1.24 --undefined-- 43.420
1.25 --undefined-- 43.206
1.26 --undefined-- 43.266
1.27 --undefined-- 47.667
1.28 --undefined-- 59.519
1.29 --undefined-- 68.120
1.30 --undefined-- 72.968
1.31 122.711 74.856
1.32 118.804 75.014
1.33 115.715 74.640
1.34 113.448 74.130
1.35 112.750 73.616
1.36 113.148 73.324
1.37 113.540 73.160
1.38 113.033 72.789
1.39 111.909 71.886
1.40 111.064 70.334
1.41 111.506 68.652
1.42 116.334 68.242
1.43 122.534 69.188
1.44 127.154 70.508
1.45 132.177 71.840
1.46 136.322 73.138
1.47 139.248 74.329
1.48 144.183 75.408
1.49 147.009 76.360
1.50 146.758 77.083
1.51 146.365 77.495
1.52 145.712 77.559
1.53 144.945 77.380
1.54 145.107 77.151
1.55 145.820 76.502
1.56 145.414 74.322
1.57 147.578 69.623
1.58 145.862 62.994
1.59 144.305 59.058
1.60 145.038 58.042
1.61 147.848 56.973
1.62 --undefined-- 56.352
1.63 --undefined-- 62.908
1.64 158.946 70.627
1.65 141.133 74.988
1.66 137.384 76.661
1.67 133.106 76.755
1.68 128.992 76.341
1.69 128.660 76.329
1.70 132.588 76.899
1.71 134.905 77.443
1.72 137.442 77.521
1.73 139.917 76.790
1.74 138.983 74.757
1.75 127.748 71.190
1.76 129.869 67.067
1.77 134.937 62.763
1.78 --undefined-- 57.499
1.79 --undefined-- 54.183
1.80 --undefined-- 54.793
1.81 --undefined-- 56.834
1.82 106.004 59.986
1.83 121.950 62.924
1.84 122.796 64.794
1.85 120.061 65.858
1.86 116.052 66.716
1.87 110.800 67.315
1.88 105.858 67.281
1.89 102.747 66.800
1.90 97.700 66.861
1.91 101.456 67.302
1.92 94.687 67.950
1.93 100.483 70.142
1.94 113.363 72.225
1.95 114.205 73.199
1.96 113.424 73.407
1.97 112.803 73.174
1.98 112.988 72.702
1.99 114.909 72.295
2.00 115.638 71.720
2.01 119.436 69.874
2.02 119.350 66.142
2.03 125.417 62.259
2.04 130.924 59.633
2.05 136.004 56.482
2.06 --undefined-- 52.259
2.07 --undefined-- 48.214
2.08 --undefined-- 49.085
2.09 --undefined-- 53.567
2.10 --undefined-- 58.450
2.11 --undefined-- 66.000
2.12 223.863 72.325
2.13 226.221 75.152
2.14 227.904 74.635
2.15 205.082 71.127
2.16 193.648 65.217
2.17 --undefined-- 58.333
2.18 --undefined-- 53.338
2.19 --undefined-- 52.399
2.20 --undefined-- 52.215
2.21 --undefined-- 52.767
2.22 --undefined-- 53.080
2.23 --undefined-- 51.501
2.24 --undefined-- 50.092
2.25 --undefined-- 49.775
2.26 --undefined-- 50.283
2.27 --undefined-- 50.441
2.28 --undefined-- 49.701
2.29 --undefined-- 49.390
2.30 --undefined-- 49.843
2.31 --undefined-- 50.955
2.32 --undefined-- 52.470
2.33 --undefined-- 53.905
2.34 --undefined-- 56.059
2.35 --undefined-- 58.599
2.36 --undefined-- 60.924
2.37 --undefined-- 63.586
2.38 --undefined-- 65.673
2.39 104.781 66.906
2.40 104.249 67.768
2.41 102.615 68.469
2.42 100.775 69.024
2.43 99.188 69.412
2.44 98.039 69.678
2.45 97.673 69.767
2.46 96.729 69.728
2.47 96.134 69.564
2.48 96.199 69.207
2.49 96.727 68.599
2.50 97.628 67.650
2.51 95.834 66.086
2.52 101.702 63.450
2.53 96.418 59.675
2.54 96.895 55.448
2.55 --undefined-- 52.288
2.56 --undefined-- 52.273
2.57 --undefined-- 53.312
2.58 --undefined-- 53.619
2.59 --undefined-- 53.939
2.60 --undefined-- 54.756
2.61 --undefined-- 54.987
2.62 --undefined-- 57.209
2.63 --undefined-- 66.635
2.64 --undefined-- 73.857
2.65 147.961 77.292
2.66 140.854 77.617
2.67 126.803 76.243
2.68 122.726 75.001
2.69 121.431 73.765
2.70 121.774 72.419
2.71 124.773 71.917
2.72 124.601 72.029
2.73 123.032 72.116
2.74 122.680 72.112
2.75 122.494 72.050
2.76 122.166 72.014
2.77 121.289 72.042
2.78 120.690 71.942
2.79 119.452 71.626
2.80 118.085 71.292
2.81 117.149 71.154
2.82 117.139 71.183
2.83 118.264 71.276
2.84 119.263 71.349
2.85 119.449 71.367
2.86 120.182 71.640
2.87 122.433 72.739
2.88 123.952 74.442
2.89 121.535 75.600
2.90 120.815 75.889
2.91 119.902 75.804
2.92 119.582 75.495
2.93 115.045 75.251
2.94 111.980 75.405
2.95 109.394 74.861
2.96 103.732 73.234
2.97 99.733 71.794
2.98 96.507 70.795
2.99 90.380 69.427
3.00 89.637 67.312
3.01 92.567 64.569
3.02 93.366 61.344
3.03 --undefined-- 57.597
3.04 --undefined-- 53.352
3.05 --undefined-- 49.033
3.06 --undefined-- 46.251
3.07 --undefined-- 46.629
3.08 --undefined-- 48.159
3.09 --undefined-- 49.359
3.10 --undefined-- 50.158
3.11 --undefined-- 50.732
3.12 --undefined-- 50.901
3.13 --undefined-- 51.068
3.14 --undefined-- 51.552
3.15 --undefined-- 51.774
3.16 --undefined-- 51.560
3.17 --undefined-- 51.742
3.18 --undefined-- 52.016
3.19 --undefined-- 51.918
3.20 --undefined-- 51.450
3.21 --undefined-- 51.284
3.22 --undefined-- 51.807
3.23 --undefined-- 51.887
3.24 --undefined-- 50.944
3.25 --undefined-- 49.077
3.26 --undefined-- 45.302
3.27 --undefined-- 40.239
3.28 --undefined-- 38.277
3.29 --undefined-- 48.925
3.30 --undefined-- 60.532
3.31 193.937 67.663
3.32 194.428 71.556
3.33 201.255 73.344
3.34 206.697 74.052
3.35 211.981 74.316
3.36 216.887 74.409
3.37 218.354 74.302
3.38 212.959 73.557
3.39 203.329 71.842
3.40 188.765 69.683
3.41 186.112 68.967
3.42 194.395 71.192
3.43 211.138 75.543
3.44 222.708 78.438
3.45 220.156 78.549
3.46 197.425 76.672
3.47 189.738 75.451
3.48 185.811 76.001
3.49 183.128 76.808
3.50 178.463 77.370
3.51 173.734 77.763
3.52 168.713 78.187
3.53 167.811 78.331
3.54 166.686 77.402
3.55 164.028 76.087
3.56 161.807 75.484
3.57 161.457 75.122
3.58 159.935 74.285
3.59 156.707 73.272
3.60 155.833 73.384
3.61 155.824 74.581
3.62 155.892 75.810
3.63 155.068 76.473
3.64 153.500 76.568
3.65 152.346 76.560
3.66 154.345 76.817
3.67 155.218 76.874
3.68 154.815 76.265
3.69 154.306 74.601
3.70 150.852 71.401
3.71 151.372 67.245
3.72 154.478 63.314
3.73 157.057 60.692
3.74 --undefined-- 64.645
3.75 --undefined-- 71.250
3.76 147.367 75.230
3.77 144.020 76.778
3.78 138.215 76.752
3.79 133.720 75.937
3.80 130.952 75.198
3.81 130.622 75.129
3.82 129.951 75.068
3.83 128.732 74.272
3.84 127.815 72.741
3.85 126.086 70.789
3.86 122.692 68.455
3.87 122.268 65.730
3.88 126.889 62.676
3.89 127.326 59.296
3.90 129.426 56.137
3.91 125.328 53.344
3.92 --undefined-- 50.611
3.93 --undefined-- 48.561
3.94 --undefined-- 48.215
3.95 --undefined-- 49.003
3.96 --undefined-- 49.668
3.97 --undefined-- 50.700
3.98 --undefined-- 58.751
3.99 --undefined-- 67.422
4.00 162.164 72.498
4.01 154.216 74.577
4.02 150.207 74.752
4.03 147.566 74.225
4.04 148.068 73.749
4.05 148.155 73.187
4.06 148.017 72.644
4.07 147.056 72.572
4.08 147.626 72.306
4.09 130.641 71.312
4.10 118.720 70.410
4.11 --undefined-- 69.823
4.12 --undefined-- 68.463
4.13 --undefined-- 65.620
4.14 --undefined-- 60.926
4.15 --undefined-- 56.337
4.16 --undefined-- 54.692
4.17 --undefined-- 56.060
4.18 --undefined-- 58.179
4.19 114.753 60.153
4.20 119.520 61.727
4.21 119.764 62.851
4.22 116.809 63.899
4.23 114.345 65.649
4.24 111.453 67.620
4.25 110.725 69.357
4.26 112.932 71.030
4.27 112.860 72.663
4.28 114.467 74.083
4.29 116.606 75.150
4.30 118.052 75.630
4.31 118.067 75.190
4.32 117.086 73.798
4.33 115.274 72.134
4.34 120.261 71.435
4.35 125.369 71.615
4.36 130.827 72.234
4.37 134.908 73.125
4.38 138.701 73.985
4.39 147.988 75.006
4.40 154.334 76.174
4.41 155.932 76.877
4.42 160.446 77.049
4.43 165.106 77.081
4.44 168.721 76.874
4.45 171.256 76.322
4.46 173.277 75.915
4.47 173.688 76.301
4.48 172.478 77.155
4.49 170.769 77.873
4.50 163.744 78.316
4.51 159.535 78.271
4.52 153.033 77.719
4.53 149.487 77.361
4.54 147.305 77.737
4.55 144.049 78.103
4.56 139.796 77.522
4.57 132.545 76.189
4.58 124.853 75.496
4.59 123.919 75.498
4.60 116.771 75.045
4.61 112.447 74.474
4.62 112.734 74.469
4.63 113.558 74.720
4.64 114.972 74.929
4.65 114.082 74.597
4.66 112.020 73.123
4.67 107.007 70.510
4.68 106.596 67.076
4.69 105.778 63.993
4.70 --undefined-- 62.693
4.71 --undefined-- 61.775
4.72 --undefined-- 60.756
4.73 --undefined-- 60.442
4.74 --undefined-- 60.368
4.75 --undefined-- 60.156
4.76 --undefined-- 60.320
4.77 --undefined-- 61.295
4.78 --undefined-- 62.513
4.79 --undefined-- 63.058
4.80 --undefined-- 63.010
4.81 --undefined-- 62.630
4.82 --undefined-- 66.702
4.83 --undefined-- 73.514
4.84 205.299 77.223
4.85 202.230 78.291
4.86 199.319 78.118
4.87 197.891 78.156
4.88 196.020 78.469
4.89 193.708 78.617
4.90 191.356 78.490
4.91 189.726 77.934
4.92 191.772 77.050
4.93 196.073 76.466
4.94 192.151 76.465
4.95 187.282 76.433
4.96 179.168 75.798
4.97 170.064 74.610
4.98 160.111 73.733
4.99 156.056 73.464
5.00 149.279 73.634
5.01 146.519 74.913
5.02 144.576 76.834
5.03 142.014 78.376
5.04 138.417 79.026
5.05 135.445 78.847
5.06 134.435 78.472
5.07 133.707 --undefined--
5.08 132.810 --undefined--
5.09 --undefined-- --undefined--
5.10 --undefined-- --undefined--
