Time Pitch Intensity
0.01 --undefined-- --undefined--
0.02 119.193 --undefined--
0.03 121.959 --undefined--
0.04 125.220 --undefined--
0.05 127.080 66.654
0.06 134.695 66.868
0.07 138.776 67.345
0.08 142.264 67.783
0.09 142.923 67.909
0.10 142.412 67.706
0.11 154.204 67.436
0.12 157.471 67.110
0.13 158.351 66.494
0.14 158.346 65.632
0.15 156.982 64.737
0.16 154.370 63.930
0.17 152.553 63.237
0.18 153.211 61.868
0.19 145.753 58.675
0.20 --undefined-- 52.689
0.21 --undefined-- 44.701
0.22 --undefined-- 41.467
0.23 --undefined-- 41.725
0.24 --undefined-- 40.997
0.25 --undefined-- 41.478
0.26 --undefined-- 42.604
0.27 --undefined-- 47.094
0.28 --undefined-- 56.321
0.29 --undefined-- 62.463
0.30 123.390 65.770
0.31 124.308 66.980
0.32 122.474 66.763
0.33 112.481 65.464
0.34 113.090 63.722
0.35 126.927 63.735
0.36 134.304 65.393
0.37 136.202 66.558
0.38 137.210 66.916
0.39 139.392 66.757
0.40 141.703 66.462
0.41 143.227 66.256
0.42 145.474 66.196
0.43 147.461 66.220
0.44 146.318 66.245
0.45 144.668 66.442
0.46 143.090 66.723
0.47 139.934 66.538
0.48 131.422 65.718
0.49 125.198 65.122
0.50 120.866 65.243
0.51 118.193 65.480
0.52 115.727 65.681
0.53 114.092 66.006
0.54 113.443 66.242
0.55 113.108 65.897
0.56 112.080 64.577
0.57 104.823 62.178
0.58 101.461 59.400
0.59 99.869 57.709
0.60 101.035 58.500
0.61 108.688 61.115
0.62 104.235 63.078
0.63 100.009 63.836
0.64 95.473 63.717
0.65 93.982 63.507
0.66 93.759 63.483
0.67 95.639 63.492
0.68 99.042 63.736
0.69 104.236 64.139
0.70 107.444 64.128
0.71 111.657 63.694
0.72 117.685 63.531
0.73 125.482 64.214
0.74 132.174 65.560
0.75 136.012 66.696
0.76 138.150 67.036
0.77 138.188 67.029
0.78 136.977 67.377
0.79 136.021 67.603
0.80 134.033 67.220
0.81 127.744 66.331
0.82 --undefined-- 64.742
0.83 --undefined-- 62.349
0.84 --undefined-- 59.400
0.85 --undefined-- 54.706
0.86 --undefined-- 47.336
0.87 --undefined-- 41.125
0.88 --undefined-- 39.645
0.89 --undefined-- 42.092
0.90 --undefined-- 51.229
0.91 --undefined-- 57.974
0.92 91.818 62.291
0.93 100.181 64.827
0.94 102.238 66.191
0.95 107.164 67.148
0.96 107.722 67.716
0.97 107.993 67.630
0.98 108.519 67.273
0.99 109.406 67.044
1.00 110.582 66.742
1.01 111.191 66.121
1.02 110.877 65.437
1.03 106.500 64.926
1.04 105.475 64.266
1.05 102.805 63.566
1.06 99.107 63.202
1.07 95.371 62.946
1.08 91.353 62.758
1.09 86.685 62.618
1.10 84.315 62.361
1.11 82.542 62.267
1.12 82.344 62.297
1.13 81.198 62.014
1.14 80.693 61.141
1.15 --undefined-- 59.477
1.16 --undefined-- 56.740
1.17 --undefined-- 53.396
1.18 --undefined-- 50.278
1.19 --undefined-- 47.467
1.20 --undefined-- 45.363
1.21 --undefined-- 42.816
1.22 --undefined-- 38.341
1.23 --undefined-- 34.318
1.24 --undefined-- 34.440
1.25 --undefined-- 35.987
1.26 --undefined-- 37.165
1.27 --undefined-- 38.216
1.28 --undefined-- 38.364
1.29 --undefined-- 37.466
1.30 --undefined-- 36.515
1.31 --undefined-- 35.061
1.32 --undefined-- 35.245
1.33 --undefined-- 36.874
1.34 --undefined-- 37.261
1.35 --undefined-- 36.143
1.36 --undefined-- 33.658
1.37 --undefined-- 31.480
1.38 --undefined-- 34.999
1.39 --undefined-- 42.326
1.40 --undefined-- 49.287
1.41 --undefined-- 54.401
1.42 106.976 58.283
1.43 110.516 61.397
1.44 110.476 63.572
1.45 110.642 64.834
1.46 110.402 65.437
1.47 110.618 65.594
1.48 109.973 65.448
1.49 107.713 65.128
1.50 105.294 64.774
1.51 103.487 64.444
1.52 101.274 63.649
1.53 99.059 62.073
1.54 102.571 61.688
1.55 105.546 63.155
1.56 105.966 64.202
1.57 106.412 64.608
1.58 107.517 64.550
1.59 105.775 63.821
1.60 101.927 62.239
1.61 99.427 59.961
1.62 96.351 57.298
1.63 106.853 54.241
1.64 109.074 50.282
1.65 --undefined-- 45.912
1.66 --undefined-- 44.099
1.67 --undefined-- 45.486
1.68 --undefined-- 48.219
1.69 --undefined-- 50.669
1.70 --undefined-- 51.903
1.71 --undefined-- 52.375
1.72 --undefined-- 55.089
1.73 --undefined-- 60.105
1.74 --undefined-- 63.763
1.75 117.743 65.769
1.76 116.225 66.598
1.77 114.053 66.744
1.78 112.218 66.574
1.79 110.494 66.285
1.80 108.786 65.850
1.81 106.517 65.358
1.82 104.504 65.023
1.83 103.721 64.865
1.84 103.793 64.736
1.85 104.454 64.554
1.86 105.354 64.278
1.87 105.841 63.684
1.88 107.296 62.851
1.89 109.411 62.342
1.90 113.258 62.421
1.91 117.427 62.952
1.92 120.005 63.901
1.93 118.300 64.889
1.94 114.389 65.422
1.95 114.210 65.969
1.96 113.784 66.704
1.97 109.043 66.953
1.98 110.810 67.088
1.99 112.939 67.514
2.00 116.873 67.739
2.01 121.819 67.723
2.02 128.179 67.972
2.03 130.751 67.931
2.04 124.866 66.465
2.05 122.411 63.400
2.06 130.683 59.615
2.07 139.639 55.971
2.08 146.317 52.192
2.09 153.972 48.313
2.10 --undefined-- 45.133
2.11 --undefined-- 48.504
2.12 --undefined-- 57.689
2.13 --undefined-- 64.121
2.14 135.064 67.732
2.15 127.942 69.467
2.16 121.964 69.830
2.17 119.134 69.113
2.18 119.268 68.150
2.19 117.318 67.717
2.20 115.174 67.731
2.21 113.962 67.973
2.22 110.822 68.243
2.23 110.002 67.886
2.24 107.959 66.930
2.25 106.332 65.954
2.26 105.200 64.981
2.27 105.918 64.074
2.28 106.541 63.555
2.29 105.848 63.386
2.30 104.836 63.389
2.31 104.033 63.134
2.32 105.484 62.758
2.33 105.357 62.652
2.34 104.661 62.603
2.35 104.229 62.468
2.36 106.625 62.568
2.37 108.679 63.079
2.38 109.339 63.515
2.39 112.096 63.654
2.40 112.998 63.519
2.41 114.391 63.003
2.42 117.138 62.149
2.43 119.922 60.942
2.44 122.987 59.612
2.45 129.864 58.002
2.46 129.012 54.928
2.47 --undefined-- 49.344
2.48 --undefined-- 41.614
2.49 --undefined-- 36.450
2.50 --undefined-- 35.514
2.51 --undefined-- 35.044
2.52 --undefined-- 33.411
2.53 --undefined-- 33.839
2.54 --undefined-- 35.133
2.55 --undefined-- 35.713
2.56 --undefined-- 37.524
2.57 --undefined-- 45.855
2.58 --undefined-- 55.269
2.59 --undefined-- 61.568
2.60 101.001 65.349
2.61 97.973 67.347
2.62 94.598 68.013
2.63 94.888 67.947
2.64 98.526 67.908
2.65 102.229 68.203
2.66 106.076 68.615
2.67 106.654 68.821
2.68 112.203 68.517
2.69 113.457 67.473
2.70 114.170 65.317
2.71 110.255 61.926
2.72 113.689 57.356
2.73 --undefined-- 51.237
2.74 --undefined-- 43.699
2.75 --undefined-- 38.256
2.76 --undefined-- 36.242
2.77 --undefined-- 36.222
2.78 --undefined-- 38.932
2.79 --undefined-- 41.527
2.80 --undefined-- 43.105
2.81 --undefined-- 45.949
2.82 --undefined-- 54.217
2.83 --undefined-- 61.672
2.84 --undefined-- 66.285
2.85 123.598 68.559
2.86 120.406 69.260
2.87 109.973 69.242
2.88 107.642 68.976
2.89 105.860 68.472
2.90 102.264 67.947
2.91 101.093 67.761
2.92 100.134 67.722
2.93 99.172 67.542
2.94 99.104 67.345
2.95 96.370 67.050
2.96 92.498 66.267
2.97 88.918 65.078
2.98 88.546 63.665
2.99 88.563 61.687
3.00 97.216 59.096
3.01 103.109 55.968
3.02 103.033 51.258
3.03 --undefined-- 44.234
3.04 --undefined-- 39.674
3.05 --undefined-- 39.236
3.06 --undefined-- 38.730
3.07 --undefined-- 40.014
3.08 --undefined-- 40.991
3.09 --undefined-- 40.692
3.10 --undefined-- 40.941
3.11 --undefined-- 41.484
3.12 --undefined-- 41.526
3.13 --undefined-- 41.441
3.14 --undefined-- 41.348
3.15 --undefined-- 41.278
3.16 --undefined-- 41.482
3.17 --undefined-- 41.764
3.18 --undefined-- 41.734
3.19 --undefined-- 40.883
3.20 --undefined-- 39.203
3.21 --undefined-- 38.134
3.22 --undefined-- 38.264
3.23 --undefined-- 37.811
3.24 --undefined-- 36.062
3.25 --undefined-- 33.877
3.26 --undefined-- 33.422
3.27 --undefined-- 35.415
3.28 --undefined-- 37.385
3.29 --undefined-- 38.094
3.30 --undefined-- 37.039
3.31 --undefined-- 34.682
3.32 --undefined-- 41.659
3.33 --undefined-- 51.879
3.34 --undefined-- 58.245
3.35 133.554 62.180
3.36 146.108 64.779
3.37 144.500 66.568
3.38 143.528 67.876
3.39 145.758 68.649
3.40 148.732 68.794
3.41 150.670 68.406
3.42 148.514 67.955
3.43 145.536 67.603
3.44 140.230 67.055
3.45 137.449 66.293
3.46 133.349 65.428
3.47 128.079 64.767
3.48 124.217 64.339
3.49 117.869 63.936
3.50 113.876 63.420
3.51 90.592 62.526
3.52 90.702 60.918
3.53 --undefined-- 57.918
3.54 --undefined-- 55.082
3.55 --undefined-- 54.315
3.56 --undefined-- 52.636
3.57 --undefined-- 51.529
3.58 130.593 53.540
3.59 126.444 54.535
3.60 118.143 53.110
3.61 110.975 49.622
3.62 --undefined-- 45.363
3.63 --undefined-- 42.768
3.64 --undefined-- 41.262
3.65 --undefined-- 39.390
3.66 --undefined-- 37.429
3.67 --undefined-- 36.358
3.68 --undefined-- 37.873
3.69 --undefined-- 39.594
3.70 --undefined-- 40.186
3.71 --undefined-- 45.850
3.72 --undefined-- 54.407
3.73 --undefined-- 59.073
3.74 94.287 60.702
3.75 110.573 61.843
3.76 110.767 63.725
3.77 110.663 65.240
3.78 117.404 66.499
3.79 112.390 67.518
3.80 113.483 68.033
3.81 116.200 68.231
3.82 121.780 68.411
3.83 127.575 68.764
3.84 132.684 69.429
3.85 139.333 70.293
3.86 143.171 70.792
3.87 145.001 70.528
3.88 145.821 69.705
3.89 149.003 68.730
3.90 151.569 67.848
3.91 150.930 67.301
3.92 148.827 67.238
3.93 145.671 67.486
3.94 142.371 67.874
3.95 138.870 67.957
3.96 133.091 67.457
3.97 130.999 67.210
3.98 131.918 67.375
3.99 133.659 67.456
4.00 134.094 67.536
4.01 134.337 67.112
4.02 134.417 65.331
4.03 133.901 61.607
4.04 131.102 55.840
4.05 130.179 48.942
4.06 132.004 46.433
4.07 135.489 46.582
4.08 134.543 46.753
4.09 --undefined-- 47.501
4.10 --undefined-- 47.876
4.11 --undefined-- 47.348
4.12 --undefined-- 47.212
4.13 --undefined-- 51.212
4.14 144.955 57.670
4.15 118.617 61.772
4.16 117.905 63.520
4.17 93.186 63.676
4.18 82.736 62.825
4.19 82.948 61.508
4.20 90.934 60.629
4.21 91.473 60.420
4.22 92.538 60.098
4.23 92.236 58.853
4.24 93.207 56.217
4.25 98.244 52.431
4.26 --undefined-- 47.890
4.27 --undefined-- 43.139
4.28 --undefined-- 40.645
4.29 --undefined-- 41.998
4.30 --undefined-- 44.052
4.31 --undefined-- 45.975
4.32 --undefined-- 52.293
4.33 --undefined-- 58.464
4.34 --undefined-- 61.693
4.35 --undefined-- 62.436
4.36 --undefined-- 60.852
4.37 --undefined-- 56.987
4.38 --undefined-- 51.378
4.39 --undefined-- 45.350
4.40 --undefined-- 42.220
4.41 --undefined-- 40.993
4.42 --undefined-- 39.681
4.43 --undefined-- 37.428
4.44 --undefined-- 35.443
4.45 --undefined-- 39.355
4.46 --undefined-- 43.560
4.47 --undefined-- 49.973
4.48 --undefined-- 57.170
4.49 115.538 61.822
4.50 110.572 64.347
4.51 107.834 65.749
4.52 108.322 66.954
4.53 108.934 68.004
4.54 114.014 68.667
4.55 118.922 69.059
4.56 128.430 69.366
4.57 133.634 69.776
4.58 139.122 70.214
4.59 142.320 70.373
4.60 145.634 70.417
4.61 145.155 70.609
4.62 142.490 70.729
4.63 139.219 70.214
4.64 --undefined-- 68.872
4.65 --undefined-- 67.336
4.66 --undefined-- 65.922
4.67 --undefined-- 64.130
4.68 --undefined-- 61.194
4.69 --undefined-- 56.766
4.70 --undefined-- 52.693
4.71 --undefined-- 51.620
4.72 --undefined-- 49.201
4.73 --undefined-- 44.678
4.74 --undefined-- 40.423
4.75 --undefined-- 38.455
4.76 --undefined-- 36.754
4.77 --undefined-- 37.424
4.78 --undefined-- 39.008
4.79 --undefined-- 39.386
4.80 --undefined-- 39.307
4.81 --undefined-- 38.625
4.82 --undefined-- 37.130
4.83 --undefined-- 36.815
4.84 --undefined-- 37.917
4.85 --undefined-- 39.398
4.86 --undefined-- 39.999
4.87 --undefined-- 39.244
4.88 --undefined-- 38.194
4.89 --undefined-- 38.340
4.90 --undefined-- 39.096
4.91 --undefined-- 39.909
4.92 --undefined-- 40.696
4.93 --undefined-- 41.062
4.94 --undefined-- 41.249
4.95 --undefined-- 41.190
4.96 --undefined-- 40.613
4.97 --undefined-- 40.172
4.98 --undefined-- 39.865
4.99 --undefined-- 38.950
5.00 --undefined-- 37.343
5.01 --undefined-- 34.938
5.02 --undefined-- 33.084
5.03 --undefined-- 34.664
5.04 --undefined-- 37.285
5.05 --undefined-- 38.709
5.06 --undefined-- 38.149
5.07 --undefined-- 35.846
5.08 --undefined-- 33.455
5.09 --undefined-- 33.903
5.10 --undefined-- 35.900
5.11 --undefined-- 37.312
5.12 --undefined-- 42.979
5.13 --undefined-- 53.699
5.14 196.538 60.881
5.15 193.300 64.618
5.16 186.959 66.382
5.17 185.355 67.315
5.18 188.030 67.525
5.19 190.092 66.925
5.20 199.476 66.301
5.21 215.069 66.198
5.22 223.966 66.429
5.23 233.444 66.727
5.24 242.277 67.088
5.25 251.414 67.507
5.26 260.124 67.919
5.27 268.400 68.096
5.28 272.630 67.736
5.29 275.202 66.659
5.30 275.664 65.046
5.31 273.867 63.411
5.32 267.818 62.376
5.33 257.072 61.746
5.34 251.032 60.869
5.35 --undefined-- 59.222
5.36 --undefined-- 56.089
5.37 --undefined-- 50.206
5.38 --undefined-- 42.321
5.39 --undefined-- 38.187
5.40 --undefined-- 36.484
5.41 --undefined-- 36.088
5.42 --undefined-- 39.687
5.43 --undefined-- 48.016
5.44 --undefined-- 55.083
5.45 --undefined-- 60.280
5.46 --undefined-- 63.605
5.47 178.590 65.269
5.48 169.023 65.977
5.49 162.151 66.502
5.50 148.790 67.000
5.51 138.710 67.291
5.52 130.872 67.470
5.53 126.865 67.607
5.54 124.559 67.393
5.55 122.459 67.015
5.56 119.995 66.848
5.57 118.825 66.784
5.58 120.190 66.781
5.59 123.794 66.958
5.60 127.309 67.142
5.61 130.425 67.115
5.62 134.060 67.013
5.63 137.053 66.935
5.64 141.148 66.959
5.65 143.742 67.207
5.66 144.474 67.647
5.67 143.769 68.433
5.68 139.880 69.378
5.69 137.010 69.805
5.70 136.589 69.674
5.71 137.545 69.397
5.72 139.284 69.116
5.73 141.981 68.460
5.74 145.353 67.066
5.75 150.032 64.735
5.76 150.549 61.236
5.77 160.789 56.725
5.78 163.583 51.611
5.79 --undefined-- 45.673
5.80 --undefined-- 40.785
5.81 --undefined-- 39.241
5.82 --undefined-- 39.547
5.83 --undefined-- 39.591
5.84 --undefined-- 41.373
5.85 --undefined-- 52.723
5.86 268.232 61.461
5.87 235.879 66.492
5.88 232.306 68.900
5.89 231.314 69.873
5.90 226.684 69.932
5.91 222.262 68.904
5.92 222.636 66.709
5.93 --undefined-- 63.569
5.94 --undefined-- 59.944
5.95 --undefined-- 55.514
5.96 --undefined-- 49.633
5.97 --undefined-- 43.288
5.98 --undefined-- 40.153
5.99 --undefined-- 44.370
6.00 --undefined-- 51.554
6.01 --undefined-- 56.293
6.02 --undefined-- 59.138
6.03 193.565 60.806
6.04 209.561 62.119
6.05 211.056 63.458
6.06 209.076 64.417
6.07 205.600 65.017
6.08 202.126 65.548
6.09 197.702 66.197
6.10 193.685 67.287
6.11 185.003 68.477
6.12 177.465 68.493
6.13 86.731 66.634
6.14 87.494 63.584
6.15 88.252 60.786
6.16 84.524 58.266
6.17 102.007 56.640
6.18 112.787 58.771
6.19 117.614 61.271
6.20 128.906 62.452
6.21 136.116 63.420
6.22 147.884 65.191
6.23 150.549 67.149
6.24 149.837 68.526
6.25 150.659 69.205
6.26 150.084 69.580
6.27 149.413 69.978
6.28 149.808 70.271
6.29 151.431 70.195
6.30 154.310 69.673
6.31 158.549 68.864
6.32 164.534 68.175
6.33 170.913 68.089
6.34 176.453 68.565
6.35 182.272 69.254
6.36 189.096 69.937
6.37 194.550 70.649
6.38 196.884 71.367
6.39 198.561 72.006
6.40 198.759 72.196
6.41 196.865 --undefined--
6.42 195.383 --undefined--
6.43 --undefined-- --undefined--
6.44 --undefined-- --undefined--
