Time Pitch Intensity
0.01 --undefined-- --undefined--
0.02 103.026 --undefined--
0.03 102.314 --undefined--
0.04 103.122 --undefined--
0.05 103.997 75.142
0.06 104.513 75.767
0.07 105.572 76.318
0.08 111.920 76.502
0.09 114.051 76.478
0.10 117.477 76.568
0.11 121.589 76.979
0.12 126.488 77.439
0.13 131.497 77.387
0.14 135.606 76.887
0.15 135.787 76.538
0.16 135.189 76.392
0.17 133.831 76.175
0.18 131.472 75.780
0.19 128.015 75.317
0.20 126.387 74.407
0.21 124.150 72.787
0.22 123.222 70.662
0.23 126.294 67.628
0.24 --undefined-- 63.355
0.25 124.599 59.305
0.26 124.271 56.286
0.27 124.087 53.651
0.28 125.105 51.746
0.29 124.386 52.718
0.30 125.640 60.816
0.31 --undefined-- 69.200
0.32 199.974 73.933
0.33 190.509 75.371
0.34 188.663 75.104
0.35 190.035 74.931
0.36 190.933 75.027
0.37 191.343 75.073
0.38 193.158 75.255
0.39 193.319 75.447
0.40 192.730 75.381
0.41 192.039 74.931
0.42 190.774 74.048
0.43 190.899 73.261
0.44 194.131 73.299
0.45 194.396 73.741
0.46 194.303 74.077
0.47 194.529 74.303
0.48 194.135 74.501
0.49 193.407 74.670
0.50 192.902 74.775
0.51 193.171 74.774
0.52 193.678 74.605
0.53 193.072 74.077
0.54 190.087 72.752
0.55 185.147 70.059
0.56 177.995 65.417
0.57 168.885 58.850
0.58 --undefined-- 57.552
0.59 --undefined-- 66.440
0.60 --undefined-- 72.462
0.61 --undefined-- 75.060
0.62 145.781 75.269
0.63 133.348 74.904
0.64 126.068 75.381
0.65 122.465 75.924
0.66 120.687 75.813
0.67 119.748 75.300
0.68 120.293 74.918
0.69 118.043 74.935
0.70 117.030 75.209
0.71 116.492 75.427
0.72 116.812 75.370
0.73 118.343 74.701
0.74 119.348 73.360
0.75 119.552 72.019
0.76 117.403 70.654
0.77 112.922 68.550
0.78 112.520 66.437
0.79 111.819 65.138
0.80 113.199 63.632
0.81 114.236 61.495
0.82 114.496 62.420
0.83 135.106 67.782
0.84 130.255 71.958
0.85 120.793 74.264
0.86 121.253 75.540
0.87 124.158 76.253
0.88 127.183 76.368
0.89 132.862 76.067
0.90 143.178 75.870
0.91 155.267 76.085
0.92 167.629 76.272
0.93 176.740 75.890
0.94 183.653 74.839
0.95 189.900 73.782
0.96 192.140 73.401
0.97 190.040 73.652
0.98 184.464 74.447
0.99 173.139 75.278
1.00 164.147 75.429
1.01 152.773 74.319
1.02 133.575 72.173
1.03 125.682 70.534
1.04 120.003 70.321
1.05 115.837 70.494
1.06 111.536 70.534
1.07 108.739 70.838
1.08 106.577 71.226
1.09 106.335 71.016
1.10 104.936 69.763
1.11 103.134 67.609
1.12 105.031 65.898
1.13 111.961 67.392
1.14 114.329 70.414
1.15 116.108 72.634
1.16 118.704 74.039
1.17 122.007 75.063
1.18 124.334 75.796
1.19 125.628 76.199
1.20 127.747 76.346
1.21 131.034 76.212
1.22 135.464 75.827
1.23 139.560 75.414
1.24 141.301 74.575
1.25 141.749 72.305
1.26 141.004 67.730
1.27 151.669 60.895
1.28 141.319 54.363
1.29 138.353 52.347
1.30 137.646 52.193
1.31 136.687 50.997
1.32 --undefined-- 53.147
1.33 --undefined-- 62.652
1.34 --undefined-- 70.272
1.35 --undefined-- 74.349
1.36 179.606 75.730
1.37 176.965 75.961
1.38 173.739 76.080
1.39 171.842 75.976
1.40 170.298 75.505
1.41 170.531 74.720
1.42 171.751 73.840
1.43 172.653 73.294
1.44 173.905 73.563
1.45 174.942 74.539
1.46 176.080 75.573
1.47 176.763 76.166
1.48 176.927 76.291
1.49 176.464 76.190
1.50 175.330 75.985
1.51 172.666 75.639
1.52 168.848 74.845
1.53 164.101 72.746
1.54 157.475 68.871
1.55 163.809 64.827
1.56 165.112 61.762
1.57 167.096 58.742
1.58 167.150 58.063
1.59 --undefined-- 59.282
1.60 --undefined-- 64.792
1.61 --undefined-- 71.124
1.62 --undefined-- 74.439
1.63 128.043 75.460
1.64 124.219 75.445
1.65 114.405 75.154
1.66 113.181 75.245
1.67 114.399 75.694
1.68 116.409 76.068
1.69 118.504 76.277
1.70 121.824 76.223
1.71 124.556 76.037
1.72 128.992 75.918
1.73 136.951 75.848
1.74 139.806 75.886
1.75 140.489 75.235
1.76 140.836 72.909
1.77 136.230 68.468
1.78 145.587 62.854
1.79 158.260 59.301
1.80 178.149 56.965
1.81 139.457 54.835
1.82 138.061 54.337
1.83 --undefined-- 60.705
1.84 192.404 68.534
1.85 177.821 73.484
1.86 168.803 76.009
1.87 166.291 77.060
1.88 165.063 77.477
1.89 164.377 77.694
1.90 164.321 77.759
1.91 163.759 77.381
1.92 161.766 76.466
1.93 158.266 75.341
1.94 154.407 74.197
1.95 142.956 72.732
1.96 138.007 70.255
1.97 118.987 66.424
1.98 118.044 62.088
1.99 --undefined-- 58.561
2.00 --undefined-- 56.160
2.01 --undefined-- 54.376
2.02 --undefined-- 54.799
2.03 --undefined-- 62.260
2.04 --undefined-- 68.371
2.05 108.291 71.485
2.06 107.202 72.446
2.07 104.837 72.388
2.08 103.661 72.460
2.09 105.295 72.678
2.10 107.683 72.723
2.11 110.997 72.767
2.12 116.595 72.929
2.13 120.866 73.031
2.14 125.616 72.926
2.15 130.066 72.646
2.16 135.645 72.372
2.17 139.369 72.490
2.18 140.007 72.576
2.19 139.195 71.818
2.20 140.765 70.073
2.21 145.839 67.641
2.22 149.064 64.709
2.23 148.605 61.327
2.24 167.360 64.219
2.25 157.083 70.591
2.26 152.033 74.440
2.27 145.364 76.015
2.28 136.862 76.257
2.29 131.481 76.116
2.30 126.080 76.045
2.31 123.248 75.914
2.32 120.668 75.452
2.33 119.072 74.774
2.34 118.424 74.170
2.35 117.059 73.878
2.36 117.022 73.715
2.37 116.034 72.778
2.38 112.112 70.137
2.39 108.345 65.679
2.40 116.176 61.397
2.41 119.863 59.326
2.42 120.971 57.549
2.43 121.119 55.402
2.44 118.577 55.936
2.45 --undefined-- 62.216
2.46 --undefined-- 69.012
2.47 --undefined-- 72.890
2.48 126.032 74.141
2.49 114.801 74.011
2.50 104.027 73.516
2.51 94.691 72.803
2.52 99.546 71.929
2.53 103.539 71.309
2.54 102.120 71.019
2.55 102.757 69.569
2.56 --undefined-- 65.564
2.57 --undefined-- 58.484
2.58 --undefined-- 51.677
2.59 --undefined-- 50.285
2.60 --undefined-- 52.004
2.61 --undefined-- 55.512
2.62 --undefined-- 56.162
2.63 --undefined-- 52.805
2.64 --undefined-- 45.965
2.65 --undefined-- 46.968
2.66 --undefined-- 54.804
2.67 --undefined-- 61.316
2.68 --undefined-- 68.325
2.69 148.067 73.065
2.70 145.558 74.937
2.71 142.808 75.009
2.72 141.496 74.209
2.73 139.934 72.131
2.74 126.156 68.118
2.75 126.651 62.424
2.76 143.424 56.357
2.77 142.187 52.323
2.78 --undefined-- 50.539
2.79 --undefined-- 53.538
2.80 --undefined-- 61.783
2.81 --undefined-- 68.882
2.82 --undefined-- 73.006
2.83 124.696 74.817
2.84 121.484 75.259
2.85 117.955 74.421
2.86 111.283 72.022
2.87 105.946 68.511
2.88 112.481 64.756
2.89 119.232 61.109
2.90 119.248 58.145
2.91 120.646 56.196
2.92 125.158 55.622
2.93 124.633 55.601
2.94 116.562 54.949
2.95 118.002 53.720
2.96 --undefined-- 53.180
2.97 --undefined-- 53.351
2.98 --undefined-- 54.811
2.99 --undefined-- 61.540
3.00 --undefined-- 67.374
3.01 114.060 70.675
3.02 113.580 72.420
3.03 112.064 73.411
3.04 110.547 73.999
3.05 110.343 74.395
3.06 110.844 74.618
3.07 111.501 74.591
3.08 111.250 74.020
3.09 109.904 72.285
3.10 101.562 68.829
3.11 102.252 63.384
3.12 120.239 56.486
3.13 114.499 51.478
3.14 --undefined-- 48.491
3.15 --undefined-- 51.896
3.16 --undefined-- 58.998
3.17 --undefined-- 63.850
3.18 --undefined-- 67.660
3.19 102.061 70.618
3.20 98.202 72.145
3.21 101.896 72.752
3.22 103.300 73.163
3.23 106.647 73.818
3.24 107.887 74.733
3.25 109.100 75.584
3.26 113.802 76.046
3.27 125.684 76.131
3.28 134.085 76.166
3.29 141.349 76.222
3.30 148.384 75.997
3.31 154.853 75.056
3.32 157.858 73.429
3.33 162.061 71.807
3.34 154.455 69.820
3.35 --undefined-- 66.256
3.36 --undefined-- 60.863
3.37 155.340 55.575
3.38 152.609 54.129
3.39 153.557 53.267
3.40 --undefined-- 51.099
3.41 --undefined-- 49.122
3.42 --undefined-- 47.040
3.43 --undefined-- 44.183
3.44 --undefined-- 43.374
3.45 --undefined-- 45.281
3.46 --undefined-- 46.624
3.47 --undefined-- 47.311
3.48 --undefined-- 47.753
3.49 --undefined-- 47.992
3.50 --undefined-- 48.485
3.51 --undefined-- 49.170
3.52 --undefined-- 49.694
3.53 --undefined-- 49.529
3.54 --undefined-- 48.948
3.55 --undefined-- 48.809
3.56 --undefined-- 49.777
3.57 --undefined-- 50.567
3.58 --undefined-- 50.273
3.59 --undefined-- 49.143
3.60 --undefined-- 48.124
3.61 --undefined-- 47.837
3.62 --undefined-- 48.295
3.63 --undefined-- 48.842
3.64 --undefined-- 48.402
3.65 --undefined-- 47.199
3.66 --undefined-- 46.701
3.67 --undefined-- 46.694
3.68 --undefined-- 46.353
3.69 --undefined-- 46.298
3.70 --undefined-- 46.194
3.71 --undefined-- 44.892
3.72 --undefined-- 43.513
3.73 --undefined-- 44.192
3.74 --undefined-- 45.511
3.75 --undefined-- 53.884
3.76 --undefined-- 63.326
3.77 --undefined-- 69.040
3.78 147.066 72.198
3.79 151.569 74.024
3.80 151.060 75.048
3.81 150.127 75.442
3.82 146.476 75.493
3.83 142.633 75.652
3.84 139.973 75.965
3.85 137.335 76.131
3.86 134.473 76.271
3.87 129.089 76.415
3.88 122.084 76.425
3.89 119.529 76.225
3.90 116.964 75.434
3.91 115.967 74.117
3.92 118.475 73.347
3.93 120.685 73.938
3.94 122.184 75.504
3.95 123.560 76.846
3.96 123.004 77.020
3.97 120.417 76.413
3.98 119.321 76.175
3.99 119.976 76.362
4.00 120.178 76.558
4.01 119.825 76.723
4.02 119.890 76.691
4.03 119.160 76.477
4.04 119.181 76.416
4.05 119.888 76.305
4.06 119.553 75.871
4.07 120.578 75.792
4.08 123.854 76.492
4.09 124.872 76.946
4.10 128.055 76.566
4.11 131.837 76.064
4.12 133.150 76.211
4.13 136.564 76.541
4.14 139.672 76.684
4.15 142.861 76.447
4.16 144.034 75.988
4.17 144.788 75.728
4.18 144.960 75.515
4.19 144.051 75.202
4.20 142.862 74.979
4.21 140.757 74.886
4.22 139.901 74.796
4.23 139.440 74.509
4.24 139.516 73.612
4.25 139.495 72.040
4.26 138.196 70.562
4.27 138.340 70.604
4.28 145.858 72.688
4.29 153.393 74.968
4.30 158.538 76.208
4.31 161.912 76.679
4.32 163.947 76.901
4.33 164.387 76.979
4.34 163.663 76.460
4.35 162.409 74.669
4.36 163.090 72.278
4.37 163.257 72.251
4.38 165.662 73.904
4.39 165.800 74.935
4.40 165.231 75.138
4.41 164.257 75.038
4.42 162.791 74.892
4.43 160.495 74.788
4.44 158.516 74.709
4.45 156.434 74.620
4.46 155.222 74.587
4.47 155.370 74.911
4.48 151.108 75.711
4.49 148.490 76.280
4.50 144.511 76.227
4.51 140.990 76.032
4.52 138.516 76.030
4.53 136.307 75.907
4.54 133.776 75.795
4.55 130.888 76.073
4.56 128.199 76.460
4.57 123.572 76.565
4.58 120.464 76.109
4.59 119.604 74.936
4.60 120.309 73.739
4.61 122.396 73.317
4.62 124.319 72.606
4.63 122.796 70.888
4.64 113.828 68.492
4.65 116.806 66.392
4.66 114.395 64.069
4.67 --undefined-- 61.579
4.68 --undefined-- 60.652
4.69 --undefined-- 61.292
4.70 --undefined-- 63.119
4.71 --undefined-- 66.443
4.72 --undefined-- 69.819
4.73 --undefined-- 72.355
4.74 --undefined-- 74.374
4.75 127.899 75.777
4.76 129.398 75.943
4.77 140.205 75.637
4.78 144.358 76.195
4.79 144.393 76.730
4.80 143.477 76.679
4.81 141.771 76.293
4.82 139.731 75.711
4.83 139.191 75.045
4.84 139.807 74.490
4.85 139.866 74.172
4.86 141.247 74.350
4.87 143.989 74.934
4.88 145.904 75.192
4.89 146.961 74.240
4.90 144.685 71.500
4.91 143.662 67.026
4.92 147.911 61.252
4.93 147.114 54.754
4.94 146.696 52.945
4.95 --undefined-- 55.531
4.96 --undefined-- 59.892
4.97 --undefined-- 67.302
4.98 192.433 72.984
4.99 183.465 75.383
5.00 178.633 75.541
5.01 173.871 75.370
5.02 170.196 75.947
5.03 169.219 76.547
5.04 168.697 76.552
5.05 167.486 76.239
5.06 166.849 --undefined--
5.07 165.973 --undefined--
5.08 --undefined-- --undefined--
5.09 --undefined-- --undefined--
