Time Pitch Intensity
0.01 --undefined-- --undefined--
0.02 160.375 --undefined--
0.03 165.873 --undefined--
0.04 175.174 --undefined--
0.05 180.744 72.905
0.06 183.463 73.788
0.07 184.597 74.241
0.08 183.074 74.017
0.09 180.260 72.839
0.10 176.264 70.442
0.11 163.037 66.955
0.12 157.636 63.008
0.13 --undefined-- 58.217
0.14 178.497 53.875
0.15 172.893 51.837
0.16 --undefined-- 48.917
0.17 --undefined-- 46.634
0.18 --undefined-- 47.058
0.19 --undefined-- 48.243
0.20 --undefined-- 49.014
0.21 --undefined-- 48.168
0.22 --undefined-- 46.449
0.23 --undefined-- 47.036
0.24 --undefined-- 50.093
0.25 --undefined-- 51.950
0.26 --undefined-- 56.377
0.27 280.790 62.854
0.28 247.524 67.520
0.29 231.217 70.537
0.30 212.761 72.703
0.31 200.710 74.218
0.32 193.706 74.986
0.33 189.625 75.174
0.34 186.965 75.055
0.35 184.802 74.644
0.36 183.985 73.494
0.37 184.116 71.893
0.38 184.211 71.121
0.39 184.376 71.138
0.40 184.408 71.135
0.41 183.609 70.907
0.42 182.448 70.121
0.43 180.917 67.943
0.44 179.356 63.773
0.45 182.532 58.380
0.46 183.943 54.787
0.47 185.741 54.335
0.48 184.876 54.047
0.49 --undefined-- 51.997
0.50 --undefined-- 49.535
0.51 --undefined-- 49.272
0.52 --undefined-- 51.485
0.53 --undefined-- 54.279
0.54 --undefined-- 58.477
0.55 203.963 63.649
0.56 197.207 67.959
0.57 194.199 70.705
0.58 195.433 71.862
0.59 196.429 71.862
0.60 197.100 71.580
0.61 196.878 71.790
0.62 196.506 72.654
0.63 195.343 73.981
0.64 194.943 75.156
0.65 194.462 75.723
0.66 194.364 75.680
0.67 194.958 75.099
0.68 196.511 74.030
0.69 199.886 72.622
0.70 201.803 70.843
0.71 200.655 67.851
0.72 195.562 62.977
0.73 196.644 56.884
0.74 --undefined-- 51.937
0.75 --undefined-- 51.072
0.76 --undefined-- 51.736
0.77 --undefined-- 52.765
0.78 --undefined-- 54.614
0.79 214.377 57.576
0.80 212.416 60.210
0.81 206.455 61.515
0.82 182.799 62.377
0.83 172.819 63.491
0.84 160.387 64.206
0.85 157.973 64.647
0.86 157.396 65.289
0.87 156.917 65.805
0.88 155.746 65.976
0.89 156.370 66.063
0.90 158.383 66.282
0.91 161.195 66.526
0.92 164.054 66.580
0.93 168.388 66.618
0.94 170.869 66.750
0.95 174.703 66.743
0.96 177.772 66.747
0.97 181.708 67.162
0.98 183.932 67.704
0.99 186.720 67.967
1.00 188.276 67.937
1.01 188.734 67.690
1.02 187.801 67.333
1.03 186.064 67.014
1.04 182.977 66.880
1.05 180.030 66.899
1.06 177.306 66.715
1.07 173.897 66.148
1.08 169.009 65.552
1.09 163.686 65.381
1.10 156.395 65.597
1.11 155.157 66.256
1.12 154.156 67.087
1.13 154.180 67.438
1.14 155.222 67.082
1.15 156.357 66.395
1.16 157.250 65.935
1.17 156.864 65.875
1.18 156.841 66.016
1.19 157.929 66.316
1.20 159.776 66.633
1.21 160.315 66.707
1.22 160.701 66.812
1.23 160.906 67.079
1.24 161.323 67.129
1.25 161.432 66.677
1.26 160.518 66.203
1.27 161.578 67.448
1.28 160.864 69.367
1.29 159.441 70.290
1.30 159.108 70.598
1.31 158.064 70.679
1.32 157.446 70.536
1.33 157.313 70.354
1.34 157.136 70.230
1.35 157.320 70.101
1.36 158.734 70.015
1.37 159.479 69.912
1.38 160.592 70.017
1.39 162.746 70.603
1.40 164.669 71.017
1.41 166.962 70.912
1.42 172.939 70.807
1.43 175.681 70.503
1.44 181.908 70.228
1.45 187.086 70.433
1.46 188.165 70.687
1.47 189.103 71.006
1.48 188.945 71.280
1.49 189.356 71.277
1.50 190.074 71.033
1.51 191.054 70.771
1.52 191.051 70.787
1.53 189.646 71.372
1.54 189.263 72.663
1.55 189.326 73.885
1.56 186.523 74.366
1.57 182.879 74.483
1.58 178.876 74.636
1.59 173.305 74.780
1.60 169.235 74.822
1.61 163.706 74.352
1.62 156.309 73.331
1.63 151.574 72.022
1.64 145.157 69.915
1.65 142.322 66.501
1.66 142.047 61.983
1.67 --undefined-- 57.714
1.68 --undefined-- 54.629
1.69 --undefined-- 54.024
1.70 --undefined-- 53.741
1.71 --undefined-- 51.147
1.72 --undefined-- 48.504
1.73 --undefined-- 50.655
1.74 --undefined-- 53.251
1.75 --undefined-- 53.454
1.76 --undefined-- 51.217
1.77 --undefined-- 48.545
1.78 --undefined-- 46.773
1.79 --undefined-- 46.283
1.80 --undefined-- 47.939
1.81 --undefined-- 48.711
1.82 --undefined-- 47.039
1.83 --undefined-- 46.924
1.84 --undefined-- 48.408
1.85 --undefined-- 49.771
1.86 --undefined-- 51.720
1.87 --undefined-- 51.784
1.88 --undefined-- 50.211
1.89 --undefined-- 49.990
1.90 --undefined-- 52.295
1.91 --undefined-- 54.315
1.92 --undefined-- 54.651
1.93 --undefined-- 53.294
1.94 --undefined-- 50.264
1.95 --undefined-- 47.793
1.96 --undefined-- 46.992
1.97 --undefined-- 45.933
1.98 --undefined-- 45.780
1.99 --undefined-- 45.343
2.00 --undefined-- 44.291
2.01 --undefined-- 45.379
2.02 --undefined-- 47.318
2.03 --undefined-- 48.293
2.04 --undefined-- 48.297
2.05 --undefined-- 48.607
2.06 --undefined-- 50.897
2.07 --undefined-- 54.658
2.08 217.916 57.666
2.09 210.976 59.514
2.10 204.160 61.155
2.11 201.712 63.279
2.12 202.431 66.114
2.13 204.011 68.694
2.14 203.374 70.237
2.15 204.089 71.602
2.16 204.805 73.664
2.17 204.295 75.443
2.18 204.214 76.323
2.19 204.966 76.670
2.20 206.234 76.712
2.21 206.364 76.210
2.22 207.069 75.200
2.23 208.440 74.049
2.24 209.466 72.963
2.25 211.199 72.097
2.26 212.840 71.640
2.27 213.848 71.212
2.28 214.953 70.563
2.29 215.877 70.058
2.30 216.167 69.907
2.31 215.544 69.840
2.32 214.784 69.312
2.33 212.969 67.922
2.34 204.703 65.822
2.35 195.919 63.517
2.36 192.380 62.036
2.37 192.921 61.954
2.38 193.154 62.310
2.39 198.676 63.163
2.40 207.519 64.690
2.41 218.246 66.683
2.42 220.867 68.758
2.43 222.083 70.711
2.44 222.787 72.114
2.45 222.731 72.278
2.46 221.943 71.128
2.47 221.734 69.517
2.48 222.493 68.423
2.49 224.669 67.830
2.50 227.825 67.478
2.51 229.291 67.326
2.52 228.714 67.218
2.53 229.843 67.177
2.54 233.106 67.315
2.55 234.430 67.231
2.56 236.688 66.329
2.57 232.969 64.527
2.58 224.639 62.232
2.59 223.088 60.653
2.60 236.896 61.442
2.61 254.626 63.769
2.62 271.769 65.885
2.63 283.809 67.302
2.64 288.095 68.278
2.65 292.446 68.731
2.66 299.731 68.680
2.67 152.018 68.694
2.68 154.653 68.882
2.69 157.555 68.673
2.70 160.521 68.108
2.71 163.476 68.450
2.72 164.083 69.358
2.73 163.614 69.987
2.74 161.650 70.311
2.75 159.084 70.090
2.76 155.435 69.171
2.77 153.119 68.259
2.78 --undefined-- 68.148
2.79 286.743 68.376
2.80 269.763 68.506
2.81 250.823 68.429
2.82 234.468 68.090
2.83 220.889 67.534
2.84 213.444 67.070
2.85 205.689 66.991
2.86 203.443 67.056
2.87 198.094 67.009
2.88 193.787 66.646
2.89 187.776 66.001
2.90 183.214 65.306
2.91 181.004 65.478
2.92 182.929 66.683
2.93 183.406 67.342
2.94 172.947 67.034
2.95 166.349 66.695
2.96 166.415 66.631
2.97 164.119 66.102
2.98 160.264 65.160
2.99 161.271 64.427
3.00 161.511 63.704
3.01 160.645 62.505
3.02 160.137 61.421
3.03 161.322 61.384
3.04 160.578 62.062
3.05 160.842 62.518
3.06 161.298 62.475
3.07 162.544 62.355
3.08 165.020 62.298
3.09 168.200 62.173
3.10 170.813 62.010
3.11 171.787 61.525
3.12 172.590 60.241
3.13 172.336 58.205
3.14 --undefined-- 56.334
3.15 --undefined-- 54.588
3.16 --undefined-- 51.432
3.17 --undefined-- 47.285
3.18 --undefined-- 46.304
3.19 --undefined-- 48.499
3.20 --undefined-- 49.951
3.21 --undefined-- 53.355
3.22 203.850 59.612
3.23 198.929 64.102
3.24 180.505 67.014
3.25 171.098 68.890
3.26 168.097 70.045
3.27 168.419 70.883
3.28 170.714 71.593
3.29 174.668 72.028
3.30 178.640 72.183
3.31 183.924 71.973
3.32 199.862 71.181
3.33 207.215 70.020
3.34 219.561 68.983
3.35 232.928 68.336
3.36 240.777 67.460
3.37 244.980 66.360
3.38 250.523 65.844
3.39 249.861 65.216
3.40 244.797 63.902
3.41 247.316 62.558
3.42 --undefined-- 61.233
3.43 --undefined-- 59.994
3.44 --undefined-- 59.632
3.45 169.114 59.930
3.46 171.277 60.370
3.47 170.709 61.037
3.48 169.423 61.422
3.49 170.349 61.260
3.50 166.663 60.786
3.51 164.259 60.275
3.52 162.443 59.683
3.53 161.996 59.266
3.54 161.988 59.428
3.55 165.257 59.487
3.56 170.066 59.304
3.57 173.158 59.823
3.58 175.898 61.070
3.59 177.549 62.250
3.60 179.144 62.729
3.61 180.037 61.808
3.62 180.804 58.852
3.63 --undefined-- 54.152
3.64 --undefined-- 50.436
3.65 --undefined-- 50.288
3.66 --undefined-- 52.916
3.67 --undefined-- 57.989
3.68 218.217 63.337
3.69 213.701 67.352
3.70 207.344 70.433
3.71 204.131 72.833
3.72 202.582 74.335
3.73 201.816 74.860
3.74 201.830 74.707
3.75 203.021 74.489
3.76 203.482 74.490
3.77 204.263 74.223
3.78 205.732 73.470
3.79 206.778 72.635
3.80 208.539 72.016
3.81 209.766 71.765
3.82 208.970 71.543
3.83 209.221 70.748
3.84 210.209 70.017
3.85 209.907 70.210
3.86 208.097 70.733
3.87 204.932 70.495
3.88 199.925 69.197
3.89 192.186 67.612
3.90 191.728 65.304
3.91 195.413 60.965
3.92 201.312 55.700
3.93 206.433 53.333
3.94 204.247 53.402
3.95 200.598 54.631
3.96 201.841 56.022
3.97 206.165 58.251
3.98 193.045 61.166
3.99 193.427 64.270
4.00 193.045 67.877
4.01 197.862 70.563
4.02 198.878 71.414
4.03 197.304 70.814
4.04 201.125 69.929
4.05 209.225 69.513
4.06 218.695 70.029
4.07 231.486 70.619
4.08 243.145 70.237
4.09 253.516 68.936
4.10 263.535 67.659
4.11 268.384 66.917
4.12 270.581 66.410
4.13 269.818 66.433
4.14 267.009 67.480
4.15 262.004 68.519
4.16 249.157 68.674
4.17 233.388 68.693
4.18 219.864 68.769
4.19 205.447 68.516
4.20 185.452 68.265
4.21 177.542 67.919
4.22 173.034 67.033
4.23 170.429 65.536
4.24 167.783 64.059
4.25 168.449 63.369
4.26 166.373 63.319
4.27 167.193 63.524
4.28 169.205 63.689
4.29 168.929 63.689
4.30 169.985 63.594
4.31 172.197 63.508
4.32 173.637 63.325
4.33 175.882 63.116
4.34 178.515 62.905
4.35 179.773 61.852
4.36 181.125 59.335
4.37 --undefined-- 56.911
4.38 --undefined-- 55.450
4.39 --undefined-- 53.685
4.40 --undefined-- 52.478
4.41 --undefined-- 52.570
4.42 --undefined-- 57.463
4.43 202.940 62.289
4.44 186.451 65.137
4.45 180.304 66.485
4.46 176.545 66.642
4.47 177.292 66.135
4.48 179.145 65.901
4.49 187.047 66.330
4.50 192.527 66.661
4.51 199.007 66.059
4.52 211.720 65.067
4.53 223.608 65.381
4.54 233.588 66.229
4.55 244.097 66.487
4.56 254.455 66.503
4.57 262.065 66.718
4.58 267.927 66.888
4.59 272.224 66.876
4.60 274.108 66.864
4.61 275.489 66.894
4.62 268.164 66.821
4.63 257.406 66.973
4.64 248.799 67.383
4.65 237.241 67.693
4.66 227.642 67.753
4.67 221.188 67.536
4.68 217.155 67.414
4.69 214.042 67.648
4.70 210.676 67.819
4.71 209.491 67.634
4.72 208.831 67.421
4.73 209.187 67.304
4.74 211.056 67.244
4.75 212.066 67.201
4.76 213.179 66.735
4.77 212.910 65.383
4.78 210.170 63.084
4.79 199.039 60.044
4.80 197.690 57.096
4.81 --undefined-- 55.549
4.82 --undefined-- 53.580
4.83 --undefined-- 51.902
4.84 --undefined-- 54.310
4.85 --undefined-- 55.417
4.86 --undefined-- 53.319
4.87 --undefined-- 50.738
4.88 --undefined-- 51.040
4.89 --undefined-- 55.768
4.90 217.868 61.347
4.91 207.373 64.729
4.92 199.748 66.397
4.93 195.148 67.398
4.94 193.514 68.287
4.95 192.940 68.933
4.96 192.448 69.103
4.97 191.948 68.893
4.98 192.016 68.646
4.99 192.868 --undefined--
5.00 193.572 --undefined--
5.01 --undefined-- --undefined--
5.02 --undefined-- --undefined--
