Time Pitch Intensity
0.01 --undefined-- --undefined--
0.02 135.331 --undefined--
0.03 133.961 --undefined--
0.04 131.510 --undefined--
0.05 130.026 67.993
0.06 129.264 68.221
0.07 128.576 68.319
0.08 127.629 68.131
0.09 126.168 67.661
0.10 123.553 67.147
0.11 121.943 67.114
0.12 119.966 67.548
0.13 117.847 67.794
0.14 114.701 67.541
0.15 111.386 66.887
0.16 108.457 65.834
0.17 106.350 64.318
0.18 103.775 62.208
0.19 97.823 59.268
0.20 92.336 55.781
0.21 --undefined-- 52.139
0.22 --undefined-- 47.620
0.23 --undefined-- 43.251
0.24 --undefined-- 40.814
0.25 --undefined-- 39.637
0.26 --undefined-- 39.505
0.27 --undefined-- 41.353
0.28 --undefined-- 45.174
0.29 --undefined-- 53.697
0.30 --undefined-- 61.495
0.31 --undefined-- 65.986
0.32 --undefined-- 67.585
0.33 --undefined-- 66.862
0.34 --undefined-- 64.594
0.35 --undefined-- 61.208
0.36 --undefined-- 57.410
0.37 --undefined-- 56.200
0.38 --undefined-- 58.765
0.39 83.515 61.011
0.40 83.361 61.950
0.41 80.899 62.787
0.42 --undefined-- 63.925
0.43 95.753 64.169
0.44 106.337 63.246
0.45 106.322 61.778
0.46 99.936 59.709
0.47 97.737 56.743
0.48 95.162 53.265
0.49 --undefined-- 49.488
0.50 --undefined-- 45.334
0.51 --undefined-- 41.926
0.52 --undefined-- 40.295
0.53 --undefined-- 46.191
0.54 --undefined-- 54.983
0.55 --undefined-- 60.401
0.56 --undefined-- 63.345
0.57 114.005 64.826
0.58 105.752 65.504
0.59 101.296 65.873
0.60 99.021 65.912
0.61 97.788 65.728
0.62 97.600 65.549
0.63 98.360 65.380
0.64 100.171 65.325
0.65 102.187 65.410
0.66 103.148 65.166
0.67 103.277 64.224
0.68 102.919 62.380
0.69 102.996 59.173
0.70 101.768 54.568
0.71 100.957 50.027
0.72 --undefined-- 46.767
0.73 --undefined-- 44.513
0.74 --undefined-- 42.928
0.75 --undefined-- 43.892
0.76 --undefined-- 53.192
0.77 --undefined-- 61.184
0.78 --undefined-- 65.793
0.79 --undefined-- 67.741
0.80 --undefined-- 67.766
0.81 --undefined-- 66.511
0.82 --undefined-- 64.732
0.83 --undefined-- 63.269
0.84 86.882 62.490
0.85 87.201 62.444
0.86 87.552 62.827
0.87 87.811 63.310
0.88 90.636 63.416
0.89 92.031 63.109
0.90 92.294 62.869
0.91 93.626 62.703
0.92 96.126 62.271
0.93 96.988 61.700
0.94 97.065 61.479
0.95 97.655 61.873
0.96 97.601 62.301
0.97 97.784 62.318
0.98 97.531 61.986
0.99 97.102 61.527
1.00 96.855 61.210
1.01 97.871 61.193
1.02 98.376 61.484
1.03 100.320 61.811
1.04 100.459 61.763
1.05 97.712 61.511
1.06 98.188 61.535
1.07 95.665 61.690
1.08 95.012 61.871
1.09 94.501 61.980
1.10 94.417 61.760
1.11 95.060 61.386
1.12 97.537 61.228
1.13 99.689 61.269
1.14 100.626 61.528
1.15 101.128 62.282
1.16 100.331 63.206
1.17 99.299 63.623
1.18 97.787 63.624
1.19 95.925 63.539
1.20 93.954 63.305
1.21 93.377 62.729
1.22 92.753 61.943
1.23 91.142 61.253
1.24 96.910 60.939
1.25 94.500 61.077
1.26 93.591 60.816
1.27 98.495 60.033
1.28 100.328 60.062
1.29 100.909 61.030
1.30 99.524 61.960
1.31 97.542 62.821
1.32 95.357 63.547
1.33 94.532 63.932
1.34 93.339 64.233
1.35 93.458 64.692
1.36 95.024 65.384
1.37 96.244 65.910
1.38 97.077 66.048
1.39 97.526 66.022
1.40 98.142 65.918
1.41 98.583 65.617
1.42 98.718 64.999
1.43 93.659 63.806
1.44 --undefined-- 61.032
1.45 --undefined-- 55.716
1.46 --undefined-- 49.663
1.47 --undefined-- 45.084
1.48 --undefined-- 40.877
1.49 --undefined-- 38.473
1.50 --undefined-- 37.153
1.51 --undefined-- 35.647
1.52 --undefined-- 34.081
1.53 --undefined-- 32.900
1.54 --undefined-- 33.060
1.55 --undefined-- 33.219
1.56 --undefined-- 33.095
1.57 --undefined-- 33.056
1.58 --undefined-- 33.447
1.59 --undefined-- 33.566
1.60 --undefined-- 33.343
1.61 --undefined-- 33.831
1.62 --undefined-- 35.045
1.63 --undefined-- 35.484
1.64 --undefined-- 35.415
1.65 --undefined-- 35.323
1.66 --undefined-- 35.721
1.67 --undefined-- 41.173
1.68 --undefined-- 50.607
1.69 --undefined-- 56.282
1.70 87.923 58.937
1.71 95.717 60.066
1.72 103.036 60.872
1.73 108.501 61.841
1.74 112.289 62.947
1.75 124.026 64.092
1.76 127.650 64.912
1.77 129.525 65.404
1.78 130.537 65.714
1.79 127.584 65.703
1.80 119.732 65.032
1.81 --undefined-- 63.232
1.82 --undefined-- 59.779
1.83 --undefined-- 55.119
1.84 --undefined-- 51.377
1.85 --undefined-- 47.279
1.86 --undefined-- 42.754
1.87 --undefined-- 41.396
1.88 --undefined-- 40.396
1.89 --undefined-- 37.819
1.90 --undefined-- 35.850
1.91 --undefined-- 37.668
1.92 --undefined-- 39.300
1.93 --undefined-- 39.347
1.94 --undefined-- 39.752
1.95 --undefined-- 40.233
1.96 --undefined-- 40.630
1.97 --undefined-- 42.143
1.98 --undefined-- 42.931
1.99 --undefined-- 43.183
2.00 --undefined-- 44.398
2.01 --undefined-- 45.580
2.02 --undefined-- 46.054
2.03 --undefined-- 46.072
2.04 --undefined-- 45.988
2.05 --undefined-- 46.207
2.06 --undefined-- 46.361
2.07 --undefined-- 46.566
2.08 --undefined-- 46.921
2.09 --undefined-- 47.154
2.10 --undefined-- 47.175
2.11 --undefined-- 46.745
2.12 --undefined-- 45.776
2.13 --undefined-- 44.341
2.14 --undefined-- 42.814
2.15 --undefined-- 42.139
2.16 --undefined-- 41.860
2.17 --undefined-- 40.930
2.18 --undefined-- 39.360
2.19 --undefined-- 37.179
2.20 --undefined-- 34.039
2.21 --undefined-- 32.124
2.22 --undefined-- 42.506
2.23 --undefined-- 52.457
2.24 --undefined-- 58.462
2.25 --undefined-- 62.989
2.26 156.606 66.380
2.27 161.409 67.968
2.28 175.284 68.696
2.29 182.993 69.816
2.30 185.106 70.957
2.31 186.182 71.529
2.32 185.952 71.473
2.33 184.130 71.183
2.34 182.582 71.031
2.35 179.059 71.159
2.36 170.733 71.804
2.37 160.892 72.319
2.38 153.221 72.242
2.39 144.374 71.770
2.40 138.645 71.127
2.41 129.895 70.413
2.42 123.943 69.451
2.43 120.065 68.331
2.44 117.339 66.769
2.45 108.061 64.122
2.46 106.012 60.925
2.47 101.968 58.125
2.48 95.382 55.854
2.49 --undefined-- 54.590
2.50 --undefined-- 57.244
2.51 --undefined-- 61.375
2.52 108.236 63.707
2.53 104.567 64.484
2.54 100.677 64.662
2.55 97.222 64.378
2.56 94.951 64.012
2.57 94.981 64.103
2.58 98.537 64.240
2.59 102.571 64.521
2.60 106.641 65.231
2.61 118.580 66.100
2.62 123.411 66.775
2.63 132.760 67.539
2.64 134.997 68.471
2.65 135.931 69.123
2.66 136.346 69.374
2.67 136.772 69.310
2.68 135.670 68.993
2.69 133.762 68.463
2.70 129.548 67.556
2.71 124.636 65.676
2.72 116.309 62.315
2.73 112.367 57.873
2.74 132.799 53.423
2.75 --undefined-- 48.956
2.76 --undefined-- 45.293
2.77 --undefined-- 46.559
2.78 --undefined-- 54.471
2.79 --undefined-- 60.637
2.80 124.034 63.680
2.81 117.251 64.454
2.82 111.702 64.173
2.83 105.797 63.788
2.84 100.624 63.031
2.85 97.476 61.595
2.86 94.117 59.738
2.87 85.211 58.756
2.88 101.875 59.339
2.89 101.840 60.484
2.90 101.469 61.494
2.91 104.195 62.359
2.92 105.766 63.187
2.93 108.595 63.848
2.94 102.490 64.106
2.95 101.899 64.213
2.96 101.673 64.655
2.97 101.174 65.277
2.98 101.848 65.801
2.99 103.250 66.126
3.00 104.625 66.217
3.01 107.160 66.020
3.02 110.130 65.811
3.03 113.868 65.930
3.04 116.462 66.242
3.05 117.955 66.255
3.06 117.236 65.779
3.07 116.355 64.911
3.08 115.743 63.666
3.09 113.893 62.202
3.10 112.336 60.993
3.11 110.669 60.341
3.12 108.890 60.169
3.13 107.695 60.529
3.14 107.698 61.379
3.15 104.067 62.176
3.16 101.964 62.594
3.17 101.079 62.839
3.18 100.059 63.073
3.19 99.583 63.417
3.20 99.577 63.803
3.21 99.913 63.946
3.22 100.228 63.546
3.23 100.488 62.330
3.24 101.296 59.952
3.25 100.707 56.061
3.26 99.455 50.879
3.27 --undefined-- 46.378
3.28 --undefined-- 44.495
3.29 --undefined-- 43.158
3.30 --undefined-- 42.788
3.31 --undefined-- 45.523
3.32 --undefined-- 53.341
3.33 --undefined-- 60.312
3.34 --undefined-- 64.085
3.35 107.224 65.246
3.36 102.005 64.983
3.37 98.569 64.218
3.38 97.729 63.469
3.39 98.643 63.194
3.40 98.482 62.999
3.41 100.201 62.926
3.42 102.874 63.325
3.43 107.001 64.022
3.44 111.703 64.652
3.45 115.615 65.177
3.46 118.109 65.845
3.47 121.665 66.481
3.48 126.675 66.848
3.49 130.483 67.211
3.50 130.794 67.642
3.51 133.064 68.052
3.52 136.986 68.344
3.53 137.815 68.522
3.54 139.147 68.817
3.55 141.256 69.186
3.56 142.493 69.441
3.57 144.074 69.583
3.58 144.118 69.504
3.59 143.528 69.209
3.60 142.669 68.876
3.61 140.811 68.467
3.62 137.220 67.952
3.63 133.590 67.383
3.64 128.252 66.780
3.65 125.316 66.133
3.66 122.551 65.385
3.67 118.331 64.165
3.68 --undefined-- 61.792
3.69 --undefined-- 57.851
3.70 --undefined-- 52.964
3.71 --undefined-- 48.135
3.72 --undefined-- 44.699
3.73 --undefined-- 43.037
3.74 --undefined-- 42.060
3.75 --undefined-- 45.846
3.76 --undefined-- 52.435
3.77 --undefined-- 57.430
3.78 122.984 60.868
3.79 123.159 62.952
3.80 122.993 64.196
3.81 127.005 65.271
3.82 132.598 66.157
3.83 134.299 66.764
3.84 137.052 67.055
3.85 141.076 67.036
3.86 142.654 66.801
3.87 143.375 66.618
3.88 142.862 66.807
3.89 142.340 67.091
3.90 138.942 67.061
3.91 134.701 66.814
3.92 127.584 66.738
3.93 122.176 67.049
3.94 117.886 67.214
3.95 114.660 66.986
3.96 110.748 66.645
3.97 108.960 66.266
3.98 108.708 65.687
3.99 109.819 65.218
4.00 110.080 65.229
4.01 111.635 65.174
4.02 111.035 64.869
4.03 109.666 64.697
4.04 112.289 64.983
4.05 112.512 65.571
4.06 113.050 66.250
4.07 114.096 66.932
4.08 114.548 67.383
4.09 114.329 67.228
4.10 113.431 66.475
4.11 112.492 65.457
4.12 111.073 63.727
4.13 96.997 60.634
4.14 93.242 56.300
4.15 --undefined-- 51.655
4.16 --undefined-- 46.858
4.17 --undefined-- 43.307
4.18 --undefined-- 41.590
4.19 --undefined-- 39.917
4.20 --undefined-- 38.761
4.21 --undefined-- 44.447
4.22 --undefined-- 55.295
4.23 --undefined-- 62.414
4.24 --undefined-- 66.006
4.25 114.935 67.005
4.26 112.777 66.493
4.27 108.776 65.572
4.28 106.415 65.169
4.29 105.859 65.230
4.30 104.823 65.244
4.31 103.080 64.998
4.32 101.010 64.234
4.33 100.082 62.466
4.34 92.471 59.208
4.35 --undefined-- 54.301
4.36 --undefined-- 49.202
4.37 --undefined-- 46.137
4.38 --undefined-- 44.041
4.39 --undefined-- 40.925
4.40 --undefined-- 38.067
4.41 --undefined-- 37.716
4.42 --undefined-- 37.752
4.43 --undefined-- 39.005
4.44 --undefined-- 43.393
4.45 --undefined-- 51.077
4.46 --undefined-- 59.937
4.47 --undefined-- 65.916
4.48 129.355 68.798
4.49 126.636 69.424
4.50 120.006 68.985
4.51 119.103 68.176
4.52 99.364 66.782
4.53 75.842 64.544
4.54 --undefined-- 61.543
4.55 --undefined-- 58.442
4.56 --undefined-- 56.918
4.57 --undefined-- 54.788
4.58 --undefined-- 53.448
4.59 --undefined-- 56.617
4.60 76.703 59.787
4.61 102.756 62.603
4.62 113.372 64.693
4.63 118.682 66.296
4.64 127.259 67.822
4.65 129.913 69.127
4.66 130.825 70.075
4.67 131.434 70.612
4.68 132.736 70.799
4.69 133.977 70.618
4.70 135.065 70.141
4.71 135.614 69.483
4.72 136.207 68.809
4.73 136.778 68.169
4.74 137.697 67.485
4.75 137.750 66.757
4.76 136.758 65.450
4.77 134.643 62.833
4.78 137.120 59.021
4.79 159.556 54.854
4.80 161.390 50.873
4.81 136.826 47.580
4.82 --undefined-- 45.716
4.83 --undefined-- 45.048
4.84 --undefined-- 44.584
4.85 --undefined-- 43.800
4.86 --undefined-- 43.108
4.87 --undefined-- 43.340
4.88 --undefined-- 43.728
4.89 --undefined-- 43.176
4.90 --undefined-- 42.322
4.91 --undefined-- 41.959
4.92 --undefined-- 41.711
4.93 --undefined-- 41.850
4.94 --undefined-- 41.751
4.95 --undefined-- 40.299
4.96 --undefined-- 38.003
4.97 --undefined-- 35.972
4.98 --undefined-- 33.873
4.99 --undefined-- 35.320
5.00 --undefined-- 40.414
5.01 --undefined-- 42.912
5.02 --undefined-- 44.970
5.03 --undefined-- 52.238
5.04 --undefined-- 58.256
5.05 --undefined-- 61.801
5.06 129.137 63.563
5.07 122.811 64.906
5.08 115.884 66.656
5.09 115.102 67.722
5.10 110.908 67.715
5.11 109.555 67.295
5.12 110.116 67.257
5.13 111.461 67.371
5.14 115.148 67.175
5.15 120.556 67.066
5.16 124.233 67.379
5.17 126.947 67.414
5.18 125.997 66.029
5.19 124.219 62.775
5.20 125.501 58.101
5.21 122.722 53.340
5.22 125.102 50.476
5.23 136.469 49.121
5.24 --undefined-- 48.274
5.25 --undefined-- 55.621
5.26 --undefined-- 63.775
5.27 --undefined-- 68.265
5.28 154.558 70.006
5.29 151.101 70.234
5.30 147.804 69.874
5.31 145.675 69.509
5.32 145.266 69.500
5.33 145.212 69.554
5.34 145.804 69.474
5.35 146.860 69.320
5.36 145.768 68.914
5.37 144.311 68.420
5.38 143.345 68.333
5.39 139.864 68.279
5.40 135.930 67.773
5.41 129.382 66.884
5.42 120.066 66.221
5.43 113.191 65.945
5.44 103.366 65.513
5.45 91.240 65.131
5.46 83.600 65.069
5.47 80.666 64.754
5.48 79.031 63.922
5.49 79.415 62.906
5.50 81.863 61.261
5.51 81.898 58.437
5.52 81.431 54.221
5.53 --undefined-- 48.992
5.54 --undefined-- 44.021
5.55 --undefined-- 41.049
5.56 --undefined-- 39.399
5.57 --undefined-- 39.576
5.58 --undefined-- 41.501
5.59 --undefined-- 46.015
5.60 --undefined-- 52.505
5.61 --undefined-- 60.948
5.62 --undefined-- 66.840
5.63 149.795 69.727
5.64 143.864 70.512
5.65 136.653 70.367
5.66 134.941 70.580
5.67 133.769 71.077
5.68 132.849 71.205
5.69 131.670 70.925
5.70 130.841 --undefined--
5.71 130.678 --undefined--
5.72 --undefined-- --undefined--
5.73 --undefined-- --undefined--
