Time Pitch Intensity
0.01 --undefined-- --undefined--
0.02 --undefined-- --undefined--
0.03 --undefined-- --undefined--
0.04 --undefined-- --undefined--
0.05 --undefined-- 47.574
0.06 --undefined-- 42.715
0.07 --undefined-- 42.097
0.08 --undefined-- 50.805
0.09 --undefined-- 58.022
0.10 --undefined-- 63.869
0.11 --undefined-- 68.824
0.12 120.540 71.959
0.13 119.981 73.567
0.14 116.656 74.362
0.15 115.480 74.797
0.16 115.838 75.135
0.17 119.481 75.567
0.18 121.687 76.049
0.19 124.900 76.522
0.20 129.738 77.076
0.21 134.169 77.484
0.22 141.465 77.865
0.23 146.860 78.039
0.24 152.458 77.617
0.25 156.782 77.132
0.26 158.846 76.966
0.27 156.902 76.771
0.28 154.048 76.141
0.29 152.033 74.552
0.30 149.272 71.348
0.31 149.446 66.516
0.32 141.298 61.347
0.33 --undefined-- 56.667
0.34 --undefined-- 50.762
0.35 --undefined-- 47.497
0.36 --undefined-- 57.560
0.37 150.439 65.519
0.38 140.824 70.031
0.39 119.238 72.132
0.40 114.010 73.216
0.41 115.688 74.015
0.42 116.566 74.643
0.43 118.537 75.157
0.44 121.157 75.539
0.45 124.457 75.752
0.46 127.511 75.785
0.47 130.562 75.710
0.48 134.944 75.638
0.49 135.069 75.637
0.50 134.630 75.673
0.51 132.543 75.268
0.52 127.606 74.176
0.53 121.612 72.685
0.54 118.433 71.976
0.55 117.939 72.677
0.56 112.534 72.830
0.57 105.870 71.742
0.58 100.826 70.159
0.59 97.609 68.690
0.60 94.665 67.960
0.61 97.668 68.422
0.62 99.668 69.253
0.63 101.027 69.847
0.64 102.211 70.196
0.65 104.026 70.341
0.66 104.496 70.250
0.67 104.108 70.065
0.68 105.149 70.179
0.69 104.939 70.663
0.70 104.830 71.093
0.71 105.939 71.440
0.72 106.776 71.796
0.73 106.986 72.071
0.74 107.361 72.126
0.75 107.190 71.951
0.76 107.406 71.711
0.77 106.706 71.504
0.78 103.997 71.501
0.79 106.857 71.587
0.80 106.128 71.307
0.81 105.237 70.395
0.82 103.817 68.408
0.83 101.254 64.725
0.84 --undefined-- 58.876
0.85 --undefined-- 51.240
0.86 --undefined-- 50.763
0.87 --undefined-- 61.394
0.88 --undefined-- 68.603
0.89 135.699 72.727
0.90 129.538 74.666
0.91 123.333 75.556
0.92 120.515 76.233
0.93 119.002 76.750
0.94 118.282 76.849
0.95 118.090 76.504
0.96 117.795 75.952
0.97 117.235 75.468
0.98 117.924 75.128
0.99 120.475 74.818
1.00 122.874 74.560
1.01 123.247 74.263
1.02 122.904 73.576
1.03 126.358 72.282
1.04 121.718 70.472
1.05 112.613 67.750
1.06 98.817 63.701
1.07 98.009 59.693
1.08 97.804 57.415
1.09 112.259 56.851
1.10 121.104 58.769
1.11 133.734 63.461
1.12 150.819 67.535
1.13 151.650 70.156
1.14 152.529 72.021
1.15 153.282 73.505
1.16 152.681 74.580
1.17 151.931 75.305
1.18 151.318 75.697
1.19 151.148 75.557
1.20 152.570 75.014
1.21 151.433 74.105
1.22 149.114 71.715
1.23 151.117 66.486
1.24 --undefined-- 57.439
1.25 --undefined-- 47.905
1.26 --undefined-- 47.413
1.27 --undefined-- 49.830
1.28 --undefined-- 51.768
1.29 --undefined-- 53.165
1.30 --undefined-- 54.571
1.31 --undefined-- 55.630
1.32 --undefined-- 58.596
1.33 139.090 64.240
1.34 127.399 68.309
1.35 119.750 70.165
1.36 118.781 70.669
1.37 119.960 70.724
1.38 122.606 70.793
1.39 127.012 70.846
1.40 131.837 70.509
1.41 133.092 69.373
1.42 131.887 67.084
1.43 122.929 63.419
1.44 --undefined-- 58.398
1.45 --undefined-- 52.432
1.46 --undefined-- 47.789
1.47 --undefined-- 48.068
1.48 --undefined-- 52.959
1.49 --undefined-- 62.690
1.50 --undefined-- 70.373
1.51 --undefined-- 74.315
1.52 150.281 75.215
1.53 145.055 73.897
1.54 137.831 72.733
1.55 144.038 73.986
1.56 145.800 75.501
1.57 147.558 76.474
1.58 148.967 77.046
1.59 149.241 77.241
1.60 148.152 76.985
1.61 145.618 76.091
1.62 139.371 74.115
1.63 129.634 70.657
1.64 --undefined-- 65.642
1.65 --undefined-- 59.681
1.66 --undefined-- 56.772
1.67 --undefined-- 57.521
1.68 --undefined-- 57.292
1.69 --undefined-- 55.914
1.70 --undefined-- 54.611
1.71 --undefined-- 56.679
1.72 130.176 61.306
1.73 110.359 64.837
1.74 110.043 66.789
1.75 109.829 67.935
1.76 110.056 68.958
1.77 111.960 70.199
1.78 114.458 71.399
1.79 117.956 72.102
1.80 121.388 72.125
1.81 123.750 72.047
1.82 131.928 72.873
1.83 137.626 74.094
1.84 139.777 75.022
1.85 140.715 75.549
1.86 140.972 75.703
1.87 138.885 75.471
1.88 135.493 74.543
1.89 132.124 72.672
1.90 127.101 69.983
1.91 120.362 67.642
1.92 119.867 67.136
1.93 119.207 67.690
1.94 118.894 68.448
1.95 119.711 69.093
1.96 120.591 69.757
1.97 122.748 70.669
1.98 127.269 71.847
1.99 133.302 73.203
2.00 132.673 74.220
2.01 128.496 73.934
2.02 120.399 72.423
2.03 117.027 71.570
2.04 116.391 71.680
2.05 111.653 71.614
2.06 111.474 71.478
2.07 105.988 71.184
2.08 103.528 70.791
2.09 100.920 70.440
2.10 99.788 69.944
2.11 99.419 69.366
2.12 100.830 69.165
2.13 101.687 69.286
2.14 101.869 69.457
2.15 102.290 69.450
2.16 101.858 69.374
2.17 101.819 69.318
2.18 101.571 69.177
2.19 100.190 68.974
2.20 101.088 68.516
2.21 103.639 67.999
2.22 104.099 67.726
2.23 103.911 67.374
2.24 107.209 66.656
2.25 108.588 65.387
2.26 --undefined-- 62.883
2.27 --undefined-- 59.125
2.28 --undefined-- 54.448
2.29 --undefined-- 49.245
2.30 --undefined-- 47.032
2.31 --undefined-- 44.733
2.32 --undefined-- 39.928
2.33 --undefined-- 37.118
2.34 --undefined-- 39.161
2.35 --undefined-- 39.877
2.36 --undefined-- 39.712
2.37 --undefined-- 39.757
2.38 --undefined-- 38.727
2.39 --undefined-- 36.274
2.40 --undefined-- 35.593
2.41 --undefined-- 37.252
2.42 --undefined-- 38.979
2.43 --undefined-- 40.138
2.44 --undefined-- 40.620
2.45 --undefined-- 40.779
2.46 --undefined-- 41.733
2.47 --undefined-- 43.111
2.48 --undefined-- 43.743
2.49 --undefined-- 43.998
2.50 --undefined-- 44.572
2.51 --undefined-- 45.877
2.52 --undefined-- 46.710
2.53 --undefined-- 47.019
2.54 --undefined-- 47.517
2.55 --undefined-- 47.945
2.56 --undefined-- 48.606
2.57 --undefined-- 49.225
2.58 --undefined-- 49.077
2.59 --undefined-- 47.690
2.60 --undefined-- 45.538
2.61 --undefined-- 43.744
2.62 --undefined-- 42.632
2.63 --undefined-- 41.675
2.64 --undefined-- 40.831
2.65 --undefined-- 40.666
2.66 --undefined-- 41.013
2.67 --undefined-- 42.120
2.68 --undefined-- 44.307
2.69 --undefined-- 47.593
2.70 --undefined-- 50.573
2.71 --undefined-- 52.973
2.72 --undefined-- 55.177
2.73 --undefined-- 56.187
2.74 --undefined-- 57.547
2.75 --undefined-- 64.223
2.76 --undefined-- 70.528
2.77 131.801 74.700
2.78 135.981 77.227
2.79 140.047 78.502
2.80 142.148 79.142
2.81 145.163 80.051
2.82 147.244 81.262
2.83 150.027 81.881
2.84 155.621 81.543
2.85 158.700 80.847
2.86 164.823 79.918
2.87 176.338 79.289
2.88 177.706 79.228
2.89 181.013 78.153
2.90 190.165 75.405
2.91 185.164 71.304
2.92 167.813 66.379
2.93 170.003 61.206
2.94 --undefined-- 55.530
2.95 --undefined-- 53.389
2.96 --undefined-- 60.302
2.97 --undefined-- 65.274
2.98 --undefined-- 67.913
2.99 192.577 71.084
3.00 183.647 74.429
3.01 185.021 76.674
3.02 185.599 78.297
3.03 187.293 79.929
3.04 188.425 81.304
3.05 187.902 81.821
3.06 186.243 81.436
3.07 185.143 80.756
3.08 186.141 80.361
3.09 186.518 80.254
3.10 186.093 80.163
3.11 186.523 79.702
3.12 188.613 78.617
3.13 189.214 77.510
3.14 188.688 77.130
3.15 187.999 77.150
3.16 187.839 77.120
3.17 188.538 76.744
3.18 190.822 75.903
3.19 191.866 74.791
3.20 191.597 73.646
3.21 190.070 72.417
3.22 187.718 70.964
3.23 175.927 69.462
3.24 163.878 67.880
3.25 148.600 65.327
3.26 --undefined-- 61.337
3.27 --undefined-- 56.734
3.28 --undefined-- 51.055
3.29 --undefined-- 44.684
3.30 --undefined-- 41.205
3.31 --undefined-- 38.519
3.32 --undefined-- 37.332
3.33 --undefined-- 37.615
3.34 --undefined-- 38.236
3.35 --undefined-- 40.427
3.36 --undefined-- 43.394
3.37 --undefined-- 46.013
3.38 --undefined-- 49.132
3.39 --undefined-- 55.157
3.40 --undefined-- 63.860
3.41 204.138 69.989
3.42 190.764 73.204
3.43 187.809 74.507
3.44 186.521 74.842
3.45 184.964 74.619
3.46 183.249 74.116
3.47 182.665 73.593
3.48 179.100 72.944
3.49 173.567 71.775
3.50 166.487 69.663
3.51 159.480 66.452
3.52 160.364 65.436
3.53 171.287 69.244
3.54 178.115 72.915
3.55 180.121 75.200
3.56 177.995 75.812
3.57 173.116 74.997
3.58 168.887 73.365
3.59 155.811 71.613
3.60 156.081 71.569
3.61 157.643 72.630
3.62 154.948 73.512
3.63 151.452 74.609
3.64 148.410 76.118
3.65 139.849 77.212
3.66 133.425 77.268
3.67 127.091 76.641
3.68 121.576 76.047
3.69 117.938 75.677
3.70 116.035 75.124
3.71 115.585 74.108
3.72 113.792 72.232
3.73 110.456 68.660
3.74 --undefined-- 62.875
3.75 --undefined-- 58.180
3.76 --undefined-- 58.866
3.77 --undefined-- 59.685
3.78 --undefined-- 58.700
3.79 --undefined-- 55.925
3.80 --undefined-- 52.197
3.81 --undefined-- 47.831
3.82 --undefined-- 44.480
3.83 --undefined-- 45.547
3.84 --undefined-- 48.720
3.85 --undefined-- 57.739
3.86 --undefined-- 66.340
3.87 150.734 71.355
3.88 137.458 73.643
3.89 132.390 74.397
3.90 130.087 74.627
3.91 129.054 74.601
3.92 127.139 74.370
3.93 126.298 74.233
3.94 128.468 74.327
3.95 129.134 74.152
3.96 123.022 72.786
3.97 --undefined-- 69.219
3.98 --undefined-- 62.535
3.99 --undefined-- 52.766
4.00 --undefined-- 47.046
4.01 --undefined-- 47.043
4.02 --undefined-- 47.219
4.03 --undefined-- 45.906
4.04 --undefined-- 42.923
4.05 --undefined-- 39.795
4.06 --undefined-- 38.861
4.07 --undefined-- 41.162
4.08 --undefined-- 46.839
4.09 --undefined-- 56.988
4.10 --undefined-- 65.651
4.11 147.794 70.545
4.12 144.391 72.319
4.13 126.852 71.916
4.14 118.755 70.538
4.15 98.906 68.656
4.16 97.401 66.112
4.17 --undefined-- 64.641
4.18 --undefined-- 65.996
4.19 --undefined-- 67.938
4.20 122.274 69.907
4.21 125.541 72.004
4.22 123.696 73.803
4.23 121.475 74.705
4.24 119.475 74.684
4.25 117.982 73.768
4.26 115.423 71.753
4.27 114.304 68.892
4.28 --undefined-- 65.024
4.29 --undefined-- 58.974
4.30 --undefined-- 50.536
4.31 --undefined-- 43.709
4.32 --undefined-- 39.789
4.33 --undefined-- 37.315
4.34 --undefined-- 37.156
4.35 --undefined-- 42.321
4.36 --undefined-- 51.123
4.37 --undefined-- 56.325
4.38 --undefined-- 57.753
4.39 --undefined-- 56.792
4.40 --undefined-- 56.069
4.41 --undefined-- 55.882
4.42 --undefined-- 55.780
4.43 --undefined-- 55.588
4.44 --undefined-- 55.426
4.45 --undefined-- 59.634
4.46 124.381 64.956
4.47 117.107 68.481
4.48 113.396 70.460
4.49 111.118 71.409
4.50 109.377 72.049
4.51 109.899 72.837
4.52 111.187 73.171
4.53 113.629 72.438
4.54 118.145 70.758
4.55 121.313 68.499
4.56 117.845 65.828
4.57 115.235 64.244
4.58 119.807 66.425
4.59 128.588 70.332
4.60 130.168 73.169
4.61 128.061 74.578
4.62 125.408 74.736
4.63 119.867 73.523
4.64 115.061 70.702
4.65 --undefined-- 65.900
4.66 --undefined-- 58.585
4.67 --undefined-- 50.984
4.68 --undefined-- 49.620
4.69 --undefined-- 52.525
4.70 --undefined-- 55.420
4.71 --undefined-- 56.532
4.72 --undefined-- 55.923
4.73 --undefined-- 56.154
4.74 --undefined-- 60.772
4.75 --undefined-- 64.156
4.76 100.582 64.667
4.77 87.250 63.218
4.78 92.634 61.698
4.79 91.945 61.518
4.80 91.576 62.315
4.81 92.718 63.401
4.82 93.439 64.264
4.83 93.826 64.906
4.84 97.465 65.516
4.85 101.313 65.334
4.86 98.586 63.326
4.87 95.799 59.198
4.88 --undefined-- 53.500
4.89 --undefined-- 47.328
4.90 --undefined-- 45.044
4.91 --undefined-- 53.794
4.92 --undefined-- 62.784
4.93 137.832 68.630
4.94 131.772 71.796
4.95 126.130 73.520
4.96 123.183 74.574
4.97 121.879 75.052
4.98 119.827 75.318
4.99 118.223 75.666
5.00 118.428 75.865
5.01 119.125 75.697
5.02 119.660 75.143
5.03 120.063 74.366
5.04 120.154 73.551
5.05 120.357 72.787
5.06 120.486 72.188
5.07 120.476 71.737
5.08 121.788 71.236
5.09 122.319 70.657
5.10 121.818 70.098
5.11 122.010 69.481
5.12 119.797 68.497
5.13 114.233 66.904
5.14 106.552 64.407
5.15 --undefined-- 60.842
5.16 --undefined-- 55.563
5.17 --undefined-- 48.518
5.18 --undefined-- 41.368
5.19 --undefined-- 37.716
5.20 --undefined-- 38.390
5.21 --undefined-- 39.780
5.22 --undefined-- 39.777
5.23 --undefined-- 38.865
5.24 --undefined-- 39.031
5.25 --undefined-- 40.152
5.26 --undefined-- 42.971
5.27 --undefined-- 49.426
5.28 --undefined-- 54.270
5.29 139.813 57.308
5.30 128.788 60.023
5.31 132.987 63.029
5.32 135.776 66.116
5.33 138.400 69.482
5.34 139.676 72.761
5.35 140.737 75.417
5.36 141.101 76.880
5.37 140.539 77.064
5.38 138.717 76.229
5.39 135.748 75.000
5.40 129.415 73.740
5.41 --undefined-- 71.385
5.42 76.681 66.768
5.43 --undefined-- 59.699
5.44 --undefined-- 52.443
5.45 --undefined-- 45.950
5.46 --undefined-- --undefined--
5.47 --undefined-- --undefined--
5.48 --undefined-- --undefined--
5.49 --undefined-- --undefined--
