Time Pitch Intensity
0.01 --undefined-- --undefined--
0.02 --undefined-- --undefined--
0.03 --undefined-- --undefined--
0.04 --undefined-- --undefined--
0.05 --undefined-- 47.131
0.06 --undefined-- 52.792
0.07 --undefined-- 59.384
0.08 --undefined-- 66.226
0.09 205.273 70.221
0.10 194.267 72.081
0.11 191.465 73.127
0.12 187.247 73.642
0.13 181.848 73.432
0.14 177.008 73.144
0.15 171.809 73.072
0.16 167.529 72.889
0.17 165.050 72.488
0.18 164.377 72.107
0.19 164.469 71.730
0.20 164.445 71.291
0.21 165.924 70.969
0.22 167.225 70.553
0.23 167.370 69.075
0.24 167.171 65.594
0.25 177.408 60.253
0.26 --undefined-- 53.847
0.27 --undefined-- 48.908
0.28 --undefined-- 47.035
0.29 --undefined-- 44.366
0.30 --undefined-- 40.658
0.31 --undefined-- 36.729
0.32 --undefined-- 33.832
0.33 --undefined-- 32.763
0.34 --undefined-- 37.800
0.35 --undefined-- 53.226
0.36 --undefined-- 64.410
0.37 258.951 71.175
0.38 251.891 74.666
0.39 248.229 75.979
0.40 247.608 76.334
0.41 248.932 76.387
0.42 250.694 76.297
0.43 253.306 76.146
0.44 257.014 75.942
0.45 261.702 75.764
0.46 266.160 75.557
0.47 270.895 75.161
0.48 275.526 74.584
0.49 280.453 73.658
0.50 282.768 72.002
0.51 279.884 68.683
0.52 269.312 62.630
0.53 --undefined-- 53.267
0.54 --undefined-- 44.633
0.55 --undefined-- 42.016
0.56 --undefined-- 42.490
0.57 --undefined-- 52.743
0.58 --undefined-- 63.598
0.59 --undefined-- 70.159
0.60 --undefined-- 73.091
0.61 --undefined-- 73.299
0.62 --undefined-- 71.939
0.63 --undefined-- 69.551
0.64 --undefined-- 65.746
0.65 --undefined-- 60.386
0.66 --undefined-- 53.844
0.67 --undefined-- 47.552
0.68 --undefined-- 44.364
0.69 --undefined-- 40.920
0.70 --undefined-- 37.003
0.71 --undefined-- 36.628
0.72 --undefined-- 44.856
0.73 --undefined-- 54.250
0.74 175.752 60.792
0.75 172.549 65.074
0.76 176.302 67.707
0.77 180.455 69.188
0.78 183.610 70.082
0.79 183.964 70.743
0.80 183.424 71.441
0.81 184.486 72.419
0.82 179.543 73.438
0.83 173.964 74.295
0.84 169.546 74.778
0.85 162.978 74.932
0.86 159.032 74.903
0.87 155.284 74.708
0.88 150.931 74.521
0.89 148.269 74.249
0.90 146.258 73.557
0.91 141.924 72.388
0.92 140.644 70.771
0.93 139.475 68.693
0.94 139.558 66.212
0.95 141.512 64.053
0.96 152.869 63.605
0.97 161.081 64.187
0.98 171.439 63.928
0.99 171.912 61.469
1.00 --undefined-- 56.034
1.01 --undefined-- 48.691
1.02 --undefined-- 46.089
1.03 --undefined-- 45.495
1.04 --undefined-- 43.417
1.05 --undefined-- 40.965
1.06 --undefined-- 41.539
1.07 --undefined-- 43.372
1.08 --undefined-- 44.318
1.09 --undefined-- 44.446
1.10 --undefined-- 44.347
1.11 --undefined-- 43.855
1.12 --undefined-- 44.029
1.13 --undefined-- 45.010
1.14 --undefined-- 45.131
1.15 --undefined-- 44.236
1.16 --undefined-- 43.125
1.17 --undefined-- 42.134
1.18 --undefined-- 41.548
1.19 --undefined-- 40.601
1.20 --undefined-- 38.742
1.21 --undefined-- 36.691
1.22 --undefined-- 34.934
1.23 --undefined-- 33.990
1.24 --undefined-- 35.259
1.25 --undefined-- 37.568
1.26 --undefined-- 37.367
1.27 --undefined-- 35.414
1.28 --undefined-- 39.362
1.29 --undefined-- 47.736
1.30 --undefined-- 58.731
1.31 270.544 67.073
1.32 249.012 71.828
1.33 218.753 74.174
1.34 210.490 75.247
1.35 201.772 75.534
1.36 197.635 75.697
1.37 195.909 75.851
1.38 194.728 75.899
1.39 195.396 75.847
1.40 197.911 75.340
1.41 200.423 74.445
1.42 198.962 73.416
1.43 195.909 71.757
1.44 188.427 69.175
1.45 182.704 65.925
1.46 177.029 61.608
1.47 178.087 55.951
1.48 193.348 52.234
1.49 --undefined-- 52.172
1.50 --undefined-- 54.416
1.51 --undefined-- 58.539
1.52 --undefined-- 64.999
1.53 215.216 70.663
1.54 206.142 73.835
1.55 197.996 75.040
1.56 194.462 75.407
1.57 194.620 75.675
1.58 199.263 76.094
1.59 205.439 76.521
1.60 211.241 76.310
1.61 221.706 75.072
1.62 234.068 73.097
1.63 220.817 70.124
1.64 195.049 64.999
1.65 215.948 57.771
1.66 222.548 53.582
1.67 --undefined-- 57.538
1.68 --undefined-- 61.341
1.69 --undefined-- 62.386
1.70 --undefined-- 61.627
1.71 --undefined-- 63.866
1.72 159.361 70.053
1.73 161.643 73.896
1.74 160.896 75.308
1.75 159.649 75.798
1.76 158.932 76.376
1.77 159.165 76.435
1.78 160.705 75.707
1.79 165.126 75.149
1.80 165.978 74.901
1.81 165.467 74.124
1.82 164.690 72.351
1.83 161.814 69.130
1.84 153.225 63.855
1.85 --undefined-- 55.851
1.86 --undefined-- 47.510
1.87 --undefined-- 43.469
1.88 --undefined-- 40.856
1.89 --undefined-- 40.614
1.90 --undefined-- 44.045
1.91 --undefined-- 51.562
1.92 --undefined-- 56.434
1.93 --undefined-- 59.142
1.94 --undefined-- 64.226
1.95 236.758 69.329
1.96 221.899 71.877
1.97 213.896 72.508
1.98 206.641 72.475
1.99 200.476 72.520
2.00 195.650 72.740
2.01 191.393 73.217
2.02 189.826 73.746
2.03 189.556 73.992
2.04 188.660 73.808
2.05 186.438 73.232
2.06 182.990 72.543
2.07 182.853 72.273
2.08 181.730 72.192
2.09 180.974 71.615
2.10 177.558 70.325
2.11 170.128 68.302
2.12 163.344 66.914
2.13 176.695 68.854
2.14 174.403 70.873
2.15 171.060 71.121
2.16 168.674 70.312
2.17 166.915 69.087
2.18 160.353 67.349
2.19 156.900 65.790
2.20 158.522 65.759
2.21 161.131 66.324
2.22 160.976 66.349
2.23 158.383 65.786
2.24 154.814 64.986
2.25 151.949 64.437
2.26 152.638 64.243
2.27 154.926 64.183
2.28 154.916 64.227
2.29 149.795 64.355
2.30 142.676 64.231
2.31 125.385 63.621
2.32 125.661 62.790
2.33 130.759 62.033
2.34 137.091 61.084
2.35 137.994 59.983
2.36 138.669 59.269
2.37 140.046 58.649
2.38 137.458 57.513
2.39 133.891 55.740
2.40 --undefined-- 53.751
2.41 --undefined-- 51.992
2.42 --undefined-- 50.284
2.43 --undefined-- 47.871
2.44 --undefined-- 43.766
2.45 --undefined-- 39.576
2.46 --undefined-- 36.798
2.47 --undefined-- 35.620
2.48 --undefined-- 37.397
2.49 --undefined-- 42.879
2.50 --undefined-- 46.727
2.51 --undefined-- 50.162
2.52 --undefined-- 53.899
2.53 --undefined-- 54.265
2.54 --undefined-- 50.333
2.55 --undefined-- 46.687
2.56 --undefined-- 53.723
2.57 --undefined-- 58.894
2.58 135.566 61.355
2.59 148.160 62.243
2.60 141.988 62.538
2.61 144.222 62.435
2.62 75.033 61.970
2.63 77.064 61.492
2.64 81.568 61.325
2.65 77.561 61.324
2.66 77.028 61.521
2.67 76.187 62.249
2.68 167.056 63.167
2.69 152.524 64.076
2.70 148.619 65.199
2.71 150.112 66.481
2.72 156.838 67.565
2.73 163.821 68.496
2.74 175.290 69.406
2.75 185.324 70.149
2.76 191.245 70.769
2.77 194.985 71.040
2.78 198.941 70.892
2.79 199.764 71.053
2.80 200.752 71.811
2.81 198.848 72.348
2.82 192.804 72.147
2.83 182.459 71.499
2.84 171.593 71.081
2.85 159.665 71.178
2.86 150.863 71.081
2.87 145.009 70.177
2.88 141.525 68.495
2.89 142.546 66.524
2.90 144.565 64.728
2.91 147.556 63.099
2.92 147.174 61.529
2.93 150.158 60.270
2.94 151.598 58.683
2.95 154.577 55.454
2.96 --undefined-- 50.204
2.97 --undefined-- 48.796
2.98 --undefined-- 53.658
2.99 --undefined-- 57.269
3.00 --undefined-- 60.156
3.01 180.643 64.752
3.02 173.147 68.367
3.03 165.517 69.789
3.04 160.842 69.921
3.05 155.128 69.751
3.06 150.723 69.716
3.07 147.097 69.725
3.08 146.307 69.228
3.09 143.450 68.095
3.10 143.058 67.236
3.11 148.608 67.340
3.12 151.223 67.736
3.13 155.032 68.105
3.14 155.760 68.402
3.15 154.638 68.495
3.16 153.077 68.593
3.17 151.821 69.071
3.18 147.003 69.533
3.19 140.578 69.356
3.20 138.111 68.555
3.21 137.819 67.635
3.22 136.786 67.181
3.23 136.030 67.160
3.24 133.577 67.096
3.25 128.759 66.747
3.26 127.959 66.053
3.27 129.097 65.158
3.28 128.809 64.285
3.29 131.559 63.302
3.30 136.568 62.261
3.31 139.562 61.252
3.32 141.612 60.115
3.33 155.572 58.892
3.34 178.220 57.623
3.35 178.028 56.326
3.36 160.945 55.846
3.37 156.679 56.264
3.38 154.956 55.985
3.39 155.266 53.805
3.40 --undefined-- 49.062
3.41 --undefined-- 41.892
3.42 --undefined-- 37.949
3.43 --undefined-- 37.674
3.44 --undefined-- 36.979
3.45 --undefined-- 38.629
3.46 --undefined-- 42.043
3.47 --undefined-- 45.052
3.48 --undefined-- 47.899
3.49 --undefined-- 51.794
3.50 --undefined-- 56.114
3.51 --undefined-- 60.432
3.52 154.830 63.788
3.53 158.301 65.541
3.54 154.970 65.802
3.55 149.052 64.967
3.56 145.204 63.911
3.57 143.988 63.143
3.58 141.429 62.515
3.59 144.448 62.829
3.60 153.502 64.519
3.61 164.257 66.710
3.62 174.921 68.511
3.63 186.642 69.477
3.64 200.321 69.680
3.65 217.130 69.409
3.66 236.218 69.150
3.67 246.979 69.061
3.68 250.683 68.933
3.69 245.325 68.698
3.70 228.410 67.812
3.71 --undefined-- 64.963
3.72 --undefined-- 59.081
3.73 --undefined-- 50.253
3.74 --undefined-- 43.356
3.75 --undefined-- 40.107
3.76 --undefined-- 38.228
3.77 --undefined-- 38.241
3.78 --undefined-- 37.161
3.79 --undefined-- 34.153
3.80 --undefined-- 32.698
3.81 --undefined-- 38.365
3.82 --undefined-- 43.074
3.83 --undefined-- 43.747
3.84 --undefined-- 41.146
3.85 --undefined-- 38.648
3.86 --undefined-- 37.051
3.87 --undefined-- 35.690
3.88 --undefined-- 36.681
3.89 --undefined-- 38.987
3.90 --undefined-- 40.627
3.91 --undefined-- 41.037
3.92 --undefined-- 41.388
3.93 --undefined-- 42.515
3.94 --undefined-- 43.797
3.95 --undefined-- 44.352
3.96 --undefined-- 44.591
3.97 --undefined-- 44.456
3.98 --undefined-- 43.825
3.99 --undefined-- 43.468
4.00 --undefined-- 43.082
4.01 --undefined-- 41.883
4.02 --undefined-- 41.465
4.03 --undefined-- 45.129
4.04 --undefined-- 47.263
4.05 --undefined-- 45.707
4.06 --undefined-- 40.437
4.07 --undefined-- 35.034
4.08 --undefined-- 32.156
4.09 --undefined-- 28.280
4.10 --undefined-- 35.131
4.11 --undefined-- 50.225
4.12 --undefined-- 60.478
4.13 --undefined-- 66.810
4.14 --undefined-- 70.375
4.15 154.240 72.100
4.16 153.543 73.089
4.17 153.081 73.798
4.18 154.168 74.372
4.19 156.324 74.683
4.20 158.596 74.396
4.21 159.957 73.434
4.22 160.557 72.306
4.23 162.067 70.804
4.24 161.710 67.720
4.25 156.284 62.387
4.26 157.287 55.728
4.27 --undefined-- 50.954
4.28 --undefined-- 52.877
4.29 --undefined-- 61.150
4.30 --undefined-- 67.749
4.31 182.609 71.288
4.32 179.884 72.122
4.33 170.364 70.974
4.34 --undefined-- 68.315
4.35 --undefined-- 64.411
4.36 --undefined-- 59.616
4.37 --undefined-- 53.926
4.38 --undefined-- 48.643
4.39 --undefined-- 45.044
4.40 --undefined-- 45.781
4.41 --undefined-- 53.343
4.42 184.542 60.258
4.43 174.407 65.050
4.44 178.082 67.983
4.45 181.170 69.903
4.46 180.666 71.553
4.47 178.289 72.626
4.48 175.639 72.962
4.49 172.354 72.983
4.50 168.695 72.761
4.51 166.287 72.433
4.52 164.248 72.297
4.53 161.717 72.202
4.54 159.365 71.897
4.55 157.388 71.507
4.56 157.508 71.251
4.57 158.703 71.166
4.58 159.378 71.116
4.59 160.824 71.031
4.60 162.587 70.641
4.61 162.647 69.938
4.62 163.929 69.600
4.63 167.534 69.703
4.64 168.250 69.768
4.65 169.100 69.808
4.66 169.840 69.917
4.67 170.930 70.064
4.68 172.879 70.255
4.69 175.163 70.802
4.70 175.393 71.972
4.71 171.384 73.375
4.72 170.098 74.744
4.73 167.997 75.729
4.74 167.492 76.220
4.75 166.370 76.344
4.76 165.650 76.232
4.77 164.067 75.993
4.78 163.169 75.732
4.79 162.054 75.509
4.80 163.231 75.284
4.81 162.388 74.907
4.82 163.914 74.359
4.83 165.221 73.589
4.84 166.526 72.578
4.85 166.051 71.370
4.86 165.783 69.991
4.87 166.367 68.335
4.88 167.747 66.264
4.89 171.415 63.380
4.90 169.848 59.128
4.91 --undefined-- 52.967
4.92 --undefined-- 47.460
4.93 --undefined-- 45.312
4.94 --undefined-- 44.200
4.95 --undefined-- 44.050
4.96 --undefined-- 44.104
4.97 --undefined-- 43.716
4.98 --undefined-- 43.606
4.99 --undefined-- 44.087
5.00 --undefined-- 44.384
5.01 --undefined-- 43.560
5.02 --undefined-- 42.045
5.03 --undefined-- 40.694
5.04 --undefined-- 39.254
5.05 --undefined-- 40.033
5.06 --undefined-- 43.804
5.07 --undefined-- 45.289
5.08 --undefined-- 43.186
5.09 --undefined-- 37.721
5.10 --undefined-- 32.154
5.11 --undefined-- 30.438
5.12 --undefined-- 30.074
5.13 --undefined-- 39.723
5.14 --undefined-- 53.540
5.15 --undefined-- 63.817
5.16 --undefined-- 70.663
5.17 --undefined-- 74.444
5.18 148.591 75.983
5.19 149.158 76.250
5.20 150.515 76.175
5.21 152.589 76.082
5.22 154.779 75.915
5.23 156.473 75.445
5.24 157.868 74.649
5.25 158.770 73.651
5.26 159.811 72.523
5.27 160.750 71.452
5.28 160.501 70.825
5.29 161.048 70.913
5.30 160.854 71.303
5.31 160.708 71.595
5.32 160.246 71.636
5.33 158.865 71.312
5.34 155.597 70.210
5.35 150.743 67.542
5.36 144.653 62.721
5.37 --undefined-- 56.401
5.38 --undefined-- 56.260
5.39 --undefined-- 60.150
5.40 --undefined-- 65.201
5.41 --undefined-- 71.222
5.42 161.175 74.884
5.43 158.034 75.747
5.44 154.369 74.811
5.45 154.095 74.292
5.46 153.957 74.607
5.47 153.855 74.529
5.48 154.545 73.508
5.49 153.973 71.866
5.50 154.101 71.180
5.51 154.929 71.493
5.52 154.794 71.641
5.53 154.225 71.715
5.54 152.896 71.972
5.55 --undefined-- 72.313
5.56 289.604 72.473
5.57 274.909 72.307
5.58 258.880 71.850
5.59 243.056 71.295
5.60 231.053 70.983
5.61 215.845 71.106
5.62 207.969 71.570
5.63 198.990 72.005
5.64 194.459 72.224
5.65 192.140 72.238
5.66 190.778 72.123
5.67 190.120 71.989
5.68 191.723 71.940
5.69 196.042 72.030
5.70 201.499 72.269
5.71 206.038 72.511
5.72 212.371 72.864
5.73 221.932 73.100
5.74 229.697 72.997
5.75 235.070 72.849
5.76 241.180 72.763
5.77 246.061 72.868
5.78 247.903 72.853
5.79 248.280 72.271
5.80 244.551 71.307
5.81 239.665 70.396
5.82 231.793 70.021
5.83 221.520 69.876
5.84 210.448 69.563
5.85 199.003 69.669
5.86 189.174 70.167
5.87 180.536 70.350
5.88 172.314 70.043
5.89 166.600 69.499
5.90 162.854 68.890
5.91 159.609 67.881
5.92 154.737 66.631
5.93 149.287 --undefined--
5.94 147.962 --undefined--
5.95 --undefined-- --undefined--
5.96 --undefined-- --undefined--
