Time Pitch Intensity
0.01 --undefined-- --undefined--
0.02 131.401 --undefined--
0.03 133.124 --undefined--
0.04 134.548 --undefined--
0.05 136.126 79.394
0.06 140.220 79.435
0.07 144.514 78.877
0.08 147.681 77.544
0.09 149.769 76.092
0.10 148.992 74.941
0.11 147.128 73.983
0.12 145.026 73.061
0.13 143.471 72.412
0.14 142.229 73.499
0.15 143.126 76.991
0.16 143.831 79.994
0.17 143.475 80.857
0.18 137.214 80.184
0.19 135.889 79.642
0.20 134.361 79.353
0.21 130.272 78.827
0.22 130.729 78.555
0.23 133.601 78.702
0.24 135.521 79.114
0.25 139.265 79.405
0.26 140.677 78.917
0.27 143.634 76.833
0.28 137.427 72.478
0.29 141.002 66.304
0.30 138.239 60.634
0.31 --undefined-- 59.438
0.32 --undefined-- 66.076
0.33 166.908 72.363
0.34 158.285 76.286
0.35 153.688 78.342
0.36 148.471 78.827
0.37 141.863 78.544
0.38 139.813 78.350
0.39 139.883 77.986
0.40 141.262 76.703
0.41 148.404 73.829
0.42 152.747 70.767
0.43 149.905 70.637
0.44 158.005 73.092
0.45 162.013 75.815
0.46 166.724 77.559
0.47 170.698 78.259
0.48 175.200 78.084
0.49 177.732 77.536
0.50 177.757 76.996
0.51 179.860 76.661
0.52 181.568 76.304
0.53 183.598 75.756
0.54 185.518 75.459
0.55 186.095 75.706
0.56 187.291 76.512
0.57 193.240 77.509
0.58 182.929 77.823
0.59 180.224 77.677
0.60 178.016 77.764
0.61 172.560 77.987
0.62 168.843 78.175
0.63 166.229 78.285
0.64 163.670 78.465
0.65 161.085 78.505
0.66 157.653 77.750
0.67 150.684 76.027
0.68 143.416 74.225
0.69 142.469 73.858
0.70 144.005 74.847
0.71 143.198 75.954
0.72 141.281 76.803
0.73 138.370 77.297
0.74 135.911 77.226
0.75 130.422 76.497
0.76 127.651 75.500
0.77 130.779 74.915
0.78 128.576 74.760
0.79 127.538 74.827
0.80 126.194 74.941
0.81 125.300 75.021
0.82 123.446 74.896
0.83 117.809 74.440
0.84 113.926 74.040
0.85 110.935 73.794
0.86 106.740 73.501
0.87 104.320 73.238
0.88 103.382 73.034
0.89 104.111 72.960
0.90 104.905 72.939
0.91 104.486 72.705
0.92 104.419 72.410
0.93 104.702 72.357
0.94 104.437 72.226
0.95 103.421 71.262
0.96 100.617 69.077
0.97 104.837 66.064
0.98 103.472 62.380
0.99 98.709 58.657
1.00 --undefined-- 60.804
1.01 --undefined-- 67.772
1.02 123.767 72.475
1.03 121.031 74.833
1.04 117.459 75.778
1.05 115.151 76.049
1.06 111.365 76.107
1.07 110.094 76.246
1.08 108.572 76.451
1.09 107.387 76.552
1.10 107.395 76.512
1.11 107.391 76.205
1.12 106.149 75.588
1.13 105.916 74.790
1.14 106.356 73.988
1.15 105.860 72.871
1.16 103.619 71.135
1.17 98.986 69.142
1.18 97.945 67.557
1.19 94.960 66.269
1.20 89.016 64.589
1.21 83.108 61.854
1.22 --undefined-- 59.184
1.23 --undefined-- 57.534
1.24 --undefined-- 55.747
1.25 --undefined-- 54.930
1.26 --undefined-- 53.791
1.27 --undefined-- 54.476
1.28 --undefined-- 56.908
1.29 --undefined-- 59.327
1.30 125.312 62.583
1.31 134.363 65.527
1.32 136.879 67.020
1.33 134.423 66.873
1.34 131.323 65.263
1.35 129.743 62.470
1.36 128.500 58.580
1.37 --undefined-- 55.818
1.38 --undefined-- 57.873
1.39 --undefined-- 63.985
1.40 --undefined-- 70.718
1.41 137.852 75.066
1.42 137.477 77.315
1.43 137.578 78.373
1.44 136.995 78.952
1.45 137.296 79.214
1.46 136.978 79.138
1.47 137.100 78.847
1.48 137.206 77.920
1.49 135.075 75.281
1.50 117.240 70.010
1.51 131.185 63.632
1.52 --undefined-- 64.027
1.53 --undefined-- 69.496
1.54 141.728 74.435
1.55 135.448 77.251
1.56 129.065 78.334
1.57 126.339 78.660
1.58 125.993 78.918
1.59 127.923 79.183
1.60 132.814 79.496
1.61 133.287 79.701
1.62 144.851 79.697
1.63 147.890 79.568
1.64 148.383 78.394
1.65 144.534 75.165
1.66 155.835 70.596
1.67 159.437 67.095
1.68 165.645 64.262
1.69 172.220 61.400
1.70 172.665 60.742
1.71 174.461 67.353
1.72 159.517 73.988
1.73 150.573 77.672
1.74 142.511 78.854
1.75 132.205 78.439
1.76 127.069 77.631
1.77 124.835 77.160
1.78 124.552 76.916
1.79 125.808 76.828
1.80 125.361 76.909
1.81 125.539 77.126
1.82 126.382 77.405
1.83 127.095 77.617
1.84 127.785 77.820
1.85 128.106 77.690
1.86 127.279 76.228
1.87 108.311 72.540
1.88 125.101 67.165
1.89 112.125 66.408
1.90 --undefined-- 71.422
1.91 --undefined-- 74.721
1.92 116.191 75.859
1.93 113.479 75.577
1.94 109.806 74.753
1.95 107.873 74.149
1.96 107.437 73.915
1.97 107.856 73.845
1.98 109.089 73.733
1.99 110.686 73.637
2.00 111.496 73.606
2.01 112.047 73.686
2.02 112.820 73.816
2.03 112.259 73.353
2.04 108.932 71.348
2.05 102.334 67.333
2.06 102.386 63.320
2.07 163.491 62.409
2.08 163.855 61.536
2.09 158.911 60.342
2.10 156.622 59.522
2.11 153.524 58.408
2.12 149.861 59.664
2.13 147.764 65.154
2.14 122.094 69.754
2.15 113.260 72.331
2.16 105.741 73.221
2.17 102.566 72.922
2.18 100.993 71.892
2.19 100.570 70.699
2.20 103.446 70.541
2.21 108.300 72.028
2.22 112.797 73.917
2.23 113.265 75.118
2.24 114.007 75.541
2.25 117.581 75.795
2.26 118.467 76.160
2.27 118.858 75.852
2.28 117.358 73.814
2.29 --undefined-- 69.540
2.30 --undefined-- 63.335
2.31 --undefined-- 56.318
2.32 --undefined-- 53.669
2.33 --undefined-- 57.046
2.34 161.252 60.348
2.35 153.754 62.498
2.36 153.547 66.113
2.37 136.041 71.575
2.38 134.610 75.118
2.39 121.360 76.042
2.40 116.353 74.879
2.41 104.453 72.263
2.42 98.462 69.279
2.43 102.335 68.445
2.44 103.316 69.277
2.45 102.285 69.835
2.46 101.774 69.891
2.47 101.923 69.669
2.48 100.850 69.251
2.49 99.556 68.621
2.50 97.699 67.722
2.51 96.074 66.535
2.52 94.217 65.175
2.53 94.137 63.623
2.54 93.948 62.469
2.55 --undefined-- 63.017
2.56 --undefined-- 65.282
2.57 --undefined-- 69.256
2.58 116.580 72.798
2.59 113.144 74.747
2.60 111.332 75.583
2.61 111.240 76.048
2.62 112.585 76.524
2.63 114.777 76.872
2.64 116.039 76.688
2.65 119.353 75.546
2.66 115.332 72.872
2.67 116.155 68.774
2.68 123.996 65.163
2.69 130.798 63.215
2.70 139.075 65.826
2.71 154.911 72.402
2.72 155.177 77.328
2.73 155.311 79.873
2.74 154.021 80.585
2.75 150.989 79.881
2.76 146.368 77.598
2.77 136.640 73.272
2.78 141.954 67.440
2.79 141.487 62.748
2.80 142.733 59.290
2.81 145.461 56.493
2.82 --undefined-- 53.822
2.83 --undefined-- 56.292
2.84 --undefined-- 67.366
2.85 --undefined-- 74.783
2.86 --undefined-- 78.453
2.87 --undefined-- 79.236
2.88 121.931 78.371
2.89 116.968 77.361
2.90 110.539 76.578
2.91 106.584 75.676
2.92 105.024 74.120
2.93 104.157 71.588
2.94 104.010 69.201
2.95 104.139 68.704
2.96 101.134 68.663
2.97 96.150 67.696
2.98 91.861 65.649
2.99 92.333 62.263
3.00 --undefined-- 57.182
3.01 --undefined-- 52.401
3.02 --undefined-- 52.911
3.03 --undefined-- 54.179
3.04 --undefined-- 54.681
3.05 --undefined-- 57.900
3.06 127.165 61.430
3.07 131.301 62.549
3.08 139.287 61.460
3.09 143.911 59.935
3.10 143.907 59.526
3.11 145.638 59.773
3.12 146.217 60.471
3.13 147.760 61.107
3.14 147.633 61.211
3.15 147.112 60.957
3.16 147.241 60.513
3.17 147.624 59.957
3.18 147.043 59.469
3.19 145.528 59.173
3.20 143.738 58.818
3.21 140.420 58.179
3.22 136.296 56.951
3.23 132.504 54.812
3.24 126.576 51.861
3.25 --undefined-- 48.812
3.26 --undefined-- 46.527
3.27 --undefined-- 50.471
3.28 --undefined-- 63.527
3.29 --undefined-- 72.429
3.30 195.567 77.275
3.31 195.979 78.819
3.32 196.108 78.123
3.33 200.821 77.566
3.34 208.765 78.169
3.35 211.206 78.216
3.36 209.232 76.884
3.37 209.629 75.311
3.38 211.187 75.127
3.39 208.360 75.301
3.40 202.171 75.296
3.41 193.983 75.779
3.42 192.942 77.544
3.43 173.946 79.192
3.44 167.872 79.634
3.45 158.308 79.473
3.46 148.918 79.376
3.47 141.357 79.270
3.48 137.876 79.078
3.49 136.964 79.001
3.50 133.379 78.837
3.51 133.153 77.717
3.52 125.719 74.744
3.53 125.496 69.949
3.54 123.698 65.026
3.55 150.896 62.138
3.56 150.157 61.216
3.57 150.096 60.715
3.58 149.156 60.623
3.59 150.688 62.138
3.60 --undefined-- 67.552
3.61 --undefined-- 74.159
3.62 --undefined-- 77.488
3.63 --undefined-- 77.624
3.64 119.796 76.776
3.65 118.887 76.568
3.66 117.259 76.075
3.67 114.795 74.950
3.68 110.925 73.152
3.69 110.778 71.569
3.70 112.789 71.078
3.71 112.984 71.147
3.72 112.490 71.231
3.73 112.385 71.304
3.74 112.433 71.460
3.75 113.151 71.694
3.76 114.008 71.815
3.77 115.735 71.609
3.78 118.028 71.084
3.79 119.284 70.352
3.80 116.142 69.300
3.81 114.745 67.823
3.82 114.285 66.010
3.83 113.185 63.543
3.84 111.973 60.454
3.85 168.704 58.928
3.86 169.308 63.217
3.87 169.053 70.926
3.88 170.821 75.679
3.89 154.439 77.455
3.90 151.811 77.527
3.91 147.385 77.128
3.92 144.163 76.486
3.93 143.077 75.686
3.94 143.479 74.882
3.95 142.954 73.684
3.96 143.737 72.342
3.97 146.535 71.693
3.98 149.005 71.591
3.99 151.871 71.888
4.00 156.165 72.695
4.01 159.301 73.845
4.02 161.937 74.625
4.03 165.509 74.553
4.04 169.739 74.117
4.05 174.106 74.320
4.06 179.531 75.474
4.07 179.933 76.526
4.08 181.168 76.970
4.09 183.052 77.173
4.10 185.311 77.606
4.11 187.086 78.406
4.12 187.142 79.046
4.13 184.625 78.660
4.14 180.424 77.234
4.15 172.243 75.467
4.16 160.676 73.188
4.17 151.228 71.152
4.18 150.704 71.110
4.19 150.697 73.046
4.20 152.584 75.216
4.21 152.169 76.750
4.22 149.798 77.520
4.23 143.862 77.645
4.24 139.858 77.336
4.25 133.672 76.845
4.26 130.502 76.457
4.27 132.205 76.519
4.28 131.455 76.607
4.29 127.022 75.653
4.30 124.191 73.638
4.31 130.214 71.896
4.32 131.418 71.212
4.33 128.009 71.956
4.34 142.125 74.894
4.35 139.027 77.805
4.36 140.492 79.265
4.37 141.303 79.640
4.38 141.052 79.464
4.39 139.975 79.129
4.40 139.899 79.015
4.41 140.678 79.311
4.42 141.712 79.665
4.43 142.466 79.609
4.44 140.285 78.744
4.45 141.619 76.599
4.46 145.693 73.474
4.47 142.627 70.713
4.48 139.127 68.366
4.49 139.009 66.150
4.50 140.841 66.666
4.51 142.004 71.536
4.52 142.932 75.934
4.53 139.765 77.945
4.54 134.858 78.013
4.55 130.730 77.162
4.56 128.074 76.173
4.57 129.982 75.136
4.58 132.601 73.267
4.59 141.797 71.164
4.60 150.904 70.613
4.61 157.920 71.004
4.62 170.124 71.463
4.63 181.366 71.854
4.64 189.940 72.350
4.65 196.934 73.030
4.66 201.742 73.675
4.67 205.813 74.403
4.68 206.691 74.654
4.69 197.149 74.287
4.70 187.093 73.946
4.71 180.920 73.291
4.72 171.429 71.844
4.73 156.210 70.748
4.74 152.759 71.356
4.75 150.127 72.858
4.76 147.379 74.291
4.77 141.573 75.076
4.78 136.521 75.114
4.79 134.605 74.836
4.80 133.142 74.663
4.81 132.306 74.343
4.82 137.475 73.976
4.83 145.096 73.809
4.84 149.029 73.634
4.85 154.393 73.315
4.86 158.143 73.006
4.87 164.593 72.846
4.88 172.810 72.726
4.89 178.307 72.793
4.90 181.555 73.251
4.91 183.544 73.667
4.92 185.545 73.412
4.93 185.943 72.114
4.94 181.658 69.834
4.95 176.014 66.855
4.96 164.424 --undefined--
4.97 160.511 --undefined--
4.98 --undefined-- --undefined--
4.99 --undefined-- --undefined--
