Time Pitch Intensity
0.01 --undefined-- --undefined--
0.02 188.824 --undefined--
0.03 189.109 --undefined--
0.04 188.980 --undefined--
0.05 186.995 73.425
0.06 --undefined-- 72.788
0.07 --undefined-- 70.908
0.08 --undefined-- 66.775
0.09 --undefined-- 61.491
0.10 --undefined-- 57.531
0.11 --undefined-- 53.622
0.12 --undefined-- 49.771
0.13 --undefined-- 48.145
0.14 --undefined-- 46.970
0.15 --undefined-- 47.536
0.16 --undefined-- 49.717
0.17 --undefined-- 50.013
0.18 --undefined-- 48.780
0.19 --undefined-- 47.322
0.20 --undefined-- 45.581
0.21 --undefined-- 46.220
0.22 --undefined-- 50.137
0.23 --undefined-- 53.416
0.24 --undefined-- 54.392
0.25 --undefined-- 52.208
0.26 --undefined-- 47.344
0.27 --undefined-- 46.595
0.28 --undefined-- 50.967
0.29 --undefined-- 53.747
0.30 --undefined-- 53.706
0.31 --undefined-- 53.610
0.32 --undefined-- 54.298
0.33 --undefined-- 52.448
0.34 --undefined-- 48.479
0.35 --undefined-- 47.266
0.36 --undefined-- 48.483
0.37 --undefined-- 49.584
0.38 --undefined-- 51.188
0.39 --undefined-- 51.733
0.40 --undefined-- 51.235
0.41 --undefined-- 52.254
0.42 --undefined-- 52.715
0.43 --undefined-- 50.705
0.44 --undefined-- 48.913
0.45 --undefined-- 48.633
0.46 --undefined-- 51.258
0.47 --undefined-- 57.957
0.48 266.240 62.294
0.49 250.031 64.418
0.50 251.533 65.774
0.51 253.482 66.779
0.52 252.440 67.139
0.53 248.277 66.680
0.54 240.446 65.515
0.55 234.733 64.323
0.56 220.779 63.891
0.57 204.814 65.545
0.58 187.468 68.262
0.59 187.435 69.265
0.60 --undefined-- 67.882
0.61 --undefined-- 65.243
0.62 --undefined-- 62.487
0.63 115.800 59.083
0.64 117.494 56.923
0.65 122.193 57.284
0.66 135.446 58.209
0.67 --undefined-- 58.805
0.68 --undefined-- 59.421
0.69 233.174 62.145
0.70 249.415 64.918
0.71 255.464 66.076
0.72 265.071 66.615
0.73 271.526 67.395
0.74 275.707 67.646
0.75 273.844 66.453
0.76 267.417 63.262
0.77 248.564 58.105
0.78 --undefined-- 52.354
0.79 --undefined-- 47.888
0.80 --undefined-- 48.413
0.81 --undefined-- 51.604
0.82 --undefined-- 57.057
0.83 230.038 63.544
0.84 219.155 67.643
0.85 217.042 69.207
0.86 216.034 69.054
0.87 219.189 68.777
0.88 224.785 69.160
0.89 231.772 69.841
0.90 236.251 70.277
0.91 239.467 69.922
0.92 240.482 69.557
0.93 238.650 70.378
0.94 234.950 71.219
0.95 --undefined-- 71.244
0.96 --undefined-- 70.241
0.97 --undefined-- 67.805
0.98 --undefined-- 64.552
0.99 --undefined-- 61.367
1.00 --undefined-- 58.628
1.01 --undefined-- 57.659
1.02 --undefined-- 58.970
1.03 --undefined-- 60.797
1.04 --undefined-- 63.219
1.05 --undefined-- 67.045
1.06 248.449 70.132
1.07 255.251 71.357
1.08 267.360 71.045
1.09 283.576 69.938
1.10 293.396 68.706
1.11 151.855 67.468
1.12 152.271 66.290
1.13 298.676 64.683
1.14 291.332 61.527
1.15 292.517 56.016
1.16 --undefined-- 49.809
1.17 --undefined-- 48.335
1.18 --undefined-- 49.686
1.19 --undefined-- 53.245
1.20 --undefined-- 54.876
1.21 --undefined-- 53.087
1.22 --undefined-- 48.857
1.23 --undefined-- 50.366
1.24 --undefined-- 54.769
1.25 --undefined-- 57.630
1.26 --undefined-- 61.546
1.27 283.064 65.248
1.28 282.253 67.486
1.29 283.222 68.848
1.30 284.101 69.622
1.31 284.669 69.729
1.32 285.071 69.120
1.33 286.489 67.981
1.34 288.604 67.113
1.35 290.724 67.126
1.36 288.760 67.017
1.37 283.636 66.117
1.38 278.222 64.465
1.39 271.039 62.661
1.40 268.160 61.986
1.41 273.896 62.601
1.42 263.192 63.321
1.43 239.522 63.840
1.44 221.306 64.309
1.45 210.728 64.611
1.46 207.179 64.831
1.47 208.531 65.022
1.48 213.432 65.334
1.49 217.160 65.522
1.50 217.649 64.695
1.51 214.726 61.959
1.52 199.168 56.807
1.53 --undefined-- 50.781
1.54 --undefined-- 49.314
1.55 --undefined-- 50.244
1.56 --undefined-- 54.868
1.57 --undefined-- 60.010
1.58 217.265 62.852
1.59 209.370 64.007
1.60 201.331 64.353
1.61 195.129 64.582
1.62 191.124 64.709
1.63 187.688 64.118
1.64 185.183 63.328
1.65 183.490 63.377
1.66 176.766 63.670
1.67 169.594 63.832
1.68 165.435 64.139
1.69 165.534 64.384
1.70 169.654 64.712
1.71 182.050 65.448
1.72 180.404 66.081
1.73 180.850 66.125
1.74 182.035 65.260
1.75 183.377 63.074
1.76 185.305 59.614
1.77 183.660 55.682
1.78 --undefined-- 52.181
1.79 --undefined-- 50.169
1.80 --undefined-- 50.572
1.81 --undefined-- 50.408
1.82 --undefined-- 49.272
1.83 --undefined-- 47.824
1.84 --undefined-- 47.092
1.85 --undefined-- 47.288
1.86 --undefined-- 47.522
1.87 --undefined-- 47.867
1.88 --undefined-- 48.943
1.89 --undefined-- 52.839
1.90 --undefined-- 60.083
1.91 270.870 65.090
1.92 271.918 67.403
1.93 270.106 68.422
1.94 268.704 69.240
1.95 268.084 69.729
1.96 268.541 69.539
1.97 270.495 68.776
1.98 272.569 67.873
1.99 275.697 67.241
2.00 277.952 67.035
2.01 279.083 67.008
2.02 280.064 66.942
2.03 280.752 66.843
2.04 280.782 66.770
2.05 280.175 66.610
2.06 278.708 66.524
2.07 279.634 67.204
2.08 279.342 67.914
2.09 278.513 68.086
2.10 277.710 67.993
2.11 276.374 67.681
2.12 274.900 66.865
2.13 271.928 64.730
2.14 266.611 60.407
2.15 --undefined-- 54.420
2.16 --undefined-- 51.216
2.17 --undefined-- 49.975
2.18 --undefined-- 49.643
2.19 --undefined-- 51.369
2.20 --undefined-- 54.417
2.21 --undefined-- 59.224
2.22 288.291 63.666
2.23 275.352 66.185
2.24 268.942 67.487
2.25 264.701 68.739
2.26 261.711 69.932
2.27 259.605 70.625
2.28 258.453 70.691
2.29 257.558 70.173
2.30 257.255 69.265
2.31 257.661 68.247
2.32 258.650 67.421
2.33 259.730 66.773
2.34 259.835 66.023
2.35 259.119 65.001
2.36 257.442 63.770
2.37 251.093 62.657
2.38 240.950 61.740
2.39 227.323 60.572
2.40 210.745 60.473
2.41 197.966 63.634
2.42 188.353 66.710
2.43 180.357 67.644
2.44 170.462 66.219
2.45 179.435 63.423
2.46 --undefined-- 60.911
2.47 --undefined-- 58.767
2.48 --undefined-- 56.372
2.49 --undefined-- 53.901
2.50 --undefined-- 53.697
2.51 --undefined-- 54.625
2.52 --undefined-- 54.432
2.53 --undefined-- 53.015
2.54 --undefined-- 51.242
2.55 --undefined-- 50.728
2.56 --undefined-- 49.908
2.57 --undefined-- 48.507
2.58 --undefined-- 48.342
2.59 --undefined-- 48.399
2.60 --undefined-- 49.575
2.61 --undefined-- 55.160
2.62 243.003 60.832
2.63 232.584 64.051
2.64 226.329 65.686
2.65 224.143 66.480
2.66 223.596 66.560
2.67 224.857 66.101
2.68 226.815 65.581
2.69 228.121 65.433
2.70 229.256 65.451
2.71 229.911 65.354
2.72 230.320 65.216
2.73 229.975 65.076
2.74 228.993 64.902
2.75 226.311 64.703
2.76 223.260 64.438
2.77 218.938 64.003
2.78 209.689 63.550
2.79 187.920 63.491
2.80 170.021 63.567
2.81 178.858 63.328
2.82 179.742 62.701
2.83 178.668 62.208
2.84 179.009 61.424
2.85 --undefined-- 59.557
2.86 --undefined-- 58.393
2.87 --undefined-- 59.363
2.88 --undefined-- 61.726
2.89 180.085 64.348
2.90 184.303 66.305
2.91 182.748 67.395
2.92 185.385 68.018
2.93 190.588 68.787
2.94 190.043 69.909
2.95 187.218 70.857
2.96 184.546 71.566
2.97 180.257 72.655
2.98 178.192 73.813
2.99 178.325 74.631
3.00 179.339 75.120
3.01 179.879 75.180
3.02 180.122 74.761
3.03 178.392 73.954
3.04 174.542 72.658
3.05 169.979 70.443
3.06 168.412 66.950
3.07 --undefined-- 62.728
3.08 --undefined-- 59.005
3.09 --undefined-- 56.368
3.10 --undefined-- 54.948
3.11 --undefined-- 53.250
3.12 --undefined-- 51.669
3.13 --undefined-- 52.995
3.14 --undefined-- 53.929
3.15 --undefined-- 53.190
3.16 --undefined-- 51.802
3.17 --undefined-- 54.176
3.18 --undefined-- 56.930
3.19 --undefined-- 56.992
3.20 --undefined-- 54.975
3.21 --undefined-- 51.617
3.22 --undefined-- 47.782
3.23 --undefined-- 47.414
3.24 --undefined-- 47.582
3.25 --undefined-- 46.742
3.26 --undefined-- 46.944
3.27 --undefined-- 47.522
3.28 --undefined-- 47.748
3.29 --undefined-- 45.850
3.30 --undefined-- 41.951
3.31 --undefined-- 42.107
3.32 --undefined-- 44.575
3.33 --undefined-- 46.600
3.34 --undefined-- 46.220
3.35 --undefined-- 45.001
3.36 --undefined-- 46.327
3.37 --undefined-- 47.185
3.38 --undefined-- 47.297
3.39 --undefined-- 49.492
3.40 --undefined-- 51.135
3.41 --undefined-- 49.779
3.42 --undefined-- 46.671
3.43 --undefined-- 46.083
3.44 --undefined-- 47.176
3.45 --undefined-- 47.278
3.46 --undefined-- 46.689
3.47 --undefined-- 46.304
3.48 --undefined-- 47.144
3.49 --undefined-- 48.566
3.50 --undefined-- 48.513
3.51 --undefined-- 47.780
3.52 --undefined-- 48.562
3.53 --undefined-- 51.459
3.54 --undefined-- 53.579
3.55 --undefined-- 53.357
3.56 --undefined-- 51.609
3.57 --undefined-- 48.951
3.58 --undefined-- 50.537
3.59 --undefined-- 58.333
3.60 186.050 63.099
3.61 193.726 64.493
3.62 228.087 64.079
3.63 243.003 64.052
3.64 250.086 64.609
3.65 250.329 65.535
3.66 248.866 66.194
3.67 246.290 65.778
3.68 240.813 64.248
3.69 228.244 62.943
3.70 --undefined-- 65.203
3.71 251.236 68.429
3.72 231.029 70.054
3.73 222.616 70.725
3.74 209.850 71.493
3.75 198.044 72.723
3.76 190.755 73.338
3.77 178.067 72.643
3.78 164.896 71.185
3.79 156.376 69.854
3.80 293.394 68.707
3.81 281.694 67.756
3.82 276.063 67.074
3.83 273.790 66.432
3.84 272.927 65.978
3.85 269.696 65.778
3.86 264.495 65.698
3.87 258.867 65.638
3.88 254.297 65.679
3.89 251.485 65.898
3.90 249.750 66.325
3.91 248.064 66.767
3.92 246.043 67.016
3.93 243.888 67.234
3.94 243.292 67.615
3.95 244.087 67.976
3.96 245.300 67.962
3.97 245.231 67.486
3.98 245.968 67.213
3.99 247.786 67.719
4.00 248.573 68.440
4.01 249.467 68.945
4.02 252.511 69.478
4.03 255.182 70.161
4.04 258.684 70.426
4.05 263.357 69.940
4.06 266.618 68.926
4.07 270.089 68.208
4.08 271.920 68.180
4.09 273.208 67.554
4.10 271.614 65.019
4.11 258.570 60.756
4.12 257.715 56.651
4.13 265.805 52.871
4.14 --undefined-- 47.767
4.15 --undefined-- 43.513
4.16 --undefined-- 47.845
4.17 --undefined-- 56.544
4.18 241.520 63.459
4.19 233.215 67.930
4.20 235.556 70.177
4.21 243.815 70.333
4.22 262.252 68.982
4.23 284.047 67.995
4.24 151.077 68.655
4.25 159.705 69.825
4.26 166.496 70.713
4.27 169.721 71.139
4.28 170.639 71.136
4.29 172.138 70.694
4.30 174.319 69.761
4.31 173.690 68.502
4.32 163.481 67.952
4.33 --undefined-- 68.339
4.34 --undefined-- 67.471
4.35 --undefined-- 64.678
4.36 --undefined-- 61.659
4.37 --undefined-- 58.537
4.38 --undefined-- 54.528
4.39 --undefined-- 50.076
4.40 --undefined-- 49.037
4.41 --undefined-- 49.996
4.42 --undefined-- 52.774
4.43 74.621 56.267
4.44 97.661 59.054
4.45 98.255 60.500
4.46 97.393 61.384
4.47 186.214 63.206
4.48 185.489 65.306
4.49 186.431 66.632
4.50 183.787 66.931
4.51 182.887 66.448
4.52 179.985 65.561
4.53 175.247 64.760
4.54 167.540 64.115
4.55 161.865 63.410
4.56 159.997 62.576
4.57 161.626 61.985
4.58 164.222 61.736
4.59 167.215 61.760
4.60 170.932 61.539
4.61 174.604 60.546
4.62 180.989 59.070
4.63 186.367 56.996
4.64 --undefined-- 53.988
4.65 --undefined-- 51.712
4.66 --undefined-- 50.634
4.67 --undefined-- 50.245
4.68 --undefined-- 50.538
4.69 --undefined-- 49.118
4.70 --undefined-- 46.605
4.71 --undefined-- 50.155
4.72 --undefined-- 56.485
4.73 209.443 61.709
4.74 204.706 65.192
4.75 205.009 66.827
4.76 205.230 66.769
4.77 204.002 65.296
4.78 190.371 62.945
4.79 186.441 60.423
4.80 193.310 57.504
4.81 --undefined-- 54.845
4.82 --undefined-- 56.098
4.83 --undefined-- 60.060
4.84 208.722 64.615
4.85 193.887 67.222
4.86 183.122 67.890
4.87 171.615 67.481
4.88 172.764 66.687
4.89 173.321 65.916
4.90 179.381 65.782
4.91 185.674 66.315
4.92 194.208 66.148
4.93 209.399 64.976
4.94 225.421 64.519
4.95 235.072 65.155
4.96 246.899 65.876
4.97 260.853 66.690
4.98 273.674 67.898
4.99 285.105 69.456
5.00 293.175 70.876
5.01 299.170 71.518
5.02 151.779 70.805
5.03 152.135 68.049
5.04 149.777 --undefined--
5.05 --undefined-- --undefined--
5.06 --undefined-- --undefined--
5.07 --undefined-- --undefined--
