Time Pitch Intensity
0.01 --undefined-- --undefined--
0.02 164.088 --undefined--
0.03 164.702 --undefined--
0.04 163.948 --undefined--
0.05 162.165 60.764
0.06 160.017 61.124
0.07 157.787 61.194
0.08 154.758 61.160
0.09 156.719 61.766
0.10 151.870 63.009
0.11 152.141 63.702
0.12 152.566 63.594
0.13 152.974 63.237
0.14 154.071 62.770
0.15 155.212 62.303
0.16 154.387 62.150
0.17 152.686 62.271
0.18 152.570 62.382
0.19 152.530 62.487
0.20 152.654 62.553
0.21 152.866 62.581
0.22 153.321 62.867
0.23 154.268 63.399
0.24 155.360 63.421
0.25 156.664 62.627
0.26 157.797 61.688
0.27 158.736 60.651
0.28 159.652 58.928
0.29 152.484 56.214
0.30 147.299 52.850
0.31 165.853 50.343
0.32 --undefined-- 49.340
0.33 --undefined-- 48.675
0.34 --undefined-- 48.990
0.35 --undefined-- 51.115
0.36 --undefined-- 52.170
0.37 --undefined-- 52.031
0.38 --undefined-- 51.039
0.39 --undefined-- 50.746
0.40 --undefined-- 51.295
0.41 --undefined-- 52.242
0.42 --undefined-- 58.030
0.43 225.731 62.860
0.44 211.327 65.346
0.45 202.418 66.594
0.46 196.137 67.444
0.47 193.467 67.962
0.48 192.237 68.158
0.49 191.357 68.370
0.50 190.626 68.789
0.51 189.658 69.257
0.52 189.462 69.567
0.53 188.950 69.712
0.54 188.558 69.712
0.55 188.173 69.641
0.56 187.199 69.562
0.57 186.004 69.334
0.58 185.073 68.443
0.59 179.926 66.382
0.60 180.064 64.164
0.61 180.158 63.239
0.62 175.987 62.618
0.63 175.611 63.595
0.64 174.675 65.600
0.65 172.354 66.196
0.66 163.907 65.681
0.67 162.310 65.363
0.68 159.694 65.334
0.69 158.761 64.924
0.70 157.537 63.950
0.71 155.606 62.930
0.72 156.922 62.583
0.73 160.145 62.419
0.74 161.753 61.916
0.75 162.610 61.069
0.76 162.932 59.531
0.77 159.274 56.804
0.78 --undefined-- 53.805
0.79 --undefined-- 52.787
0.80 --undefined-- 55.135
0.81 --undefined-- 60.413
0.82 --undefined-- 63.683
0.83 --undefined-- 63.580
0.84 --undefined-- 61.159
0.85 --undefined-- 58.216
0.86 --undefined-- 55.396
0.87 188.878 56.165
0.88 197.932 58.672
0.89 209.810 60.742
0.90 220.823 62.517
0.91 224.344 64.272
0.92 214.182 65.888
0.93 210.230 67.088
0.94 207.744 67.828
0.95 204.964 68.229
0.96 202.462 68.536
0.97 202.387 68.638
0.98 202.607 68.153
0.99 204.251 67.292
1.00 206.340 66.426
1.01 207.718 65.685
1.02 208.636 65.225
1.03 208.558 64.981
1.04 207.341 64.840
1.05 205.534 64.857
1.06 204.290 64.967
1.07 201.122 65.193
1.08 198.001 65.671
1.09 194.316 66.348
1.10 191.483 67.228
1.11 187.860 68.351
1.12 184.323 69.427
1.13 185.842 70.245
1.14 187.202 70.865
1.15 188.067 71.379
1.16 188.593 71.875
1.17 188.666 72.398
1.18 190.970 72.940
1.19 193.980 73.022
1.20 195.295 71.940
1.21 195.679 69.221
1.22 195.014 64.737
1.23 183.911 59.324
1.24 185.672 55.716
1.25 192.622 53.481
1.26 --undefined-- 50.643
1.27 --undefined-- 50.680
1.28 --undefined-- 51.192
1.29 --undefined-- 51.259
1.30 --undefined-- 53.774
1.31 245.014 58.186
1.32 213.326 61.457
1.33 205.650 63.701
1.34 202.422 65.410
1.35 200.912 66.468
1.36 201.722 66.706
1.37 200.806 66.130
1.38 197.578 65.341
1.39 196.627 64.782
1.40 199.202 64.366
1.41 198.254 64.140
1.42 195.841 64.367
1.43 194.859 64.891
1.44 190.856 66.175
1.45 187.701 67.816
1.46 184.399 68.187
1.47 182.272 66.974
1.48 181.626 65.382
1.49 181.117 64.698
1.50 180.065 64.098
1.51 178.893 62.141
1.52 --undefined-- 58.321
1.53 --undefined-- 53.615
1.54 --undefined-- 50.465
1.55 --undefined-- 50.430
1.56 --undefined-- 50.676
1.57 --undefined-- 50.644
1.58 --undefined-- 50.169
1.59 --undefined-- 48.604
1.60 --undefined-- 46.699
1.61 --undefined-- 46.992
1.62 --undefined-- 47.490
1.63 --undefined-- 47.841
1.64 --undefined-- 48.136
1.65 --undefined-- 49.374
1.66 --undefined-- 53.486
1.67 --undefined-- 56.055
1.68 --undefined-- 57.769
1.69 --undefined-- 61.494
1.70 218.700 65.152
1.71 209.133 67.542
1.72 201.852 68.916
1.73 197.504 69.441
1.74 196.556 69.129
1.75 196.740 68.203
1.76 198.122 67.309
1.77 199.801 66.702
1.78 200.046 66.594
1.79 199.654 67.010
1.80 199.648 67.370
1.81 200.297 67.391
1.82 200.606 66.968
1.83 200.257 65.736
1.84 190.362 63.328
1.85 188.568 59.438
1.86 189.919 54.919
1.87 --undefined-- 53.708
1.88 --undefined-- 54.610
1.89 --undefined-- 58.701
1.90 212.343 63.710
1.91 198.584 67.075
1.92 193.315 69.292
1.93 191.928 70.586
1.94 191.933 71.106
1.95 192.414 71.078
1.96 193.715 70.566
1.97 195.229 69.408
1.98 197.625 67.598
1.99 200.088 65.826
2.00 202.596 64.391
2.01 201.577 62.481
2.02 192.338 59.858
2.03 199.233 58.929
2.04 267.554 60.104
2.05 262.857 60.298
2.06 229.764 62.168
2.07 197.461 64.732
2.08 178.491 65.768
2.09 167.184 65.742
2.10 165.769 65.447
2.11 165.252 65.431
2.12 165.662 65.696
2.13 170.267 65.839
2.14 172.098 65.669
2.15 173.643 65.042
2.16 175.849 63.684
2.17 178.339 61.091
2.18 182.788 56.899
2.19 --undefined-- 52.171
2.20 --undefined-- 49.631
2.21 --undefined-- 53.368
2.22 --undefined-- 60.172
2.23 245.841 64.582
2.24 246.911 66.581
2.25 250.161 66.872
2.26 255.226 65.842
2.27 260.305 63.219
2.28 247.876 58.755
2.29 252.266 53.174
2.30 --undefined-- 48.984
2.31 --undefined-- 49.044
2.32 --undefined-- 50.936
2.33 --undefined-- 50.849
2.34 --undefined-- 48.631
2.35 --undefined-- 51.554
2.36 --undefined-- 55.632
2.37 --undefined-- 58.201
2.38 273.526 62.779
2.39 265.066 67.502
2.40 263.933 70.349
2.41 262.950 71.413
2.42 263.335 71.140
2.43 265.827 69.967
2.44 267.801 68.324
2.45 267.766 66.784
2.46 266.368 66.033
2.47 268.304 66.067
2.48 269.783 66.265
2.49 271.057 66.384
2.50 271.568 66.407
2.51 271.796 66.220
2.52 271.263 65.944
2.53 270.281 65.722
2.54 266.623 65.442
2.55 261.617 65.106
2.56 255.218 64.704
2.57 245.800 64.050
2.58 235.176 62.684
2.59 211.189 60.682
2.60 190.369 60.457
2.61 180.332 63.270
2.62 178.375 66.877
2.63 184.826 69.381
2.64 183.146 69.931
2.65 172.059 68.791
2.66 171.769 67.769
2.67 174.456 68.133
2.68 182.092 68.859
2.69 190.311 69.232
2.70 195.888 69.108
2.71 208.628 68.943
2.72 223.139 69.412
2.73 228.404 69.474
2.74 236.658 68.347
2.75 253.962 67.327
2.76 267.742 67.063
2.77 270.834 66.498
2.78 267.065 64.904
2.79 261.689 62.010
2.80 --undefined-- 58.230
2.81 --undefined-- 54.443
2.82 --undefined-- 51.572
2.83 --undefined-- 52.052
2.84 --undefined-- 52.841
2.85 --undefined-- 51.562
2.86 --undefined-- 50.168
2.87 --undefined-- 51.700
2.88 --undefined-- 54.799
2.89 --undefined-- 56.358
2.90 --undefined-- 55.473
2.91 --undefined-- 55.413
2.92 --undefined-- 59.667
2.93 141.785 63.935
2.94 146.996 67.225
2.95 153.339 69.492
2.96 158.235 70.879
2.97 160.318 71.737
2.98 160.437 71.920
2.99 159.068 70.649
3.00 154.723 67.047
3.01 --undefined-- 60.742
3.02 --undefined-- 54.537
3.03 --undefined-- 52.465
3.04 --undefined-- 51.859
3.05 --undefined-- 55.787
3.06 179.617 62.377
3.07 180.577 67.183
3.08 180.470 70.203
3.09 180.607 72.131
3.10 180.711 73.187
3.11 181.564 73.291
3.12 181.885 72.453
3.13 180.259 71.081
3.14 177.441 70.620
3.15 179.840 71.212
3.16 179.847 71.784
3.17 179.149 72.069
3.18 177.786 71.866
3.19 174.374 71.293
3.20 168.127 70.829
3.21 159.864 70.817
3.22 153.137 70.551
3.23 277.807 69.235
3.24 239.445 67.761
3.25 224.356 67.140
3.26 208.847 66.547
3.27 207.709 66.029
3.28 209.482 66.124
3.29 219.425 66.552
3.30 222.640 66.541
3.31 229.311 66.003
3.32 239.583 65.968
3.33 247.131 66.496
3.34 257.419 66.907
3.35 267.295 67.223
3.36 281.296 67.574
3.37 286.137 67.954
3.38 290.338 68.360
3.39 293.778 68.682
3.40 297.672 68.859
3.41 151.551 68.802
3.42 154.170 68.540
3.43 157.156 68.396
3.44 158.973 68.478
3.45 159.437 68.564
3.46 158.724 68.522
3.47 154.751 68.497
3.48 295.086 68.524
3.49 284.720 67.810
3.50 266.441 65.585
3.51 225.864 62.267
3.52 215.614 60.019
3.53 206.966 61.762
3.54 210.908 64.765
3.55 205.236 66.676
3.56 201.433 67.232
3.57 199.408 66.716
3.58 192.023 65.134
3.59 186.850 61.943
3.60 189.300 56.825
3.61 --undefined-- 51.407
3.62 --undefined-- 52.070
3.63 --undefined-- 58.796
3.64 239.605 64.225
3.65 235.397 67.104
3.66 233.945 68.197
3.67 234.223 68.465
3.68 237.155 68.038
3.69 240.343 66.226
3.70 240.215 62.678
3.71 231.356 58.849
3.72 227.749 56.272
3.73 231.902 53.510
3.74 --undefined-- 50.385
3.75 --undefined-- 47.767
3.76 --undefined-- 47.516
3.77 --undefined-- 50.303
3.78 --undefined-- 54.426
3.79 289.828 57.940
3.80 286.208 62.760
3.81 258.706 67.663
3.82 255.773 71.106
3.83 255.525 73.415
3.84 255.348 74.899
3.85 255.420 75.672
3.86 255.361 75.863
3.87 255.383 75.602
3.88 255.649 75.044
3.89 256.227 74.348
3.90 257.117 73.684
3.91 257.644 73.116
3.92 257.949 72.588
3.93 258.523 71.855
3.94 260.077 70.540
3.95 262.362 68.698
3.96 263.597 66.979
3.97 263.410 65.874
3.98 262.623 65.216
3.99 262.279 64.616
4.00 261.029 63.974
4.01 257.205 63.146
4.02 252.095 61.898
4.03 247.104 60.754
4.04 243.408 60.744
4.05 236.251 62.009
4.06 208.429 63.939
4.07 187.338 66.004
4.08 177.151 67.670
4.09 172.664 68.296
4.10 173.772 67.891
4.11 178.746 67.523
4.12 181.477 67.716
4.13 185.478 67.946
4.14 192.148 67.934
4.15 196.113 67.430
4.16 199.383 66.194
4.17 203.975 64.545
4.18 210.234 63.514
4.19 218.250 63.584
4.20 224.616 63.812
4.21 220.785 63.819
4.22 207.164 63.773
4.23 192.358 64.102
4.24 184.184 64.658
4.25 178.503 64.695
4.26 171.562 64.192
4.27 167.710 63.417
4.28 163.505 62.467
4.29 157.465 60.497
4.30 --undefined-- 56.337
4.31 --undefined-- 50.088
4.32 --undefined-- 48.500
4.33 --undefined-- 50.971
4.34 --undefined-- 52.021
4.35 --undefined-- 52.107
4.36 --undefined-- 52.089
4.37 --undefined-- 51.509
4.38 --undefined-- 53.572
4.39 --undefined-- 60.087
4.40 --undefined-- 64.698
4.41 --undefined-- 66.918
4.42 169.064 67.540
4.43 164.697 66.776
4.44 161.578 64.448
4.45 --undefined-- 63.395
4.46 --undefined-- 64.736
4.47 --undefined-- 63.636
4.48 --undefined-- 59.201
4.49 --undefined-- 53.212
4.50 --undefined-- 48.744
4.51 --undefined-- 47.992
4.52 --undefined-- 49.854
4.53 --undefined-- 52.175
4.54 --undefined-- 53.607
4.55 --undefined-- 54.747
4.56 187.590 56.808
4.57 178.521 58.615
4.58 180.088 61.198
4.59 182.097 64.550
4.60 182.244 66.852
4.61 181.107 67.708
4.62 179.799 67.524
4.63 177.383 66.887
4.64 174.646 66.283
4.65 173.380 64.817
4.66 --undefined-- 61.212
4.67 --undefined-- 55.114
4.68 --undefined-- 49.134
4.69 --undefined-- 51.423
4.70 --undefined-- 55.449
4.71 --undefined-- 56.292
4.72 --undefined-- 54.569
4.73 --undefined-- 53.469
4.74 --undefined-- 52.379
4.75 --undefined-- 50.025
4.76 --undefined-- 49.312
4.77 --undefined-- 50.096
4.78 --undefined-- 50.655
4.79 --undefined-- 51.507
4.80 --undefined-- 53.214
4.81 --undefined-- 55.386
4.82 --undefined-- 56.843
4.83 287.131 56.443
4.84 --undefined-- 56.132
4.85 --undefined-- 55.844
4.86 --undefined-- 52.956
4.87 --undefined-- 50.051
4.88 --undefined-- 51.778
4.89 --undefined-- 52.275
4.90 --undefined-- 51.661
4.91 --undefined-- 56.296
4.92 --undefined-- 61.035
4.93 190.237 --undefined--
4.94 180.780 --undefined--
4.95 --undefined-- --undefined--
4.96 --undefined-- --undefined--
