Time Pitch Intensity
0.01 --undefined-- --undefined--
0.02 187.264 --undefined--
0.03 187.320 --undefined--
0.04 187.997 --undefined--
0.05 188.988 71.737
0.06 189.238 71.834
0.07 189.037 71.797
0.08 188.410 71.752
0.09 187.559 71.763
0.10 186.831 71.746
0.11 186.562 71.675
0.12 186.724 71.622
0.13 187.437 71.627
0.14 188.827 71.569
0.15 190.175 71.111
0.16 189.632 70.076
0.17 189.786 68.905
0.18 192.097 68.049
0.19 194.722 67.143
0.20 195.770 65.373
0.21 192.403 61.911
0.22 --undefined-- 56.312
0.23 --undefined-- 49.449
0.24 --undefined-- 46.292
0.25 --undefined-- 49.212
0.26 --undefined-- 54.114
0.27 --undefined-- 57.634
0.28 --undefined-- 59.215
0.29 --undefined-- 63.174
0.30 --undefined-- 71.257
0.31 --undefined-- 76.733
0.32 --undefined-- 78.318
0.33 --undefined-- 76.133
0.34 --undefined-- 71.181
0.35 --undefined-- 66.210
0.36 181.712 65.439
0.37 176.130 67.053
0.38 173.269 68.005
0.39 172.078 67.995
0.40 171.773 67.589
0.41 172.283 67.427
0.42 172.335 67.301
0.43 172.331 66.903
0.44 173.209 66.461
0.45 175.038 66.193
0.46 177.694 66.382
0.47 178.869 67.118
0.48 179.545 67.980
0.49 180.661 68.354
0.50 185.080 68.062
0.51 188.247 67.710
0.52 190.883 67.167
0.53 190.794 65.263
0.54 187.310 61.418
0.55 186.925 57.172
0.56 201.458 56.148
0.57 --undefined-- 55.186
0.58 --undefined-- 52.566
0.59 --undefined-- 50.921
0.60 --undefined-- 55.524
0.61 282.678 61.907
0.62 282.265 66.290
0.63 284.650 68.783
0.64 286.447 70.185
0.65 290.515 71.007
0.66 294.670 71.260
0.67 297.654 71.176
0.68 297.812 71.158
0.69 299.234 71.268
0.70 151.459 71.388
0.71 152.441 71.454
0.72 152.776 71.441
0.73 153.415 71.417
0.74 153.451 71.607
0.75 153.369 72.105
0.76 153.545 72.579
0.77 153.461 72.661
0.78 152.680 72.113
0.79 150.352 70.565
0.80 147.470 67.542
0.81 146.388 62.850
0.82 --undefined-- 57.466
0.83 --undefined-- 53.463
0.84 --undefined-- 50.963
0.85 --undefined-- 49.491
0.86 --undefined-- 49.550
0.87 --undefined-- 54.415
0.88 --undefined-- 58.919
0.89 --undefined-- 60.882
0.90 --undefined-- 60.370
0.91 --undefined-- 58.319
0.92 --undefined-- 57.420
0.93 --undefined-- 57.868
0.94 --undefined-- 58.280
0.95 174.615 59.602
0.96 174.449 61.498
0.97 173.617 63.332
0.98 171.987 64.724
0.99 170.839 65.133
1.00 170.192 64.865
1.01 169.823 64.490
1.02 169.834 63.877
1.03 170.864 63.025
1.04 175.290 62.327
1.05 182.692 62.756
1.06 189.451 64.392
1.07 197.735 65.205
1.08 206.935 64.334
1.09 214.309 62.079
1.10 218.075 59.094
1.11 --undefined-- 57.279
1.12 --undefined-- 58.448
1.13 --undefined-- 59.688
1.14 --undefined-- 58.513
1.15 --undefined-- 55.861
1.16 --undefined-- 61.175
1.17 290.179 67.346
1.18 286.989 70.684
1.19 286.007 71.760
1.20 279.354 71.186
1.21 263.805 69.384
1.22 259.940 66.415
1.23 260.325 62.344
1.24 262.117 58.683
1.25 276.401 56.656
1.26 --undefined-- 54.896
1.27 --undefined-- 53.831
1.28 --undefined-- 55.388
1.29 --undefined-- 58.426
1.30 --undefined-- 60.778
1.31 --undefined-- 62.281
1.32 --undefined-- 62.994
1.33 --undefined-- 63.329
1.34 194.524 63.148
1.35 184.806 62.413
1.36 179.517 61.846
1.37 173.858 62.381
1.38 172.772 63.376
1.39 171.867 64.211
1.40 171.363 64.893
1.41 171.091 65.269
1.42 171.198 65.422
1.43 171.608 65.554
1.44 172.596 65.865
1.45 172.833 66.331
1.46 173.601 66.570
1.47 174.937 66.616
1.48 176.396 66.757
1.49 177.151 66.764
1.50 177.716 66.183
1.51 177.380 64.963
1.52 174.544 63.348
1.53 --undefined-- 61.567
1.54 --undefined-- 59.792
1.55 --undefined-- 58.154
1.56 --undefined-- 56.846
1.57 --undefined-- 58.611
1.58 --undefined-- 63.615
1.59 181.761 66.902
1.60 182.696 67.926
1.61 166.960 67.344
1.62 166.644 66.484
1.63 167.722 66.702
1.64 169.050 67.455
1.65 175.856 67.811
1.66 181.597 67.917
1.67 190.778 68.490
1.68 194.154 69.275
1.69 213.659 69.563
1.70 223.283 69.403
1.71 231.241 69.260
1.72 241.145 69.317
1.73 248.736 69.374
1.74 255.508 69.213
1.75 258.429 68.796
1.76 256.959 68.036
1.77 249.545 66.582
1.78 235.306 64.452
1.79 --undefined-- 62.977
1.80 --undefined-- 63.107
1.81 --undefined-- 62.879
1.82 --undefined-- 61.071
1.83 --undefined-- 56.985
1.84 --undefined-- 50.248
1.85 --undefined-- 46.592
1.86 --undefined-- 50.138
1.87 --undefined-- 52.770
1.88 --undefined-- 52.586
1.89 --undefined-- 52.498
1.90 --undefined-- 56.028
1.91 226.602 59.515
1.92 214.381 61.789
1.93 214.038 63.093
1.94 214.034 64.065
1.95 211.168 64.866
1.96 211.870 65.790
1.97 210.651 66.962
1.98 207.567 68.131
1.99 206.141 69.016
2.00 207.550 69.612
2.01 210.329 69.997
2.02 211.946 70.144
2.03 212.328 70.627
2.04 213.091 71.325
2.05 215.395 71.422
2.06 219.234 70.512
2.07 220.788 69.078
2.08 220.807 68.040
2.09 220.895 67.422
2.10 219.645 66.207
2.11 214.423 63.709
2.12 206.343 60.063
2.13 213.083 57.777
2.14 --undefined-- 59.435
2.15 --undefined-- 60.822
2.16 --undefined-- 60.024
2.17 --undefined-- 57.399
2.18 --undefined-- 58.858
2.19 245.415 64.222
2.20 224.718 67.742
2.21 215.830 69.148
2.22 209.128 69.275
2.23 205.507 69.141
2.24 205.785 68.806
2.25 208.159 68.273
2.26 212.641 68.554
2.27 219.849 70.019
2.28 228.170 71.674
2.29 236.610 72.494
2.30 246.336 71.985
2.31 256.139 70.380
2.32 265.022 68.751
2.33 275.028 68.926
2.34 283.725 70.921
2.35 287.735 72.835
2.36 288.884 73.591
2.37 285.806 72.786
2.38 275.778 70.451
2.39 270.467 66.746
2.40 276.040 61.970
2.41 296.752 60.036
2.42 --undefined-- 62.605
2.43 --undefined-- 64.054
2.44 --undefined-- 63.441
2.45 --undefined-- 62.336
2.46 162.647 64.518
2.47 161.458 67.448
2.48 163.464 68.788
2.49 166.347 69.131
2.50 168.149 69.221
2.51 169.328 69.098
2.52 170.101 68.457
2.53 170.863 67.402
2.54 171.150 66.641
2.55 169.171 67.054
2.56 164.011 68.830
2.57 164.101 70.695
2.58 162.269 71.745
2.59 159.642 72.099
2.60 155.780 72.016
2.61 152.066 71.695
2.62 149.089 71.009
2.63 --undefined-- 69.743
2.64 --undefined-- 68.448
2.65 --undefined-- 67.410
2.66 --undefined-- 66.065
2.67 --undefined-- 63.952
2.68 --undefined-- 61.402
2.69 --undefined-- 59.344
2.70 --undefined-- 57.554
2.71 142.820 57.112
2.72 145.093 58.504
2.73 146.029 59.384
2.74 151.325 58.801
2.75 --undefined-- 56.469
2.76 --undefined-- 52.248
2.77 --undefined-- 48.419
2.78 --undefined-- 49.576
2.79 --undefined-- 52.913
2.80 --undefined-- 56.601
2.81 --undefined-- 60.081
2.82 --undefined-- 61.719
2.83 --undefined-- 61.594
2.84 --undefined-- 62.314
2.85 186.970 63.983
2.86 180.353 64.959
2.87 175.298 65.269
2.88 170.874 64.995
2.89 167.256 64.102
2.90 165.489 63.451
2.91 166.481 64.507
2.92 169.797 66.379
2.93 175.087 68.035
2.94 178.544 69.316
2.95 177.263 69.891
2.96 175.349 69.768
2.97 174.451 69.039
2.98 174.797 67.836
2.99 176.375 67.394
3.00 177.981 68.859
3.01 180.957 70.430
3.02 189.418 71.139
3.03 200.431 71.309
3.04 206.877 71.041
3.05 212.851 70.133
3.06 220.138 68.151
3.07 221.655 64.731
3.08 219.105 59.734
3.09 --undefined-- 54.170
3.10 --undefined-- 54.423
3.11 --undefined-- 57.709
3.12 --undefined-- 60.599
3.13 --undefined-- 61.795
3.14 --undefined-- 61.117
3.15 --undefined-- 58.916
3.16 --undefined-- 56.194
3.17 --undefined-- 55.177
3.18 --undefined-- 59.715
3.19 193.515 65.290
3.20 189.093 68.645
3.21 180.092 70.157
3.22 172.088 70.255
3.23 169.518 69.236
3.24 175.747 68.787
3.25 236.559 69.006
3.26 232.737 68.181
3.27 230.063 66.869
3.28 232.369 67.081
3.29 --undefined-- 68.214
3.30 --undefined-- 68.889
3.31 --undefined-- 68.830
3.32 --undefined-- 68.065
3.33 162.110 66.598
3.34 160.179 64.377
3.35 156.137 61.771
3.36 154.820 59.225
3.37 156.256 56.733
3.38 157.597 55.596
3.39 --undefined-- 56.437
3.40 --undefined-- 57.100
3.41 --undefined-- 55.557
3.42 --undefined-- 53.106
3.43 --undefined-- 53.485
3.44 --undefined-- 53.940
3.45 --undefined-- 57.487
3.46 231.943 62.817
3.47 229.341 66.350
3.48 230.275 68.250
3.49 231.467 69.096
3.50 231.540 69.280
3.51 231.234 68.940
3.52 230.714 68.292
3.53 230.333 67.616
3.54 230.373 67.111
3.55 231.419 66.826
3.56 233.653 66.647
3.57 236.391 66.426
3.58 238.442 66.027
3.59 237.708 65.289
3.60 234.428 63.670
3.61 229.098 60.383
3.62 --undefined-- 55.993
3.63 --undefined-- 53.076
3.64 --undefined-- 53.031
3.65 --undefined-- 56.962
3.66 --undefined-- 59.671
3.67 --undefined-- 60.316
3.68 --undefined-- 61.386
3.69 221.298 63.754
3.70 223.836 65.245
3.71 227.838 65.973
3.72 217.633 66.961
3.73 206.396 68.219
3.74 200.405 69.213
3.75 195.234 69.754
3.76 191.706 69.786
3.77 189.006 69.166
3.78 187.390 68.319
3.79 185.859 67.758
3.80 183.654 67.178
3.81 182.823 66.420
3.82 183.955 65.758
3.83 185.923 65.039
3.84 187.222 63.598
3.85 187.527 61.084
3.86 184.100 59.250
3.87 --undefined-- 59.387
3.88 --undefined-- 58.836
3.89 --undefined-- 56.201
3.90 --undefined-- 51.132
3.91 --undefined-- 46.333
3.92 --undefined-- 48.566
3.93 --undefined-- 53.828
3.94 --undefined-- 57.906
3.95 --undefined-- 60.089
3.96 --undefined-- 60.678
3.97 --undefined-- 61.080
3.98 261.560 63.497
3.99 248.019 66.480
4.00 247.655 68.157
4.01 246.872 68.739
4.02 245.682 68.970
4.03 245.194 69.103
4.04 245.493 69.185
4.05 245.935 69.301
4.06 245.661 69.455
4.07 244.732 69.548
4.08 243.700 69.667
4.09 243.724 69.896
4.10 243.887 70.004
4.11 244.047 69.905
4.12 243.740 70.018
4.13 242.522 70.587
4.14 240.759 71.066
4.15 227.931 70.303
4.16 225.052 67.347
4.17 243.666 62.233
4.18 242.765 57.780
4.19 241.724 59.382
4.20 241.955 61.587
4.21 --undefined-- 61.722
4.22 --undefined-- 60.399
4.23 --undefined-- 58.446
4.24 --undefined-- 55.920
4.25 --undefined-- 52.513
4.26 --undefined-- 50.419
4.27 --undefined-- 52.350
4.28 --undefined-- 53.843
4.29 --undefined-- 55.367
4.30 --undefined-- 56.891
4.31 --undefined-- 57.191
4.32 --undefined-- 55.244
4.33 --undefined-- 51.180
4.34 --undefined-- 48.302
4.35 --undefined-- 48.686
4.36 --undefined-- 50.409
4.37 --undefined-- 52.209
4.38 --undefined-- 52.964
4.39 --undefined-- 52.002
4.40 --undefined-- 50.405
4.41 --undefined-- 49.408
4.42 --undefined-- 48.281
4.43 --undefined-- 47.616
4.44 --undefined-- 47.602
4.45 --undefined-- 48.027
4.46 --undefined-- 48.541
4.47 --undefined-- 49.327
4.48 --undefined-- 50.445
4.49 --undefined-- 51.302
4.50 --undefined-- 50.379
4.51 --undefined-- 48.218
4.52 --undefined-- 48.099
4.53 --undefined-- 48.160
4.54 --undefined-- 48.401
4.55 --undefined-- 49.371
4.56 --undefined-- 49.953
4.57 --undefined-- 50.177
4.58 --undefined-- 53.085
4.59 --undefined-- 56.237
4.60 --undefined-- 57.682
4.61 --undefined-- 58.201
4.62 --undefined-- 58.272
4.63 --undefined-- 58.900
4.64 231.152 63.917
4.65 218.121 69.707
4.66 217.743 73.149
4.67 216.413 74.144
4.68 214.645 73.659
4.69 216.261 73.566
4.70 218.764 74.501
4.71 219.514 75.525
4.72 221.180 76.224
4.73 225.410 76.510
4.74 233.464 76.317
4.75 242.187 75.863
4.76 250.838 75.336
4.77 256.058 74.968
4.78 258.689 74.045
4.79 269.451 72.319
4.80 151.433 71.589
4.81 155.832 72.102
4.82 161.466 72.430
4.83 164.841 72.291
4.84 166.589 71.957
4.85 168.423 71.493
4.86 171.287 70.373
4.87 174.364 68.344
4.88 178.816 66.766
4.89 178.246 66.661
4.90 180.753 66.433
4.91 185.241 65.699
4.92 183.945 64.365
4.93 177.559 61.833
4.94 159.272 59.184
4.95 --undefined-- 58.966
4.96 --undefined-- 63.902
4.97 181.797 --undefined--
4.98 180.150 --undefined--
4.99 --undefined-- --undefined--
5.00 --undefined-- --undefined--
