Time Pitch Intensity
0.01 --undefined-- --undefined--
0.02 124.555 --undefined--
0.03 117.607 --undefined--
0.04 159.460 --undefined--
0.05 146.156 70.544
0.06 141.308 72.773
0.07 138.612 73.198
0.08 134.098 72.189
0.09 129.406 69.979
0.10 121.565 66.499
0.11 109.794 61.793
0.12 --undefined-- 56.339
0.13 --undefined-- 52.158
0.14 --undefined-- 53.466
0.15 --undefined-- 57.254
0.16 --undefined-- 63.015
0.17 --undefined-- 68.182
0.18 145.665 71.029
0.19 138.130 72.206
0.20 133.538 72.834
0.21 133.099 73.209
0.22 133.199 73.199
0.23 134.104 73.116
0.24 134.911 73.058
0.25 135.055 72.605
0.26 135.089 71.442
0.27 133.772 69.700
0.28 130.035 67.130
0.29 123.010 62.967
0.30 110.615 56.602
0.31 --undefined-- 48.535
0.32 --undefined-- 42.037
0.33 --undefined-- 40.376
0.34 --undefined-- 40.223
0.35 --undefined-- 40.011
0.36 --undefined-- 39.450
0.37 --undefined-- 39.422
0.38 --undefined-- 40.788
0.39 --undefined-- 47.412
0.40 --undefined-- 56.397
0.41 149.216 62.448
0.42 128.319 65.644
0.43 120.577 67.032
0.44 122.338 67.651
0.45 123.128 68.037
0.46 125.671 68.369
0.47 133.137 68.768
0.48 140.068 68.993
0.49 141.649 68.165
0.50 138.466 65.304
0.51 126.166 60.067
0.52 --undefined-- 55.007
0.53 --undefined-- 55.696
0.54 --undefined-- 57.859
0.55 --undefined-- 58.344
0.56 --undefined-- 57.325
0.57 --undefined-- 59.771
0.58 148.486 65.669
0.59 142.661 69.020
0.60 131.076 69.875
0.61 123.886 69.344
0.62 120.163 68.516
0.63 116.757 67.635
0.64 113.644 66.438
0.65 110.722 65.121
0.66 111.286 64.390
0.67 110.859 64.124
0.68 109.299 63.904
0.69 114.550 63.829
0.70 117.663 63.819
0.71 116.806 63.904
0.72 118.131 64.182
0.73 116.997 64.247
0.74 115.435 63.118
0.75 106.120 59.938
0.76 103.054 54.483
0.77 --undefined-- 46.981
0.78 --undefined-- 39.335
0.79 --undefined-- 39.954
0.80 --undefined-- 42.796
0.81 --undefined-- 44.663
0.82 --undefined-- 46.657
0.83 --undefined-- 54.698
0.84 205.221 62.019
0.85 182.664 66.176
0.86 178.457 68.237
0.87 174.320 69.266
0.88 173.484 69.761
0.89 173.505 69.998
0.90 174.197 70.324
0.91 173.961 70.811
0.92 172.433 70.651
0.93 170.423 68.759
0.94 146.227 65.082
0.95 139.681 61.168
0.96 139.229 57.170
0.97 --undefined-- 51.312
0.98 --undefined-- 46.092
0.99 --undefined-- 50.884
1.00 --undefined-- 54.290
1.01 --undefined-- 54.691
1.02 --undefined-- 54.233
1.03 --undefined-- 55.583
1.04 --undefined-- 60.831
1.05 149.616 66.660
1.06 148.713 70.420
1.07 142.110 72.335
1.08 139.820 73.193
1.09 137.476 73.490
1.10 136.753 73.449
1.11 136.864 73.234
1.12 137.027 73.055
1.13 137.846 73.050
1.14 138.522 73.035
1.15 138.613 72.292
1.16 133.561 70.490
1.17 132.376 69.461
1.18 134.833 70.152
1.19 134.331 71.098
1.20 136.655 72.195
1.21 132.735 73.021
1.22 131.541 72.981
1.23 129.802 72.367
1.24 128.736 71.715
1.25 128.085 71.240
1.26 127.426 70.876
1.27 122.911 69.893
1.28 122.578 67.867
1.29 126.980 65.664
1.30 --undefined-- 63.536
1.31 152.162 60.530
1.32 143.601 56.655
1.33 --undefined-- 52.637
1.34 --undefined-- 47.559
1.35 --undefined-- 41.672
1.36 --undefined-- 39.493
1.37 --undefined-- 40.749
1.38 --undefined-- 41.120
1.39 --undefined-- 39.150
1.40 --undefined-- 36.634
1.41 --undefined-- 36.098
1.42 --undefined-- 37.706
1.43 --undefined-- 39.043
1.44 --undefined-- 38.913
1.45 --undefined-- 37.375
1.46 --undefined-- 34.796
1.47 --undefined-- 32.794
1.48 --undefined-- 32.973
1.49 --undefined-- 35.548
1.50 --undefined-- 37.229
1.51 --undefined-- 37.057
1.52 --undefined-- 36.274
1.53 --undefined-- 36.402
1.54 --undefined-- 36.539
1.55 --undefined-- 35.170
1.56 --undefined-- 33.283
1.57 --undefined-- 33.742
1.58 --undefined-- 35.392
1.59 --undefined-- 36.015
1.60 --undefined-- 36.075
1.61 --undefined-- 35.610
1.62 --undefined-- 34.896
1.63 --undefined-- 35.195
1.64 --undefined-- 37.066
1.65 --undefined-- 38.839
1.66 --undefined-- 38.126
1.67 --undefined-- 35.355
1.68 --undefined-- 37.709
1.69 --undefined-- 46.856
1.70 --undefined-- 53.320
1.71 --undefined-- 56.591
1.72 --undefined-- 57.498
1.73 --undefined-- 62.137
1.74 156.513 68.140
1.75 153.173 71.599
1.76 151.081 73.225
1.77 148.757 74.074
1.78 148.528 74.046
1.79 154.140 72.967
1.80 149.288 71.036
1.81 142.549 67.630
1.82 136.674 62.855
1.83 133.520 62.013
1.84 145.152 66.786
1.85 147.013 71.134
1.86 148.581 73.674
1.87 147.912 74.708
1.88 142.552 74.822
1.89 139.170 74.269
1.90 135.337 72.679
1.91 129.055 69.422
1.92 113.023 64.449
1.93 104.859 58.644
1.94 --undefined-- 52.550
1.95 --undefined-- 53.950
1.96 --undefined-- 63.038
1.97 157.036 69.067
1.98 151.089 72.285
1.99 139.323 73.719
2.00 135.051 73.992
2.01 129.697 73.502
2.02 125.713 72.277
2.03 119.042 69.393
2.04 107.295 64.283
2.05 96.230 58.108
2.06 --undefined-- 52.748
2.07 --undefined-- 47.360
2.08 --undefined-- 41.873
2.09 --undefined-- 43.142
2.10 --undefined-- 54.282
2.11 --undefined-- 63.304
2.12 199.249 68.475
2.13 183.998 70.774
2.14 178.494 71.514
2.15 177.709 71.875
2.16 176.820 71.874
2.17 172.471 70.652
2.18 156.012 67.499
2.19 145.169 62.222
2.20 --undefined-- 55.384
2.21 --undefined-- 49.920
2.22 --undefined-- 48.775
2.23 --undefined-- 48.824
2.24 --undefined-- 49.752
2.25 --undefined-- 52.153
2.26 --undefined-- 53.944
2.27 --undefined-- 56.076
2.28 --undefined-- 63.526
2.29 210.414 69.741
2.30 189.641 73.060
2.31 171.214 74.704
2.32 166.124 75.543
2.33 164.037 75.749
2.34 164.346 75.369
2.35 167.702 74.417
2.36 168.254 73.705
2.37 167.718 73.807
2.38 167.284 74.043
2.39 167.668 73.773
2.40 168.789 72.421
2.41 168.587 69.379
2.42 147.671 64.479
2.43 144.843 58.795
2.44 --undefined-- 53.063
2.45 --undefined-- 46.535
2.46 --undefined-- 42.383
2.47 --undefined-- 46.116
2.48 --undefined-- 57.447
2.49 201.226 65.724
2.50 185.144 70.167
2.51 156.927 72.066
2.52 152.176 73.024
2.53 146.042 73.447
2.54 144.085 73.023
2.55 138.282 72.110
2.56 133.932 71.351
2.57 138.469 71.242
2.58 138.629 71.338
2.59 137.546 71.281
2.60 135.225 71.051
2.61 131.481 70.771
2.62 128.577 70.715
2.63 131.712 70.799
2.64 121.601 70.398
2.65 113.201 69.454
2.66 111.295 68.445
2.67 107.066 67.371
2.68 103.436 66.446
2.69 104.059 66.082
2.70 104.538 65.992
2.71 106.220 66.106
2.72 109.119 66.279
2.73 110.125 66.003
2.74 110.294 64.780
2.75 107.371 62.064
2.76 99.672 57.427
2.77 --undefined-- 51.098
2.78 --undefined-- 51.806
2.79 --undefined-- 58.773
2.80 --undefined-- 62.852
2.81 --undefined-- 66.225
2.82 --undefined-- 70.429
2.83 148.518 73.848
2.84 149.510 75.979
2.85 151.897 77.048
2.86 153.920 77.479
2.87 154.985 77.633
2.88 155.591 77.272
2.89 155.887 76.106
2.90 156.613 74.496
2.91 157.139 73.327
2.92 158.057 72.593
2.93 158.857 71.499
2.94 154.790 69.555
2.95 146.370 66.142
2.96 140.841 61.153
2.97 150.111 55.384
2.98 --undefined-- 50.027
2.99 --undefined-- 52.980
3.00 --undefined-- 58.687
3.01 --undefined-- 61.815
3.02 --undefined-- 65.085
3.03 177.232 69.197
3.04 169.655 71.932
3.05 166.718 73.192
3.06 165.144 73.508
3.07 165.421 73.276
3.08 167.398 72.873
3.09 167.500 72.694
3.10 166.084 72.861
3.11 164.900 73.235
3.12 164.879 73.353
3.13 162.072 72.615
3.14 155.807 70.427
3.15 147.654 66.219
3.16 142.016 59.681
3.17 --undefined-- 51.054
3.18 --undefined-- 43.388
3.19 --undefined-- 41.359
3.20 --undefined-- 42.459
3.21 --undefined-- 49.146
3.22 --undefined-- 59.412
3.23 --undefined-- 66.251
3.24 178.097 70.028
3.25 171.341 71.839
3.26 169.401 72.480
3.27 168.852 72.547
3.28 169.214 72.562
3.29 169.883 72.630
3.30 170.237 72.649
3.31 170.619 72.601
3.32 171.409 72.507
3.33 172.614 72.368
3.34 173.185 72.122
3.35 172.823 71.664
3.36 171.772 70.965
3.37 169.180 69.991
3.38 166.145 68.530
3.39 160.270 66.481
3.40 150.003 64.073
3.41 --undefined-- 61.397
3.42 --undefined-- 58.361
3.43 --undefined-- 54.818
3.44 --undefined-- 50.325
3.45 --undefined-- 44.970
3.46 --undefined-- 39.046
3.47 --undefined-- 35.464
3.48 --undefined-- 35.435
3.49 --undefined-- 35.792
3.50 --undefined-- 36.078
3.51 --undefined-- 35.947
3.52 --undefined-- 34.486
3.53 --undefined-- 34.306
3.54 --undefined-- 36.880
3.55 --undefined-- 38.167
3.56 --undefined-- 37.972
3.57 --undefined-- 38.271
3.58 --undefined-- 38.704
3.59 --undefined-- 38.893
3.60 --undefined-- 39.050
3.61 --undefined-- 42.265
3.62 --undefined-- 47.354
3.63 --undefined-- 52.123
3.64 --undefined-- 56.785
3.65 --undefined-- 60.504
3.66 --undefined-- 63.131
3.67 --undefined-- 64.709
3.68 --undefined-- 65.258
3.69 --undefined-- 64.549
3.70 --undefined-- 62.086
3.71 --undefined-- 59.507
3.72 --undefined-- 64.083
3.73 239.937 71.207
3.74 228.478 75.469
3.75 223.247 76.982
3.76 220.098 76.300
3.77 217.837 74.039
3.78 209.762 70.819
3.79 197.149 67.122
3.80 169.696 63.437
3.81 166.585 59.599
3.82 --undefined-- 53.917
3.83 --undefined-- 46.229
3.84 --undefined-- 41.980
3.85 --undefined-- 39.161
3.86 --undefined-- 35.977
3.87 --undefined-- 35.991
3.88 --undefined-- 35.825
3.89 --undefined-- 34.215
3.90 --undefined-- 32.787
3.91 --undefined-- 33.288
3.92 --undefined-- 43.119
3.93 --undefined-- 53.482
3.94 --undefined-- 59.689
3.95 79.869 63.267
3.96 79.693 65.631
3.97 153.183 67.571
3.98 150.470 69.230
3.99 148.698 70.477
4.00 147.109 71.292
4.01 145.958 71.851
4.02 144.903 72.311
4.03 143.530 72.658
4.04 142.814 72.902
4.05 142.240 73.043
4.06 141.835 73.040
4.07 141.694 72.916
4.08 141.752 72.623
4.09 141.673 72.116
4.10 142.048 71.330
4.11 140.976 69.809
4.12 139.287 66.714
4.13 --undefined-- 61.695
4.14 --undefined-- 56.195
4.15 --undefined-- 51.846
4.16 --undefined-- 45.960
4.17 --undefined-- 41.138
4.18 --undefined-- 49.136
4.19 --undefined-- 57.102
4.20 --undefined-- 62.081
4.21 --undefined-- 66.589
4.22 --undefined-- 70.933
4.23 147.710 73.758
4.24 142.824 75.063
4.25 138.009 75.289
4.26 134.843 75.038
4.27 134.104 74.637
4.28 133.956 73.987
4.29 133.987 73.201
4.30 134.968 72.534
4.31 136.084 72.268
4.32 137.680 72.702
4.33 139.522 73.353
4.34 139.989 73.569
4.35 141.236 73.218
4.36 141.952 72.517
4.37 143.549 71.710
4.38 144.029 70.449
4.39 141.273 67.855
4.40 139.492 63.241
4.41 --undefined-- 56.165
4.42 --undefined-- 53.095
4.43 --undefined-- 62.741
4.44 --undefined-- 69.501
4.45 --undefined-- 73.194
4.46 157.259 74.775
4.47 154.733 75.360
4.48 153.528 75.545
4.49 153.131 75.173
4.50 153.285 74.404
4.51 154.903 73.867
4.52 158.519 73.636
4.53 158.640 73.233
4.54 156.631 72.293
4.55 148.475 70.297
4.56 144.446 66.450
4.57 139.679 60.523
4.58 --undefined-- 52.942
4.59 --undefined-- 46.033
4.60 --undefined-- 41.952
4.61 --undefined-- 48.428
4.62 --undefined-- 55.903
4.63 --undefined-- 60.138
4.64 --undefined-- 64.367
4.65 --undefined-- 68.190
4.66 143.978 70.272
4.67 138.583 70.889
4.68 129.823 70.609
4.69 124.794 70.253
4.70 121.255 70.398
4.71 120.692 70.746
4.72 122.036 71.149
4.73 123.956 71.491
4.74 124.677 71.604
4.75 124.840 71.410
4.76 125.062 70.732
4.77 124.007 69.258
4.78 120.442 66.616
4.79 115.506 62.504
4.80 118.792 57.017
4.81 --undefined-- 51.579
4.82 --undefined-- 50.850
4.83 --undefined-- 57.182
4.84 --undefined-- 64.681
4.85 182.569 69.570
4.86 165.872 72.339
4.87 163.515 73.978
4.88 162.067 74.622
4.89 161.439 74.331
4.90 161.440 73.605
4.91 162.205 72.856
4.92 162.928 72.308
4.93 163.967 72.127
4.94 165.876 72.101
4.95 166.339 71.961
4.96 167.027 71.635
4.97 167.043 71.091
4.98 166.503 70.269
4.99 165.435 69.181
5.00 162.921 67.966
5.01 157.433 66.744
5.02 149.631 65.312
5.03 145.667 62.840
5.04 141.210 58.497
5.05 140.187 53.585
5.06 --undefined-- 50.265
5.07 --undefined-- 47.161
5.08 --undefined-- 42.335
5.09 --undefined-- 36.743
5.10 --undefined-- 36.745
5.11 --undefined-- 38.070
5.12 --undefined-- 37.117
5.13 --undefined-- 35.274
5.14 --undefined-- 34.476
5.15 --undefined-- 33.216
5.16 --undefined-- 32.142
5.17 --undefined-- 31.843
5.18 --undefined-- 31.266
5.19 --undefined-- 32.237
5.20 --undefined-- 34.055
5.21 --undefined-- 35.017
5.22 --undefined-- 34.459
5.23 --undefined-- 33.314
5.24 --undefined-- 33.704
5.25 --undefined-- 34.542
5.26 --undefined-- 34.805
5.27 --undefined-- 34.264
5.28 --undefined-- 35.164
5.29 --undefined-- 37.783
5.30 --undefined-- 38.264
5.31 --undefined-- 36.977
5.32 --undefined-- 36.386
5.33 --undefined-- 35.313
5.34 --undefined-- 34.130
5.35 --undefined-- 35.736
5.36 --undefined-- 37.615
5.37 --undefined-- 38.316
5.38 --undefined-- 38.044
5.39 --undefined-- 37.074
5.40 --undefined-- 38.113
5.41 --undefined-- 39.886
5.42 --undefined-- 39.422
5.43 --undefined-- 36.753
5.44 --undefined-- 35.511
5.45 --undefined-- 37.368
5.46 --undefined-- 38.823
5.47 --undefined-- 37.915
5.48 --undefined-- 35.919
5.49 --undefined-- 35.944
5.50 --undefined-- 37.235
5.51 --undefined-- 37.933
5.52 --undefined-- 37.190
5.53 --undefined-- 36.817
5.54 --undefined-- 37.847
5.55 --undefined-- 38.319
5.56 --undefined-- 38.573
5.57 --undefined-- 38.292
5.58 --undefined-- 37.471
5.59 --undefined-- 37.889
5.60 --undefined-- 38.017
5.61 --undefined-- 37.072
5.62 --undefined-- 36.946
5.63 --undefined-- 36.946
5.64 --undefined-- 36.280
5.65 --undefined-- 35.744
5.66 --undefined-- 35.317
5.67 --undefined-- 34.873
5.68 --undefined-- 35.188
5.69 --undefined-- 36.549
5.70 --undefined-- 39.244
5.71 --undefined-- 41.151
5.72 --undefined-- 40.716
5.73 --undefined-- 38.564
5.74 --undefined-- 42.356
5.75 --undefined-- 51.454
5.76 --undefined-- 59.926
5.77 --undefined-- 65.829
5.78 149.541 69.860
5.79 149.477 72.727
5.80 148.929 74.736
5.81 149.646 76.007
5.82 150.269 76.338
5.83 149.624 75.889
5.84 150.412 75.743
5.85 152.902 76.098
5.86 153.258 76.160
5.87 153.761 75.941
5.88 150.052 75.807
5.89 154.040 75.754
5.90 157.001 75.828
5.91 160.481 76.144
5.92 164.037 76.616
5.93 164.966 76.899
5.94 162.762 76.738
5.95 159.425 76.387
5.96 156.767 76.010
5.97 156.487 75.275
5.98 154.209 74.208
5.99 153.423 73.445
6.00 153.847 73.190
6.01 153.542 73.245
6.02 152.935 73.358
6.03 151.917 73.267
6.04 150.451 72.762
6.05 149.174 71.502
6.06 147.308 69.146
6.07 145.872 66.059
6.08 --undefined-- 63.809
6.09 --undefined-- 62.025
6.10 --undefined-- 58.808
6.11 116.793 55.543
6.12 116.788 53.929
6.13 108.899 52.756
6.14 100.481 51.427
6.15 --undefined-- 49.781
6.16 --undefined-- 48.291
6.17 --undefined-- 48.134
6.18 --undefined-- 48.997
6.19 --undefined-- 50.521
6.20 --undefined-- 51.967
6.21 --undefined-- 56.030
6.22 --undefined-- 63.557
6.23 161.966 68.656
6.24 161.865 71.227
6.25 162.547 72.212
6.26 164.049 72.295
6.27 175.755 72.134
6.28 196.391 --undefined--
6.29 199.283 --undefined--
6.30 --undefined-- --undefined--
6.31 --undefined-- --undefined--
