Time Pitch Intensity
0.01 --undefined-- --undefined--
0.02 134.963 --undefined--
0.03 119.920 --undefined--
0.04 115.283 --undefined--
0.05 109.590 74.330
0.06 104.363 73.788
0.07 100.386 73.405
0.08 98.618 73.054
0.09 97.687 72.680
0.10 98.422 72.393
0.11 99.371 72.286
0.12 100.770 72.174
0.13 100.087 72.009
0.14 100.704 72.309
0.15 105.071 72.957
0.16 103.380 73.365
0.17 108.118 73.784
0.18 117.606 74.287
0.19 119.233 74.340
0.20 121.782 74.003
0.21 122.787 73.816
0.22 123.478 73.842
0.23 125.677 74.005
0.24 126.255 74.137
0.25 124.623 73.932
0.26 123.563 73.514
0.27 123.209 73.050
0.28 120.794 72.142
0.29 119.563 70.063
0.30 120.716 66.581
0.31 124.794 63.053
0.32 127.422 63.876
0.33 144.039 69.534
0.34 148.127 73.912
0.35 144.908 76.120
0.36 142.692 76.806
0.37 140.425 76.683
0.38 137.778 75.475
0.39 133.013 72.427
0.40 130.897 67.369
0.41 132.394 61.228
0.42 --undefined-- 55.248
0.43 --undefined-- 50.075
0.44 --undefined-- 46.706
0.45 --undefined-- 44.815
0.46 --undefined-- 43.752
0.47 --undefined-- 51.826
0.48 --undefined-- 63.378
0.49 156.094 70.743
0.50 153.921 74.375
0.51 139.211 75.321
0.52 133.879 75.134
0.53 131.983 75.073
0.54 133.459 75.443
0.55 136.133 76.314
0.56 137.265 77.470
0.57 137.134 78.563
0.58 136.693 79.251
0.59 135.362 79.421
0.60 134.504 79.190
0.61 134.390 78.608
0.62 135.159 77.902
0.63 137.306 77.384
0.64 139.147 77.160
0.65 139.895 77.279
0.66 140.249 77.626
0.67 140.236 77.999
0.68 140.521 78.331
0.69 141.116 78.727
0.70 141.417 79.231
0.71 141.471 79.754
0.72 140.594 80.081
0.73 138.954 79.693
0.74 135.946 77.850
0.75 125.292 74.018
0.76 128.653 68.734
0.77 125.672 63.652
0.78 126.193 58.498
0.79 --undefined-- 52.600
0.80 --undefined-- 49.110
0.81 --undefined-- 50.284
0.82 --undefined-- 52.393
0.83 --undefined-- 54.414
0.84 --undefined-- 56.858
0.85 --undefined-- 62.657
0.86 126.383 68.486
0.87 120.375 72.258
0.88 117.246 74.369
0.89 117.435 75.492
0.90 120.244 76.158
0.91 125.909 76.894
0.92 133.381 78.060
0.93 142.358 79.357
0.94 149.259 80.059
0.95 151.295 79.322
0.96 148.277 76.737
0.97 162.979 74.478
0.98 168.753 76.134
0.99 178.604 78.899
1.00 173.647 80.372
1.01 175.070 80.523
1.02 174.211 80.287
1.03 174.012 80.393
1.04 174.781 80.844
1.05 174.880 81.170
1.06 173.554 80.887
1.07 170.728 79.420
1.08 164.859 76.029
1.09 167.731 70.553
1.10 170.635 64.743
1.11 --undefined-- 64.541
1.12 --undefined-- 69.720
1.13 148.577 73.616
1.14 133.472 75.438
1.15 126.853 75.884
1.16 118.822 75.307
1.17 113.911 73.563
1.18 110.439 71.513
1.19 108.915 70.965
1.20 105.519 71.114
1.21 103.647 71.191
1.22 102.651 71.210
1.23 99.676 71.143
1.24 96.964 71.100
1.25 95.437 71.102
1.26 92.905 70.749
1.27 97.132 70.259
1.28 98.988 70.083
1.29 99.568 70.174
1.30 100.785 70.438
1.31 101.983 70.661
1.32 103.413 70.496
1.33 102.194 70.010
1.34 104.337 69.880
1.35 104.742 70.045
1.36 104.713 70.160
1.37 104.414 70.336
1.38 103.769 70.499
1.39 102.652 70.530
1.40 102.804 70.517
1.41 101.502 70.355
1.42 97.680 70.064
1.43 95.715 69.909
1.44 94.427 69.827
1.45 94.551 69.650
1.46 96.722 69.562
1.47 99.999 69.664
1.48 102.865 69.819
1.49 106.957 70.019
1.50 108.582 70.230
1.51 109.076 70.329
1.52 110.052 70.325
1.53 112.608 70.432
1.54 117.715 70.858
1.55 122.850 71.521
1.56 127.244 72.319
1.57 130.670 73.165
1.58 132.945 73.923
1.59 134.889 74.596
1.60 136.556 75.143
1.61 138.201 75.415
1.62 139.676 75.185
1.63 139.298 74.148
1.64 137.676 72.079
1.65 135.831 69.124
1.66 130.815 65.616
1.67 129.302 61.857
1.68 130.605 57.833
1.69 --undefined-- 54.920
1.70 --undefined-- 57.438
1.71 --undefined-- 65.315
1.72 --undefined-- 73.202
1.73 --undefined-- 77.857
1.74 145.187 79.619
1.75 128.553 79.240
1.76 122.542 77.738
1.77 114.359 76.137
1.78 108.562 74.802
1.79 104.415 73.934
1.80 103.151 73.530
1.81 102.809 73.440
1.82 103.511 73.846
1.83 103.990 74.370
1.84 105.062 74.495
1.85 105.911 74.279
1.86 105.846 73.631
1.87 103.111 72.618
1.88 107.789 72.131
1.89 109.594 72.498
1.90 110.152 73.095
1.91 111.141 73.732
1.92 112.904 74.306
1.93 115.081 74.798
1.94 120.087 75.502
1.95 127.947 76.588
1.96 126.410 77.618
1.97 126.806 78.273
1.98 126.102 78.545
1.99 124.044 78.585
2.00 119.735 78.434
2.01 114.993 78.001
2.02 110.564 77.282
2.03 105.554 76.255
2.04 101.287 74.906
2.05 96.169 73.373
2.06 --undefined-- 71.912
2.07 --undefined-- 69.354
2.08 --undefined-- 63.939
2.09 --undefined-- 55.412
2.10 --undefined-- 49.223
2.11 --undefined-- 48.662
2.12 --undefined-- 48.908
2.13 --undefined-- 49.270
2.14 --undefined-- 50.038
2.15 --undefined-- 51.124
2.16 --undefined-- 52.919
2.17 --undefined-- 54.386
2.18 --undefined-- 54.868
2.19 --undefined-- 55.070
2.20 --undefined-- 55.124
2.21 --undefined-- 54.950
2.22 --undefined-- 54.531
2.23 --undefined-- 53.847
2.24 --undefined-- 53.069
2.25 --undefined-- 52.389
2.26 --undefined-- 51.990
2.27 --undefined-- 51.730
2.28 --undefined-- 52.023
2.29 --undefined-- 52.976
2.30 --undefined-- 52.989
2.31 --undefined-- 51.051
2.32 --undefined-- 47.766
2.33 --undefined-- 45.123
2.34 --undefined-- 45.610
2.35 --undefined-- 45.763
2.36 --undefined-- 47.060
2.37 --undefined-- 57.203
2.38 155.813 64.757
2.39 156.075 69.314
2.40 160.699 71.965
2.41 163.769 73.603
2.42 165.166 74.696
2.43 166.723 75.792
2.44 166.092 77.316
2.45 158.394 78.364
2.46 157.550 78.503
2.47 153.503 78.205
2.48 149.700 78.023
2.49 146.089 77.781
2.50 141.595 77.134
2.51 136.767 76.501
2.52 134.702 76.177
2.53 130.371 76.123
2.54 126.878 76.354
2.55 124.987 76.472
2.56 124.045 76.320
2.57 123.223 76.224
2.58 123.602 76.477
2.59 123.201 76.902
2.60 123.096 77.236
2.61 122.167 77.238
2.62 122.234 76.986
2.63 122.096 76.766
2.64 118.616 76.631
2.65 117.736 76.573
2.66 117.533 76.832
2.67 117.271 77.097
2.68 116.728 77.011
2.69 116.097 76.849
2.70 115.041 76.809
2.71 110.933 76.498
2.72 110.973 75.608
2.73 108.620 74.190
2.74 107.009 72.502
2.75 106.248 71.005
2.76 105.625 70.117
2.77 105.167 70.032
2.78 105.451 70.535
2.79 105.388 71.316
2.80 105.379 72.091
2.81 104.468 72.612
2.82 104.198 72.826
2.83 103.558 72.777
2.84 102.886 72.512
2.85 102.354 72.196
2.86 102.117 72.126
2.87 102.023 72.313
2.88 102.672 72.490
2.89 102.012 72.669
2.90 101.735 72.999
2.91 98.000 72.742
2.92 --undefined-- 71.109
2.93 --undefined-- 68.402
2.94 --undefined-- 65.663
2.95 --undefined-- 64.422
2.96 --undefined-- 66.395
2.97 116.847 69.944
2.98 121.243 72.896
2.99 123.589 74.663
3.00 125.332 75.310
3.01 124.907 75.137
3.02 120.215 74.683
3.03 118.318 74.429
3.04 117.410 74.542
3.05 117.380 74.895
3.06 118.697 75.351
3.07 119.778 75.586
3.08 120.141 75.166
3.09 123.305 75.038
3.10 131.493 76.242
3.11 134.716 77.486
3.12 138.746 78.186
3.13 143.891 78.413
3.14 148.187 78.462
3.15 150.533 78.594
3.16 152.559 78.761
3.17 155.808 79.036
3.18 158.640 79.471
3.19 160.244 79.821
3.20 160.263 79.680
3.21 160.265 78.811
3.22 159.328 76.978
3.23 154.101 73.668
3.24 154.983 69.491
3.25 153.926 66.271
3.26 154.785 63.222
3.27 154.235 59.969
3.28 --undefined-- 63.241
3.29 --undefined-- 71.339
3.30 168.632 76.366
3.31 164.819 78.707
3.32 158.225 79.492
3.33 150.566 79.506
3.34 142.144 79.048
3.35 134.942 78.448
3.36 129.679 77.701
3.37 125.703 76.292
3.38 120.135 73.653
3.39 114.664 69.447
3.40 --undefined-- 63.546
3.41 --undefined-- 57.165
3.42 --undefined-- 53.319
3.43 --undefined-- 50.606
3.44 --undefined-- 49.807
3.45 --undefined-- 50.556
3.46 --undefined-- 52.926
3.47 --undefined-- 59.685
3.48 --undefined-- 66.077
3.49 --undefined-- 69.875
3.50 105.247 71.673
3.51 103.545 72.366
3.52 102.337 72.549
3.53 101.931 72.358
3.54 101.631 71.318
3.55 96.040 68.767
3.56 94.261 64.648
3.57 101.446 60.534
3.58 --undefined-- 62.647
3.59 --undefined-- 68.794
3.60 --undefined-- 72.669
3.61 112.302 74.401
3.62 110.782 75.043
3.63 110.499 75.476
3.64 110.623 75.893
3.65 110.428 76.096
3.66 110.616 76.112
3.67 111.743 76.178
3.68 111.429 76.210
3.69 110.528 75.450
3.70 100.613 73.010
3.71 111.279 69.506
3.72 111.920 66.746
3.73 115.527 65.304
3.74 124.808 68.665
3.75 137.891 73.775
3.76 134.083 77.024
3.77 127.416 78.724
3.78 125.048 79.558
3.79 123.571 79.782
3.80 122.946 79.491
3.81 124.689 79.029
3.82 126.958 79.030
3.83 128.062 79.474
3.84 127.946 79.752
3.85 127.354 79.660
3.86 126.626 79.265
3.87 125.513 78.199
3.88 122.390 75.532
3.89 117.391 70.684
3.90 122.698 64.873
3.91 122.267 60.127
3.92 --undefined-- 56.333
3.93 120.834 56.965
3.94 123.916 63.275
3.95 129.620 69.050
3.96 119.847 72.777
3.97 115.455 75.019
3.98 111.730 76.320
3.99 111.211 76.955
4.00 113.114 77.155
4.01 113.745 77.074
4.02 113.314 76.786
4.03 114.173 76.473
4.04 116.865 76.396
4.05 120.952 76.561
4.06 124.785 76.725
4.07 128.803 76.752
4.08 134.209 76.719
4.09 141.353 76.893
4.10 150.020 77.505
4.11 155.522 78.392
4.12 159.856 79.161
4.13 168.792 79.521
4.14 172.032 79.754
4.15 175.297 80.285
4.16 177.574 80.692
4.17 179.716 80.295
4.18 183.561 78.928
4.19 196.502 77.639
4.20 198.682 77.456
4.21 200.161 77.680
4.22 200.485 77.660
4.23 199.751 77.379
4.24 197.487 76.883
4.25 192.259 76.057
4.26 186.371 74.716
4.27 180.324 72.584
4.28 172.522 69.678
4.29 172.149 67.185
4.30 --undefined-- 66.470
4.31 --undefined-- 66.040
4.32 --undefined-- 65.077
4.33 --undefined-- 63.770
4.34 --undefined-- 62.990
4.35 --undefined-- 68.753
4.36 205.613 75.269
4.37 202.953 78.698
4.38 197.656 79.732
4.39 195.220 79.685
4.40 196.576 79.691
4.41 198.527 80.002
4.42 200.020 80.335
4.43 200.090 80.413
4.44 200.027 80.221
4.45 200.728 80.105
4.46 201.963 80.259
4.47 203.842 80.541
4.48 205.726 80.648
4.49 207.018 80.289
4.50 207.647 79.303
4.51 208.070 77.946
4.52 207.301 76.410
4.53 205.315 74.438
4.54 198.739 71.639
4.55 189.280 67.522
4.56 202.983 61.664
4.57 206.390 55.822
4.58 --undefined-- 51.942
4.59 --undefined-- 48.532
4.60 --undefined-- 44.450
4.61 --undefined-- 41.038
4.62 --undefined-- 39.365
4.63 --undefined-- 38.594
4.64 --undefined-- 37.665
4.65 --undefined-- 38.090
4.66 --undefined-- 48.486
4.67 --undefined-- 59.232
4.68 152.974 66.267
4.69 137.976 70.647
4.70 137.040 73.598
4.71 130.230 75.673
4.72 129.722 76.967
4.73 128.157 77.383
4.74 125.245 77.433
4.75 123.558 77.602
4.76 121.125 77.486
4.77 118.828 76.500
4.78 110.938 74.138
4.79 107.763 69.755
4.80 108.965 63.433
4.81 107.045 57.488
4.82 108.657 54.275
4.83 --undefined-- 51.950
4.84 --undefined-- 51.671
4.85 --undefined-- 60.431
4.86 --undefined-- 69.001
4.87 139.561 74.401
4.88 137.717 77.066
4.89 135.635 77.777
4.90 136.926 77.647
4.91 141.635 77.729
4.92 146.821 78.054
4.93 152.384 78.458
4.94 157.837 78.968
4.95 158.006 79.281
4.96 156.707 78.942
4.97 158.669 77.958
4.98 152.511 76.292
4.99 150.166 74.266
5.00 146.046 72.835
5.01 145.390 72.831
5.02 147.944 74.272
5.03 151.340 76.453
5.04 149.100 78.241
5.05 143.874 78.816
5.06 136.109 78.151
5.07 128.209 77.055
5.08 122.419 76.475
5.09 120.086 76.393
5.10 118.673 76.462
5.11 116.911 --undefined--
5.12 115.884 --undefined--
5.13 --undefined-- --undefined--
5.14 --undefined-- --undefined--
