Time Pitch Intensity
0.01 --undefined-- --undefined--
0.02 212.740 --undefined--
0.03 213.297 --undefined--
0.04 213.441 --undefined--
0.05 213.087 72.403
0.06 213.161 71.776
0.07 213.706 70.235
0.08 211.851 67.400
0.09 205.715 63.341
0.10 211.328 58.699
0.11 211.613 53.575
0.12 --undefined-- 46.758
0.13 --undefined-- 41.526
0.14 --undefined-- 43.665
0.15 --undefined-- 52.760
0.16 --undefined-- 62.051
0.17 291.542 68.039
0.18 271.737 70.908
0.19 268.469 71.973
0.20 268.744 72.412
0.21 271.859 72.609
0.22 275.548 72.646
0.23 277.821 72.549
0.24 278.090 72.327
0.25 277.284 72.063
0.26 275.901 71.724
0.27 273.663 71.109
0.28 269.601 70.121
0.29 266.844 68.976
0.30 266.037 68.305
0.31 267.193 68.225
0.32 266.013 67.916
0.33 261.733 67.101
0.34 254.898 65.649
0.35 246.137 62.850
0.36 244.085 58.839
0.37 --undefined-- 59.702
0.38 --undefined-- 65.349
0.39 244.300 69.687
0.40 207.587 71.635
0.41 199.164 71.706
0.42 188.301 70.286
0.43 174.347 67.334
0.44 165.683 63.167
0.45 159.427 58.764
0.46 --undefined-- 53.592
0.47 --undefined-- 48.328
0.48 --undefined-- 45.874
0.49 --undefined-- 44.489
0.50 --undefined-- 47.268
0.51 --undefined-- 54.489
0.52 --undefined-- 59.257
0.53 --undefined-- 60.558
0.54 --undefined-- 62.447
0.55 174.456 67.375
0.56 168.525 70.498
0.57 164.552 71.629
0.58 161.890 71.757
0.59 162.149 71.600
0.60 164.343 71.481
0.61 167.478 71.308
0.62 171.015 70.724
0.63 174.307 69.772
0.64 182.334 69.408
0.65 187.643 69.624
0.66 189.738 69.427
0.67 191.527 68.562
0.68 191.102 67.246
0.69 189.367 65.580
0.70 189.960 63.952
0.71 196.228 65.222
0.72 188.676 69.367
0.73 182.975 71.988
0.74 176.980 72.654
0.75 173.031 72.420
0.76 169.208 72.097
0.77 165.419 71.481
0.78 160.223 69.985
0.79 155.257 66.997
0.80 159.511 62.461
0.81 160.924 57.910
0.82 160.654 53.685
0.83 --undefined-- 50.393
0.84 --undefined-- 54.105
0.85 174.121 61.562
0.86 162.354 66.835
0.87 158.992 69.506
0.88 158.310 70.214
0.89 155.791 69.217
0.90 146.634 67.024
0.91 152.291 65.819
0.92 154.575 66.103
0.93 159.342 66.836
0.94 163.261 67.801
0.95 167.215 68.609
0.96 169.701 69.097
0.97 171.023 69.381
0.98 174.928 69.870
0.99 173.706 70.606
1.00 173.273 71.172
1.01 173.240 71.388
1.02 174.011 71.350
1.03 175.223 71.176
1.04 176.024 71.007
1.05 177.185 70.860
1.06 180.974 70.638
1.07 187.809 70.185
1.08 192.135 68.891
1.09 193.607 66.037
1.10 197.572 61.119
1.11 202.266 54.354
1.12 --undefined-- 49.084
1.13 --undefined-- 46.938
1.14 --undefined-- 46.828
1.15 --undefined-- 48.242
1.16 --undefined-- 48.898
1.17 --undefined-- 49.414
1.18 --undefined-- 51.078
1.19 --undefined-- 55.260
1.20 --undefined-- 60.006
1.21 --undefined-- 62.516
1.22 --undefined-- 63.571
1.23 --undefined-- 66.826
1.24 169.673 70.595
1.25 166.529 72.222
1.26 157.533 71.907
1.27 135.990 70.489
1.28 137.066 69.173
1.29 141.680 68.495
1.30 --undefined-- 69.215
1.31 --undefined-- 71.441
1.32 --undefined-- 73.081
1.33 143.841 73.731
1.34 148.355 73.831
1.35 151.494 73.600
1.36 153.455 73.245
1.37 156.250 73.004
1.38 158.864 72.735
1.39 160.108 72.089
1.40 159.365 70.839
1.41 154.730 68.756
1.42 148.851 65.710
1.43 --undefined-- 62.185
1.44 --undefined-- 58.044
1.45 --undefined-- 52.174
1.46 --undefined-- 46.727
1.47 --undefined-- 44.690
1.48 --undefined-- 43.468
1.49 --undefined-- 41.123
1.50 --undefined-- 39.413
1.51 --undefined-- 39.308
1.52 --undefined-- 39.908
1.53 --undefined-- 41.301
1.54 --undefined-- 43.257
1.55 --undefined-- 44.305
1.56 --undefined-- 45.090
1.57 --undefined-- 46.803
1.58 --undefined-- 46.922
1.59 --undefined-- 45.757
1.60 --undefined-- 45.898
1.61 --undefined-- 47.666
1.62 --undefined-- 49.567
1.63 --undefined-- 51.031
1.64 --undefined-- 51.474
1.65 --undefined-- 50.796
1.66 --undefined-- 50.331
1.67 --undefined-- 50.382
1.68 --undefined-- 50.519
1.69 --undefined-- 50.852
1.70 --undefined-- 50.898
1.71 --undefined-- 50.808
1.72 --undefined-- 50.728
1.73 --undefined-- 50.322
1.74 --undefined-- 50.157
1.75 --undefined-- 50.177
1.76 --undefined-- 49.461
1.77 --undefined-- 47.974
1.78 --undefined-- 46.309
1.79 --undefined-- 44.421
1.80 --undefined-- 42.034
1.81 --undefined-- 40.150
1.82 --undefined-- 39.252
1.83 --undefined-- 39.717
1.84 --undefined-- 43.501
1.85 --undefined-- 53.484
1.86 --undefined-- 63.429
1.87 196.880 69.406
1.88 203.122 72.175
1.89 209.235 72.989
1.90 225.621 73.477
1.91 239.209 74.077
1.92 249.995 74.478
1.93 257.897 74.445
1.94 263.579 73.756
1.95 266.660 72.874
1.96 265.450 72.579
1.97 265.983 73.259
1.98 272.092 74.646
1.99 274.080 75.478
2.00 267.420 75.066
2.01 252.659 74.050
2.02 244.138 73.533
2.03 236.501 73.361
2.04 228.582 73.246
2.05 220.823 73.084
2.06 214.698 72.670
2.07 208.387 72.209
2.08 203.922 71.752
2.09 200.372 70.977
2.10 196.188 69.788
2.11 192.064 68.936
2.12 190.564 69.817
2.13 190.524 71.484
2.14 186.559 72.540
2.15 182.900 73.223
2.16 180.931 73.621
2.17 177.588 73.511
2.18 174.763 73.280
2.19 173.605 72.985
2.20 173.332 72.574
2.21 173.999 72.212
2.22 175.202 71.847
2.23 177.643 71.366
2.24 180.656 70.531
2.25 188.459 69.280
2.26 223.675 68.274
2.27 232.860 67.721
2.28 237.625 67.366
2.29 241.015 67.252
2.30 245.346 67.277
2.31 249.019 67.445
2.32 255.410 67.460
2.33 262.127 67.165
2.34 274.998 67.263
2.35 283.727 68.291
2.36 289.925 69.615
2.37 293.230 70.762
2.38 294.847 71.656
2.39 293.699 72.202
2.40 290.540 72.449
2.41 289.059 72.567
2.42 288.412 72.537
2.43 287.237 72.397
2.44 286.863 72.380
2.45 286.537 72.447
2.46 287.501 72.337
2.47 291.692 72.041
2.48 294.045 71.696
2.49 293.689 71.173
2.50 292.237 70.460
2.51 291.552 69.949
2.52 291.354 69.833
2.53 290.232 69.809
2.54 288.492 69.704
2.55 286.146 69.551
2.56 282.436 69.235
2.57 276.781 68.544
2.58 268.701 67.217
2.59 258.848 64.869
2.60 250.069 61.096
2.61 --undefined-- 55.502
2.62 --undefined-- 48.758
2.63 --undefined-- 44.671
2.64 --undefined-- 46.681
2.65 --undefined-- 52.127
2.66 --undefined-- 57.223
2.67 --undefined-- 62.931
2.68 --undefined-- 67.167
2.69 --undefined-- 70.042
2.70 182.410 72.138
2.71 177.513 73.176
2.72 171.192 73.316
2.73 166.232 73.220
2.74 163.603 73.038
2.75 161.500 72.715
2.76 160.503 72.433
2.77 160.381 72.403
2.78 160.047 72.547
2.79 160.685 72.443
2.80 162.949 72.019
2.81 164.762 71.256
2.82 166.955 69.937
2.83 169.677 68.220
2.84 176.433 67.134
2.85 183.217 67.510
2.86 189.180 68.488
2.87 192.990 69.155
2.88 196.535 69.460
2.89 199.692 69.882
2.90 202.638 70.571
2.91 205.900 71.198
2.92 209.294 71.639
2.93 212.170 72.069
2.94 215.185 72.412
2.95 217.769 72.545
2.96 220.433 72.638
2.97 222.749 72.808
2.98 222.199 72.824
2.99 222.113 72.510
3.00 222.751 71.996
3.01 224.539 71.186
3.02 230.433 69.685
3.03 231.210 67.040
3.04 225.900 62.839
3.05 224.328 56.854
3.06 226.947 50.771
3.07 --undefined-- 51.451
3.08 --undefined-- 56.328
3.09 --undefined-- 63.251
3.10 --undefined-- 69.204
3.11 190.924 72.209
3.12 189.279 72.888
3.13 184.938 72.582
3.14 183.180 72.507
3.15 181.783 72.633
3.16 180.658 72.621
3.17 179.410 72.488
3.18 178.962 72.238
3.19 179.130 72.023
3.20 179.374 71.949
3.21 179.484 71.933
3.22 179.871 71.903
3.23 181.036 71.958
3.24 182.003 72.179
3.25 181.919 72.172
3.26 180.060 71.039
3.27 173.459 67.954
3.28 170.186 62.949
3.29 175.816 57.355
3.30 --undefined-- 51.410
3.31 --undefined-- 46.934
3.32 --undefined-- 47.431
3.33 --undefined-- 48.282
3.34 --undefined-- 48.493
3.35 --undefined-- 49.796
3.36 --undefined-- 55.670
3.37 227.692 62.970
3.38 218.650 68.139
3.39 216.754 71.264
3.40 214.535 72.916
3.41 212.723 73.612
3.42 211.012 73.705
3.43 209.676 73.229
3.44 207.284 72.262
3.45 205.253 71.649
3.46 207.182 71.728
3.47 206.573 71.812
3.48 205.873 71.804
3.49 205.537 71.797
3.50 205.204 71.793
3.51 204.905 71.817
3.52 204.825 71.855
3.53 204.762 71.761
3.54 204.803 71.375
3.55 204.388 70.466
3.56 201.033 68.735
3.57 197.642 65.823
3.58 197.414 61.273
3.59 197.271 55.260
3.60 197.927 51.994
3.61 204.132 54.980
3.62 204.601 59.466
3.63 --undefined-- 62.303
3.64 --undefined-- 65.163
3.65 272.734 69.744
3.66 268.905 72.840
3.67 266.802 73.804
3.68 260.191 73.479
3.69 253.533 72.670
3.70 251.246 71.685
3.71 252.192 70.977
3.72 253.775 70.794
3.73 253.313 70.705
3.74 252.177 70.622
3.75 253.635 70.653
3.76 255.601 70.720
3.77 257.435 70.753
3.78 260.215 70.899
3.79 263.997 71.064
3.80 268.438 70.786
3.81 271.075 69.926
3.82 270.196 68.912
3.83 264.258 68.324
3.84 260.049 68.072
3.85 248.443 67.934
3.86 244.151 68.204
3.87 239.729 68.825
3.88 231.935 69.081
3.89 215.126 68.966
3.90 206.338 69.019
3.91 192.704 69.306
3.92 177.139 69.299
3.93 166.696 68.939
3.94 150.397 68.246
3.95 142.260 67.039
3.96 134.538 65.831
3.97 130.796 65.413
3.98 129.400 65.711
3.99 130.604 66.014
4.00 133.449 66.047
4.01 136.402 66.092
4.02 139.992 66.404
4.03 142.689 66.916
4.04 146.586 67.364
4.05 150.113 67.581
4.06 151.635 67.712
4.07 151.553 67.964
4.08 152.719 68.210
4.09 153.832 68.452
4.10 154.407 68.661
4.11 156.476 68.486
4.12 156.085 67.543
4.13 152.199 65.445
4.14 151.064 61.886
4.15 160.205 57.977
4.16 159.704 54.933
4.17 --undefined-- 51.013
4.18 --undefined-- 46.637
4.19 --undefined-- 55.562
4.20 --undefined-- 65.476
4.21 --undefined-- 71.022
4.22 196.598 72.967
4.23 195.525 72.514
4.24 191.870 71.604
4.25 190.199 71.637
4.26 189.854 72.128
4.27 188.772 72.251
4.28 187.781 71.857
4.29 186.529 71.227
4.30 185.134 70.548
4.31 184.562 70.106
4.32 185.574 70.041
4.33 186.086 70.067
4.34 186.336 70.043
4.35 186.447 69.978
4.36 186.468 69.808
4.37 186.605 69.402
4.38 185.992 68.655
4.39 184.192 67.485
4.40 180.525 65.918
4.41 169.139 64.010
4.42 152.911 61.705
4.43 --undefined-- 58.902
4.44 --undefined-- 56.230
4.45 --undefined-- 52.833
4.46 --undefined-- 48.370
4.47 --undefined-- 49.638
4.48 --undefined-- 54.834
4.49 --undefined-- 57.848
4.50 --undefined-- 61.496
4.51 193.010 65.245
4.52 178.589 67.056
4.53 171.630 67.738
4.54 169.550 68.365
4.55 169.967 69.155
4.56 168.863 69.803
4.57 167.585 70.074
4.58 167.016 70.088
4.59 166.721 69.967
4.60 166.833 69.885
4.61 167.487 69.943
4.62 167.381 69.986
4.63 167.376 69.901
4.64 167.598 69.686
4.65 166.740 69.155
4.66 163.380 67.952
4.67 157.756 65.733
4.68 158.001 62.449
4.69 153.008 58.503
4.70 160.371 53.757
4.71 --undefined-- 49.769
4.72 --undefined-- 47.129
4.73 --undefined-- 44.303
4.74 --undefined-- 42.202
4.75 --undefined-- 40.318
4.76 --undefined-- 39.178
4.77 --undefined-- 40.260
4.78 --undefined-- 52.574
4.79 --undefined-- 63.525
4.80 --undefined-- 69.658
4.81 215.443 72.168
4.82 214.376 72.194
4.83 215.638 71.514
4.84 219.045 71.073
4.85 220.283 70.872
4.86 219.074 70.851
4.87 218.521 70.987
4.88 218.093 71.309
4.89 218.274 71.644
4.90 221.025 71.864
4.91 221.877 72.024
4.92 219.094 71.796
4.93 214.679 70.451
4.94 205.085 67.604
4.95 203.278 63.526
4.96 208.619 58.244
4.97 --undefined-- 51.234
4.98 --undefined-- 44.349
4.99 --undefined-- 42.533
5.00 --undefined-- 41.887
5.01 --undefined-- 40.437
5.02 --undefined-- 39.881
5.03 --undefined-- 39.753
5.04 --undefined-- 39.146
5.05 --undefined-- 40.973
5.06 --undefined-- 50.493
5.07 --undefined-- 59.783
5.08 --undefined-- 66.131
5.09 186.637 69.995
5.10 184.273 71.767
5.11 179.593 72.042
5.12 174.676 71.966
5.13 168.922 72.117
5.14 166.040 72.399
5.15 166.689 72.755
5.16 169.799 73.088
5.17 175.376 72.952
5.18 183.277 72.438
5.19 192.080 72.410
5.20 200.732 72.762
5.21 210.428 72.663
5.22 220.438 72.152
5.23 229.165 71.629
5.24 239.581 71.145
5.25 248.466 70.860
5.26 255.165 70.756
5.27 261.407 70.555
5.28 269.074 70.496
5.29 276.167 71.183
5.30 280.913 --undefined--
5.31 284.295 --undefined--
5.32 --undefined-- --undefined--
5.33 --undefined-- --undefined--
