Time Pitch Intensity
0.01 --undefined-- --undefined--
0.02 170.501 --undefined--
0.03 162.513 --undefined--
0.04 150.634 --undefined--
0.05 143.558 79.026
0.06 137.984 79.415
0.07 134.130 79.514
0.08 132.682 79.305
0.09 134.349 78.778
0.10 135.431 78.309
0.11 136.314 78.310
0.12 136.663 78.612
0.13 137.121 79.078
0.14 137.911 79.566
0.15 138.589 79.953
0.16 139.453 80.184
0.17 140.363 80.203
0.18 141.256 79.993
0.19 142.066 79.627
0.20 142.340 79.232
0.21 142.264 78.988
0.22 142.318 78.837
0.23 142.523 78.719
0.24 142.728 78.656
0.25 142.734 78.556
0.26 142.661 78.419
0.27 142.878 78.256
0.28 143.514 78.013
0.29 144.198 77.779
0.30 144.974 77.668
0.31 145.289 77.700
0.32 145.637 77.816
0.33 145.983 77.945
0.34 146.491 78.105
0.35 147.343 78.312
0.36 147.859 78.545
0.37 147.872 78.728
0.38 147.851 78.851
0.39 148.134 78.975
0.40 148.437 79.075
0.41 148.695 79.136
0.42 148.764 79.220
0.43 148.817 79.333
0.44 148.950 79.418
0.45 148.762 79.483
0.46 149.209 79.576
0.47 149.754 79.678
0.48 149.962 79.748
0.49 150.105 79.792
0.50 150.609 79.858
0.51 151.130 79.958
0.52 151.601 80.056
0.53 152.208 80.149
0.54 152.269 80.245
0.55 152.114 80.315
0.56 151.978 80.351
0.57 152.130 80.352
0.58 152.292 80.274
0.59 151.760 80.117
0.60 151.281 79.931
0.61 151.252 79.739
0.62 151.477 79.559
0.63 151.980 79.402
0.64 152.950 79.298
0.65 154.603 79.323
0.66 155.888 79.391
0.67 157.182 79.201
0.68 157.149 78.214
0.69 153.874 75.833
0.70 151.068 71.890
0.71 148.800 66.622
0.72 --undefined-- 59.973
0.73 --undefined-- 52.646
0.74 --undefined-- 55.139
0.75 --undefined-- 64.542
0.76 --undefined-- 72.212
0.77 169.115 76.736
0.78 162.105 78.860
0.79 158.749 79.787
0.80 154.821 80.356
0.81 152.828 80.801
0.82 151.341 81.153
0.83 150.164 81.256
0.84 146.820 80.600
0.85 140.542 78.622
0.86 138.424 75.463
0.87 139.518 72.918
0.88 141.884 71.934
0.89 147.557 70.755
0.90 145.274 69.794
0.91 140.683 70.866
0.92 136.213 72.930
0.93 134.113 74.894
0.94 132.668 76.389
0.95 131.680 77.246
0.96 131.038 77.484
0.97 129.936 77.182
0.98 129.338 76.586
0.99 129.112 76.140
1.00 128.599 76.043
1.01 129.227 76.177
1.02 130.251 76.356
1.03 130.783 76.423
1.04 131.096 76.403
1.05 131.345 76.352
1.06 131.804 76.283
1.07 131.993 76.287
1.08 131.746 76.373
1.09 131.484 76.405
1.10 131.646 76.340
1.11 131.764 76.240
1.12 131.500 76.159
1.13 130.166 76.085
1.14 129.768 76.066
1.15 130.644 76.123
1.16 125.999 76.384
1.17 123.606 76.876
1.18 121.387 77.337
1.19 121.037 77.821
1.20 121.197 78.138
1.21 121.777 77.974
1.22 123.122 77.429
1.23 125.249 76.936
1.24 126.551 76.701
1.25 127.677 76.709
1.26 129.198 76.690
1.27 130.749 76.378
1.28 132.382 76.229
1.29 135.529 76.336
1.30 137.911 76.244
1.31 139.710 75.888
1.32 141.673 75.526
1.33 142.935 75.331
1.34 143.668 75.249
1.35 143.908 75.225
1.36 143.793 75.241
1.37 143.651 75.279
1.38 143.632 75.317
1.39 143.687 75.307
1.40 143.895 75.308
1.41 144.492 75.400
1.42 145.391 75.548
1.43 146.220 75.742
1.44 146.938 76.012
1.45 147.210 76.332
1.46 147.331 76.647
1.47 147.422 76.873
1.48 147.456 76.967
1.49 147.732 77.027
1.50 148.044 77.176
1.51 148.705 77.419
1.52 149.209 77.643
1.53 148.905 77.754
1.54 148.884 77.758
1.55 148.945 77.725
1.56 148.707 77.711
1.57 148.503 77.672
1.58 148.562 77.543
1.59 148.626 77.383
1.60 148.980 77.299
1.61 149.256 77.267
1.62 149.340 76.959
1.63 149.139 75.679
1.64 148.661 72.827
1.65 144.510 68.701
1.66 131.783 64.993
1.67 133.178 62.477
1.68 129.627 60.003
1.69 --undefined-- 58.610
1.70 214.851 60.851
1.71 214.603 62.660
1.72 215.700 63.098
1.73 220.395 62.811
1.74 227.354 62.314
1.75 --undefined-- 62.919
1.76 --undefined-- 64.147
1.77 --undefined-- 64.996
1.78 --undefined-- 66.052
1.79 --undefined-- 67.623
1.80 --undefined-- 69.742
1.81 --undefined-- 71.396
1.82 --undefined-- 72.062
1.83 --undefined-- 71.860
1.84 --undefined-- 71.294
1.85 --undefined-- 71.107
1.86 --undefined-- 71.813
1.87 --undefined-- 73.133
1.88 152.771 74.436
1.89 143.515 76.227
1.90 144.121 78.672
1.91 142.032 80.753
1.92 141.012 81.946
1.93 141.594 82.239
1.94 141.346 81.579
1.95 141.748 79.727
1.96 141.972 76.516
1.97 138.243 72.073
1.98 126.894 67.405
1.99 131.568 63.574
2.00 --undefined-- 60.312
2.01 --undefined-- 58.564
2.02 138.659 58.228
2.03 134.491 58.022
2.04 137.901 57.333
2.05 --undefined-- 57.133
2.06 --undefined-- 58.434
2.07 --undefined-- 61.228
2.08 --undefined-- 65.235
2.09 --undefined-- 68.755
2.10 104.686 70.752
2.11 100.228 71.686
2.12 96.776 72.256
2.13 97.223 72.373
2.14 96.502 71.483
2.15 94.936 69.589
2.16 90.094 67.111
2.17 95.097 65.710
2.18 96.558 66.161
2.19 97.071 66.771
2.20 97.459 67.329
2.21 98.722 68.146
2.22 101.368 69.307
2.23 103.782 70.552
2.24 106.073 71.617
2.25 108.296 72.384
2.26 112.118 72.797
2.27 115.532 72.949
2.28 113.251 73.048
2.29 113.789 73.106
2.30 113.010 72.912
2.31 112.104 72.438
2.32 112.010 71.844
2.33 113.838 71.348
2.34 116.925 71.247
2.35 116.561 71.589
2.36 114.911 72.508
2.37 114.008 73.748
2.38 113.049 74.665
2.39 113.550 75.009
2.40 114.964 75.017
2.41 115.525 74.945
2.42 115.489 74.655
2.43 121.052 73.963
2.44 120.885 73.119
2.45 120.589 72.290
2.46 117.709 71.324
2.47 114.903 70.273
2.48 111.520 69.424
2.49 111.602 69.266
2.50 111.816 70.013
2.51 111.279 71.203
2.52 --undefined-- 72.517
2.53 --undefined-- 73.462
2.54 98.663 73.488
2.55 98.768 72.550
2.56 99.139 70.807
2.57 101.103 68.916
2.58 108.367 69.505
2.59 115.207 71.317
2.60 119.479 72.374
2.61 123.706 72.774
2.62 129.479 72.721
2.63 139.305 72.454
2.64 152.625 72.480
2.65 162.444 72.875
2.66 168.668 73.129
2.67 174.593 73.098
2.68 181.362 73.194
2.69 187.496 73.559
2.70 190.866 73.771
2.71 192.552 73.633
2.72 194.260 73.590
2.73 196.051 74.006
2.74 196.949 74.574
2.75 195.781 74.757
2.76 191.873 74.002
2.77 183.401 71.882
2.78 171.069 68.460
2.79 --undefined-- 64.489
2.80 --undefined-- 60.585
2.81 --undefined-- 59.879
2.82 --undefined-- 66.038
2.83 --undefined-- 73.120
2.84 --undefined-- 77.851
2.85 166.597 80.527
2.86 159.359 81.839
2.87 150.737 81.666
2.88 139.598 80.438
2.89 136.697 79.583
2.90 135.261 79.377
2.91 135.090 79.423
2.92 136.217 79.302
2.93 136.303 78.852
2.94 134.933 78.435
2.95 133.629 78.292
2.96 132.778 78.287
2.97 132.301 78.281
2.98 131.806 78.254
2.99 131.790 78.236
3.00 131.229 78.211
3.01 131.335 78.097
3.02 131.779 77.852
3.03 132.003 77.392
3.04 131.500 76.401
3.05 129.904 74.527
3.06 126.851 71.724
3.07 124.728 68.368
3.08 118.194 64.937
3.09 113.727 61.604
3.10 --undefined-- 60.596
3.11 --undefined-- 66.256
3.12 --undefined-- 72.809
3.13 --undefined-- 76.847
3.14 --undefined-- 78.669
3.15 --undefined-- 79.043
3.16 --undefined-- 78.587
3.17 103.244 78.113
3.18 101.153 78.071
3.19 101.556 77.551
3.20 105.288 76.628
3.21 109.474 76.135
3.22 113.815 75.847
3.23 119.073 75.403
3.24 122.846 74.602
3.25 131.071 74.190
3.26 135.767 74.485
3.27 139.605 74.990
3.28 143.403 75.625
3.29 147.011 76.523
3.30 150.150 77.970
3.31 151.983 79.562
3.32 152.407 80.481
3.33 150.755 80.419
3.34 148.737 79.725
3.35 146.555 79.130
3.36 143.612 78.842
3.37 140.733 78.076
3.38 135.027 75.956
3.39 127.048 72.490
3.40 120.522 68.549
3.41 115.234 64.575
3.42 --undefined-- 60.716
3.43 --undefined-- 57.813
3.44 --undefined-- 58.810
3.45 --undefined-- 65.935
3.46 --undefined-- 72.302
3.47 --undefined-- 75.811
3.48 109.836 77.106
3.49 103.283 77.185
3.50 100.596 76.858
3.51 99.296 76.252
3.52 98.266 75.240
3.53 97.221 74.157
3.54 96.307 73.562
3.55 96.275 73.472
3.56 97.457 73.550
3.57 99.494 73.534
3.58 103.591 73.616
3.59 108.700 74.054
3.60 112.817 74.720
3.61 118.823 75.212
3.62 123.186 75.594
3.63 131.349 76.817
3.64 136.629 78.925
3.65 139.227 80.460
3.66 141.096 80.926
3.67 141.436 80.797
3.68 141.209 80.717
3.69 140.173 80.929
3.70 137.827 81.240
3.71 134.273 81.052
3.72 129.670 79.996
3.73 124.788 78.635
3.74 120.583 77.619
3.75 116.238 76.220
3.76 108.271 73.665
3.77 107.787 70.014
3.78 99.378 65.114
3.79 --undefined-- 58.262
3.80 --undefined-- 50.212
3.81 --undefined-- 47.224
3.82 --undefined-- 48.710
3.83 --undefined-- 50.176
3.84 --undefined-- 50.806
3.85 --undefined-- 51.192
3.86 --undefined-- 51.364
3.87 --undefined-- 51.101
3.88 --undefined-- 50.829
3.89 --undefined-- 50.926
3.90 --undefined-- 51.028
3.91 --undefined-- 50.731
3.92 --undefined-- 50.496
3.93 --undefined-- 50.766
3.94 --undefined-- 50.979
3.95 --undefined-- 50.559
3.96 --undefined-- 49.940
3.97 --undefined-- 49.753
3.98 --undefined-- 50.255
3.99 --undefined-- 50.730
4.00 --undefined-- 50.609
4.01 --undefined-- 50.142
4.02 --undefined-- 49.472
4.03 --undefined-- 49.309
4.04 --undefined-- 49.686
4.05 --undefined-- 49.168
4.06 --undefined-- 48.273
4.07 --undefined-- 48.459
4.08 --undefined-- 49.675
4.09 --undefined-- 50.666
4.10 --undefined-- 49.916
4.11 --undefined-- 48.106
4.12 --undefined-- 47.242
4.13 --undefined-- 47.205
4.14 --undefined-- 47.322
4.15 --undefined-- 47.208
4.16 --undefined-- 46.180
4.17 --undefined-- 43.936
4.18 --undefined-- 42.159
4.19 --undefined-- 42.983
4.20 --undefined-- 42.713
4.21 --undefined-- 42.477
4.22 --undefined-- 47.632
4.23 --undefined-- 53.967
4.24 --undefined-- 61.793
4.25 176.372 68.484
4.26 174.400 72.816
4.27 173.962 74.783
4.28 172.132 74.906
4.29 179.477 74.219
4.30 183.034 73.521
4.31 187.871 73.256
4.32 193.320 73.435
4.33 196.449 73.491
4.34 195.274 72.628
4.35 190.254 70.241
4.36 181.581 66.523
4.37 174.940 62.292
4.38 --undefined-- 61.628
4.39 --undefined-- 70.518
4.40 238.112 77.827
4.41 231.383 81.796
4.42 226.788 82.931
4.43 222.342 82.557
4.44 222.111 82.383
4.45 221.027 82.578
4.46 219.296 82.404
4.47 217.480 81.306
4.48 217.037 79.465
4.49 212.540 78.008
4.50 209.356 77.327
4.51 205.569 76.861
4.52 199.728 76.184
4.53 189.372 75.347
4.54 176.497 75.028
4.55 164.349 75.388
4.56 151.551 75.947
4.57 135.761 76.509
4.58 126.173 76.898
4.59 119.307 76.828
4.60 113.629 76.395
4.61 110.972 75.971
4.62 109.087 75.636
4.63 108.668 75.312
4.64 107.843 74.367
4.65 104.775 72.329
4.66 107.465 69.420
4.67 106.289 65.726
4.68 104.541 61.330
4.69 --undefined-- 59.753
4.70 --undefined-- 62.092
4.71 --undefined-- 64.120
4.72 --undefined-- 65.060
4.73 --undefined-- 65.330
4.74 --undefined-- 65.046
4.75 --undefined-- 65.376
4.76 --undefined-- 66.060
4.77 --undefined-- 65.904
4.78 --undefined-- 65.003
4.79 --undefined-- 63.994
4.80 --undefined-- 62.406
4.81 --undefined-- 61.113
4.82 --undefined-- 64.985
4.83 --undefined-- 69.135
4.84 108.730 71.129
4.85 101.046 71.434
4.86 97.519 70.808
4.87 95.083 70.124
4.88 95.547 69.615
4.89 94.904 68.930
4.90 91.519 68.043
4.91 94.313 68.170
4.92 97.982 69.062
4.93 97.153 --undefined--
4.94 97.144 --undefined--
4.95 --undefined-- --undefined--
4.96 --undefined-- --undefined--
