Time Pitch Intensity
0.01 --undefined-- --undefined--
0.02 176.935 --undefined--
0.03 175.646 --undefined--
0.04 176.259 --undefined--
0.05 176.203 71.253
0.06 176.633 71.382
0.07 176.850 71.433
0.08 177.614 71.223
0.09 178.396 70.598
0.10 175.874 69.377
0.11 168.785 67.326
0.12 160.886 64.323
0.13 --undefined-- 60.458
0.14 --undefined-- 55.987
0.15 --undefined-- 50.410
0.16 --undefined-- 43.789
0.17 --undefined-- 41.363
0.18 --undefined-- 41.359
0.19 --undefined-- 39.554
0.20 --undefined-- 39.005
0.21 --undefined-- 40.483
0.22 --undefined-- 40.432
0.23 --undefined-- 39.956
0.24 --undefined-- 39.982
0.25 --undefined-- 39.261
0.26 --undefined-- 38.795
0.27 --undefined-- 40.661
0.28 --undefined-- 41.874
0.29 --undefined-- 40.655
0.30 --undefined-- 38.774
0.31 --undefined-- 38.731
0.32 --undefined-- 38.358
0.33 --undefined-- 38.464
0.34 --undefined-- 40.788
0.35 --undefined-- 43.543
0.36 --undefined-- 44.530
0.37 --undefined-- 43.071
0.38 --undefined-- 40.207
0.39 --undefined-- 39.991
0.40 --undefined-- 41.026
0.41 --undefined-- 40.668
0.42 --undefined-- 40.717
0.43 --undefined-- 41.564
0.44 --undefined-- 42.648
0.45 --undefined-- 43.021
0.46 --undefined-- 42.517
0.47 --undefined-- 42.340
0.48 --undefined-- 42.016
0.49 --undefined-- 48.127
0.50 --undefined-- 59.120
0.51 --undefined-- 67.131
0.52 220.869 71.630
0.53 216.290 73.662
0.54 211.706 74.475
0.55 209.909 75.137
0.56 208.797 75.877
0.57 208.150 76.497
0.58 208.167 76.804
0.59 208.356 76.685
0.60 208.297 76.181
0.61 207.774 75.523
0.62 207.196 75.005
0.63 207.593 74.621
0.64 207.781 74.254
0.65 206.097 74.270
0.66 207.831 74.898
0.67 209.756 75.338
0.68 210.473 75.301
0.69 211.950 75.108
0.70 212.918 74.670
0.71 211.412 73.334
0.72 207.301 70.296
0.73 202.251 64.826
0.74 --undefined-- 56.830
0.75 --undefined-- 53.094
0.76 --undefined-- 53.861
0.77 --undefined-- 59.113
0.78 220.767 66.549
0.79 220.107 71.145
0.80 216.597 73.498
0.81 208.466 74.548
0.82 203.005 74.834
0.83 201.235 74.693
0.84 202.647 74.468
0.85 205.087 74.251
0.86 209.400 73.463
0.87 213.962 71.193
0.88 208.556 66.985
0.89 206.841 60.878
0.90 --undefined-- 53.488
0.91 --undefined-- 46.865
0.92 --undefined-- 49.914
0.93 --undefined-- 60.817
0.94 --undefined-- 68.542
0.95 223.335 72.770
0.96 215.468 74.586
0.97 207.708 75.048
0.98 200.843 74.816
0.99 195.298 74.486
1.00 192.541 74.414
1.01 191.114 74.370
1.02 189.550 74.184
1.03 188.154 73.900
1.04 187.360 73.721
1.05 186.796 73.751
1.06 186.573 73.885
1.07 186.146 73.797
1.08 185.930 73.372
1.09 185.963 72.849
1.10 185.851 71.944
1.11 184.054 69.639
1.12 179.424 65.271
1.13 186.914 59.088
1.14 --undefined-- 51.296
1.15 --undefined-- 43.627
1.16 --undefined-- 42.580
1.17 --undefined-- 52.334
1.18 --undefined-- 62.684
1.19 219.181 68.860
1.20 200.038 71.570
1.21 191.925 72.018
1.22 189.324 71.705
1.23 186.888 71.517
1.24 185.084 71.594
1.25 183.502 71.858
1.26 183.286 72.055
1.27 185.162 71.938
1.28 187.382 71.481
1.29 182.864 71.054
1.30 183.465 71.168
1.31 185.712 71.554
1.32 186.199 71.833
1.33 186.103 72.023
1.34 186.207 72.121
1.35 185.108 72.064
1.36 183.300 71.835
1.37 182.244 71.539
1.38 181.973 71.453
1.39 180.784 71.511
1.40 180.077 71.463
1.41 179.098 71.328
1.42 178.647 71.179
1.43 178.641 71.042
1.44 178.674 70.935
1.45 178.706 70.856
1.46 179.412 70.846
1.47 180.826 70.915
1.48 183.025 71.065
1.49 185.464 71.207
1.50 187.714 71.092
1.51 188.705 70.947
1.52 192.696 71.138
1.53 197.778 71.379
1.54 202.836 71.478
1.55 208.130 71.595
1.56 212.648 71.676
1.57 215.042 71.335
1.58 215.686 69.962
1.59 220.335 66.758
1.60 229.469 61.101
1.61 --undefined-- 53.147
1.62 --undefined-- 49.776
1.63 --undefined-- 53.718
1.64 --undefined-- 55.749
1.65 --undefined-- 56.770
1.66 203.838 57.329
1.67 202.323 56.541
1.68 196.645 58.209
1.69 192.148 62.276
1.70 189.250 65.222
1.71 180.486 66.919
1.72 173.240 67.820
1.73 167.792 68.035
1.74 159.558 67.706
1.75 152.367 67.186
1.76 146.127 66.411
1.77 141.877 64.698
1.78 137.667 61.365
1.79 --undefined-- 56.138
1.80 --undefined-- 49.419
1.81 --undefined-- 44.468
1.82 --undefined-- 46.212
1.83 --undefined-- 50.994
1.84 --undefined-- 53.326
1.85 --undefined-- 55.816
1.86 213.093 62.975
1.87 205.278 68.193
1.88 199.568 70.789
1.89 188.860 71.827
1.90 182.799 72.140
1.91 179.326 72.147
1.92 177.222 72.140
1.93 175.684 72.257
1.94 175.334 72.458
1.95 174.292 72.250
1.96 173.407 70.698
1.97 170.917 67.227
1.98 158.060 62.936
1.99 159.172 60.360
2.00 162.564 58.823
2.01 162.624 57.100
2.02 --undefined-- 55.451
2.03 --undefined-- 53.069
2.04 --undefined-- 48.464
2.05 --undefined-- 43.372
2.06 --undefined-- 42.787
2.07 --undefined-- 42.873
2.08 --undefined-- 41.841
2.09 --undefined-- 40.690
2.10 --undefined-- 39.332
2.11 --undefined-- 37.055
2.12 --undefined-- 36.576
2.13 --undefined-- 37.479
2.14 --undefined-- 37.627
2.15 --undefined-- 42.467
2.16 --undefined-- 54.735
2.17 --undefined-- 63.073
2.18 --undefined-- 67.861
2.19 207.845 70.531
2.20 208.315 72.052
2.21 206.392 72.870
2.22 203.932 73.376
2.23 201.228 73.733
2.24 199.249 73.948
2.25 198.462 73.961
2.26 199.437 73.666
2.27 202.531 73.044
2.28 207.041 72.294
2.29 209.917 71.658
2.30 211.719 71.123
2.31 214.034 70.226
2.32 211.440 68.035
2.33 197.853 63.616
2.34 --undefined-- 56.587
2.35 --undefined-- 48.923
2.36 --undefined-- 45.661
2.37 --undefined-- 45.097
2.38 --undefined-- 44.717
2.39 --undefined-- 44.862
2.40 --undefined-- 47.414
2.41 --undefined-- 55.664
2.42 291.513 64.736
2.43 278.986 70.229
2.44 265.266 72.949
2.45 258.420 74.194
2.46 255.418 74.948
2.47 253.843 75.419
2.48 252.397 75.525
2.49 250.488 75.326
2.50 248.619 74.996
2.51 247.150 74.596
2.52 246.399 74.085
2.53 247.731 73.648
2.54 250.897 73.656
2.55 254.363 74.008
2.56 257.875 74.147
2.57 260.734 73.686
2.58 261.772 72.767
2.59 260.696 71.672
2.60 257.680 70.383
2.61 250.296 68.837
2.62 235.748 66.924
2.63 217.870 64.228
2.64 82.279 60.507
2.65 84.127 56.599
2.66 --undefined-- 52.931
2.67 --undefined-- 49.276
2.68 --undefined-- 51.659
2.69 --undefined-- 56.375
2.70 --undefined-- 60.050
2.71 173.520 62.857
2.72 176.761 64.889
2.73 177.564 66.345
2.74 176.347 67.577
2.75 177.513 68.464
2.76 177.882 68.880
2.77 178.656 69.173
2.78 179.711 69.468
2.79 181.311 69.690
2.80 183.520 69.906
2.81 185.956 70.135
2.82 188.127 70.371
2.83 191.020 70.648
2.84 194.733 70.832
2.85 198.702 70.828
2.86 200.653 70.479
2.87 199.904 69.340
2.88 190.547 67.094
2.89 183.104 63.732
2.90 184.889 58.804
2.91 --undefined-- 51.707
2.92 --undefined-- 44.821
2.93 --undefined-- 44.473
2.94 --undefined-- 48.130
2.95 --undefined-- 52.350
2.96 --undefined-- 56.608
2.97 --undefined-- 59.402
2.98 --undefined-- 61.665
2.99 --undefined-- 63.125
3.00 --undefined-- 62.958
3.01 --undefined-- 61.719
3.02 --undefined-- 60.778
3.03 --undefined-- 61.363
3.04 --undefined-- 61.665
3.05 --undefined-- 60.383
3.06 --undefined-- 57.711
3.07 --undefined-- 58.874
3.08 199.551 64.915
3.09 186.880 68.472
3.10 183.141 69.702
3.11 180.522 69.883
3.12 179.208 69.845
3.13 178.473 69.729
3.14 179.347 69.407
3.15 180.919 69.003
3.16 182.209 68.580
3.17 183.887 68.053
3.18 185.598 67.586
3.19 188.026 67.263
3.20 190.582 67.093
3.21 195.372 66.964
3.22 199.538 66.976
3.23 204.630 67.272
3.24 210.400 67.817
3.25 214.676 68.667
3.26 220.918 69.783
3.27 225.731 70.818
3.28 230.221 71.525
3.29 234.423 72.022
3.30 236.658 72.467
3.31 237.736 72.850
3.32 238.081 73.051
3.33 237.585 72.994
3.34 237.375 72.819
3.35 237.776 72.626
3.36 238.179 72.240
3.37 237.532 71.287
3.38 233.040 69.178
3.39 223.375 65.294
3.40 226.231 59.330
3.41 --undefined-- 51.493
3.42 --undefined-- 44.220
3.43 --undefined-- 40.403
3.44 --undefined-- 40.629
3.45 --undefined-- 42.320
3.46 --undefined-- 44.570
3.47 --undefined-- 47.950
3.48 --undefined-- 53.825
3.49 --undefined-- 62.455
3.50 223.413 68.046
3.51 206.482 70.496
3.52 194.980 70.944
3.53 183.490 70.851
3.54 178.482 70.909
3.55 176.474 70.787
3.56 175.109 70.352
3.57 174.026 69.657
3.58 172.230 68.570
3.59 169.048 66.725
3.60 163.655 63.604
3.61 152.295 58.780
3.62 --undefined-- 52.486
3.63 --undefined-- 47.489
3.64 --undefined-- 45.462
3.65 --undefined-- 42.883
3.66 --undefined-- 40.802
3.67 --undefined-- 40.133
3.68 --undefined-- 40.423
3.69 --undefined-- 41.153
3.70 --undefined-- 42.843
3.71 --undefined-- 44.975
3.72 --undefined-- 48.942
3.73 --undefined-- 57.673
3.74 202.130 64.424
3.75 189.665 68.080
3.76 183.095 69.749
3.77 177.287 70.618
3.78 174.871 71.161
3.79 172.860 71.415
3.80 172.029 71.521
3.81 171.520 71.596
3.82 172.041 71.810
3.83 172.992 72.164
3.84 173.646 72.358
3.85 173.241 72.167
3.86 172.592 71.570
3.87 171.750 70.422
3.88 169.094 68.198
3.89 167.249 64.109
3.90 --undefined-- 57.328
3.91 --undefined-- 48.260
3.92 --undefined-- 44.872
3.93 --undefined-- 48.482
3.94 --undefined-- 56.967
3.95 --undefined-- 64.303
3.96 178.021 68.037
3.97 163.924 68.977
3.98 156.492 68.520
3.99 151.794 67.969
4.00 150.981 67.668
4.01 151.449 67.440
4.02 151.161 67.045
4.03 150.240 66.235
4.04 147.239 65.569
4.05 150.142 66.186
4.06 151.916 67.349
4.07 153.100 68.006
4.08 153.560 68.179
4.09 154.361 68.135
4.10 154.296 67.796
4.11 153.658 66.859
4.12 151.838 64.719
4.13 151.941 60.514
4.14 --undefined-- 54.505
4.15 --undefined-- 54.936
4.16 --undefined-- 55.978
4.17 --undefined-- 54.538
4.18 --undefined-- 53.641
4.19 170.876 54.792
4.20 165.109 57.782
4.21 183.042 61.846
4.22 184.790 65.284
4.23 184.425 67.525
4.24 183.187 68.886
4.25 181.473 69.789
4.26 178.058 70.299
4.27 174.738 70.565
4.28 173.324 70.819
4.29 172.906 71.107
4.30 172.130 71.341
4.31 171.266 71.507
4.32 170.312 71.538
4.33 168.960 71.212
4.34 168.993 70.632
4.35 169.405 70.107
4.36 169.682 69.880
4.37 170.167 69.752
4.38 170.336 69.412
4.39 170.424 69.039
4.40 169.912 68.830
4.41 168.940 68.369
4.42 168.875 67.385
4.43 168.485 65.982
4.44 165.642 64.397
4.45 158.259 62.676
4.46 150.690 60.876
4.47 157.457 58.785
4.48 --undefined-- 55.409
4.49 --undefined-- 49.408
4.50 --undefined-- 42.286
4.51 --undefined-- 39.921
4.52 --undefined-- 40.160
4.53 --undefined-- 39.951
4.54 --undefined-- 39.935
4.55 --undefined-- 39.140
4.56 --undefined-- 38.350
4.57 --undefined-- 40.433
4.58 --undefined-- 42.091
4.59 --undefined-- 41.296
4.60 --undefined-- 38.571
4.61 --undefined-- 37.382
4.62 --undefined-- 37.312
4.63 --undefined-- 37.453
4.64 --undefined-- 39.599
4.65 --undefined-- 41.590
4.66 --undefined-- 41.881
4.67 --undefined-- 41.244
4.68 --undefined-- 41.725
4.69 --undefined-- 42.937
4.70 --undefined-- 43.128
4.71 --undefined-- 42.252
4.72 --undefined-- 42.386
4.73 --undefined-- 42.037
4.74 --undefined-- 40.518
4.75 --undefined-- 40.296
4.76 --undefined-- 40.786
4.77 --undefined-- 41.510
4.78 --undefined-- 42.147
4.79 --undefined-- 41.638
4.80 --undefined-- 40.556
4.81 --undefined-- 40.585
4.82 --undefined-- 41.180
4.83 --undefined-- 41.650
4.84 --undefined-- 41.809
4.85 --undefined-- 40.961
4.86 --undefined-- 40.424
4.87 --undefined-- 40.758
4.88 --undefined-- 39.287
4.89 --undefined-- 37.407
4.90 --undefined-- 38.476
4.91 --undefined-- 40.354
4.92 --undefined-- 41.659
4.93 --undefined-- 46.240
4.94 --undefined-- 57.576
4.95 --undefined-- 65.365
4.96 189.924 69.518
4.97 182.446 71.381
4.98 175.997 72.394
4.99 173.661 73.307
5.00 174.697 74.023
5.01 178.865 74.199
5.02 187.338 73.802
5.03 193.498 73.169
5.04 200.136 72.424
5.05 207.460 71.683
5.06 211.951 71.515
5.07 216.664 72.571
5.08 227.498 74.025
5.09 232.989 74.810
5.10 237.044 74.959
5.11 239.801 74.875
5.12 239.250 74.788
5.13 235.693 74.545
5.14 230.830 73.906
5.15 224.310 72.895
5.16 216.526 71.839
5.17 209.959 71.163
5.18 202.115 70.422
5.19 186.889 69.268
5.20 173.613 68.253
5.21 163.949 67.525
5.22 157.308 66.901
5.23 155.145 66.597
5.24 154.372 66.660
5.25 153.790 66.914
5.26 153.812 67.144
5.27 153.841 67.251
5.28 153.128 67.231
5.29 152.947 67.229
5.30 153.743 67.292
5.31 154.206 67.236
5.32 154.420 67.020
5.33 156.225 66.520
5.34 155.738 65.454
5.35 147.619 63.565
5.36 143.525 60.965
5.37 --undefined-- 58.217
5.38 --undefined-- 56.198
5.39 --undefined-- 55.139
5.40 --undefined-- 55.950
5.41 --undefined-- 58.188
5.42 150.285 61.251
5.43 161.591 64.706
5.44 169.044 67.704
5.45 172.285 69.844
5.46 171.282 70.808
5.47 168.790 70.822
5.48 165.775 70.485
5.49 162.132 70.165
5.50 158.725 69.837
5.51 156.634 69.497
5.52 155.888 69.363
5.53 156.424 69.487
5.54 156.556 69.563
5.55 156.228 69.409
5.56 156.247 69.028
5.57 156.129 68.460
5.58 154.771 67.674
5.59 154.058 66.778
5.60 155.357 66.403
5.61 160.662 67.224
5.62 163.530 68.492
5.63 163.547 69.426
5.64 162.578 69.940
5.65 159.541 69.951
5.66 156.483 69.731
5.67 155.099 69.633
5.68 153.693 69.432
5.69 152.057 68.894
5.70 149.926 68.319
5.71 151.203 68.171
5.72 152.673 68.466
5.73 152.984 68.839
5.74 153.480 69.069
5.75 154.616 69.229
5.76 156.890 69.398
5.77 161.253 69.560
5.78 166.059 69.740
5.79 174.249 69.782
5.80 179.628 69.264
5.81 181.995 68.204
5.82 190.449 68.410
5.83 220.624 70.640
5.84 234.377 72.353
5.85 238.909 73.017
5.86 245.313 73.049
5.87 254.636 --undefined--
5.88 259.829 --undefined--
5.89 --undefined-- --undefined--
5.90 --undefined-- --undefined--
