Time Pitch Intensity
0.01 --undefined-- --undefined--
0.02 149.066 --undefined--
0.03 150.823 --undefined--
0.04 151.644 --undefined--
0.05 152.156 77.475
0.06 152.243 77.488
0.07 151.477 77.317
0.08 150.721 77.072
0.09 147.361 76.233
0.10 141.023 73.925
0.11 145.905 69.559
0.12 151.292 63.452
0.13 147.270 59.514
0.14 147.749 57.822
0.15 --undefined-- 56.068
0.16 --undefined-- 56.130
0.17 --undefined-- 59.397
0.18 169.127 66.835
0.19 168.546 72.918
0.20 158.544 75.943
0.21 150.049 76.473
0.22 145.968 75.670
0.23 135.087 74.304
0.24 133.509 74.106
0.25 133.443 74.840
0.26 128.867 74.637
0.27 112.160 73.487
0.28 110.758 71.923
0.29 101.000 70.220
0.30 97.279 68.946
0.31 101.414 68.275
0.32 92.785 67.835
0.33 --undefined-- 67.799
0.34 --undefined-- 67.788
0.35 --undefined-- 67.111
0.36 --undefined-- 65.480
0.37 --undefined-- 62.984
0.38 --undefined-- 62.245
0.39 --undefined-- 62.934
0.40 103.181 62.831
0.41 97.413 61.401
0.42 90.225 58.631
0.43 89.939 55.931
0.44 107.482 54.467
0.45 --undefined-- 55.590
0.46 --undefined-- 61.898
0.47 --undefined-- 68.991
0.48 --undefined-- 72.888
0.49 115.321 73.867
0.50 107.922 73.234
0.51 104.219 72.491
0.52 101.109 72.001
0.53 97.842 70.941
0.54 95.761 68.657
0.55 97.134 65.358
0.56 101.505 62.207
0.57 104.702 59.572
0.58 104.187 56.536
0.59 103.433 53.199
0.60 --undefined-- 50.590
0.61 --undefined-- 49.848
0.62 130.484 52.405
0.63 134.011 54.509
0.64 143.140 56.468
0.65 --undefined-- 60.532
0.66 --undefined-- 64.228
0.67 --undefined-- 65.751
0.68 --undefined-- 67.228
0.69 --undefined-- 71.326
0.70 --undefined-- 73.862
0.71 115.857 74.211
0.72 102.718 73.371
0.73 100.330 71.963
0.74 93.472 70.179
0.75 92.480 68.581
0.76 88.912 67.707
0.77 83.526 67.315
0.78 94.156 67.279
0.79 96.798 67.862
0.80 92.867 68.641
0.81 97.936 69.642
0.82 103.024 70.888
0.83 109.073 72.020
0.84 114.956 72.975
0.85 118.536 73.691
0.86 122.983 74.325
0.87 126.612 74.937
0.88 128.270 74.745
0.89 128.404 72.749
0.90 125.277 68.712
0.91 130.995 64.339
0.92 130.240 61.568
0.93 128.973 60.261
0.94 --undefined-- 62.699
0.95 --undefined-- 69.235
0.96 165.171 74.345
0.97 154.133 76.478
0.98 146.809 76.045
0.99 138.632 73.673
1.00 132.810 69.653
1.01 119.493 64.265
1.02 129.920 59.572
1.03 137.402 56.930
1.04 136.962 54.292
1.05 141.112 52.739
1.06 --undefined-- 58.110
1.07 --undefined-- 66.910
1.08 --undefined-- 72.732
1.09 --undefined-- 75.145
1.10 126.776 75.143
1.11 124.577 74.382
1.12 122.159 73.917
1.13 121.417 73.708
1.14 121.093 73.675
1.15 120.444 73.574
1.16 119.593 73.328
1.17 118.841 73.147
1.18 117.980 72.983
1.19 117.583 72.579
1.20 117.047 72.099
1.21 113.970 71.762
1.22 106.743 71.068
1.23 92.941 69.608
1.24 --undefined-- 67.214
1.25 --undefined-- 63.613
1.26 --undefined-- 58.151
1.27 --undefined-- 50.756
1.28 --undefined-- 46.290
1.29 --undefined-- 47.129
1.30 --undefined-- 51.975
1.31 --undefined-- 56.393
1.32 --undefined-- 58.186
1.33 --undefined-- 58.379
1.34 --undefined-- 57.992
1.35 --undefined-- 57.247
1.36 --undefined-- 57.036
1.37 --undefined-- 56.964
1.38 --undefined-- 56.744
1.39 --undefined-- 56.045
1.40 --undefined-- 54.953
1.41 --undefined-- 54.307
1.42 --undefined-- 53.773
1.43 --undefined-- 53.030
1.44 --undefined-- 52.484
1.45 --undefined-- 52.148
1.46 --undefined-- 52.363
1.47 --undefined-- 53.585
1.48 --undefined-- 54.370
1.49 --undefined-- 54.154
1.50 --undefined-- 53.755
1.51 --undefined-- 52.343
1.52 --undefined-- 49.767
1.53 --undefined-- 50.868
1.54 --undefined-- 61.425
1.55 179.801 69.268
1.56 178.623 73.724
1.57 180.722 75.740
1.58 182.266 76.351
1.59 183.620 76.525
1.60 184.091 76.504
1.61 182.292 75.921
1.62 175.000 74.586
1.63 165.196 73.206
1.64 163.876 73.995
1.65 176.777 76.112
1.66 162.283 76.947
1.67 159.334 76.495
1.68 151.698 75.506
1.69 147.433 74.904
1.70 145.130 74.114
1.71 139.289 71.853
1.72 136.373 69.353
1.73 143.996 70.536
1.74 155.185 73.950
1.75 151.850 75.968
1.76 144.546 76.259
1.77 141.636 75.679
1.78 140.236 74.783
1.79 139.866 74.129
1.80 139.989 73.562
1.81 138.728 71.680
1.82 134.731 67.619
1.83 --undefined-- 62.778
1.84 --undefined-- 60.990
1.85 --undefined-- 65.233
1.86 --undefined-- 71.071
1.87 152.675 74.468
1.88 151.556 75.660
1.89 151.322 75.795
1.90 150.949 75.708
1.91 149.999 75.230
1.92 147.320 73.543
1.93 145.822 70.214
1.94 148.336 66.418
1.95 146.467 63.334
1.96 144.890 63.623
1.97 150.598 69.443
1.98 157.230 73.937
1.99 154.498 76.049
2.00 152.912 76.278
2.01 144.342 75.511
2.02 137.811 74.779
2.03 136.375 74.222
2.04 136.043 73.737
2.05 135.124 73.031
2.06 131.765 70.899
2.07 127.306 66.483
2.08 133.689 60.469
2.09 136.008 55.206
2.10 128.997 51.897
2.11 126.801 52.388
2.12 129.858 55.567
2.13 --undefined-- 58.975
2.14 --undefined-- 64.539
2.15 --undefined-- 71.505
2.16 212.791 75.547
2.17 213.268 76.775
2.18 210.484 76.057
2.19 204.082 73.725
2.20 193.726 69.773
2.21 158.710 64.779
2.22 199.034 59.952
2.23 205.362 56.887
2.24 206.455 55.088
2.25 --undefined-- 52.002
2.26 --undefined-- 51.067
2.27 152.227 55.803
2.28 152.834 59.406
2.29 143.098 60.871
2.30 134.352 61.210
2.31 127.389 60.889
2.32 120.277 60.204
2.33 116.150 59.962
2.34 112.872 59.993
2.35 111.828 60.726
2.36 111.272 62.948
2.37 111.088 65.967
2.38 111.358 68.875
2.39 111.032 71.390
2.40 110.608 73.394
2.41 111.233 74.695
2.42 111.596 75.196
2.43 111.532 75.164
2.44 112.219 75.191
2.45 113.513 75.420
2.46 113.790 75.522
2.47 117.483 75.345
2.48 118.126 74.913
2.49 119.139 74.127
2.50 --undefined-- 72.413
2.51 --undefined-- 70.300
2.52 253.807 69.441
2.53 263.703 68.024
2.54 274.395 64.061
2.55 --undefined-- 62.445
2.56 --undefined-- 68.628
2.57 --undefined-- 72.453
2.58 130.997 74.104
2.59 133.665 74.965
2.60 143.940 75.533
2.61 147.272 75.833
2.62 150.281 75.942
2.63 152.686 75.926
2.64 152.825 75.899
2.65 151.684 75.874
2.66 151.381 75.929
2.67 152.402 76.049
2.68 154.310 76.099
2.69 156.371 76.002
2.70 158.279 75.738
2.71 160.046 75.380
2.72 161.988 75.073
2.73 163.420 75.061
2.74 162.963 75.339
2.75 162.000 75.468
2.76 161.581 74.859
2.77 158.511 72.887
2.78 149.536 69.657
2.79 153.445 67.067
2.80 149.420 64.957
2.81 150.296 61.890
2.82 155.118 59.904
2.83 159.019 60.558
2.84 159.475 61.309
2.85 159.668 60.654
2.86 --undefined-- 59.701
2.87 --undefined-- 65.421
2.88 216.352 72.396
2.89 208.507 75.913
2.90 206.510 76.535
2.91 204.961 75.597
2.92 202.352 74.353
2.93 200.508 73.323
2.94 199.924 72.951
2.95 199.566 73.260
2.96 198.573 73.800
2.97 197.520 74.502
2.98 196.692 75.195
2.99 197.008 75.566
3.00 197.550 75.674
3.01 197.331 75.684
3.02 196.512 75.708
3.03 195.380 75.853
3.04 195.347 76.096
3.05 195.832 76.363
3.06 196.891 76.627
3.07 197.798 76.786
3.08 197.140 76.600
3.09 194.849 75.581
3.10 185.181 73.010
3.11 168.509 68.684
3.12 161.059 63.738
3.13 166.083 59.618
3.14 --undefined-- 54.966
3.15 --undefined-- 48.782
3.16 --undefined-- 48.502
3.17 --undefined-- 51.238
3.18 --undefined-- 54.729
3.19 --undefined-- 58.295
3.20 --undefined-- 61.381
3.21 --undefined-- 63.986
3.22 --undefined-- 65.563
3.23 --undefined-- 66.153
3.24 --undefined-- 68.006
3.25 --undefined-- 72.606
3.26 --undefined-- 75.495
3.27 154.792 75.623
3.28 137.998 74.343
3.29 132.920 73.639
3.30 126.602 73.890
3.31 123.132 74.237
3.32 122.899 74.090
3.33 124.020 73.784
3.34 124.209 73.754
3.35 124.267 73.784
3.36 123.820 73.814
3.37 123.400 74.067
3.38 123.294 74.428
3.39 123.090 74.680
3.40 122.884 74.756
3.41 122.574 74.254
3.42 122.292 72.328
3.43 121.396 68.534
3.44 128.171 64.617
3.45 128.806 63.193
3.46 126.275 61.837
3.47 125.448 59.030
3.48 127.365 55.248
3.49 121.837 56.493
3.50 --undefined-- 64.673
3.51 --undefined-- 70.754
3.52 --undefined-- 73.557
3.53 115.491 73.673
3.54 109.495 72.505
3.55 109.489 71.904
3.56 111.317 72.132
3.57 114.089 72.464
3.58 116.253 72.102
3.59 115.078 70.356
3.60 119.993 68.234
3.61 133.564 69.630
3.62 140.786 72.654
3.63 147.510 74.827
3.64 154.688 76.134
3.65 160.775 76.923
3.66 166.862 77.295
3.67 172.945 77.117
3.68 178.008 76.760
3.69 180.443 76.598
3.70 181.390 75.986
3.71 178.920 74.141
3.72 173.058 70.849
3.73 166.516 66.915
3.74 165.015 64.079
3.75 166.163 64.385
3.76 186.551 69.978
3.77 179.778 74.234
3.78 174.708 75.841
3.79 167.473 75.950
3.80 155.559 75.565
3.81 150.340 75.044
3.82 146.538 74.502
3.83 142.362 74.038
3.84 140.497 73.514
3.85 138.749 73.022
3.86 137.390 73.052
3.87 136.767 73.402
3.88 136.212 73.543
3.89 135.878 73.384
3.90 135.548 73.014
3.91 134.510 72.589
3.92 132.831 72.268
3.93 131.693 71.698
3.94 128.509 70.493
3.95 126.705 68.787
3.96 121.034 66.839
3.97 123.129 64.836
3.98 135.326 62.372
3.99 135.416 58.220
4.00 135.056 53.217
4.01 131.253 49.937
4.02 --undefined-- 46.241
4.03 --undefined-- 42.461
4.04 --undefined-- 42.053
4.05 --undefined-- 43.112
4.06 --undefined-- 44.991
4.07 --undefined-- 45.868
4.08 --undefined-- 44.115
4.09 --undefined-- 41.114
4.10 --undefined-- 42.070
4.11 --undefined-- 43.963
4.12 --undefined-- 44.387
4.13 --undefined-- 43.628
4.14 --undefined-- 43.857
4.15 --undefined-- 46.419
4.16 --undefined-- 51.300
4.17 --undefined-- 55.802
4.18 --undefined-- 57.541
4.19 --undefined-- 57.133
4.20 --undefined-- 57.879
4.21 --undefined-- 60.189
4.22 --undefined-- 62.328
4.23 --undefined-- 63.022
4.24 --undefined-- 63.214
4.25 --undefined-- 66.497
4.26 --undefined-- 70.543
4.27 121.568 72.900
4.28 118.564 73.623
4.29 115.556 73.210
4.30 109.658 72.078
4.31 106.499 70.596
4.32 103.892 69.303
4.33 102.029 68.764
4.34 105.000 69.510
4.35 107.686 70.838
4.36 106.849 71.760
4.37 106.884 72.224
4.38 106.833 72.079
4.39 105.377 70.688
4.40 104.864 67.711
4.41 104.580 63.795
4.42 107.269 60.773
4.43 --undefined-- 59.191
4.44 --undefined-- 60.479
4.45 --undefined-- 65.861
4.46 --undefined-- 70.818
4.47 121.948 73.141
4.48 117.252 73.530
4.49 119.891 73.337
4.50 122.208 73.283
4.51 118.504 73.351
4.52 115.822 73.103
4.53 110.494 72.551
4.54 108.546 72.276
4.55 107.758 72.298
4.56 107.236 72.171
4.57 107.600 71.756
4.58 106.870 70.916
4.59 103.749 69.118
4.60 102.363 66.120
4.61 105.134 63.047
4.62 109.762 60.955
4.63 113.386 58.710
4.64 111.262 54.978
4.65 --undefined-- 51.091
4.66 --undefined-- 52.184
4.67 --undefined-- 57.676
4.68 --undefined-- 64.725
4.69 --undefined-- 70.927
4.70 --undefined-- 74.239
4.71 144.663 74.668
4.72 135.184 73.394
4.73 135.158 72.307
4.74 136.134 72.089
4.75 135.082 72.143
4.76 135.262 72.362
4.77 135.660 72.935
4.78 135.279 73.664
4.79 134.148 74.503
4.80 134.396 75.216
4.81 134.778 75.494
4.82 135.379 75.188
4.83 131.701 73.909
4.84 126.279 71.570
4.85 129.624 69.571
4.86 130.854 70.753
4.87 134.937 73.678
4.88 134.794 75.283
4.89 129.877 75.155
4.90 123.233 74.187
4.91 119.982 73.195
4.92 118.078 72.689
4.93 117.762 72.403
4.94 118.687 71.749
4.95 116.813 70.794
4.96 110.264 69.906
4.97 101.828 69.372
4.98 96.939 69.255
4.99 98.398 69.684
5.00 109.098 70.479
5.01 120.067 71.618
5.02 131.244 73.069
5.03 138.886 74.364
5.04 143.918 75.361
5.05 150.542 76.125
5.06 158.328 76.705
5.07 160.011 --undefined--
5.08 163.177 --undefined--
5.09 --undefined-- --undefined--
5.10 --undefined-- --undefined--
