Time Pitch Intensity
0.01 --undefined-- --undefined--
0.02 119.395 --undefined--
0.03 116.910 --undefined--
0.04 115.150 --undefined--
0.05 114.866 75.853
0.06 115.479 75.557
0.07 117.187 75.152
0.08 118.365 75.087
0.09 118.955 75.144
0.10 119.622 75.157
0.11 120.399 75.166
0.12 120.984 75.197
0.13 121.518 75.334
0.14 121.722 75.506
0.15 120.906 75.178
0.16 119.300 73.421
0.17 107.842 69.416
0.18 117.209 63.980
0.19 117.068 59.394
0.20 116.076 56.670
0.21 --undefined-- 59.235
0.22 --undefined-- 62.358
0.23 --undefined-- 64.923
0.24 --undefined-- 69.550
0.25 --undefined-- 73.407
0.26 113.679 74.754
0.27 106.604 74.103
0.28 107.397 73.190
0.29 110.199 73.487
0.30 114.126 74.158
0.31 118.630 74.649
0.32 127.273 75.075
0.33 133.757 75.455
0.34 140.857 75.648
0.35 145.227 75.328
0.36 152.152 75.004
0.37 159.747 75.621
0.38 162.047 76.617
0.39 164.563 77.155
0.40 168.181 76.962
0.41 170.406 76.284
0.42 169.527 75.674
0.43 167.553 75.350
0.44 163.771 74.847
0.45 160.169 73.661
0.46 154.210 71.903
0.47 147.395 70.060
0.48 147.153 69.641
0.49 148.333 71.935
0.50 153.080 75.118
0.51 148.061 77.019
0.52 147.018 77.209
0.53 143.688 76.234
0.54 131.435 75.459
0.55 131.122 75.271
0.56 126.022 74.346
0.57 121.050 72.606
0.58 101.850 70.477
0.59 --undefined-- 67.673
0.60 --undefined-- 64.922
0.61 --undefined-- 62.114
0.62 --undefined-- 57.350
0.63 --undefined-- 51.999
0.64 --undefined-- 49.669
0.65 --undefined-- 48.257
0.66 --undefined-- 46.553
0.67 --undefined-- 44.598
0.68 --undefined-- 42.790
0.69 --undefined-- 42.608
0.70 --undefined-- 44.553
0.71 --undefined-- 46.566
0.72 --undefined-- 50.990
0.73 --undefined-- 55.557
0.74 --undefined-- 56.959
0.75 --undefined-- 56.660
0.76 --undefined-- 60.749
0.77 110.321 65.951
0.78 109.755 69.202
0.79 109.530 70.805
0.80 108.798 71.445
0.81 107.584 71.594
0.82 107.237 71.553
0.83 106.251 71.513
0.84 106.405 71.541
0.85 107.519 71.576
0.86 106.559 71.313
0.87 103.599 70.606
0.88 105.944 70.286
0.89 107.276 70.634
0.90 107.159 70.945
0.91 106.909 71.120
0.92 106.857 71.253
0.93 106.878 71.377
0.94 106.952 71.486
0.95 106.887 71.491
0.96 106.653 71.258
0.97 105.961 70.518
0.98 105.117 68.966
0.99 105.403 66.690
1.00 107.752 64.284
1.01 108.632 61.907
1.02 109.262 58.865
1.03 106.111 54.533
1.04 --undefined-- 52.324
1.05 --undefined-- 62.029
1.06 --undefined-- 70.171
1.07 152.237 74.579
1.08 147.771 76.205
1.09 146.109 76.279
1.10 147.094 76.361
1.11 149.726 76.866
1.12 150.538 76.879
1.13 148.212 75.727
1.14 150.281 74.625
1.15 155.577 75.138
1.16 153.446 75.879
1.17 152.282 76.168
1.18 150.961 76.093
1.19 150.398 75.874
1.20 150.126 75.677
1.21 149.695 75.437
1.22 149.269 75.178
1.23 148.721 75.043
1.24 148.779 74.982
1.25 149.259 74.828
1.26 149.098 74.583
1.27 148.150 74.350
1.28 147.246 74.273
1.29 148.128 74.750
1.30 148.949 75.573
1.31 145.123 76.008
1.32 145.382 76.120
1.33 145.838 76.282
1.34 145.948 76.502
1.35 146.119 76.670
1.36 145.693 76.754
1.37 144.674 76.697
1.38 142.846 76.476
1.39 138.943 76.058
1.40 134.128 75.421
1.41 128.834 74.853
1.42 124.184 74.618
1.43 120.061 74.334
1.44 111.933 73.627
1.45 106.838 72.426
1.46 102.679 70.255
1.47 91.454 66.653
1.48 92.013 62.146
1.49 102.140 57.581
1.50 102.973 53.425
1.51 --undefined-- 50.049
1.52 --undefined-- 46.967
1.53 --undefined-- 46.459
1.54 --undefined-- 51.276
1.55 --undefined-- 62.466
1.56 --undefined-- 70.762
1.57 155.478 75.324
1.58 148.465 76.895
1.59 142.927 76.626
1.60 139.357 76.012
1.61 138.142 75.595
1.62 136.051 74.611
1.63 131.922 72.392
1.64 122.500 69.223
1.65 130.447 66.365
1.66 130.837 63.602
1.67 129.838 60.181
1.68 135.363 56.018
1.69 --undefined-- 51.940
1.70 --undefined-- 55.175
1.71 --undefined-- 63.026
1.72 --undefined-- 68.359
1.73 108.072 71.317
1.74 103.573 72.569
1.75 99.898 72.633
1.76 96.914 72.199
1.77 96.719 71.776
1.78 98.095 71.421
1.79 100.454 71.399
1.80 103.047 71.587
1.81 106.010 71.746
1.82 110.430 72.317
1.83 114.947 73.533
1.84 119.533 74.707
1.85 125.366 75.563
1.86 130.188 76.265
1.87 133.220 76.723
1.88 136.528 76.742
1.89 140.406 76.227
1.90 143.815 74.861
1.91 147.279 71.952
1.92 143.562 66.972
1.93 147.251 60.517
1.94 140.997 56.262
1.95 141.393 54.423
1.96 --undefined-- 51.921
1.97 --undefined-- 51.581
1.98 --undefined-- 52.925
1.99 --undefined-- 53.192
2.00 --undefined-- 52.758
2.01 --undefined-- 56.648
2.02 --undefined-- 64.198
2.03 --undefined-- 69.322
2.04 107.262 72.102
2.05 107.536 73.623
2.06 107.224 74.592
2.07 108.502 75.315
2.08 109.180 75.789
2.09 109.101 75.946
2.10 112.014 75.717
2.11 113.179 75.179
2.12 111.815 74.771
2.13 112.923 74.569
2.14 113.400 74.474
2.15 113.105 74.188
2.16 112.513 73.788
2.17 111.096 73.331
2.18 107.567 72.561
2.19 104.841 71.720
2.20 99.687 70.775
2.21 97.440 69.107
2.22 98.550 66.835
2.23 100.495 64.069
2.24 98.028 59.940
2.25 --undefined-- 54.826
2.26 --undefined-- 50.594
2.27 --undefined-- 50.464
2.28 --undefined-- 52.350
2.29 --undefined-- 53.519
2.30 --undefined-- 53.787
2.31 --undefined-- 53.468
2.32 --undefined-- 52.990
2.33 --undefined-- 52.525
2.34 --undefined-- 52.093
2.35 --undefined-- 51.633
2.36 --undefined-- 51.194
2.37 --undefined-- 51.134
2.38 --undefined-- 51.299
2.39 --undefined-- 51.202
2.40 --undefined-- 51.116
2.41 --undefined-- 50.821
2.42 --undefined-- 50.088
2.43 --undefined-- 49.764
2.44 --undefined-- 49.861
2.45 --undefined-- 50.613
2.46 --undefined-- 51.678
2.47 --undefined-- 52.446
2.48 --undefined-- 52.971
2.49 --undefined-- 52.393
2.50 --undefined-- 49.703
2.51 --undefined-- 45.290
2.52 --undefined-- 41.632
2.53 --undefined-- 47.291
2.54 --undefined-- 59.174
2.55 --undefined-- 67.568
2.56 --undefined-- 72.766
2.57 131.829 75.183
2.58 134.463 75.730
2.59 139.416 75.963
2.60 142.364 76.608
2.61 143.548 77.465
2.62 143.932 78.266
2.63 145.390 78.875
2.64 146.634 79.357
2.65 148.694 79.833
2.66 151.268 80.017
2.67 152.620 79.223
2.68 151.255 76.816
2.69 150.006 73.002
2.70 152.881 69.968
2.71 153.338 68.205
2.72 153.413 66.752
2.73 155.312 67.475
2.74 187.025 71.487
2.75 197.358 74.691
2.76 193.859 75.605
2.77 189.001 75.592
2.78 185.929 76.203
2.79 183.976 76.648
2.80 182.600 76.543
2.81 181.818 76.202
2.82 181.584 75.768
2.83 180.859 75.770
2.84 179.320 76.426
2.85 177.410 77.038
2.86 176.572 76.994
2.87 177.284 75.852
2.88 177.115 73.357
2.89 171.983 70.378
2.90 170.151 68.747
2.91 167.804 67.661
2.92 164.647 65.739
2.93 162.739 62.704
2.94 168.523 58.476
2.95 --undefined-- 54.096
2.96 --undefined-- 53.816
2.97 --undefined-- 55.875
2.98 --undefined-- 59.939
2.99 --undefined-- 63.989
3.00 --undefined-- 68.705
3.01 --undefined-- 73.643
3.02 193.518 75.806
3.03 192.592 75.223
3.04 188.620 74.167
3.05 185.666 74.825
3.06 182.960 75.699
3.07 180.889 76.041
3.08 179.738 76.164
3.09 178.992 76.278
3.10 178.650 76.428
3.11 178.732 76.480
3.12 179.049 76.432
3.13 179.306 76.377
3.14 179.010 76.192
3.15 177.431 75.708
3.16 175.623 74.942
3.17 174.948 74.310
3.18 176.082 74.383
3.19 176.785 74.893
3.20 175.491 75.310
3.21 173.671 75.574
3.22 171.386 75.743
3.23 168.229 75.798
3.24 163.601 75.678
3.25 158.298 75.183
3.26 151.806 73.950
3.27 143.253 72.036
3.28 139.400 70.010
3.29 136.727 67.970
3.30 127.516 67.237
3.31 131.856 70.030
3.32 126.228 72.885
3.33 120.247 74.280
3.34 118.242 74.624
3.35 116.833 74.687
3.36 116.230 75.099
3.37 115.866 75.877
3.38 115.965 76.575
3.39 116.183 76.990
3.40 116.362 77.138
3.41 117.199 76.939
3.42 118.637 76.345
3.43 121.242 75.625
3.44 125.506 75.239
3.45 128.596 75.226
3.46 129.790 74.971
3.47 126.478 74.172
3.48 131.689 74.236
3.49 138.768 75.652
3.50 142.503 76.925
3.51 146.616 77.594
3.52 149.404 77.944
3.53 154.422 77.959
3.54 153.479 77.411
3.55 150.842 76.659
3.56 150.129 76.155
3.57 150.290 76.000
3.58 150.725 75.950
3.59 150.919 75.829
3.60 150.649 75.647
3.61 149.420 75.386
3.62 148.041 74.676
3.63 147.583 73.086
3.64 133.048 71.515
3.65 127.132 71.287
3.66 122.281 71.741
3.67 123.045 72.668
3.68 123.276 73.417
3.69 122.246 73.763
3.70 120.283 73.696
3.71 119.124 73.233
3.72 119.026 72.634
3.73 119.252 72.138
3.74 120.667 71.986
3.75 123.707 72.461
3.76 129.172 73.332
3.77 132.532 73.761
3.78 134.653 73.366
3.79 139.445 72.732
3.80 144.090 72.732
3.81 145.186 73.378
3.82 146.334 74.119
3.83 150.996 74.422
3.84 153.598 74.076
3.85 152.617 73.067
3.86 151.507 71.634
3.87 152.552 70.772
3.88 153.633 71.101
3.89 155.890 72.186
3.90 158.816 73.629
3.91 160.796 74.954
3.92 163.371 76.164
3.93 165.758 77.199
3.94 166.815 77.680
3.95 166.172 77.296
3.96 161.709 76.249
3.97 162.782 76.187
3.98 165.640 77.229
3.99 165.335 77.853
4.00 163.934 77.761
4.01 158.573 77.095
4.02 155.002 76.075
4.03 152.655 75.334
4.04 152.078 74.920
4.05 152.500 74.256
4.06 154.255 73.327
4.07 146.337 71.984
4.08 140.804 70.248
4.09 137.493 68.774
4.10 142.451 68.987
4.11 149.928 71.203
4.12 156.130 73.697
4.13 158.084 75.159
4.14 158.025 75.282
4.15 156.831 74.547
4.16 151.595 73.874
4.17 149.976 73.502
4.18 147.974 73.015
4.19 146.065 71.914
4.20 147.706 69.531
4.21 153.805 65.262
4.22 155.493 59.036
4.23 --undefined-- 52.810
4.24 --undefined-- 49.874
4.25 --undefined-- 48.969
4.26 --undefined-- 48.507
4.27 --undefined-- 48.256
4.28 --undefined-- 48.008
4.29 --undefined-- 51.806
4.30 --undefined-- 62.916
4.31 --undefined-- 71.296
4.32 168.763 75.500
4.33 165.400 76.754
4.34 157.540 76.581
4.35 152.275 76.244
4.36 148.812 75.965
4.37 146.919 75.578
4.38 145.855 75.008
4.39 146.143 74.431
4.40 147.525 74.201
4.41 149.271 74.579
4.42 149.798 75.377
4.43 149.675 76.281
4.44 149.154 76.868
4.45 147.700 76.945
4.46 145.427 76.873
4.47 145.208 76.764
4.48 141.967 76.231
4.49 136.598 75.165
4.50 129.447 73.730
4.51 125.440 72.564
4.52 125.563 72.924
4.53 130.233 74.719
4.54 117.011 75.772
4.55 111.768 75.778
4.56 107.927 75.582
4.57 105.901 75.402
4.58 102.908 75.168
4.59 102.241 74.872
4.60 101.905 74.465
4.61 101.330 73.514
4.62 97.198 71.735
4.63 102.025 71.100
4.64 106.243 72.030
4.65 112.927 73.333
4.66 113.390 74.667
4.67 113.630 75.210
4.68 113.704 74.969
4.69 113.061 74.561
4.70 111.442 74.307
4.71 110.354 74.128
4.72 108.752 73.953
4.73 107.212 73.753
4.74 105.538 73.439
4.75 103.282 73.141
4.76 101.825 72.969
4.77 100.153 72.819
4.78 99.113 72.283
4.79 96.877 70.747
4.80 90.679 67.741
4.81 98.698 62.758
4.82 105.998 56.363
4.83 --undefined-- 50.382
4.84 --undefined-- 54.699
4.85 --undefined-- 61.931
4.86 --undefined-- 65.240
4.87 --undefined-- 65.084
4.88 --undefined-- 63.296
4.89 --undefined-- 66.588
4.90 --undefined-- 72.717
4.91 173.123 75.971
4.92 173.424 76.690
4.93 176.738 76.739
4.94 177.500 77.284
4.95 176.686 77.793
4.96 179.009 77.964
4.97 179.200 78.109
4.98 178.943 78.111
4.99 181.613 77.654
5.00 184.159 77.023
5.01 183.141 76.561
5.02 179.489 75.763
5.03 171.511 74.028
5.04 163.387 71.381
5.05 156.908 68.196
5.06 149.758 64.819
5.07 145.041 63.835
5.08 145.684 --undefined--
5.09 153.349 --undefined--
5.10 --undefined-- --undefined--
5.11 --undefined-- --undefined--
