Time Pitch Intensity
0.01 --undefined-- --undefined--
0.02 --undefined-- --undefined--
0.03 --undefined-- --undefined--
0.04 --undefined-- --undefined--
0.05 --undefined-- 51.561
0.06 --undefined-- 61.940
0.07 --undefined-- 68.289
0.08 114.033 71.684
0.09 113.339 73.158
0.10 111.656 73.356
0.11 107.477 71.866
0.12 101.835 68.609
0.13 103.161 65.387
0.14 105.332 63.663
0.15 106.413 62.512
0.16 105.980 61.536
0.17 106.128 61.239
0.18 106.415 64.588
0.19 106.058 70.330
0.20 110.551 73.820
0.21 109.499 74.717
0.22 105.962 74.459
0.23 107.604 74.145
0.24 104.259 73.720
0.25 103.856 73.260
0.26 103.948 72.930
0.27 104.587 72.596
0.28 105.286 72.298
0.29 106.477 72.185
0.30 105.616 72.217
0.31 104.651 72.322
0.32 105.184 72.207
0.33 105.515 71.329
0.34 104.091 69.432
0.35 106.123 67.142
0.36 107.061 64.964
0.37 104.583 62.136
0.38 102.664 58.328
0.39 --undefined-- 54.135
0.40 --undefined-- 50.440
0.41 --undefined-- 47.351
0.42 --undefined-- 45.181
0.43 --undefined-- 45.691
0.44 --undefined-- 48.970
0.45 --undefined-- 50.413
0.46 --undefined-- 52.482
0.47 --undefined-- 60.698
0.48 --undefined-- 68.715
0.49 --undefined-- 74.200
0.50 160.362 77.182
0.51 158.184 78.318
0.52 154.717 78.094
0.53 150.263 77.123
0.54 147.634 76.458
0.55 147.903 76.493
0.56 149.781 76.763
0.57 152.428 77.021
0.58 153.383 77.122
0.59 153.136 77.083
0.60 152.407 77.053
0.61 151.058 77.060
0.62 149.784 76.986
0.63 148.852 76.684
0.64 147.875 75.934
0.65 145.963 74.333
0.66 141.559 71.425
0.67 132.887 66.853
0.68 122.664 62.302
0.69 --undefined-- 63.507
0.70 --undefined-- 66.864
0.71 --undefined-- 70.095
0.72 --undefined-- 74.576
0.73 --undefined-- 77.381
0.74 --undefined-- 77.645
0.75 --undefined-- 76.420
0.76 --undefined-- 74.438
0.77 --undefined-- 71.284
0.78 --undefined-- 67.376
0.79 --undefined-- 64.407
0.80 --undefined-- 62.236
0.81 --undefined-- 61.052
0.82 --undefined-- 61.585
0.83 104.020 62.492
0.84 112.808 63.801
0.85 116.563 65.002
0.86 118.250 65.913
0.87 117.801 66.852
0.88 116.892 67.937
0.89 117.149 69.057
0.90 116.596 70.128
0.91 113.379 71.107
0.92 109.533 72.066
0.93 104.299 72.736
0.94 103.770 72.874
0.95 104.741 72.535
0.96 106.424 71.950
0.97 107.071 71.274
0.98 93.777 70.152
0.99 76.033 68.615
1.00 --undefined-- 66.721
1.01 --undefined-- 63.736
1.02 --undefined-- 61.344
1.03 --undefined-- 61.971
1.04 98.255 63.038
1.05 106.268 64.027
1.06 109.182 65.704
1.07 112.016 68.777
1.08 113.376 71.262
1.09 98.475 71.986
1.10 98.538 71.287
1.11 96.187 69.530
1.12 92.863 66.803
1.13 92.996 63.511
1.14 94.849 60.282
1.15 96.056 57.408
1.16 100.528 55.895
1.17 --undefined-- 54.746
1.18 --undefined-- 52.246
1.19 --undefined-- 48.585
1.20 --undefined-- 45.643
1.21 --undefined-- 44.562
1.22 --undefined-- 50.056
1.23 --undefined-- 62.170
1.24 --undefined-- 70.207
1.25 137.932 74.359
1.26 133.182 75.840
1.27 131.994 75.726
1.28 129.914 75.160
1.29 127.348 74.747
1.30 125.762 74.174
1.31 124.559 73.594
1.32 124.628 73.433
1.33 124.028 73.335
1.34 122.230 72.709
1.35 119.658 71.587
1.36 119.746 70.695
1.37 118.846 70.177
1.38 117.229 69.904
1.39 114.759 69.969
1.40 112.751 70.642
1.41 112.340 71.724
1.42 107.658 72.383
1.43 104.467 72.470
1.44 102.808 72.218
1.45 102.561 71.679
1.46 98.585 70.823
1.47 97.449 69.791
1.48 96.272 68.671
1.49 96.743 67.789
1.50 99.723 67.466
1.51 101.577 67.497
1.52 102.712 67.961
1.53 107.030 69.569
1.54 108.692 71.757
1.55 108.880 73.420
1.56 113.490 74.596
1.57 114.764 75.358
1.58 115.334 75.718
1.59 119.557 76.069
1.60 120.294 76.472
1.61 122.348 76.455
1.62 122.476 75.596
1.63 120.049 73.901
1.64 119.650 71.743
1.65 112.372 68.892
1.66 102.496 64.396
1.67 101.847 58.333
1.68 --undefined-- 54.171
1.69 --undefined-- 52.715
1.70 --undefined-- 51.807
1.71 --undefined-- 51.433
1.72 --undefined-- 51.015
1.73 --undefined-- 51.624
1.74 --undefined-- 53.785
1.75 --undefined-- 55.333
1.76 --undefined-- 55.459
1.77 --undefined-- 55.135
1.78 --undefined-- 55.338
1.79 --undefined-- 55.582
1.80 --undefined-- 55.468
1.81 --undefined-- 55.640
1.82 --undefined-- 56.694
1.83 136.726 58.302
1.84 133.127 59.778
1.85 128.351 59.993
1.86 122.492 58.248
1.87 --undefined-- 54.959
1.88 --undefined-- 51.493
1.89 --undefined-- 48.265
1.90 --undefined-- 44.684
1.91 --undefined-- 42.766
1.92 --undefined-- 42.720
1.93 --undefined-- 47.698
1.94 --undefined-- 58.837
1.95 162.374 67.634
1.96 155.943 73.819
1.97 159.283 77.423
1.98 162.442 78.908
1.99 163.834 79.428
2.00 159.731 79.696
2.01 161.294 79.757
2.02 163.032 79.781
2.03 163.956 79.883
2.04 162.275 80.117
2.05 161.472 79.578
2.06 163.304 77.321
2.07 163.399 73.722
2.08 164.583 71.055
2.09 165.798 71.515
2.10 168.491 73.992
2.11 165.309 76.432
2.12 164.689 77.797
2.13 160.860 77.895
2.14 157.815 77.230
2.15 155.793 76.179
2.16 154.548 75.107
2.17 153.847 74.140
2.18 151.849 72.649
2.19 150.686 70.401
2.20 152.489 67.311
2.21 156.065 63.347
2.22 155.986 59.317
2.23 155.114 56.318
2.24 --undefined-- 53.252
2.25 --undefined-- 49.944
2.26 --undefined-- 49.997
2.27 --undefined-- 57.635
2.28 --undefined-- 67.109
2.29 210.127 73.181
2.30 210.928 76.421
2.31 210.124 77.685
2.32 208.736 77.671
2.33 212.893 77.148
2.34 215.234 76.675
2.35 212.350 76.315
2.36 207.303 75.830
2.37 197.404 75.250
2.38 186.968 75.236
2.39 181.904 75.847
2.40 168.012 75.992
2.41 153.870 75.395
2.42 145.433 74.487
2.43 130.620 73.441
2.44 128.016 72.257
2.45 123.704 70.424
2.46 118.795 67.718
2.47 125.462 64.412
2.48 124.423 60.270
2.49 --undefined-- 55.730
2.50 --undefined-- 53.777
2.51 --undefined-- 55.015
2.52 --undefined-- 56.422
2.53 --undefined-- 58.014
2.54 --undefined-- 62.851
2.55 --undefined-- 67.823
2.56 116.314 70.200
2.57 103.204 70.380
2.58 102.004 69.681
2.59 98.676 69.209
2.60 98.273 69.027
2.61 97.813 68.834
2.62 97.903 68.017
2.63 96.626 65.866
2.64 95.925 62.532
2.65 101.485 60.318
2.66 104.690 63.930
2.67 --undefined-- 69.272
2.68 139.539 72.131
2.69 140.745 72.953
2.70 143.825 72.929
2.71 148.925 73.010
2.72 152.996 73.506
2.73 158.243 74.510
2.74 159.918 75.624
2.75 159.447 76.401
2.76 159.258 76.960
2.77 159.046 76.995
2.78 161.253 75.737
2.79 155.001 73.038
2.80 151.268 69.588
2.81 151.322 67.025
2.82 153.246 66.306
2.83 160.698 66.093
2.84 --undefined-- 65.942
2.85 --undefined-- 66.207
2.86 --undefined-- 66.071
2.87 --undefined-- 64.923
2.88 --undefined-- 63.891
2.89 --undefined-- 62.959
2.90 --undefined-- 61.533
2.91 --undefined-- 60.583
2.92 --undefined-- 61.394
2.93 --undefined-- 65.740
2.94 --undefined-- 72.031
2.95 172.671 75.823
2.96 170.103 77.276
2.97 165.713 77.821
2.98 161.423 78.278
2.99 157.081 78.158
3.00 153.350 77.252
3.01 150.865 76.528
3.02 150.289 76.371
3.03 148.948 76.215
3.04 149.137 76.076
3.05 149.912 75.905
3.06 151.377 75.697
3.07 153.702 75.394
3.08 154.224 74.748
3.09 154.920 74.169
3.10 156.632 74.185
3.11 156.580 74.381
3.12 156.284 74.466
3.13 155.579 74.470
3.14 154.017 74.356
3.15 151.288 73.970
3.16 148.651 73.169
3.17 148.784 71.721
3.18 150.109 69.212
3.19 153.759 65.441
3.20 159.964 62.136
3.21 162.159 66.360
3.22 157.612 72.345
3.23 156.066 75.906
3.24 154.294 77.310
3.25 149.066 77.083
3.26 141.993 75.929
3.27 136.179 74.393
3.28 133.560 72.730
3.29 133.089 71.981
3.30 135.157 72.235
3.31 139.045 72.651
3.32 142.492 72.923
3.33 144.274 72.852
3.34 144.132 72.893
3.35 142.993 72.972
3.36 139.609 72.268
3.37 138.426 71.053
3.38 137.543 70.582
3.39 134.798 70.642
3.40 132.874 70.757
3.41 130.222 70.821
3.42 126.875 70.633
3.43 123.041 70.015
3.44 119.109 69.532
3.45 121.051 70.290
3.46 120.708 71.576
3.47 116.240 72.363
3.48 113.493 72.750
3.49 112.533 72.985
3.50 111.428 73.004
3.51 110.621 72.908
3.52 111.735 72.924
3.53 112.217 73.113
3.54 114.919 73.500
3.55 119.296 74.133
3.56 122.879 74.797
3.57 126.378 75.197
3.58 129.613 75.287
3.59 125.774 74.875
3.60 125.598 74.364
3.61 126.017 74.246
3.62 127.451 74.492
3.63 125.683 74.569
3.64 123.653 73.547
3.65 124.013 71.766
3.66 126.921 70.853
3.67 128.300 70.837
3.68 128.455 70.881
3.69 128.448 70.824
3.70 128.181 70.749
3.71 127.751 70.648
3.72 126.110 70.330
3.73 123.062 69.155
3.74 126.408 66.354
3.75 --undefined-- 63.169
3.76 --undefined-- 63.276
3.77 --undefined-- 64.039
3.78 --undefined-- 63.573
3.79 --undefined-- 63.685
3.80 --undefined-- 68.604
3.81 127.030 73.095
3.82 124.004 75.088
3.83 118.143 75.025
3.84 111.653 73.941
3.85 105.580 72.929
3.86 100.258 72.127
3.87 94.126 71.510
3.88 90.250 70.904
3.89 86.503 69.791
3.90 84.217 67.726
3.91 80.064 64.908
3.92 86.974 62.455
3.93 84.418 60.163
3.94 --undefined-- 57.102
3.95 --undefined-- 53.093
3.96 --undefined-- 49.069
3.97 --undefined-- 46.364
3.98 --undefined-- 46.148
3.99 --undefined-- 48.007
4.00 --undefined-- 49.367
4.01 --undefined-- 49.424
4.02 --undefined-- 48.487
4.03 --undefined-- 48.561
4.04 --undefined-- 49.471
4.05 --undefined-- 49.492
4.06 --undefined-- 48.884
4.07 --undefined-- 48.633
4.08 --undefined-- 48.587
4.09 --undefined-- 48.711
4.10 --undefined-- 48.916
4.11 --undefined-- 49.251
4.12 --undefined-- 49.808
4.13 --undefined-- 49.871
4.14 --undefined-- 49.408
4.15 --undefined-- 47.764
4.16 --undefined-- 43.548
4.17 --undefined-- 38.838
4.18 --undefined-- 42.564
4.19 --undefined-- 54.845
4.20 --undefined-- 64.124
4.21 157.324 70.141
4.22 157.517 73.671
4.23 151.453 75.198
4.24 142.414 75.539
4.25 137.159 75.535
4.26 133.320 75.606
4.27 129.048 75.825
4.28 126.041 75.788
4.29 119.656 75.165
4.30 120.987 73.962
4.31 104.517 72.249
4.32 98.210 70.584
4.33 100.156 70.253
4.34 109.016 71.360
4.35 115.738 72.739
4.36 118.449 74.109
4.37 121.545 75.223
4.38 124.978 75.846
4.39 127.918 76.419
4.40 141.854 77.603
4.41 150.126 78.862
4.42 157.510 79.432
4.43 166.785 79.135
4.44 176.885 78.336
4.45 181.616 77.520
4.46 178.618 76.105
4.47 165.609 72.999
4.48 163.475 68.460
4.49 167.049 64.595
4.50 166.088 62.174
4.51 --undefined-- 61.320
4.52 --undefined-- 62.485
4.53 --undefined-- 64.664
4.54 --undefined-- 68.989
4.55 163.019 72.286
4.56 152.411 73.649
4.57 146.215 73.911
4.58 141.924 74.063
4.59 138.591 74.240
4.60 134.245 74.082
4.61 131.273 74.062
4.62 130.078 74.424
4.63 130.039 74.634
4.64 130.800 74.780
4.65 131.044 75.016
4.66 130.250 75.105
4.67 127.558 74.235
4.68 121.686 71.522
4.69 126.343 68.151
4.70 127.137 66.851
4.71 133.014 69.484
4.72 135.370 73.450
4.73 131.103 75.562
4.74 125.887 75.961
4.75 122.103 75.739
4.76 121.107 75.557
4.77 122.574 75.250
4.78 122.658 74.076
4.79 122.245 71.966
4.80 128.504 71.426
4.81 136.604 74.207
4.82 139.683 76.971
4.83 140.891 78.357
4.84 145.462 78.980
4.85 150.831 79.378
4.86 155.580 79.150
4.87 165.529 77.962
4.88 175.366 76.319
4.89 177.195 75.054
4.90 177.681 75.345
4.91 180.341 76.583
4.92 182.800 77.466
4.93 182.353 78.029
4.94 179.650 78.391
4.95 176.223 78.272
4.96 171.876 77.813
4.97 168.587 77.941
4.98 167.471 78.787
4.99 166.819 79.269
5.00 165.881 79.198
5.01 163.877 78.564
5.02 159.909 76.507
5.03 159.126 72.275
5.04 160.607 67.144
5.05 157.874 64.934
5.06 163.925 65.490
5.07 185.620 70.361
5.08 186.083 74.791
5.09 172.601 77.068
5.10 167.589 78.075
5.11 164.157 78.457
5.12 160.874 78.608
5.13 158.279 78.591
5.14 155.695 78.202
5.15 153.911 --undefined--
5.16 154.500 --undefined--
5.17 --undefined-- --undefined--
5.18 --undefined-- --undefined--
