Time Pitch Intensity
0.01 --undefined-- --undefined--
0.02 251.354 --undefined--
0.03 256.112 --undefined--
0.04 262.830 --undefined--
0.05 272.466 65.755
0.06 283.221 66.554
0.07 294.869 67.628
0.08 150.608 68.244
0.09 299.769 68.436
0.10 294.547 68.846
0.11 291.059 69.236
0.12 285.574 69.034
0.13 278.751 68.270
0.14 270.551 67.016
0.15 255.557 65.542
0.16 239.578 65.230
0.17 231.080 66.045
0.18 218.615 66.353
0.19 204.545 66.326
0.20 195.622 66.692
0.21 188.591 67.125
0.22 184.327 67.082
0.23 181.803 66.767
0.24 180.610 66.279
0.25 175.509 65.620
0.26 172.233 65.051
0.27 170.007 64.530
0.28 167.807 64.092
0.29 165.147 64.093
0.30 169.517 64.915
0.31 169.244 65.894
0.32 167.294 66.413
0.33 166.106 66.510
0.34 166.712 66.299
0.35 166.230 65.995
0.36 165.126 65.911
0.37 165.219 66.175
0.38 166.169 66.545
0.39 168.121 66.615
0.40 168.482 66.319
0.41 168.890 66.104
0.42 170.220 66.201
0.43 172.235 66.337
0.44 178.776 66.715
0.45 184.115 67.725
0.46 186.631 68.556
0.47 192.824 68.487
0.48 196.227 68.065
0.49 198.566 67.775
0.50 199.469 67.203
0.51 197.364 66.366
0.52 193.786 66.712
0.53 189.367 68.198
0.54 180.814 69.448
0.55 --undefined-- 69.975
0.56 --undefined-- 70.038
0.57 144.734 69.619
0.58 --undefined-- 68.470
0.59 --undefined-- 66.829
0.60 --undefined-- 65.066
0.61 --undefined-- 62.790
0.62 --undefined-- 60.073
0.63 --undefined-- 57.784
0.64 --undefined-- 55.673
0.65 --undefined-- 52.772
0.66 --undefined-- 49.607
0.67 --undefined-- 47.262
0.68 --undefined-- 44.887
0.69 --undefined-- 44.801
0.70 --undefined-- 49.347
0.71 --undefined-- 53.584
0.72 --undefined-- 55.093
0.73 --undefined-- 55.216
0.74 229.843 57.858
0.75 242.167 60.959
0.76 253.033 63.273
0.77 251.280 65.129
0.78 252.004 66.643
0.79 252.575 67.643
0.80 250.796 68.059
0.81 248.244 68.324
0.82 246.347 68.895
0.83 246.322 69.377
0.84 249.530 69.086
0.85 255.529 67.846
0.86 255.371 66.449
0.87 254.245 65.756
0.88 253.062 65.527
0.89 252.545 65.366
0.90 251.725 65.100
0.91 250.519 64.614
0.92 247.504 63.816
0.93 240.687 62.182
0.94 228.912 59.061
0.95 230.645 54.489
0.96 --undefined-- 49.690
0.97 --undefined-- 46.356
0.98 --undefined-- 45.066
0.99 --undefined-- 44.445
1.00 --undefined-- 43.821
1.01 --undefined-- 45.157
1.02 --undefined-- 49.570
1.03 --undefined-- 56.220
1.04 186.546 61.352
1.05 174.444 64.097
1.06 162.639 64.925
1.07 157.263 65.284
1.08 159.787 65.854
1.09 164.602 65.917
1.10 162.282 65.248
1.11 159.024 64.741
1.12 157.981 64.903
1.13 156.669 64.961
1.14 155.297 64.709
1.15 152.773 64.178
1.16 151.718 62.851
1.17 152.134 60.979
1.18 161.125 60.119
1.19 171.794 60.363
1.20 178.776 61.063
1.21 182.242 62.198
1.22 186.611 63.126
1.23 192.531 63.286
1.24 199.602 62.725
1.25 205.879 61.356
1.26 208.520 58.682
1.27 --undefined-- 54.392
1.28 --undefined-- 50.016
1.29 --undefined-- 52.127
1.30 --undefined-- 57.298
1.31 224.684 61.345
1.32 218.373 63.881
1.33 219.941 65.272
1.34 225.560 65.679
1.35 231.371 65.509
1.36 233.817 65.347
1.37 240.115 65.318
1.38 243.735 65.357
1.39 243.467 65.494
1.40 242.822 65.651
1.41 242.632 65.743
1.42 242.277 65.802
1.43 241.801 65.810
1.44 241.608 65.796
1.45 241.490 65.705
1.46 240.050 65.267
1.47 234.778 63.890
1.48 228.319 60.671
1.49 --undefined-- 54.814
1.50 --undefined-- 48.418
1.51 --undefined-- 51.445
1.52 --undefined-- 55.882
1.53 --undefined-- 60.469
1.54 --undefined-- 64.552
1.55 214.733 67.007
1.56 202.360 68.465
1.57 191.863 69.339
1.58 183.661 69.072
1.59 174.471 66.894
1.60 --undefined-- 62.562
1.61 --undefined-- 56.383
1.62 --undefined-- 50.869
1.63 --undefined-- 50.703
1.64 --undefined-- 52.077
1.65 --undefined-- 52.610
1.66 --undefined-- 51.181
1.67 --undefined-- 48.559
1.68 --undefined-- 46.824
1.69 --undefined-- 45.671
1.70 --undefined-- 45.149
1.71 --undefined-- 44.872
1.72 --undefined-- 46.146
1.73 --undefined-- 48.580
1.74 --undefined-- 51.392
1.75 --undefined-- 53.694
1.76 --undefined-- 54.350
1.77 --undefined-- 52.962
1.78 --undefined-- 52.782
1.79 222.854 57.938
1.80 205.599 62.565
1.81 192.212 65.786
1.82 185.073 67.763
1.83 183.861 68.556
1.84 182.818 68.344
1.85 182.428 67.363
1.86 181.703 66.014
1.87 179.512 64.883
1.88 180.243 64.357
1.89 182.882 64.144
1.90 182.955 63.832
1.91 183.981 63.407
1.92 186.289 63.059
1.93 189.311 62.866
1.94 192.188 62.752
1.95 195.264 62.465
1.96 198.113 61.730
1.97 198.966 60.969
1.98 199.814 60.524
1.99 200.863 59.873
2.00 197.626 58.623
2.01 190.176 56.278
2.02 --undefined-- 52.577
2.03 --undefined-- 48.865
2.04 --undefined-- 51.954
2.05 --undefined-- 59.857
2.06 249.517 64.989
2.07 235.491 67.392
2.08 233.825 68.428
2.09 234.923 69.023
2.10 236.481 69.373
2.11 238.034 69.683
2.12 239.799 69.873
2.13 242.274 70.103
2.14 244.481 70.388
2.15 247.070 70.325
2.16 249.135 69.866
2.17 249.642 69.228
2.18 246.570 68.645
2.19 242.894 67.763
2.20 236.672 65.844
2.21 --undefined-- 62.781
2.22 --undefined-- 59.859
2.23 --undefined-- 57.493
2.24 --undefined-- 55.358
2.25 --undefined-- 53.290
2.26 --undefined-- 50.206
2.27 --undefined-- 48.838
2.28 --undefined-- 50.935
2.29 --undefined-- 53.596
2.30 --undefined-- 56.303
2.31 96.551 58.290
2.32 93.366 59.133
2.33 93.039 59.043
2.34 190.967 58.701
2.35 204.976 58.406
2.36 237.914 57.527
2.37 222.524 55.126
2.38 --undefined-- 51.711
2.39 --undefined-- 50.308
2.40 --undefined-- 49.786
2.41 --undefined-- 50.900
2.42 --undefined-- 52.929
2.43 --undefined-- 52.817
2.44 --undefined-- 52.064
2.45 --undefined-- 54.917
2.46 --undefined-- 57.914
2.47 --undefined-- 60.317
2.48 220.736 63.085
2.49 215.972 64.815
2.50 214.041 65.363
2.51 213.791 65.580
2.52 214.956 65.847
2.53 217.523 66.065
2.54 221.401 66.059
2.55 225.512 65.671
2.56 228.334 65.070
2.57 229.480 64.545
2.58 229.203 63.830
2.59 229.099 62.120
2.60 228.833 58.565
2.61 --undefined-- 53.290
2.62 --undefined-- 50.405
2.63 --undefined-- 52.285
2.64 --undefined-- 56.353
2.65 --undefined-- 60.729
2.66 199.370 63.535
2.67 189.288 64.929
2.68 181.571 65.612
2.69 176.327 65.726
2.70 173.718 65.367
2.71 172.576 64.634
2.72 171.769 63.521
2.73 171.434 62.203
2.74 170.760 60.487
2.75 167.554 57.741
2.76 164.275 53.942
2.77 --undefined-- 50.468
2.78 --undefined-- 49.602
2.79 --undefined-- 49.716
2.80 --undefined-- 48.570
2.81 --undefined-- 47.550
2.82 --undefined-- 47.171
2.83 --undefined-- 49.780
2.84 --undefined-- 55.925
2.85 --undefined-- 59.796
2.86 --undefined-- 60.647
2.87 75.898 59.372
2.88 77.945 57.727
2.89 78.154 56.852
2.90 76.558 56.682
2.91 76.448 56.696
2.92 154.646 56.780
2.93 154.173 57.077
2.94 156.215 57.585
2.95 156.098 58.295
2.96 155.500 59.120
2.97 156.628 60.064
2.98 160.180 60.843
2.99 169.338 61.206
3.00 178.801 61.765
3.01 187.895 62.934
3.02 193.036 63.800
3.03 199.236 63.808
3.04 204.344 63.133
3.05 207.230 61.453
3.06 200.061 57.907
3.07 --undefined-- 52.449
3.08 --undefined-- 49.973
3.09 --undefined-- 54.239
3.10 --undefined-- 59.931
3.11 215.460 64.854
3.12 203.213 68.690
3.13 192.278 71.204
3.14 184.395 72.361
3.15 179.745 72.529
3.16 180.453 72.167
3.17 180.989 71.520
3.18 180.800 70.935
3.19 180.662 70.530
3.20 179.872 70.197
3.21 178.391 69.851
3.22 177.511 69.411
3.23 176.397 68.853
3.24 176.149 68.356
3.25 177.197 68.205
3.26 179.645 68.600
3.27 181.880 69.492
3.28 181.611 70.712
3.29 180.484 72.052
3.30 180.079 73.484
3.31 179.793 74.652
3.32 178.660 75.082
3.33 175.523 75.036
3.34 172.234 75.227
3.35 168.494 75.861
3.36 166.021 76.211
3.37 163.725 75.461
3.38 159.602 73.841
3.39 155.685 72.064
3.40 152.424 69.762
3.41 --undefined-- 66.241
3.42 --undefined-- 61.677
3.43 --undefined-- 57.360
3.44 --undefined-- 53.293
3.45 --undefined-- 50.044
3.46 --undefined-- 49.631
3.47 --undefined-- 51.349
3.48 --undefined-- 51.359
3.49 --undefined-- 49.420
3.50 --undefined-- 48.588
3.51 --undefined-- 50.149
3.52 --undefined-- 52.531
3.53 --undefined-- 52.891
3.54 --undefined-- 50.916
3.55 --undefined-- 48.599
3.56 --undefined-- 47.710
3.57 --undefined-- 46.830
3.58 --undefined-- 45.836
3.59 --undefined-- 46.593
3.60 --undefined-- 47.545
3.61 --undefined-- 47.703
3.62 --undefined-- 47.611
3.63 --undefined-- 47.476
3.64 --undefined-- 47.359
3.65 --undefined-- 48.070
3.66 --undefined-- 49.051
3.67 --undefined-- 50.053
3.68 --undefined-- 51.942
3.69 --undefined-- 52.553
3.70 --undefined-- 51.512
3.71 --undefined-- 50.649
3.72 --undefined-- 50.731
3.73 --undefined-- 50.837
3.74 --undefined-- 49.187
3.75 --undefined-- 46.585
3.76 --undefined-- 47.980
3.77 --undefined-- 49.903
3.78 --undefined-- 52.706
3.79 --undefined-- 54.953
3.80 --undefined-- 55.267
3.81 --undefined-- 54.210
3.82 --undefined-- 58.675
3.83 174.929 65.252
3.84 174.887 69.424
3.85 177.815 71.900
3.86 179.700 73.518
3.87 181.092 74.646
3.88 182.542 75.266
3.89 183.589 75.347
3.90 185.063 75.116
3.91 187.217 74.798
3.92 189.006 74.319
3.93 189.914 73.530
3.94 189.128 72.396
3.95 185.838 71.019
3.96 181.324 69.731
3.97 175.912 68.518
3.98 166.354 66.702
3.99 151.097 64.283
4.00 140.677 61.694
4.01 125.967 59.726
4.02 --undefined-- 59.568
4.03 --undefined-- 59.320
4.04 --undefined-- 58.487
4.05 220.014 58.496
4.06 222.670 59.621
4.07 233.704 61.225
4.08 253.308 63.320
4.09 219.760 65.746
4.10 212.280 67.699
4.11 204.951 68.415
4.12 201.817 67.916
4.13 202.272 66.963
4.14 203.959 66.212
4.15 203.290 65.857
4.16 201.590 65.924
4.17 197.163 66.056
4.18 195.497 65.876
4.19 195.129 65.006
4.20 194.539 63.303
4.21 189.573 61.436
4.22 183.043 60.419
4.23 183.666 60.795
4.24 194.502 62.461
4.25 205.539 64.668
4.26 209.989 67.101
4.27 212.954 68.850
4.28 212.812 69.258
4.29 211.291 68.907
4.30 211.638 68.569
4.31 213.285 68.145
4.32 214.776 67.623
4.33 214.310 67.228
4.34 211.634 67.163
4.35 206.220 67.318
4.36 201.649 67.400
4.37 195.612 67.278
4.38 188.270 67.426
4.39 181.535 67.971
4.40 175.171 68.381
4.41 172.218 68.209
4.42 169.034 67.306
4.43 165.761 66.380
4.44 163.886 65.897
4.45 162.156 65.649
4.46 160.438 65.687
4.47 160.626 65.758
4.48 162.826 65.763
4.49 165.317 65.936
4.50 167.882 65.841
4.51 169.369 64.974
4.52 168.622 63.281
4.53 164.446 60.548
4.54 161.906 56.648
4.55 --undefined-- 52.369
4.56 --undefined-- 49.552
4.57 --undefined-- 48.275
4.58 --undefined-- 46.767
4.59 --undefined-- 47.093
4.60 --undefined-- 50.797
4.61 --undefined-- 54.163
4.62 --undefined-- 55.893
4.63 281.912 57.918
4.64 248.600 61.186
4.65 247.562 64.129
4.66 253.317 66.620
4.67 262.536 68.329
4.68 267.091 68.838
4.69 266.497 67.761
4.70 265.242 64.818
4.71 261.445 60.130
4.72 262.911 55.275
4.73 --undefined-- 51.107
4.74 --undefined-- 48.533
4.75 --undefined-- 51.930
4.76 --undefined-- 58.431
4.77 170.907 64.085
4.78 171.337 67.393
4.79 173.523 69.050
4.80 175.033 69.883
4.81 176.379 70.199
4.82 177.613 70.015
4.83 178.446 69.437
4.84 177.420 68.886
4.85 177.009 68.505
4.86 176.270 67.950
4.87 175.089 67.082
4.88 171.962 65.936
4.89 164.972 64.315
4.90 157.918 62.592
4.91 151.400 62.510
4.92 157.819 65.133
4.93 151.819 67.140
4.94 270.736 67.409
4.95 233.161 66.880
4.96 213.163 66.406
4.97 196.793 66.299
4.98 190.313 66.838
4.99 189.736 67.743
5.00 191.232 --undefined--
5.01 193.437 --undefined--
5.02 --undefined-- --undefined--
5.03 --undefined-- --undefined--
