Time Pitch Intensity
0.01 --undefined-- --undefined--
0.02 109.528 --undefined--
0.03 109.341 --undefined--
0.04 111.400 --undefined--
0.05 115.688 69.034
0.06 122.757 69.294
0.07 131.438 69.089
0.08 135.827 68.281
0.09 137.795 67.155
0.10 --undefined-- 65.680
0.11 --undefined-- 63.617
0.12 --undefined-- 62.092
0.13 --undefined-- 61.820
0.14 --undefined-- 59.996
0.15 --undefined-- 61.675
0.16 --undefined-- 68.098
0.17 75.257 72.586
0.18 75.083 75.213
0.19 147.334 76.451
0.20 144.841 76.734
0.21 144.030 76.709
0.22 144.558 76.687
0.23 146.071 76.721
0.24 148.041 76.791
0.25 149.587 76.339
0.26 150.152 74.690
0.27 147.938 72.238
0.28 148.096 71.024
0.29 146.032 70.938
0.30 142.187 70.689
0.31 138.061 69.963
0.32 134.222 68.648
0.33 127.339 67.102
0.34 122.011 66.323
0.35 119.101 66.959
0.36 119.986 68.410
0.37 117.835 69.652
0.38 116.640 70.153
0.39 114.307 69.864
0.40 109.693 69.008
0.41 103.392 68.079
0.42 102.324 67.751
0.43 102.240 67.525
0.44 100.074 66.655
0.45 97.055 65.313
0.46 96.125 64.426
0.47 96.997 64.150
0.48 95.345 63.352
0.49 92.273 60.933
0.50 --undefined-- 57.494
0.51 120.399 57.373
0.52 113.075 59.203
0.53 104.858 60.459
0.54 103.679 60.803
0.55 --undefined-- 60.240
0.56 --undefined-- 58.789
0.57 --undefined-- 56.059
0.58 --undefined-- 52.516
0.59 --undefined-- 47.893
0.60 --undefined-- 42.797
0.61 --undefined-- 40.194
0.62 --undefined-- 39.071
0.63 --undefined-- 38.525
0.64 --undefined-- 36.785
0.65 --undefined-- 37.130
0.66 --undefined-- 39.851
0.67 --undefined-- 40.334
0.68 --undefined-- 38.271
0.69 --undefined-- 36.109
0.70 --undefined-- 36.100
0.71 --undefined-- 37.567
0.72 --undefined-- 39.511
0.73 --undefined-- 40.224
0.74 --undefined-- 39.976
0.75 --undefined-- 41.130
0.76 --undefined-- 42.172
0.77 --undefined-- 41.186
0.78 --undefined-- 40.243
0.79 --undefined-- 41.363
0.80 --undefined-- 41.815
0.81 --undefined-- 41.503
0.82 --undefined-- 41.398
0.83 --undefined-- 41.878
0.84 --undefined-- 44.216
0.85 --undefined-- 46.798
0.86 --undefined-- 49.756
0.87 --undefined-- 55.086
0.88 165.736 62.150
0.89 163.255 67.599
0.90 158.137 70.917
0.91 154.905 72.909
0.92 152.611 74.005
0.93 151.349 73.917
0.94 152.628 72.701
0.95 154.415 71.267
0.96 155.220 70.553
0.97 156.537 70.578
0.98 157.871 71.050
0.99 160.335 71.585
1.00 162.543 72.162
1.01 163.200 73.019
1.02 161.509 73.571
1.03 157.379 73.361
1.04 155.006 72.379
1.05 150.944 70.109
1.06 146.268 67.669
1.07 145.729 66.821
1.08 142.894 66.314
1.09 139.679 65.707
1.10 136.054 65.034
1.11 131.138 64.788
1.12 132.232 66.804
1.13 130.122 69.711
1.14 125.187 71.015
1.15 116.232 70.683
1.16 111.268 69.558
1.17 107.332 68.128
1.18 104.799 66.804
1.19 102.225 65.813
1.20 99.740 64.803
1.21 96.071 63.456
1.22 96.771 62.465
1.23 100.094 62.412
1.24 101.772 62.528
1.25 104.301 62.285
1.26 105.363 61.809
1.27 105.342 61.422
1.28 106.675 61.106
1.29 108.393 60.208
1.30 102.539 57.870
1.31 --undefined-- 53.750
1.32 --undefined-- 49.174
1.33 --undefined-- 46.751
1.34 --undefined-- 45.163
1.35 --undefined-- 43.655
1.36 --undefined-- 42.456
1.37 --undefined-- 41.877
1.38 --undefined-- 42.117
1.39 --undefined-- 42.878
1.40 --undefined-- 45.242
1.41 --undefined-- 52.921
1.42 --undefined-- 61.977
1.43 156.628 67.687
1.44 149.068 70.553
1.45 138.938 71.155
1.46 136.547 69.359
1.47 --undefined-- 64.703
1.48 --undefined-- 57.139
1.49 --undefined-- 48.005
1.50 --undefined-- 40.927
1.51 --undefined-- 39.335
1.52 --undefined-- 38.550
1.53 --undefined-- 36.780
1.54 --undefined-- 36.008
1.55 --undefined-- 38.770
1.56 --undefined-- 42.299
1.57 --undefined-- 46.955
1.58 --undefined-- 51.912
1.59 --undefined-- 55.092
1.60 --undefined-- 56.236
1.61 --undefined-- 56.159
1.62 --undefined-- 57.108
1.63 --undefined-- 62.833
1.64 196.438 68.518
1.65 192.916 71.615
1.66 185.018 72.319
1.67 175.878 71.344
1.68 168.188 69.289
1.69 156.416 65.880
1.70 146.198 60.579
1.71 --undefined-- 53.213
1.72 --undefined-- 45.506
1.73 --undefined-- 41.939
1.74 --undefined-- 41.201
1.75 --undefined-- 42.115
1.76 --undefined-- 43.681
1.77 --undefined-- 44.767
1.78 --undefined-- 44.426
1.79 --undefined-- 42.792
1.80 --undefined-- 41.644
1.81 --undefined-- 42.337
1.82 --undefined-- 45.311
1.83 --undefined-- 52.973
1.84 --undefined-- 62.913
1.85 --undefined-- 69.541
1.86 --undefined-- 73.090
1.87 141.453 74.545
1.88 135.034 74.706
1.89 130.397 74.366
1.90 129.250 73.743
1.91 129.614 72.913
1.92 129.820 72.757
1.93 128.009 72.902
1.94 129.457 72.493
1.95 130.989 71.823
1.96 129.964 71.191
1.97 127.486 70.116
1.98 123.336 68.196
1.99 113.196 65.450
2.00 111.341 61.919
2.01 --undefined-- 56.823
2.02 --undefined-- 50.338
2.03 --undefined-- 49.815
2.04 --undefined-- 53.077
2.05 --undefined-- 55.065
2.06 --undefined-- 56.004
2.07 --undefined-- 55.988
2.08 --undefined-- 54.415
2.09 --undefined-- 52.856
2.10 --undefined-- 59.182
2.11 185.562 65.591
2.12 175.476 68.669
2.13 165.723 69.066
2.14 165.470 68.200
2.15 165.617 67.846
2.16 159.001 68.160
2.17 157.596 68.857
2.18 159.739 69.796
2.19 159.046 70.403
2.20 157.969 70.555
2.21 156.528 70.440
2.22 155.353 70.205
2.23 154.106 70.040
2.24 152.089 69.918
2.25 148.598 69.824
2.26 147.499 70.274
2.27 135.179 71.193
2.28 132.795 71.720
2.29 128.568 71.501
2.30 124.641 70.740
2.31 120.511 69.785
2.32 113.023 68.838
2.33 107.305 67.770
2.34 102.367 66.636
2.35 98.504 65.847
2.36 95.903 65.439
2.37 95.846 65.215
2.38 96.969 64.985
2.39 96.820 64.469
2.40 94.547 63.237
2.41 94.629 61.903
2.42 97.229 61.551
2.43 97.187 61.332
2.44 97.119 60.629
2.45 --undefined-- 58.928
2.46 --undefined-- 55.831
2.47 --undefined-- 53.009
2.48 --undefined-- 51.487
2.49 --undefined-- 49.373
2.50 --undefined-- 45.559
2.51 --undefined-- 42.158
2.52 --undefined-- 41.213
2.53 --undefined-- 41.645
2.54 --undefined-- 41.472
2.55 --undefined-- 39.945
2.56 --undefined-- 39.583
2.57 --undefined-- 39.888
2.58 --undefined-- 39.941
2.59 --undefined-- 40.796
2.60 --undefined-- 40.838
2.61 --undefined-- 39.401
2.62 --undefined-- 37.178
2.63 --undefined-- 35.867
2.64 --undefined-- 37.392
2.65 --undefined-- 38.247
2.66 --undefined-- 36.941
2.67 --undefined-- 35.820
2.68 --undefined-- 36.674
2.69 --undefined-- 37.956
2.70 --undefined-- 38.929
2.71 --undefined-- 38.791
2.72 --undefined-- 37.627
2.73 --undefined-- 36.242
2.74 --undefined-- 36.702
2.75 --undefined-- 37.815
2.76 --undefined-- 37.868
2.77 --undefined-- 39.663
2.78 --undefined-- 52.975
2.79 --undefined-- 63.537
2.80 --undefined-- 70.500
2.81 161.584 74.867
2.82 159.932 77.269
2.83 160.886 78.335
2.84 159.833 78.631
2.85 158.414 78.761
2.86 158.048 78.771
2.87 154.467 77.404
2.88 147.827 73.446
2.89 148.225 66.712
2.90 152.834 59.406
2.91 --undefined-- 54.188
2.92 --undefined-- 51.336
2.93 --undefined-- 49.491
2.94 --undefined-- 46.207
2.95 --undefined-- 42.907
2.96 --undefined-- 42.260
2.97 --undefined-- 41.647
2.98 --undefined-- 39.780
2.99 --undefined-- 44.688
3.00 --undefined-- 56.285
3.01 --undefined-- 65.670
3.02 --undefined-- 71.777
3.03 159.879 75.153
3.04 147.858 76.597
3.05 142.960 76.932
3.06 141.234 76.860
3.07 141.109 76.864
3.08 141.257 77.092
3.09 141.987 77.445
3.10 141.987 77.656
3.11 141.549 77.211
3.12 138.821 75.445
3.13 134.866 71.868
3.14 130.570 66.922
3.15 127.936 61.985
3.16 --undefined-- 57.118
3.17 --undefined-- 56.732
3.18 --undefined-- 62.138
3.19 --undefined-- 64.496
3.20 --undefined-- 63.269
3.21 --undefined-- 60.073
3.22 --undefined-- 58.422
3.23 --undefined-- 57.440
3.24 --undefined-- 56.548
3.25 --undefined-- 58.666
3.26 --undefined-- 64.751
3.27 159.509 69.771
3.28 158.265 72.509
3.29 146.381 73.538
3.30 142.992 73.649
3.31 142.237 73.444
3.32 143.152 73.700
3.33 144.632 74.252
3.34 146.969 74.101
3.35 147.866 73.400
3.36 148.602 73.020
3.37 149.268 72.991
3.38 150.310 72.869
3.39 150.964 72.248
3.40 150.182 70.464
3.41 141.469 66.972
3.42 134.311 62.101
3.43 144.251 57.759
3.44 159.406 57.701
3.45 182.790 64.215
3.46 177.690 70.199
3.47 166.529 73.830
3.48 158.638 75.730
3.49 154.003 76.920
3.50 152.549 77.684
3.51 150.114 77.944
3.52 149.925 78.113
3.53 150.477 78.285
3.54 151.489 78.349
3.55 151.826 78.295
3.56 151.909 78.200
3.57 152.183 78.091
3.58 151.782 77.972
3.59 151.363 77.869
3.60 151.175 77.768
3.61 151.614 77.601
3.62 151.456 77.319
3.63 150.532 76.808
3.64 148.796 75.670
3.65 146.456 73.633
3.66 145.457 70.724
3.67 --undefined-- 66.587
3.68 --undefined-- 61.218
3.69 --undefined-- 55.037
3.70 --undefined-- 48.230
3.71 --undefined-- 43.585
3.72 --undefined-- 40.717
3.73 --undefined-- 42.724
3.74 --undefined-- 49.937
3.75 --undefined-- 55.630
3.76 --undefined-- 59.010
3.77 128.601 61.468
3.78 130.873 63.512
3.79 133.769 65.193
3.80 134.804 66.549
3.81 134.925 67.614
3.82 135.020 68.520
3.83 135.329 69.494
3.84 137.926 70.987
3.85 143.302 73.497
3.86 148.708 76.326
3.87 151.404 78.614
3.88 153.279 80.403
3.89 154.330 81.502
3.90 154.016 81.603
3.91 153.715 81.065
3.92 152.491 80.072
3.93 150.847 78.043
3.94 148.651 74.585
3.95 144.842 69.933
3.96 130.327 64.071
3.97 --undefined-- 56.216
3.98 --undefined-- 48.501
3.99 --undefined-- 46.248
4.00 --undefined-- 45.184
4.01 --undefined-- 44.178
4.02 --undefined-- 43.555
4.03 --undefined-- 43.763
4.04 --undefined-- 44.395
4.05 --undefined-- 45.374
4.06 --undefined-- 46.408
4.07 --undefined-- 46.185
4.08 --undefined-- 45.641
4.09 --undefined-- 52.296
4.10 --undefined-- 63.198
4.11 174.513 70.273
4.12 158.003 74.408
4.13 150.453 76.938
4.14 147.135 78.800
4.15 144.245 79.720
4.16 141.903 79.520
4.17 140.533 78.559
4.18 139.433 77.301
4.19 139.212 76.366
4.20 139.350 76.153
4.21 140.211 76.422
4.22 142.051 76.876
4.23 143.367 77.164
4.24 143.993 76.978
4.25 143.614 76.128
4.26 141.963 74.304
4.27 136.981 71.076
4.28 131.375 66.665
4.29 126.661 62.809
4.30 113.204 60.212
4.31 112.246 58.025
4.32 111.986 56.128
4.33 --undefined-- 54.997
4.34 --undefined-- 54.899
4.35 --undefined-- 55.505
4.36 122.536 56.283
4.37 122.096 57.392
4.38 121.509 58.784
4.39 122.461 60.843
4.40 133.786 65.627
4.41 146.877 70.893
4.42 147.523 74.276
4.43 149.481 76.091
4.44 153.028 76.917
4.45 155.996 77.173
4.46 158.889 77.069
4.47 162.858 76.832
4.48 165.245 76.310
4.49 164.742 75.034
4.50 163.016 73.526
4.51 164.365 72.923
4.52 162.366 72.716
4.53 160.627 72.512
4.54 158.327 72.545
4.55 155.680 72.660
4.56 152.290 72.574
4.57 149.227 72.257
4.58 147.432 71.739
4.59 147.682 70.915
4.60 142.931 69.243
4.61 136.826 66.457
4.62 134.305 62.835
4.63 140.946 58.538
4.64 --undefined-- 52.556
4.65 --undefined-- 46.013
4.66 --undefined-- 44.732
4.67 --undefined-- 47.589
4.68 --undefined-- 56.320
4.69 --undefined-- 64.262
4.70 --undefined-- 68.988
4.71 --undefined-- 70.982
4.72 --undefined-- 71.156
4.73 --undefined-- 70.358
4.74 106.422 68.981
4.75 102.111 67.461
4.76 98.387 66.145
4.77 96.930 65.136
4.78 93.452 64.364
4.79 91.377 63.528
4.80 86.318 62.486
4.81 86.008 61.307
4.82 84.991 60.153
4.83 83.132 58.892
4.84 82.247 57.213
4.85 81.775 55.489
4.86 83.878 55.014
4.87 --undefined-- 54.597
4.88 --undefined-- 53.813
4.89 --undefined-- 52.558
4.90 --undefined-- 49.131
4.91 --undefined-- 43.322
4.92 --undefined-- 39.900
4.93 --undefined-- 38.778
4.94 --undefined-- 38.211
4.95 --undefined-- 38.951
4.96 --undefined-- 39.752
4.97 --undefined-- 39.620
4.98 --undefined-- 37.489
4.99 --undefined-- 35.995
5.00 --undefined-- 36.807
5.01 --undefined-- 37.257
5.02 --undefined-- 38.359
5.03 --undefined-- 40.307
5.04 --undefined-- 41.369
5.05 --undefined-- 41.439
5.06 --undefined-- 40.540
5.07 --undefined-- 39.191
5.08 --undefined-- 38.231
5.09 --undefined-- 37.805
5.10 --undefined-- 37.596
5.11 --undefined-- 37.398
5.12 --undefined-- 37.151
5.13 --undefined-- 37.502
5.14 --undefined-- 38.430
5.15 --undefined-- 38.337
5.16 --undefined-- 37.469
5.17 --undefined-- 37.185
5.18 --undefined-- 36.630
5.19 --undefined-- 35.486
5.20 --undefined-- 35.759
5.21 --undefined-- 37.382
5.22 --undefined-- 41.987
5.23 --undefined-- 47.104
5.24 --undefined-- 50.973
5.25 --undefined-- 55.785
5.26 --undefined-- 62.976
5.27 147.945 68.464
5.28 144.517 71.755
5.29 145.418 73.741
5.30 145.556 74.977
5.31 150.870 75.352
5.32 162.061 75.242
5.33 167.287 75.062
5.34 173.836 73.846
5.35 188.074 71.449
5.36 202.162 70.062
5.37 208.407 70.248
5.38 214.435 71.256
5.39 216.961 73.784
5.40 215.352 77.258
5.41 211.555 79.524
5.42 203.277 79.749
5.43 192.912 78.672
5.44 185.575 77.253
5.45 174.750 75.542
5.46 166.366 74.384
5.47 160.876 74.214
5.48 155.659 74.263
5.49 152.893 74.208
5.50 151.167 73.923
5.51 150.273 73.322
5.52 148.353 72.245
5.53 144.994 70.520
5.54 140.551 67.979
5.55 135.656 64.334
5.56 --undefined-- 59.165
5.57 --undefined-- 52.855
5.58 --undefined-- 45.925
5.59 --undefined-- 41.124
5.60 --undefined-- 41.048
5.61 --undefined-- 41.572
5.62 --undefined-- 40.932
5.63 --undefined-- 45.087
5.64 --undefined-- 55.972
5.65 --undefined-- 65.170
5.66 --undefined-- 70.556
5.67 --undefined-- 72.500
5.68 126.039 71.877
5.69 112.320 70.181
5.70 109.840 68.704
5.71 107.212 67.852
5.72 106.361 67.907
5.73 107.625 68.570
5.74 109.488 69.628
5.75 111.013 71.024
5.76 112.989 72.362
5.77 118.604 73.531
5.78 122.930 74.329
5.79 126.647 74.370
5.80 129.282 73.745
5.81 128.843 72.970
5.82 128.532 72.369
5.83 128.210 72.271
5.84 129.518 72.838
5.85 129.825 73.416
5.86 129.393 73.076
5.87 126.750 72.163
5.88 132.594 71.744
5.89 130.821 71.733
5.90 130.277 71.868
5.91 129.144 --undefined--
5.92 129.299 --undefined--
5.93 --undefined-- --undefined--
5.94 --undefined-- --undefined--
