Time Pitch Intensity
0.01 --undefined-- --undefined--
0.02 129.258 --undefined--
0.03 128.517 --undefined--
0.04 127.023 --undefined--
0.05 120.826 71.162
0.06 114.915 67.858
0.07 115.954 67.711
0.08 119.847 70.163
0.09 124.053 72.312
0.10 125.057 73.444
0.11 124.242 73.184
0.12 121.591 71.358
0.13 119.999 68.818
0.14 124.441 67.681
0.15 124.782 67.659
0.16 124.199 67.872
0.17 123.499 68.082
0.18 123.327 68.561
0.19 125.707 69.935
0.20 122.842 71.541
0.21 122.162 72.354
0.22 123.005 72.543
0.23 122.573 72.518
0.24 122.793 72.419
0.25 123.322 72.282
0.26 124.292 72.143
0.27 125.148 71.956
0.28 126.295 71.717
0.29 127.365 71.444
0.30 128.913 71.020
0.31 129.044 70.239
0.32 129.202 69.108
0.33 131.789 68.216
0.34 131.960 67.768
0.35 131.328 67.398
0.36 128.250 66.643
0.37 122.120 64.995
0.38 118.057 62.091
0.39 113.877 57.958
0.40 --undefined-- 53.500
0.41 --undefined-- 56.018
0.42 --undefined-- 65.267
0.43 --undefined-- 71.722
0.44 --undefined-- 74.947
0.45 122.570 75.490
0.46 114.332 74.552
0.47 109.077 73.661
0.48 105.257 72.981
0.49 102.494 72.075
0.50 102.894 71.199
0.51 102.266 70.373
0.52 101.523 69.597
0.53 102.099 68.998
0.54 103.935 68.616
0.55 106.585 68.578
0.56 111.130 69.199
0.57 115.087 70.394
0.58 118.451 71.692
0.59 120.045 72.772
0.60 120.807 73.730
0.61 122.372 74.608
0.62 122.971 75.081
0.63 122.303 75.002
0.64 121.067 74.668
0.65 118.996 74.335
0.66 115.682 73.811
0.67 112.443 72.843
0.68 110.837 71.275
0.69 110.737 69.194
0.70 114.969 66.924
0.71 122.382 65.206
0.72 126.664 65.895
0.73 127.943 68.625
0.74 126.858 71.236
0.75 125.137 72.981
0.76 124.211 73.983
0.77 123.056 74.384
0.78 122.632 74.332
0.79 122.813 74.058
0.80 123.133 73.642
0.81 123.201 73.102
0.82 123.192 72.686
0.83 122.782 72.555
0.84 121.494 72.482
0.85 120.331 72.288
0.86 118.580 71.929
0.87 117.083 71.436
0.88 116.292 70.850
0.89 115.795 70.101
0.90 115.178 68.731
0.91 111.941 65.932
0.92 106.867 61.490
0.93 112.111 57.278
0.94 112.743 55.143
0.95 --undefined-- 57.948
0.96 --undefined-- 64.488
0.97 --undefined-- 69.004
0.98 111.373 71.294
0.99 111.683 72.239
1.00 109.798 72.133
1.01 107.918 71.209
1.02 107.024 69.985
1.03 107.093 68.728
1.04 106.601 67.520
1.05 106.083 66.502
1.06 105.130 65.723
1.07 105.540 65.222
1.08 107.049 65.118
1.09 107.512 64.524
1.10 105.205 62.306
1.11 105.395 58.752
1.12 109.753 55.953
1.13 111.084 55.294
1.14 118.484 57.002
1.15 121.807 59.536
1.16 120.326 61.547
1.17 119.603 63.052
1.18 117.599 64.360
1.19 114.257 65.570
1.20 111.596 66.344
1.21 110.789 66.649
1.22 110.467 66.762
1.23 111.145 66.888
1.24 112.686 67.023
1.25 112.933 67.035
1.26 113.287 66.740
1.27 112.744 65.947
1.28 110.469 64.510
1.29 110.239 62.599
1.30 110.348 60.734
1.31 110.887 59.227
1.32 112.139 58.030
1.33 115.688 57.606
1.34 115.974 59.352
1.35 120.481 62.609
1.36 119.637 65.263
1.37 110.337 66.448
1.38 106.760 66.093
1.39 104.144 64.224
1.40 97.564 60.882
1.41 95.568 56.869
1.42 --undefined-- 53.343
1.43 --undefined-- 49.241
1.44 --undefined-- 44.088
1.45 --undefined-- 41.624
1.46 --undefined-- 44.029
1.47 --undefined-- 46.136
1.48 --undefined-- 47.165
1.49 --undefined-- 48.628
1.50 --undefined-- 51.484
1.51 --undefined-- 53.443
1.52 --undefined-- 53.906
1.53 --undefined-- 55.945
1.54 --undefined-- 60.203
1.55 --undefined-- 62.860
1.56 108.958 63.445
1.57 103.792 62.867
1.58 99.206 61.592
1.59 94.129 59.717
1.60 98.130 58.079
1.61 98.266 57.694
1.62 96.691 58.101
1.63 100.962 58.684
1.64 101.717 59.224
1.65 105.159 59.770
1.66 106.295 60.706
1.67 107.313 62.072
1.68 110.663 63.865
1.69 110.900 65.707
1.70 111.813 67.008
1.71 113.918 67.868
1.72 115.379 68.554
1.73 116.180 69.068
1.74 116.930 69.351
1.75 118.077 69.424
1.76 119.707 69.456
1.77 119.255 69.498
1.78 117.236 69.182
1.79 115.698 68.083
1.80 114.013 66.136
1.81 110.771 63.872
1.82 110.020 62.301
1.83 110.551 61.593
1.84 109.129 61.518
1.85 110.760 62.639
1.86 111.778 64.544
1.87 111.845 66.200
1.88 112.136 67.288
1.89 111.525 67.973
1.90 110.287 68.449
1.91 108.788 68.845
1.92 108.026 69.314
1.93 108.422 69.762
1.94 109.468 70.007
1.95 110.300 70.133
1.96 111.183 70.234
1.97 113.011 70.227
1.98 114.545 69.628
1.99 113.645 67.639
2.00 108.848 64.048
2.01 114.144 60.272
2.02 111.882 59.171
2.03 152.060 62.510
2.04 138.633 67.181
2.05 126.356 70.495
2.06 121.279 72.180
2.07 118.630 72.381
2.08 115.825 70.823
2.09 110.774 67.190
2.10 111.270 62.688
2.11 112.334 59.657
2.12 109.806 57.871
2.13 109.237 59.162
2.14 114.525 62.448
2.15 114.173 64.549
2.16 108.335 65.100
2.17 102.087 64.608
2.18 100.777 63.381
2.19 98.111 61.696
2.20 99.764 60.375
2.21 103.831 59.987
2.22 105.349 60.006
2.23 105.962 60.131
2.24 106.182 60.200
2.25 105.116 60.549
2.26 105.937 62.004
2.27 105.857 63.955
2.28 104.221 65.431
2.29 102.179 66.200
2.30 100.218 66.454
2.31 99.465 66.339
2.32 99.546 65.943
2.33 101.498 65.445
2.34 101.137 64.598
2.35 100.634 62.877
2.36 97.895 59.938
2.37 108.317 55.954
2.38 --undefined-- 51.333
2.39 --undefined-- 51.202
2.40 --undefined-- 55.970
2.41 --undefined-- 61.113
2.42 --undefined-- 65.444
2.43 114.204 68.176
2.44 110.964 69.657
2.45 109.437 69.900
2.46 106.899 68.859
2.47 106.244 67.476
2.48 106.188 66.813
2.49 105.122 66.609
2.50 103.644 66.649
2.51 102.640 67.286
2.52 99.240 68.499
2.53 98.033 69.289
2.54 96.997 69.304
2.55 96.950 68.714
2.56 97.550 67.697
2.57 99.502 66.625
2.58 101.419 66.099
2.59 104.568 66.277
2.60 105.714 66.772
2.61 105.539 67.438
2.62 103.584 68.234
2.63 103.223 68.888
2.64 103.212 69.167
2.65 103.786 69.098
2.66 104.032 68.727
2.67 103.398 67.952
2.68 103.319 66.428
2.69 105.744 63.570
2.70 107.106 58.747
2.71 --undefined-- 51.694
2.72 --undefined-- 45.934
2.73 --undefined-- 45.408
2.74 --undefined-- 46.201
2.75 --undefined-- 46.985
2.76 --undefined-- 47.497
2.77 --undefined-- 47.186
2.78 --undefined-- 46.486
2.79 --undefined-- 46.720
2.80 --undefined-- 47.352
2.81 --undefined-- 47.625
2.82 --undefined-- 47.411
2.83 --undefined-- 47.033
2.84 --undefined-- 47.285
2.85 --undefined-- 48.020
2.86 --undefined-- 48.362
2.87 --undefined-- 48.117
2.88 --undefined-- 47.519
2.89 --undefined-- 46.862
2.90 --undefined-- 47.091
2.91 --undefined-- 48.163
2.92 --undefined-- 48.473
2.93 --undefined-- 47.373
2.94 --undefined-- 45.436
2.95 --undefined-- 44.431
2.96 --undefined-- 46.386
2.97 --undefined-- 47.800
2.98 --undefined-- 52.546
2.99 269.315 60.357
3.00 259.340 65.227
3.01 248.716 67.541
3.02 241.859 68.692
3.03 238.058 69.819
3.04 240.946 70.758
3.05 240.482 70.966
3.06 233.303 70.143
3.07 221.946 68.123
3.08 206.608 65.388
3.09 204.717 64.383
3.10 205.077 68.119
3.11 207.057 73.409
3.12 202.104 76.570
3.13 186.213 77.621
3.14 181.893 77.458
3.15 177.059 76.724
3.16 173.062 75.915
3.17 170.290 75.411
3.18 168.839 75.105
3.19 167.105 74.665
3.20 163.620 73.832
3.21 159.798 73.210
3.22 157.832 73.623
3.23 157.080 74.338
3.24 156.706 74.644
3.25 155.777 74.602
3.26 156.337 74.402
3.27 156.229 74.174
3.28 155.890 74.002
3.29 154.873 73.694
3.30 152.709 72.600
3.31 145.707 70.126
3.32 145.321 66.602
3.33 --undefined-- 62.114
3.34 --undefined-- 55.324
3.35 --undefined-- 48.533
3.36 --undefined-- 47.431
3.37 --undefined-- 50.338
3.38 --undefined-- 60.947
3.39 210.820 69.075
3.40 179.130 73.744
3.41 165.468 75.982
3.42 158.231 76.919
3.43 155.400 77.449
3.44 154.355 77.788
3.45 154.163 77.547
3.46 152.423 75.971
3.47 146.383 72.688
3.48 144.680 69.112
3.49 144.690 67.821
3.50 145.813 69.210
3.51 148.094 72.111
3.52 152.586 74.381
3.53 154.218 75.332
3.54 152.778 75.035
3.55 148.613 73.339
3.56 140.296 69.876
3.57 132.812 64.731
3.58 122.687 59.384
3.59 123.291 55.593
3.60 --undefined-- 52.573
3.61 --undefined-- 54.840
3.62 --undefined-- 63.044
3.63 --undefined-- 69.642
3.64 --undefined-- 73.363
3.65 134.937 74.552
3.66 128.462 74.046
3.67 126.133 72.938
3.68 125.512 71.576
3.69 126.336 69.877
3.70 127.454 67.913
3.71 127.332 65.582
3.72 125.684 62.727
3.73 121.587 59.423
3.74 121.517 55.655
3.75 --undefined-- 51.342
3.76 --undefined-- 48.055
3.77 --undefined-- 54.489
3.78 --undefined-- 63.090
3.79 --undefined-- 69.259
3.80 154.912 72.737
3.81 147.267 74.317
3.82 147.898 75.017
3.83 148.416 75.350
3.84 148.878 75.407
3.85 149.338 75.348
3.86 149.310 75.350
3.87 149.068 75.330
3.88 148.945 75.133
3.89 149.271 74.750
3.90 149.501 74.208
3.91 149.340 73.547
3.92 148.306 72.759
3.93 146.590 71.480
3.94 141.247 69.053
3.95 --undefined-- 65.155
3.96 --undefined-- 61.076
3.97 --undefined-- 59.414
3.98 --undefined-- 59.457
3.99 --undefined-- 61.805
4.00 138.391 64.248
4.01 157.730 65.754
4.02 155.256 66.671
4.03 147.050 67.421
4.04 143.207 69.367
4.05 150.499 72.599
4.06 152.549 74.799
4.07 150.627 75.732
4.08 152.711 76.744
4.09 157.170 77.984
4.10 163.599 78.616
4.11 169.642 78.585
4.12 175.620 78.391
4.13 180.606 78.225
4.14 189.003 77.944
4.15 192.094 77.518
4.16 194.182 76.653
4.17 199.950 75.183
4.18 197.657 73.267
4.19 188.731 71.554
4.20 187.728 70.842
4.21 194.100 70.777
4.22 195.260 70.554
4.23 198.415 70.473
4.24 198.622 70.547
4.25 200.968 70.791
4.26 204.152 71.574
4.27 212.933 72.883
4.28 217.014 74.240
4.29 222.212 75.669
4.30 228.991 77.032
4.31 227.629 77.941
4.32 224.274 78.496
4.33 224.488 78.878
4.34 225.464 79.073
4.35 225.842 79.315
4.36 224.264 79.471
4.37 221.271 78.973
4.38 215.807 77.445
4.39 199.197 75.187
4.40 187.605 74.039
4.41 169.348 75.042
4.42 159.617 76.985
4.43 152.028 78.811
4.44 145.245 79.810
4.45 139.912 79.519
4.46 134.442 78.083
4.47 126.155 76.104
4.48 117.761 74.184
4.49 114.114 73.012
4.50 114.020 72.777
4.51 115.225 72.609
4.52 115.782 71.788
4.53 113.399 69.941
4.54 110.794 66.904
4.55 109.160 62.830
4.56 109.070 58.286
4.57 --undefined-- 55.994
4.58 --undefined-- 61.596
4.59 161.339 68.459
4.60 147.704 72.509
4.61 127.794 74.165
4.62 123.069 74.552
4.63 121.702 74.359
4.64 122.361 73.836
4.65 122.962 73.065
4.66 123.112 71.901
4.67 121.600 70.320
4.68 123.202 69.026
4.69 122.584 68.598
4.70 121.272 68.498
4.71 120.278 68.381
4.72 120.564 68.348
4.73 122.467 68.771
4.74 123.332 69.064
4.75 122.281 68.324
4.76 121.319 67.048
4.77 123.594 66.363
4.78 125.222 66.204
4.79 126.615 66.738
4.80 134.662 68.670
4.81 135.138 70.826
4.82 134.580 72.084
4.83 134.410 72.567
4.84 133.645 71.985
4.85 129.704 69.396
4.86 120.208 64.344
4.87 118.436 57.341
4.88 --undefined-- 49.768
4.89 --undefined-- 42.312
4.90 --undefined-- 39.885
4.91 --undefined-- 39.352
4.92 --undefined-- 37.966
4.93 --undefined-- 36.870
4.94 --undefined-- 36.630
4.95 --undefined-- 38.712
4.96 --undefined-- 42.403
4.97 --undefined-- 47.206
4.98 --undefined-- 50.748
4.99 --undefined-- 55.129
5.00 251.646 --undefined--
5.01 247.600 --undefined--
5.02 --undefined-- --undefined--
5.03 --undefined-- --undefined--
