Time Pitch Intensity
0.01 --undefined-- --undefined--
0.02 149.227 --undefined--
0.03 151.084 --undefined--
0.04 152.914 --undefined--
0.05 152.825 73.528
0.06 151.821 73.576
0.07 150.990 73.733
0.08 150.340 73.800
0.09 150.067 73.273
0.10 149.804 71.911
0.11 148.716 69.435
0.12 147.480 65.580
0.13 --undefined-- 59.944
0.14 --undefined-- 52.996
0.15 --undefined-- 47.897
0.16 --undefined-- 45.791
0.17 --undefined-- 47.113
0.18 --undefined-- 51.446
0.19 --undefined-- 56.288
0.20 --undefined-- 61.475
0.21 --undefined-- 64.787
0.22 --undefined-- 66.060
0.23 --undefined-- 66.263
0.24 100.344 65.576
0.25 102.398 64.280
0.26 97.874 62.519
0.27 90.441 60.054
0.28 87.286 57.875
0.29 92.446 59.472
0.30 103.003 63.900
0.31 102.833 67.568
0.32 103.001 69.574
0.33 103.098 69.727
0.34 103.198 68.450
0.35 102.256 66.229
0.36 101.786 63.076
0.37 --undefined-- 58.585
0.38 --undefined-- 53.806
0.39 --undefined-- 53.074
0.40 --undefined-- 54.396
0.41 --undefined-- 55.294
0.42 --undefined-- 55.377
0.43 --undefined-- 54.935
0.44 --undefined-- 54.968
0.45 --undefined-- 56.068
0.46 --undefined-- 57.249
0.47 --undefined-- 57.742
0.48 --undefined-- 57.356
0.49 --undefined-- 56.951
0.50 --undefined-- 57.305
0.51 --undefined-- 58.270
0.52 --undefined-- 59.324
0.53 --undefined-- 59.871
0.54 --undefined-- 58.763
0.55 --undefined-- 55.227
0.56 --undefined-- 49.055
0.57 --undefined-- 41.581
0.58 --undefined-- 38.201
0.59 --undefined-- 37.337
0.60 --undefined-- 37.157
0.61 --undefined-- 37.428
0.62 --undefined-- 39.130
0.63 --undefined-- 40.379
0.64 --undefined-- 46.144
0.65 --undefined-- 58.542
0.66 --undefined-- 67.082
0.67 --undefined-- 71.917
0.68 158.396 73.884
0.69 154.433 74.131
0.70 151.177 73.526
0.71 148.866 72.509
0.72 147.135 71.282
0.73 137.224 69.829
0.74 131.794 68.075
0.75 131.483 65.578
0.76 --undefined-- 61.314
0.77 --undefined-- 54.598
0.78 --undefined-- 48.769
0.79 --undefined-- 50.638
0.80 --undefined-- 54.804
0.81 --undefined-- 59.940
0.82 --undefined-- 65.794
0.83 --undefined-- 69.967
0.84 --undefined-- 71.177
0.85 --undefined-- 69.479
0.86 --undefined-- 66.520
0.87 --undefined-- 65.554
0.88 --undefined-- 65.230
0.89 --undefined-- 63.868
0.90 --undefined-- 62.611
0.91 --undefined-- 61.442
0.92 --undefined-- 58.622
0.93 --undefined-- 53.269
0.94 --undefined-- 46.197
0.95 --undefined-- 42.133
0.96 --undefined-- 41.269
0.97 --undefined-- 39.569
0.98 --undefined-- 37.385
0.99 --undefined-- 40.244
1.00 --undefined-- 46.448
1.01 --undefined-- 52.366
1.02 --undefined-- 60.625
1.03 --undefined-- 67.933
1.04 162.546 72.218
1.05 160.996 73.922
1.06 158.649 73.389
1.07 155.187 71.505
1.08 151.241 70.025
1.09 145.725 69.209
1.10 144.500 68.338
1.11 137.935 67.426
1.12 134.047 67.106
1.13 131.075 67.482
1.14 130.981 67.758
1.15 129.423 67.590
1.16 133.235 67.289
1.17 132.598 66.866
1.18 136.954 65.630
1.19 132.240 63.602
1.20 127.221 61.970
1.21 126.359 63.004
1.22 126.902 66.156
1.23 126.461 68.813
1.24 125.197 70.513
1.25 122.353 71.103
1.26 119.514 70.249
1.27 117.107 67.617
1.28 --undefined-- 62.658
1.29 --undefined-- 54.852
1.30 --undefined-- 46.279
1.31 --undefined-- 44.829
1.32 --undefined-- 49.962
1.33 --undefined-- 56.488
1.34 --undefined-- 63.067
1.35 --undefined-- 67.167
1.36 --undefined-- 68.430
1.37 --undefined-- 68.480
1.38 --undefined-- 68.899
1.39 --undefined-- 69.066
1.40 --undefined-- 68.890
1.41 --undefined-- 68.587
1.42 91.674 68.420
1.43 91.024 68.519
1.44 90.441 68.171
1.45 88.168 67.385
1.46 86.032 66.507
1.47 86.043 65.824
1.48 85.683 65.801
1.49 84.718 66.122
1.50 83.695 65.904
1.51 82.656 64.621
1.52 --undefined-- 61.610
1.53 --undefined-- 56.124
1.54 --undefined-- 49.464
1.55 --undefined-- 46.430
1.56 --undefined-- 45.205
1.57 --undefined-- 44.712
1.58 --undefined-- 44.676
1.59 --undefined-- 44.117
1.60 --undefined-- 43.757
1.61 --undefined-- 44.295
1.62 --undefined-- 45.580
1.63 --undefined-- 46.264
1.64 --undefined-- 45.808
1.65 --undefined-- 44.316
1.66 --undefined-- 43.126
1.67 --undefined-- 49.491
1.68 --undefined-- 55.981
1.69 --undefined-- 59.922
1.70 --undefined-- 64.065
1.71 --undefined-- 67.370
1.72 --undefined-- 68.405
1.73 --undefined-- 68.549
1.74 --undefined-- 69.437
1.75 --undefined-- 70.850
1.76 109.698 72.120
1.77 108.244 72.642
1.78 107.422 72.394
1.79 106.933 71.447
1.80 105.907 70.295
1.81 105.498 69.357
1.82 104.713 68.543
1.83 104.150 67.711
1.84 103.176 66.601
1.85 102.699 65.768
1.86 104.472 66.290
1.87 106.686 67.499
1.88 107.749 69.006
1.89 108.734 70.349
1.90 109.027 70.907
1.91 108.547 71.442
1.92 108.085 73.021
1.93 107.644 74.469
1.94 106.660 74.980
1.95 105.010 74.438
1.96 103.913 73.323
1.97 103.643 72.785
1.98 103.714 72.857
1.99 103.382 72.600
2.00 102.373 71.778
2.01 101.385 70.185
2.02 100.685 67.437
2.03 --undefined-- 64.102
2.04 --undefined-- 61.806
2.05 --undefined-- 58.111
2.06 --undefined-- 51.244
2.07 --undefined-- 46.876
2.08 --undefined-- 45.574
2.09 --undefined-- 43.254
2.10 --undefined-- 41.252
2.11 --undefined-- 40.458
2.12 --undefined-- 39.358
2.13 --undefined-- 38.220
2.14 --undefined-- 38.607
2.15 --undefined-- 39.478
2.16 --undefined-- 39.674
2.17 --undefined-- 50.185
2.18 --undefined-- 61.394
2.19 206.070 67.938
2.20 180.363 71.149
2.21 158.327 72.751
2.22 149.214 74.028
2.23 143.946 74.983
2.24 141.015 75.493
2.25 141.062 75.686
2.26 143.177 75.718
2.27 144.870 75.718
2.28 147.570 75.775
2.29 147.964 75.882
2.30 147.727 75.886
2.31 147.377 75.695
2.32 146.611 75.378
2.33 145.248 74.988
2.34 144.008 74.519
2.35 142.703 74.029
2.36 140.626 73.655
2.37 138.309 73.519
2.38 136.211 73.647
2.39 133.686 73.884
2.40 130.825 74.002
2.41 127.088 73.938
2.42 122.979 73.684
2.43 117.960 73.070
2.44 113.255 72.093
2.45 109.967 70.887
2.46 106.011 69.456
2.47 105.539 67.843
2.48 102.098 65.834
2.49 101.870 63.484
2.50 104.915 61.018
2.51 100.890 57.943
2.52 --undefined-- 53.754
2.53 --undefined-- 49.086
2.54 --undefined-- 45.722
2.55 --undefined-- 43.781
2.56 --undefined-- 41.639
2.57 --undefined-- 40.093
2.58 --undefined-- 39.452
2.59 --undefined-- 38.657
2.60 --undefined-- 39.287
2.61 --undefined-- 39.472
2.62 --undefined-- 37.872
2.63 --undefined-- 38.178
2.64 --undefined-- 40.701
2.65 --undefined-- 41.486
2.66 --undefined-- 40.219
2.67 --undefined-- 38.809
2.68 --undefined-- 38.041
2.69 --undefined-- 37.321
2.70 --undefined-- 36.537
2.71 --undefined-- 35.603
2.72 --undefined-- 35.162
2.73 --undefined-- 38.145
2.74 --undefined-- 45.159
2.75 --undefined-- 51.168
2.76 --undefined-- 57.103
2.77 --undefined-- 63.755
2.78 --undefined-- 68.028
2.79 --undefined-- 69.747
2.80 --undefined-- 70.213
2.81 --undefined-- 70.973
2.82 --undefined-- 71.899
2.83 110.819 72.717
2.84 109.030 73.763
2.85 105.728 74.226
2.86 104.803 73.690
2.87 101.728 72.649
2.88 100.312 71.439
2.89 97.692 70.473
2.90 94.996 69.929
2.91 --undefined-- 69.311
2.92 --undefined-- 67.964
2.93 --undefined-- 64.767
2.94 --undefined-- 59.664
2.95 --undefined-- 54.371
2.96 --undefined-- 49.334
2.97 --undefined-- 43.723
2.98 --undefined-- 40.387
2.99 --undefined-- 39.755
3.00 --undefined-- 41.027
3.01 --undefined-- 42.974
3.02 --undefined-- 44.372
3.03 --undefined-- 45.879
3.04 --undefined-- 46.872
3.05 --undefined-- 46.659
3.06 --undefined-- 47.727
3.07 --undefined-- 50.713
3.08 --undefined-- 53.347
3.09 121.495 54.834
3.10 121.709 55.720
3.11 119.854 56.471
3.12 118.777 57.340
3.13 291.884 57.974
3.14 290.631 57.571
3.15 286.118 57.839
3.16 278.322 58.838
3.17 280.032 58.674
3.18 --undefined-- 58.160
3.19 --undefined-- 58.383
3.20 92.888 58.414
3.21 87.574 57.756
3.22 86.706 57.448
3.23 80.835 57.447
3.24 80.894 56.594
3.25 81.257 54.860
3.26 81.935 53.561
3.27 90.810 52.772
3.28 --undefined-- 50.626
3.29 --undefined-- 46.535
3.30 --undefined-- 42.820
3.31 --undefined-- 41.919
3.32 --undefined-- 41.502
3.33 --undefined-- 48.399
3.34 --undefined-- 60.361
3.35 --undefined-- 67.291
3.36 --undefined-- 70.049
3.37 --undefined-- 70.872
3.38 161.114 72.444
3.39 159.856 73.357
3.40 161.273 72.505
3.41 164.429 69.828
3.42 163.664 65.561
3.43 174.485 63.140
3.44 179.219 63.830
3.45 183.783 64.219
3.46 186.133 64.468
3.47 186.380 64.890
3.48 185.576 65.289
3.49 183.109 65.459
3.50 180.206 65.038
3.51 172.468 63.819
3.52 166.210 62.303
3.53 150.648 62.311
3.54 143.992 63.545
3.55 141.759 64.535
3.56 135.615 65.172
3.57 128.613 65.631
3.58 123.265 65.513
3.59 118.094 64.517
3.60 112.426 63.197
3.61 107.487 63.374
3.62 106.910 65.002
3.63 106.237 65.990
3.64 105.927 65.789
3.65 106.618 65.240
3.66 107.813 65.721
3.67 108.227 66.636
3.68 108.283 66.905
3.69 108.225 66.933
3.70 108.547 66.843
3.71 108.504 66.144
3.72 107.445 64.552
3.73 105.447 61.870
3.74 100.803 58.573
3.75 104.455 55.278
3.76 --undefined-- 53.129
3.77 --undefined-- 59.722
3.78 --undefined-- 66.296
3.79 --undefined-- 69.035
3.80 --undefined-- 70.043
3.81 126.805 72.017
3.82 125.628 73.562
3.83 124.003 73.819
3.84 124.422 73.342
3.85 125.970 73.115
3.86 129.643 73.425
3.87 134.721 73.761
3.88 138.780 73.436
3.89 144.098 72.135
3.90 152.137 70.847
3.91 157.935 70.486
3.92 165.900 69.822
3.93 170.931 67.893
3.94 169.756 64.546
3.95 167.296 60.343
3.96 168.841 56.887
3.97 166.909 53.870
3.98 --undefined-- 53.909
3.99 --undefined-- 58.683
4.00 --undefined-- 60.186
4.01 --undefined-- 57.258
4.02 --undefined-- 49.419
4.03 --undefined-- 38.429
4.04 --undefined-- 36.258
4.05 --undefined-- 36.390
4.06 --undefined-- 46.424
4.07 --undefined-- 58.423
4.08 --undefined-- 66.306
4.09 --undefined-- 70.974
4.10 --undefined-- 73.576
4.11 151.138 74.797
4.12 153.053 74.742
4.13 154.117 74.261
4.14 154.556 73.717
4.15 153.620 72.151
4.16 152.328 68.796
4.17 151.462 64.736
4.18 148.777 62.564
4.19 148.591 61.242
4.20 141.209 58.790
4.21 144.919 54.756
4.22 136.531 50.753
4.23 133.564 51.258
4.24 --undefined-- 55.516
4.25 --undefined-- 60.755
4.26 --undefined-- 64.179
4.27 --undefined-- 65.318
4.28 --undefined-- 64.925
4.29 --undefined-- 63.821
4.30 --undefined-- 61.936
4.31 --undefined-- 58.429
4.32 --undefined-- 54.641
4.33 --undefined-- 54.197
4.34 --undefined-- 54.663
4.35 139.457 55.049
4.36 143.593 57.148
4.37 147.442 61.506
4.38 147.501 65.018
4.39 149.365 66.648
4.40 150.433 66.721
4.41 150.983 65.696
4.42 150.530 63.105
4.43 --undefined-- 58.378
4.44 --undefined-- 53.400
4.45 --undefined-- 49.665
4.46 --undefined-- 45.900
4.47 --undefined-- 44.534
4.48 --undefined-- 46.353
4.49 --undefined-- 52.313
4.50 --undefined-- 60.565
4.51 --undefined-- 66.347
4.52 --undefined-- 69.505
4.53 --undefined-- 70.534
4.54 106.632 69.968
4.55 105.679 68.717
4.56 109.689 67.611
4.57 115.007 66.829
4.58 118.438 66.290
4.59 123.706 66.234
4.60 133.181 66.675
4.61 137.423 67.496
4.62 139.817 68.523
4.63 141.067 69.435
4.64 141.411 70.068
4.65 140.963 70.395
4.66 138.373 70.563
4.67 137.459 70.316
4.68 136.456 69.251
4.69 133.802 67.328
4.70 130.768 65.459
4.71 125.907 66.094
4.72 125.730 68.875
4.73 117.948 71.343
4.74 --undefined-- 72.685
4.75 --undefined-- 72.592
4.76 --undefined-- 71.112
4.77 99.602 68.852
4.78 98.737 66.189
4.79 98.088 62.706
4.80 97.438 58.336
4.81 98.864 54.821
4.82 100.286 53.376
4.83 100.373 51.669
4.84 101.268 50.373
4.85 102.220 50.258
4.86 103.146 51.075
4.87 101.779 51.809
4.88 --undefined-- 50.720
4.89 --undefined-- 47.512
4.90 --undefined-- 47.371
4.91 --undefined-- 50.859
4.92 --undefined-- 52.563
4.93 --undefined-- 52.712
4.94 --undefined-- 53.522
4.95 --undefined-- 58.312
4.96 --undefined-- 63.931
4.97 --undefined-- 67.961
4.98 114.328 70.119
4.99 112.878 70.874
5.00 112.041 70.983
5.01 112.265 70.838
5.02 112.604 70.299
5.03 113.136 69.402
5.04 118.696 68.615
5.05 118.655 68.342
5.06 118.769 67.854
5.07 --undefined-- 66.234
5.08 --undefined-- 63.791
5.09 --undefined-- 63.125
5.10 --undefined-- 65.152
5.11 --undefined-- 68.710
5.12 141.456 71.635
5.13 148.223 73.317
5.14 150.222 74.259
5.15 151.633 74.531
5.16 152.823 74.139
5.17 152.499 73.361
5.18 152.438 72.359
5.19 151.202 71.120
5.20 150.697 69.848
5.21 150.660 68.168
5.22 --undefined-- 64.951
5.23 --undefined-- 59.482
5.24 --undefined-- 52.694
5.25 --undefined-- 48.252
5.26 --undefined-- 46.057
5.27 --undefined-- 45.742
5.28 --undefined-- 47.884
5.29 --undefined-- 50.099
5.30 --undefined-- 55.169
5.31 163.494 61.970
5.32 159.720 66.277
5.33 151.312 68.344
5.34 150.293 69.224
5.35 149.297 69.367
5.36 146.572 68.553
5.37 145.162 66.851
5.38 141.856 64.189
5.39 136.563 59.917
5.40 129.876 54.678
5.41 --undefined-- 50.928
5.42 --undefined-- 52.574
5.43 --undefined-- 60.966
5.44 --undefined-- 66.633
5.45 --undefined-- 69.485
5.46 --undefined-- 70.472
5.47 --undefined-- 71.686
5.48 --undefined-- 73.056
5.49 --undefined-- 73.401
5.50 --undefined-- 73.216
5.51 --undefined-- 72.813
5.52 108.763 72.500
5.53 106.831 --undefined--
5.54 106.972 --undefined--
5.55 --undefined-- --undefined--
5.56 --undefined-- --undefined--
