Time Pitch Intensity
0.01 --undefined-- --undefined--
0.02 --undefined-- --undefined--
0.03 --undefined-- --undefined--
0.04 --undefined-- --undefined--
0.05 --undefined-- 48.329
0.06 --undefined-- 47.701
0.07 --undefined-- 46.826
0.08 --undefined-- 46.946
0.09 --undefined-- 47.586
0.10 --undefined-- 48.760
0.11 --undefined-- 50.585
0.12 --undefined-- 52.281
0.13 --undefined-- 53.067
0.14 --undefined-- 54.715
0.15 --undefined-- 55.706
0.16 --undefined-- 54.043
0.17 --undefined-- 50.941
0.18 --undefined-- 50.578
0.19 --undefined-- 52.681
0.20 --undefined-- 53.296
0.21 --undefined-- 51.683
0.22 --undefined-- 51.088
0.23 --undefined-- 55.337
0.24 --undefined-- 60.107
0.25 283.725 63.581
0.26 266.207 65.783
0.27 256.539 67.047
0.28 258.405 68.313
0.29 259.795 69.944
0.30 259.331 71.387
0.31 256.836 72.351
0.32 252.456 72.538
0.33 247.044 71.924
0.34 237.861 71.215
0.35 233.582 69.957
0.36 229.558 67.079
0.37 210.127 63.827
0.38 201.169 63.687
0.39 199.607 66.378
0.40 199.919 69.174
0.41 197.429 70.796
0.42 199.083 71.855
0.43 199.277 72.561
0.44 190.854 72.675
0.45 181.934 71.911
0.46 176.265 69.625
0.47 179.912 65.849
0.48 185.601 61.327
0.49 179.813 56.266
0.50 --undefined-- 52.071
0.51 --undefined-- 52.206
0.52 --undefined-- 52.974
0.53 --undefined-- 52.889
0.54 --undefined-- 51.448
0.55 --undefined-- 49.715
0.56 --undefined-- 48.394
0.57 --undefined-- 48.113
0.58 --undefined-- 50.993
0.59 --undefined-- 52.932
0.60 --undefined-- 55.699
0.61 --undefined-- 63.302
0.62 278.076 68.948
0.63 263.367 71.773
0.64 259.937 72.815
0.65 259.579 72.909
0.66 258.851 72.278
0.67 259.645 71.281
0.68 264.443 70.492
0.69 269.007 69.945
0.70 270.081 69.397
0.71 269.459 68.723
0.72 268.007 68.051
0.73 266.964 67.822
0.74 269.469 68.617
0.75 268.553 69.415
0.76 268.567 68.995
0.77 268.823 67.400
0.78 263.976 65.118
0.79 257.458 61.976
0.80 241.192 57.586
0.81 248.084 53.958
0.82 --undefined-- 55.223
0.83 --undefined-- 59.361
0.84 235.628 63.685
0.85 223.405 65.970
0.86 215.389 66.552
0.87 210.723 66.264
0.88 208.415 65.063
0.89 207.363 62.762
0.90 205.427 59.342
0.91 --undefined-- 55.152
0.92 --undefined-- 52.530
0.93 --undefined-- 51.111
0.94 --undefined-- 48.923
0.95 --undefined-- 47.315
0.96 --undefined-- 47.829
0.97 --undefined-- 49.481
0.98 --undefined-- 50.698
0.99 --undefined-- 50.516
1.00 --undefined-- 51.833
1.01 --undefined-- 53.488
1.02 --undefined-- 53.809
1.03 --undefined-- 56.988
1.04 217.354 62.160
1.05 214.652 65.537
1.06 203.666 67.453
1.07 195.399 68.860
1.08 191.300 69.733
1.09 189.942 69.553
1.10 189.860 68.532
1.11 191.336 67.857
1.12 193.237 67.901
1.13 195.489 67.965
1.14 196.641 67.935
1.15 197.684 67.733
1.16 200.141 66.996
1.17 200.965 65.474
1.18 194.725 63.103
1.19 190.042 59.767
1.20 189.693 55.250
1.21 --undefined-- 51.641
1.22 --undefined-- 51.734
1.23 --undefined-- 51.948
1.24 --undefined-- 55.344
1.25 --undefined-- 61.172
1.26 199.771 64.855
1.27 195.504 66.673
1.28 192.701 67.347
1.29 191.878 67.469
1.30 192.166 67.675
1.31 193.406 67.990
1.32 194.956 67.926
1.33 196.851 67.121
1.34 199.391 65.821
1.35 201.211 64.892
1.36 201.421 64.439
1.37 201.363 63.763
1.38 199.828 62.333
1.39 190.737 59.601
1.40 191.608 55.340
1.41 --undefined-- 50.037
1.42 --undefined-- 49.840
1.43 --undefined-- 54.699
1.44 --undefined-- 57.358
1.45 --undefined-- 56.810
1.46 --undefined-- 54.145
1.47 263.686 57.442
1.48 270.043 62.434
1.49 284.747 65.363
1.50 281.423 66.132
1.51 276.205 64.268
1.52 --undefined-- 59.545
1.53 --undefined-- 55.490
1.54 --undefined-- 55.217
1.55 --undefined-- 53.902
1.56 --undefined-- 51.583
1.57 --undefined-- 51.287
1.58 --undefined-- 53.586
1.59 --undefined-- 54.070
1.60 --undefined-- 53.791
1.61 --undefined-- 56.457
1.62 --undefined-- 60.984
1.63 --undefined-- 64.303
1.64 195.901 65.802
1.65 190.051 66.010
1.66 188.339 65.309
1.67 185.532 63.973
1.68 179.680 62.723
1.69 181.531 62.442
1.70 179.920 62.575
1.71 176.421 62.461
1.72 173.673 61.990
1.73 170.792 61.524
1.74 167.557 61.427
1.75 164.916 61.665
1.76 153.472 61.848
1.77 151.479 61.390
1.78 150.662 60.649
1.79 153.605 60.347
1.80 148.882 59.965
1.81 144.542 59.261
1.82 144.947 58.757
1.83 146.514 58.650
1.84 145.803 59.115
1.85 148.065 59.502
1.86 151.406 59.286
1.87 156.845 58.847
1.88 163.794 58.615
1.89 173.559 58.292
1.90 178.022 57.645
1.91 172.466 57.269
1.92 166.318 57.107
1.93 167.914 56.670
1.94 168.189 56.838
1.95 179.603 58.304
1.96 192.200 60.254
1.97 189.328 62.073
1.98 175.659 63.777
1.99 170.122 65.077
2.00 164.917 65.651
2.01 160.935 65.702
2.02 158.899 65.464
2.03 157.539 64.848
2.04 155.632 63.945
2.05 153.637 63.353
2.06 152.541 63.113
2.07 152.080 63.039
2.08 152.973 63.246
2.09 154.188 63.240
2.10 154.532 62.809
2.11 158.898 62.829
2.12 166.702 63.183
2.13 172.691 63.370
2.14 180.356 63.982
2.15 186.842 65.174
2.16 195.731 66.368
2.17 214.307 67.536
2.18 222.901 68.787
2.19 231.557 70.020
2.20 239.821 71.162
2.21 249.547 72.326
2.22 256.951 73.501
2.23 263.184 74.116
2.24 270.676 73.968
2.25 277.897 73.776
2.26 283.681 73.914
2.27 288.018 74.000
2.28 291.220 73.934
2.29 292.097 73.833
2.30 292.181 73.631
2.31 291.027 73.223
2.32 289.237 72.437
2.33 287.949 71.163
2.34 284.698 69.601
2.35 281.600 67.850
2.36 280.820 65.802
2.37 286.561 63.398
2.38 285.201 60.177
2.39 281.944 56.941
2.40 290.562 55.213
2.41 288.415 52.679
2.42 --undefined-- 49.945
2.43 --undefined-- 49.542
2.44 --undefined-- 52.402
2.45 --undefined-- 53.762
2.46 --undefined-- 51.804
2.47 --undefined-- 48.623
2.48 --undefined-- 49.376
2.49 --undefined-- 51.105
2.50 --undefined-- 51.974
2.51 --undefined-- 52.251
2.52 --undefined-- 52.605
2.53 --undefined-- 52.111
2.54 --undefined-- 50.969
2.55 --undefined-- 51.134
2.56 --undefined-- 52.355
2.57 --undefined-- 53.503
2.58 --undefined-- 53.532
2.59 --undefined-- 52.350
2.60 --undefined-- 51.504
2.61 --undefined-- 52.239
2.62 --undefined-- 54.190
2.63 --undefined-- 54.675
2.64 --undefined-- 53.729
2.65 --undefined-- 53.654
2.66 --undefined-- 54.424
2.67 --undefined-- 53.819
2.68 --undefined-- 51.635
2.69 --undefined-- 49.110
2.70 --undefined-- 47.425
2.71 --undefined-- 46.429
2.72 --undefined-- 46.801
2.73 --undefined-- 47.804
2.74 --undefined-- 48.964
2.75 --undefined-- 54.455
2.76 193.230 60.758
2.77 195.533 64.047
2.78 201.865 64.855
2.79 210.840 64.788
2.80 213.258 65.461
2.81 212.133 66.177
2.82 208.586 65.525
2.83 201.142 62.857
2.84 187.596 59.004
2.85 --undefined-- 57.624
2.86 --undefined-- 63.916
2.87 201.258 69.678
2.88 196.651 72.738
2.89 191.187 74.165
2.90 184.582 74.408
2.91 172.443 73.376
2.92 161.935 71.730
2.93 153.355 70.542
2.94 296.214 69.693
2.95 290.369 68.924
2.96 285.803 68.213
2.97 283.220 67.624
2.98 285.742 67.461
2.99 286.919 67.105
3.00 283.175 65.426
3.01 270.458 61.793
3.02 289.346 56.296
3.03 --undefined-- 50.598
3.04 --undefined-- 50.620
3.05 --undefined-- 55.404
3.06 --undefined-- 59.431
3.07 --undefined-- 61.115
3.08 --undefined-- 60.954
3.09 --undefined-- 62.384
3.10 166.280 65.866
3.11 178.827 68.817
3.12 191.303 71.098
3.13 194.262 72.779
3.14 194.621 73.733
3.15 190.956 73.683
3.16 --undefined-- 72.099
3.17 --undefined-- 68.574
3.18 --undefined-- 63.971
3.19 --undefined-- 60.602
3.20 --undefined-- 57.515
3.21 --undefined-- 54.475
3.22 --undefined-- 52.669
3.23 --undefined-- 54.706
3.24 --undefined-- 58.154
3.25 --undefined-- 61.478
3.26 194.432 64.222
3.27 195.091 66.383
3.28 195.582 68.471
3.29 186.036 70.201
3.30 184.352 70.976
3.31 182.932 70.965
3.32 183.710 70.969
3.33 185.774 71.481
3.34 189.118 72.071
3.35 194.054 71.841
3.36 201.386 70.201
3.37 226.852 67.962
3.38 234.542 66.746
3.39 244.007 66.184
3.40 255.246 65.696
3.41 259.925 64.780
3.42 256.088 62.991
3.43 --undefined-- 60.695
3.44 --undefined-- 58.337
3.45 --undefined-- 56.297
3.46 --undefined-- 55.718
3.47 --undefined-- 54.702
3.48 --undefined-- 52.566
3.49 --undefined-- 50.811
3.50 --undefined-- 51.083
3.51 --undefined-- 51.334
3.52 --undefined-- 50.437
3.53 --undefined-- 53.802
3.54 275.015 60.679
3.55 251.845 66.071
3.56 250.655 69.695
3.57 252.437 71.856
3.58 254.665 72.906
3.59 256.081 73.100
3.60 257.341 72.472
3.61 258.834 71.100
3.62 260.648 69.457
3.63 261.222 68.088
3.64 259.650 66.999
3.65 254.632 66.126
3.66 249.177 65.410
3.67 249.171 64.878
3.68 242.095 64.591
3.69 231.137 64.688
3.70 217.179 65.001
3.71 204.295 65.189
3.72 195.243 65.621
3.73 190.565 66.640
3.74 188.702 67.748
3.75 187.456 68.393
3.76 187.968 68.441
3.77 190.849 68.184
3.78 195.230 67.853
3.79 197.248 66.800
3.80 193.718 64.090
3.81 191.537 59.708
3.82 193.150 55.856
3.83 193.130 54.875
3.84 --undefined-- 57.587
3.85 --undefined-- 60.853
3.86 214.393 63.328
3.87 206.241 64.660
3.88 197.154 65.063
3.89 189.187 65.111
3.90 184.327 65.063
3.91 179.970 64.661
3.92 175.908 63.808
3.93 172.168 62.485
3.94 170.672 60.628
3.95 170.294 58.029
3.96 169.260 54.381
3.97 --undefined-- 50.257
3.98 --undefined-- 48.160
3.99 --undefined-- 49.903
4.00 --undefined-- 51.935
4.01 --undefined-- 52.408
4.02 --undefined-- 51.054
4.03 --undefined-- 49.843
4.04 --undefined-- 50.406
4.05 --undefined-- 51.029
4.06 --undefined-- 52.180
4.07 --undefined-- 53.550
4.08 241.722 55.286
4.09 226.109 59.342
4.10 207.152 62.324
4.11 195.691 63.757
4.12 188.202 64.836
4.13 183.998 65.655
4.14 180.538 66.307
4.15 179.828 66.978
4.16 178.601 67.239
4.17 176.713 66.774
4.18 175.552 66.037
4.19 175.295 65.859
4.20 175.807 66.207
4.21 176.479 66.652
4.22 177.351 67.050
4.23 177.423 67.270
4.24 176.976 66.900
4.25 175.779 65.484
4.26 168.999 63.359
4.27 172.379 62.149
4.28 169.684 61.613
4.29 164.659 60.936
4.30 160.643 60.261
4.31 162.792 61.138
4.32 167.643 63.574
4.33 166.796 65.154
4.34 163.776 65.691
4.35 160.440 65.933
4.36 158.665 65.981
4.37 155.981 65.651
4.38 154.321 65.347
4.39 152.329 65.080
4.40 150.438 64.120
4.41 148.093 62.411
4.42 153.785 60.442
4.43 --undefined-- 59.101
4.44 --undefined-- 58.906
4.45 260.514 58.286
4.46 262.708 56.766
4.47 256.652 55.752
4.48 260.941 55.340
4.49 260.656 54.468
4.50 --undefined-- 52.351
4.51 --undefined-- 49.739
4.52 --undefined-- 51.483
4.53 --undefined-- 56.242
4.54 --undefined-- 61.059
4.55 185.399 65.241
4.56 186.096 68.269
4.57 185.040 69.772
4.58 184.887 70.061
4.59 185.396 69.679
4.60 185.504 69.169
4.61 185.464 68.750
4.62 186.218 68.417
4.63 186.665 68.006
4.64 185.909 66.804
4.65 184.108 63.883
4.66 182.479 58.743
4.67 184.986 53.103
4.68 --undefined-- 51.153
4.69 --undefined-- 50.855
4.70 --undefined-- 54.110
4.71 --undefined-- 60.481
4.72 192.416 65.158
4.73 191.851 67.597
4.74 187.790 67.803
4.75 185.952 65.466
4.76 188.321 60.368
4.77 189.577 53.952
4.78 188.612 50.964
4.79 188.476 49.288
4.80 --undefined-- 48.411
4.81 --undefined-- 49.081
4.82 --undefined-- 49.735
4.83 --undefined-- 51.956
4.84 --undefined-- 54.550
4.85 --undefined-- 54.593
4.86 --undefined-- 51.427
4.87 --undefined-- 48.002
4.88 --undefined-- 51.382
4.89 211.634 57.054
4.90 200.492 60.986
4.91 187.998 63.645
4.92 179.208 65.603
4.93 173.405 66.926
4.94 169.771 --undefined--
4.95 167.744 --undefined--
4.96 --undefined-- --undefined--
4.97 --undefined-- --undefined--
