Time Pitch Intensity
0.01 --undefined-- --undefined--
0.02 179.125 --undefined--
0.03 176.870 --undefined--
0.04 174.536 --undefined--
0.05 167.978 57.826
0.06 156.448 54.394
0.07 --undefined-- 50.338
0.08 --undefined-- 49.786
0.09 --undefined-- 51.893
0.10 --undefined-- 53.855
0.11 --undefined-- 55.125
0.12 --undefined-- 54.175
0.13 --undefined-- 51.924
0.14 180.555 53.516
0.15 181.220 57.123
0.16 184.287 59.582
0.17 192.381 61.162
0.18 186.524 62.548
0.19 176.578 63.524
0.20 170.654 63.865
0.21 165.062 64.021
0.22 163.798 64.248
0.23 163.817 64.204
0.24 163.686 63.475
0.25 163.066 61.887
0.26 158.787 59.811
0.27 165.683 59.123
0.28 174.952 60.313
0.29 176.692 61.564
0.30 180.105 62.417
0.31 180.923 62.891
0.32 183.386 62.759
0.33 182.099 61.689
0.34 178.233 59.246
0.35 176.009 54.934
0.36 --undefined-- 49.491
0.37 --undefined-- 47.882
0.38 --undefined-- 48.893
0.39 --undefined-- 52.422
0.40 221.426 57.126
0.41 208.722 60.377
0.42 203.225 62.340
0.43 197.405 63.910
0.44 190.221 65.308
0.45 186.152 66.201
0.46 184.467 66.651
0.47 184.673 67.275
0.48 186.210 68.308
0.49 187.727 69.277
0.50 189.000 69.789
0.51 189.350 69.872
0.52 189.754 69.361
0.53 190.887 68.041
0.54 192.640 66.513
0.55 193.137 65.430
0.56 190.952 64.528
0.57 182.530 63.164
0.58 183.014 60.722
0.59 177.094 57.964
0.60 166.680 55.950
0.61 164.518 55.609
0.62 164.760 57.230
0.63 167.725 58.785
0.64 168.886 59.925
0.65 170.530 60.994
0.66 172.328 61.684
0.67 171.874 61.863
0.68 171.353 61.607
0.69 171.181 61.225
0.70 170.664 60.990
0.71 170.860 60.607
0.72 171.000 60.185
0.73 171.273 60.006
0.74 170.947 59.658
0.75 171.345 59.182
0.76 172.369 59.310
0.77 172.959 59.758
0.78 172.438 59.977
0.79 171.400 59.842
0.80 172.731 59.795
0.81 173.395 59.863
0.82 173.950 59.153
0.83 173.363 57.298
0.84 172.497 54.894
0.85 --undefined-- 53.556
0.86 --undefined-- 52.517
0.87 --undefined-- 51.511
0.88 --undefined-- 52.625
0.89 --undefined-- 55.251
0.90 --undefined-- 59.169
0.91 204.777 62.966
0.92 192.387 65.587
0.93 186.322 67.168
0.94 182.213 68.453
0.95 180.921 69.464
0.96 178.312 69.810
0.97 175.411 69.682
0.98 173.711 69.355
0.99 172.502 68.951
1.00 172.689 68.543
1.01 175.220 68.521
1.02 177.851 69.151
1.03 178.753 69.516
1.04 179.369 68.984
1.05 179.815 67.824
1.06 179.885 66.348
1.07 180.182 64.780
1.08 179.681 63.237
1.09 176.652 61.773
1.10 177.144 60.735
1.11 179.395 60.028
1.12 179.617 59.157
1.13 181.078 57.859
1.14 180.776 55.598
1.15 --undefined-- 51.972
1.16 --undefined-- 48.217
1.17 --undefined-- 46.040
1.18 --undefined-- 44.143
1.19 --undefined-- 44.055
1.20 --undefined-- 45.804
1.21 --undefined-- 47.793
1.22 --undefined-- 50.081
1.23 --undefined-- 51.923
1.24 --undefined-- 52.679
1.25 --undefined-- 51.937
1.26 --undefined-- 51.735
1.27 --undefined-- 53.611
1.28 --undefined-- 55.210
1.29 --undefined-- 55.617
1.30 --undefined-- 55.832
1.31 --undefined-- 56.626
1.32 --undefined-- 56.472
1.33 --undefined-- 54.802
1.34 --undefined-- 52.085
1.35 --undefined-- 49.935
1.36 --undefined-- 50.091
1.37 --undefined-- 50.806
1.38 --undefined-- 50.782
1.39 --undefined-- 50.608
1.40 --undefined-- 51.538
1.41 --undefined-- 51.966
1.42 --undefined-- 51.010
1.43 --undefined-- 49.022
1.44 --undefined-- 46.889
1.45 --undefined-- 45.587
1.46 --undefined-- 45.507
1.47 --undefined-- 44.615
1.48 --undefined-- 44.039
1.49 --undefined-- 48.790
1.50 --undefined-- 52.463
1.51 --undefined-- 54.164
1.52 249.719 58.393
1.53 248.520 63.844
1.54 242.307 67.246
1.55 234.380 69.083
1.56 232.970 70.242
1.57 232.312 71.149
1.58 232.220 72.004
1.59 233.147 72.913
1.60 234.548 73.549
1.61 237.040 73.392
1.62 244.213 72.030
1.63 251.113 69.821
1.64 252.357 68.420
1.65 253.043 68.110
1.66 253.862 67.909
1.67 255.125 67.663
1.68 255.585 67.442
1.69 256.341 67.282
1.70 257.431 67.230
1.71 258.384 67.204
1.72 259.532 67.168
1.73 261.042 67.185
1.74 263.890 67.205
1.75 266.053 66.874
1.76 266.412 65.579
1.77 258.571 62.947
1.78 242.989 59.393
1.79 254.618 55.277
1.80 265.128 50.581
1.81 --undefined-- 49.066
1.82 --undefined-- 51.529
1.83 --undefined-- 55.213
1.84 --undefined-- 58.666
1.85 --undefined-- 62.004
1.86 172.050 65.254
1.87 174.376 67.156
1.88 178.898 67.655
1.89 180.664 67.856
1.90 180.692 67.892
1.91 179.326 67.015
1.92 174.426 65.239
1.93 172.538 64.687
1.94 178.940 65.728
1.95 181.812 66.327
1.96 182.666 66.596
1.97 183.849 66.694
1.98 185.779 66.745
1.99 185.707 66.947
2.00 183.959 66.866
2.01 180.477 65.871
2.02 171.820 63.782
2.03 156.156 61.229
2.04 159.266 58.809
2.05 --undefined-- 57.219
2.06 --undefined-- 56.506
2.07 --undefined-- 54.920
2.08 --undefined-- 51.463
2.09 --undefined-- 46.544
2.10 --undefined-- 45.615
2.11 --undefined-- 50.220
2.12 --undefined-- 57.238
2.13 188.164 62.686
2.14 186.328 65.585
2.15 185.103 66.347
2.16 182.170 65.446
2.17 173.487 62.917
2.18 --undefined-- 59.000
2.19 --undefined-- 54.982
2.20 --undefined-- 51.088
2.21 --undefined-- 47.809
2.22 --undefined-- 48.201
2.23 --undefined-- 48.810
2.24 --undefined-- 48.590
2.25 --undefined-- 48.407
2.26 --undefined-- 47.503
2.27 --undefined-- 46.169
2.28 --undefined-- 46.507
2.29 --undefined-- 48.243
2.30 --undefined-- 48.725
2.31 --undefined-- 47.778
2.32 --undefined-- 46.015
2.33 --undefined-- 45.161
2.34 --undefined-- 45.859
2.35 --undefined-- 46.429
2.36 --undefined-- 47.243
2.37 --undefined-- 49.613
2.38 --undefined-- 55.646
2.39 --undefined-- 62.312
2.40 239.987 66.628
2.41 225.182 68.416
2.42 204.307 68.624
2.43 185.183 68.321
2.44 177.032 67.455
2.45 174.393 65.407
2.46 172.106 62.155
2.47 --undefined-- 58.602
2.48 --undefined-- 55.710
2.49 --undefined-- 53.835
2.50 --undefined-- 51.673
2.51 --undefined-- 49.441
2.52 --undefined-- 48.877
2.53 --undefined-- 49.861
2.54 --undefined-- 52.552
2.55 --undefined-- 54.799
2.56 --undefined-- 56.601
2.57 192.753 58.885
2.58 196.069 60.959
2.59 197.171 62.199
2.60 196.393 62.880
2.61 196.951 63.474
2.62 194.639 64.001
2.63 193.333 64.410
2.64 192.672 64.762
2.65 190.997 64.991
2.66 189.188 65.110
2.67 188.491 65.183
2.68 188.684 65.082
2.69 188.178 64.824
2.70 188.264 64.681
2.71 188.359 64.735
2.72 188.160 64.715
2.73 188.887 64.535
2.74 190.075 64.538
2.75 192.100 64.875
2.76 194.474 65.413
2.77 196.707 66.104
2.78 197.220 66.617
2.79 198.072 66.584
2.80 199.129 66.036
2.81 200.199 65.077
2.82 202.037 63.485
2.83 200.557 60.913
2.84 197.372 57.091
2.85 --undefined-- 52.091
2.86 --undefined-- 47.088
2.87 --undefined-- 44.768
2.88 --undefined-- 46.247
2.89 --undefined-- 47.218
2.90 --undefined-- 47.279
2.91 --undefined-- 48.930
2.92 --undefined-- 55.270
2.93 218.434 61.143
2.94 203.202 64.766
2.95 196.216 66.833
2.96 191.117 68.025
2.97 188.278 68.763
2.98 186.422 69.234
2.99 185.935 69.387
3.00 187.213 69.251
3.01 190.044 69.033
3.02 193.270 68.921
3.03 195.631 68.913
3.04 197.689 68.789
3.05 197.158 67.752
3.06 193.424 64.796
3.07 190.071 59.991
3.08 190.228 55.691
3.09 --undefined-- 54.357
3.10 --undefined-- 56.239
3.11 199.331 60.422
3.12 188.297 64.133
3.13 181.880 66.511
3.14 176.192 67.760
3.15 171.425 68.194
3.16 170.524 68.344
3.17 173.528 68.745
3.18 177.029 69.326
3.19 179.933 69.703
3.20 182.999 69.629
3.21 186.998 69.291
3.22 189.693 68.870
3.23 194.419 67.887
3.24 204.614 66.578
3.25 212.799 66.491
3.26 221.736 67.731
3.27 229.072 69.117
3.28 235.019 70.386
3.29 240.315 71.370
3.30 245.628 71.410
3.31 250.967 70.315
3.32 255.580 68.649
3.33 260.049 66.981
3.34 262.443 65.438
3.35 259.776 63.751
3.36 250.577 61.414
3.37 244.671 57.758
3.38 248.604 52.555
3.39 --undefined-- 48.078
3.40 --undefined-- 47.017
3.41 --undefined-- 48.929
3.42 --undefined-- 50.135
3.43 --undefined-- 50.405
3.44 --undefined-- 51.654
3.45 --undefined-- 53.741
3.46 --undefined-- 55.329
3.47 --undefined-- 56.071
3.48 --undefined-- 55.184
3.49 --undefined-- 52.784
3.50 --undefined-- 54.145
3.51 --undefined-- 60.700
3.52 262.554 65.628
3.53 255.751 68.137
3.54 239.805 68.701
3.55 236.520 68.561
3.56 235.481 68.947
3.57 235.430 69.600
3.58 235.920 70.131
3.59 237.874 70.290
3.60 242.423 69.610
3.61 248.158 67.903
3.62 249.496 66.014
3.63 249.806 65.086
3.64 250.392 64.678
3.65 250.965 64.507
3.66 252.025 64.757
3.67 252.937 65.078
3.68 252.347 64.587
3.69 248.160 62.625
3.70 237.243 59.134
3.71 235.185 55.559
3.72 --undefined-- 53.716
3.73 --undefined-- 52.447
3.74 --undefined-- 51.812
3.75 --undefined-- 52.213
3.76 --undefined-- 51.850
3.77 --undefined-- 49.691
3.78 --undefined-- 46.110
3.79 --undefined-- 44.958
3.80 --undefined-- 50.737
3.81 --undefined-- 56.560
3.82 166.545 59.833
3.83 165.932 61.015
3.84 166.071 61.218
3.85 168.434 61.264
3.86 169.381 60.733
3.87 --undefined-- 58.576
3.88 --undefined-- 54.476
3.89 --undefined-- 51.701
3.90 --undefined-- 56.708
3.91 201.148 61.967
3.92 204.153 64.758
3.93 210.520 65.804
3.94 216.382 66.305
3.95 220.000 66.526
3.96 219.627 65.527
3.97 215.507 62.417
3.98 209.510 57.345
3.99 210.990 52.394
4.00 216.295 50.556
4.01 --undefined-- 56.087
4.02 --undefined-- 61.695
4.03 216.022 64.610
4.04 205.147 65.653
4.05 195.224 66.102
4.06 187.255 66.456
4.07 183.184 66.524
4.08 178.302 66.128
4.09 175.823 65.220
4.10 174.671 64.034
4.11 173.448 63.182
4.12 173.053 63.165
4.13 173.717 63.843
4.14 174.870 64.733
4.15 174.550 65.273
4.16 171.413 65.115
4.17 172.009 63.968
4.18 --undefined-- 61.824
4.19 --undefined-- 59.045
4.20 --undefined-- 56.867
4.21 --undefined-- 58.602
4.22 --undefined-- 61.383
4.23 --undefined-- 62.605
4.24 --undefined-- 62.234
4.25 --undefined-- 61.158
4.26 --undefined-- 59.429
4.27 171.723 57.379
4.28 173.711 56.939
4.29 185.831 58.073
4.30 186.144 59.643
4.31 167.532 61.360
4.32 164.007 62.617
4.33 158.638 63.085
4.34 156.474 63.132
4.35 156.759 63.064
4.36 157.651 62.750
4.37 159.979 62.138
4.38 162.479 61.143
4.39 166.776 60.159
4.40 170.764 59.845
4.41 174.209 59.997
4.42 176.133 60.063
4.43 175.230 59.613
4.44 191.739 60.148
4.45 213.299 62.011
4.46 212.432 62.737
4.47 211.471 61.576
4.48 216.689 59.019
4.49 223.351 57.958
4.50 222.023 59.738
4.51 232.028 62.348
4.52 231.915 64.088
4.53 221.378 64.886
4.54 209.347 65.488
4.55 198.137 66.466
4.56 187.346 67.641
4.57 180.660 68.605
4.58 178.122 68.938
4.59 178.225 68.268
4.60 181.568 66.879
4.61 183.477 65.688
4.62 183.966 64.922
4.63 185.453 64.644
4.64 187.866 64.950
4.65 194.322 65.438
4.66 199.839 66.059
4.67 205.475 66.970
4.68 208.310 67.528
4.69 209.645 67.438
4.70 220.595 67.841
4.71 224.599 68.838
4.72 226.447 68.989
4.73 227.069 67.885
4.74 228.294 65.901
4.75 228.526 63.434
4.76 211.782 61.138
4.77 207.816 59.171
4.78 201.868 57.945
4.79 202.067 58.595
4.80 209.009 60.686
4.81 229.820 63.379
4.82 228.834 65.660
4.83 223.001 66.969
4.84 220.215 67.320
4.85 220.948 66.991
4.86 222.203 66.223
4.87 223.542 65.470
4.88 225.189 65.144
4.89 226.169 65.116
4.90 226.723 65.273
4.91 226.692 65.505
4.92 226.459 65.626
4.93 225.685 65.506
4.94 224.613 65.200
4.95 223.145 64.873
4.96 221.419 64.508
4.97 219.801 --undefined--
4.98 217.086 --undefined--
4.99 --undefined-- --undefined--
5.00 --undefined-- --undefined--
