Time Pitch Intensity
0.01 --undefined-- --undefined--
0.02 206.767 --undefined--
0.03 206.043 --undefined--
0.04 208.322 --undefined--
0.05 212.010 79.948
0.06 221.691 80.710
0.07 224.505 81.069
0.08 225.124 81.033
0.09 225.335 80.756
0.10 224.996 80.459
0.11 224.158 80.248
0.12 223.399 79.821
0.13 222.184 78.535
0.14 222.409 76.818
0.15 224.615 75.901
0.16 219.143 75.147
0.17 209.752 73.820
0.18 198.894 72.119
0.19 191.201 70.603
0.20 188.088 69.750
0.21 186.742 71.056
0.22 213.896 75.382
0.23 216.527 78.865
0.24 214.032 80.375
0.25 211.022 80.640
0.26 207.626 80.390
0.27 203.852 79.847
0.28 199.532 79.191
0.29 198.669 78.806
0.30 198.234 78.717
0.31 197.728 78.486
0.32 194.415 77.595
0.33 186.601 76.442
0.34 186.975 75.775
0.35 184.475 75.120
0.36 182.188 74.260
0.37 178.980 73.167
0.38 169.822 71.642
0.39 163.418 70.018
0.40 159.175 69.175
0.41 160.139 71.489
0.42 166.366 75.593
0.43 161.223 78.210
0.44 152.559 79.175
0.45 148.561 79.461
0.46 145.710 79.698
0.47 143.882 79.584
0.48 143.157 78.836
0.49 143.599 77.731
0.50 142.490 76.453
0.51 141.455 74.740
0.52 142.210 73.175
0.53 142.446 72.698
0.54 142.104 72.762
0.55 140.792 72.488
0.56 140.624 72.279
0.57 146.096 73.584
0.58 147.321 75.264
0.59 143.075 75.747
0.60 137.074 75.267
0.61 135.118 74.572
0.62 133.442 74.028
0.63 131.839 73.087
0.64 126.213 70.977
0.65 131.566 68.056
0.66 135.319 65.249
0.67 135.016 61.911
0.68 129.207 57.439
0.69 --undefined-- 52.875
0.70 --undefined-- 50.051
0.71 --undefined-- 54.263
0.72 --undefined-- 64.829
0.73 161.742 72.034
0.74 156.588 76.018
0.75 147.260 77.730
0.76 142.186 78.054
0.77 139.723 77.661
0.78 138.287 77.018
0.79 136.430 76.286
0.80 133.854 75.440
0.81 134.802 74.666
0.82 136.783 74.057
0.83 135.821 73.340
0.84 134.676 72.372
0.85 131.981 70.957
0.86 129.167 69.380
0.87 130.721 70.268
0.88 135.809 73.687
0.89 137.530 76.164
0.90 133.407 76.882
0.91 129.390 76.706
0.92 128.227 76.482
0.93 128.042 75.757
0.94 127.280 73.633
0.95 123.081 69.695
0.96 128.189 64.967
0.97 129.905 60.755
0.98 128.717 56.210
0.99 --undefined-- 52.482
1.00 --undefined-- 53.793
1.01 --undefined-- 56.376
1.02 --undefined-- 58.690
1.03 --undefined-- 66.246
1.04 167.124 72.476
1.05 154.276 75.739
1.06 152.172 77.117
1.07 147.676 77.759
1.08 145.969 78.147
1.09 144.748 78.138
1.10 144.298 77.630
1.11 143.346 76.823
1.12 145.142 76.278
1.13 147.412 76.154
1.14 148.106 76.065
1.15 147.500 75.737
1.16 145.842 74.874
1.17 144.017 73.023
1.18 142.281 69.768
1.19 140.243 68.205
1.20 154.872 73.016
1.21 144.883 76.366
1.22 137.993 77.369
1.23 134.861 77.347
1.24 133.881 77.094
1.25 135.370 76.652
1.26 139.936 76.399
1.27 145.159 76.739
1.28 148.479 77.307
1.29 151.007 77.502
1.30 152.645 77.043
1.31 161.277 75.877
1.32 173.833 75.433
1.33 178.842 77.159
1.34 176.583 78.705
1.35 178.022 79.240
1.36 180.003 79.184
1.37 182.776 78.424
1.38 187.136 76.578
1.39 180.034 73.371
1.40 165.715 69.549
1.41 167.139 69.930
1.42 168.787 74.063
1.43 167.598 77.093
1.44 162.938 78.404
1.45 154.834 78.609
1.46 147.343 78.539
1.47 142.330 78.327
1.48 139.242 77.447
1.49 134.674 75.784
1.50 126.410 74.023
1.51 --undefined-- 72.415
1.52 --undefined-- 70.008
1.53 --undefined-- 66.925
1.54 --undefined-- 63.913
1.55 --undefined-- 62.751
1.56 --undefined-- 64.054
1.57 98.727 65.941
1.58 111.377 67.729
1.59 115.322 69.472
1.60 116.322 70.815
1.61 115.736 71.494
1.62 115.575 71.883
1.63 115.484 72.367
1.64 115.949 72.872
1.65 117.202 73.218
1.66 119.762 73.397
1.67 123.186 73.597
1.68 126.833 74.006
1.69 130.459 74.645
1.70 133.628 75.394
1.71 137.028 76.125
1.72 140.699 76.721
1.73 145.507 77.232
1.74 149.578 77.846
1.75 152.230 78.576
1.76 154.916 79.275
1.77 156.759 79.813
1.78 158.567 79.715
1.79 156.207 78.308
1.80 151.574 75.181
1.81 146.241 70.521
1.82 153.126 65.607
1.83 161.581 63.644
1.84 168.757 67.483
1.85 160.464 73.568
1.86 153.715 76.866
1.87 134.852 77.324
1.88 125.852 76.192
1.89 122.337 74.494
1.90 117.950 72.090
1.91 113.903 69.201
1.92 --undefined-- 65.781
1.93 --undefined-- 61.449
1.94 --undefined-- 59.103
1.95 --undefined-- 59.626
1.96 --undefined-- 61.250
1.97 98.213 63.693
1.98 108.827 66.064
1.99 113.186 67.927
2.00 114.373 69.339
2.01 113.899 70.216
2.02 114.396 70.692
2.03 115.546 71.089
2.04 117.108 71.579
2.05 120.433 72.235
2.06 124.592 72.980
2.07 129.733 73.795
2.08 134.359 74.608
2.09 137.021 75.207
2.10 139.629 75.389
2.11 139.043 74.803
2.12 136.303 72.881
2.13 131.910 69.056
2.14 132.407 63.488
2.15 132.572 60.306
2.16 132.226 61.959
2.17 --undefined-- 64.649
2.18 --undefined-- 69.933
2.19 --undefined-- 75.209
2.20 150.803 77.883
2.21 142.492 78.503
2.22 140.500 78.506
2.23 141.094 78.551
2.24 139.172 78.420
2.25 137.449 78.267
2.26 136.639 78.442
2.27 136.430 78.820
2.28 136.517 78.973
2.29 136.324 78.677
2.30 134.615 77.793
2.31 130.555 75.859
2.32 124.531 72.357
2.33 124.179 67.539
2.34 129.218 65.053
2.35 139.744 69.536
2.36 140.989 74.308
2.37 138.563 77.091
2.38 136.178 78.225
2.39 134.516 78.226
2.40 130.474 77.730
2.41 129.344 77.472
2.42 128.926 77.366
2.43 128.941 77.172
2.44 129.386 77.119
2.45 130.111 76.995
2.46 126.644 75.873
2.47 124.633 73.253
2.48 127.182 69.148
2.49 124.822 63.257
2.50 --undefined-- 55.963
2.51 --undefined-- 54.354
2.52 --undefined-- 57.697
2.53 --undefined-- 63.960
2.54 156.315 70.087
2.55 155.530 73.369
2.56 137.361 74.584
2.57 133.693 75.128
2.58 133.276 75.524
2.59 132.093 75.547
2.60 129.171 74.647
2.61 129.041 71.997
2.62 115.892 67.092
2.63 129.356 60.719
2.64 --undefined-- 54.714
2.65 --undefined-- 53.676
2.66 --undefined-- 59.005
2.67 --undefined-- 65.645
2.68 --undefined-- 71.392
2.69 139.718 74.814
2.70 134.404 76.529
2.71 131.079 77.418
2.72 129.314 77.823
2.73 125.841 77.636
2.74 120.694 76.864
2.75 120.599 75.860
2.76 117.461 74.972
2.77 113.290 74.414
2.78 110.573 73.995
2.79 106.063 73.017
2.80 97.963 71.275
2.81 94.897 69.338
2.82 92.251 67.109
2.83 87.197 64.773
2.84 87.103 64.463
2.85 91.702 66.007
2.86 92.628 67.273
2.87 93.531 67.635
2.88 94.128 67.251
2.89 92.378 66.599
2.90 97.496 66.348
2.91 96.953 66.459
2.92 97.195 66.681
2.93 96.549 66.357
2.94 94.217 64.588
2.95 89.775 60.990
2.96 86.485 56.522
2.97 --undefined-- 52.662
2.98 --undefined-- 49.816
2.99 --undefined-- 49.988
3.00 --undefined-- 52.711
3.01 --undefined-- 59.928
3.02 --undefined-- 67.233
3.03 --undefined-- 71.917
3.04 123.879 74.801
3.05 130.436 76.698
3.06 137.499 77.967
3.07 143.580 78.568
3.08 149.726 78.142
3.09 154.927 76.350
3.10 156.015 73.421
3.11 155.212 70.397
3.12 155.158 67.258
3.13 150.907 62.958
3.14 152.429 60.030
3.15 --undefined-- 62.622
3.16 --undefined-- 64.344
3.17 --undefined-- 65.322
3.18 --undefined-- 70.783
3.19 --undefined-- 75.589
3.20 --undefined-- 77.701
3.21 133.660 77.757
3.22 124.701 76.806
3.23 119.917 75.806
3.24 114.421 74.919
3.25 109.767 74.027
3.26 108.874 73.521
3.27 108.981 73.576
3.28 110.552 74.263
3.29 110.898 75.224
3.30 111.717 75.891
3.31 113.833 76.078
3.32 114.631 75.967
3.33 112.921 75.778
3.34 117.205 75.557
3.35 124.070 75.438
3.36 107.964 75.292
3.37 106.490 74.896
3.38 107.273 74.635
3.39 108.122 74.613
3.40 110.213 74.593
3.41 110.869 74.354
3.42 113.313 73.909
3.43 115.157 73.340
3.44 115.523 72.606
3.45 117.811 71.775
3.46 125.652 71.241
3.47 132.133 71.494
3.48 140.860 72.565
3.49 146.917 73.662
3.50 152.910 74.308
3.51 159.262 74.625
3.52 162.651 74.553
3.53 164.891 73.472
3.54 164.648 70.907
3.55 158.543 66.698
3.56 154.186 61.220
3.57 147.708 57.808
3.58 156.354 57.193
3.59 --undefined-- 55.478
3.60 --undefined-- 55.062
3.61 --undefined-- 63.356
3.62 --undefined-- 70.661
3.63 139.618 74.652
3.64 123.516 76.379
3.65 115.889 76.785
3.66 111.484 76.483
3.67 110.441 76.058
3.68 110.200 75.505
3.69 110.625 74.906
3.70 110.916 74.535
3.71 110.565 74.316
3.72 110.272 74.156
3.73 109.533 73.948
3.74 109.412 73.765
3.75 109.846 73.845
3.76 111.078 74.337
3.77 112.605 75.013
3.78 113.633 75.271
3.79 113.577 74.733
3.80 110.227 73.436
3.81 105.759 71.381
3.82 102.371 68.634
3.83 103.261 67.630
3.84 114.639 70.284
3.85 121.270 73.669
3.86 122.300 75.986
3.87 119.958 76.941
3.88 116.640 76.925
3.89 113.073 76.418
3.90 111.981 75.791
3.91 110.363 75.376
3.92 109.749 74.972
3.93 107.356 74.294
3.94 110.681 73.777
3.95 111.971 73.746
3.96 112.757 73.892
3.97 112.172 73.937
3.98 112.711 74.272
3.99 116.331 75.308
4.00 111.641 76.156
4.01 110.278 76.301
4.02 107.355 75.980
4.03 106.888 75.493
4.04 105.420 74.946
4.05 104.075 74.350
4.06 101.272 73.668
4.07 100.461 72.724
4.08 97.956 71.507
4.09 95.416 70.136
4.10 93.484 68.500
4.11 91.306 66.489
4.12 85.827 64.162
4.13 84.731 62.224
4.14 82.072 61.323
4.15 82.487 60.770
4.16 85.925 59.673
4.17 --undefined-- 58.280
4.18 --undefined-- 56.771
4.19 --undefined-- 55.655
4.20 --undefined-- 57.674
4.21 --undefined-- 61.297
4.22 --undefined-- 63.795
4.23 --undefined-- 65.452
4.24 --undefined-- 65.991
4.25 --undefined-- 66.117
4.26 --undefined-- 70.005
4.27 --undefined-- 75.861
4.28 173.672 79.066
4.29 167.284 79.779
4.30 160.681 79.294
4.31 159.663 78.827
4.32 159.341 78.727
4.33 158.169 78.672
4.34 157.561 78.422
4.35 157.666 77.577
4.36 157.131 76.033
4.37 158.147 74.979
4.38 159.248 75.133
4.39 158.246 75.580
4.40 156.413 75.866
4.41 155.300 75.961
4.42 154.714 75.770
4.43 152.790 74.796
4.44 149.404 72.438
4.45 147.169 68.242
4.46 160.418 62.786
4.47 159.179 59.320
4.48 --undefined-- 60.335
4.49 --undefined-- 67.642
4.50 --undefined-- 73.289
4.51 123.206 75.400
4.52 122.035 74.919
4.53 113.828 73.746
4.54 112.933 73.408
4.55 115.616 73.921
4.56 120.442 74.852
4.57 124.385 75.556
4.58 131.469 75.993
4.59 135.580 75.690
4.60 133.425 73.716
4.61 140.269 70.698
4.62 141.975 67.759
4.63 142.559 64.776
4.64 137.534 63.666
4.65 136.256 68.495
4.66 152.489 73.952
4.67 139.980 76.884
4.68 126.536 77.673
4.69 119.944 77.410
4.70 116.671 76.934
4.71 113.528 76.337
4.72 111.691 75.944
4.73 111.010 75.819
4.74 110.348 75.890
4.75 110.494 76.119
4.76 111.238 76.245
4.77 111.094 75.581
4.78 104.651 73.155
4.79 104.991 68.779
4.80 107.042 64.048
4.81 106.751 59.557
4.82 --undefined-- 54.567
4.83 --undefined-- 52.419
4.84 --undefined-- 60.126
4.85 --undefined-- 67.439
4.86 --undefined-- 71.133
4.87 104.217 72.161
4.88 102.160 72.034
4.89 103.396 72.004
4.90 104.894 71.904
4.91 108.998 71.380
4.92 114.832 70.784
4.93 117.732 70.322
4.94 124.406 70.336
4.95 129.970 71.405
4.96 135.259 73.183
4.97 136.323 --undefined--
4.98 133.194 --undefined--
4.99 --undefined-- --undefined--
5.00 --undefined-- --undefined--
