Time Pitch Intensity
0.01 --undefined-- --undefined--
0.02 154.538 --undefined--
0.03 146.875 --undefined--
0.04 141.769 --undefined--
0.05 138.850 74.964
0.06 138.125 75.682
0.07 138.088 75.949
0.08 138.786 76.334
0.09 140.861 76.354
0.10 140.070 75.380
0.11 147.937 74.349
0.12 153.039 74.449
0.13 155.958 74.886
0.14 171.925 75.757
0.15 175.497 76.666
0.16 177.367 76.959
0.17 178.529 77.065
0.18 179.520 77.122
0.19 178.819 76.778
0.20 171.298 75.492
0.21 163.154 72.764
0.22 157.570 68.662
0.23 164.932 63.633
0.24 --undefined-- 58.560
0.25 --undefined-- 57.810
0.26 --undefined-- 62.508
0.27 --undefined-- 69.416
0.28 --undefined-- 73.691
0.29 --undefined-- 75.063
0.30 114.509 74.690
0.31 109.790 73.663
0.32 105.204 71.702
0.33 99.872 68.583
0.34 98.297 65.576
0.35 98.529 63.419
0.36 102.645 62.062
0.37 104.406 63.025
0.38 126.328 67.534
0.39 121.167 72.090
0.40 117.214 74.800
0.41 114.061 75.369
0.42 106.966 74.469
0.43 103.751 73.385
0.44 103.159 71.960
0.45 101.504 69.707
0.46 100.961 67.441
0.47 99.079 65.701
0.48 99.272 64.836
0.49 100.526 65.867
0.50 107.253 68.581
0.51 108.673 71.111
0.52 105.818 72.326
0.53 104.608 72.002
0.54 101.594 70.035
0.55 99.255 66.960
0.56 101.337 64.718
0.57 103.521 63.744
0.58 104.247 62.632
0.59 104.492 61.300
0.60 --undefined-- 61.423
0.61 --undefined-- 65.382
0.62 --undefined-- 69.046
0.63 99.770 70.357
0.64 106.049 70.250
0.65 108.323 70.220
0.66 111.349 70.798
0.67 114.990 72.046
0.68 118.222 73.554
0.69 120.574 74.672
0.70 123.620 74.961
0.71 128.202 74.725
0.72 131.570 74.251
0.73 131.989 73.262
0.74 132.878 71.887
0.75 135.319 69.650
0.76 135.748 65.698
0.77 --undefined-- 61.183
0.78 --undefined-- 60.297
0.79 --undefined-- 62.294
0.80 --undefined-- 63.455
0.81 --undefined-- 63.372
0.82 --undefined-- 63.219
0.83 --undefined-- 63.187
0.84 --undefined-- 63.208
0.85 --undefined-- 64.326
0.86 --undefined-- 65.306
0.87 --undefined-- 65.610
0.88 --undefined-- 65.604
0.89 --undefined-- 66.433
0.90 --undefined-- 71.621
0.91 197.145 75.785
0.92 196.202 76.812
0.93 187.592 75.937
0.94 183.979 75.410
0.95 181.148 75.696
0.96 178.653 76.039
0.97 176.664 76.232
0.98 175.104 76.533
0.99 174.184 76.839
1.00 173.889 76.928
1.01 175.019 76.935
1.02 176.227 76.964
1.03 176.569 76.806
1.04 176.323 76.224
1.05 175.433 75.357
1.06 177.655 74.787
1.07 178.588 74.702
1.08 178.722 74.773
1.09 178.316 74.786
1.10 177.470 74.664
1.11 176.366 74.248
1.12 172.822 73.153
1.13 167.091 70.985
1.14 161.987 67.697
1.15 163.264 63.579
1.16 171.868 58.775
1.17 --undefined-- 56.833
1.18 --undefined-- 61.932
1.19 --undefined-- 69.431
1.20 --undefined-- 74.226
1.21 171.580 76.098
1.22 167.541 76.453
1.23 162.246 76.803
1.24 162.235 76.801
1.25 162.467 75.438
1.26 162.626 73.335
1.27 163.858 72.463
1.28 164.856 72.658
1.29 164.326 73.182
1.30 163.418 74.024
1.31 163.404 74.946
1.32 164.510 75.462
1.33 165.139 75.458
1.34 163.611 75.032
1.35 160.246 74.289
1.36 157.882 73.619
1.37 159.088 73.566
1.38 157.474 73.888
1.39 154.695 74.351
1.40 152.035 74.938
1.41 149.502 75.435
1.42 147.029 75.429
1.43 144.277 74.486
1.44 141.060 72.165
1.45 135.757 68.085
1.46 129.386 62.938
1.47 136.853 59.825
1.48 138.941 58.367
1.49 --undefined-- 60.724
1.50 --undefined-- 67.930
1.51 --undefined-- 73.277
1.52 126.633 75.796
1.53 124.358 76.553
1.54 121.565 76.325
1.55 118.617 75.286
1.56 115.140 74.143
1.57 113.866 73.721
1.58 113.473 73.681
1.59 112.294 73.471
1.60 112.504 73.327
1.61 112.857 73.322
1.62 111.247 72.960
1.63 109.350 71.221
1.64 98.650 67.261
1.65 107.261 61.697
1.66 111.663 56.659
1.67 --undefined-- 52.072
1.68 --undefined-- 48.301
1.69 --undefined-- 49.651
1.70 --undefined-- 60.019
1.71 --undefined-- 67.242
1.72 --undefined-- 70.629
1.73 102.491 70.955
1.74 102.810 68.913
1.75 96.751 65.110
1.76 99.553 60.321
1.77 100.013 55.287
1.78 --undefined-- 51.670
1.79 --undefined-- 49.098
1.80 --undefined-- 45.562
1.81 --undefined-- 42.411
1.82 --undefined-- 41.301
1.83 --undefined-- 46.108
1.84 --undefined-- 55.338
1.85 --undefined-- 65.282
1.86 --undefined-- 72.652
1.87 --undefined-- 76.585
1.88 150.312 77.778
1.89 145.460 77.379
1.90 140.910 76.136
1.91 138.715 73.479
1.92 139.417 68.849
1.93 136.252 64.248
1.94 136.225 61.856
1.95 143.088 58.899
1.96 144.298 55.295
1.97 147.848 52.685
1.98 --undefined-- 52.432
1.99 --undefined-- 54.116
2.00 --undefined-- 58.949
2.01 --undefined-- 65.821
2.02 --undefined-- 70.362
2.03 105.556 72.735
2.04 102.246 73.580
2.05 101.057 73.404
2.06 101.472 72.932
2.07 103.886 72.526
2.08 104.963 72.173
2.09 107.702 72.231
2.10 112.824 72.805
2.11 116.381 73.170
2.12 122.058 73.129
2.13 127.364 73.447
2.14 130.806 74.207
2.15 134.107 74.616
2.16 135.857 74.065
2.17 136.177 72.348
2.18 138.825 69.676
2.19 139.729 66.073
2.20 --undefined-- 62.526
2.21 --undefined-- 61.995
2.22 --undefined-- 64.196
2.23 --undefined-- 69.876
2.24 139.903 73.859
2.25 137.946 74.653
2.26 118.095 73.201
2.27 112.761 71.566
2.28 104.126 70.751
2.29 97.832 70.114
2.30 93.414 69.657
2.31 91.126 69.420
2.32 92.246 68.889
2.33 95.996 68.012
2.34 96.811 67.242
2.35 92.825 66.997
2.36 100.287 67.459
2.37 --undefined-- 67.668
2.38 --undefined-- 67.495
2.39 --undefined-- 66.501
2.40 90.709 64.102
2.41 95.258 62.235
2.42 92.886 62.298
2.43 96.678 65.023
2.44 105.715 69.315
2.45 112.137 72.899
2.46 115.132 75.066
2.47 113.605 76.080
2.48 115.147 76.351
2.49 115.864 76.089
2.50 116.593 75.508
2.51 117.063 75.128
2.52 117.341 74.884
2.53 117.051 74.446
2.54 117.751 74.021
2.55 117.726 73.781
2.56 115.121 74.052
2.57 113.034 74.785
2.58 101.523 74.599
2.59 77.487 73.003
2.60 --undefined-- 70.260
2.61 --undefined-- 66.431
2.62 --undefined-- 64.341
2.63 --undefined-- 62.702
2.64 --undefined-- 61.389
2.65 --undefined-- 64.564
2.66 131.953 68.455
2.67 138.914 71.663
2.68 144.732 74.108
2.69 148.593 75.911
2.70 150.198 77.066
2.71 150.558 77.338
2.72 149.342 76.472
2.73 148.722 74.699
2.74 148.623 72.600
2.75 146.818 70.172
2.76 146.357 67.234
2.77 150.233 68.693
2.78 --undefined-- 74.562
2.79 --undefined-- 77.867
2.80 --undefined-- 78.709
2.81 124.089 78.515
2.82 120.825 78.337
2.83 118.511 77.628
2.84 118.128 76.169
2.85 116.839 75.247
2.86 116.417 75.373
2.87 115.904 75.564
2.88 116.789 75.614
2.89 117.656 75.684
2.90 117.939 75.645
2.91 117.012 75.082
2.92 115.654 73.192
2.93 105.320 69.178
2.94 109.291 63.447
2.95 108.540 58.306
2.96 108.402 55.660
2.97 115.127 60.550
2.98 --undefined-- 66.925
2.99 116.044 71.308
3.00 114.525 73.906
3.01 112.991 75.070
3.02 112.334 75.275
3.03 113.069 75.179
3.04 116.542 75.207
3.05 118.122 74.922
3.06 114.058 73.812
3.07 124.626 73.064
3.08 127.716 73.546
3.09 132.906 74.503
3.10 138.043 75.517
3.11 142.570 76.230
3.12 148.184 76.870
3.13 152.798 77.546
3.14 151.636 77.814
3.15 151.209 77.713
3.16 150.923 77.686
3.17 150.350 77.709
3.18 150.117 77.747
3.19 149.481 77.869
3.20 148.605 77.947
3.21 147.580 77.849
3.22 146.740 77.437
3.23 145.183 76.395
3.24 140.781 74.148
3.25 138.242 70.333
3.26 143.765 65.757
3.27 143.047 62.259
3.28 144.350 63.756
3.29 144.646 69.762
3.30 141.030 74.095
3.31 134.872 76.009
3.32 123.937 76.094
3.33 118.267 75.057
3.34 112.648 73.935
3.35 110.770 73.468
3.36 109.011 73.462
3.37 108.403 73.578
3.38 107.523 73.413
3.39 106.517 72.405
3.40 101.867 69.967
3.41 108.022 66.503
3.42 116.002 62.791
3.43 --undefined-- 58.549
3.44 --undefined-- 54.159
3.45 --undefined-- 55.818
3.46 --undefined-- 65.618
3.47 --undefined-- 72.173
3.48 157.805 75.345
3.49 151.606 76.053
3.50 145.570 75.511
3.51 145.332 74.919
3.52 146.158 75.006
3.53 148.113 75.745
3.54 149.825 76.385
3.55 151.420 76.662
3.56 152.637 76.826
3.57 152.363 77.007
3.58 150.917 77.051
3.59 149.982 77.003
3.60 149.235 76.929
3.61 146.802 76.349
3.62 144.096 74.538
3.63 144.841 71.622
3.64 148.021 68.624
3.65 149.236 65.275
3.66 150.430 60.950
3.67 149.283 56.635
3.68 --undefined-- 54.056
3.69 --undefined-- 55.029
3.70 --undefined-- 60.385
3.71 --undefined-- 68.745
3.72 135.039 73.880
3.73 133.838 75.825
3.74 125.884 75.832
3.75 121.112 75.588
3.76 118.668 75.714
3.77 116.775 75.500
3.78 114.216 74.753
3.79 118.317 74.588
3.80 125.182 75.367
3.81 129.999 76.545
3.82 133.295 77.610
3.83 137.597 78.261
3.84 143.928 78.298
3.85 145.746 77.401
3.86 145.928 76.267
3.87 146.659 76.446
3.88 148.554 77.172
3.89 149.458 77.165
3.90 147.651 76.206
3.91 146.025 74.259
3.92 147.335 71.138
3.93 149.335 66.795
3.94 147.945 62.264
3.95 148.237 59.754
3.96 148.680 57.723
3.97 148.434 55.275
3.98 148.071 53.616
3.99 --undefined-- 53.590
4.00 --undefined-- 54.510
4.01 --undefined-- 55.417
4.02 --undefined-- 56.025
4.03 --undefined-- 56.563
4.04 --undefined-- 56.781
4.05 --undefined-- 56.636
4.06 --undefined-- 56.641
4.07 --undefined-- 56.461
4.08 --undefined-- 56.025
4.09 --undefined-- 55.523
4.10 --undefined-- 54.934
4.11 --undefined-- 54.705
4.12 --undefined-- 54.902
4.13 --undefined-- 54.978
4.14 --undefined-- 54.276
4.15 --undefined-- 52.420
4.16 --undefined-- 49.286
4.17 --undefined-- 46.992
4.18 --undefined-- 48.419
4.19 --undefined-- 53.038
4.20 --undefined-- 57.975
4.21 --undefined-- 62.245
4.22 --undefined-- 67.136
4.23 --undefined-- 71.819
4.24 --undefined-- 74.066
4.25 127.167 73.896
4.26 125.209 73.216
4.27 121.042 73.421
4.28 117.963 73.962
4.29 119.135 74.700
4.30 117.922 75.332
4.31 117.184 75.869
4.32 116.792 76.317
4.33 116.539 76.224
4.34 116.677 75.366
4.35 115.938 74.178
4.36 116.889 73.779
4.37 121.045 73.925
4.38 124.000 73.973
4.39 127.889 74.349
4.40 133.386 75.340
4.41 139.778 76.430
4.42 147.709 77.303
4.43 161.585 78.018
4.44 161.804 78.409
4.45 160.309 78.358
4.46 160.705 77.675
4.47 161.386 76.338
4.48 162.896 74.955
4.49 165.416 74.347
4.50 167.376 74.924
4.51 168.121 75.784
4.52 168.350 76.023
4.53 168.412 75.937
4.54 167.933 76.271
4.55 165.672 77.100
4.56 164.082 77.824
4.57 162.997 78.046
4.58 161.896 77.801
4.59 161.654 77.242
4.60 161.528 76.392
4.61 160.318 75.258
4.62 156.884 73.642
4.63 149.636 71.450
4.64 145.116 69.374
4.65 150.535 68.062
4.66 156.474 66.601
4.67 160.523 65.025
4.68 162.628 67.373
4.69 --undefined-- 73.572
4.70 182.973 77.123
4.71 179.859 78.071
4.72 176.835 78.179
4.73 175.795 78.461
4.74 175.634 78.594
4.75 176.149 78.668
4.76 176.965 78.675
4.77 177.281 78.545
4.78 174.395 78.151
4.79 168.673 76.660
4.80 164.926 73.198
4.81 170.873 68.061
4.82 169.129 63.505
4.83 169.739 59.742
4.84 171.890 58.312
4.85 172.947 62.977
4.86 --undefined-- 70.446
4.87 --undefined-- 74.760
4.88 129.718 76.116
4.89 120.343 75.454
4.90 114.337 73.474
4.91 99.304 70.991
4.92 96.941 68.709
4.93 102.175 67.867
4.94 --undefined-- 68.477
4.95 --undefined-- 69.076
4.96 --undefined-- 69.578
4.97 97.883 70.188
4.98 105.050 71.344
4.99 110.377 72.860
5.00 114.722 --undefined--
5.01 120.944 --undefined--
5.02 --undefined-- --undefined--
5.03 --undefined-- --undefined--
