Time Pitch Intensity
0.01 --undefined-- --undefined--
0.02 --undefined-- --undefined--
0.03 --undefined-- --undefined--
0.04 --undefined-- --undefined--
0.05 --undefined-- 51.026
0.06 --undefined-- 60.748
0.07 226.342 69.613
0.08 219.437 74.886
0.09 209.087 77.286
0.10 204.891 78.433
0.11 201.278 79.266
0.12 197.057 79.648
0.13 193.976 79.471
0.14 193.391 78.752
0.15 196.227 77.627
0.16 197.104 76.826
0.17 194.932 76.753
0.18 192.785 76.620
0.19 190.744 75.462
0.20 188.423 72.198
0.21 164.284 66.207
0.22 174.652 58.301
0.23 --undefined-- 51.165
0.24 --undefined-- 47.380
0.25 --undefined-- 46.525
0.26 --undefined-- 47.145
0.27 --undefined-- 49.421
0.28 --undefined-- 57.668
0.29 --undefined-- 65.834
0.30 --undefined-- 70.566
0.31 138.260 72.363
0.32 125.336 72.470
0.33 118.995 72.389
0.34 117.438 72.147
0.35 117.195 71.367
0.36 120.014 71.259
0.37 130.351 72.297
0.38 139.599 73.123
0.39 145.969 73.373
0.40 152.208 72.954
0.41 162.244 72.053
0.42 171.978 71.673
0.43 176.933 72.062
0.44 177.110 72.185
0.45 171.261 70.951
0.46 160.132 67.807
0.47 148.670 62.246
0.48 --undefined-- 55.443
0.49 --undefined-- 52.562
0.50 --undefined-- 53.677
0.51 --undefined-- 61.799
0.52 149.938 68.101
0.53 137.326 71.424
0.54 131.411 72.397
0.55 114.368 71.753
0.56 108.658 70.797
0.57 105.612 70.526
0.58 104.795 70.576
0.59 103.916 70.568
0.60 102.627 70.274
0.61 102.429 69.692
0.62 101.719 68.934
0.63 100.831 68.215
0.64 100.515 67.753
0.65 101.359 67.425
0.66 102.063 66.755
0.67 105.658 65.414
0.68 93.460 63.107
0.69 85.285 59.544
0.70 --undefined-- 55.926
0.71 --undefined-- 54.503
0.72 --undefined-- 55.483
0.73 --undefined-- 56.663
0.74 --undefined-- 56.498
0.75 --undefined-- 54.683
0.76 --undefined-- 52.081
0.77 --undefined-- 53.979
0.78 --undefined-- 59.802
0.79 104.174 63.890
0.80 108.010 66.454
0.81 111.065 68.097
0.82 111.162 69.142
0.83 111.775 69.819
0.84 114.761 70.271
0.85 119.421 70.823
0.86 124.321 71.403
0.87 130.037 71.735
0.88 138.318 72.318
0.89 144.118 73.425
0.90 150.365 74.051
0.91 152.348 73.435
0.92 149.774 71.623
0.93 147.080 69.640
0.94 145.716 68.710
0.95 144.812 69.202
0.96 144.024 70.074
0.97 139.960 70.825
0.98 133.680 71.655
0.99 131.571 72.638
1.00 129.267 73.421
1.01 126.881 73.615
1.02 124.437 73.190
1.03 122.758 72.429
1.04 120.398 71.664
1.05 117.464 71.002
1.06 113.794 70.554
1.07 112.144 70.355
1.08 112.853 70.270
1.09 113.061 70.353
1.10 113.919 70.411
1.11 113.939 69.826
1.12 112.661 68.028
1.13 107.992 64.514
1.14 102.949 58.930
1.15 --undefined-- 51.332
1.16 --undefined-- 44.522
1.17 --undefined-- 42.551
1.18 --undefined-- 42.666
1.19 --undefined-- 43.747
1.20 --undefined-- 46.218
1.21 --undefined-- 53.919
1.22 --undefined-- 62.197
1.23 138.163 67.346
1.24 133.144 69.991
1.25 130.764 70.990
1.26 128.886 71.241
1.27 127.652 71.396
1.28 127.515 71.603
1.29 127.333 71.750
1.30 127.184 71.782
1.31 126.350 71.594
1.32 125.134 71.062
1.33 125.141 70.363
1.34 121.724 70.052
1.35 124.783 70.345
1.36 127.786 70.419
1.37 128.709 69.958
1.38 127.790 69.085
1.39 124.594 67.718
1.40 115.169 65.755
1.41 121.671 63.369
1.42 --undefined-- 59.722
1.43 --undefined-- 53.596
1.44 --undefined-- 48.168
1.45 --undefined-- 46.093
1.46 --undefined-- 44.218
1.47 --undefined-- 42.405
1.48 --undefined-- 40.810
1.49 --undefined-- 39.043
1.50 --undefined-- 38.175
1.51 --undefined-- 39.048
1.52 --undefined-- 40.540
1.53 --undefined-- 41.029
1.54 --undefined-- 39.400
1.55 --undefined-- 43.888
1.56 --undefined-- 53.465
1.57 138.410 59.777
1.58 126.656 63.629
1.59 119.449 66.159
1.60 117.612 67.726
1.61 117.196 68.560
1.62 118.295 68.986
1.63 119.997 69.413
1.64 127.546 70.044
1.65 128.344 70.584
1.66 129.580 71.226
1.67 134.376 72.371
1.68 138.923 73.708
1.69 142.454 74.789
1.70 146.056 75.439
1.71 149.608 75.557
1.72 153.612 75.151
1.73 157.652 74.613
1.74 160.663 74.488
1.75 163.011 74.795
1.76 165.144 75.040
1.77 167.865 74.801
1.78 173.091 73.823
1.79 179.439 72.409
1.80 181.268 71.192
1.81 182.646 70.062
1.82 181.471 68.207
1.83 168.293 64.801
1.84 157.979 59.845
1.85 159.831 54.204
1.86 --undefined-- 48.237
1.87 --undefined-- 46.004
1.88 --undefined-- 54.000
1.89 --undefined-- 61.119
1.90 198.747 67.651
1.91 190.893 72.610
1.92 178.044 75.481
1.93 169.920 76.908
1.94 165.610 77.438
1.95 163.021 77.596
1.96 161.287 77.711
1.97 160.644 77.379
1.98 160.290 76.351
1.99 158.591 74.658
2.00 157.278 72.293
2.01 153.978 69.080
2.02 151.540 65.474
2.03 --undefined-- 63.161
2.04 --undefined-- 61.697
2.05 --undefined-- 59.005
2.06 --undefined-- 54.216
2.07 --undefined-- 48.747
2.08 --undefined-- 44.657
2.09 --undefined-- 41.714
2.10 --undefined-- 39.061
2.11 --undefined-- 38.025
2.12 --undefined-- 38.289
2.13 --undefined-- 43.513
2.14 --undefined-- 55.648
2.15 --undefined-- 64.339
2.16 --undefined-- 69.060
2.17 --undefined-- 70.512
2.18 116.334 69.653
2.19 115.400 68.166
2.20 114.163 67.813
2.21 120.412 68.651
2.22 126.596 69.801
2.23 130.871 70.667
2.24 132.160 71.035
2.25 132.301 71.012
2.26 133.220 70.965
2.27 133.583 70.845
2.28 130.338 70.532
2.29 134.702 70.308
2.30 134.788 70.412
2.31 135.342 70.880
2.32 137.879 71.634
2.33 142.118 72.579
2.34 145.247 73.615
2.35 148.624 74.946
2.36 151.539 76.314
2.37 150.838 76.830
2.38 149.488 76.671
2.39 149.560 77.108
2.40 149.572 78.046
2.41 148.439 78.440
2.42 146.730 77.815
2.43 145.259 76.098
2.44 143.999 73.509
2.45 145.322 70.531
2.46 --undefined-- 67.230
2.47 85.678 63.371
2.48 87.028 59.134
2.49 --undefined-- 54.855
2.50 --undefined-- 49.576
2.51 --undefined-- 43.316
2.52 --undefined-- 40.769
2.53 --undefined-- 39.485
2.54 --undefined-- 38.504
2.55 --undefined-- 38.452
2.56 --undefined-- 38.516
2.57 --undefined-- 38.110
2.58 --undefined-- 38.202
2.59 --undefined-- 39.490
2.60 --undefined-- 39.929
2.61 --undefined-- 45.186
2.62 --undefined-- 57.311
2.63 --undefined-- 65.419
2.64 --undefined-- 70.148
2.65 180.913 72.738
2.66 176.730 73.999
2.67 175.426 73.929
2.68 174.351 71.806
2.69 --undefined-- 66.813
2.70 --undefined-- 58.600
2.71 --undefined-- 49.035
2.72 --undefined-- 43.399
2.73 --undefined-- 40.881
2.74 --undefined-- 40.204
2.75 --undefined-- 40.318
2.76 --undefined-- 44.380
2.77 --undefined-- 57.325
2.78 --undefined-- 66.782
2.79 --undefined-- 72.099
2.80 --undefined-- 74.274
2.81 --undefined-- 74.406
2.82 125.914 73.772
2.83 125.522 73.352
2.84 128.647 73.014
2.85 128.756 72.355
2.86 126.935 71.199
2.87 119.971 69.066
2.88 --undefined-- 65.136
2.89 --undefined-- 58.652
2.90 --undefined-- 49.897
2.91 --undefined-- 43.830
2.92 --undefined-- 43.377
2.93 --undefined-- 42.446
2.94 --undefined-- 39.858
2.95 --undefined-- 37.560
2.96 --undefined-- 41.859
2.97 --undefined-- 52.771
2.98 --undefined-- 60.336
2.99 --undefined-- 64.809
3.00 --undefined-- 68.301
3.01 154.488 71.009
3.02 151.570 72.268
3.03 150.799 72.370
3.04 151.780 72.011
3.05 157.164 71.830
3.06 158.678 71.908
3.07 157.843 72.020
3.08 155.117 72.041
3.09 151.014 71.880
3.10 147.539 71.476
3.11 142.838 70.711
3.12 136.100 69.635
3.13 129.061 68.511
3.14 125.602 68.039
3.15 113.414 68.401
3.16 110.411 68.419
3.17 106.544 68.092
3.18 105.756 67.953
3.19 104.892 67.910
3.20 104.387 67.747
3.21 105.249 67.860
3.22 107.300 68.743
3.23 109.036 69.609
3.24 112.222 69.904
3.25 116.501 70.249
3.26 120.460 70.741
3.27 125.269 70.668
3.28 133.377 70.128
3.29 135.194 69.811
3.30 135.808 69.644
3.31 135.340 68.908
3.32 134.659 66.942
3.33 --undefined-- 63.463
3.34 --undefined-- 59.041
3.35 --undefined-- 55.274
3.36 --undefined-- 51.286
3.37 --undefined-- 46.241
3.38 --undefined-- 43.263
3.39 --undefined-- 40.389
3.40 --undefined-- 38.536
3.41 --undefined-- 39.838
3.42 --undefined-- 39.760
3.43 --undefined-- 38.474
3.44 --undefined-- 39.329
3.45 --undefined-- 40.471
3.46 --undefined-- 40.176
3.47 --undefined-- 38.970
3.48 --undefined-- 37.900
3.49 --undefined-- 37.858
3.50 --undefined-- 38.959
3.51 --undefined-- 39.577
3.52 --undefined-- 38.151
3.53 --undefined-- 37.215
3.54 --undefined-- 38.136
3.55 --undefined-- 38.704
3.56 --undefined-- 41.003
3.57 --undefined-- 47.780
3.58 --undefined-- 56.782
3.59 --undefined-- 63.049
3.60 117.953 65.971
3.61 113.734 66.534
3.62 105.258 66.318
3.63 101.467 66.269
3.64 102.825 66.432
3.65 107.066 66.789
3.66 110.272 67.213
3.67 112.166 67.938
3.68 113.064 68.868
3.69 114.327 69.732
3.70 115.440 70.439
3.71 116.923 71.011
3.72 119.109 71.511
3.73 120.723 71.820
3.74 121.117 71.392
3.75 122.614 69.531
3.76 116.758 65.734
3.77 117.184 59.896
3.78 --undefined-- 53.022
3.79 --undefined-- 49.626
3.80 --undefined-- 50.373
3.81 --undefined-- 50.071
3.82 --undefined-- 52.221
3.83 --undefined-- 59.993
3.84 --undefined-- 65.072
3.85 122.925 66.967
3.86 106.412 66.868
3.87 103.421 66.722
3.88 101.873 67.426
3.89 102.150 68.286
3.90 111.329 69.021
3.91 117.765 69.981
3.92 120.886 70.658
3.93 129.385 70.913
3.94 136.503 71.259
3.95 140.671 70.851
3.96 143.275 68.265
3.97 --undefined-- 62.623
3.98 --undefined-- 54.245
3.99 --undefined-- 53.900
4.00 --undefined-- 63.494
4.01 --undefined-- 69.633
4.02 --undefined-- 72.596
4.03 --undefined-- 73.110
4.04 --undefined-- 72.333
4.05 102.351 71.122
4.06 91.185 69.241
4.07 --undefined-- 66.294
4.08 --undefined-- 61.860
4.09 --undefined-- 55.428
4.10 --undefined-- 47.375
4.11 --undefined-- 42.380
4.12 --undefined-- 45.602
4.13 --undefined-- 50.202
4.14 --undefined-- 52.721
4.15 --undefined-- 53.080
4.16 --undefined-- 51.586
4.17 --undefined-- 49.334
4.18 --undefined-- 48.362
4.19 --undefined-- 49.670
4.20 --undefined-- 52.834
4.21 --undefined-- 58.818
4.22 138.277 64.386
4.23 123.386 67.605
4.24 119.385 69.182
4.25 116.024 70.050
4.26 112.063 70.462
4.27 107.744 70.368
4.28 104.941 69.934
4.29 105.505 69.373
4.30 107.843 68.744
4.31 109.355 67.966
4.32 109.985 66.560
4.33 103.837 63.871
4.34 102.399 60.171
4.35 98.429 56.099
4.36 --undefined-- 52.220
4.37 --undefined-- 51.684
4.38 --undefined-- 55.951
4.39 --undefined-- 60.932
4.40 --undefined-- 66.272
4.41 --undefined-- 69.989
4.42 117.335 71.565
4.43 114.054 71.395
4.44 108.220 70.267
4.45 105.792 69.602
4.46 104.370 69.569
4.47 104.256 69.170
4.48 105.062 68.328
4.49 109.216 67.382
4.50 109.431 66.274
4.51 110.351 65.820
4.52 117.660 66.979
4.53 126.184 69.020
4.54 131.644 70.732
4.55 131.122 71.306
4.56 126.208 71.189
4.57 126.965 71.153
4.58 126.804 70.463
4.59 126.236 68.162
4.60 --undefined-- 63.617
4.61 --undefined-- 56.996
4.62 --undefined-- 49.904
4.63 --undefined-- 47.057
4.64 --undefined-- 48.027
4.65 --undefined-- 51.222
4.66 --undefined-- 53.207
4.67 --undefined-- 53.201
4.68 --undefined-- 53.255
4.69 --undefined-- 55.315
4.70 --undefined-- 57.191
4.71 --undefined-- 57.749
4.72 --undefined-- 59.815
4.73 --undefined-- 64.719
4.74 129.176 67.983
4.75 124.179 69.199
4.76 120.652 69.537
4.77 119.723 69.874
4.78 118.958 70.235
4.79 119.014 70.477
4.80 119.107 70.532
4.81 117.395 70.423
4.82 117.448 70.155
4.83 117.471 69.744
4.84 118.024 69.186
4.85 118.238 68.305
4.86 113.924 66.981
4.87 114.816 65.183
4.88 116.475 62.668
4.89 114.547 59.009
4.90 --undefined-- 54.703
4.91 --undefined-- 50.428
4.92 --undefined-- 47.796
4.93 --undefined-- 45.219
4.94 --undefined-- 41.649
4.95 --undefined-- 37.794
4.96 --undefined-- 36.347
4.97 --undefined-- 36.656
4.98 --undefined-- 36.957
4.99 --undefined-- 37.834
5.00 --undefined-- 40.578
5.01 --undefined-- 43.865
5.02 --undefined-- 44.108
5.03 --undefined-- 40.689
5.04 --undefined-- 35.937
5.05 --undefined-- 33.398
5.06 --undefined-- 33.823
5.07 --undefined-- 35.876
5.08 --undefined-- 37.081
5.09 --undefined-- 38.551
5.10 --undefined-- 39.908
5.11 --undefined-- 40.348
5.12 --undefined-- 39.373
5.13 --undefined-- 39.177
5.14 --undefined-- 40.060
5.15 --undefined-- 40.351
5.16 --undefined-- 40.092
5.17 --undefined-- 38.470
5.18 --undefined-- 36.006
5.19 --undefined-- 34.478
5.20 --undefined-- 34.973
5.21 --undefined-- 35.607
5.22 --undefined-- 35.195
5.23 --undefined-- 35.368
5.24 --undefined-- 36.746
5.25 --undefined-- 37.520
5.26 --undefined-- 37.453
5.27 --undefined-- 37.833
5.28 --undefined-- 38.328
5.29 --undefined-- 38.003
5.30 --undefined-- 37.380
5.31 --undefined-- 36.797
5.32 --undefined-- 35.708
5.33 --undefined-- 36.069
5.34 --undefined-- 37.799
5.35 --undefined-- 38.723
5.36 --undefined-- 38.283
5.37 --undefined-- 37.671
5.38 --undefined-- 37.496
5.39 --undefined-- 37.270
5.40 --undefined-- 37.065
5.41 --undefined-- 37.199
5.42 --undefined-- 37.413
5.43 --undefined-- 36.633
5.44 --undefined-- 35.883
5.45 --undefined-- 36.003
5.46 --undefined-- 36.823
5.47 --undefined-- 37.908
5.48 --undefined-- 38.436
5.49 --undefined-- 38.460
5.50 --undefined-- 38.607
5.51 --undefined-- 39.582
5.52 --undefined-- 40.217
5.53 --undefined-- 40.320
5.54 --undefined-- 41.003
5.55 --undefined-- 42.105
5.56 --undefined-- 42.662
5.57 --undefined-- 42.282
5.58 --undefined-- 41.579
5.59 --undefined-- 41.324
5.60 --undefined-- 41.995
5.61 --undefined-- 42.729
5.62 --undefined-- 42.758
5.63 --undefined-- 42.262
5.64 --undefined-- 41.462
5.65 --undefined-- 41.046
5.66 --undefined-- 41.264
5.67 --undefined-- 40.903
5.68 --undefined-- 42.483
5.69 --undefined-- 47.259
5.70 --undefined-- 49.198
5.71 --undefined-- 47.310
5.72 --undefined-- 43.074
5.73 --undefined-- 40.890
5.74 --undefined-- 39.083
5.75 --undefined-- 37.231
5.76 --undefined-- 37.878
5.77 --undefined-- 43.921
5.78 --undefined-- 55.841
5.79 --undefined-- 65.490
5.80 --undefined-- 71.507
5.81 199.881 74.597
5.82 201.695 75.730
5.83 204.717 75.884
5.84 207.550 75.800
5.85 209.094 75.864
5.86 210.081 76.017
5.87 210.782 76.095
5.88 211.307 76.045
5.89 211.542 75.841
5.90 211.024 75.518
5.91 209.969 75.150
5.92 209.568 74.711
5.93 210.241 74.125
5.94 211.237 73.416
5.95 212.235 72.596
5.96 212.782 71.707
5.97 211.982 70.652
5.98 208.032 69.271
5.99 202.085 67.265
6.00 189.961 64.655
6.01 181.390 62.448
6.02 83.603 61.414
6.03 80.541 61.170
6.04 75.181 62.370
6.05 --undefined-- 64.709
6.06 --undefined-- 66.933
6.07 124.306 68.496
6.08 119.485 69.288
6.09 114.715 69.473
6.10 111.924 69.088
6.11 110.147 67.986
6.12 107.133 66.816
6.13 110.293 66.921
6.14 113.719 67.775
6.15 115.578 68.342
6.16 116.348 68.326
6.17 116.079 67.506
6.18 114.626 65.439
6.19 114.063 62.257
6.20 --undefined-- 61.719
6.21 --undefined-- 63.069
6.22 --undefined-- 65.679
6.23 142.421 70.387
6.24 137.548 73.421
6.25 131.202 74.691
6.26 128.514 75.006
6.27 127.773 74.969
6.28 128.548 74.754
6.29 129.802 74.166
6.30 130.300 73.380
6.31 129.913 72.631
6.32 128.395 71.689
6.33 125.711 70.377
6.34 122.728 69.111
6.35 119.166 69.068
6.36 118.907 --undefined--
6.37 118.708 --undefined--
6.38 --undefined-- --undefined--
6.39 --undefined-- --undefined--
