Time Pitch Intensity
0.01 --undefined-- --undefined--
0.02 106.842 --undefined--
0.03 107.465 --undefined--
0.04 107.673 --undefined--
0.05 108.468 71.438
0.06 109.498 71.423
0.07 110.527 71.347
0.08 111.372 71.222
0.09 111.928 71.157
0.10 111.693 71.214
0.11 110.917 71.357
0.12 109.311 71.533
0.13 108.223 71.738
0.14 107.256 71.949
0.15 106.344 72.100
0.16 105.164 72.129
0.17 103.653 71.999
0.18 103.202 71.827
0.19 104.246 71.817
0.20 105.324 71.854
0.21 104.723 71.306
0.22 104.247 69.753
0.23 106.288 67.188
0.24 105.632 64.100
0.25 107.450 61.260
0.26 117.084 60.338
0.27 118.510 62.851
0.28 118.613 66.241
0.29 116.823 68.836
0.30 115.765 70.505
0.31 114.673 71.423
0.32 113.799 71.606
0.33 111.444 70.876
0.34 106.752 69.585
0.35 105.948 69.115
0.36 110.578 70.390
0.37 113.050 72.074
0.38 112.413 72.711
0.39 107.120 72.262
0.40 104.545 71.965
0.41 103.082 71.932
0.42 102.274 71.687
0.43 101.494 71.294
0.44 100.870 70.792
0.45 100.949 70.320
0.46 100.466 69.986
0.47 100.340 69.755
0.48 100.771 69.676
0.49 101.753 69.697
0.50 101.591 69.641
0.51 101.200 69.552
0.52 101.942 69.948
0.53 101.476 70.948
0.54 101.441 71.839
0.55 104.009 72.426
0.56 105.557 72.803
0.57 106.971 72.865
0.58 110.321 72.781
0.59 114.593 72.546
0.60 117.841 71.531
0.61 118.216 69.374
0.62 119.224 66.258
0.63 113.048 61.813
0.64 --undefined-- 55.735
0.65 --undefined-- 48.460
0.66 --undefined-- 43.649
0.67 --undefined-- 44.439
0.68 --undefined-- 45.798
0.69 --undefined-- 46.306
0.70 --undefined-- 46.674
0.71 --undefined-- 47.412
0.72 --undefined-- 48.005
0.73 --undefined-- 48.168
0.74 --undefined-- 47.176
0.75 --undefined-- 44.934
0.76 --undefined-- 42.196
0.77 --undefined-- 40.837
0.78 --undefined-- 40.474
0.79 --undefined-- 39.128
0.80 --undefined-- 40.814
0.81 --undefined-- 44.455
0.82 --undefined-- 53.397
0.83 --undefined-- 61.753
0.84 --undefined-- 66.643
0.85 174.020 69.697
0.86 175.416 72.551
0.87 175.199 75.508
0.88 164.648 77.760
0.89 155.510 78.499
0.90 147.650 77.641
0.91 140.897 75.766
0.92 138.851 73.103
0.93 121.713 69.325
0.94 111.340 64.273
0.95 98.204 58.288
0.96 --undefined-- 51.630
0.97 --undefined-- 45.906
0.98 --undefined-- 43.506
0.99 --undefined-- 42.961
1.00 --undefined-- 44.218
1.01 --undefined-- 46.825
1.02 --undefined-- 48.761
1.03 --undefined-- 49.367
1.04 --undefined-- 48.583
1.05 --undefined-- 45.793
1.06 --undefined-- 43.689
1.07 --undefined-- 45.126
1.08 --undefined-- 45.703
1.09 --undefined-- 52.001
1.10 --undefined-- 62.036
1.11 228.404 68.138
1.12 216.253 71.050
1.13 215.304 72.575
1.14 223.300 74.276
1.15 230.001 75.805
1.16 238.339 76.735
1.17 245.021 77.085
1.18 250.094 77.130
1.19 253.664 77.153
1.20 257.909 77.175
1.21 274.418 77.260
1.22 284.314 78.116
1.23 284.826 79.400
1.24 285.628 79.980
1.25 285.346 79.712
1.26 282.376 78.970
1.27 276.535 78.385
1.28 265.850 78.258
1.29 242.555 77.295
1.30 219.684 73.924
1.31 212.194 67.573
1.32 --undefined-- 61.896
1.33 --undefined-- 63.313
1.34 217.171 69.944
1.35 210.442 75.682
1.36 191.150 78.446
1.37 177.217 78.840
1.38 166.422 77.628
1.39 159.717 75.309
1.40 173.062 72.945
1.41 190.195 72.267
1.42 186.734 72.054
1.43 184.469 70.878
1.44 174.632 69.883
1.45 147.199 70.877
1.46 145.925 72.042
1.47 149.645 72.429
1.48 156.160 72.694
1.49 162.987 73.255
1.50 171.058 74.100
1.51 175.227 75.593
1.52 182.542 77.205
1.53 189.261 78.136
1.54 193.554 78.253
1.55 197.589 77.509
1.56 202.140 75.803
1.57 206.700 73.786
1.58 207.799 72.817
1.59 205.898 72.902
1.60 204.892 73.469
1.61 205.295 74.163
1.62 205.225 74.676
1.63 203.951 75.075
1.64 201.980 75.474
1.65 201.103 75.377
1.66 198.136 74.051
1.67 187.826 71.289
1.68 171.309 67.750
1.69 166.321 64.737
1.70 165.919 64.665
1.71 175.433 69.640
1.72 177.520 74.621
1.73 174.155 77.686
1.74 162.254 79.077
1.75 153.274 79.415
1.76 150.300 79.229
1.77 147.610 78.787
1.78 144.369 78.143
1.79 142.615 77.500
1.80 141.680 77.127
1.81 142.484 76.792
1.82 144.259 76.227
1.83 147.979 76.021
1.84 153.114 76.164
1.85 162.226 76.029
1.86 173.814 75.869
1.87 183.299 76.019
1.88 194.569 76.332
1.89 201.452 77.196
1.90 204.195 78.337
1.91 205.681 78.776
1.92 207.063 78.175
1.93 206.803 76.816
1.94 204.861 75.449
1.95 205.047 74.876
1.96 202.188 75.209
1.97 197.235 75.905
1.98 191.957 76.484
1.99 188.352 76.815
2.00 186.321 76.984
2.01 183.135 76.983
2.02 181.182 76.704
2.03 179.350 76.416
2.04 176.693 76.661
2.05 175.767 77.513
2.06 174.747 78.411
2.07 173.218 78.773
2.08 171.258 78.575
2.09 169.202 78.024
2.10 167.489 77.323
2.11 167.251 76.901
2.12 168.024 77.051
2.13 169.014 77.548
2.14 170.509 77.982
2.15 171.833 78.171
2.16 172.622 78.160
2.17 172.954 78.077
2.18 173.629 78.051
2.19 174.344 78.096
2.20 174.696 78.170
2.21 174.794 78.146
2.22 173.937 77.825
2.23 172.430 77.399
2.24 171.208 77.633
2.25 171.337 78.327
2.26 167.022 78.787
2.27 166.436 79.467
2.28 166.504 79.978
2.29 166.453 79.527
2.30 165.944 78.258
2.31 164.930 76.786
2.32 165.887 75.096
2.33 165.016 72.743
2.34 159.697 70.039
2.35 159.601 68.242
2.36 160.703 68.425
2.37 168.417 70.828
2.38 174.782 73.329
2.39 177.382 74.745
2.40 176.312 75.084
2.41 172.987 74.135
2.42 170.928 72.324
2.43 171.103 71.233
2.44 168.708 70.990
2.45 164.887 70.874
2.46 160.655 70.794
2.47 156.477 70.945
2.48 154.591 71.989
2.49 153.267 74.404
2.50 149.766 76.188
2.51 147.365 76.346
2.52 146.451 75.587
2.53 145.977 74.516
2.54 140.378 73.340
2.55 143.523 72.722
2.56 144.607 72.503
2.57 143.560 72.274
2.58 140.276 71.877
2.59 135.137 71.078
2.60 130.602 69.677
2.61 125.313 67.505
2.62 118.292 67.052
2.63 145.480 70.663
2.64 135.574 73.583
2.65 125.508 74.999
2.66 120.885 75.883
2.67 115.305 76.573
2.68 113.611 76.701
2.69 110.969 76.231
2.70 110.349 75.581
2.71 110.125 75.177
2.72 110.534 75.144
2.73 111.265 75.207
2.74 113.241 75.131
2.75 117.195 75.112
2.76 120.469 75.456
2.77 121.361 75.435
2.78 124.661 74.612
2.79 128.463 73.544
2.80 129.224 72.444
2.81 130.592 71.802
2.82 136.010 72.539
2.83 141.977 74.235
2.84 144.735 75.538
2.85 138.482 76.002
2.86 138.457 76.361
2.87 139.961 76.804
2.88 140.384 76.768
2.89 139.841 76.268
2.90 139.183 75.770
2.91 138.323 75.537
2.92 137.229 75.419
2.93 136.389 75.268
2.94 136.096 75.116
2.95 136.023 75.130
2.96 135.752 75.329
2.97 134.368 75.337
2.98 132.908 74.677
2.99 133.684 73.580
3.00 134.862 73.074
3.01 135.120 73.400
3.02 135.084 74.237
3.03 135.713 75.210
3.04 135.056 75.569
3.05 133.069 75.499
3.06 132.207 75.771
3.07 131.612 76.148
3.08 131.285 76.356
3.09 130.727 76.611
3.10 129.739 76.949
3.11 129.425 77.170
3.12 129.434 77.130
3.13 129.370 76.706
3.14 129.777 75.676
3.15 130.375 74.015
3.16 130.670 72.084
3.17 130.560 70.403
3.18 128.509 68.879
3.19 126.962 66.786
3.20 126.200 63.672
3.21 125.304 59.612
3.22 --undefined-- 55.104
3.23 --undefined-- 52.117
3.24 --undefined-- 54.724
3.25 211.570 60.548
3.26 192.312 66.188
3.27 186.003 69.996
3.28 188.336 71.622
3.29 189.603 71.826
3.30 198.697 71.984
3.31 201.601 72.204
3.32 204.956 72.307
3.33 209.851 72.667
3.34 215.288 73.266
3.35 219.253 73.840
3.36 222.565 74.362
3.37 224.737 74.881
3.38 225.396 75.289
3.39 224.386 75.463
3.40 222.770 75.449
3.41 221.295 75.320
3.42 219.838 75.084
3.43 218.459 74.777
3.44 216.994 74.470
3.45 216.558 74.268
3.46 216.632 74.150
3.47 216.256 74.001
3.48 216.004 73.864
3.49 216.143 73.856
3.50 216.675 73.971
3.51 217.442 74.138
3.52 217.930 74.245
3.53 217.948 74.194
3.54 217.849 74.011
3.55 217.390 73.807
3.56 216.796 73.650
3.57 216.140 73.489
3.58 214.379 73.261
3.59 212.134 72.999
3.60 208.921 72.613
3.61 204.103 71.956
3.62 196.490 71.083
3.63 191.048 70.734
3.64 186.228 71.602
3.65 178.689 72.938
3.66 177.446 74.259
3.67 175.324 75.710
3.68 172.202 76.965
3.69 169.530 77.534
3.70 166.448 77.494
3.71 163.936 77.106
3.72 160.928 76.218
3.73 157.043 74.339
3.74 150.654 71.151
3.75 148.964 67.288
3.76 149.915 65.482
3.77 160.480 68.337
3.78 173.651 72.178
3.79 180.961 74.464
3.80 185.776 75.135
3.81 188.337 74.884
3.82 190.789 74.579
3.83 193.892 74.745
3.84 196.318 75.371
3.85 196.232 75.751
3.86 193.545 74.872
3.87 192.479 72.132
3.88 193.437 68.065
3.89 188.544 64.712
3.90 180.218 61.957
3.91 179.262 59.271
3.92 186.719 57.276
3.93 194.723 55.526
3.94 --undefined-- 58.320
3.95 --undefined-- 66.723
3.96 207.579 72.889
3.97 197.787 75.802
3.98 188.983 76.226
3.99 180.932 75.910
4.00 176.173 76.404
4.01 172.323 77.341
4.02 169.932 78.134
4.03 168.006 78.729
4.04 166.063 79.184
4.05 164.469 79.494
4.06 163.382 79.615
4.07 162.654 79.580
4.08 161.851 79.463
4.09 160.679 79.284
4.10 159.764 79.050
4.11 159.290 78.843
4.12 158.966 78.706
4.13 158.766 78.603
4.14 158.833 78.499
4.15 158.770 78.453
4.16 158.882 78.535
4.17 159.025 78.699
4.18 159.309 78.906
4.19 159.100 79.022
4.20 157.555 78.438
4.21 155.711 76.212
4.22 152.331 71.906
4.23 150.485 66.667
4.24 147.808 62.905
4.25 --undefined-- 61.533
4.26 --undefined-- 62.845
4.27 169.875 66.505
4.28 167.580 71.120
4.29 161.134 75.143
4.30 158.804 77.843
4.31 155.157 79.444
4.32 151.506 79.989
4.33 147.674 79.371
4.34 141.314 77.943
4.35 137.939 76.805
4.36 131.928 76.200
4.37 128.712 75.680
4.38 124.328 75.443
4.39 121.708 75.376
4.40 120.619 75.168
4.41 120.285 74.734
4.42 120.147 74.248
4.43 120.362 73.816
4.44 120.611 73.454
4.45 121.336 73.020
4.46 121.295 72.319
4.47 121.209 71.534
4.48 124.487 71.553
4.49 126.480 72.832
4.50 126.864 74.613
4.51 127.256 75.706
4.52 124.485 75.943
4.53 123.021 76.189
4.54 122.442 76.259
4.55 122.323 75.591
4.56 123.536 74.505
4.57 126.282 73.258
4.58 121.450 70.913
4.59 114.487 66.562
4.60 111.818 59.763
4.61 --undefined-- 51.544
4.62 --undefined-- 47.889
4.63 --undefined-- 54.771
4.64 --undefined-- 64.421
4.65 --undefined-- 70.725
4.66 --undefined-- 74.167
4.67 124.969 75.703
4.68 124.294 76.076
4.69 125.582 75.804
4.70 129.974 75.227
4.71 139.685 74.343
4.72 146.944 73.376
4.73 151.772 72.716
4.74 157.734 72.677
4.75 160.215 72.633
4.76 162.575 71.665
4.77 162.754 69.181
4.78 158.648 65.235
4.79 159.264 61.060
4.80 167.455 56.798
4.81 --undefined-- 51.370
4.82 --undefined-- 55.781
4.83 --undefined-- 65.861
4.84 --undefined-- 72.096
4.85 195.789 75.232
4.86 189.888 76.317
4.87 187.360 76.692
4.88 185.168 76.849
4.89 183.425 76.848
4.90 182.608 76.801
4.91 182.456 76.696
4.92 181.869 76.596
4.93 181.008 76.685
4.94 180.294 76.919
4.95 179.916 77.082
4.96 178.963 77.040
4.97 177.824 76.521
4.98 176.721 75.364
4.99 174.964 74.105
5.00 172.772 73.401
5.01 168.436 72.705
5.02 160.197 71.206
5.03 152.324 --undefined--
5.04 149.907 --undefined--
5.05 --undefined-- --undefined--
5.06 --undefined-- --undefined--
