Time Pitch Intensity
0.01 --undefined-- --undefined--
0.02 117.555 --undefined--
0.03 117.314 --undefined--
0.04 119.027 --undefined--
0.05 119.943 67.125
0.06 128.219 68.933
0.07 129.840 68.654
0.08 130.102 65.738
0.09 --undefined-- 59.911
0.10 --undefined-- 51.399
0.11 --undefined-- 48.296
0.12 --undefined-- 53.947
0.13 --undefined-- 60.999
0.14 --undefined-- 66.248
0.15 --undefined-- 69.106
0.16 --undefined-- 69.978
0.17 --undefined-- 68.907
0.18 111.208 65.598
0.19 112.284 60.272
0.20 114.996 55.308
0.21 116.719 53.845
0.22 118.357 53.916
0.23 120.754 54.541
0.24 122.944 55.237
0.25 124.333 55.404
0.26 125.435 54.935
0.27 124.715 54.599
0.28 --undefined-- 57.830
0.29 --undefined-- 61.222
0.30 --undefined-- 61.371
0.31 --undefined-- 60.897
0.32 --undefined-- 64.906
0.33 --undefined-- 69.541
0.34 --undefined-- 72.413
0.35 --undefined-- 73.386
0.36 --undefined-- 73.110
0.37 107.100 72.382
0.38 106.977 71.359
0.39 107.199 70.355
0.40 108.586 69.782
0.41 110.125 69.451
0.42 110.988 68.979
0.43 111.746 68.044
0.44 113.063 66.452
0.45 113.888 65.087
0.46 118.111 65.550
0.47 119.077 67.161
0.48 118.717 68.002
0.49 118.569 67.625
0.50 119.399 66.167
0.51 119.744 63.686
0.52 117.431 60.159
0.53 --undefined-- 54.959
0.54 --undefined-- 48.379
0.55 --undefined-- 47.186
0.56 --undefined-- 52.840
0.57 --undefined-- 58.454
0.58 --undefined-- 63.945
0.59 --undefined-- 67.948
0.60 --undefined-- 69.609
0.61 --undefined-- 69.173
0.62 98.573 67.392
0.63 96.188 65.045
0.64 93.242 62.440
0.65 90.163 59.319
0.66 87.345 56.170
0.67 86.928 54.237
0.68 87.737 53.804
0.69 90.340 54.818
0.70 93.839 56.993
0.71 96.707 59.094
0.72 98.420 60.502
0.73 97.856 61.004
0.74 97.214 60.807
0.75 97.389 60.461
0.76 97.774 60.129
0.77 97.859 59.236
0.78 96.695 56.724
0.79 --undefined-- 51.435
0.80 --undefined-- 43.358
0.81 --undefined-- 38.980
0.82 --undefined-- 37.657
0.83 --undefined-- 35.888
0.84 --undefined-- 43.725
0.85 --undefined-- 53.567
0.86 --undefined-- 61.242
0.87 --undefined-- 67.105
0.88 --undefined-- 70.389
0.89 94.714 71.184
0.90 90.711 70.127
0.91 87.262 67.942
0.92 84.366 65.112
0.93 84.426 62.553
0.94 84.303 61.085
0.95 88.624 60.209
0.96 90.097 59.177
0.97 92.201 58.580
0.98 92.319 58.679
0.99 90.730 58.441
1.00 94.052 57.347
1.01 93.885 55.404
1.02 --undefined-- 52.411
1.03 --undefined-- 48.150
1.04 --undefined-- 43.359
1.05 --undefined-- 39.588
1.06 --undefined-- 38.133
1.07 --undefined-- 37.880
1.08 --undefined-- 38.973
1.09 --undefined-- 46.879
1.10 --undefined-- 53.279
1.11 --undefined-- 56.857
1.12 --undefined-- 62.598
1.13 --undefined-- 67.868
1.14 --undefined-- 70.248
1.15 123.647 70.381
1.16 122.048 69.248
1.17 120.559 67.342
1.18 120.366 64.753
1.19 119.261 62.319
1.20 115.700 61.332
1.21 117.177 60.536
1.22 107.551 59.003
1.23 107.347 56.983
1.24 --undefined-- 55.557
1.25 --undefined-- 57.644
1.26 112.481 61.276
1.27 111.946 63.474
1.28 112.409 64.454
1.29 116.121 66.004
1.30 118.532 68.200
1.31 118.816 69.522
1.32 118.970 69.618
1.33 116.520 68.662
1.34 111.884 66.622
1.35 112.207 63.924
1.36 111.465 61.172
1.37 110.089 58.388
1.38 --undefined-- 55.325
1.39 --undefined-- 50.972
1.40 --undefined-- 54.163
1.41 --undefined-- 61.868
1.42 --undefined-- 65.278
1.43 --undefined-- 64.862
1.44 --undefined-- 63.129
1.45 99.339 64.014
1.46 98.246 64.936
1.47 97.369 64.159
1.48 94.706 61.421
1.49 --undefined-- 56.926
1.50 --undefined-- 51.188
1.51 --undefined-- 45.205
1.52 --undefined-- 53.426
1.53 --undefined-- 63.169
1.54 --undefined-- 68.790
1.55 --undefined-- 70.814
1.56 --undefined-- 69.642
1.57 --undefined-- 65.754
1.58 --undefined-- 60.951
1.59 --undefined-- 62.086
1.60 128.723 66.111
1.61 127.035 68.291
1.62 125.570 68.301
1.63 116.934 66.299
1.64 111.008 63.121
1.65 105.460 60.276
1.66 104.495 58.037
1.67 95.302 56.636
1.68 98.822 56.504
1.69 89.401 57.061
1.70 91.879 58.090
1.71 --undefined-- 59.876
1.72 --undefined-- 62.664
1.73 --undefined-- 64.967
1.74 --undefined-- 65.884
1.75 --undefined-- 66.018
1.76 --undefined-- 66.189
1.77 --undefined-- 66.598
1.78 --undefined-- 66.274
1.79 --undefined-- 64.284
1.80 --undefined-- 61.434
1.81 --undefined-- 59.144
1.82 --undefined-- 56.990
1.83 --undefined-- 54.427
1.84 --undefined-- 51.957
1.85 --undefined-- 48.924
1.86 --undefined-- 46.854
1.87 --undefined-- 45.486
1.88 --undefined-- 41.985
1.89 --undefined-- 38.931
1.90 --undefined-- 38.577
1.91 --undefined-- 39.232
1.92 --undefined-- 38.617
1.93 --undefined-- 37.347
1.94 --undefined-- 38.089
1.95 --undefined-- 40.005
1.96 --undefined-- 41.631
1.97 --undefined-- 41.940
1.98 --undefined-- 41.249
1.99 --undefined-- 40.804
2.00 --undefined-- 40.850
2.01 --undefined-- 41.805
2.02 --undefined-- 43.384
2.03 --undefined-- 44.410
2.04 --undefined-- 45.102
2.05 --undefined-- 45.543
2.06 --undefined-- 45.782
2.07 --undefined-- 46.254
2.08 --undefined-- 46.237
2.09 --undefined-- 46.078
2.10 --undefined-- 46.431
2.11 --undefined-- 46.506
2.12 --undefined-- 46.833
2.13 --undefined-- 47.577
2.14 --undefined-- 47.884
2.15 --undefined-- 47.997
2.16 --undefined-- 48.340
2.17 --undefined-- 48.359
2.18 --undefined-- 47.963
2.19 --undefined-- 47.605
2.20 --undefined-- 47.321
2.21 --undefined-- 47.444
2.22 --undefined-- 47.410
2.23 --undefined-- 46.833
2.24 --undefined-- 46.275
2.25 --undefined-- 45.546
2.26 --undefined-- 44.652
2.27 --undefined-- 43.918
2.28 --undefined-- 43.877
2.29 --undefined-- 45.847
2.30 --undefined-- 47.893
2.31 --undefined-- 47.351
2.32 --undefined-- 43.599
2.33 --undefined-- 38.718
2.34 --undefined-- 41.871
2.35 --undefined-- 47.692
2.36 --undefined-- 50.659
2.37 --undefined-- 54.133
2.38 --undefined-- 61.156
2.39 --undefined-- 65.948
2.40 --undefined-- 67.406
2.41 --undefined-- 65.626
2.42 --undefined-- 60.854
2.43 101.358 55.644
2.44 105.513 55.221
2.45 108.148 56.312
2.46 109.835 57.099
2.47 111.202 57.726
2.48 112.417 58.178
2.49 113.937 58.351
2.50 112.993 58.142
2.51 115.780 57.881
2.52 117.321 58.192
2.53 118.183 58.971
2.54 121.235 60.066
2.55 121.246 60.830
2.56 121.400 61.099
2.57 121.536 61.093
2.58 121.552 60.780
2.59 122.874 60.334
2.60 123.423 59.704
2.61 122.245 58.442
2.62 119.211 55.975
2.63 --undefined-- 52.037
2.64 --undefined-- 47.766
2.65 --undefined-- 48.742
2.66 --undefined-- 53.583
2.67 --undefined-- 58.208
2.68 --undefined-- 63.907
2.69 145.516 69.049
2.70 144.747 71.793
2.71 133.107 72.314
2.72 130.527 71.707
2.73 126.777 71.368
2.74 123.879 71.412
2.75 121.568 71.312
2.76 119.492 70.842
2.77 117.348 70.016
2.78 115.623 68.657
2.79 --undefined-- 65.901
2.80 --undefined-- 61.003
2.81 --undefined-- 54.563
2.82 --undefined-- 48.995
2.83 --undefined-- 45.393
2.84 --undefined-- 45.649
2.85 --undefined-- 49.341
2.86 --undefined-- 54.404
2.87 --undefined-- 62.522
2.88 --undefined-- 68.390
2.89 118.623 71.016
2.90 100.444 71.142
2.91 98.638 69.830
2.92 93.906 68.109
2.93 94.315 66.445
2.94 98.288 64.952
2.95 103.010 63.947
2.96 107.380 63.686
2.97 110.283 62.708
2.98 111.446 59.578
2.99 117.002 54.849
3.00 122.975 52.182
3.01 118.065 51.123
3.02 --undefined-- 48.904
3.03 --undefined-- 45.966
3.04 --undefined-- 49.675
3.05 --undefined-- 58.637
3.06 --undefined-- 65.091
3.07 --undefined-- 68.444
3.08 110.662 69.407
3.09 104.925 68.686
3.10 102.446 66.672
3.11 101.029 64.310
3.12 100.906 63.017
3.13 99.325 62.223
3.14 99.531 60.897
3.15 --undefined-- 58.263
3.16 --undefined-- 53.313
3.17 --undefined-- 46.176
3.18 --undefined-- 48.722
3.19 --undefined-- 56.892
3.20 --undefined-- 63.746
3.21 --undefined-- 68.471
3.22 --undefined-- 70.545
3.23 97.017 70.304
3.24 94.073 68.817
3.25 96.302 67.162
3.26 98.894 65.601
3.27 100.828 63.888
3.28 105.571 61.046
3.29 104.715 56.577
3.30 103.224 52.502
3.31 103.390 49.899
3.32 --undefined-- 47.027
3.33 --undefined-- 43.855
3.34 --undefined-- 40.784
3.35 --undefined-- 38.855
3.36 --undefined-- 38.361
3.37 --undefined-- 38.009
3.38 --undefined-- 47.057
3.39 --undefined-- 56.699
3.40 --undefined-- 62.672
3.41 --undefined-- 66.770
3.42 --undefined-- 69.514
3.43 --undefined-- 70.227
3.44 122.696 69.337
3.45 120.042 67.812
3.46 116.263 65.600
3.47 117.123 62.579
3.48 120.030 59.965
3.49 119.817 59.048
3.50 119.374 58.615
3.51 118.482 57.869
3.52 117.770 56.820
3.53 116.825 55.695
3.54 117.865 54.992
3.55 119.756 55.059
3.56 121.454 55.558
3.57 120.452 55.413
3.58 118.648 53.697
3.59 --undefined-- 49.975
3.60 --undefined-- 45.356
3.61 --undefined-- 50.463
3.62 --undefined-- 58.237
3.63 --undefined-- 65.190
3.64 --undefined-- 70.513
3.65 --undefined-- 72.818
3.66 --undefined-- 72.422
3.67 --undefined-- 70.609
3.68 95.510 68.774
3.69 95.722 67.040
3.70 95.617 65.070
3.71 95.622 63.386
3.72 97.390 62.456
3.73 98.948 61.261
3.74 100.822 59.617
3.75 102.507 58.202
3.76 104.166 57.170
3.77 106.331 56.024
3.78 109.325 54.647
3.79 111.735 54.712
3.80 113.160 58.907
3.81 112.131 63.197
3.82 111.324 65.529
3.83 111.619 66.798
3.84 111.153 67.527
3.85 110.819 67.351
3.86 110.575 66.239
3.87 110.816 64.029
3.88 --undefined-- 60.107
3.89 --undefined-- 53.954
3.90 --undefined-- 46.331
3.91 --undefined-- 43.321
3.92 --undefined-- 46.847
3.93 --undefined-- 51.339
3.94 --undefined-- 55.070
3.95 --undefined-- 59.665
3.96 --undefined-- 64.548
3.97 --undefined-- 67.171
3.98 --undefined-- 67.186
3.99 --undefined-- 65.268
4.00 90.448 62.733
4.01 89.593 60.815
4.02 88.527 60.569
4.03 88.772 61.521
4.04 89.013 62.287
4.05 89.408 62.595
4.06 89.073 62.824
4.07 90.227 62.894
4.08 89.109 62.621
4.09 90.393 62.638
4.10 91.386 62.923
4.11 91.366 62.619
4.12 90.450 61.427
4.13 89.258 59.573
4.14 88.469 57.505
4.15 87.492 55.161
4.16 --undefined-- 51.475
4.17 --undefined-- 45.674
4.18 --undefined-- 38.985
4.19 --undefined-- 35.984
4.20 --undefined-- 34.221
4.21 --undefined-- 34.842
4.22 --undefined-- 36.320
4.23 --undefined-- 37.882
4.24 --undefined-- 39.269
4.25 --undefined-- 39.495
4.26 --undefined-- 39.648
4.27 --undefined-- 40.231
4.28 --undefined-- 40.467
4.29 --undefined-- 39.641
4.30 --undefined-- 38.450
4.31 --undefined-- 38.392
4.32 --undefined-- 38.585
4.33 --undefined-- 37.724
4.34 --undefined-- 36.687
4.35 --undefined-- 36.886
4.36 --undefined-- 36.946
4.37 --undefined-- 35.997
4.38 --undefined-- 35.380
4.39 --undefined-- 36.266
4.40 --undefined-- 37.445
4.41 --undefined-- 39.652
4.42 --undefined-- 42.238
4.43 --undefined-- 44.385
4.44 --undefined-- 47.092
4.45 --undefined-- 49.064
4.46 --undefined-- 50.001
4.47 --undefined-- 51.521
4.48 --undefined-- 54.339
4.49 --undefined-- 56.622
4.50 --undefined-- 58.572
4.51 --undefined-- 64.580
4.52 --undefined-- 69.933
4.53 --undefined-- 71.961
4.54 --undefined-- 70.908
4.55 --undefined-- 67.191
4.56 --undefined-- 61.066
4.57 --undefined-- 53.804
4.58 --undefined-- 47.235
4.59 --undefined-- 44.954
4.60 --undefined-- 45.033
4.61 --undefined-- 45.435
4.62 --undefined-- 46.134
4.63 --undefined-- 46.620
4.64 --undefined-- 46.831
4.65 --undefined-- 46.810
4.66 --undefined-- 45.859
4.67 --undefined-- 44.171
4.68 --undefined-- 42.302
4.69 --undefined-- 40.138
4.70 --undefined-- 51.402
4.71 --undefined-- 60.864
4.72 --undefined-- 66.106
4.73 --undefined-- 69.490
4.74 128.943 72.163
4.75 120.495 73.319
4.76 120.844 73.089
4.77 120.157 72.442
4.78 120.193 71.824
4.79 120.132 71.079
4.80 119.823 70.111
4.81 120.011 69.430
4.82 120.853 69.397
4.83 122.425 69.466
4.84 123.115 69.055
4.85 123.314 68.046
4.86 122.616 66.591
4.87 122.663 65.653
4.88 122.394 66.140
4.89 121.376 67.895
4.90 121.802 70.940
4.91 121.594 73.057
4.92 121.546 73.526
4.93 122.005 73.431
4.94 122.137 73.510
4.95 121.475 73.562
4.96 121.120 73.465
4.97 120.649 73.363
4.98 121.144 73.310
4.99 121.091 73.143
5.00 119.678 72.746
5.01 118.884 72.513
5.02 118.262 72.619
5.03 117.549 72.385
5.04 116.607 71.418
5.05 115.490 70.140
5.06 114.736 68.565
5.07 113.954 66.007
5.08 --undefined-- 61.795
5.09 --undefined-- 55.852
5.10 --undefined-- 48.875
5.11 --undefined-- 45.287
5.12 --undefined-- 49.667
5.13 --undefined-- 55.597
5.14 --undefined-- 59.271
5.15 --undefined-- 59.475
5.16 --undefined-- 56.074
5.17 --undefined-- 50.825
5.18 --undefined-- 48.683
5.19 --undefined-- 48.505
5.20 --undefined-- 48.650
5.21 --undefined-- 48.946
5.22 --undefined-- 50.356
5.23 --undefined-- 52.507
5.24 --undefined-- 53.052
5.25 --undefined-- 52.151
5.26 --undefined-- 53.504
5.27 109.572 58.519
5.28 110.518 63.101
5.29 110.174 65.626
5.30 104.535 66.127
5.31 101.822 65.426
5.32 101.010 64.229
5.33 100.077 62.393
5.34 95.702 59.337
5.35 --undefined-- 54.537
5.36 --undefined-- 48.162
5.37 --undefined-- 42.044
5.38 --undefined-- 40.881
5.39 --undefined-- 43.915
5.40 --undefined-- 47.082
5.41 --undefined-- 49.031
5.42 --undefined-- 51.130
5.43 --undefined-- 53.693
5.44 --undefined-- 56.131
5.45 --undefined-- 57.508
5.46 --undefined-- 57.946
5.47 --undefined-- 59.396
5.48 102.623 61.675
5.49 108.014 63.557
5.50 108.682 64.279
5.51 108.533 63.382
5.52 107.980 60.561
5.53 --undefined-- 55.677
5.54 --undefined-- 49.847
5.55 --undefined-- 51.610
5.56 --undefined-- 59.223
5.57 --undefined-- 66.153
5.58 --undefined-- 70.804
5.59 --undefined-- 72.822
5.60 --undefined-- 72.685
5.61 --undefined-- 71.539
5.62 100.982 70.078
5.63 100.772 --undefined--
5.64 100.038 --undefined--
5.65 --undefined-- --undefined--
5.66 --undefined-- --undefined--
