Time Pitch Intensity
0.01 --undefined-- --undefined--
0.02 99.816 --undefined--
0.03 98.542 --undefined--
0.04 98.077 --undefined--
0.05 99.239 69.150
0.06 100.238 69.482
0.07 100.919 69.992
0.08 101.325 70.575
0.09 100.984 70.939
0.10 101.237 71.067
0.11 101.421 71.029
0.12 97.863 70.865
0.13 98.426 70.169
0.14 95.728 68.759
0.15 93.608 67.217
0.16 93.441 66.159
0.17 94.371 65.669
0.18 93.885 65.560
0.19 96.260 66.022
0.20 99.197 67.309
0.21 101.435 69.146
0.22 101.405 70.989
0.23 101.217 72.736
0.24 103.956 74.357
0.25 106.255 75.489
0.26 108.646 75.915
0.27 112.421 76.112
0.28 115.858 76.878
0.29 116.650 77.747
0.30 119.952 77.824
0.31 125.272 76.799
0.32 128.496 74.784
0.33 130.952 71.816
0.34 148.273 67.523
0.35 --undefined-- 61.411
0.36 --undefined-- 53.493
0.37 --undefined-- 48.207
0.38 --undefined-- 48.941
0.39 --undefined-- 50.057
0.40 --undefined-- 49.502
0.41 --undefined-- 47.496
0.42 --undefined-- 46.833
0.43 --undefined-- 46.313
0.44 --undefined-- 45.244
0.45 --undefined-- 44.476
0.46 --undefined-- 43.705
0.47 --undefined-- 43.627
0.48 --undefined-- 44.560
0.49 --undefined-- 44.616
0.50 --undefined-- 43.132
0.51 --undefined-- 41.995
0.52 --undefined-- 41.933
0.53 --undefined-- 41.798
0.54 --undefined-- 42.701
0.55 --undefined-- 42.791
0.56 --undefined-- 40.539
0.57 --undefined-- 37.702
0.58 --undefined-- 38.095
0.59 --undefined-- 39.744
0.60 --undefined-- 41.553
0.61 --undefined-- 43.504
0.62 --undefined-- 46.879
0.63 --undefined-- 52.273
0.64 --undefined-- 57.727
0.65 108.151 60.981
0.66 104.332 62.166
0.67 --undefined-- 61.831
0.68 --undefined-- 62.400
0.69 --undefined-- 68.388
0.70 117.403 72.839
0.71 116.680 74.406
0.72 97.799 74.249
0.73 103.628 73.420
0.74 104.690 72.015
0.75 104.670 70.293
0.76 109.586 68.585
0.77 --undefined-- 66.250
0.78 --undefined-- 64.707
0.79 --undefined-- 68.575
0.80 148.980 72.547
0.81 136.406 74.432
0.82 126.825 75.071
0.83 125.237 75.395
0.84 126.160 75.550
0.85 128.273 75.467
0.86 131.184 75.440
0.87 132.444 75.598
0.88 132.805 75.702
0.89 132.852 75.674
0.90 133.174 75.582
0.91 133.229 75.369
0.92 132.749 75.135
0.93 130.706 75.208
0.94 133.703 75.458
0.95 131.227 75.587
0.96 128.037 75.551
0.97 124.057 75.227
0.98 120.648 74.539
0.99 118.348 73.705
1.00 114.247 73.201
1.01 113.923 73.173
1.02 113.952 73.155
1.03 114.147 72.280
1.04 109.525 69.829
1.05 109.631 65.697
1.06 121.252 60.500
1.07 --undefined-- 54.586
1.08 --undefined-- 47.060
1.09 --undefined-- 41.516
1.10 --undefined-- 46.901
1.11 --undefined-- 57.370
1.12 --undefined-- 66.817
1.13 184.889 73.358
1.14 171.780 77.126
1.15 161.087 78.858
1.16 151.061 79.187
1.17 146.004 78.813
1.18 145.222 78.342
1.19 145.352 77.903
1.20 146.703 77.530
1.21 147.385 77.149
1.22 148.455 76.459
1.23 147.556 74.814
1.24 139.795 71.615
1.25 134.251 66.920
1.26 --undefined-- 60.860
1.27 --undefined-- 57.789
1.28 --undefined-- 61.694
1.29 --undefined-- 64.638
1.30 --undefined-- 64.961
1.31 --undefined-- 65.161
1.32 133.363 68.875
1.33 118.685 71.561
1.34 112.392 72.363
1.35 110.850 72.348
1.36 115.515 72.437
1.37 117.925 72.736
1.38 119.681 72.786
1.39 118.678 71.908
1.40 114.362 69.822
1.41 115.971 67.256
1.42 120.514 65.823
1.43 142.575 67.902
1.44 149.802 71.540
1.45 147.692 73.606
1.46 138.674 73.798
1.47 141.178 72.855
1.48 140.505 71.031
1.49 126.099 68.556
1.50 123.287 66.269
1.51 217.819 63.843
1.52 201.472 61.760
1.53 194.743 61.272
1.54 195.867 62.215
1.55 192.183 65.774
1.56 185.848 69.719
1.57 170.558 72.702
1.58 159.230 74.651
1.59 156.318 75.591
1.60 156.819 75.651
1.61 154.971 74.645
1.62 147.595 72.176
1.63 141.904 68.840
1.64 137.558 65.464
1.65 138.386 61.210
1.66 --undefined-- 55.368
1.67 --undefined-- 48.489
1.68 --undefined-- 45.285
1.69 --undefined-- 47.416
1.70 --undefined-- 56.618
1.71 --undefined-- 65.767
1.72 181.246 71.091
1.73 170.538 73.593
1.74 167.340 74.565
1.75 166.715 74.982
1.76 164.993 75.177
1.77 162.611 75.228
1.78 160.485 74.893
1.79 155.500 73.550
1.80 144.406 70.691
1.81 127.817 66.469
1.82 129.364 61.877
1.83 --undefined-- 60.209
1.84 --undefined-- 64.064
1.85 186.126 69.864
1.86 156.693 73.732
1.87 147.810 75.259
1.88 129.161 75.349
1.89 124.084 75.246
1.90 122.125 75.257
1.91 120.881 74.765
1.92 118.364 73.558
1.93 115.577 71.539
1.94 113.833 68.370
1.95 95.376 63.893
1.96 90.111 59.531
1.97 88.275 57.458
1.98 76.611 56.054
1.99 --undefined-- 55.335
2.00 --undefined-- 60.993
2.01 --undefined-- 67.094
2.02 114.793 70.151
2.03 98.444 70.909
2.04 97.624 70.340
2.05 93.669 69.135
2.06 91.088 67.864
2.07 91.233 66.951
2.08 90.182 66.353
2.09 89.210 66.043
2.10 89.289 65.892
2.11 90.218 65.836
2.12 91.470 65.909
2.13 93.414 65.966
2.14 95.004 65.664
2.15 93.757 64.810
2.16 90.509 63.660
2.17 86.989 63.849
2.18 --undefined-- 66.525
2.19 102.379 68.840
2.20 101.219 70.046
2.21 101.464 71.600
2.22 103.938 74.021
2.23 110.921 76.096
2.24 118.831 77.494
2.25 125.472 78.595
2.26 139.711 79.875
2.27 146.783 81.316
2.28 152.536 82.361
2.29 158.249 82.655
2.30 162.673 82.029
2.31 166.950 80.502
2.32 168.365 78.236
2.33 167.830 75.087
2.34 145.853 70.485
2.35 145.958 64.194
2.36 --undefined-- 56.570
2.37 --undefined-- 50.710
2.38 --undefined-- 48.781
2.39 --undefined-- 45.689
2.40 --undefined-- 44.113
2.41 --undefined-- 45.905
2.42 --undefined-- 47.655
2.43 --undefined-- 48.521
2.44 --undefined-- 48.356
2.45 --undefined-- 47.822
2.46 --undefined-- 47.171
2.47 --undefined-- 46.607
2.48 --undefined-- 46.515
2.49 --undefined-- 46.377
2.50 --undefined-- 46.086
2.51 --undefined-- 45.758
2.52 --undefined-- 45.328
2.53 --undefined-- 45.095
2.54 --undefined-- 44.918
2.55 --undefined-- 44.339
2.56 --undefined-- 43.746
2.57 --undefined-- 43.448
2.58 --undefined-- 44.400
2.59 --undefined-- 46.060
2.60 --undefined-- 45.325
2.61 --undefined-- 42.810
2.62 --undefined-- 42.165
2.63 --undefined-- 49.052
2.64 --undefined-- 57.002
2.65 --undefined-- 60.584
2.66 --undefined-- 60.277
2.67 --undefined-- 62.464
2.68 --undefined-- 69.335
2.69 --undefined-- 73.564
2.70 112.727 75.396
2.71 111.397 75.990
2.72 109.881 76.178
2.73 106.746 76.308
2.74 106.654 76.382
2.75 104.471 76.212
2.76 103.690 75.720
2.77 102.904 75.190
2.78 102.702 74.884
2.79 102.730 74.799
2.80 103.324 74.800
2.81 103.877 74.690
2.82 104.611 74.309
2.83 103.146 73.693
2.84 102.417 73.160
2.85 100.643 72.736
2.86 99.087 72.345
2.87 99.129 72.212
2.88 100.718 72.398
2.89 103.287 72.907
2.90 108.304 73.725
2.91 112.437 74.565
2.92 115.672 75.271
2.93 119.824 75.951
2.94 124.328 76.382
2.95 127.435 76.066
2.96 127.389 74.565
2.97 123.575 71.589
2.98 120.487 67.662
2.99 117.051 63.949
3.00 111.493 60.963
3.01 --undefined-- 60.149
3.02 --undefined-- 62.093
3.03 --undefined-- 66.894
3.04 167.706 72.015
3.05 155.130 75.119
3.06 143.089 76.451
3.07 134.271 76.667
3.08 126.001 76.049
3.09 119.072 74.828
3.10 114.947 73.500
3.11 114.785 72.680
3.12 116.073 72.532
3.13 117.310 73.024
3.14 116.449 73.916
3.15 114.990 74.674
3.16 114.138 75.111
3.17 113.120 75.302
3.18 111.782 75.279
3.19 110.624 75.178
3.20 110.117 75.150
3.21 110.705 75.123
3.22 111.795 74.885
3.23 113.306 74.290
3.24 115.385 73.433
3.25 115.142 72.325
3.26 116.152 70.316
3.27 108.933 66.489
3.28 --undefined-- 60.373
3.29 --undefined-- 54.762
3.30 --undefined-- 57.859
3.31 --undefined-- 62.219
3.32 --undefined-- 67.743
3.33 172.434 73.245
3.34 163.429 76.467
3.35 159.054 77.747
3.36 159.967 78.030
3.37 161.191 77.910
3.38 161.544 77.525
3.39 162.972 77.070
3.40 163.092 76.847
3.41 162.831 76.771
3.42 161.978 76.689
3.43 161.420 76.571
3.44 160.255 76.465
3.45 158.828 76.351
3.46 156.288 76.170
3.47 153.659 75.853
3.48 149.621 75.213
3.49 143.965 74.084
3.50 140.208 73.105
3.51 143.386 73.682
3.52 145.731 75.004
3.53 144.807 75.664
3.54 138.412 75.676
3.55 129.821 75.716
3.56 125.252 75.893
3.57 123.567 75.880
3.58 123.920 75.686
3.59 123.833 75.337
3.60 122.867 74.794
3.61 121.048 73.781
3.62 114.486 71.585
3.63 113.076 68.234
3.64 115.484 65.007
3.65 118.136 61.890
3.66 --undefined-- 58.552
3.67 --undefined-- 58.717
3.68 --undefined-- 62.828
3.69 --undefined-- 68.475
3.70 --undefined-- 72.519
3.71 119.288 74.249
3.72 115.421 74.376
3.73 112.108 74.067
3.74 111.548 74.071
3.75 112.666 74.296
3.76 114.929 74.596
3.77 117.268 74.835
3.78 119.528 74.897
3.79 121.262 74.740
3.80 123.149 74.627
3.81 125.741 74.873
3.82 127.912 75.343
3.83 130.486 75.815
3.84 133.154 76.277
3.85 135.618 76.655
3.86 137.926 76.698
3.87 139.249 76.311
3.88 140.534 75.817
3.89 143.236 75.630
3.90 144.304 75.504
3.91 143.165 74.915
3.92 144.833 74.041
3.93 146.515 73.834
3.94 150.838 75.080
3.95 151.144 76.632
3.96 154.636 77.416
3.97 153.825 77.511
3.98 150.775 76.913
3.99 145.723 75.288
4.00 134.638 72.504
4.01 130.692 69.244
4.02 125.023 66.262
4.03 122.198 63.835
4.04 120.064 65.361
4.05 159.777 69.688
4.06 154.336 72.652
4.07 143.523 73.878
4.08 130.280 74.368
4.09 125.027 74.763
4.10 124.254 74.905
4.11 120.861 74.665
4.12 118.975 73.689
4.13 115.125 71.476
4.14 113.694 67.876
4.15 109.749 63.572
4.16 95.874 60.040
4.17 --undefined-- 61.467
4.18 --undefined-- 64.414
4.19 120.738 66.732
4.20 109.952 68.106
4.21 108.735 68.619
4.22 96.836 68.795
4.23 92.958 68.621
4.24 93.375 68.347
4.25 93.391 68.323
4.26 93.971 68.415
4.27 97.001 68.165
4.28 97.950 67.005
4.29 94.785 64.388
4.30 --undefined-- 60.498
4.31 --undefined-- 57.058
4.32 --undefined-- 59.793
4.33 --undefined-- 66.341
4.34 --undefined-- 71.200
4.35 131.929 73.778
4.36 125.696 74.694
4.37 124.779 74.933
4.38 125.282 75.161
4.39 123.796 75.500
4.40 123.697 75.788
4.41 124.130 75.803
4.42 123.612 75.607
4.43 123.744 75.391
4.44 123.512 75.136
4.45 123.265 74.975
4.46 125.781 75.053
4.47 127.434 75.014
4.48 128.806 74.717
4.49 128.571 74.185
4.50 126.972 73.199
4.51 126.626 71.402
4.52 124.077 68.459
4.53 120.648 64.375
4.54 --undefined-- 59.576
4.55 --undefined-- 55.256
4.56 --undefined-- 58.479
4.57 --undefined-- 66.898
4.58 163.661 72.635
4.59 151.112 75.413
4.60 125.758 76.164
4.61 128.601 75.978
4.62 126.949 75.922
4.63 126.601 75.980
4.64 126.765 75.849
4.65 127.105 75.780
4.66 126.801 76.010
4.67 126.671 76.389
4.68 127.310 76.686
4.69 127.550 76.816
4.70 127.567 76.802
4.71 127.035 76.668
4.72 126.530 76.363
4.73 125.944 75.573
4.74 124.415 73.769
4.75 120.519 70.663
4.76 118.460 66.760
4.77 117.271 63.661
4.78 123.936 64.965
4.79 139.744 69.138
4.80 129.572 71.773
4.81 116.218 72.600
4.82 109.892 72.486
4.83 106.634 72.198
4.84 102.686 72.177
4.85 102.766 72.598
4.86 102.334 72.956
4.87 102.263 73.061
4.88 101.853 72.973
4.89 101.188 72.761
4.90 101.720 72.405
4.91 100.540 71.907
4.92 99.064 71.720
4.93 99.545 72.189
4.94 100.223 72.720
4.95 98.945 72.688
4.96 98.523 72.401
4.97 98.187 72.381
4.98 98.288 72.542
4.99 97.808 72.581
5.00 96.822 72.376
5.01 96.308 72.189
5.02 96.774 72.171
5.03 96.892 72.146
5.04 97.282 72.096
5.05 97.570 71.975
5.06 98.264 71.834
5.07 99.723 72.057
5.08 102.209 72.684
5.09 103.243 73.343
5.10 104.056 73.640
5.11 105.268 73.571
5.12 105.781 73.571
5.13 107.797 73.686
5.14 108.230 73.255
5.15 107.081 71.626
5.16 106.976 69.042
5.17 109.428 66.082
5.18 108.785 62.040
5.19 --undefined-- 56.454
5.20 --undefined-- 50.042
5.21 --undefined-- 46.007
5.22 --undefined-- 49.190
5.23 --undefined-- 56.731
5.24 235.423 64.609
5.25 235.683 71.803
5.26 221.140 76.722
5.27 205.673 79.208
5.28 201.745 80.045
5.29 199.569 79.941
5.30 196.668 79.211
5.31 191.563 78.020
5.32 186.676 76.663
5.33 179.869 75.380
5.34 174.627 74.297
5.35 169.006 73.244
5.36 161.467 72.335
5.37 153.414 --undefined--
5.38 149.092 --undefined--
5.39 --undefined-- --undefined--
5.40 --undefined-- --undefined--
