Time Pitch Intensity
0.01 --undefined-- --undefined--
0.02 145.001 --undefined--
0.03 151.797 --undefined--
0.04 158.006 --undefined--
0.05 164.333 69.109
0.06 172.763 69.395
0.07 176.715 69.555
0.08 174.783 69.305
0.09 171.027 69.292
0.10 164.427 70.162
0.11 160.126 70.631
0.12 --undefined-- 70.025
0.13 --undefined-- 68.676
0.14 --undefined-- 66.190
0.15 --undefined-- 62.438
0.16 --undefined-- 60.121
0.17 --undefined-- 58.779
0.18 --undefined-- 54.289
0.19 --undefined-- 49.191
0.20 --undefined-- 52.715
0.21 119.040 57.089
0.22 118.948 60.130
0.23 120.631 62.001
0.24 124.388 62.668
0.25 130.411 62.579
0.26 136.890 63.433
0.27 144.549 65.338
0.28 146.130 66.825
0.29 141.012 67.604
0.30 129.149 67.924
0.31 123.609 67.939
0.32 120.773 67.548
0.33 120.390 66.772
0.34 119.826 66.310
0.35 119.796 66.616
0.36 119.904 67.159
0.37 120.647 67.285
0.38 121.546 66.783
0.39 122.424 66.178
0.40 126.730 66.316
0.41 133.098 67.121
0.42 139.845 68.105
0.43 143.572 68.847
0.44 144.193 68.798
0.45 147.132 68.407
0.46 150.679 68.344
0.47 158.579 68.584
0.48 162.398 68.879
0.49 164.742 69.169
0.50 159.899 69.564
0.51 153.818 69.344
0.52 136.532 68.062
0.53 129.467 67.068
0.54 124.367 67.116
0.55 121.687 67.498
0.56 123.143 67.726
0.57 129.175 67.761
0.58 136.380 68.109
0.59 145.036 68.750
0.60 150.222 68.692
0.61 150.935 67.286
0.62 156.502 64.614
0.63 153.989 60.593
0.64 153.014 55.165
0.65 --undefined-- 51.367
0.66 --undefined-- 51.348
0.67 --undefined-- 52.526
0.68 --undefined-- 53.975
0.69 --undefined-- 54.209
0.70 --undefined-- 53.587
0.71 --undefined-- 58.353
0.72 204.604 64.392
0.73 176.440 67.696
0.74 163.881 68.894
0.75 149.627 68.952
0.76 143.236 68.348
0.77 136.626 67.300
0.78 132.297 66.560
0.79 130.677 66.482
0.80 129.337 66.566
0.81 127.625 66.347
0.82 125.150 65.738
0.83 121.653 64.789
0.84 118.043 63.762
0.85 116.084 63.871
0.86 120.504 65.176
0.87 119.749 65.838
0.88 112.433 65.588
0.89 108.353 65.162
0.90 107.752 64.787
0.91 106.500 64.455
0.92 105.753 64.189
0.93 104.004 63.799
0.94 103.468 63.446
0.95 103.490 63.157
0.96 103.706 62.227
0.97 100.173 59.938
0.98 93.385 56.254
0.99 --undefined-- 52.384
1.00 --undefined-- 48.502
1.01 --undefined-- 43.290
1.02 --undefined-- 39.385
1.03 --undefined-- 37.679
1.04 --undefined-- 41.813
1.05 --undefined-- 51.052
1.06 --undefined-- 58.215
1.07 --undefined-- 62.349
1.08 --undefined-- 63.736
1.09 --undefined-- 63.273
1.10 --undefined-- 62.743
1.11 102.696 62.706
1.12 102.793 62.272
1.13 102.517 61.214
1.14 102.402 60.081
1.15 99.923 60.501
1.16 100.398 62.420
1.17 102.128 63.866
1.18 109.356 64.634
1.19 114.785 65.723
1.20 115.147 66.736
1.21 117.306 66.618
1.22 130.776 65.883
1.23 138.129 66.125
1.24 142.635 67.109
1.25 146.101 67.929
1.26 149.535 68.437
1.27 151.063 68.556
1.28 150.748 68.488
1.29 149.974 68.556
1.30 147.798 68.662
1.31 143.650 68.424
1.32 137.406 67.680
1.33 129.760 66.791
1.34 122.195 66.341
1.35 116.451 65.841
1.36 110.934 64.338
1.37 105.424 62.500
1.38 99.664 61.439
1.39 87.864 60.588
1.40 79.027 59.582
1.41 79.709 59.288
1.42 82.334 59.916
1.43 85.825 60.393
1.44 89.424 60.154
1.45 92.747 59.163
1.46 98.778 57.452
1.47 99.002 54.937
1.48 103.017 52.243
1.49 121.043 49.892
1.50 --undefined-- 46.479
1.51 --undefined-- 43.172
1.52 --undefined-- 49.777
1.53 --undefined-- 56.574
1.54 126.530 60.452
1.55 117.971 62.241
1.56 110.277 63.021
1.57 109.800 63.678
1.58 108.315 64.505
1.59 106.590 65.222
1.60 104.409 65.581
1.61 100.793 65.426
1.62 97.352 64.738
1.63 97.449 64.303
1.64 105.055 64.964
1.65 113.460 66.221
1.66 119.386 67.124
1.67 125.808 67.564
1.68 130.145 67.890
1.69 132.592 67.888
1.70 138.102 67.771
1.71 141.910 68.221
1.72 155.893 68.966
1.73 155.729 69.299
1.74 152.689 69.045
1.75 150.191 68.355
1.76 145.090 67.796
1.77 141.204 67.879
1.78 138.480 67.711
1.79 136.636 66.615
1.80 130.322 64.611
1.81 129.234 61.973
1.82 147.522 59.753
1.83 156.319 57.621
1.84 157.837 53.703
1.85 --undefined-- 47.209
1.86 --undefined-- 41.417
1.87 --undefined-- 40.120
1.88 --undefined-- 38.775
1.89 --undefined-- 38.656
1.90 --undefined-- 40.517
1.91 --undefined-- 42.702
1.92 --undefined-- 48.028
1.93 --undefined-- 56.900
1.94 --undefined-- 63.396
1.95 146.481 66.692
1.96 134.559 67.585
1.97 127.875 67.234
1.98 121.005 66.512
1.99 116.316 65.593
2.00 112.370 64.927
2.01 109.822 64.388
2.02 108.238 62.854
2.03 104.957 61.163
2.04 106.557 61.456
2.05 111.386 62.654
2.06 112.613 63.578
2.07 112.065 64.136
2.08 112.565 64.426
2.09 113.126 64.540
2.10 113.662 64.676
2.11 114.284 64.895
2.12 114.284 65.248
2.13 112.784 65.576
2.14 112.046 65.738
2.15 112.719 65.814
2.16 114.335 65.803
2.17 115.801 65.738
2.18 117.254 65.708
2.19 118.554 65.731
2.20 118.929 65.697
2.21 119.533 65.555
2.22 120.669 65.305
2.23 120.039 64.866
2.24 117.601 64.009
2.25 110.444 62.379
2.26 107.719 59.504
2.27 105.403 55.040
2.28 --undefined-- 48.710
2.29 --undefined-- 41.625
2.30 --undefined-- 37.980
2.31 --undefined-- 35.375
2.32 --undefined-- 34.921
2.33 --undefined-- 37.814
2.34 --undefined-- 39.876
2.35 --undefined-- 39.689
2.36 --undefined-- 37.182
2.37 --undefined-- 33.578
2.38 --undefined-- 37.570
2.39 --undefined-- 43.061
2.40 --undefined-- 44.616
2.41 --undefined-- 42.476
2.42 --undefined-- 40.097
2.43 --undefined-- 42.630
2.44 --undefined-- 44.864
2.45 --undefined-- 45.496
2.46 --undefined-- 46.190
2.47 --undefined-- 52.367
2.48 --undefined-- 58.937
2.49 --undefined-- 62.789
2.50 107.993 64.593
2.51 106.958 65.282
2.52 104.819 65.158
2.53 103.009 63.891
2.54 102.884 62.162
2.55 107.140 61.672
2.56 112.973 62.587
2.57 119.150 64.185
2.58 124.504 65.634
2.59 130.834 66.969
2.60 136.415 68.165
2.61 140.946 68.944
2.62 143.059 69.151
2.63 143.603 69.048
2.64 147.622 69.160
2.65 154.794 69.490
2.66 159.574 69.461
2.67 159.992 69.081
2.68 149.967 68.839
2.69 138.834 68.900
2.70 131.151 68.889
2.71 120.571 68.458
2.72 117.878 67.623
2.73 101.665 66.869
2.74 97.801 66.494
2.75 95.627 66.047
2.76 92.198 65.598
2.77 93.116 65.600
2.78 97.726 66.199
2.79 103.417 67.016
2.80 108.660 67.490
2.81 111.015 67.418
2.82 117.717 66.912
2.83 117.571 66.034
2.84 119.947 65.297
2.85 125.701 65.511
2.86 130.122 66.341
2.87 133.309 66.815
2.88 133.284 66.649
2.89 129.179 66.088
2.90 123.891 65.406
2.91 119.795 64.837
2.92 116.571 64.489
2.93 113.994 64.582
2.94 114.593 64.833
2.95 114.655 64.896
2.96 117.006 65.005
2.97 120.907 65.374
2.98 122.664 65.951
2.99 121.685 66.435
3.00 122.882 66.832
3.01 123.611 67.262
3.02 124.774 67.660
3.03 124.471 67.739
3.04 125.560 67.130
3.05 127.446 65.754
3.06 133.678 63.955
3.07 135.977 62.060
3.08 128.538 60.379
3.09 128.240 59.938
3.10 133.519 61.240
3.11 140.090 63.075
3.12 137.954 64.232
3.13 123.499 64.416
3.14 113.830 63.766
3.15 100.590 62.473
3.16 97.814 61.058
3.17 97.627 60.011
3.18 94.161 59.630
3.19 92.113 59.531
3.20 89.559 59.273
3.21 88.495 58.724
3.22 88.095 58.172
3.23 89.399 57.729
3.24 88.953 57.200
3.25 86.353 56.822
3.26 84.048 56.723
3.27 82.333 56.943
3.28 81.049 57.516
3.29 83.273 58.034
3.30 90.244 57.927
3.31 90.766 56.710
3.32 108.016 54.413
3.33 --undefined-- 50.725
3.34 --undefined-- 45.079
3.35 --undefined-- 38.456
3.36 --undefined-- 35.870
3.37 --undefined-- 38.991
3.38 --undefined-- 43.840
3.39 --undefined-- 50.124
3.40 --undefined-- 58.073
3.41 --undefined-- 64.350
3.42 152.734 67.703
3.43 135.242 68.519
3.44 132.889 67.559
3.45 125.660 65.451
3.46 116.966 62.199
3.47 108.881 57.892
3.48 --undefined-- 53.065
3.49 --undefined-- 47.387
3.50 --undefined-- 42.373
3.51 --undefined-- 40.306
3.52 --undefined-- 38.674
3.53 --undefined-- 41.296
3.54 --undefined-- 46.171
3.55 --undefined-- 48.955
3.56 --undefined-- 54.426
3.57 --undefined-- 60.696
3.58 --undefined-- 64.612
3.59 107.442 66.220
3.60 102.615 66.332
3.61 101.990 65.747
3.62 98.219 64.894
3.63 94.271 64.111
3.64 93.565 62.984
3.65 89.439 61.615
3.66 94.938 60.965
3.67 94.926 60.883
3.68 92.816 60.845
3.69 95.935 61.264
3.70 92.065 61.872
3.71 87.934 62.345
3.72 88.092 63.302
3.73 88.206 64.627
3.74 87.478 65.287
3.75 85.841 65.164
3.76 86.675 65.069
3.77 91.295 65.975
3.78 91.968 67.385
3.79 91.892 68.298
3.80 95.981 68.694
3.81 103.884 69.113
3.82 106.303 69.732
3.83 107.262 69.586
3.84 107.676 68.146
3.85 103.002 66.202
3.86 102.084 64.394
3.87 95.904 62.174
3.88 93.148 59.030
3.89 96.240 54.569
3.90 --undefined-- 48.754
3.91 --undefined-- 43.074
3.92 --undefined-- 40.087
3.93 --undefined-- 39.067
3.94 --undefined-- 37.374
3.95 --undefined-- 36.693
3.96 --undefined-- 38.312
3.97 --undefined-- 39.107
3.98 --undefined-- 39.223
3.99 --undefined-- 39.594
4.00 --undefined-- 39.606
4.01 --undefined-- 40.003
4.02 --undefined-- 41.500
4.03 --undefined-- 42.659
4.04 --undefined-- 42.629
4.05 --undefined-- 41.991
4.06 --undefined-- 41.349
4.07 --undefined-- 41.929
4.08 --undefined-- 43.382
4.09 --undefined-- 46.024
4.10 --undefined-- 48.398
4.11 --undefined-- 48.171
4.12 --undefined-- 45.159
4.13 --undefined-- 41.372
4.14 --undefined-- 39.830
4.15 --undefined-- 40.205
4.16 --undefined-- 40.379
4.17 --undefined-- 39.323
4.18 --undefined-- 38.515
4.19 --undefined-- 37.771
4.20 --undefined-- 35.703
4.21 --undefined-- 34.161
4.22 --undefined-- 35.681
4.23 --undefined-- 38.140
4.24 --undefined-- 39.116
4.25 --undefined-- 38.462
4.26 --undefined-- 45.483
4.27 --undefined-- 55.349
4.28 --undefined-- 61.588
4.29 133.168 65.177
4.30 136.785 67.060
4.31 138.859 68.012
4.32 138.818 68.724
4.33 144.948 69.430
4.34 147.478 69.982
4.35 150.044 70.523
4.36 155.575 71.115
4.37 162.865 71.957
4.38 168.535 72.919
4.39 173.501 73.468
4.40 177.585 73.153
4.41 176.903 72.251
4.42 173.689 71.708
4.43 169.796 71.886
4.44 166.176 72.203
4.45 162.024 72.141
4.46 158.823 71.811
4.47 155.120 71.461
4.48 151.073 71.113
4.49 147.202 70.318
4.50 141.192 68.157
4.51 128.646 63.978
4.52 --undefined-- 58.030
4.53 --undefined-- 51.529
4.54 --undefined-- 45.437
4.55 --undefined-- 42.618
4.56 --undefined-- 44.403
4.57 --undefined-- 49.776
4.58 --undefined-- 58.899
4.59 --undefined-- 65.380
4.60 --undefined-- 68.692
4.61 --undefined-- 69.644
4.62 --undefined-- 69.661
4.63 --undefined-- 69.492
4.64 --undefined-- 68.955
4.65 --undefined-- 67.533
4.66 --undefined-- 65.395
4.67 --undefined-- 62.425
4.68 --undefined-- 56.613
4.69 --undefined-- 47.344
4.70 --undefined-- 42.221
4.71 --undefined-- 41.958
4.72 --undefined-- 41.759
4.73 --undefined-- 45.987
4.74 --undefined-- 54.463
4.75 --undefined-- 59.988
4.76 94.303 63.077
4.77 108.555 64.531
4.78 109.839 64.982
4.79 108.992 65.412
4.80 108.291 65.855
4.81 108.680 66.242
4.82 109.461 66.834
4.83 112.734 67.805
4.84 115.958 68.909
4.85 115.217 69.752
4.86 113.679 70.171
4.87 112.413 70.258
4.88 111.074 70.085
4.89 110.876 69.738
4.90 111.970 69.341
4.91 112.895 69.090
4.92 113.209 69.195
4.93 113.135 69.394
4.94 113.036 69.228
4.95 113.765 68.796
4.96 113.592 68.189
4.97 113.116 67.164
4.98 114.516 66.300
4.99 114.004 65.926
5.00 110.398 65.393
5.01 107.909 64.594
5.02 106.410 64.075
5.03 106.398 64.617
5.04 107.891 65.775
5.05 108.116 65.852
5.06 --undefined-- 63.752
5.07 --undefined-- 59.221
5.08 --undefined-- 52.583
5.09 --undefined-- 45.880
5.10 --undefined-- 41.581
5.11 --undefined-- 39.457
5.12 --undefined-- 39.609
5.13 --undefined-- 41.175
5.14 --undefined-- 41.995
5.15 --undefined-- 41.197
5.16 --undefined-- 39.454
5.17 --undefined-- 38.417
5.18 --undefined-- 39.566
5.19 --undefined-- 42.887
5.20 --undefined-- 47.750
5.21 --undefined-- 55.879
5.22 --undefined-- 62.565
5.23 --undefined-- 66.160
5.24 --undefined-- 67.407
5.25 --undefined-- 67.051
5.26 --undefined-- 65.282
5.27 --undefined-- 61.429
5.28 --undefined-- 54.416
5.29 --undefined-- 50.055
5.30 --undefined-- 52.123
5.31 --undefined-- 54.304
5.32 101.803 56.809
5.33 101.281 58.617
5.34 109.415 60.111
5.35 112.068 61.128
5.36 114.965 61.270
5.37 130.488 61.565
5.38 152.304 63.912
5.39 167.380 67.316
5.40 169.999 70.258
5.41 167.173 72.267
5.42 158.992 73.082
5.43 157.608 72.990
5.44 157.374 72.557
5.45 156.594 72.074
5.46 155.012 71.387
5.47 --undefined-- 70.172
5.48 --undefined-- 67.989
5.49 --undefined-- 63.957
5.50 --undefined-- 57.023
5.51 --undefined-- 48.503
5.52 --undefined-- 44.225
5.53 --undefined-- 41.833
5.54 --undefined-- 40.246
5.55 --undefined-- 40.038
5.56 --undefined-- 39.878
5.57 --undefined-- 38.318
5.58 --undefined-- 35.076
5.59 --undefined-- 34.621
5.60 --undefined-- 41.326
5.61 --undefined-- 46.530
5.62 --undefined-- 47.736
5.63 --undefined-- 45.205
5.64 --undefined-- 43.089
5.65 --undefined-- 45.679
5.66 --undefined-- 47.052
5.67 --undefined-- 46.164
5.68 --undefined-- 44.216
5.69 --undefined-- 43.157
5.70 --undefined-- 42.443
5.71 --undefined-- 41.627
5.72 --undefined-- 41.428
5.73 --undefined-- 41.931
5.74 --undefined-- 42.204
5.75 --undefined-- 41.791
5.76 --undefined-- 40.797
5.77 --undefined-- 39.973
5.78 --undefined-- 40.357
5.79 --undefined-- 41.083
5.80 --undefined-- 41.164
5.81 --undefined-- 40.680
5.82 --undefined-- 39.655
5.83 --undefined-- 38.436
5.84 --undefined-- 38.158
5.85 --undefined-- 38.933
5.86 --undefined-- 39.564
5.87 --undefined-- 39.290
5.88 --undefined-- 37.979
5.89 --undefined-- 35.787
5.90 --undefined-- 35.236
5.91 --undefined-- 37.133
5.92 --undefined-- 38.332
5.93 --undefined-- 38.165
5.94 --undefined-- 36.804
5.95 --undefined-- 34.767
5.96 --undefined-- 34.988
5.97 --undefined-- 37.040
5.98 --undefined-- 38.164
5.99 --undefined-- 38.230
6.00 --undefined-- 47.293
6.01 --undefined-- 59.283
6.02 --undefined-- 66.795
6.03 --undefined-- 70.594
6.04 --undefined-- --undefined--
6.05 --undefined-- --undefined--
6.06 --undefined-- --undefined--
6.07 --undefined-- --undefined--
