Time Pitch Intensity
0.01 --undefined-- --undefined--
0.02 157.612 --undefined--
0.03 156.461 --undefined--
0.04 158.186 --undefined--
0.05 159.964 76.677
0.06 158.915 77.125
0.07 156.738 77.502
0.08 154.743 77.902
0.09 152.785 78.334
0.10 151.058 78.756
0.11 149.136 79.004
0.12 147.282 78.946
0.13 145.159 78.516
0.14 142.203 77.855
0.15 141.601 77.457
0.16 142.466 77.093
0.17 130.981 75.734
0.18 120.832 74.172
0.19 116.599 73.517
0.20 110.896 72.947
0.21 109.070 72.559
0.22 109.237 72.302
0.23 109.360 71.965
0.24 109.933 71.996
0.25 110.369 72.186
0.26 110.760 71.834
0.27 109.880 71.074
0.28 108.101 70.215
0.29 109.732 69.975
0.30 111.365 70.358
0.31 111.848 70.608
0.32 112.699 70.520
0.33 112.824 70.100
0.34 112.855 69.609
0.35 112.345 68.817
0.36 110.156 67.025
0.37 108.152 63.937
0.38 112.034 60.100
0.39 --undefined-- 56.135
0.40 --undefined-- 51.380
0.41 --undefined-- 47.736
0.42 --undefined-- 56.207
0.43 --undefined-- 66.127
0.44 --undefined-- 72.088
0.45 --undefined-- 74.582
0.46 114.016 74.488
0.47 115.033 73.110
0.48 117.064 72.303
0.49 130.253 73.308
0.50 130.527 75.032
0.51 131.446 75.803
0.52 131.361 75.406
0.53 130.854 74.026
0.54 129.601 71.159
0.55 130.400 66.710
0.56 131.133 61.987
0.57 130.396 56.461
0.58 --undefined-- 50.801
0.59 --undefined-- 50.105
0.60 --undefined-- 51.536
0.61 --undefined-- 55.227
0.62 --undefined-- 58.014
0.63 --undefined-- 58.470
0.64 --undefined-- 58.150
0.65 --undefined-- 62.108
0.66 --undefined-- 70.264
0.67 162.922 75.675
0.68 161.938 77.950
0.69 162.138 78.455
0.70 160.636 78.530
0.71 157.762 78.348
0.72 152.562 77.714
0.73 155.135 77.669
0.74 156.287 78.512
0.75 156.739 79.181
0.76 156.458 79.439
0.77 155.689 79.431
0.78 155.067 79.303
0.79 154.924 79.024
0.80 155.782 78.647
0.81 153.494 78.281
0.82 149.384 77.525
0.83 145.213 76.596
0.84 144.307 76.133
0.85 143.553 75.737
0.86 140.376 75.240
0.87 141.802 75.414
0.88 145.928 76.301
0.89 147.963 77.267
0.90 149.916 78.055
0.91 151.863 78.543
0.92 154.196 78.764
0.93 156.037 78.899
0.94 156.787 79.090
0.95 160.741 79.217
0.96 157.820 79.047
0.97 155.158 78.488
0.98 151.610 77.759
0.99 148.969 76.895
1.00 147.013 75.541
1.01 144.029 73.503
1.02 148.480 70.308
1.03 154.974 65.254
1.04 150.326 59.503
1.05 150.201 56.727
1.06 154.627 54.701
1.07 --undefined-- 52.144
1.08 --undefined-- 51.047
1.09 --undefined-- 52.050
1.10 --undefined-- 53.229
1.11 --undefined-- 53.817
1.12 --undefined-- 54.143
1.13 --undefined-- 54.022
1.14 --undefined-- 53.723
1.15 --undefined-- 54.088
1.16 --undefined-- 54.517
1.17 --undefined-- 54.625
1.18 --undefined-- 54.950
1.19 --undefined-- 55.431
1.20 --undefined-- 55.749
1.21 --undefined-- 55.893
1.22 --undefined-- 56.095
1.23 --undefined-- 56.071
1.24 --undefined-- 55.601
1.25 --undefined-- 55.125
1.26 --undefined-- 54.586
1.27 --undefined-- 54.231
1.28 --undefined-- 53.929
1.29 --undefined-- 53.402
1.30 --undefined-- 52.394
1.31 --undefined-- 50.408
1.32 --undefined-- 48.499
1.33 --undefined-- 49.086
1.34 --undefined-- 49.628
1.35 --undefined-- 47.289
1.36 --undefined-- 41.927
1.37 --undefined-- 37.797
1.38 --undefined-- 39.449
1.39 --undefined-- 50.373
1.40 --undefined-- 62.381
1.41 --undefined-- 70.448
1.42 --undefined-- 74.983
1.43 --undefined-- 76.559
1.44 130.189 76.629
1.45 135.663 77.213
1.46 141.361 78.065
1.47 146.276 78.455
1.48 155.164 78.849
1.49 161.882 79.234
1.50 164.865 78.675
1.51 169.837 76.980
1.52 204.164 75.391
1.53 206.642 74.983
1.54 206.690 75.103
1.55 209.482 75.241
1.56 210.088 75.396
1.57 209.989 74.577
1.58 198.986 72.217
1.59 179.660 70.488
1.60 181.416 69.893
1.61 176.774 67.390
1.62 171.532 63.993
1.63 172.208 65.782
1.64 179.682 70.402
1.65 179.677 74.023
1.66 179.642 75.824
1.67 178.210 76.340
1.68 174.517 76.678
1.69 174.271 76.884
1.70 176.428 76.521
1.71 183.004 75.918
1.72 188.291 75.929
1.73 191.083 76.587
1.74 194.715 77.097
1.75 201.897 77.499
1.76 207.748 78.048
1.77 210.660 78.326
1.78 212.195 78.523
1.79 213.139 78.629
1.80 213.639 77.914
1.81 212.245 75.657
1.82 204.576 71.461
1.83 193.876 66.695
1.84 196.143 63.468
1.85 202.927 60.795
1.86 209.154 58.015
1.87 212.046 54.944
1.88 211.571 53.052
1.89 --undefined-- 57.608
1.90 --undefined-- 66.493
1.91 --undefined-- 72.645
1.92 168.367 75.822
1.93 168.413 77.046
1.94 166.176 77.423
1.95 163.313 77.776
1.96 162.249 78.301
1.97 161.484 78.542
1.98 160.486 78.290
1.99 159.568 77.642
2.00 157.810 76.258
2.01 156.973 74.065
2.02 160.829 72.790
2.03 160.491 72.780
2.04 158.772 73.124
2.05 156.569 73.668
2.06 153.929 74.295
2.07 149.382 75.018
2.08 144.519 75.652
2.09 140.287 75.708
2.10 134.591 75.000
2.11 129.018 74.437
2.12 125.535 74.741
2.13 122.277 75.015
2.14 117.308 74.527
2.15 113.014 72.650
2.16 102.990 70.196
2.17 96.008 68.774
2.18 98.209 67.818
2.19 100.575 67.524
2.20 101.030 68.137
2.21 107.598 69.499
2.22 113.033 71.075
2.23 118.819 72.467
2.24 127.728 73.768
2.25 133.853 75.222
2.26 137.844 76.301
2.27 139.328 76.529
2.28 140.355 76.465
2.29 141.869 76.455
2.30 137.923 75.871
2.31 131.325 74.880
2.32 124.837 74.792
2.33 121.520 75.375
2.34 112.456 75.167
2.35 103.828 73.979
2.36 98.554 72.376
2.37 94.511 71.268
2.38 91.731 70.720
2.39 90.827 70.200
2.40 90.822 69.502
2.41 93.608 69.153
2.42 98.364 69.687
2.43 99.083 70.374
2.44 100.383 70.318
2.45 96.874 69.316
2.46 96.277 67.153
2.47 96.365 63.147
2.48 99.087 58.292
2.49 --undefined-- 55.839
2.50 --undefined-- 55.124
2.51 --undefined-- 59.400
2.52 --undefined-- 68.647
2.53 180.198 74.672
2.54 174.363 77.380
2.55 173.556 77.881
2.56 175.267 77.478
2.57 176.112 77.136
2.58 176.177 76.961
2.59 175.342 76.822
2.60 173.684 76.474
2.61 171.351 75.820
2.62 168.328 75.363
2.63 166.069 75.348
2.64 164.851 75.756
2.65 161.838 76.467
2.66 154.079 76.723
2.67 146.705 76.376
2.68 136.315 75.869
2.69 129.324 75.140
2.70 123.718 74.655
2.71 121.537 74.937
2.72 121.320 75.316
2.73 121.701 75.650
2.74 121.440 75.765
2.75 120.613 75.353
2.76 115.680 74.418
2.77 114.141 72.601
2.78 112.930 69.796
2.79 112.567 66.884
2.80 111.194 66.355
2.81 117.402 70.517
2.82 123.529 74.296
2.83 121.859 75.715
2.84 108.276 75.335
2.85 108.414 74.570
2.86 95.793 73.902
2.87 91.911 72.742
2.88 91.579 71.293
2.89 96.806 69.629
2.90 91.389 67.303
2.91 --undefined-- 64.598
2.92 --undefined-- 62.891
2.93 90.865 61.585
2.94 91.880 59.727
2.95 --undefined-- 57.728
2.96 --undefined-- 54.771
2.97 --undefined-- 49.567
2.98 --undefined-- 44.239
2.99 --undefined-- 41.699
3.00 --undefined-- 40.528
3.01 --undefined-- 40.930
3.02 --undefined-- 42.101
3.03 --undefined-- 45.135
3.04 --undefined-- 48.388
3.05 --undefined-- 49.815
3.06 --undefined-- 50.020
3.07 --undefined-- 50.412
3.08 --undefined-- 51.209
3.09 --undefined-- 52.271
3.10 --undefined-- 53.006
3.11 --undefined-- 53.125
3.12 --undefined-- 52.656
3.13 --undefined-- 52.234
3.14 --undefined-- 51.932
3.15 --undefined-- 51.678
3.16 --undefined-- 51.347
3.17 --undefined-- 50.585
3.18 --undefined-- 49.806
3.19 --undefined-- 49.359
3.20 --undefined-- 48.617
3.21 --undefined-- 47.652
3.22 --undefined-- 46.830
3.23 --undefined-- 45.914
3.24 --undefined-- 44.601
3.25 --undefined-- 42.285
3.26 --undefined-- 39.961
3.27 --undefined-- 38.649
3.28 --undefined-- 36.929
3.29 --undefined-- 43.723
3.30 --undefined-- 56.913
3.31 --undefined-- 65.788
3.32 119.292 71.328
3.33 120.756 74.447
3.34 122.656 75.942
3.35 124.282 76.453
3.36 124.559 76.342
3.37 124.607 76.243
3.38 124.971 76.676
3.39 125.917 76.856
3.40 126.041 76.163
3.41 125.250 75.067
3.42 127.423 74.554
3.43 129.986 74.415
3.44 133.368 74.292
3.45 137.500 74.362
3.46 141.662 74.590
3.47 144.553 74.619
3.48 146.400 74.386
3.49 153.293 74.265
3.50 154.959 73.769
3.51 153.394 72.481
3.52 156.456 70.515
3.53 156.333 67.983
3.54 152.113 65.267
3.55 150.495 62.484
3.56 150.517 59.582
3.57 152.469 56.968
3.58 156.072 55.060
3.59 --undefined-- 60.208
3.60 --undefined-- 67.316
3.61 179.548 72.212
3.62 181.009 75.099
3.63 180.744 76.477
3.64 180.530 77.067
3.65 180.158 77.522
3.66 180.379 78.018
3.67 182.615 78.309
3.68 184.362 77.883
3.69 186.283 76.738
3.70 189.651 76.198
3.71 189.450 76.886
3.72 187.391 77.280
3.73 183.454 76.479
3.74 184.151 74.330
3.75 184.384 71.371
3.76 185.566 68.681
3.77 185.857 65.462
3.78 188.273 61.275
3.79 --undefined-- 62.113
3.80 --undefined-- 69.872
3.81 199.045 74.996
3.82 192.108 76.853
3.83 187.436 76.405
3.84 185.189 75.326
3.85 185.360 74.895
3.86 186.323 75.135
3.87 187.383 75.555
3.88 187.971 75.820
3.89 188.208 76.018
3.90 187.878 76.328
3.91 187.352 76.772
3.92 186.881 76.922
3.93 182.225 76.022
3.94 175.500 73.430
3.95 169.018 68.839
3.96 180.511 62.838
3.97 180.652 58.132
3.98 180.092 56.263
3.99 178.674 56.206
4.00 --undefined-- 57.016
4.01 --undefined-- 64.040
4.02 --undefined-- 71.587
4.03 189.229 75.682
4.04 188.151 76.943
4.05 182.174 76.770
4.06 178.882 76.075
4.07 176.472 74.664
4.08 173.796 73.259
4.09 179.889 74.481
4.10 184.380 76.390
4.11 181.968 77.238
4.12 172.967 77.381
4.13 172.170 77.291
4.14 172.226 77.442
4.15 172.647 77.766
4.16 172.968 77.934
4.17 173.190 78.015
4.18 172.024 77.675
4.19 165.985 76.249
4.20 160.567 73.607
4.21 164.079 70.442
4.22 164.058 66.954
4.23 168.941 62.875
4.24 165.252 61.266
4.25 164.643 66.434
4.26 150.107 72.519
4.27 145.501 75.789
4.28 133.861 76.562
4.29 124.821 76.075
4.30 119.267 74.976
4.31 111.711 73.634
4.32 108.449 73.025
4.33 108.133 72.538
4.34 112.848 71.890
4.35 116.360 71.581
4.36 118.848 72.158
4.37 120.785 73.601
4.38 122.357 75.097
4.39 124.869 75.999
4.40 127.132 75.986
4.41 127.790 75.313
4.42 125.219 74.538
4.43 122.914 73.770
4.44 120.992 73.207
4.45 119.305 72.934
4.46 117.185 72.593
4.47 119.390 72.497
4.48 119.480 72.629
4.49 120.769 72.654
4.50 121.405 72.332
4.51 122.035 71.603
4.52 122.357 70.629
4.53 124.140 69.860
4.54 129.347 70.096
4.55 137.324 71.178
4.56 143.879 72.332
4.57 147.205 73.208
4.58 148.011 73.618
4.59 147.812 72.892
4.60 149.936 70.340
4.61 149.427 65.967
4.62 149.041 61.395
4.63 153.489 58.854
4.64 152.483 57.356
4.65 152.351 55.806
4.66 --undefined-- 56.708
4.67 --undefined-- 65.504
4.68 187.139 72.269
4.69 185.819 75.456
4.70 175.598 76.210
4.71 174.072 75.642
4.72 173.535 74.679
4.73 174.003 74.327
4.74 174.337 74.593
4.75 172.945 74.776
4.76 171.703 74.783
4.77 169.784 74.749
4.78 166.659 74.676
4.79 161.640 74.230
4.80 156.538 72.792
4.81 149.798 69.659
4.82 140.326 65.217
4.83 161.306 62.476
4.84 154.897 63.842
4.85 135.317 68.144
4.86 132.397 72.069
4.87 118.133 74.018
4.88 112.086 74.233
4.89 111.752 73.783
4.90 109.769 73.452
4.91 101.781 73.034
4.92 101.768 72.378
4.93 102.426 71.625
4.94 100.758 70.681
4.95 99.763 69.410
4.96 95.674 68.103
4.97 93.729 66.573
4.98 --undefined-- 63.823
4.99 --undefined-- 59.857
5.00 --undefined-- 55.699
5.01 --undefined-- 51.114
5.02 --undefined-- 47.278
5.03 --undefined-- 45.563
5.04 --undefined-- 45.468
5.05 --undefined-- 46.087
5.06 --undefined-- 45.258
5.07 --undefined-- 42.485
5.08 --undefined-- 44.918
5.09 --undefined-- 52.928
5.10 85.783 58.603
5.11 87.519 62.187
5.12 102.119 64.516
5.13 104.653 66.147
5.14 103.955 67.352
5.15 102.708 68.268
5.16 102.660 69.024
5.17 101.595 69.567
5.18 102.738 69.819
5.19 104.174 69.922
5.20 105.404 70.166
5.21 106.919 70.651
5.22 108.372 71.316
5.23 111.086 71.952
5.24 114.646 72.370
5.25 119.594 --undefined--
5.26 125.236 --undefined--
5.27 --undefined-- --undefined--
5.28 --undefined-- --undefined--
