Time Pitch Intensity
0.01 --undefined-- --undefined--
0.02 149.189 --undefined--
0.03 149.938 --undefined--
0.04 150.256 --undefined--
0.05 149.777 61.571
0.06 148.731 60.333
0.07 147.519 59.643
0.08 146.717 61.292
0.09 145.911 65.661
0.10 145.039 69.087
0.11 144.347 70.732
0.12 143.684 70.981
0.13 142.153 69.878
0.14 136.194 67.025
0.15 133.699 61.854
0.16 --undefined-- 53.613
0.17 --undefined-- 49.457
0.18 --undefined-- 55.428
0.19 --undefined-- 59.628
0.20 --undefined-- 60.790
0.21 --undefined-- 59.138
0.22 --undefined-- 60.554
0.23 158.984 65.990
0.24 160.722 69.884
0.25 159.657 71.487
0.26 157.095 71.295
0.27 156.211 70.183
0.28 158.173 68.130
0.29 156.131 64.618
0.30 152.850 61.281
0.31 150.251 60.439
0.32 144.817 61.772
0.33 141.743 65.455
0.34 142.921 68.201
0.35 142.731 69.330
0.36 142.429 69.327
0.37 143.407 68.290
0.38 148.930 66.119
0.39 149.849 63.189
0.40 147.922 59.058
0.41 --undefined-- 52.300
0.42 --undefined-- 42.753
0.43 --undefined-- 35.259
0.44 --undefined-- 30.733
0.45 --undefined-- 29.453
0.46 --undefined-- 32.548
0.47 --undefined-- 43.122
0.48 --undefined-- 57.514
0.49 220.250 66.455
0.50 220.952 71.143
0.51 219.276 72.648
0.52 215.111 72.174
0.53 211.694 71.206
0.54 208.989 70.480
0.55 208.044 69.934
0.56 207.731 69.504
0.57 205.811 69.234
0.58 202.526 69.168
0.59 196.789 69.769
0.60 190.264 71.249
0.61 183.098 72.356
0.62 176.095 71.871
0.63 167.201 69.286
0.64 157.752 64.768
0.65 152.749 59.834
0.66 149.159 56.336
0.67 147.034 53.967
0.68 --undefined-- 52.901
0.69 135.888 56.070
0.70 144.970 64.184
0.71 148.531 71.147
0.72 145.766 75.563
0.73 140.368 77.619
0.74 134.290 77.717
0.75 126.369 76.132
0.76 124.016 73.071
0.77 123.971 69.360
0.78 123.779 66.581
0.79 121.710 64.809
0.80 120.801 62.950
0.81 120.358 60.903
0.82 119.681 59.285
0.83 119.546 58.252
0.84 119.657 57.603
0.85 118.878 57.081
0.86 118.486 56.619
0.87 118.720 56.582
0.88 119.787 56.565
0.89 119.683 55.946
0.90 120.178 54.794
0.91 121.069 53.985
0.92 121.474 53.537
0.93 --undefined-- 52.957
0.94 --undefined-- 52.230
0.95 --undefined-- 50.926
0.96 --undefined-- 48.884
0.97 --undefined-- 48.053
0.98 --undefined-- 48.027
0.99 --undefined-- 46.262
1.00 --undefined-- 44.489
1.01 --undefined-- 46.381
1.02 --undefined-- 46.696
1.03 --undefined-- 43.162
1.04 --undefined-- 36.845
1.05 --undefined-- 33.953
1.06 --undefined-- 35.353
1.07 --undefined-- 36.887
1.08 --undefined-- 37.271
1.09 --undefined-- 36.774
1.10 --undefined-- 35.308
1.11 --undefined-- 35.458
1.12 --undefined-- 38.872
1.13 --undefined-- 42.237
1.14 --undefined-- 46.201
1.15 --undefined-- 49.951
1.16 --undefined-- 52.301
1.17 135.337 53.742
1.18 134.241 55.366
1.19 129.334 56.787
1.20 123.362 57.286
1.21 120.325 57.334
1.22 119.223 57.380
1.23 117.082 57.317
1.24 115.143 57.188
1.25 113.722 57.079
1.26 113.215 57.246
1.27 113.681 57.476
1.28 113.938 56.845
1.29 113.666 54.777
1.30 --undefined-- 52.388
1.31 --undefined-- 52.678
1.32 --undefined-- 54.127
1.33 --undefined-- 55.183
1.34 --undefined-- 56.332
1.35 --undefined-- 57.700
1.36 --undefined-- 57.691
1.37 --undefined-- 58.108
1.38 115.390 61.788
1.39 116.170 65.530
1.40 118.491 68.910
1.41 120.730 71.302
1.42 118.100 71.441
1.43 118.319 69.055
1.44 121.078 64.658
1.45 137.422 60.551
1.46 141.609 59.867
1.47 150.861 59.976
1.48 160.812 60.089
1.49 169.238 60.606
1.50 174.425 61.434
1.51 177.915 62.399
1.52 180.185 63.436
1.53 181.534 64.160
1.54 180.464 63.931
1.55 178.320 61.987
1.56 --undefined-- 57.519
1.57 --undefined-- 49.720
1.58 --undefined-- 39.190
1.59 --undefined-- 39.779
1.60 --undefined-- 46.472
1.61 --undefined-- 51.858
1.62 --undefined-- 59.113
1.63 --undefined-- 66.096
1.64 --undefined-- 70.446
1.65 --undefined-- 72.148
1.66 --undefined-- 71.444
1.67 --undefined-- 68.476
1.68 112.774 63.799
1.69 110.825 60.288
1.70 110.838 59.355
1.71 111.761 58.904
1.72 112.302 58.520
1.73 112.052 58.457
1.74 110.804 58.307
1.75 109.898 57.551
1.76 108.959 56.309
1.77 109.322 55.188
1.78 108.205 54.928
1.79 108.831 54.777
1.80 --undefined-- 54.121
1.81 --undefined-- 53.331
1.82 --undefined-- 51.126
1.83 --undefined-- 46.682
1.84 --undefined-- 42.021
1.85 --undefined-- 38.986
1.86 --undefined-- 37.724
1.87 --undefined-- 36.042
1.88 --undefined-- 34.024
1.89 --undefined-- 32.991
1.90 --undefined-- 33.566
1.91 --undefined-- 36.026
1.92 --undefined-- 49.624
1.93 --undefined-- 61.871
1.94 --undefined-- 69.084
1.95 --undefined-- 72.652
1.96 137.587 74.190
1.97 141.461 75.616
1.98 145.812 77.070
1.99 149.889 77.356
2.00 152.678 76.154
2.01 --undefined-- 73.363
2.02 --undefined-- 68.612
2.03 --undefined-- 62.909
2.04 --undefined-- 60.130
2.05 --undefined-- 59.684
2.06 --undefined-- 62.266
2.07 --undefined-- 66.033
2.08 207.042 70.442
2.09 207.282 75.010
2.10 208.928 77.683
2.11 207.144 78.068
2.12 203.429 76.298
2.13 196.782 72.346
2.14 183.380 65.839
2.15 --undefined-- 56.105
2.16 --undefined-- 44.103
2.17 --undefined-- 40.712
2.18 --undefined-- 46.954
2.19 --undefined-- 52.108
2.20 --undefined-- 57.100
2.21 --undefined-- 64.251
2.22 --undefined-- 69.728
2.23 --undefined-- 72.271
2.24 --undefined-- 71.960
2.25 --undefined-- 68.974
2.26 --undefined-- 63.564
2.27 --undefined-- 57.913
2.28 --undefined-- 57.796
2.29 --undefined-- 59.187
2.30 128.401 60.423
2.31 128.487 62.115
2.32 132.178 63.831
2.33 136.349 65.261
2.34 140.060 66.025
2.35 144.115 65.802
2.36 152.073 64.631
2.37 157.146 63.106
2.38 164.800 62.683
2.39 169.452 63.324
2.40 173.672 64.213
2.41 176.950 65.245
2.42 178.820 66.129
2.43 179.065 67.065
2.44 181.301 69.176
2.45 174.593 71.590
2.46 170.854 73.267
2.47 167.305 73.985
2.48 163.235 73.478
2.49 155.601 72.427
2.50 149.850 71.678
2.51 145.793 70.821
2.52 140.584 69.262
2.53 --undefined-- 66.183
2.54 --undefined-- 61.295
2.55 120.685 59.007
2.56 123.616 61.760
2.57 128.446 65.897
2.58 132.657 70.313
2.59 136.953 73.691
2.60 141.459 75.364
2.61 143.691 75.190
2.62 145.539 73.445
2.63 149.859 70.982
2.64 152.663 69.110
2.65 154.438 67.710
2.66 158.605 65.646
2.67 155.841 63.097
2.68 154.477 60.920
2.69 151.879 59.364
2.70 148.927 59.069
2.71 147.413 60.106
2.72 144.642 61.608
2.73 142.032 63.041
2.74 139.235 63.983
2.75 135.569 64.232
2.76 133.414 64.054
2.77 131.581 63.496
2.78 128.382 62.236
2.79 125.055 60.152
2.80 120.636 57.144
2.81 --undefined-- 52.429
2.82 --undefined-- 45.820
2.83 --undefined-- 40.608
2.84 --undefined-- 41.578
2.85 --undefined-- 47.361
2.86 --undefined-- 52.339
2.87 --undefined-- 56.625
2.88 --undefined-- 62.986
2.89 --undefined-- 68.106
2.90 --undefined-- 70.261
2.91 113.371 69.633
2.92 111.586 67.222
2.93 107.563 64.327
2.94 106.887 61.611
2.95 106.613 59.664
2.96 106.058 57.942
2.97 104.168 55.445
2.98 --undefined-- 51.171
2.99 --undefined-- 45.817
3.00 --undefined-- 43.290
3.01 --undefined-- 46.629
3.02 --undefined-- 52.730
3.03 110.627 57.967
3.04 115.730 61.202
3.05 119.128 61.639
3.06 121.138 58.696
3.07 --undefined-- 51.911
3.08 --undefined-- 44.381
3.09 --undefined-- 56.459
3.10 --undefined-- 66.195
3.11 --undefined-- 71.831
3.12 --undefined-- 74.140
3.13 --undefined-- 73.719
3.14 --undefined-- 71.134
3.15 --undefined-- 67.210
3.16 --undefined-- 63.162
3.17 --undefined-- 59.495
3.18 --undefined-- 55.354
3.19 --undefined-- 50.323
3.20 --undefined-- 49.847
3.21 --undefined-- 52.636
3.22 --undefined-- 55.430
3.23 --undefined-- 57.503
3.24 --undefined-- 58.734
3.25 --undefined-- 59.946
3.26 140.535 61.482
3.27 137.691 62.847
3.28 137.187 64.437
3.29 139.044 66.968
3.30 141.409 69.002
3.31 143.068 69.273
3.32 143.115 67.722
3.33 142.994 64.856
3.34 143.159 61.236
3.35 142.483 57.058
3.36 --undefined-- 52.792
3.37 --undefined-- 49.499
3.38 --undefined-- 47.577
3.39 --undefined-- 46.258
3.40 --undefined-- 45.670
3.41 --undefined-- 44.846
3.42 --undefined-- 43.537
3.43 --undefined-- 43.263
3.44 --undefined-- 43.076
3.45 --undefined-- 41.982
3.46 --undefined-- 41.099
3.47 --undefined-- 41.414
3.48 --undefined-- 42.355
3.49 --undefined-- 43.112
3.50 --undefined-- 44.391
3.51 --undefined-- 49.306
3.52 --undefined-- 54.858
3.53 136.342 58.731
3.54 134.784 61.483
3.55 138.478 64.450
3.56 149.144 68.063
3.57 146.967 70.993
3.58 154.365 73.424
3.59 165.851 76.116
3.60 174.952 78.301
3.61 181.491 79.248
3.62 188.544 78.827
3.63 194.046 77.196
3.64 198.701 74.546
3.65 200.014 70.875
3.66 --undefined-- 65.682
3.67 --undefined-- 59.434
3.68 --undefined-- 55.460
3.69 --undefined-- 54.129
3.70 --undefined-- 60.596
3.71 193.638 67.982
3.72 187.045 72.659
3.73 183.441 75.420
3.74 175.595 76.700
3.75 168.322 76.552
3.76 162.741 75.482
3.77 158.662 74.457
3.78 155.435 73.480
3.79 153.906 71.861
3.80 151.834 69.823
3.81 150.046 68.253
3.82 148.639 67.504
3.83 147.301 66.975
3.84 146.687 66.582
3.85 146.745 66.231
3.86 147.814 65.466
3.87 148.969 64.572
3.88 151.534 63.859
3.89 152.864 62.668
3.90 155.251 60.362
3.91 156.272 57.022
3.92 --undefined-- 53.255
3.93 --undefined-- 49.289
3.94 --undefined-- 45.406
3.95 --undefined-- 43.247
3.96 --undefined-- 42.663
3.97 --undefined-- 42.023
3.98 --undefined-- 41.567
3.99 --undefined-- 40.464
4.00 --undefined-- 38.405
4.01 --undefined-- 40.179
4.02 --undefined-- 46.261
4.03 --undefined-- 50.609
4.04 --undefined-- 53.526
4.05 --undefined-- 56.242
4.06 125.909 59.080
4.07 125.167 61.099
4.08 124.387 62.185
4.09 124.024 62.931
4.10 121.863 63.546
4.11 119.292 63.989
4.12 117.852 64.131
4.13 116.986 63.731
4.14 117.056 63.162
4.15 117.206 62.897
4.16 116.450 62.631
4.17 115.787 62.255
4.18 116.113 61.901
4.19 116.815 61.776
4.20 118.579 61.943
4.21 120.090 62.194
4.22 122.607 62.128
4.23 123.901 61.013
4.24 123.676 59.189
4.25 --undefined-- 58.243
4.26 --undefined-- 57.144
4.27 --undefined-- 55.521
4.28 --undefined-- 54.815
4.29 --undefined-- 55.401
4.30 --undefined-- 56.645
4.31 --undefined-- 57.690
4.32 --undefined-- 58.555
4.33 --undefined-- 59.080
4.34 --undefined-- 59.466
4.35 --undefined-- 59.815
4.36 --undefined-- 59.482
4.37 --undefined-- 58.832
4.38 --undefined-- 58.025
4.39 --undefined-- 58.064
4.40 --undefined-- 62.772
4.41 212.646 68.742
4.42 213.461 73.042
4.43 213.743 75.667
4.44 209.182 76.448
4.45 205.428 75.633
4.46 205.793 73.723
4.47 207.822 71.176
4.48 208.562 68.823
4.49 209.099 67.596
4.50 209.226 66.962
4.51 209.635 66.411
4.52 209.111 66.057
4.53 208.789 66.066
4.54 208.446 66.457
4.55 208.525 67.008
4.56 209.518 67.636
4.57 209.893 68.380
4.58 209.631 68.912
4.59 208.854 68.861
4.60 206.771 67.738
4.61 202.453 65.826
4.62 200.041 64.579
4.63 196.664 64.641
4.64 193.067 65.397
4.65 188.704 65.839
4.66 183.131 65.973
4.67 175.745 66.400
4.68 167.755 66.851
4.69 160.539 66.611
4.70 151.926 65.728
4.71 144.210 65.660
4.72 138.671 69.391
4.73 134.427 74.198
4.74 133.800 77.097
4.75 132.462 78.158
4.76 129.786 78.024
4.77 126.807 77.422
4.78 124.110 76.722
4.79 123.833 75.911
4.80 124.116 74.877
4.81 124.149 73.468
4.82 124.181 71.632
4.83 124.213 69.226
4.84 124.208 66.195
4.85 124.292 62.323
4.86 --undefined-- 57.312
4.87 --undefined-- 50.502
4.88 --undefined-- 42.782
4.89 --undefined-- 39.257
4.90 --undefined-- 42.058
4.91 --undefined-- 45.241
4.92 --undefined-- 48.121
4.93 --undefined-- 49.095
4.94 --undefined-- 46.792
4.95 --undefined-- 40.674
4.96 --undefined-- 32.577
4.97 --undefined-- 30.705
4.98 --undefined-- 33.755
4.99 --undefined-- 43.590
5.00 --undefined-- 51.027
5.01 --undefined-- 57.474
5.02 --undefined-- 66.047
5.03 151.157 72.662
5.04 152.523 76.547
5.05 155.167 78.154
5.06 157.976 77.913
5.07 160.787 76.447
5.08 164.723 75.239
5.09 170.004 74.603
5.10 183.366 73.507
5.11 186.370 72.218
5.12 187.653 70.478
5.13 192.033 68.030
5.14 196.402 65.661
5.15 199.620 63.653
5.16 201.209 61.096
5.17 197.589 58.209
5.18 211.511 57.944
5.19 214.990 60.530
5.20 218.113 62.362
5.21 217.467 62.810
5.22 216.385 62.601
5.23 215.139 62.486
5.24 214.412 62.414
5.25 214.104 62.016
5.26 213.406 60.876
5.27 199.202 58.828
5.28 177.158 56.327
5.29 --undefined-- 53.389
5.30 --undefined-- 49.245
5.31 --undefined-- 46.514
5.32 --undefined-- 50.996
5.33 --undefined-- 55.247
5.34 --undefined-- 57.002
5.35 --undefined-- 59.066
5.36 --undefined-- 63.962
5.37 169.892 67.937
5.38 164.865 70.228
5.39 158.860 72.040
5.40 157.938 73.734
5.41 157.409 74.939
5.42 156.455 75.386
5.43 154.684 75.132
5.44 151.150 74.574
5.45 148.180 74.084
5.46 146.010 73.635
5.47 143.111 73.228
5.48 141.070 72.898
5.49 139.646 72.548
5.50 139.032 72.192
5.51 139.210 71.825
5.52 139.440 71.475
5.53 139.720 71.086
5.54 140.128 70.594
5.55 140.261 70.044
5.56 139.425 --undefined--
5.57 138.469 --undefined--
5.58 --undefined-- --undefined--
5.59 --undefined-- --undefined--
