Time Pitch Intensity
0.01 --undefined-- --undefined--
0.02 184.993 --undefined--
0.03 181.446 --undefined--
0.04 178.596 --undefined--
0.05 172.749 73.573
0.06 169.726 71.236
0.07 --undefined-- 68.101
0.08 --undefined-- 64.832
0.09 --undefined-- 62.190
0.10 --undefined-- 59.998
0.11 --undefined-- 58.252
0.12 --undefined-- 57.247
0.13 --undefined-- 57.170
0.14 --undefined-- 56.644
0.15 --undefined-- 54.395
0.16 --undefined-- 52.485
0.17 --undefined-- 54.108
0.18 --undefined-- 56.225
0.19 --undefined-- 57.687
0.20 --undefined-- 59.142
0.21 --undefined-- 59.955
0.22 --undefined-- 59.536
0.23 --undefined-- 57.573
0.24 --undefined-- 53.794
0.25 --undefined-- 48.931
0.26 --undefined-- 47.184
0.27 --undefined-- 51.012
0.28 --undefined-- 53.747
0.29 --undefined-- 55.168
0.30 --undefined-- 55.603
0.31 --undefined-- 55.614
0.32 --undefined-- 55.747
0.33 --undefined-- 55.434
0.34 --undefined-- 53.745
0.35 --undefined-- 52.190
0.36 --undefined-- 53.861
0.37 --undefined-- 54.911
0.38 --undefined-- 55.367
0.39 --undefined-- 56.454
0.40 --undefined-- 56.932
0.41 --undefined-- 55.455
0.42 --undefined-- 52.061
0.43 --undefined-- 49.563
0.44 --undefined-- 49.927
0.45 --undefined-- 52.386
0.46 --undefined-- 54.452
0.47 --undefined-- 54.649
0.48 --undefined-- 52.583
0.49 --undefined-- 49.005
0.50 --undefined-- 47.839
0.51 --undefined-- 49.791
0.52 --undefined-- 50.640
0.53 --undefined-- 54.419
0.54 241.250 59.582
0.55 221.408 62.148
0.56 209.422 63.216
0.57 212.586 64.451
0.58 217.152 65.987
0.59 220.509 67.342
0.60 224.466 68.315
0.61 228.293 68.794
0.62 231.511 68.530
0.63 230.653 67.179
0.64 225.457 64.530
0.65 218.717 60.762
0.66 --undefined-- 58.882
0.67 --undefined-- 63.563
0.68 279.890 68.561
0.69 281.063 71.455
0.70 280.639 72.320
0.71 280.656 71.960
0.72 281.278 71.259
0.73 280.541 70.237
0.74 277.500 68.854
0.75 274.065 68.644
0.76 279.523 69.753
0.77 282.964 70.728
0.78 284.605 71.286
0.79 285.157 71.522
0.80 285.980 71.578
0.81 287.277 71.567
0.82 287.152 71.075
0.83 283.577 69.156
0.84 278.544 64.958
0.85 280.895 58.328
0.86 280.544 53.009
0.87 --undefined-- 53.274
0.88 --undefined-- 54.589
0.89 --undefined-- 56.187
0.90 --undefined-- 58.116
0.91 --undefined-- 59.593
0.92 269.107 61.756
0.93 246.399 64.444
0.94 229.947 66.368
0.95 220.884 67.479
0.96 211.495 68.023
0.97 207.740 68.214
0.98 207.767 67.740
0.99 208.574 65.961
1.00 206.613 62.611
1.01 --undefined-- 58.611
1.02 --undefined-- 56.158
1.03 --undefined-- 55.683
1.04 --undefined-- 55.909
1.05 235.694 58.577
1.06 229.327 60.976
1.07 226.203 61.663
1.08 226.551 61.768
1.09 211.809 62.867
1.10 185.973 64.981
1.11 177.459 66.329
1.12 171.742 66.505
1.13 168.586 66.392
1.14 167.727 66.504
1.15 167.442 66.583
1.16 167.890 66.721
1.17 168.783 66.800
1.18 169.668 66.678
1.19 172.279 66.363
1.20 176.662 66.005
1.21 181.742 66.015
1.22 183.210 65.496
1.23 182.068 63.238
1.24 178.087 59.183
1.25 178.124 55.067
1.26 --undefined-- 52.017
1.27 --undefined-- 50.058
1.28 --undefined-- 55.044
1.29 258.582 61.551
1.30 256.792 65.873
1.31 261.409 68.474
1.32 266.325 69.641
1.33 271.725 69.449
1.34 273.179 68.351
1.35 272.078 67.179
1.36 271.198 66.405
1.37 272.142 66.639
1.38 281.835 68.180
1.39 285.497 69.530
1.40 289.123 70.117
1.41 294.921 70.392
1.42 150.452 70.567
1.43 151.543 70.444
1.44 298.397 69.784
1.45 289.265 68.314
1.46 277.564 65.620
1.47 254.873 61.359
1.48 227.929 56.225
1.49 --undefined-- 52.704
1.50 --undefined-- 52.341
1.51 --undefined-- 53.676
1.52 --undefined-- 54.094
1.53 --undefined-- 53.145
1.54 --undefined-- 52.160
1.55 --undefined-- 54.455
1.56 199.204 59.643
1.57 190.462 63.850
1.58 176.506 66.600
1.59 170.343 68.384
1.60 167.855 69.328
1.61 167.095 69.616
1.62 166.930 69.705
1.63 167.617 69.783
1.64 168.241 69.450
1.65 168.953 68.477
1.66 172.416 67.594
1.67 177.177 67.484
1.68 182.161 67.380
1.69 189.894 66.533
1.70 197.333 65.537
1.71 205.476 65.231
1.72 213.230 65.330
1.73 218.493 65.709
1.74 223.092 66.166
1.75 224.702 66.486
1.76 225.725 66.532
1.77 226.426 66.492
1.78 228.973 66.701
1.79 233.023 67.033
1.80 236.412 67.184
1.81 240.420 67.125
1.82 244.933 67.018
1.83 249.890 66.918
1.84 253.314 67.047
1.85 257.128 67.531
1.86 260.052 68.182
1.87 262.781 68.951
1.88 264.990 69.674
1.89 267.590 70.005
1.90 270.727 70.055
1.91 272.013 70.194
1.92 272.928 70.415
1.93 272.682 70.621
1.94 271.202 70.667
1.95 271.245 70.487
1.96 271.285 70.289
1.97 269.273 70.308
1.98 265.140 70.821
1.99 262.638 71.762
2.00 260.102 72.178
2.01 253.568 72.115
2.02 248.309 72.604
2.03 242.613 73.189
2.04 234.122 73.277
2.05 228.216 72.903
2.06 223.829 72.123
2.07 219.439 71.169
2.08 215.984 70.110
2.09 214.754 69.096
2.10 214.841 68.508
2.11 216.185 68.160
2.12 218.308 67.712
2.13 220.325 67.304
2.14 220.149 66.886
2.15 209.411 65.577
2.16 217.718 63.046
2.17 206.789 59.874
2.18 197.676 57.117
2.19 196.580 55.934
2.20 196.595 56.703
2.21 207.876 59.592
2.22 221.272 62.880
2.23 228.695 65.210
2.24 233.659 66.550
2.25 236.985 67.470
2.26 240.543 68.251
2.27 244.115 68.834
2.28 247.904 68.868
2.29 249.790 67.755
2.30 249.322 65.410
2.31 239.845 63.473
2.32 233.500 63.311
2.33 241.461 64.991
2.34 252.571 67.229
2.35 244.945 68.261
2.36 243.211 68.584
2.37 243.491 68.939
2.38 243.300 68.931
2.39 243.697 68.205
2.40 245.660 67.021
2.41 252.726 66.095
2.42 260.995 65.627
2.43 263.163 64.890
2.44 257.322 63.833
2.45 251.222 63.097
2.46 245.580 62.465
2.47 238.312 61.702
2.48 237.990 61.478
2.49 245.515 62.499
2.50 250.863 64.154
2.51 250.872 65.431
2.52 246.637 66.050
2.53 247.260 66.384
2.54 249.487 66.605
2.55 251.263 66.498
2.56 254.988 66.581
2.57 260.188 67.291
2.58 267.289 67.886
2.59 281.382 68.015
2.60 291.917 68.152
2.61 294.751 67.695
2.62 292.541 65.181
2.63 282.953 59.757
2.64 --undefined-- 53.961
2.65 --undefined-- 55.116
2.66 --undefined-- 55.964
2.67 --undefined-- 54.922
2.68 --undefined-- 52.907
2.69 --undefined-- 50.829
2.70 --undefined-- 49.845
2.71 --undefined-- 49.246
2.72 --undefined-- 52.799
2.73 --undefined-- 60.621
2.74 --undefined-- 66.554
2.75 170.992 69.382
2.76 169.970 70.040
2.77 169.851 70.044
2.78 170.265 70.098
2.79 170.534 70.015
2.80 170.861 69.760
2.81 171.437 69.475
2.82 172.017 69.087
2.83 172.514 68.394
2.84 172.935 67.381
2.85 172.958 66.122
2.86 172.191 64.807
2.87 171.234 63.679
2.88 171.119 62.810
2.89 171.985 62.521
2.90 170.849 62.825
2.91 170.980 63.519
2.92 170.341 64.579
2.93 167.593 65.879
2.94 165.043 67.062
2.95 160.695 67.438
2.96 155.338 66.040
2.97 149.161 62.108
2.98 --undefined-- 56.128
2.99 --undefined-- 51.996
3.00 --undefined-- 51.654
3.01 --undefined-- 57.531
3.02 --undefined-- 62.607
3.03 217.539 65.123
3.04 209.164 66.204
3.05 197.598 66.868
3.06 193.828 67.123
3.07 190.934 66.463
3.08 188.192 65.314
3.09 187.865 64.961
3.10 187.656 65.217
3.11 187.901 65.563
3.12 187.991 65.888
3.13 187.960 66.138
3.14 188.974 65.968
3.15 189.217 64.621
3.16 188.439 61.401
3.17 187.695 56.119
3.18 --undefined-- 50.785
3.19 --undefined-- 50.160
3.20 --undefined-- 51.974
3.21 --undefined-- 52.385
3.22 --undefined-- 51.158
3.23 --undefined-- 52.072
3.24 --undefined-- 58.950
3.25 277.244 64.444
3.26 266.144 66.909
3.27 265.699 67.084
3.28 267.708 66.236
3.29 269.863 65.501
3.30 271.808 65.214
3.31 273.278 65.414
3.32 275.839 66.051
3.33 277.418 66.727
3.34 278.137 67.050
3.35 278.537 67.055
3.36 278.552 66.937
3.37 278.830 66.783
3.38 278.722 66.660
3.39 277.363 66.590
3.40 276.183 66.540
3.41 273.641 66.374
3.42 268.652 65.977
3.43 261.365 65.371
3.44 252.118 65.150
3.45 235.458 67.058
3.46 223.564 70.084
3.47 214.471 72.158
3.48 201.388 73.456
3.49 194.785 74.281
3.50 190.221 74.261
3.51 186.218 73.276
3.52 182.467 71.987
3.53 178.674 70.857
3.54 176.374 69.139
3.55 174.786 65.986
3.56 --undefined-- 61.719
3.57 --undefined-- 57.965
3.58 --undefined-- 55.963
3.59 --undefined-- 54.414
3.60 --undefined-- 51.706
3.61 --undefined-- 48.697
3.62 --undefined-- 47.751
3.63 --undefined-- 49.422
3.64 --undefined-- 52.947
3.65 --undefined-- 53.802
3.66 --undefined-- 51.254
3.67 --undefined-- 47.568
3.68 --undefined-- 45.902
3.69 --undefined-- 44.579
3.70 --undefined-- 46.049
3.71 --undefined-- 48.455
3.72 --undefined-- 48.932
3.73 --undefined-- 49.156
3.74 --undefined-- 51.729
3.75 --undefined-- 52.454
3.76 --undefined-- 50.092
3.77 --undefined-- 46.190
3.78 --undefined-- 45.072
3.79 --undefined-- 47.193
3.80 --undefined-- 52.681
3.81 --undefined-- 57.154
3.82 --undefined-- 58.750
3.83 --undefined-- 58.174
3.84 --undefined-- 56.729
3.85 --undefined-- 57.437
3.86 226.788 61.346
3.87 219.809 64.491
3.88 219.438 66.568
3.89 221.841 68.172
3.90 224.410 69.420
3.91 226.590 70.217
3.92 229.464 70.636
3.93 232.425 70.851
3.94 235.744 70.935
3.95 239.512 70.756
3.96 240.101 69.851
3.97 236.706 67.527
3.98 234.314 63.164
3.99 --undefined-- 56.708
4.00 --undefined-- 50.160
4.01 --undefined-- 48.876
4.02 --undefined-- 53.611
4.03 --undefined-- 58.394
4.04 167.814 62.450
4.05 170.561 65.308
4.06 176.936 66.564
4.07 183.960 67.298
4.08 186.944 68.099
4.09 190.507 68.542
4.10 194.539 68.658
4.11 202.591 68.561
4.12 205.560 68.426
4.13 204.936 68.259
4.14 202.388 67.401
4.15 195.295 65.243
4.16 189.100 61.718
4.17 --undefined-- 59.337
4.18 --undefined-- 60.382
4.19 --undefined-- 61.128
4.20 --undefined-- 60.067
4.21 --undefined-- 56.863
4.22 --undefined-- 51.399
4.23 --undefined-- 50.187
4.24 --undefined-- 56.733
4.25 --undefined-- 61.579
4.26 --undefined-- 63.631
4.27 --undefined-- 62.997
4.28 --undefined-- 59.794
4.29 --undefined-- 55.191
4.30 --undefined-- 55.522
4.31 --undefined-- 59.289
4.32 207.233 63.061
4.33 211.520 65.683
4.34 211.222 66.872
4.35 211.401 67.168
4.36 211.752 67.256
4.37 213.119 67.221
4.38 213.798 66.863
4.39 217.273 66.553
4.40 222.640 66.496
4.41 221.947 66.330
4.42 219.337 65.961
4.43 215.487 65.669
4.44 213.708 66.092
4.45 194.380 67.039
4.46 184.250 67.701
4.47 176.502 67.569
4.48 167.870 66.564
4.49 159.630 65.179
4.50 150.147 63.518
4.51 148.332 61.265
4.52 147.427 59.586
4.53 153.087 59.076
4.54 152.222 58.497
4.55 152.227 58.597
4.56 158.318 60.503
4.57 165.100 62.507
4.58 166.118 62.974
4.59 191.142 62.802
4.60 201.616 63.381
4.61 206.424 64.107
4.62 215.727 65.090
4.63 225.591 66.459
4.64 230.613 67.879
4.65 237.060 69.166
4.66 243.173 69.961
4.67 249.503 69.929
4.68 256.071 69.518
4.69 259.514 68.753
4.70 261.236 66.850
4.71 259.071 63.333
4.72 254.221 58.992
4.73 --undefined-- 55.673
4.74 --undefined-- 53.516
4.75 --undefined-- 53.785
4.76 --undefined-- 54.299
4.77 --undefined-- 57.497
4.78 --undefined-- 63.970
4.79 267.880 68.091
4.80 260.466 69.716
4.81 254.637 69.961
4.82 253.451 69.927
4.83 255.235 69.800
4.84 259.001 68.986
4.85 263.933 67.416
4.86 265.922 66.152
4.87 265.753 65.742
4.88 264.558 65.331
4.89 263.045 64.519
4.90 260.131 63.988
4.91 254.195 64.049
4.92 243.068 63.558
4.93 228.488 61.519
4.94 213.392 58.254
4.95 200.650 55.556
4.96 183.947 54.683
4.97 174.629 55.400
4.98 170.343 56.841
4.99 163.674 58.801
5.00 162.277 60.804
5.01 159.400 62.509
5.02 159.133 63.617
5.03 158.192 63.825
5.04 157.291 63.204
5.05 156.917 --undefined--
5.06 155.817 --undefined--
5.07 --undefined-- --undefined--
5.08 --undefined-- --undefined--
