Time Pitch Intensity
0.01 --undefined-- --undefined--
0.02 --undefined-- --undefined--
0.03 --undefined-- --undefined--
0.04 --undefined-- --undefined--
0.05 --undefined-- 50.433
0.06 --undefined-- 52.657
0.07 --undefined-- 54.901
0.08 --undefined-- 54.233
0.09 172.282 51.605
0.10 170.829 51.733
0.11 205.329 54.549
0.12 203.708 58.111
0.13 193.634 62.657
0.14 190.531 66.548
0.15 190.432 68.640
0.16 193.109 68.548
0.17 201.768 66.723
0.18 217.860 64.978
0.19 227.573 64.443
0.20 231.311 63.875
0.21 248.066 62.393
0.22 248.256 60.864
0.23 250.243 60.667
0.24 256.789 61.498
0.25 259.625 62.146
0.26 261.552 62.638
0.27 262.231 63.165
0.28 260.928 63.504
0.29 257.308 63.480
0.30 250.578 63.450
0.31 244.770 63.296
0.32 238.661 62.224
0.33 221.026 59.763
0.34 --undefined-- 56.105
0.35 --undefined-- 52.135
0.36 --undefined-- 48.822
0.37 --undefined-- 48.185
0.38 --undefined-- 52.854
0.39 --undefined-- 57.458
0.40 --undefined-- 61.587
0.41 --undefined-- 65.493
0.42 --undefined-- 68.320
0.43 162.358 69.664
0.44 159.489 69.683
0.45 152.134 68.897
0.46 151.087 68.025
0.47 151.676 67.481
0.48 154.030 67.225
0.49 157.698 67.009
0.50 159.431 66.610
0.51 162.596 66.094
0.52 166.094 65.778
0.53 167.176 65.327
0.54 179.163 64.368
0.55 188.430 63.061
0.56 197.630 61.861
0.57 215.413 61.673
0.58 221.787 62.242
0.59 228.552 62.870
0.60 234.095 63.345
0.61 241.577 63.902
0.62 250.380 64.779
0.63 251.979 65.635
0.64 254.318 66.187
0.65 255.638 66.553
0.66 255.097 66.895
0.67 253.147 67.158
0.68 249.517 67.178
0.69 242.325 66.938
0.70 236.706 66.605
0.71 230.784 66.229
0.72 215.380 65.920
0.73 204.092 65.888
0.74 189.719 66.058
0.75 178.142 65.956
0.76 173.401 65.188
0.77 172.494 64.248
0.78 181.827 64.022
0.79 182.635 64.046
0.80 182.054 63.826
0.81 180.842 63.254
0.82 180.562 62.677
0.83 179.179 62.446
0.84 176.407 62.873
0.85 175.686 64.863
0.86 169.275 67.470
0.87 162.565 69.055
0.88 158.574 69.440
0.89 156.401 69.374
0.90 157.256 69.038
0.91 159.338 67.985
0.92 164.469 66.626
0.93 164.681 65.759
0.94 166.599 65.485
0.95 169.178 65.766
0.96 171.821 66.133
0.97 175.923 66.363
0.98 182.552 66.151
0.99 193.623 65.018
1.00 205.007 63.085
1.01 215.158 61.550
1.02 228.995 61.252
1.03 239.715 61.816
1.04 241.471 62.361
1.05 230.230 62.343
1.06 227.513 62.169
1.07 232.228 62.468
1.08 237.401 63.186
1.09 241.811 63.849
1.10 262.721 64.489
1.11 282.018 65.016
1.12 294.513 64.862
1.13 298.388 63.829
1.14 292.514 62.051
1.15 283.531 60.335
1.16 274.597 60.291
1.17 296.047 61.742
1.18 298.936 63.196
1.19 269.617 64.245
1.20 --undefined-- 64.795
1.21 --undefined-- 64.516
1.22 200.735 63.125
1.23 200.351 60.247
1.24 205.593 55.735
1.25 --undefined-- 50.947
1.26 --undefined-- 49.746
1.27 --undefined-- 50.574
1.28 --undefined-- 51.283
1.29 --undefined-- 52.141
1.30 --undefined-- 52.245
1.31 --undefined-- 51.573
1.32 --undefined-- 50.882
1.33 --undefined-- 52.500
1.34 --undefined-- 54.289
1.35 --undefined-- 54.077
1.36 --undefined-- 53.861
1.37 --undefined-- 55.094
1.38 --undefined-- 56.488
1.39 --undefined-- 57.887
1.40 --undefined-- 58.350
1.41 --undefined-- 57.824
1.42 --undefined-- 57.411
1.43 --undefined-- 58.880
1.44 180.083 61.522
1.45 176.871 63.353
1.46 175.031 64.419
1.47 176.504 65.251
1.48 180.966 66.008
1.49 183.659 66.732
1.50 185.186 67.359
1.51 186.496 67.493
1.52 186.596 67.158
1.53 186.272 66.705
1.54 185.449 66.383
1.55 184.073 66.164
1.56 181.302 65.846
1.57 177.558 65.223
1.58 173.416 64.854
1.59 172.979 65.148
1.60 173.677 65.468
1.61 173.957 65.431
1.62 175.593 65.184
1.63 177.626 64.950
1.64 178.001 64.807
1.65 177.377 64.971
1.66 176.827 65.452
1.67 176.805 66.036
1.68 176.603 66.393
1.69 175.859 66.289
1.70 175.049 65.745
1.71 173.787 64.977
1.72 172.501 64.243
1.73 172.803 63.788
1.74 173.727 63.511
1.75 174.326 62.978
1.76 175.966 62.496
1.77 176.453 62.573
1.78 176.237 62.570
1.79 174.869 61.486
1.80 174.866 58.397
1.81 --undefined-- 53.536
1.82 --undefined-- 49.781
1.83 --undefined-- 47.566
1.84 --undefined-- 46.281
1.85 --undefined-- 46.094
1.86 --undefined-- 46.960
1.87 --undefined-- 49.131
1.88 --undefined-- 55.710
1.89 --undefined-- 61.509
1.90 --undefined-- 64.632
1.91 185.708 66.163
1.92 182.639 67.083
1.93 180.287 67.348
1.94 177.664 67.033
1.95 175.401 66.464
1.96 173.498 65.499
1.97 169.860 64.487
1.98 167.596 64.233
1.99 166.584 64.203
2.00 166.142 64.240
2.01 166.221 64.411
2.02 167.273 64.369
2.03 167.944 64.129
2.04 168.368 63.670
2.05 169.520 62.585
2.06 172.399 60.814
2.07 177.132 58.957
2.08 179.420 56.907
2.09 176.084 53.725
2.10 --undefined-- 49.330
2.11 --undefined-- 46.097
2.12 --undefined-- 46.250
2.13 --undefined-- 46.524
2.14 --undefined-- 46.938
2.15 --undefined-- 48.757
2.16 --undefined-- 53.191
2.17 --undefined-- 59.196
2.18 213.614 63.055
2.19 205.587 65.263
2.20 199.506 66.763
2.21 196.547 67.936
2.22 195.132 68.981
2.23 193.967 69.932
2.24 193.778 70.865
2.25 193.315 71.705
2.26 193.599 72.276
2.27 195.257 72.552
2.28 197.118 72.615
2.29 198.884 72.649
2.30 199.219 72.748
2.31 198.250 72.590
2.32 198.185 71.688
2.33 197.747 69.984
2.34 194.925 67.621
2.35 190.388 64.089
2.36 196.274 59.103
2.37 196.055 55.143
2.38 195.862 53.793
2.39 196.864 52.945
2.40 --undefined-- 51.112
2.41 --undefined-- 48.169
2.42 --undefined-- 48.750
2.43 --undefined-- 52.502
2.44 --undefined-- 54.368
2.45 --undefined-- 53.621
2.46 --undefined-- 50.487
2.47 --undefined-- 48.800
2.48 --undefined-- 50.014
2.49 --undefined-- 49.090
2.50 --undefined-- 48.759
2.51 --undefined-- 51.220
2.52 --undefined-- 52.641
2.53 --undefined-- 52.468
2.54 --undefined-- 50.859
2.55 --undefined-- 49.826
2.56 --undefined-- 50.198
2.57 --undefined-- 49.283
2.58 --undefined-- 47.573
2.59 --undefined-- 47.352
2.60 --undefined-- 48.329
2.61 --undefined-- 49.601
2.62 --undefined-- 49.731
2.63 --undefined-- 48.619
2.64 --undefined-- 47.271
2.65 --undefined-- 45.540
2.66 --undefined-- 43.542
2.67 --undefined-- 43.181
2.68 --undefined-- 44.061
2.69 --undefined-- 45.085
2.70 --undefined-- 46.674
2.71 --undefined-- 47.333
2.72 --undefined-- 46.529
2.73 --undefined-- 48.164
2.74 --undefined-- 54.382
2.75 255.081 59.395
2.76 241.697 62.988
2.77 244.459 65.549
2.78 246.935 67.968
2.79 252.310 70.654
2.80 255.791 72.662
2.81 259.299 73.860
2.82 262.834 74.342
2.83 266.676 73.849
2.84 269.891 72.413
2.85 274.605 70.798
2.86 277.538 69.371
2.87 275.329 67.029
2.88 270.164 62.753
2.89 269.783 57.766
2.90 271.048 56.374
2.91 --undefined-- 59.983
2.92 160.680 64.474
2.93 158.169 67.291
2.94 158.135 68.179
2.95 159.682 67.739
2.96 162.780 66.766
2.97 164.899 65.837
2.98 163.383 64.557
2.99 156.699 61.784
3.00 145.304 57.050
3.01 156.831 51.885
3.02 --undefined-- 48.876
3.03 --undefined-- 49.122
3.04 --undefined-- 51.416
3.05 --undefined-- 56.043
3.06 160.612 60.636
3.07 165.983 63.357
3.08 176.652 64.476
3.09 184.084 65.119
3.10 185.973 65.892
3.11 184.917 66.522
3.12 184.990 66.858
3.13 184.818 66.877
3.14 183.545 66.734
3.15 183.964 66.949
3.16 184.987 67.325
3.17 183.863 67.599
3.18 180.747 67.622
3.19 174.777 67.600
3.20 168.480 68.087
3.21 162.408 68.626
3.22 153.796 68.547
3.23 281.611 67.953
3.24 259.359 67.281
3.25 239.580 66.158
3.26 219.160 64.648
3.27 221.181 63.807
3.28 225.762 63.180
3.29 238.533 61.716
3.30 237.748 59.184
3.31 211.823 56.438
3.32 214.089 54.639
3.33 212.032 54.231
3.34 193.645 54.933
3.35 203.298 56.432
3.36 207.191 58.221
3.37 235.045 59.981
3.38 227.233 62.403
3.39 207.456 65.708
3.40 195.612 69.073
3.41 188.052 71.455
3.42 181.122 73.075
3.43 175.398 74.309
3.44 282.198 74.797
3.45 271.102 73.939
3.46 261.519 72.222
3.47 --undefined-- 69.904
3.48 --undefined-- 66.149
3.49 --undefined-- 61.294
3.50 --undefined-- 56.941
3.51 --undefined-- 54.686
3.52 --undefined-- 58.052
3.53 --undefined-- 62.564
3.54 --undefined-- 64.632
3.55 --undefined-- 64.092
3.56 --undefined-- 60.802
3.57 --undefined-- 56.176
3.58 --undefined-- 55.645
3.59 --undefined-- 56.862
3.60 --undefined-- 58.233
3.61 178.011 59.084
3.62 175.682 59.485
3.63 176.897 60.735
3.64 172.457 62.243
3.65 163.018 63.101
3.66 158.843 63.658
3.67 157.843 63.607
3.68 156.524 62.965
3.69 155.117 62.531
3.70 154.635 62.462
3.71 154.502 62.361
3.72 154.373 62.158
3.73 154.634 61.895
3.74 154.943 60.967
3.75 152.807 58.899
3.76 147.194 56.937
3.77 161.931 57.605
3.78 167.831 59.156
3.79 173.500 60.017
3.80 180.750 60.813
3.81 190.993 61.847
3.82 204.767 62.687
3.83 214.812 63.495
3.84 221.067 64.523
3.85 227.795 65.782
3.86 232.772 67.052
3.87 236.763 68.131
3.88 238.670 68.859
3.89 238.029 69.037
3.90 233.983 68.767
3.91 226.510 68.640
3.92 217.653 69.093
3.93 209.799 69.474
3.94 198.467 68.886
3.95 187.225 67.091
3.96 173.002 64.281
3.97 167.482 60.607
3.98 --undefined-- 56.060
3.99 --undefined-- 51.123
4.00 --undefined-- 48.641
4.01 --undefined-- 48.454
4.02 --undefined-- 47.631
4.03 --undefined-- 47.147
4.04 --undefined-- 48.408
4.05 --undefined-- 50.644
4.06 --undefined-- 50.907
4.07 --undefined-- 50.520
4.08 --undefined-- 52.172
4.09 --undefined-- 53.412
4.10 --undefined-- 52.243
4.11 --undefined-- 50.098
4.12 --undefined-- 50.903
4.13 --undefined-- 51.884
4.14 --undefined-- 51.513
4.15 --undefined-- 50.259
4.16 --undefined-- 49.438
4.17 --undefined-- 49.113
4.18 --undefined-- 50.343
4.19 --undefined-- 51.915
4.20 --undefined-- 51.229
4.21 --undefined-- 48.607
4.22 --undefined-- 48.234
4.23 --undefined-- 50.129
4.24 --undefined-- 49.660
4.25 --undefined-- 48.092
4.26 --undefined-- 49.170
4.27 --undefined-- 48.820
4.28 --undefined-- 47.835
4.29 --undefined-- 48.978
4.30 --undefined-- 50.744
4.31 --undefined-- 56.717
4.32 --undefined-- 62.072
4.33 205.829 65.248
4.34 210.874 67.279
4.35 214.462 68.785
4.36 217.324 69.233
4.37 219.402 68.703
4.38 221.055 67.790
4.39 221.558 66.520
4.40 220.898 64.589
4.41 215.664 61.447
4.42 200.395 58.444
4.43 237.836 60.031
4.44 241.373 63.405
4.45 239.092 65.578
4.46 240.042 66.358
4.47 242.481 66.393
4.48 246.845 66.406
4.49 251.024 66.662
4.50 256.298 67.007
4.51 262.371 67.209
4.52 269.996 67.168
4.53 279.391 67.102
4.54 292.440 67.052
4.55 153.141 66.723
4.56 157.413 66.093
4.57 157.772 65.370
4.58 157.248 64.208
4.59 299.905 62.342
4.60 273.441 60.041
4.61 257.453 58.567
4.62 240.724 57.862
4.63 276.560 59.315
4.64 283.868 63.451
4.65 --undefined-- 67.386
4.66 --undefined-- 70.184
4.67 124.239 71.078
4.68 124.154 69.990
4.69 --undefined-- 67.849
4.70 --undefined-- 65.639
4.71 --undefined-- 63.440
4.72 --undefined-- 61.015
4.73 --undefined-- 58.571
4.74 --undefined-- 58.600
4.75 --undefined-- 60.357
4.76 176.601 60.859
4.77 180.154 60.817
4.78 176.962 61.120
4.79 172.293 61.547
4.80 167.995 61.331
4.81 165.038 60.121
4.82 155.705 59.031
4.83 153.972 58.882
4.84 153.717 59.300
4.85 154.161 59.876
4.86 155.033 60.168
4.87 154.572 60.128
4.88 155.013 60.098
4.89 155.552 60.139
4.90 156.154 60.021
4.91 157.143 59.570
4.92 158.021 58.696
4.93 159.878 57.498
4.94 --undefined-- 55.121
4.95 --undefined-- 50.720
4.96 --undefined-- 48.194
4.97 --undefined-- 50.101
4.98 --undefined-- 50.647
4.99 --undefined-- 50.545
5.00 --undefined-- 51.869
5.01 --undefined-- --undefined--
5.02 --undefined-- --undefined--
5.03 --undefined-- --undefined--
5.04 --undefined-- --undefined--
