Time Pitch Intensity
0.01 --undefined-- --undefined--
0.02 107.952 --undefined--
0.03 107.402 --undefined--
0.04 106.985 --undefined--
0.05 106.174 61.725
0.06 106.975 63.824
0.07 107.780 65.913
0.08 108.096 67.590
0.09 107.662 68.491
0.10 105.892 69.274
0.11 103.832 70.479
0.12 102.622 71.106
0.13 100.707 70.040
0.14 --undefined-- 66.756
0.15 --undefined-- 61.832
0.16 --undefined-- 58.546
0.17 --undefined-- 57.994
0.18 --undefined-- 56.858
0.19 --undefined-- 54.739
0.20 --undefined-- 52.334
0.21 --undefined-- 49.475
0.22 --undefined-- 45.992
0.23 --undefined-- 42.182
0.24 --undefined-- 38.967
0.25 --undefined-- 37.665
0.26 --undefined-- 37.199
0.27 --undefined-- 36.661
0.28 --undefined-- 37.265
0.29 --undefined-- 38.341
0.30 --undefined-- 38.605
0.31 --undefined-- 38.868
0.32 --undefined-- 39.344
0.33 --undefined-- 39.590
0.34 --undefined-- 40.202
0.35 --undefined-- 40.983
0.36 --undefined-- 41.411
0.37 --undefined-- 41.873
0.38 --undefined-- 42.438
0.39 --undefined-- 42.421
0.40 --undefined-- 42.327
0.41 --undefined-- 42.483
0.42 --undefined-- 42.816
0.43 --undefined-- 43.564
0.44 --undefined-- 43.806
0.45 --undefined-- 43.261
0.46 --undefined-- 42.721
0.47 --undefined-- 42.873
0.48 --undefined-- 43.443
0.49 --undefined-- 43.544
0.50 --undefined-- 43.371
0.51 --undefined-- 42.593
0.52 --undefined-- 41.836
0.53 --undefined-- 41.776
0.54 --undefined-- 41.869
0.55 --undefined-- 42.837
0.56 --undefined-- 44.446
0.57 --undefined-- 44.728
0.58 --undefined-- 43.833
0.59 --undefined-- 42.884
0.60 --undefined-- 41.672
0.61 --undefined-- 40.348
0.62 --undefined-- 39.755
0.63 --undefined-- 39.461
0.64 --undefined-- 39.015
0.65 --undefined-- 38.770
0.66 --undefined-- 38.936
0.67 --undefined-- 39.331
0.68 --undefined-- 39.626
0.69 --undefined-- 39.612
0.70 --undefined-- 39.668
0.71 --undefined-- 46.249
0.72 --undefined-- 54.788
0.73 --undefined-- 59.574
0.74 --undefined-- 63.103
0.75 --undefined-- 66.914
0.76 --undefined-- 68.646
0.77 --undefined-- 68.325
0.78 --undefined-- 67.835
0.79 --undefined-- 68.215
0.80 92.019 68.353
0.81 92.993 67.994
0.82 92.927 67.619
0.83 91.592 67.418
0.84 90.038 67.107
0.85 88.438 66.722
0.86 89.533 66.409
0.87 89.674 65.820
0.88 90.221 65.068
0.89 93.604 64.237
0.90 92.795 62.572
0.91 --undefined-- 59.303
0.92 --undefined-- 53.766
0.93 --undefined-- 45.863
0.94 --undefined-- 39.334
0.95 --undefined-- 40.467
0.96 --undefined-- 46.993
0.97 --undefined-- 53.330
0.98 --undefined-- 58.460
0.99 --undefined-- 62.356
1.00 --undefined-- 64.682
1.01 --undefined-- 65.088
1.02 --undefined-- 64.384
1.03 --undefined-- 63.871
1.04 --undefined-- 64.492
1.05 --undefined-- 67.108
1.06 170.791 68.657
1.07 166.234 67.820
1.08 164.352 64.881
1.09 161.689 61.411
1.10 159.810 60.077
1.11 155.400 60.215
1.12 151.030 60.644
1.13 148.013 61.020
1.14 144.640 61.335
1.15 142.749 61.779
1.16 138.013 61.468
1.17 131.420 59.821
1.18 --undefined-- 58.743
1.19 --undefined-- 59.561
1.20 --undefined-- 60.037
1.21 --undefined-- 59.800
1.22 --undefined-- 59.393
1.23 --undefined-- 59.281
1.24 --undefined-- 59.498
1.25 --undefined-- 59.771
1.26 --undefined-- 60.106
1.27 --undefined-- 60.286
1.28 --undefined-- 61.267
1.29 --undefined-- 64.852
1.30 --undefined-- 67.647
1.31 117.086 68.532
1.32 116.500 68.209
1.33 112.707 67.505
1.34 110.282 67.111
1.35 109.222 67.067
1.36 107.680 67.267
1.37 107.038 67.677
1.38 106.615 67.998
1.39 105.696 67.993
1.40 104.149 67.723
1.41 103.958 67.499
1.42 103.496 67.169
1.43 101.432 66.192
1.44 97.952 64.368
1.45 97.141 61.835
1.46 97.379 58.922
1.47 97.265 56.630
1.48 97.160 58.548
1.49 94.938 62.728
1.50 95.278 64.851
1.51 92.519 64.615
1.52 91.718 62.947
1.53 87.214 60.853
1.54 82.399 58.471
1.55 80.614 56.043
1.56 78.649 54.663
1.57 78.913 54.439
1.58 79.173 54.741
1.59 78.340 55.802
1.60 78.609 56.722
1.61 78.805 56.709
1.62 76.718 55.625
1.63 --undefined-- 53.084
1.64 --undefined-- 49.813
1.65 74.664 48.792
1.66 74.823 49.172
1.67 77.159 49.441
1.68 78.604 49.538
1.69 80.870 49.636
1.70 83.750 49.709
1.71 84.358 49.765
1.72 86.926 49.780
1.73 86.918 49.578
1.74 89.918 50.011
1.75 90.755 52.461
1.76 90.756 55.355
1.77 89.319 57.927
1.78 91.292 60.593
1.79 90.743 63.167
1.80 92.928 64.989
1.81 93.364 65.834
1.82 98.465 65.679
1.83 78.513 64.822
1.84 79.376 63.453
1.85 --undefined-- 61.658
1.86 --undefined-- 60.535
1.87 --undefined-- 58.666
1.88 --undefined-- 54.753
1.89 --undefined-- 51.045
1.90 75.140 49.796
1.91 --undefined-- 49.692
1.92 --undefined-- 49.619
1.93 --undefined-- 49.307
1.94 75.895 49.238
1.95 80.685 49.413
1.96 83.333 49.865
1.97 85.270 50.546
1.98 88.799 50.847
1.99 92.062 51.017
2.00 94.173 52.262
2.01 97.497 56.227
2.02 97.669 60.749
2.03 97.499 63.588
2.04 96.778 64.592
2.05 95.347 63.840
2.06 90.090 61.874
2.07 --undefined-- 59.224
2.08 --undefined-- 56.479
2.09 --undefined-- 56.992
2.10 --undefined-- 58.196
2.11 --undefined-- 57.084
2.12 --undefined-- 53.583
2.13 --undefined-- 50.026
2.14 --undefined-- 47.523
2.15 --undefined-- 44.055
2.16 --undefined-- 40.544
2.17 --undefined-- 39.345
2.18 --undefined-- 38.979
2.19 --undefined-- 39.188
2.20 --undefined-- 39.416
2.21 --undefined-- 39.709
2.22 --undefined-- 40.368
2.23 --undefined-- 40.935
2.24 --undefined-- 41.900
2.25 --undefined-- 42.995
2.26 --undefined-- 43.680
2.27 --undefined-- 44.097
2.28 --undefined-- 44.322
2.29 --undefined-- 44.268
2.30 --undefined-- 43.791
2.31 --undefined-- 43.338
2.32 --undefined-- 43.253
2.33 --undefined-- 43.066
2.34 --undefined-- 43.288
2.35 --undefined-- 43.770
2.36 --undefined-- 43.493
2.37 --undefined-- 42.795
2.38 --undefined-- 42.329
2.39 --undefined-- 42.036
2.40 --undefined-- 41.492
2.41 --undefined-- 40.442
2.42 --undefined-- 39.518
2.43 --undefined-- 39.170
2.44 --undefined-- 39.194
2.45 --undefined-- 39.305
2.46 --undefined-- 39.330
2.47 --undefined-- 39.164
2.48 --undefined-- 39.143
2.49 --undefined-- 38.955
2.50 --undefined-- 38.846
2.51 --undefined-- 39.039
2.52 --undefined-- 38.830
2.53 --undefined-- 38.718
2.54 --undefined-- 39.317
2.55 --undefined-- 39.658
2.56 --undefined-- 39.442
2.57 --undefined-- 39.553
2.58 --undefined-- 43.108
2.59 --undefined-- 47.527
2.60 --undefined-- 50.343
2.61 --undefined-- 53.458
2.62 --undefined-- 58.403
2.63 --undefined-- 61.540
2.64 --undefined-- 63.192
2.65 --undefined-- 65.647
2.66 --undefined-- 66.466
2.67 --undefined-- 65.949
2.68 --undefined-- 66.094
2.69 94.075 65.683
2.70 92.498 65.468
2.71 90.723 65.463
2.72 91.621 64.980
2.73 91.509 64.405
2.74 90.834 63.796
2.75 --undefined-- 61.749
2.76 --undefined-- 56.763
2.77 --undefined-- 48.016
2.78 --undefined-- 39.580
2.79 --undefined-- 38.161
2.80 --undefined-- 38.007
2.81 --undefined-- 37.742
2.82 --undefined-- 38.581
2.83 --undefined-- 49.375
2.84 --undefined-- 60.572
2.85 --undefined-- 67.810
2.86 --undefined-- 71.394
2.87 --undefined-- 71.837
2.88 --undefined-- 69.780
2.89 --undefined-- 65.903
2.90 --undefined-- 60.571
2.91 --undefined-- 54.385
2.92 --undefined-- 49.166
2.93 --undefined-- 43.864
2.94 --undefined-- 39.575
2.95 --undefined-- 37.482
2.96 --undefined-- 37.426
2.97 --undefined-- 37.806
2.98 --undefined-- 37.529
2.99 --undefined-- 36.548
3.00 --undefined-- 35.404
3.01 --undefined-- 35.250
3.02 --undefined-- 36.789
3.03 --undefined-- 39.818
3.04 --undefined-- 42.712
3.05 --undefined-- 44.017
3.06 --undefined-- 45.053
3.07 --undefined-- 48.190
3.08 --undefined-- 51.569
3.09 98.497 53.084
3.10 92.018 53.394
3.11 88.640 53.380
3.12 86.301 52.449
3.13 86.657 50.591
3.14 --undefined-- 48.813
3.15 --undefined-- 47.455
3.16 --undefined-- 46.807
3.17 --undefined-- 47.582
3.18 87.671 49.399
3.19 85.149 50.829
3.20 84.664 51.933
3.21 84.962 52.581
3.22 85.748 52.580
3.23 86.282 52.548
3.24 85.970 52.081
3.25 84.187 51.499
3.26 --undefined-- 53.109
3.27 --undefined-- 56.251
3.28 --undefined-- 58.719
3.29 --undefined-- 60.074
3.30 --undefined-- 60.553
3.31 --undefined-- 59.824
3.32 --undefined-- 58.889
3.33 --undefined-- 59.076
3.34 --undefined-- 59.318
3.35 --undefined-- 59.214
3.36 --undefined-- 58.554
3.37 --undefined-- 57.420
3.38 --undefined-- 59.250
3.39 --undefined-- 64.875
3.40 --undefined-- 68.738
3.41 81.809 69.871
3.42 81.768 68.962
3.43 84.390 67.349
3.44 82.320 66.116
3.45 90.685 66.466
3.46 94.236 67.795
3.47 95.289 68.178
3.48 101.850 67.454
3.49 106.167 66.224
3.50 111.101 64.837
3.51 112.228 63.972
3.52 113.104 63.758
3.53 113.956 63.880
3.54 117.558 64.497
3.55 119.797 65.044
3.56 121.358 65.062
3.57 123.304 64.556
3.58 124.672 63.368
3.59 125.468 61.478
3.60 132.691 60.202
3.61 138.042 60.567
3.62 139.756 60.989
3.63 140.451 60.916
3.64 140.048 60.737
3.65 137.564 60.794
3.66 134.791 60.855
3.67 131.549 60.606
3.68 127.786 60.470
3.69 125.014 61.988
3.70 --undefined-- 66.180
3.71 --undefined-- 69.501
3.72 --undefined-- 70.563
3.73 --undefined-- 69.882
3.74 92.729 68.481
3.75 88.910 67.481
3.76 86.926 67.054
3.77 84.281 67.008
3.78 82.677 66.878
3.79 79.889 66.486
3.80 78.089 66.144
3.81 76.525 65.792
3.82 76.610 65.216
3.83 78.604 64.520
3.84 79.409 63.820
3.85 77.238 63.111
3.86 77.493 62.316
3.87 77.554 61.167
3.88 78.319 59.793
3.89 80.725 58.561
3.90 81.291 57.551
3.91 82.078 55.968
3.92 82.593 53.514
3.93 83.504 50.975
3.94 --undefined-- 49.489
3.95 --undefined-- 48.935
3.96 --undefined-- 47.394
3.97 --undefined-- 44.728
3.98 --undefined-- 43.103
3.99 --undefined-- 41.519
4.00 --undefined-- 40.346
4.01 --undefined-- 39.898
4.02 --undefined-- 40.198
4.03 --undefined-- 40.533
4.04 --undefined-- 39.892
4.05 --undefined-- 39.163
4.06 --undefined-- 39.107
4.07 --undefined-- 39.046
4.08 --undefined-- 39.122
4.09 --undefined-- 39.324
4.10 --undefined-- 38.823
4.11 --undefined-- 38.364
4.12 --undefined-- 38.430
4.13 --undefined-- 38.360
4.14 --undefined-- 38.163
4.15 --undefined-- 37.995
4.16 --undefined-- 37.859
4.17 --undefined-- 37.885
4.18 --undefined-- 37.878
4.19 --undefined-- 38.650
4.20 --undefined-- 39.636
4.21 --undefined-- 44.907
4.22 --undefined-- 51.949
4.23 --undefined-- 55.067
4.24 --undefined-- 55.049
4.25 --undefined-- 57.618
4.26 --undefined-- 63.258
4.27 --undefined-- 67.415
4.28 --undefined-- 69.846
4.29 --undefined-- 70.727
4.30 100.843 70.772
4.31 104.149 70.380
4.32 107.297 69.645
4.33 109.245 68.871
4.34 111.099 67.845
4.35 113.689 66.097
4.36 116.326 63.159
4.37 117.159 58.496
4.38 114.604 52.790
4.39 115.672 48.168
4.40 --undefined-- 44.546
4.41 --undefined-- 40.053
4.42 --undefined-- 36.485
4.43 --undefined-- 37.791
4.44 --undefined-- 44.518
4.45 --undefined-- 49.831
4.46 --undefined-- 53.827
4.47 --undefined-- 57.113
4.48 --undefined-- 61.057
4.49 104.382 65.141
4.50 101.988 67.861
4.51 101.118 69.318
4.52 101.569 69.887
4.53 102.394 69.824
4.54 103.049 69.432
4.55 102.742 69.177
4.56 100.794 69.191
4.57 98.275 69.172
4.58 96.931 68.872
4.59 96.585 68.275
4.60 96.889 67.685
4.61 96.690 67.429
4.62 95.587 67.122
4.63 94.562 66.728
4.64 94.959 66.684
4.65 94.992 66.716
4.66 95.725 66.475
4.67 95.450 65.552
4.68 94.583 63.430
4.69 --undefined-- 60.181
4.70 --undefined-- 56.244
4.71 --undefined-- 54.614
4.72 --undefined-- 56.528
4.73 --undefined-- 57.571
4.74 --undefined-- 58.464
4.75 --undefined-- 59.772
4.76 --undefined-- 60.977
4.77 --undefined-- 61.700
4.78 --undefined-- 61.441
4.79 --undefined-- 60.743
4.80 --undefined-- 59.905
4.81 --undefined-- 59.214
4.82 --undefined-- 58.766
4.83 --undefined-- 61.460
4.84 --undefined-- 66.816
4.85 --undefined-- 70.011
4.86 --undefined-- 70.836
4.87 101.988 70.219
4.88 97.573 69.066
4.89 92.376 67.893
4.90 92.188 67.087
4.91 92.131 66.415
4.92 91.846 65.062
4.93 92.187 63.165
4.94 92.408 61.582
4.95 93.099 59.901
4.96 93.834 58.142
4.97 93.463 56.733
4.98 93.187 55.766
4.99 92.221 55.288
5.00 90.877 54.946
5.01 89.845 54.274
5.02 88.493 52.532
5.03 --undefined-- 49.084
5.04 --undefined-- 44.080
5.05 --undefined-- 39.803
5.06 --undefined-- 38.629
5.07 --undefined-- 38.873
5.08 --undefined-- 40.036
5.09 --undefined-- 40.689
5.10 --undefined-- 42.837
5.11 --undefined-- 46.189
5.12 --undefined-- 48.722
5.13 --undefined-- 50.981
5.14 --undefined-- 53.989
5.15 --undefined-- 55.807
5.16 --undefined-- 56.407
5.17 --undefined-- 57.302
5.18 --undefined-- 57.333
5.19 --undefined-- 55.523
5.20 --undefined-- 52.931
5.21 --undefined-- 52.492
5.22 --undefined-- 53.854
5.23 --undefined-- 54.803
5.24 --undefined-- 55.067
5.25 78.860 54.693
5.26 86.588 54.495
5.27 80.364 54.113
5.28 80.443 53.009
5.29 78.310 52.680
5.30 79.324 52.444
5.31 78.139 51.735
5.32 78.219 51.470
5.33 80.640 51.440
5.34 76.531 51.596
5.35 --undefined-- 51.098
5.36 --undefined-- 49.674
5.37 --undefined-- 48.981
5.38 --undefined-- 50.242
5.39 --undefined-- 51.246
5.40 --undefined-- 49.901
5.41 --undefined-- 46.553
5.42 --undefined-- 43.435
5.43 --undefined-- 40.950
5.44 --undefined-- 39.290
5.45 --undefined-- 38.522
5.46 --undefined-- 38.345
5.47 --undefined-- 38.612
5.48 --undefined-- 38.987
5.49 --undefined-- 39.160
5.50 --undefined-- 38.818
5.51 --undefined-- 38.346
5.52 --undefined-- 38.252
5.53 --undefined-- 38.307
5.54 --undefined-- 38.217
5.55 --undefined-- 38.903
5.56 --undefined-- 47.192
5.57 --undefined-- 55.690
5.58 --undefined-- 59.706
5.59 --undefined-- 59.649
5.60 --undefined-- 56.787
5.61 --undefined-- 55.067
5.62 --undefined-- 55.821
5.63 --undefined-- 57.680
5.64 --undefined-- 59.107
5.65 --undefined-- 58.988
5.66 --undefined-- 56.686
5.67 81.944 53.814
5.68 81.857 52.545
5.69 83.266 51.660
5.70 83.123 50.652
5.71 82.912 50.334
5.72 82.501 52.357
5.73 --undefined-- 57.039
5.74 --undefined-- 60.970
5.75 79.751 62.877
5.76 78.842 63.607
5.77 77.975 64.147
5.78 77.577 64.641
5.79 75.543 64.352
5.80 76.066 63.327
5.81 --undefined-- 61.872
5.82 --undefined-- 59.178
5.83 --undefined-- 54.470
5.84 --undefined-- 48.329
5.85 --undefined-- 43.112
5.86 --undefined-- 40.395
5.87 --undefined-- 38.738
5.88 --undefined-- 38.321
5.89 --undefined-- 38.795
5.90 --undefined-- 39.658
5.91 --undefined-- 43.963
5.92 --undefined-- 48.740
5.93 --undefined-- 52.219
5.94 --undefined-- 58.182
5.95 105.743 63.407
5.96 104.900 66.144
5.97 104.314 67.166
5.98 102.372 67.444
5.99 101.908 67.585
6.00 101.348 67.649
6.01 101.275 67.669
6.02 100.688 67.460
6.03 100.236 66.892
6.04 100.094 66.395
6.05 99.772 66.456
6.06 99.690 67.402
6.07 101.695 68.504
6.08 102.151 68.534
6.09 96.206 66.902
6.10 96.335 64.184
6.11 92.980 62.910
6.12 91.008 63.018
6.13 88.654 63.038
6.14 88.465 62.794
6.15 88.987 62.845
6.16 85.892 63.621
6.17 84.855 65.141
6.18 84.311 67.052
6.19 83.197 68.102
6.20 82.296 --undefined--
6.21 80.671 --undefined--
6.22 --undefined-- --undefined--
6.23 --undefined-- --undefined--
