Time Pitch Intensity
0.01 --undefined-- --undefined--
0.02 --undefined-- --undefined--
0.03 --undefined-- --undefined--
0.04 --undefined-- --undefined--
0.05 --undefined-- 60.352
0.06 --undefined-- 59.891
0.07 --undefined-- 61.522
0.08 --undefined-- 64.234
0.09 175.004 66.323
0.10 170.368 67.455
0.11 168.752 67.070
0.12 165.424 66.003
0.13 163.942 65.725
0.14 165.327 66.162
0.15 169.371 66.889
0.16 175.133 68.174
0.17 184.096 69.631
0.18 193.211 70.017
0.19 203.797 68.692
0.20 227.262 66.363
0.21 231.170 63.486
0.22 219.728 59.385
0.23 --undefined-- 57.620
0.24 --undefined-- 58.156
0.25 --undefined-- 57.350
0.26 235.927 58.791
0.27 245.920 61.800
0.28 233.691 63.231
0.29 233.301 63.924
0.30 244.540 64.745
0.31 252.132 65.521
0.32 245.985 66.494
0.33 --undefined-- 67.732
0.34 --undefined-- 68.471
0.35 78.031 68.162
0.36 78.049 67.008
0.37 78.105 65.982
0.38 83.639 65.284
0.39 --undefined-- 64.481
0.40 --undefined-- 64.003
0.41 --undefined-- 63.161
0.42 --undefined-- 61.071
0.43 --undefined-- 59.947
0.44 --undefined-- 60.160
0.45 --undefined-- 59.491
0.46 --undefined-- 58.998
0.47 --undefined-- 57.973
0.48 --undefined-- 56.842
0.49 --undefined-- 58.568
0.50 --undefined-- 59.660
0.51 --undefined-- 59.238
0.52 284.994 57.925
0.53 287.677 58.145
0.54 --undefined-- 59.037
0.55 281.138 58.876
0.56 286.660 58.442
0.57 286.532 59.669
0.58 273.990 59.945
0.59 270.755 58.532
0.60 270.205 58.413
0.61 --undefined-- 58.078
0.62 --undefined-- 56.641
0.63 --undefined-- 57.098
0.64 --undefined-- 59.232
0.65 --undefined-- 60.685
0.66 --undefined-- 62.029
0.67 --undefined-- 62.268
0.68 --undefined-- 59.909
0.69 --undefined-- 54.285
0.70 --undefined-- 49.699
0.71 --undefined-- 56.356
0.72 --undefined-- 61.730
0.73 --undefined-- 63.474
0.74 --undefined-- 61.946
0.75 --undefined-- 58.637
0.76 --undefined-- 57.467
0.77 --undefined-- 58.601
0.78 --undefined-- 60.000
0.79 --undefined-- 60.970
0.80 --undefined-- 61.192
0.81 219.505 63.128
0.82 209.607 66.299
0.83 201.672 67.884
0.84 191.440 68.472
0.85 185.329 69.410
0.86 180.756 70.582
0.87 176.538 71.322
0.88 174.078 71.544
0.89 175.320 71.774
0.90 179.173 72.483
0.91 182.926 73.488
0.92 186.178 74.143
0.93 188.594 74.106
0.94 191.547 73.676
0.95 196.591 73.213
0.96 204.823 72.866
0.97 214.465 72.422
0.98 226.888 71.615
0.99 239.197 71.015
1.00 256.968 71.521
1.01 274.906 72.741
1.02 287.316 73.874
1.03 --undefined-- 74.643
1.04 158.347 74.908
1.05 165.152 75.039
1.06 170.328 75.091
1.07 173.876 74.778
1.08 175.297 73.987
1.09 174.297 73.064
1.10 171.148 72.507
1.11 168.105 72.065
1.12 163.485 71.640
1.13 154.324 71.631
1.14 277.557 72.278
1.15 261.756 73.709
1.16 248.505 74.636
1.17 232.816 74.426
1.18 218.102 73.886
1.19 210.500 73.673
1.20 205.158 73.688
1.21 201.640 73.568
1.22 199.299 73.070
1.23 201.291 72.405
1.24 203.431 71.741
1.25 204.349 70.963
1.26 204.519 70.429
1.27 202.028 69.651
1.28 192.360 67.830
1.29 188.556 65.455
1.30 190.845 63.374
1.31 199.957 61.353
1.32 --undefined-- 58.711
1.33 --undefined-- 57.683
1.34 214.400 62.085
1.35 195.700 66.527
1.36 191.081 69.061
1.37 188.017 70.306
1.38 187.440 70.967
1.39 188.877 71.509
1.40 190.246 72.163
1.41 191.690 72.217
1.42 196.785 70.923
1.43 207.414 68.563
1.44 222.033 66.933
1.45 232.979 66.671
1.46 242.993 66.416
1.47 251.647 66.230
1.48 257.495 66.440
1.49 260.819 66.339
1.50 260.750 65.223
1.51 255.349 62.599
1.52 --undefined-- 58.383
1.53 --undefined-- 54.003
1.54 --undefined-- 52.230
1.55 --undefined-- 51.751
1.56 --undefined-- 52.242
1.57 --undefined-- 53.008
1.58 264.920 55.073
1.59 261.032 59.981
1.60 244.981 64.779
1.61 229.595 68.730
1.62 222.441 71.352
1.63 217.429 72.285
1.64 209.773 72.223
1.65 209.531 71.866
1.66 211.967 71.057
1.67 216.282 69.991
1.68 218.320 68.966
1.69 213.368 67.709
1.70 212.826 66.695
1.71 222.580 66.592
1.72 235.615 66.866
1.73 250.807 67.002
1.74 261.140 67.322
1.75 266.199 67.707
1.76 271.112 67.769
1.77 274.756 67.572
1.78 277.270 67.491
1.79 279.427 67.647
1.80 278.742 67.305
1.81 272.132 65.430
1.82 255.763 61.679
1.83 --undefined-- 57.102
1.84 --undefined-- 53.296
1.85 --undefined-- 51.169
1.86 --undefined-- 51.878
1.87 --undefined-- 53.016
1.88 --undefined-- 53.197
1.89 --undefined-- 53.801
1.90 --undefined-- 57.237
1.91 --undefined-- 61.359
1.92 --undefined-- 63.013
1.93 --undefined-- 63.873
1.94 217.413 67.243
1.95 210.632 70.090
1.96 207.900 71.243
1.97 205.597 71.168
1.98 202.528 70.522
1.99 199.216 69.959
2.00 195.148 70.076
2.01 191.757 70.676
2.02 190.697 71.009
2.03 189.396 70.812
2.04 187.138 70.505
2.05 185.501 70.428
2.06 184.673 70.569
2.07 186.404 70.532
2.08 187.283 69.694
2.09 187.444 68.512
2.10 188.196 67.528
2.11 189.199 66.109
2.12 188.652 63.946
2.13 182.965 61.028
2.14 182.796 58.933
2.15 226.902 60.161
2.16 223.050 60.545
2.17 --undefined-- 59.438
2.18 --undefined-- 59.707
2.19 --undefined-- 60.676
2.20 208.955 62.537
2.21 202.841 64.518
2.22 196.585 66.065
2.23 192.018 67.585
2.24 190.744 68.800
2.25 191.091 69.343
2.26 190.667 69.382
2.27 189.774 69.153
2.28 189.402 68.775
2.29 189.040 68.412
2.30 187.850 68.256
2.31 185.804 68.224
2.32 183.008 67.675
2.33 177.431 66.410
2.34 176.583 66.392
2.35 183.380 68.125
2.36 184.000 69.365
2.37 182.890 69.595
2.38 181.479 69.317
2.39 180.885 69.138
2.40 180.531 69.354
2.41 179.208 69.622
2.42 175.902 69.078
2.43 173.395 67.969
2.44 173.920 67.887
2.45 175.737 68.796
2.46 177.890 69.640
2.47 176.972 69.978
2.48 174.001 70.165
2.49 170.074 70.595
2.50 167.542 70.672
2.51 166.375 69.790
2.52 166.018 67.786
2.53 164.908 65.271
2.54 164.870 64.128
2.55 165.347 64.249
2.56 163.331 64.347
2.57 163.932 64.197
2.58 164.851 63.958
2.59 165.505 63.870
2.60 166.661 63.906
2.61 167.026 63.900
2.62 167.500 63.940
2.63 165.969 63.981
2.64 163.539 64.132
2.65 171.707 65.274
2.66 171.759 67.097
2.67 169.801 68.460
2.68 168.091 69.130
2.69 166.678 69.111
2.70 166.126 68.209
2.71 165.349 66.330
2.72 167.118 64.501
2.73 170.436 64.184
2.74 171.576 64.551
2.75 172.196 64.811
2.76 172.317 64.805
2.77 172.653 64.641
2.78 173.525 64.488
2.79 172.746 64.372
2.80 170.847 64.160
2.81 171.238 63.942
2.82 169.673 63.346
2.83 165.796 61.822
2.84 160.839 60.176
2.85 163.228 60.792
2.86 166.807 63.571
2.87 166.006 65.748
2.88 163.041 66.425
2.89 162.295 66.538
2.90 161.960 66.848
2.91 162.146 66.987
2.92 162.438 66.875
2.93 163.472 66.851
2.94 162.084 66.816
2.95 159.080 66.481
2.96 159.020 65.883
2.97 157.882 64.814
2.98 156.081 63.178
2.99 161.384 61.322
3.00 153.818 60.025
3.01 --undefined-- 60.000
3.02 217.295 59.634
3.03 213.037 58.157
3.04 211.220 56.903
3.05 --undefined-- 56.492
3.06 --undefined-- 55.706
3.07 --undefined-- 53.715
3.08 --undefined-- 50.895
3.09 --undefined-- 49.701
3.10 --undefined-- 48.874
3.11 --undefined-- 48.467
3.12 --undefined-- 52.736
3.13 --undefined-- 56.178
3.14 --undefined-- 56.058
3.15 --undefined-- 53.174
3.16 --undefined-- 51.885
3.17 --undefined-- 53.869
3.18 --undefined-- 55.803
3.19 --undefined-- 55.738
3.20 287.956 56.400
3.21 284.566 58.270
3.22 284.888 57.404
3.23 --undefined-- 53.444
3.24 --undefined-- 51.708
3.25 --undefined-- 53.600
3.26 --undefined-- 54.984
3.27 --undefined-- 56.067
3.28 --undefined-- 55.729
3.29 --undefined-- 52.903
3.30 --undefined-- 47.810
3.31 --undefined-- 44.776
3.32 --undefined-- 51.301
3.33 263.120 58.797
3.34 249.003 63.890
3.35 234.256 66.754
3.36 227.737 68.298
3.37 228.014 68.928
3.38 227.104 68.238
3.39 218.947 65.800
3.40 197.669 62.463
3.41 --undefined-- 61.069
3.42 297.064 64.058
3.43 267.431 68.565
3.44 257.531 71.529
3.45 240.493 72.721
3.46 222.229 72.438
3.47 210.107 71.817
3.48 201.402 72.139
3.49 193.849 73.217
3.50 191.020 74.256
3.51 189.634 74.695
3.52 190.973 74.352
3.53 194.324 73.279
3.54 201.437 71.415
3.55 204.796 69.199
3.56 205.403 68.595
3.57 206.252 69.237
3.58 207.690 69.185
3.59 209.285 68.197
3.60 208.679 66.237
3.61 205.698 63.032
3.62 208.530 60.473
3.63 207.237 61.153
3.64 219.895 61.296
3.65 210.294 58.660
3.66 --undefined-- 53.311
3.67 --undefined-- 50.232
3.68 --undefined-- 55.646
3.69 --undefined-- 61.814
3.70 --undefined-- 65.823
3.71 192.924 67.954
3.72 185.085 68.736
3.73 176.636 68.569
3.74 173.088 67.749
3.75 169.444 66.768
3.76 167.842 66.113
3.77 168.498 65.565
3.78 169.526 65.104
3.79 171.922 65.050
3.80 174.640 65.145
3.81 176.893 65.354
3.82 177.852 65.878
3.83 179.596 66.712
3.84 181.793 67.536
3.85 183.549 67.937
3.86 185.125 67.673
3.87 185.275 66.326
3.88 185.675 63.245
3.89 187.414 60.236
3.90 195.761 61.486
3.91 256.504 63.004
3.92 246.293 65.273
3.93 223.435 67.967
3.94 216.068 69.997
3.95 210.304 71.575
3.96 207.264 72.680
3.97 206.851 72.954
3.98 208.651 72.554
3.99 211.196 72.049
4.00 213.780 71.529
4.01 217.656 70.859
4.02 221.947 70.001
4.03 226.885 69.188
4.04 231.960 68.968
4.05 234.934 69.115
4.06 240.972 69.107
4.07 252.127 68.811
4.08 274.053 69.523
4.09 287.239 71.555
4.10 291.335 73.078
4.11 --undefined-- 74.047
4.12 153.342 74.839
4.13 153.981 75.215
4.14 152.816 74.967
4.15 297.252 74.067
4.16 282.328 72.744
4.17 267.249 70.916
4.18 251.056 68.002
4.19 253.448 65.169
4.20 265.385 63.309
4.21 260.141 60.241
4.22 263.153 56.284
4.23 266.886 56.354
4.24 291.642 57.825
4.25 288.993 60.790
4.26 296.564 63.008
4.27 292.104 61.908
4.28 282.894 57.793
4.29 281.799 54.527
4.30 286.384 54.030
4.31 293.877 54.555
4.32 --undefined-- 55.466
4.33 --undefined-- 57.108
4.34 --undefined-- 59.035
4.35 --undefined-- 60.528
4.36 --undefined-- 63.129
4.37 --undefined-- 64.095
4.38 --undefined-- 61.850
4.39 --undefined-- 57.079
4.40 --undefined-- 52.908
4.41 --undefined-- 52.806
4.42 --undefined-- 56.234
4.43 --undefined-- 57.637
4.44 --undefined-- 56.075
4.45 --undefined-- 52.587
4.46 --undefined-- 54.126
4.47 --undefined-- 57.962
4.48 --undefined-- 62.914
4.49 180.095 68.795
4.50 182.684 72.543
4.51 184.063 74.437
4.52 186.381 75.402
4.53 189.399 75.964
4.54 191.693 76.213
4.55 193.514 76.054
4.56 195.417 75.565
4.57 196.101 75.234
4.58 196.452 75.104
4.59 196.873 74.763
4.60 197.876 73.957
4.61 199.509 72.829
4.62 200.232 71.851
4.63 200.255 71.540
4.64 197.576 71.844
4.65 194.907 72.599
4.66 191.819 73.436
4.67 189.070 73.246
4.68 186.191 71.029
4.69 188.807 66.835
4.70 189.494 62.871
4.71 195.979 61.132
4.72 196.717 62.757
4.73 --undefined-- 64.348
4.74 --undefined-- 63.507
4.75 254.633 63.539
4.76 214.696 66.072
4.77 207.030 67.996
4.78 191.862 69.730
4.79 185.643 71.043
4.80 182.031 71.123
4.81 177.079 69.980
4.82 172.977 68.323
4.83 171.882 67.041
4.84 171.848 66.549
4.85 171.321 65.505
4.86 169.089 62.826
4.87 170.229 58.740
4.88 170.954 56.769
4.89 --undefined-- 59.664
4.90 --undefined-- 61.131
4.91 --undefined-- 60.103
4.92 --undefined-- 58.329
4.93 --undefined-- 57.828
4.94 --undefined-- 56.659
4.95 --undefined-- 53.328
4.96 --undefined-- --undefined--
4.97 --undefined-- --undefined--
4.98 --undefined-- --undefined--
4.99 --undefined-- --undefined--
