Time Pitch Intensity
0.01 --undefined-- --undefined--
0.02 --undefined-- --undefined--
0.03 --undefined-- --undefined--
0.04 --undefined-- --undefined--
0.05 --undefined-- 37.031
0.06 --undefined-- 38.686
0.07 --undefined-- 39.358
0.08 --undefined-- 38.982
0.09 --undefined-- 37.746
0.10 --undefined-- 36.799
0.11 --undefined-- 37.637
0.12 --undefined-- 38.948
0.13 --undefined-- 39.440
0.14 --undefined-- 38.842
0.15 --undefined-- 37.910
0.16 --undefined-- 37.591
0.17 --undefined-- 38.393
0.18 --undefined-- 39.869
0.19 --undefined-- 40.934
0.20 --undefined-- 41.173
0.21 --undefined-- 41.586
0.22 --undefined-- 46.978
0.23 --undefined-- 57.145
0.24 269.698 64.164
0.25 256.272 67.781
0.26 245.381 69.273
0.27 236.811 69.895
0.28 232.429 70.370
0.29 229.955 70.630
0.30 229.260 70.453
0.31 228.837 69.810
0.32 227.089 69.127
0.33 224.248 69.158
0.34 221.824 69.820
0.35 220.061 70.376
0.36 218.610 70.388
0.37 217.616 69.932
0.38 216.012 69.286
0.39 213.844 68.698
0.40 211.843 68.225
0.41 210.284 67.825
0.42 209.150 67.478
0.43 208.215 67.178
0.44 207.505 66.918
0.45 207.164 66.695
0.46 207.072 66.497
0.47 207.142 66.315
0.48 206.828 66.193
0.49 206.472 66.147
0.50 205.802 66.094
0.51 204.196 65.951
0.52 202.010 65.740
0.53 200.001 65.577
0.54 197.880 65.609
0.55 195.971 66.146
0.56 195.987 67.322
0.57 195.535 68.588
0.58 194.865 69.562
0.59 194.039 70.185
0.60 193.101 70.399
0.61 191.562 70.277
0.62 190.571 69.972
0.63 189.216 69.580
0.64 187.728 69.158
0.65 186.073 68.814
0.66 185.299 68.588
0.67 184.092 68.460
0.68 183.292 68.307
0.69 181.399 68.080
0.70 180.002 67.724
0.71 177.632 67.240
0.72 175.143 66.636
0.73 177.558 66.062
0.74 168.959 65.783
0.75 166.472 65.557
0.76 163.541 65.173
0.77 157.811 64.793
0.78 153.490 64.708
0.79 150.561 64.658
0.80 147.170 64.451
0.81 143.625 64.208
0.82 139.193 63.712
0.83 133.116 62.882
0.84 128.375 62.273
0.85 125.833 62.018
0.86 122.173 61.553
0.87 119.085 60.823
0.88 117.609 60.035
0.89 116.155 59.472
0.90 119.259 59.738
0.91 122.036 60.384
0.92 123.977 60.714
0.93 127.458 60.650
0.94 130.900 60.438
0.95 135.000 60.526
0.96 136.731 61.155
0.97 137.373 61.803
0.98 136.890 61.728
0.99 134.712 60.423
1.00 134.418 57.790
1.01 136.113 54.505
1.02 142.596 52.205
1.03 140.068 51.651
1.04 --undefined-- 51.841
1.05 --undefined-- 54.111
1.06 --undefined-- 60.242
1.07 160.738 65.238
1.08 159.454 67.967
1.09 154.473 69.429
1.10 152.128 70.753
1.11 151.715 71.853
1.12 153.609 72.330
1.13 157.629 72.265
1.14 162.862 71.984
1.15 170.101 71.904
1.16 179.890 72.291
1.17 186.723 72.809
1.18 191.415 72.931
1.19 195.487 72.594
1.20 198.007 72.037
1.21 198.564 71.182
1.22 196.849 69.304
1.23 194.648 65.641
1.24 193.918 59.719
1.25 --undefined-- 52.263
1.26 --undefined-- 48.005
1.27 --undefined-- 47.585
1.28 --undefined-- 46.942
1.29 --undefined-- 47.453
1.30 --undefined-- 48.184
1.31 --undefined-- 47.705
1.32 --undefined-- 47.622
1.33 --undefined-- 48.047
1.34 --undefined-- 48.108
1.35 --undefined-- 48.297
1.36 --undefined-- 48.728
1.37 --undefined-- 48.798
1.38 --undefined-- 48.430
1.39 --undefined-- 48.281
1.40 --undefined-- 48.444
1.41 --undefined-- 48.823
1.42 --undefined-- 49.158
1.43 --undefined-- 49.162
1.44 --undefined-- 48.943
1.45 --undefined-- 48.658
1.46 --undefined-- 48.089
1.47 --undefined-- 47.457
1.48 --undefined-- 47.038
1.49 --undefined-- 47.648
1.50 --undefined-- 54.392
1.51 197.564 61.344
1.52 182.710 65.361
1.53 172.662 67.224
1.54 166.661 68.002
1.55 165.439 68.477
1.56 164.974 68.913
1.57 163.687 70.170
1.58 --undefined-- 72.447
1.59 --undefined-- 73.772
1.60 --undefined-- 73.787
1.61 --undefined-- 73.509
1.62 --undefined-- 73.525
1.63 --undefined-- 73.366
1.64 180.839 72.756
1.65 176.432 71.856
1.66 172.686 70.770
1.67 171.296 69.830
1.68 167.139 69.131
1.69 149.328 67.851
1.70 149.765 64.887
1.71 152.126 60.019
1.72 162.123 54.207
1.73 --undefined-- 49.106
1.74 --undefined-- 47.578
1.75 --undefined-- 48.239
1.76 --undefined-- 48.590
1.77 --undefined-- 48.411
1.78 --undefined-- 47.986
1.79 --undefined-- 47.926
1.80 --undefined-- 48.006
1.81 --undefined-- 47.308
1.82 --undefined-- 46.197
1.83 --undefined-- 45.207
1.84 --undefined-- 43.749
1.85 --undefined-- 41.891
1.86 --undefined-- 40.811
1.87 --undefined-- 40.273
1.88 --undefined-- 38.521
1.89 --undefined-- 36.396
1.90 --undefined-- 38.134
1.91 --undefined-- 40.733
1.92 --undefined-- 44.625
1.93 --undefined-- 54.634
1.94 225.089 61.683
1.95 208.949 65.525
1.96 204.906 67.753
1.97 205.029 69.471
1.98 204.276 70.726
1.99 206.257 71.429
2.00 210.910 71.781
2.01 215.833 71.995
2.02 221.408 72.090
2.03 227.325 72.261
2.04 235.314 72.615
2.05 243.128 72.861
2.06 250.345 72.910
2.07 261.133 72.757
2.08 273.833 72.444
2.09 284.454 72.429
2.10 295.094 72.663
2.11 153.288 72.708
2.12 160.671 72.732
2.13 165.766 73.261
2.14 167.993 73.717
2.15 168.710 73.492
2.16 167.696 72.666
2.17 166.344 71.276
2.18 165.371 69.626
2.19 163.382 68.185
2.20 161.636 67.042
2.21 156.746 66.636
2.22 --undefined-- 66.972
2.23 284.210 68.027
2.24 263.560 69.454
2.25 244.210 70.248
2.26 219.978 69.882
2.27 194.321 69.025
2.28 180.761 68.653
2.29 171.465 68.577
2.30 168.135 68.791
2.31 167.946 69.406
2.32 167.235 69.648
2.33 165.997 68.727
2.34 163.508 66.287
2.35 167.370 62.634
2.36 171.574 58.701
2.37 179.711 55.206
2.38 182.984 52.240
2.39 175.743 49.468
2.40 --undefined-- 54.081
2.41 251.100 62.890
2.42 248.209 68.632
2.43 252.430 71.682
2.44 256.088 72.920
2.45 259.573 73.250
2.46 262.545 73.249
2.47 263.013 72.891
2.48 260.922 72.173
2.49 257.873 71.493
2.50 255.908 71.108
2.51 253.094 70.885
2.52 250.910 70.905
2.53 249.508 71.287
2.54 247.826 71.625
2.55 245.730 71.545
2.56 244.691 71.140
2.57 244.027 70.777
2.58 242.038 70.636
2.59 239.437 70.799
2.60 237.545 71.335
2.61 238.276 71.666
2.62 240.678 71.342
2.63 238.192 70.719
2.64 234.869 70.357
2.65 230.624 70.413
2.66 228.696 70.525
2.67 228.520 69.607
2.68 228.822 66.684
2.69 213.150 61.832
2.70 218.353 55.822
2.71 --undefined-- 48.592
2.72 --undefined-- 42.938
2.73 --undefined-- 40.441
2.74 --undefined-- 45.952
2.75 --undefined-- 56.492
2.76 --undefined-- 62.770
2.77 --undefined-- 65.007
2.78 --undefined-- 63.970
2.79 --undefined-- 61.149
2.80 --undefined-- 59.363
2.81 --undefined-- 59.386
2.82 --undefined-- 59.832
2.83 --undefined-- 61.422
2.84 202.519 63.963
2.85 213.110 66.198
2.86 214.337 67.833
2.87 208.479 68.769
2.88 202.068 68.979
2.89 197.068 68.675
2.90 194.785 68.138
2.91 193.186 67.510
2.92 189.828 66.326
2.93 183.579 63.689
2.94 --undefined-- 59.584
2.95 --undefined-- 55.971
2.96 --undefined-- 52.925
2.97 --undefined-- 48.562
2.98 --undefined-- 43.459
2.99 --undefined-- 40.132
3.00 --undefined-- 40.075
3.01 --undefined-- 41.299
3.02 --undefined-- 45.518
3.03 --undefined-- 55.533
3.04 205.612 62.704
3.05 198.321 66.493
3.06 193.332 68.022
3.07 191.927 68.224
3.08 193.484 67.601
3.09 195.158 66.244
3.10 191.734 63.904
3.11 189.590 60.556
3.12 189.562 56.015
3.13 --undefined-- 49.807
3.14 --undefined-- 46.318
3.15 --undefined-- 52.814
3.16 --undefined-- 60.852
3.17 233.053 66.164
3.18 228.111 68.558
3.19 224.507 68.846
3.20 222.457 68.311
3.21 221.904 67.947
3.22 222.115 67.892
3.23 222.474 67.775
3.24 222.227 67.193
3.25 219.349 65.769
3.26 210.937 63.093
3.27 205.418 58.786
3.28 --undefined-- 52.508
3.29 --undefined-- 45.775
3.30 --undefined-- 43.932
3.31 --undefined-- 44.213
3.32 --undefined-- 44.454
3.33 --undefined-- 44.711
3.34 --undefined-- 44.428
3.35 --undefined-- 43.885
3.36 --undefined-- 43.283
3.37 --undefined-- 42.444
3.38 --undefined-- 42.241
3.39 --undefined-- 42.658
3.40 --undefined-- 42.301
3.41 --undefined-- 40.841
3.42 --undefined-- 39.927
3.43 --undefined-- 43.643
3.44 --undefined-- 53.950
3.45 251.816 63.233
3.46 242.248 68.800
3.47 230.361 71.458
3.48 219.019 72.210
3.49 211.783 72.002
3.50 209.175 71.448
3.51 208.245 70.583
3.52 207.429 69.383
3.53 206.782 68.304
3.54 206.682 67.740
3.55 205.567 67.564
3.56 203.737 67.551
3.57 202.005 67.559
3.58 200.842 67.595
3.59 200.223 67.678
3.60 199.695 67.697
3.61 198.794 67.565
3.62 198.073 67.307
3.63 197.084 66.985
3.64 195.331 66.687
3.65 192.604 66.892
3.66 196.144 68.207
3.67 197.779 69.810
3.68 197.768 70.891
3.69 196.875 71.354
3.70 195.286 71.358
3.71 193.188 71.104
3.72 190.896 70.631
3.73 187.897 69.848
3.74 184.725 68.715
3.75 173.771 67.649
3.76 168.693 66.948
3.77 159.190 66.224
3.78 154.522 65.614
3.79 149.366 65.440
3.80 146.329 65.290
3.81 144.930 64.790
3.82 141.770 63.917
3.83 139.175 63.125
3.84 138.297 62.732
3.85 138.996 62.603
3.86 140.463 62.624
3.87 142.079 62.631
3.88 143.766 62.570
3.89 146.056 62.760
3.90 148.197 63.435
3.91 149.505 64.180
3.92 151.831 64.569
3.93 154.501 64.712
3.94 158.132 64.829
3.95 159.909 65.090
3.96 160.917 65.661
3.97 163.934 66.264
3.98 163.944 66.985
3.99 164.037 68.092
4.00 164.955 69.100
4.01 163.359 69.850
4.02 160.604 70.552
4.03 161.668 70.968
4.04 169.377 71.211
4.05 178.449 71.381
4.06 189.608 71.315
4.07 198.750 70.906
4.08 207.148 69.714
4.09 214.237 67.188
4.10 216.777 62.735
4.11 --undefined-- 55.991
4.12 --undefined-- 48.634
4.13 --undefined-- 46.849
4.14 --undefined-- 50.082
4.15 --undefined-- 55.140
4.16 --undefined-- 57.377
4.17 --undefined-- 56.048
4.18 --undefined-- 52.070
4.19 --undefined-- 50.004
4.20 --undefined-- 50.398
4.21 --undefined-- 49.982
4.22 --undefined-- 48.567
4.23 --undefined-- 47.143
4.24 --undefined-- 45.649
4.25 --undefined-- 44.430
4.26 --undefined-- 44.989
4.27 --undefined-- 45.606
4.28 --undefined-- 44.370
4.29 --undefined-- 41.932
4.30 --undefined-- 40.555
4.31 --undefined-- 39.955
4.32 --undefined-- 40.214
4.33 --undefined-- 43.775
4.34 --undefined-- 51.618
4.35 --undefined-- 59.771
4.36 227.373 65.463
4.37 230.480 68.726
4.38 232.934 69.663
4.39 238.652 68.689
4.40 243.941 68.244
4.41 258.282 69.952
4.42 277.878 71.234
4.43 157.664 71.490
4.44 173.499 71.058
4.45 183.250 70.265
4.46 186.119 69.738
4.47 182.080 69.838
4.48 177.352 70.078
4.49 172.196 70.504
4.50 166.174 71.550
4.51 159.066 72.694
4.52 299.269 73.388
4.53 280.247 74.055
4.54 270.953 74.806
4.55 264.435 75.289
4.56 258.787 75.441
4.57 254.690 75.346
4.58 250.138 75.104
4.59 246.202 74.956
4.60 243.863 74.921
4.61 241.270 74.761
4.62 239.712 74.405
4.63 239.623 73.730
4.64 236.687 72.758
4.65 234.012 72.131
4.66 231.026 71.954
4.67 228.439 71.972
4.68 227.394 71.853
4.69 225.551 71.378
4.70 223.296 71.057
4.71 223.360 71.097
4.72 223.471 70.985
4.73 224.296 70.237
4.74 226.403 69.391
4.75 233.952 69.944
4.76 239.236 71.117
4.77 245.241 71.870
4.78 255.904 72.019
4.79 267.096 71.739
4.80 273.503 71.523
4.81 280.866 71.347
4.82 287.650 70.931
4.83 292.444 70.505
4.84 294.024 70.448
4.85 293.659 70.896
4.86 292.515 71.547
4.87 289.716 71.917
4.88 284.786 71.462
4.89 278.044 69.752
4.90 267.290 66.668
4.91 244.678 62.659
4.92 238.455 59.248
4.93 252.871 56.464
4.94 245.728 55.632
4.95 218.863 60.523
4.96 228.146 66.105
4.97 233.641 70.063
4.98 231.578 72.427
4.99 221.426 73.316
5.00 204.814 73.159
5.01 188.493 72.514
5.02 180.848 71.577
5.03 179.155 70.536
5.04 179.702 69.762
5.05 178.282 69.673
5.06 178.300 70.034
5.07 178.731 70.374
5.08 179.570 70.557
5.09 180.004 70.713
5.10 180.192 70.900
5.11 180.977 71.048
5.12 181.320 71.099
5.13 181.465 71.046
5.14 181.179 70.959
5.15 181.125 --undefined--
5.16 180.763 --undefined--
5.17 --undefined-- --undefined--
5.18 --undefined-- --undefined--
