Time Pitch Intensity
0.01 --undefined-- --undefined--
0.02 209.744 --undefined--
0.03 226.022 --undefined--
0.04 244.967 --undefined--
0.05 259.818 72.589
0.06 270.249 71.989
0.07 281.416 71.173
0.08 290.728 70.475
0.09 152.700 69.631
0.10 156.619 68.047
0.11 158.707 65.188
0.12 127.873 62.416
0.13 127.728 61.886
0.14 127.114 62.156
0.15 124.775 62.224
0.16 122.734 62.221
0.17 122.182 62.097
0.18 119.768 61.627
0.19 118.636 61.022
0.20 117.052 60.437
0.21 117.113 60.053
0.22 116.319 59.844
0.23 116.068 59.595
0.24 116.065 59.246
0.25 115.774 58.742
0.26 115.359 58.056
0.27 114.616 57.177
0.28 113.357 56.266
0.29 108.831 55.224
0.30 107.751 53.836
0.31 107.465 52.795
0.32 106.487 52.339
0.33 104.025 52.351
0.34 102.040 52.576
0.35 100.443 52.427
0.36 98.674 54.255
0.37 --undefined-- 59.861
0.38 194.197 64.299
0.39 185.238 67.019
0.40 187.119 68.897
0.41 188.855 70.237
0.42 189.991 70.905
0.43 190.663 70.765
0.44 190.565 69.667
0.45 184.389 67.269
0.46 170.489 63.192
0.47 --undefined-- 57.514
0.48 --undefined-- 55.134
0.49 --undefined-- 57.659
0.50 --undefined-- 59.255
0.51 --undefined-- 61.326
0.52 --undefined-- 63.685
0.53 --undefined-- 67.524
0.54 221.377 71.526
0.55 212.839 73.631
0.56 190.435 74.471
0.57 179.232 74.906
0.58 165.293 75.015
0.59 157.506 74.492
0.60 --undefined-- 72.941
0.61 --undefined-- 69.925
0.62 --undefined-- 64.909
0.63 --undefined-- 57.507
0.64 --undefined-- 51.350
0.65 --undefined-- 48.563
0.66 --undefined-- 46.230
0.67 --undefined-- 45.058
0.68 --undefined-- 49.835
0.69 --undefined-- 55.492
0.70 --undefined-- 57.115
0.71 --undefined-- 54.412
0.72 --undefined-- 47.825
0.73 --undefined-- 43.829
0.74 --undefined-- 45.523
0.75 --undefined-- 51.393
0.76 169.093 58.598
0.77 158.821 62.976
0.78 145.500 65.326
0.79 143.251 67.158
0.80 145.553 69.169
0.81 149.367 70.954
0.82 152.570 71.926
0.83 155.774 72.121
0.84 157.805 71.913
0.85 159.134 70.812
0.86 152.431 67.918
0.87 156.273 63.165
0.88 155.034 57.549
0.89 --undefined-- 53.002
0.90 --undefined-- 57.465
0.91 192.156 64.820
0.92 177.033 69.205
0.93 165.613 70.666
0.94 156.036 70.287
0.95 150.760 69.257
0.96 145.449 68.474
0.97 149.618 67.971
0.98 147.822 66.866
0.99 143.094 64.706
1.00 137.893 61.322
1.01 154.600 56.494
1.02 --undefined-- 49.877
1.03 --undefined-- 42.907
1.04 --undefined-- 43.667
1.05 --undefined-- 49.277
1.06 --undefined-- 53.993
1.07 --undefined-- 60.266
1.08 172.147 66.197
1.09 170.013 69.698
1.10 165.996 71.085
1.11 160.370 71.133
1.12 153.649 70.965
1.13 151.765 71.019
1.14 147.648 70.618
1.15 142.619 69.660
1.16 142.949 68.688
1.17 140.533 67.948
1.18 140.007 67.432
1.19 141.064 66.892
1.20 142.858 65.746
1.21 140.072 63.152
1.22 144.676 58.169
1.23 --undefined-- 50.271
1.24 --undefined-- 43.012
1.25 --undefined-- 40.682
1.26 --undefined-- 38.389
1.27 --undefined-- 42.177
1.28 --undefined-- 49.436
1.29 --undefined-- 53.608
1.30 --undefined-- 57.540
1.31 --undefined-- 63.545
1.32 176.671 67.856
1.33 169.182 69.390
1.34 159.362 68.820
1.35 151.833 67.082
1.36 139.935 65.043
1.37 133.500 63.029
1.38 131.436 60.920
1.39 146.382 60.109
1.40 149.479 61.103
1.41 138.808 62.489
1.42 137.976 63.882
1.43 142.496 65.567
1.44 146.282 67.245
1.45 149.473 67.843
1.46 150.216 66.630
1.47 152.998 63.350
1.48 152.339 58.221
1.49 --undefined-- 51.941
1.50 --undefined-- 46.384
1.51 --undefined-- 43.761
1.52 --undefined-- 43.472
1.53 --undefined-- 47.842
1.54 --undefined-- 55.440
1.55 163.315 62.072
1.56 154.727 65.900
1.57 147.270 67.085
1.58 139.387 66.401
1.59 139.239 64.302
1.60 142.771 60.273
1.61 --undefined-- 53.615
1.62 --undefined-- 45.611
1.63 --undefined-- 42.206
1.64 --undefined-- 41.243
1.65 --undefined-- 38.477
1.66 --undefined-- 34.126
1.67 --undefined-- 33.101
1.68 --undefined-- 42.608
1.69 --undefined-- 48.928
1.70 --undefined-- 50.675
1.71 --undefined-- 51.146
1.72 --undefined-- 55.959
1.73 --undefined-- 61.620
1.74 175.520 66.355
1.75 172.378 69.362
1.76 169.658 70.639
1.77 165.931 70.751
1.78 164.106 70.324
1.79 163.534 69.761
1.80 161.060 69.094
1.81 158.243 68.532
1.82 161.625 68.489
1.83 164.131 68.668
1.84 164.154 68.643
1.85 164.118 68.502
1.86 164.066 68.473
1.87 163.974 68.604
1.88 162.433 68.639
1.89 158.871 68.163
1.90 155.058 66.628
1.91 151.011 63.429
1.92 147.548 58.833
1.93 --undefined-- 56.582
1.94 --undefined-- 58.746
1.95 --undefined-- 62.340
1.96 159.760 65.690
1.97 160.349 67.736
1.98 150.744 68.738
1.99 146.291 69.103
2.00 139.371 68.766
2.01 138.084 68.207
2.02 140.053 67.897
2.03 139.497 67.672
2.04 137.583 67.344
2.05 137.231 66.800
2.06 136.980 66.001
2.07 136.292 65.161
2.08 133.604 64.402
2.09 133.973 63.601
2.10 133.746 63.004
2.11 134.031 62.596
2.12 133.522 61.765
2.13 138.964 60.105
2.14 136.831 57.515
2.15 136.613 53.991
2.16 --undefined-- 50.366
2.17 --undefined-- 48.187
2.18 --undefined-- 47.274
2.19 --undefined-- 46.985
2.20 --undefined-- 47.107
2.21 --undefined-- 48.110
2.22 --undefined-- 50.063
2.23 --undefined-- 55.827
2.24 --undefined-- 63.919
2.25 187.314 69.132
2.26 181.118 71.517
2.27 169.236 72.048
2.28 160.099 71.384
2.29 145.291 69.798
2.30 136.538 67.817
2.31 131.737 65.575
2.32 127.254 63.324
2.33 135.142 62.907
2.34 138.829 63.581
2.35 138.366 64.093
2.36 137.782 64.548
2.37 138.766 64.991
2.38 140.350 65.425
2.39 142.590 65.912
2.40 143.789 66.418
2.41 145.387 66.726
2.42 146.669 66.811
2.43 147.191 66.682
2.44 146.714 65.813
2.45 146.049 63.270
2.46 160.606 58.575
2.47 170.291 53.711
2.48 167.564 50.952
2.49 --undefined-- 48.713
2.50 --undefined-- 47.998
2.51 --undefined-- 48.673
2.52 --undefined-- 49.958
2.53 --undefined-- 51.507
2.54 --undefined-- 53.879
2.55 --undefined-- 56.588
2.56 --undefined-- 60.103
2.57 240.923 65.571
2.58 242.903 69.536
2.59 247.383 71.244
2.60 254.785 71.726
2.61 262.111 72.147
2.62 260.128 72.591
2.63 257.766 72.810
2.64 257.294 72.824
2.65 254.922 72.325
2.66 253.189 71.371
2.67 253.269 70.598
2.68 248.296 69.869
2.69 241.859 68.845
2.70 236.599 67.387
2.71 232.964 65.183
2.72 232.697 62.109
2.73 235.701 58.756
2.74 242.815 55.900
2.75 253.255 53.091
2.76 --undefined-- 49.042
2.77 --undefined-- 42.997
2.78 --undefined-- 37.260
2.79 --undefined-- 33.808
2.80 --undefined-- 31.317
2.81 --undefined-- 30.538
2.82 --undefined-- 30.676
2.83 --undefined-- 30.729
2.84 --undefined-- 30.142
2.85 --undefined-- 28.816
2.86 --undefined-- 27.412
2.87 --undefined-- 28.062
2.88 --undefined-- 29.752
2.89 --undefined-- 31.030
2.90 --undefined-- 31.185
2.91 --undefined-- 30.436
2.92 --undefined-- 30.320
2.93 --undefined-- 31.199
2.94 --undefined-- 32.314
2.95 --undefined-- 33.679
2.96 --undefined-- 34.138
2.97 --undefined-- 33.392
2.98 --undefined-- 33.384
2.99 --undefined-- 34.614
3.00 --undefined-- 35.037
3.01 --undefined-- 34.495
3.02 --undefined-- 33.982
3.03 --undefined-- 33.251
3.04 --undefined-- 31.741
3.05 --undefined-- 29.372
3.06 --undefined-- 25.078
3.07 --undefined-- 17.143
3.08 --undefined-- 4.715
3.09 --undefined-- -2.195
3.10 --undefined-- -2.332
3.11 --undefined-- -2.333
3.12 --undefined-- -2.417
3.13 --undefined-- -2.563
3.14 --undefined-- -1.870
3.15 --undefined-- 8.488
3.16 --undefined-- 20.854
3.17 --undefined-- 28.168
3.18 --undefined-- 31.644
3.19 --undefined-- 32.803
3.20 --undefined-- 33.046
3.21 --undefined-- 32.735
3.22 --undefined-- 32.065
3.23 --undefined-- 30.722
3.24 --undefined-- 28.880
3.25 --undefined-- 28.165
3.26 --undefined-- 29.786
3.27 --undefined-- 31.201
3.28 --undefined-- 30.864
3.29 --undefined-- 29.918
3.30 --undefined-- 30.287
3.31 --undefined-- 34.724
3.32 --undefined-- 39.442
3.33 --undefined-- 49.378
3.34 --undefined-- 58.963
3.35 232.100 65.168
3.36 205.777 69.640
3.37 212.752 73.044
3.38 197.595 75.051
3.39 195.068 76.041
3.40 192.853 76.594
3.41 192.045 76.763
3.42 192.498 76.546
3.43 196.138 76.162
3.44 204.843 75.867
3.45 218.831 75.606
3.46 237.149 75.038
3.47 255.392 74.354
3.48 269.349 73.799
3.49 288.902 73.777
3.50 151.373 74.656
3.51 155.814 75.629
3.52 157.833 76.149
3.53 159.966 76.410
3.54 163.113 76.795
3.55 165.572 77.103
3.56 166.099 77.165
3.57 164.332 76.927
3.58 160.785 76.007
3.59 156.599 73.909
3.60 299.555 70.911
3.61 279.543 68.845
3.62 257.716 69.207
3.63 242.069 71.533
3.64 232.565 73.889
3.65 223.674 75.150
3.66 213.690 75.182
3.67 201.877 74.763
3.68 195.775 74.580
3.69 193.644 74.383
3.70 194.435 74.431
3.71 198.310 74.728
3.72 204.293 74.744
3.73 209.423 74.575
3.74 216.550 74.149
3.75 226.719 72.841
3.76 236.482 70.209
3.77 219.128 65.935
3.78 206.610 59.881
3.79 218.870 53.704
3.80 --undefined-- 50.423
3.81 --undefined-- 52.291
3.82 --undefined-- 57.055
3.83 --undefined-- 61.114
3.84 --undefined-- 66.058
3.85 156.475 71.874
3.86 155.327 75.583
3.87 154.963 76.942
3.88 154.789 76.409
3.89 155.133 74.596
3.90 155.338 72.397
3.91 156.096 70.944
3.92 158.084 70.622
3.93 159.412 70.889
3.94 158.809 71.328
3.95 157.317 71.622
3.96 155.105 71.591
3.97 152.531 71.174
3.98 296.241 70.030
3.99 285.047 67.568
4.00 279.189 63.236
4.01 --undefined-- 57.564
4.02 --undefined-- 62.738
4.03 --undefined-- 70.594
4.04 --undefined-- 74.850
4.05 229.524 76.585
4.06 211.465 76.739
4.07 196.273 76.406
4.08 186.803 75.934
4.09 179.047 75.013
4.10 173.505 73.844
4.11 169.603 72.979
4.12 167.380 72.413
4.13 167.941 71.681
4.14 172.266 70.756
4.15 179.093 70.410
4.16 188.804 70.904
4.17 198.154 71.356
4.18 208.664 71.422
4.19 213.057 71.534
4.20 219.388 71.696
4.21 224.085 71.683
4.22 223.994 71.563
4.23 220.046 71.073
4.24 211.548 70.107
4.25 205.262 68.904
4.26 201.993 67.580
4.27 201.263 66.550
4.28 202.180 66.559
4.29 199.435 67.337
4.30 193.289 68.287
4.31 187.081 69.204
4.32 180.978 69.842
4.33 176.995 70.326
4.34 173.402 70.886
4.35 170.252 71.353
4.36 166.399 71.451
4.37 164.571 71.245
4.38 163.878 71.002
4.39 165.376 70.979
4.40 168.460 71.150
4.41 173.293 71.238
4.42 178.434 71.210
4.43 184.782 71.367
4.44 188.191 71.538
4.45 190.945 71.053
4.46 190.844 69.785
4.47 184.055 68.223
4.48 180.598 66.907
4.49 176.970 65.869
4.50 176.707 65.018
4.51 180.451 64.709
4.52 181.066 65.624
4.53 178.999 67.816
4.54 170.016 70.444
4.55 164.066 72.265
4.56 160.450 72.468
4.57 156.932 71.084
4.58 153.330 69.163
4.59 148.591 67.477
4.60 138.742 65.336
4.61 137.769 62.922
4.62 75.208 61.181
4.63 78.199 59.861
4.64 78.634 58.940
4.65 78.640 58.616
4.66 80.445 57.893
4.67 83.433 56.685
4.68 81.526 55.712
4.69 80.162 55.569
4.70 81.531 56.218
4.71 82.860 57.369
4.72 86.866 59.119
4.73 88.969 60.762
4.74 85.938 62.109
4.75 83.615 63.351
4.76 83.065 64.304
4.77 82.195 64.893
4.78 80.951 65.772
4.79 --undefined-- 67.409
4.80 --undefined-- 68.613
4.81 --undefined-- 68.808
4.82 --undefined-- 68.629
4.83 --undefined-- 68.544
4.84 --undefined-- 67.823
4.85 --undefined-- 66.029
4.86 --undefined-- 64.250
4.87 143.278 63.505
4.88 150.439 63.269
4.89 153.051 62.674
4.90 154.672 61.220
4.91 155.005 58.650
4.92 158.123 54.631
4.93 --undefined-- 48.413
4.94 --undefined-- 42.232
4.95 --undefined-- 41.183
4.96 --undefined-- 43.017
4.97 --undefined-- 46.406
4.98 --undefined-- 49.562
4.99 --undefined-- 52.868
5.00 --undefined-- 57.901
5.01 --undefined-- 63.112
5.02 177.265 66.888
5.03 176.563 69.175
5.04 175.487 70.277
5.05 174.222 70.565
5.06 173.638 70.438
5.07 172.231 70.362
5.08 169.173 70.642
5.09 170.027 70.572
5.10 173.453 69.034
5.11 171.393 65.689
5.12 --undefined-- 61.856
5.13 --undefined-- 60.610
5.14 --undefined-- 60.416
5.15 --undefined-- 60.038
5.16 --undefined-- 60.394
5.17 --undefined-- 61.923
5.18 --undefined-- 63.919
5.19 149.216 65.655
5.20 135.746 66.685
5.21 136.130 66.857
5.22 129.381 65.994
5.23 127.975 64.182
5.24 144.555 63.476
5.25 150.548 64.629
5.26 160.452 66.074
5.27 170.643 67.239
5.28 180.383 67.953
5.29 191.217 68.401
5.30 199.604 68.646
5.31 209.005 68.417
5.32 214.716 67.745
5.33 217.310 66.163
5.34 227.085 63.080
5.35 228.640 58.410
5.36 --undefined-- 53.944
5.37 --undefined-- 54.645
5.38 --undefined-- 54.974
5.39 --undefined-- 53.558
5.40 --undefined-- 58.629
5.41 245.719 66.939
5.42 241.808 71.914
5.43 227.965 73.729
5.44 185.701 73.226
5.45 167.223 71.690
5.46 155.329 69.497
5.47 --undefined-- 66.299
5.48 --undefined-- 62.670
5.49 --undefined-- 59.689
5.50 --undefined-- 57.808
5.51 --undefined-- 58.385
5.52 151.967 61.108
5.53 165.736 64.483
5.54 176.268 67.219
5.55 186.841 69.152
5.56 194.755 70.897
5.57 199.457 72.394
5.58 200.774 73.414
5.59 201.679 73.886
5.60 202.039 73.986
5.61 202.541 74.134
5.62 205.113 74.529
5.63 207.251 75.045
5.64 208.985 75.492
5.65 210.060 75.657
5.66 210.115 75.383
5.67 209.718 74.663
5.68 211.049 73.664
5.69 214.106 72.669
5.70 214.266 --undefined--
5.71 212.629 --undefined--
5.72 --undefined-- --undefined--
5.73 --undefined-- --undefined--
