Time Pitch Intensity
0.01 --undefined-- --undefined--
0.02 139.701 --undefined--
0.03 140.415 --undefined--
0.04 142.391 --undefined--
0.05 145.785 70.355
0.06 148.542 70.993
0.07 151.102 71.436
0.08 154.030 71.610
0.09 157.621 71.704
0.10 160.820 71.937
0.11 164.125 72.157
0.12 171.498 72.348
0.13 180.917 72.734
0.14 188.059 73.075
0.15 191.732 73.187
0.16 196.623 72.828
0.17 199.818 72.217
0.18 202.036 72.141
0.19 204.721 72.431
0.20 207.519 72.434
0.21 210.570 71.966
0.22 214.191 71.204
0.23 216.826 70.186
0.24 216.706 68.737
0.25 216.410 66.428
0.26 214.331 63.020
0.27 215.129 59.011
0.28 218.651 55.006
0.29 217.583 50.502
0.30 --undefined-- 46.040
0.31 --undefined-- 47.870
0.32 --undefined-- 56.676
0.33 --undefined-- 63.265
0.34 --undefined-- 66.888
0.35 191.795 68.554
0.36 180.059 69.345
0.37 171.701 70.000
0.38 167.675 70.628
0.39 164.264 70.767
0.40 161.903 70.054
0.41 159.150 68.406
0.42 156.680 65.874
0.43 155.448 62.246
0.44 159.521 56.980
0.45 --undefined-- 50.217
0.46 --undefined-- 45.582
0.47 --undefined-- 44.740
0.48 --undefined-- 42.595
0.49 --undefined-- 39.023
0.50 --undefined-- 37.968
0.51 --undefined-- 38.682
0.52 --undefined-- 38.980
0.53 --undefined-- 39.173
0.54 --undefined-- 39.020
0.55 --undefined-- 39.101
0.56 --undefined-- 39.815
0.57 --undefined-- 41.955
0.58 --undefined-- 51.903
0.59 --undefined-- 61.423
0.60 230.407 67.282
0.61 226.549 70.370
0.62 216.516 71.834
0.63 207.135 72.803
0.64 204.244 73.433
0.65 196.693 73.597
0.66 196.484 73.297
0.67 195.015 72.599
0.68 193.423 71.722
0.69 190.689 70.447
0.70 186.784 68.303
0.71 195.407 66.730
0.72 198.744 67.137
0.73 199.687 67.713
0.74 200.213 68.136
0.75 202.625 68.587
0.76 203.791 68.963
0.77 204.685 69.195
0.78 205.208 69.357
0.79 205.678 69.494
0.80 205.872 69.571
0.81 205.429 69.637
0.82 204.848 69.714
0.83 204.171 69.763
0.84 202.735 69.774
0.85 199.621 69.837
0.86 194.080 70.110
0.87 188.352 70.656
0.88 182.015 71.356
0.89 173.691 71.532
0.90 162.688 70.607
0.91 154.843 69.400
0.92 140.388 69.027
0.93 130.190 69.151
0.94 127.554 69.368
0.95 125.944 69.417
0.96 125.882 69.223
0.97 126.880 69.204
0.98 130.356 69.479
0.99 135.431 69.784
1.00 140.789 70.248
1.01 143.361 70.566
1.02 145.561 69.819
1.03 142.812 67.343
1.04 140.888 63.453
1.05 152.331 59.876
1.06 153.285 57.973
1.07 156.280 56.698
1.08 157.995 55.454
1.09 --undefined-- 56.221
1.10 --undefined-- 61.188
1.11 155.074 65.283
1.12 144.573 67.331
1.13 138.838 68.165
1.14 134.895 68.550
1.15 128.481 68.807
1.16 122.612 68.829
1.17 121.379 68.445
1.18 121.507 67.775
1.19 122.281 67.365
1.20 123.708 67.496
1.21 126.497 67.730
1.22 128.976 67.738
1.23 131.106 67.551
1.24 133.573 67.423
1.25 135.206 67.626
1.26 135.372 68.027
1.27 135.917 68.322
1.28 137.748 68.483
1.29 139.879 68.498
1.30 143.883 68.254
1.31 147.263 67.601
1.32 144.267 66.090
1.33 150.019 64.071
1.34 161.276 62.838
1.35 168.498 63.067
1.36 173.477 64.775
1.37 175.085 66.835
1.38 175.089 68.296
1.39 174.103 69.051
1.40 173.013 69.342
1.41 170.879 69.239
1.42 170.299 68.458
1.43 175.623 66.505
1.44 174.550 62.868
1.45 171.716 57.045
1.46 --undefined-- 49.426
1.47 --undefined-- 43.750
1.48 --undefined-- 41.968
1.49 --undefined-- 42.066
1.50 --undefined-- 41.485
1.51 --undefined-- 39.347
1.52 --undefined-- 38.421
1.53 --undefined-- 50.437
1.54 --undefined-- 60.816
1.55 201.826 66.977
1.56 193.823 70.178
1.57 185.992 71.450
1.58 175.871 71.563
1.59 --undefined-- 71.541
1.60 --undefined-- 72.256
1.61 160.078 73.026
1.62 160.206 73.229
1.63 156.366 72.975
1.64 154.158 72.642
1.65 152.175 72.445
1.66 151.379 72.425
1.67 151.191 72.558
1.68 151.217 72.637
1.69 151.573 72.426
1.70 152.068 71.856
1.71 152.389 70.977
1.72 153.833 70.065
1.73 157.052 69.517
1.74 156.416 69.224
1.75 155.964 68.933
1.76 152.066 68.489
1.77 149.213 67.498
1.78 147.986 66.016
1.79 155.906 64.382
1.80 159.926 63.156
1.81 153.922 63.234
1.82 150.657 64.553
1.83 146.687 66.088
1.84 138.898 67.201
1.85 131.913 67.680
1.86 121.159 67.788
1.87 117.487 67.641
1.88 110.935 67.163
1.89 107.390 66.849
1.90 104.332 66.784
1.91 101.760 66.766
1.92 101.148 66.718
1.93 101.359 66.659
1.94 101.377 66.456
1.95 101.898 66.057
1.96 103.080 65.615
1.97 104.739 65.245
1.98 105.876 64.716
1.99 105.590 63.878
2.00 105.560 63.333
2.01 105.968 63.706
2.02 106.290 64.568
2.03 103.876 65.211
2.04 101.228 65.301
2.05 97.824 64.876
2.06 94.395 64.337
2.07 91.688 63.849
2.08 87.898 63.329
2.09 83.633 62.936
2.10 83.618 62.549
2.11 83.840 62.194
2.12 84.374 62.025
2.13 84.690 61.732
2.14 86.373 61.205
2.15 87.493 60.388
2.16 87.746 59.178
2.17 85.334 57.532
2.18 84.969 55.428
2.19 84.574 54.115
2.20 87.106 55.426
2.21 96.934 58.610
2.22 106.090 61.887
2.23 108.444 64.278
2.24 109.045 65.639
2.25 108.569 66.414
2.26 107.580 67.018
2.27 105.596 67.351
2.28 103.545 67.312
2.29 102.209 67.139
2.30 92.060 66.952
2.31 91.977 66.228
2.32 86.536 64.696
2.33 74.699 62.099
2.34 77.068 58.449
2.35 --undefined-- 55.036
2.36 --undefined-- 52.829
2.37 --undefined-- 51.790
2.38 --undefined-- 50.742
2.39 134.983 51.484
2.40 127.371 51.828
2.41 --undefined-- 49.514
2.42 --undefined-- 44.804
2.43 --undefined-- 42.849
2.44 --undefined-- 44.343
2.45 --undefined-- 43.064
2.46 --undefined-- 38.907
2.47 --undefined-- 39.588
2.48 --undefined-- 43.777
2.49 --undefined-- 46.974
2.50 --undefined-- 55.478
2.51 --undefined-- 62.849
2.52 156.778 66.923
2.53 164.305 68.646
2.54 165.897 68.991
2.55 168.511 68.407
2.56 170.709 67.262
2.57 199.288 66.346
2.58 211.778 66.253
2.59 219.639 66.752
2.60 224.622 67.239
2.61 225.272 67.660
2.62 222.829 67.873
2.63 222.841 67.770
2.64 223.271 67.401
2.65 223.130 67.110
2.66 221.297 67.386
2.67 214.275 68.043
2.68 205.752 68.682
2.69 196.327 69.332
2.70 168.401 70.167
2.71 158.682 71.005
2.72 151.661 71.334
2.73 148.332 71.056
2.74 146.317 70.558
2.75 145.581 70.248
2.76 144.676 70.188
2.77 142.646 70.049
2.78 138.507 69.454
2.79 134.397 68.143
2.80 130.728 65.973
2.81 117.393 63.179
2.82 114.334 60.369
2.83 100.942 57.373
2.84 --undefined-- 54.123
2.85 --undefined-- 52.059
2.86 --undefined-- 51.106
2.87 --undefined-- 50.648
2.88 --undefined-- 55.014
2.89 --undefined-- 62.043
2.90 119.225 66.357
2.91 119.608 68.286
2.92 119.595 68.611
2.93 122.175 68.192
2.94 127.767 67.942
2.95 141.594 68.116
2.96 154.324 68.348
2.97 166.465 68.292
2.98 167.968 67.707
2.99 168.127 65.931
3.00 170.100 62.725
3.01 183.641 59.084
3.02 185.416 55.789
3.03 195.764 52.748
3.04 --undefined-- 50.188
3.05 --undefined-- 49.685
3.06 --undefined-- 50.766
3.07 --undefined-- 55.727
3.08 --undefined-- 62.255
3.09 --undefined-- 66.309
3.10 177.854 68.151
3.11 167.493 68.947
3.12 153.870 69.434
3.13 147.044 69.756
3.14 139.604 70.029
3.15 133.526 70.348
3.16 130.629 70.499
3.17 125.961 70.192
3.18 124.256 69.634
3.19 124.314 69.134
3.20 126.401 68.709
3.21 128.492 68.267
3.22 129.741 67.831
3.23 131.149 67.695
3.24 131.540 67.754
3.25 130.678 67.343
3.26 127.846 66.279
3.27 118.059 64.797
3.28 96.298 62.325
3.29 125.074 57.988
3.30 128.853 51.955
3.31 --undefined-- 46.981
3.32 --undefined-- 43.743
3.33 --undefined-- 40.466
3.34 --undefined-- 38.361
3.35 --undefined-- 38.971
3.36 --undefined-- 40.358
3.37 --undefined-- 40.482
3.38 --undefined-- 39.082
3.39 --undefined-- 40.948
3.40 --undefined-- 50.644
3.41 --undefined-- 57.923
3.42 --undefined-- 62.631
3.43 --undefined-- 65.596
3.44 --undefined-- 67.399
3.45 129.866 68.289
3.46 133.917 68.353
3.47 135.160 68.013
3.48 133.535 68.316
3.49 139.388 69.102
3.50 142.128 69.556
3.51 143.407 69.997
3.52 143.548 70.520
3.53 143.187 70.741
3.54 141.901 70.394
3.55 144.355 69.627
3.56 142.683 68.646
3.57 137.313 67.715
3.58 134.016 67.321
3.59 125.956 67.563
3.60 121.823 67.929
3.61 119.704 67.878
3.62 115.745 67.381
3.63 114.164 66.984
3.64 113.249 66.808
3.65 112.260 66.112
3.66 111.615 64.219
3.67 110.149 60.871
3.68 113.494 57.050
3.69 135.258 54.056
3.70 153.413 51.378
3.71 155.910 48.858
3.72 --undefined-- 46.876
3.73 --undefined-- 51.328
3.74 --undefined-- 58.647
3.75 141.957 63.459
3.76 131.051 65.868
3.77 123.176 66.751
3.78 117.499 66.799
3.79 112.491 66.364
3.80 111.898 65.838
3.81 113.666 65.374
3.82 114.150 64.562
3.83 113.676 62.798
3.84 114.115 60.015
3.85 114.376 56.832
3.86 146.708 53.591
3.87 148.601 49.838
3.88 --undefined-- 44.948
3.89 --undefined-- 43.797
3.90 --undefined-- 47.635
3.91 --undefined-- 53.589
3.92 --undefined-- 61.054
3.93 --undefined-- 65.998
3.94 --undefined-- 68.545
3.95 155.914 69.520
3.96 153.589 69.431
3.97 153.285 68.406
3.98 153.957 67.372
3.99 167.725 67.792
4.00 167.297 68.453
4.01 168.284 68.752
4.02 169.399 68.745
4.03 168.972 68.156
4.04 167.980 67.009
4.05 166.433 65.114
4.06 165.195 62.193
4.07 167.060 58.410
4.08 172.729 54.098
4.09 --undefined-- 49.743
4.10 --undefined-- 48.274
4.11 --undefined-- 53.082
4.12 --undefined-- 60.748
4.13 --undefined-- 65.698
4.14 172.895 68.283
4.15 168.859 69.305
4.16 163.528 69.600
4.17 161.023 69.421
4.18 159.905 68.366
4.19 156.666 66.397
4.20 157.981 65.056
4.21 163.788 65.192
4.22 169.055 66.058
4.23 169.674 67.329
4.24 169.467 68.600
4.25 169.361 69.518
4.26 168.811 70.016
4.27 167.151 70.182
4.28 165.022 69.848
4.29 161.700 68.569
4.30 157.834 65.931
4.31 158.521 61.661
4.32 165.104 56.637
4.33 171.901 52.400
4.34 174.283 49.762
4.35 --undefined-- 47.143
4.36 --undefined-- 47.393
4.37 --undefined-- 55.387
4.38 --undefined-- 61.833
4.39 --undefined-- 65.480
4.40 --undefined-- 66.867
4.41 124.772 67.384
4.42 120.261 67.453
4.43 114.363 66.886
4.44 112.323 66.337
4.45 111.838 66.387
4.46 111.902 66.878
4.47 112.299 67.311
4.48 112.807 67.337
4.49 112.999 67.442
4.50 117.512 67.938
4.51 121.229 68.215
4.52 126.688 68.216
4.53 129.777 68.194
4.54 134.984 68.104
4.55 140.532 68.105
4.56 145.877 68.018
4.57 151.199 67.241
4.58 150.502 65.488
4.59 148.885 62.510
4.60 151.924 58.432
4.61 161.380 54.658
4.62 149.477 51.070
4.63 --undefined-- 47.012
4.64 --undefined-- 44.009
4.65 --undefined-- 42.465
4.66 --undefined-- 42.018
4.67 --undefined-- 44.483
4.68 --undefined-- 45.864
4.69 --undefined-- 45.938
4.70 --undefined-- 52.353
4.71 --undefined-- 59.011
4.72 --undefined-- 62.843
4.73 152.135 64.496
4.74 144.603 64.542
4.75 134.635 63.176
4.76 126.362 60.507
4.77 120.401 57.095
4.78 --undefined-- 53.381
4.79 --undefined-- 49.032
4.80 --undefined-- 44.961
4.81 --undefined-- 43.057
4.82 --undefined-- 41.382
4.83 --undefined-- 38.815
4.84 --undefined-- 36.771
4.85 --undefined-- 39.109
4.86 --undefined-- 43.697
4.87 --undefined-- 48.864
4.88 --undefined-- 55.880
4.89 146.222 61.363
4.90 140.758 64.638
4.91 138.548 66.586
4.92 135.129 67.755
4.93 131.194 68.229
4.94 126.981 67.867
4.95 124.754 66.428
4.96 119.378 63.581
4.97 --undefined-- 59.599
4.98 --undefined-- 55.261
4.99 --undefined-- 49.995
5.00 --undefined-- 43.738
5.01 --undefined-- 40.594
5.02 --undefined-- 40.165
5.03 --undefined-- 39.880
5.04 --undefined-- 39.532
5.05 --undefined-- 38.952
5.06 --undefined-- 38.195
5.07 --undefined-- 42.001
5.08 --undefined-- 52.150
5.09 --undefined-- 59.725
5.10 --undefined-- 64.284
5.11 120.716 66.361
5.12 113.755 66.908
5.13 108.228 66.934
5.14 103.551 67.318
5.15 102.447 67.928
5.16 102.869 68.430
5.17 103.198 68.428
5.18 107.218 67.764
5.19 107.881 67.136
5.20 109.737 67.338
5.21 113.381 67.891
5.22 117.635 68.206
5.23 121.498 68.634
5.24 125.309 69.093
5.25 131.851 69.160
5.26 137.368 69.128
5.27 142.647 68.904
5.28 146.394 67.671
5.29 145.230 65.208
5.30 138.085 61.737
5.31 --undefined-- --undefined--
5.32 --undefined-- --undefined--
5.33 --undefined-- --undefined--
5.34 --undefined-- --undefined--
