Time Pitch Intensity
0.01 --undefined-- --undefined--
0.02 127.198 --undefined--
0.03 124.434 --undefined--
0.04 122.411 --undefined--
0.05 113.448 64.847
0.06 111.870 64.280
0.07 109.500 63.781
0.08 108.353 63.541
0.09 108.127 63.336
0.10 107.951 63.066
0.11 108.382 62.774
0.12 108.696 62.399
0.13 108.750 62.025
0.14 109.191 61.813
0.15 109.542 61.730
0.16 109.158 61.778
0.17 107.684 61.959
0.18 105.899 62.114
0.19 104.804 62.018
0.20 103.990 61.654
0.21 102.424 61.238
0.22 100.994 60.783
0.23 100.873 60.218
0.24 101.459 59.911
0.25 102.532 60.032
0.26 103.765 60.076
0.27 103.544 59.425
0.28 100.771 57.257
0.29 99.666 53.208
0.30 100.943 48.215
0.31 --undefined-- 44.103
0.32 --undefined-- 41.997
0.33 --undefined-- 40.644
0.34 --undefined-- 38.194
0.35 --undefined-- 35.871
0.36 --undefined-- 35.194
0.37 --undefined-- 37.080
0.38 --undefined-- 45.982
0.39 --undefined-- 55.152
0.40 147.572 60.841
0.41 145.379 63.631
0.42 133.888 64.275
0.43 132.274 64.023
0.44 132.130 63.963
0.45 133.076 64.164
0.46 133.870 64.279
0.47 133.927 64.209
0.48 133.763 64.147
0.49 133.810 64.235
0.50 133.551 64.399
0.51 132.731 64.687
0.52 130.186 65.144
0.53 128.453 65.553
0.54 124.223 65.664
0.55 118.827 65.847
0.56 117.776 65.981
0.57 109.717 65.052
0.58 106.080 63.608
0.59 103.402 63.173
0.60 101.333 62.942
0.61 99.600 62.265
0.62 98.974 61.674
0.63 98.984 61.305
0.64 99.107 60.823
0.65 99.422 60.204
0.66 100.099 59.543
0.67 100.072 58.457
0.68 98.084 56.180
0.69 100.239 52.260
0.70 98.268 47.482
0.71 98.341 43.891
0.72 --undefined-- 41.817
0.73 --undefined-- 40.081
0.74 --undefined-- 38.263
0.75 --undefined-- 37.377
0.76 --undefined-- 38.245
0.77 --undefined-- 41.501
0.78 --undefined-- 49.254
0.79 --undefined-- 55.132
0.80 --undefined-- 57.992
0.81 --undefined-- 58.823
0.82 --undefined-- 57.642
0.83 --undefined-- 54.316
0.84 --undefined-- 51.307
0.85 --undefined-- 51.748
0.86 --undefined-- 52.689
0.87 --undefined-- 54.451
0.88 --undefined-- 56.038
0.89 --undefined-- 57.307
0.90 --undefined-- 58.075
0.91 --undefined-- 56.896
0.92 --undefined-- 54.060
0.93 --undefined-- 50.476
0.94 --undefined-- 46.125
0.95 --undefined-- 43.937
0.96 --undefined-- 43.258
0.97 --undefined-- 42.832
0.98 --undefined-- 43.294
0.99 --undefined-- 44.719
1.00 --undefined-- 48.100
1.01 --undefined-- 52.297
1.02 --undefined-- 54.467
1.03 --undefined-- 53.912
1.04 --undefined-- 51.439
1.05 --undefined-- 52.508
1.06 --undefined-- 58.105
1.07 --undefined-- 61.536
1.08 --undefined-- 62.804
1.09 --undefined-- 62.953
1.10 92.261 62.391
1.11 87.090 61.368
1.12 80.740 60.195
1.13 76.654 58.703
1.14 75.913 57.451
1.15 76.840 57.109
1.16 79.011 57.490
1.17 83.565 57.953
1.18 85.234 58.273
1.19 88.416 58.891
1.20 90.533 59.414
1.21 91.223 59.384
1.22 92.310 58.953
1.23 93.346 58.266
1.24 93.603 57.638
1.25 92.248 57.498
1.26 91.494 57.942
1.27 90.919 58.486
1.28 91.580 58.787
1.29 93.138 58.736
1.30 97.711 58.663
1.31 105.406 59.776
1.32 109.463 61.402
1.33 112.698 62.156
1.34 116.586 62.083
1.35 122.184 61.812
1.36 124.922 62.308
1.37 126.729 63.946
1.38 128.696 65.762
1.39 128.772 66.850
1.40 128.157 67.061
1.41 127.393 66.658
1.42 127.404 65.626
1.43 122.554 64.113
1.44 115.574 62.876
1.45 110.692 62.079
1.46 101.517 61.417
1.47 94.266 61.301
1.48 90.603 61.760
1.49 89.624 61.912
1.50 89.511 61.615
1.51 90.314 61.543
1.52 89.705 61.540
1.53 86.404 61.278
1.54 82.476 60.613
1.55 84.885 59.790
1.56 84.844 59.127
1.57 85.123 58.821
1.58 87.080 59.161
1.59 88.029 59.787
1.60 88.436 60.129
1.61 88.473 59.742
1.62 88.657 58.727
1.63 87.552 57.803
1.64 87.021 57.720
1.65 88.054 58.511
1.66 92.072 59.683
1.67 96.471 60.793
1.68 97.900 61.469
1.69 98.170 61.697
1.70 98.448 61.617
1.71 98.753 61.186
1.72 99.186 60.677
1.73 95.262 60.059
1.74 88.663 58.672
1.75 74.659 56.250
1.76 --undefined-- 53.354
1.77 --undefined-- 51.169
1.78 --undefined-- 50.098
1.79 --undefined-- 47.206
1.80 --undefined-- 42.401
1.81 --undefined-- 39.379
1.82 --undefined-- 37.900
1.83 --undefined-- 37.422
1.84 --undefined-- 37.784
1.85 --undefined-- 38.518
1.86 --undefined-- 38.983
1.87 --undefined-- 38.627
1.88 --undefined-- 38.413
1.89 --undefined-- 38.558
1.90 --undefined-- 38.626
1.91 --undefined-- 38.617
1.92 --undefined-- 38.609
1.93 --undefined-- 38.928
1.94 --undefined-- 39.438
1.95 --undefined-- 39.749
1.96 --undefined-- 39.985
1.97 --undefined-- 39.740
1.98 --undefined-- 38.809
1.99 --undefined-- 38.830
2.00 --undefined-- 38.720
2.01 --undefined-- 37.973
2.02 --undefined-- 37.336
2.03 --undefined-- 35.477
2.04 --undefined-- 32.452
2.05 --undefined-- 31.167
2.06 --undefined-- 31.332
2.07 --undefined-- 31.081
2.08 --undefined-- 31.422
2.09 --undefined-- 38.610
2.10 --undefined-- 49.237
2.11 --undefined-- 56.398
2.12 147.637 60.696
2.13 140.855 63.210
2.14 141.697 64.795
2.15 146.042 66.225
2.16 155.813 67.583
2.17 165.742 68.448
2.18 177.259 68.733
2.19 190.184 68.391
2.20 193.157 67.613
2.21 194.194 66.728
2.22 194.654 65.743
2.23 194.185 64.309
2.24 192.500 62.118
2.25 193.510 59.456
2.26 192.863 57.866
2.27 194.250 58.348
2.28 196.411 60.694
2.29 193.811 63.201
2.30 186.495 64.472
2.31 172.359 65.487
2.32 168.694 66.827
2.33 164.833 67.245
2.34 156.730 66.697
2.35 151.948 66.113
2.36 148.230 65.751
2.37 147.287 65.508
2.38 149.875 65.360
2.39 154.869 65.253
2.40 157.065 64.988
2.41 154.574 64.449
2.42 151.753 63.782
2.43 153.313 63.714
2.44 152.985 65.155
2.45 151.594 66.931
2.46 146.559 67.732
2.47 140.701 67.829
2.48 139.845 68.289
2.49 141.462 69.022
2.50 145.557 69.401
2.51 149.497 69.445
2.52 154.526 69.260
2.53 159.619 68.788
2.54 163.622 67.918
2.55 168.060 67.132
2.56 169.372 66.748
2.57 176.938 66.435
2.58 176.453 66.524
2.59 173.144 67.127
2.60 164.240 67.548
2.61 157.550 67.349
2.62 150.476 66.476
2.63 136.213 65.135
2.64 122.791 64.550
2.65 115.325 64.672
2.66 110.297 64.048
2.67 104.932 62.260
2.68 100.098 59.598
2.69 92.958 56.522
2.70 89.355 54.127
2.71 --undefined-- 52.476
2.72 --undefined-- 50.933
2.73 --undefined-- 51.114
2.74 --undefined-- 54.227
2.75 123.137 57.752
2.76 127.836 60.140
2.77 129.512 61.898
2.78 131.844 63.321
2.79 135.955 64.428
2.80 137.934 65.295
2.81 143.306 66.050
2.82 151.254 66.504
2.83 157.391 66.493
2.84 161.491 66.231
2.85 165.243 65.906
2.86 168.692 65.730
2.87 170.155 65.912
2.88 168.105 66.202
2.89 164.052 66.321
2.90 155.711 66.356
2.91 151.487 66.277
2.92 145.713 65.928
2.93 138.424 65.241
2.94 132.910 64.600
2.95 131.369 64.824
2.96 131.449 65.703
2.97 133.804 66.492
2.98 135.099 66.683
2.99 136.771 66.375
3.00 138.155 65.767
3.01 139.130 64.431
3.02 131.687 62.026
3.03 132.227 60.030
3.04 133.390 60.007
3.05 131.541 60.817
3.06 127.505 61.048
3.07 118.576 60.145
3.08 110.993 59.072
3.09 105.729 58.443
3.10 102.790 57.741
3.11 100.639 57.031
3.12 98.816 56.359
3.13 98.687 55.953
3.14 99.649 56.177
3.15 101.545 56.529
3.16 101.965 56.255
3.17 102.905 55.057
3.18 102.093 52.568
3.19 104.144 48.659
3.20 --undefined-- 43.928
3.21 --undefined-- 39.562
3.22 --undefined-- 38.916
3.23 --undefined-- 41.665
3.24 --undefined-- 45.035
3.25 --undefined-- 51.104
3.26 --undefined-- 57.108
3.27 154.114 60.684
3.28 143.613 62.257
3.29 139.324 63.023
3.30 138.406 63.632
3.31 129.556 63.860
3.32 128.259 63.741
3.33 124.351 63.635
3.34 121.250 63.553
3.35 118.019 63.199
3.36 116.559 62.860
3.37 116.247 62.774
3.38 117.451 62.461
3.39 118.319 61.592
3.40 120.044 60.588
3.41 124.761 60.295
3.42 130.342 61.142
3.43 134.586 62.508
3.44 137.586 63.619
3.45 141.574 64.756
3.46 144.426 66.006
3.47 146.298 66.746
3.48 146.288 66.951
3.49 145.541 67.237
3.50 144.220 67.683
3.51 143.293 67.951
3.52 142.638 67.883
3.53 141.411 67.516
3.54 140.502 67.130
3.55 138.234 66.803
3.56 134.682 65.867
3.57 131.380 64.177
3.58 130.540 62.926
3.59 129.676 62.581
3.60 128.544 62.433
3.61 127.515 62.224
3.62 126.898 61.884
3.63 126.525 61.521
3.64 125.903 61.539
3.65 124.526 62.053
3.66 123.167 62.638
3.67 121.948 62.890
3.68 120.882 62.835
3.69 120.149 62.807
3.70 119.017 63.036
3.71 118.118 63.196
3.72 116.291 62.942
3.73 116.009 62.476
3.74 116.348 62.128
3.75 115.462 62.106
3.76 114.507 62.568
3.77 113.887 62.924
3.78 109.927 62.670
3.79 107.780 62.304
3.80 99.705 62.341
3.81 92.140 62.524
3.82 92.066 62.245
3.83 87.644 61.336
3.84 88.318 59.665
3.85 --undefined-- 56.834
3.86 --undefined-- 53.183
3.87 --undefined-- 50.081
3.88 --undefined-- 47.158
3.89 --undefined-- 43.514
3.90 --undefined-- 41.125
3.91 --undefined-- 40.799
3.92 --undefined-- 41.504
3.93 --undefined-- 42.145
3.94 --undefined-- 42.477
3.95 --undefined-- 42.941
3.96 --undefined-- 43.459
3.97 --undefined-- 43.717
3.98 --undefined-- 43.489
3.99 --undefined-- 42.601
4.00 --undefined-- 40.808
4.01 --undefined-- 38.674
4.02 --undefined-- 36.610
4.03 --undefined-- 34.398
4.04 --undefined-- 33.771
4.05 --undefined-- 33.955
4.06 --undefined-- 34.518
4.07 --undefined-- 35.433
4.08 --undefined-- 36.654
4.09 --undefined-- 42.799
4.10 --undefined-- 52.898
4.11 --undefined-- 59.984
4.12 124.619 64.424
4.13 121.274 66.982
4.14 120.734 68.168
4.15 121.423 68.321
4.16 126.600 68.174
4.17 133.705 68.226
4.18 139.359 68.053
4.19 144.242 67.600
4.20 149.517 67.614
4.21 152.534 67.898
4.22 156.084 67.781
4.23 160.181 66.965
4.24 159.805 65.801
4.25 158.911 64.721
4.26 157.518 64.202
4.27 154.152 64.543
4.28 149.796 65.344
4.29 147.671 65.977
4.30 144.957 65.772
4.31 140.330 64.449
4.32 136.023 63.124
4.33 137.287 62.661
4.34 134.319 62.076
4.35 131.564 61.509
4.36 130.146 61.359
4.37 130.887 61.563
4.38 124.752 61.758
4.39 121.094 61.585
4.40 120.839 61.814
4.41 120.396 63.169
4.42 110.597 64.433
4.43 107.171 65.095
4.44 103.847 65.362
4.45 102.991 65.389
4.46 104.425 65.349
4.47 106.258 65.203
4.48 107.919 64.791
4.49 110.356 64.055
4.50 112.723 63.260
4.51 117.226 62.825
4.52 120.788 62.686
4.53 123.695 62.596
4.54 124.374 61.686
4.55 123.677 59.608
4.56 125.815 57.300
4.57 136.820 55.044
4.58 143.265 52.171
4.59 145.657 49.954
4.60 157.032 51.373
4.61 168.299 57.388
4.62 162.293 62.597
4.63 157.880 65.652
4.64 156.117 67.347
4.65 154.287 68.282
4.66 153.617 68.661
4.67 153.032 68.554
4.68 152.528 68.039
4.69 151.934 67.564
4.70 151.103 67.328
4.71 150.121 66.546
4.72 148.423 64.699
4.73 144.278 62.083
4.74 142.711 59.197
4.75 143.207 56.520
4.76 146.781 54.281
4.77 149.813 52.068
4.78 157.494 49.195
4.79 --undefined-- 45.212
4.80 --undefined-- 41.749
4.81 --undefined-- 42.376
4.82 --undefined-- 49.483
4.83 --undefined-- 57.226
4.84 --undefined-- 62.157
4.85 128.140 64.665
4.86 126.147 65.667
4.87 117.980 66.142
4.88 113.436 66.327
4.89 110.880 66.297
4.90 110.370 65.844
4.91 110.724 65.215
4.92 110.332 64.856
4.93 109.992 64.495
4.94 109.711 64.146
4.95 108.884 63.901
4.96 107.857 63.542
4.97 106.579 62.932
4.98 104.868 62.292
4.99 103.677 61.563
5.00 100.715 59.653
5.01 97.712 56.556
5.02 93.105 53.432
5.03 105.456 50.393
5.04 104.663 47.386
5.05 --undefined-- 44.271
5.06 --undefined-- 41.169
5.07 --undefined-- 38.391
5.08 --undefined-- 35.907
5.09 --undefined-- 34.194
5.10 --undefined-- 32.452
5.11 --undefined-- 31.035
5.12 --undefined-- 31.782
5.13 --undefined-- 34.148
5.14 --undefined-- 36.208
5.15 --undefined-- 36.305
5.16 --undefined-- 35.029
5.17 --undefined-- 33.651
5.18 --undefined-- 32.343
5.19 --undefined-- 30.775
5.20 --undefined-- 29.531
5.21 --undefined-- 29.547
5.22 --undefined-- 30.594
5.23 --undefined-- 30.740
5.24 --undefined-- 29.965
5.25 --undefined-- 28.942
5.26 --undefined-- 28.369
5.27 --undefined-- 28.181
5.28 --undefined-- 27.295
5.29 --undefined-- 26.988
5.30 --undefined-- 28.739
5.31 --undefined-- 31.187
5.32 --undefined-- 32.807
5.33 --undefined-- 34.097
5.34 --undefined-- 35.534
5.35 --undefined-- 39.225
5.36 --undefined-- 50.243
5.37 --undefined-- 59.161
5.38 162.104 64.519
5.39 160.301 67.423
5.40 157.805 68.735
5.41 156.571 69.264
5.42 156.323 69.493
5.43 156.400 69.576
5.44 156.841 69.301
5.45 157.565 68.787
5.46 158.859 68.459
5.47 158.283 68.446
5.48 157.255 68.454
5.49 157.561 68.177
5.50 157.953 67.590
5.51 159.232 66.254
5.52 157.252 63.571
5.53 153.251 59.481
5.54 152.366 55.067
5.55 154.443 52.330
5.56 158.768 50.774
5.57 165.176 52.265
5.58 155.193 57.321
5.59 145.974 61.270
5.60 143.248 62.962
5.61 127.404 63.159
5.62 122.481 63.685
5.63 116.096 64.675
5.64 110.857 65.315
5.65 108.958 65.504
5.66 109.938 65.864
5.67 113.216 66.647
5.68 118.523 67.278
5.69 126.867 67.550
5.70 129.923 67.754
5.71 134.733 67.869
5.72 138.426 67.224
5.73 140.994 65.663
5.74 149.298 63.622
5.75 149.292 61.356
5.76 147.369 58.577
5.77 134.935 54.679
5.78 139.099 50.038
5.79 138.783 48.919
5.80 140.470 52.058
5.81 144.961 56.120
5.82 149.334 59.850
5.83 145.197 62.410
5.84 132.067 63.554
5.85 120.420 63.457
5.86 115.287 62.981
5.87 110.122 62.808
5.88 106.678 --undefined--
5.89 103.930 --undefined--
5.90 --undefined-- --undefined--
5.91 --undefined-- --undefined--
