Time Pitch Intensity
0.01 --undefined-- --undefined--
0.02 165.393 --undefined--
0.03 160.806 --undefined--
0.04 158.839 --undefined--
0.05 153.345 78.161
0.06 144.555 79.064
0.07 140.305 78.979
0.08 136.465 78.474
0.09 137.752 78.270
0.10 144.547 78.792
0.11 150.851 79.597
0.12 154.049 80.124
0.13 154.028 80.229
0.14 155.099 80.109
0.15 157.084 79.828
0.16 159.465 79.474
0.17 164.198 78.886
0.18 164.917 76.871
0.19 163.456 72.369
0.20 165.003 65.303
0.21 164.003 58.532
0.22 161.076 55.464
0.23 --undefined-- 57.269
0.24 --undefined-- 61.417
0.25 155.578 66.438
0.26 171.200 70.864
0.27 171.033 73.007
0.28 169.044 72.700
0.29 163.920 70.363
0.30 162.610 67.453
0.31 169.243 66.742
0.32 171.760 67.498
0.33 172.895 68.501
0.34 173.281 69.540
0.35 173.262 70.419
0.36 172.970 71.041
0.37 173.011 71.514
0.38 171.458 71.777
0.39 170.900 71.612
0.40 166.208 70.647
0.41 160.610 68.588
0.42 161.136 65.395
0.43 165.383 61.220
0.44 173.716 59.045
0.45 173.879 59.962
0.46 175.385 61.942
0.47 166.858 66.820
0.48 152.719 71.582
0.49 117.954 73.657
0.50 99.491 73.415
0.51 92.948 72.240
0.52 90.726 70.843
0.53 84.589 68.761
0.54 83.953 65.663
0.55 91.625 63.291
0.56 92.059 62.968
0.57 96.235 63.377
0.58 101.370 64.728
0.59 104.501 66.571
0.60 111.048 68.410
0.61 116.774 70.063
0.62 121.948 71.116
0.63 129.524 71.804
0.64 136.944 72.336
0.65 138.950 71.857
0.66 133.810 69.701
0.67 145.530 66.292
0.68 155.791 62.201
0.69 157.133 57.189
0.70 --undefined-- 51.806
0.71 --undefined-- 47.515
0.72 --undefined-- 44.950
0.73 --undefined-- 42.719
0.74 --undefined-- 41.183
0.75 --undefined-- 46.110
0.76 --undefined-- 57.198
0.77 --undefined-- 65.734
0.78 164.816 70.999
0.79 163.566 74.069
0.80 160.426 76.059
0.81 158.247 77.496
0.82 157.204 78.410
0.83 155.333 78.738
0.84 151.028 78.241
0.85 143.846 76.474
0.86 145.914 73.919
0.87 141.611 72.259
0.88 135.895 71.610
0.89 130.305 71.439
0.90 124.903 71.833
0.91 121.491 72.495
0.92 115.714 73.074
0.93 108.293 73.396
0.94 101.780 73.344
0.95 96.129 72.763
0.96 91.003 71.627
0.97 88.618 70.068
0.98 84.819 68.328
0.99 84.345 67.077
1.00 82.431 66.052
1.01 80.164 64.160
1.02 80.409 61.591
1.03 83.395 59.088
1.04 --undefined-- 56.164
1.05 --undefined-- 54.069
1.06 --undefined-- 57.561
1.07 --undefined-- 63.149
1.08 105.456 67.542
1.09 94.416 69.880
1.10 93.814 70.553
1.11 90.226 70.445
1.12 88.588 70.157
1.13 90.210 69.842
1.14 92.171 69.433
1.15 95.826 68.878
1.16 98.303 67.891
1.17 102.138 66.690
1.18 111.118 66.607
1.19 115.198 67.598
1.20 116.745 68.406
1.21 117.902 68.737
1.22 119.075 69.095
1.23 119.752 69.853
1.24 120.019 70.842
1.25 120.883 71.930
1.26 123.324 73.155
1.27 127.728 74.328
1.28 126.740 75.425
1.29 127.200 76.303
1.30 128.310 76.837
1.31 131.284 77.253
1.32 131.896 77.363
1.33 131.782 76.675
1.34 129.074 74.919
1.35 128.306 71.679
1.36 128.510 66.292
1.37 128.923 58.997
1.38 129.977 54.103
1.39 131.107 52.753
1.40 --undefined-- 51.393
1.41 --undefined-- 50.749
1.42 --undefined-- 50.505
1.43 --undefined-- 50.610
1.44 --undefined-- 51.879
1.45 --undefined-- 53.447
1.46 --undefined-- 54.312
1.47 --undefined-- 54.503
1.48 --undefined-- 55.011
1.49 --undefined-- 55.964
1.50 --undefined-- 56.637
1.51 --undefined-- 56.955
1.52 --undefined-- 56.918
1.53 --undefined-- 56.211
1.54 --undefined-- 55.466
1.55 --undefined-- 54.995
1.56 --undefined-- 54.680
1.57 --undefined-- 54.262
1.58 --undefined-- 53.740
1.59 --undefined-- 53.678
1.60 153.992 54.070
1.61 154.595 54.439
1.62 162.393 53.792
1.63 --undefined-- 51.307
1.64 --undefined-- 47.794
1.65 --undefined-- 45.617
1.66 --undefined-- 43.437
1.67 --undefined-- 40.129
1.68 --undefined-- 36.726
1.69 --undefined-- 35.334
1.70 --undefined-- 49.938
1.71 --undefined-- 64.553
1.72 225.455 73.789
1.73 224.441 78.747
1.74 219.294 80.551
1.75 214.868 80.847
1.76 213.942 81.128
1.77 212.482 81.421
1.78 211.118 81.641
1.79 210.191 81.706
1.80 209.740 81.448
1.81 211.773 80.951
1.82 214.363 80.273
1.83 212.051 79.552
1.84 208.194 78.786
1.85 203.207 77.705
1.86 195.038 76.428
1.87 185.026 75.647
1.88 176.649 75.193
1.89 165.661 74.252
1.90 155.480 73.312
1.91 146.391 72.808
1.92 137.770 72.593
1.93 130.985 72.990
1.94 124.547 74.194
1.95 121.061 75.605
1.96 118.397 76.538
1.97 116.853 77.147
1.98 115.104 77.556
1.99 113.021 77.842
2.00 112.627 78.168
2.01 112.949 78.413
2.02 113.536 78.473
2.03 115.044 78.411
2.04 117.465 78.216
2.05 121.213 77.956
2.06 123.994 77.850
2.07 124.814 77.856
2.08 120.023 77.790
2.09 123.517 77.548
2.10 123.829 76.763
2.11 120.947 75.103
2.12 113.274 72.889
2.13 110.355 70.570
2.14 110.159 69.125
2.15 107.717 69.193
2.16 116.446 70.082
2.17 117.201 71.623
2.18 116.748 73.253
2.19 116.553 74.470
2.20 114.709 75.246
2.21 109.986 75.438
2.22 107.676 75.072
2.23 103.106 74.508
2.24 100.935 73.777
2.25 101.190 72.973
2.26 100.522 72.684
2.27 102.813 73.084
2.28 104.804 73.697
2.29 104.965 74.063
2.30 107.314 74.071
2.31 107.639 73.510
2.32 105.248 71.717
2.33 104.805 68.507
2.34 104.819 64.411
2.35 102.828 59.770
2.36 101.180 56.962
2.37 92.630 60.290
2.38 --undefined-- 63.763
2.39 --undefined-- 64.624
2.40 --undefined-- 63.277
2.41 --undefined-- 61.459
2.42 --undefined-- 60.776
2.43 --undefined-- 63.436
2.44 122.662 67.840
2.45 117.010 70.461
2.46 108.110 71.294
2.47 107.934 71.396
2.48 107.203 71.506
2.49 106.476 71.715
2.50 107.756 72.087
2.51 109.553 72.517
2.52 112.631 72.838
2.53 115.409 73.068
2.54 118.197 73.348
2.55 120.578 73.919
2.56 121.983 74.650
2.57 122.449 74.883
2.58 119.518 74.421
2.59 126.345 74.163
2.60 118.129 74.084
2.61 116.198 73.435
2.62 115.876 72.755
2.63 114.678 72.576
2.64 112.485 72.681
2.65 112.082 73.017
2.66 112.177 73.478
2.67 110.372 73.772
2.68 109.628 73.702
2.69 107.045 73.310
2.70 105.214 72.816
2.71 103.879 72.305
2.72 104.146 71.745
2.73 105.202 71.222
2.74 106.825 71.042
2.75 108.094 71.243
2.76 111.176 71.423
2.77 112.888 71.180
2.78 115.767 70.322
2.79 121.007 69.244
2.80 126.389 68.776
2.81 129.706 68.928
2.82 133.876 69.352
2.83 137.769 69.768
2.84 141.759 70.031
2.85 145.157 70.064
2.86 145.048 69.530
2.87 141.634 68.156
2.88 141.005 65.847
2.89 144.755 62.670
2.90 148.836 58.870
2.91 153.238 56.410
2.92 --undefined-- 62.922
2.93 --undefined-- 70.085
2.94 149.921 74.451
2.95 138.211 76.306
2.96 132.011 76.284
2.97 121.918 75.384
2.98 114.984 74.598
2.99 112.417 74.158
3.00 111.720 74.039
3.01 109.805 74.036
3.02 110.578 74.198
3.03 113.729 74.730
3.04 114.477 75.228
3.05 116.512 75.568
3.06 120.026 75.835
3.07 126.566 75.932
3.08 126.768 75.733
3.09 126.887 75.273
3.10 128.200 74.915
3.11 129.560 74.925
3.12 129.494 74.734
3.13 128.851 73.373
3.14 127.377 70.632
3.15 130.069 67.818
3.16 136.301 66.218
3.17 137.493 64.638
3.18 134.467 61.571
3.19 127.526 56.399
3.20 --undefined-- 51.088
3.21 --undefined-- 48.934
3.22 --undefined-- 48.419
3.23 --undefined-- 54.207
3.24 --undefined-- 61.639
3.25 --undefined-- 66.363
3.26 --undefined-- 67.744
3.27 --undefined-- 66.438
3.28 --undefined-- 64.760
3.29 --undefined-- 64.162
3.30 --undefined-- 63.608
3.31 --undefined-- 63.672
3.32 --undefined-- 65.501
3.33 86.242 66.866
3.34 85.568 66.367
3.35 78.687 64.873
3.36 77.644 64.300
3.37 84.974 64.407
3.38 84.304 65.041
3.39 88.146 66.149
3.40 93.848 67.287
3.41 99.544 68.500
3.42 104.905 69.741
3.43 108.483 70.999
3.44 112.104 72.319
3.45 116.009 73.627
3.46 119.388 74.788
3.47 121.854 75.710
3.48 123.055 76.378
3.49 123.718 76.800
3.50 124.474 76.774
3.51 124.285 76.229
3.52 123.880 75.649
3.53 123.763 75.441
3.54 123.596 75.403
3.55 123.104 75.246
3.56 121.517 74.945
3.57 120.317 74.665
3.58 119.568 74.392
3.59 118.869 74.156
3.60 118.514 74.023
3.61 118.111 73.985
3.62 118.319 73.966
3.63 118.454 73.935
3.64 118.378 73.941
3.65 117.652 73.660
3.66 112.333 72.770
3.67 114.026 71.656
3.68 117.632 71.204
3.69 118.618 71.350
3.70 118.234 71.601
3.71 115.993 71.741
3.72 112.147 71.694
3.73 109.352 71.896
3.74 110.644 72.678
3.75 107.832 73.265
3.76 104.539 73.272
3.77 102.940 73.197
3.78 102.572 73.384
3.79 103.065 73.824
3.80 103.903 74.269
3.81 103.683 74.176
3.82 102.747 73.209
3.83 98.118 71.431
3.84 100.178 69.922
3.85 103.028 69.598
3.86 103.741 69.684
3.87 104.053 69.925
3.88 103.752 70.333
3.89 102.952 70.723
3.90 101.715 71.013
3.91 101.491 71.443
3.92 104.465 72.274
3.93 101.152 72.810
3.94 99.788 72.269
3.95 97.185 70.806
3.96 94.965 68.581
3.97 --undefined-- 65.279
3.98 --undefined-- 60.570
3.99 --undefined-- 55.199
4.00 --undefined-- 50.023
4.01 --undefined-- 47.666
4.02 --undefined-- 49.915
4.03 --undefined-- 53.784
4.04 101.160 57.310
4.05 108.680 60.610
4.06 117.659 63.793
4.07 117.303 66.714
4.08 117.321 69.196
4.09 115.707 71.074
4.10 112.001 72.354
4.11 109.850 73.169
4.12 108.211 73.651
4.13 105.617 73.757
4.14 102.921 73.636
4.15 104.401 73.624
4.16 97.639 73.518
4.17 93.071 73.158
4.18 90.690 72.581
4.19 93.943 71.772
4.20 95.858 70.940
4.21 95.643 70.159
4.22 93.475 69.233
4.23 93.634 68.971
4.24 91.861 68.911
4.25 89.997 68.500
4.26 87.457 67.967
4.27 86.930 67.156
4.28 88.773 66.167
4.29 89.296 65.357
4.30 91.720 65.108
4.31 90.786 64.914
4.32 90.263 64.344
4.33 92.306 63.619
4.34 90.443 62.843
4.35 88.571 61.885
4.36 88.874 61.172
4.37 91.029 60.854
4.38 91.949 60.671
4.39 92.792 60.592
4.40 92.121 60.615
4.41 91.937 60.789
4.42 92.801 61.287
4.43 93.417 62.193
4.44 93.967 63.326
4.45 90.979 64.388
4.46 84.536 65.310
4.47 88.062 66.424
4.48 85.639 66.844
4.49 92.162 66.874
4.50 83.002 67.034
4.51 82.555 67.117
4.52 93.822 67.337
4.53 81.719 67.306
4.54 89.905 67.407
4.55 88.628 67.733
4.56 92.037 68.201
4.57 94.579 68.660
4.58 95.169 68.752
4.59 93.450 68.313
4.60 90.096 67.671
4.61 87.710 67.686
4.62 89.576 68.646
4.63 93.283 69.731
4.64 94.687 70.343
4.65 95.572 70.808
4.66 100.887 71.940
4.67 109.288 73.507
4.68 113.959 74.864
4.69 116.574 75.400
4.70 115.277 74.325
4.71 113.798 71.496
4.72 121.657 68.842
4.73 123.227 68.526
4.74 131.544 71.859
4.75 136.139 75.970
4.76 135.146 78.366
4.77 133.728 79.220
4.78 133.031 79.379
4.79 133.004 79.462
4.80 132.978 79.595
4.81 132.685 79.666
4.82 132.156 79.353
4.83 129.528 78.175
4.84 126.544 75.712
4.85 122.494 71.508
4.86 121.434 66.593
4.87 --undefined-- 63.261
4.88 --undefined-- 61.773
4.89 --undefined-- 63.324
4.90 --undefined-- 64.886
4.91 --undefined-- 64.853
4.92 --undefined-- 64.582
4.93 --undefined-- 64.717
4.94 --undefined-- 64.677
4.95 --undefined-- 64.700
4.96 --undefined-- 66.340
4.97 --undefined-- 67.936
4.98 --undefined-- 68.127
4.99 --undefined-- 70.472
5.00 --undefined-- 73.626
5.01 --undefined-- 74.504
5.02 --undefined-- 73.385
5.03 --undefined-- 71.033
5.04 --undefined-- 68.354
5.05 --undefined-- 66.708
5.06 --undefined-- 66.273
5.07 --undefined-- 66.085
5.08 --undefined-- --undefined--
5.09 --undefined-- --undefined--
5.10 --undefined-- --undefined--
5.11 --undefined-- --undefined--
