Time Pitch Intensity
0.01 --undefined-- --undefined--
0.02 --undefined-- --undefined--
0.03 --undefined-- --undefined--
0.04 --undefined-- --undefined--
0.05 --undefined-- 44.771
0.06 --undefined-- 46.004
0.07 --undefined-- 49.665
0.08 --undefined-- 51.888
0.09 --undefined-- 51.085
0.10 --undefined-- 50.623
0.11 --undefined-- 53.889
0.12 --undefined-- 56.894
0.13 --undefined-- 58.423
0.14 --undefined-- 60.355
0.15 --undefined-- 62.507
0.16 110.365 62.482
0.17 108.658 60.545
0.18 107.209 58.898
0.19 106.651 58.189
0.20 107.433 58.010
0.21 108.301 57.742
0.22 107.915 56.512
0.23 --undefined-- 54.273
0.24 --undefined-- 55.197
0.25 --undefined-- 58.728
0.26 --undefined-- 60.007
0.27 --undefined-- 58.736
0.28 --undefined-- 59.263
0.29 --undefined-- 62.698
0.30 104.686 65.180
0.31 103.626 66.787
0.32 104.122 68.090
0.33 104.595 68.882
0.34 104.096 68.805
0.35 102.702 67.646
0.36 100.497 65.421
0.37 98.595 62.589
0.38 95.001 60.121
0.39 95.123 58.326
0.40 95.418 56.756
0.41 97.754 55.445
0.42 99.647 54.050
0.43 104.616 53.529
0.44 107.510 53.076
0.45 --undefined-- 50.645
0.46 --undefined-- 46.084
0.47 --undefined-- 42.616
0.48 --undefined-- 44.365
0.49 --undefined-- 52.329
0.50 --undefined-- 58.150
0.51 --undefined-- 62.211
0.52 --undefined-- 66.483
0.53 119.376 69.036
0.54 117.886 69.343
0.55 115.863 68.280
0.56 113.051 67.044
0.57 109.181 66.303
0.58 106.729 65.958
0.59 104.717 65.607
0.60 --undefined-- 64.134
0.61 --undefined-- 60.145
0.62 --undefined-- 53.152
0.63 --undefined-- 46.357
0.64 --undefined-- 44.259
0.65 --undefined-- 43.896
0.66 --undefined-- 43.298
0.67 --undefined-- 42.266
0.68 --undefined-- 40.850
0.69 --undefined-- 39.107
0.70 --undefined-- 38.015
0.71 --undefined-- 38.917
0.72 --undefined-- 39.387
0.73 --undefined-- 38.732
0.74 --undefined-- 39.987
0.75 --undefined-- 43.003
0.76 --undefined-- 45.674
0.77 --undefined-- 48.131
0.78 --undefined-- 50.142
0.79 --undefined-- 50.085
0.80 --undefined-- 47.017
0.81 --undefined-- 42.235
0.82 --undefined-- 44.303
0.83 --undefined-- 54.876
0.84 --undefined-- 61.043
0.85 --undefined-- 62.755
0.86 --undefined-- 64.848
0.87 --undefined-- 69.708
0.88 222.368 71.492
0.89 224.271 69.384
0.90 244.523 63.684
0.91 259.147 58.634
0.92 269.856 58.308
0.93 279.087 58.871
0.94 279.161 59.668
0.95 279.755 60.299
0.96 279.445 60.598
0.97 281.783 63.158
0.98 290.156 67.971
0.99 282.906 70.792
1.00 267.779 71.544
1.01 252.801 71.461
1.02 236.678 70.862
1.03 222.518 68.920
1.04 --undefined-- 64.851
1.05 --undefined-- 59.213
1.06 --undefined-- 55.768
1.07 --undefined-- 55.403
1.08 147.518 59.875
1.09 149.784 66.614
1.10 151.149 71.071
1.11 150.620 72.911
1.12 150.150 73.009
1.13 150.358 72.665
1.14 151.767 72.282
1.15 154.865 71.317
1.16 156.395 69.077
1.17 160.420 66.556
1.18 169.517 67.916
1.19 184.178 71.162
1.20 191.666 73.033
1.21 199.254 73.447
1.22 205.971 73.206
1.23 210.326 72.774
1.24 210.112 71.852
1.25 206.425 69.484
1.26 --undefined-- 64.615
1.27 --undefined-- 57.176
1.28 --undefined-- 53.353
1.29 --undefined-- 54.822
1.30 --undefined-- 56.198
1.31 --undefined-- 58.536
1.32 134.640 60.917
1.33 133.398 62.828
1.34 --undefined-- 66.849
1.35 --undefined-- 70.342
1.36 136.367 71.371
1.37 135.082 70.148
1.38 132.273 67.306
1.39 123.672 62.982
1.40 125.106 57.106
1.41 126.202 52.142
1.42 131.572 53.845
1.43 --undefined-- 59.628
1.44 --undefined-- 64.090
1.45 145.994 68.310
1.46 149.574 71.694
1.47 153.166 73.140
1.48 160.780 73.119
1.49 171.674 73.256
1.50 179.105 74.213
1.51 185.193 75.023
1.52 189.538 75.099
1.53 189.510 74.387
1.54 187.696 72.637
1.55 183.696 69.124
1.56 182.856 63.573
1.57 183.214 62.054
1.58 172.902 67.725
1.59 167.517 71.559
1.60 163.649 72.604
1.61 153.040 71.690
1.62 142.712 70.646
1.63 139.523 69.960
1.64 138.333 67.848
1.65 --undefined-- 63.151
1.66 --undefined-- 57.479
1.67 --undefined-- 57.873
1.68 --undefined-- 60.253
1.69 --undefined-- 60.773
1.70 --undefined-- 61.312
1.71 --undefined-- 62.963
1.72 --undefined-- 63.454
1.73 --undefined-- 62.709
1.74 --undefined-- 61.958
1.75 --undefined-- 63.672
1.76 --undefined-- 65.583
1.77 --undefined-- 64.745
1.78 115.041 62.285
1.79 115.478 60.928
1.80 125.108 60.641
1.81 126.553 60.843
1.82 131.884 60.776
1.83 141.017 60.284
1.84 145.343 58.624
1.85 --undefined-- 54.841
1.86 --undefined-- 52.968
1.87 --undefined-- 58.747
1.88 --undefined-- 63.504
1.89 --undefined-- 66.746
1.90 --undefined-- 68.626
1.91 --undefined-- 69.076
1.92 --undefined-- 68.342
1.93 --undefined-- 65.839
1.94 --undefined-- 61.755
1.95 --undefined-- 61.944
1.96 --undefined-- 64.828
1.97 120.019 65.905
1.98 114.935 65.011
1.99 114.338 62.654
2.00 109.352 58.896
2.01 --undefined-- 53.031
2.02 --undefined-- 50.489
2.03 --undefined-- 54.360
2.04 --undefined-- 55.299
2.05 --undefined-- 58.267
2.06 --undefined-- 64.730
2.07 --undefined-- 68.162
2.08 --undefined-- 68.486
2.09 --undefined-- 67.240
2.10 --undefined-- 66.777
2.11 --undefined-- 66.379
2.12 --undefined-- 64.478
2.13 --undefined-- 61.944
2.14 --undefined-- 60.299
2.15 --undefined-- 58.299
2.16 --undefined-- 55.366
2.17 --undefined-- 51.401
2.18 --undefined-- 47.283
2.19 --undefined-- 45.261
2.20 --undefined-- 46.769
2.21 --undefined-- 49.685
2.22 --undefined-- 51.564
2.23 --undefined-- 53.364
2.24 --undefined-- 60.085
2.25 --undefined-- 66.467
2.26 --undefined-- 69.486
2.27 133.384 69.758
2.28 124.594 68.305
2.29 123.140 66.386
2.30 121.199 65.408
2.31 121.139 65.103
2.32 120.828 65.690
2.33 127.307 67.448
2.34 129.518 68.986
2.35 133.610 69.465
2.36 139.488 68.389
2.37 142.637 65.074
2.38 --undefined-- 59.159
2.39 --undefined-- 56.653
2.40 --undefined-- 62.533
2.41 200.697 67.551
2.42 204.717 70.067
2.43 205.927 69.927
2.44 204.502 67.140
2.45 202.208 61.658
2.46 --undefined-- 54.721
2.47 --undefined-- 53.937
2.48 --undefined-- 60.277
2.49 --undefined-- 67.871
2.50 181.891 72.407
2.51 179.707 73.938
2.52 170.880 73.290
2.53 161.314 71.437
2.54 156.099 68.676
2.55 154.709 63.928
2.56 --undefined-- 56.278
2.57 --undefined-- 49.703
2.58 --undefined-- 48.082
2.59 --undefined-- 49.022
2.60 --undefined-- 57.046
2.61 --undefined-- 64.939
2.62 --undefined-- 70.038
2.63 --undefined-- 72.057
2.64 --undefined-- 71.681
2.65 --undefined-- 70.443
2.66 --undefined-- 69.700
2.67 111.164 68.971
2.68 106.591 66.684
2.69 105.705 62.279
2.70 104.556 56.972
2.71 --undefined-- 52.181
2.72 --undefined-- 48.614
2.73 --undefined-- 49.004
2.74 --undefined-- 50.865
2.75 --undefined-- 51.218
2.76 --undefined-- 49.326
2.77 --undefined-- 45.839
2.78 --undefined-- 43.149
2.79 --undefined-- 46.559
2.80 --undefined-- 55.052
2.81 --undefined-- 61.517
2.82 --undefined-- 65.780
2.83 --undefined-- 67.462
2.84 --undefined-- 66.018
2.85 --undefined-- 61.318
2.86 --undefined-- 54.133
2.87 --undefined-- 47.337
2.88 --undefined-- 44.772
2.89 --undefined-- 43.753
2.90 --undefined-- 43.083
2.91 --undefined-- 45.919
2.92 --undefined-- 52.808
2.93 --undefined-- 58.235
2.94 --undefined-- 63.005
2.95 --undefined-- 66.672
2.96 146.277 68.687
2.97 147.868 69.673
2.98 148.883 69.747
2.99 150.358 69.293
3.00 152.096 69.090
3.01 152.516 69.056
3.02 152.736 68.677
3.03 152.111 67.760
3.04 150.347 66.187
3.05 147.174 63.760
3.06 144.274 60.195
3.07 --undefined-- 54.890
3.08 --undefined-- 48.267
3.09 --undefined-- 49.401
3.10 --undefined-- 57.489
3.11 --undefined-- 61.408
3.12 --undefined-- 60.862
3.13 --undefined-- 56.598
3.14 --undefined-- 52.839
3.15 --undefined-- 51.826
3.16 --undefined-- 51.186
3.17 --undefined-- 55.906
3.18 --undefined-- 62.225
3.19 121.771 65.610
3.20 121.174 66.257
3.21 113.412 64.611
3.22 --undefined-- 60.630
3.23 --undefined-- 54.367
3.24 --undefined-- 49.736
3.25 --undefined-- 50.312
3.26 --undefined-- 51.866
3.27 --undefined-- 53.349
3.28 --undefined-- 52.760
3.29 --undefined-- 49.361
3.30 --undefined-- 44.993
3.31 --undefined-- 41.432
3.32 --undefined-- 41.455
3.33 --undefined-- 48.909
3.34 --undefined-- 54.753
3.35 --undefined-- 58.116
3.36 --undefined-- 64.859
3.37 --undefined-- 70.976
3.38 203.855 73.671
3.39 201.093 73.623
3.40 201.032 72.499
3.41 198.469 71.640
3.42 193.740 71.064
3.43 188.744 70.602
3.44 180.612 70.388
3.45 175.034 70.232
3.46 160.634 69.736
3.47 151.209 69.574
3.48 142.045 69.620
3.49 135.236 68.998
3.50 127.630 67.384
3.51 123.204 65.471
3.52 120.023 63.962
3.53 115.973 62.576
3.54 114.223 61.407
3.55 114.905 61.202
3.56 114.938 62.820
3.57 114.713 66.305
3.58 114.179 69.378
3.59 --undefined-- 70.302
3.60 --undefined-- 68.717
3.61 --undefined-- 65.709
3.62 --undefined-- 63.755
3.63 --undefined-- 62.948
3.64 --undefined-- 61.803
3.65 --undefined-- 59.165
3.66 --undefined-- 54.757
3.67 --undefined-- 49.582
3.68 --undefined-- 47.152
3.69 --undefined-- 46.921
3.70 --undefined-- 46.473
3.71 --undefined-- 46.340
3.72 --undefined-- 46.318
3.73 --undefined-- 46.260
3.74 --undefined-- 46.678
3.75 --undefined-- 47.159
3.76 --undefined-- 46.931
3.77 --undefined-- 46.667
3.78 --undefined-- 49.848
3.79 --undefined-- 55.424
3.80 --undefined-- 59.064
3.81 --undefined-- 60.310
3.82 --undefined-- 60.015
3.83 --undefined-- 59.124
3.84 --undefined-- 58.595
3.85 --undefined-- 60.190
3.86 123.046 63.567
3.87 129.622 66.273
3.88 127.508 67.435
3.89 128.006 67.395
3.90 128.913 66.763
3.91 128.077 65.588
3.92 139.116 63.654
3.93 146.249 61.406
3.94 152.881 58.895
3.95 155.038 55.815
3.96 155.199 52.286
3.97 --undefined-- 48.780
3.98 --undefined-- 46.640
3.99 --undefined-- 46.241
4.00 --undefined-- 47.394
4.01 --undefined-- 52.617
4.02 --undefined-- 62.249
4.03 --undefined-- 69.277
4.04 --undefined-- 72.477
4.05 --undefined-- 72.833
4.06 --undefined-- 71.735
4.07 --undefined-- 70.051
4.08 --undefined-- 67.955
4.09 --undefined-- 67.350
4.10 85.645 67.738
4.11 85.250 67.976
4.12 86.153 67.877
4.13 87.633 67.112
4.14 89.439 65.642
4.15 90.737 64.139
4.16 92.688 62.664
4.17 96.632 61.077
4.18 98.629 59.908
4.19 99.386 58.717
4.20 105.438 57.315
4.21 113.163 57.821
4.22 117.323 59.662
4.23 121.431 61.000
4.24 126.487 61.444
4.25 135.420 61.449
4.26 143.269 61.620
4.27 149.696 61.661
4.28 157.700 61.666
4.29 162.758 62.956
4.30 165.538 64.493
4.31 164.094 64.422
4.32 161.121 62.628
4.33 166.890 59.481
4.34 --undefined-- 54.821
4.35 --undefined-- 49.272
4.36 --undefined-- 52.821
4.37 --undefined-- 59.248
4.38 --undefined-- 62.795
4.39 --undefined-- 63.959
4.40 --undefined-- 63.029
4.41 --undefined-- 60.479
4.42 --undefined-- 57.736
4.43 --undefined-- 59.162
4.44 --undefined-- 63.248
4.45 --undefined-- 65.065
4.46 --undefined-- 63.973
4.47 --undefined-- 60.145
4.48 --undefined-- 54.096
4.49 --undefined-- 47.760
4.50 --undefined-- 44.718
4.51 --undefined-- 44.016
4.52 --undefined-- 44.043
4.53 --undefined-- 44.642
4.54 --undefined-- 46.280
4.55 --undefined-- 47.837
4.56 116.839 49.146
4.57 113.024 50.345
4.58 108.396 51.203
4.59 104.026 51.947
4.60 104.072 52.312
4.61 99.489 51.359
4.62 94.902 49.206
4.63 --undefined-- 46.654
4.64 --undefined-- 43.160
4.65 --undefined-- 39.446
4.66 --undefined-- 39.020
4.67 --undefined-- 40.807
4.68 --undefined-- 43.785
4.69 --undefined-- 47.247
4.70 --undefined-- 51.353
4.71 --undefined-- 55.701
4.72 98.849 58.565
4.73 98.768 60.263
4.74 98.398 61.755
4.75 98.483 62.333
4.76 --undefined-- 60.965
4.77 --undefined-- 58.760
4.78 --undefined-- 57.652
4.79 --undefined-- 56.514
4.80 --undefined-- 54.404
4.81 --undefined-- 50.535
4.82 --undefined-- 45.633
4.83 --undefined-- 42.816
4.84 --undefined-- 41.970
4.85 --undefined-- 41.629
4.86 --undefined-- 41.423
4.87 --undefined-- 41.092
4.88 --undefined-- 40.619
4.89 --undefined-- 41.944
4.90 --undefined-- 45.999
4.91 --undefined-- 49.379
4.92 --undefined-- 52.106
4.93 145.142 55.870
4.94 143.535 61.515
4.95 142.959 67.206
4.96 141.554 71.019
4.97 141.016 72.510
4.98 140.936 71.762
4.99 139.605 69.617
5.00 141.009 68.539
5.01 143.301 69.367
5.02 145.164 70.447
5.03 146.309 71.108
5.04 145.759 71.261
5.05 142.543 70.398
5.06 --undefined-- 68.245
5.07 --undefined-- 65.185
5.08 --undefined-- 60.964
5.09 --undefined-- 55.692
5.10 --undefined-- 50.359
5.11 --undefined-- 46.785
5.12 --undefined-- 45.676
5.13 --undefined-- 45.006
5.14 --undefined-- 43.760
5.15 --undefined-- 42.475
5.16 --undefined-- 41.117
5.17 --undefined-- 39.655
5.18 --undefined-- 42.714
5.19 --undefined-- 47.919
5.20 --undefined-- 49.546
5.21 --undefined-- 47.054
5.22 --undefined-- 42.156
5.23 --undefined-- 42.063
5.24 --undefined-- 42.656
5.25 --undefined-- 41.181
5.26 --undefined-- 40.425
5.27 --undefined-- 41.669
5.28 --undefined-- --undefined--
5.29 --undefined-- --undefined--
5.30 --undefined-- --undefined--
5.31 --undefined-- --undefined--
