Time Pitch Intensity
0.01 --undefined-- --undefined--
0.02 273.335 --undefined--
0.03 276.070 --undefined--
0.04 275.468 --undefined--
0.05 274.993 69.258
0.06 275.326 69.146
0.07 275.520 68.780
0.08 275.617 68.086
0.09 276.753 67.638
0.10 281.623 67.883
0.11 287.772 67.772
0.12 296.069 66.867
0.13 288.758 65.722
0.14 289.976 63.639
0.15 --undefined-- 59.638
0.16 --undefined-- 53.194
0.17 --undefined-- 44.916
0.18 --undefined-- 41.421
0.19 --undefined-- 41.539
0.20 --undefined-- 44.363
0.21 --undefined-- 53.030
0.22 --undefined-- 61.159
0.23 --undefined-- 67.345
0.24 199.262 70.988
0.25 194.394 72.123
0.26 180.101 71.951
0.27 174.214 71.827
0.28 167.782 71.732
0.29 165.307 71.330
0.30 163.727 70.508
0.31 161.947 69.484
0.32 162.177 68.893
0.33 162.773 68.708
0.34 164.694 68.504
0.35 165.487 67.981
0.36 165.744 67.200
0.37 166.089 66.437
0.38 166.389 66.049
0.39 165.022 66.314
0.40 163.511 66.747
0.41 163.089 67.077
0.42 162.813 67.331
0.43 161.322 67.593
0.44 160.145 67.827
0.45 160.046 68.093
0.46 159.758 68.469
0.47 159.144 68.717
0.48 159.135 68.697
0.49 160.585 68.872
0.50 160.582 69.401
0.51 160.314 69.752
0.52 160.061 69.763
0.53 159.997 69.565
0.54 159.663 69.364
0.55 159.497 69.343
0.56 160.135 69.392
0.57 158.334 69.467
0.58 151.335 69.334
0.59 285.489 68.745
0.60 277.451 68.349
0.61 287.201 67.889
0.62 295.338 66.401
0.63 --undefined-- 66.038
0.64 --undefined-- 65.913
0.65 --undefined-- 63.116
0.66 --undefined-- 58.697
0.67 --undefined-- 53.677
0.68 --undefined-- 46.730
0.69 --undefined-- 50.858
0.70 --undefined-- 57.880
0.71 --undefined-- 60.660
0.72 --undefined-- 59.637
0.73 --undefined-- 57.115
0.74 --undefined-- 56.092
0.75 --undefined-- 55.709
0.76 --undefined-- 55.642
0.77 --undefined-- 55.965
0.78 --undefined-- 56.297
0.79 282.628 57.991
0.80 281.964 62.668
0.81 284.420 67.304
0.82 285.360 70.444
0.83 284.089 72.117
0.84 280.298 72.358
0.85 276.988 71.594
0.86 276.450 70.539
0.87 276.007 69.480
0.88 275.981 68.660
0.89 276.354 68.116
0.90 271.845 67.683
0.91 265.660 67.393
0.92 267.795 67.481
0.93 271.593 67.790
0.94 271.112 67.606
0.95 271.575 66.582
0.96 272.464 64.596
0.97 273.276 61.632
0.98 281.133 58.028
0.99 --undefined-- 53.825
1.00 --undefined-- 50.053
1.01 --undefined-- 47.530
1.02 --undefined-- 44.519
1.03 --undefined-- 42.913
1.04 --undefined-- 44.765
1.05 --undefined-- 47.208
1.06 --undefined-- 49.771
1.07 --undefined-- 51.929
1.08 --undefined-- 53.575
1.09 --undefined-- 54.546
1.10 --undefined-- 53.907
1.11 --undefined-- 53.750
1.12 --undefined-- 58.828
1.13 165.202 63.571
1.14 166.939 66.423
1.15 166.918 68.001
1.16 170.693 68.858
1.17 173.660 69.419
1.18 175.541 69.683
1.19 180.799 69.442
1.20 185.079 68.793
1.21 190.063 68.396
1.22 201.649 69.218
1.23 208.042 70.966
1.24 210.732 72.384
1.25 211.891 72.566
1.26 214.703 71.704
1.27 215.228 70.602
1.28 212.310 69.768
1.29 210.787 68.993
1.30 213.188 67.831
1.31 215.604 65.882
1.32 215.288 62.392
1.33 213.577 57.019
1.34 --undefined-- 51.127
1.35 --undefined-- 45.955
1.36 --undefined-- 41.637
1.37 --undefined-- 44.483
1.38 --undefined-- 53.575
1.39 --undefined-- 61.934
1.40 --undefined-- 66.897
1.41 --undefined-- 69.483
1.42 153.335 70.690
1.43 150.933 70.840
1.44 149.070 70.188
1.45 149.656 69.144
1.46 150.721 68.162
1.47 150.679 67.300
1.48 152.180 66.020
1.49 155.175 64.128
1.50 151.121 61.361
1.51 145.905 57.370
1.52 --undefined-- 51.585
1.53 --undefined-- 43.283
1.54 --undefined-- 35.508
1.55 --undefined-- 30.362
1.56 --undefined-- 24.903
1.57 --undefined-- 23.229
1.58 --undefined-- 23.150
1.59 --undefined-- 23.354
1.60 --undefined-- 23.902
1.61 --undefined-- 23.942
1.62 --undefined-- 23.537
1.63 --undefined-- 23.532
1.64 --undefined-- 23.832
1.65 --undefined-- 24.371
1.66 --undefined-- 28.877
1.67 --undefined-- 44.516
1.68 --undefined-- 54.533
1.69 --undefined-- 59.654
1.70 --undefined-- 62.677
1.71 --undefined-- 66.524
1.72 249.897 70.106
1.73 248.804 72.042
1.74 248.670 72.130
1.75 248.566 71.038
1.76 244.997 70.023
1.77 242.167 69.487
1.78 241.822 69.006
1.79 242.811 68.456
1.80 243.813 68.103
1.81 242.604 68.602
1.82 241.725 69.571
1.83 241.894 69.861
1.84 242.116 69.370
1.85 241.603 68.929
1.86 241.553 68.912
1.87 242.896 69.118
1.88 246.372 69.320
1.89 249.717 69.525
1.90 249.755 69.632
1.91 249.956 69.080
1.92 250.338 67.555
1.93 249.579 65.456
1.94 248.305 63.332
1.95 249.448 62.008
1.96 253.832 61.468
1.97 256.095 60.215
1.98 251.214 57.222
1.99 --undefined-- 52.065
2.00 --undefined-- 45.408
2.01 --undefined-- 41.345
2.02 --undefined-- 42.586
2.03 --undefined-- 47.550
2.04 --undefined-- 57.048
2.05 262.995 64.572
2.06 255.176 68.601
2.07 237.640 70.150
2.08 234.814 70.975
2.09 234.511 72.037
2.10 234.308 72.947
2.11 234.664 73.365
2.12 235.024 73.197
2.13 234.831 72.372
2.14 234.193 70.823
2.15 234.504 68.888
2.16 238.066 67.185
2.17 241.316 65.869
2.18 238.423 64.571
2.19 234.806 63.295
2.20 233.245 61.905
2.21 230.071 60.105
2.22 230.007 57.872
2.23 235.251 54.975
2.24 --undefined-- 51.616
2.25 --undefined-- 48.096
2.26 --undefined-- 44.562
2.27 --undefined-- 43.323
2.28 --undefined-- 43.018
2.29 --undefined-- 43.488
2.30 --undefined-- 49.686
2.31 --undefined-- 58.491
2.32 --undefined-- 64.577
2.33 --undefined-- 67.686
2.34 123.084 69.137
2.35 116.084 70.291
2.36 113.138 71.073
2.37 110.279 71.039
2.38 109.272 70.332
2.39 231.818 69.455
2.40 228.234 68.730
2.41 227.290 67.835
2.42 226.573 66.209
2.43 227.391 64.183
2.44 227.653 62.637
2.45 227.157 61.344
2.46 222.412 59.109
2.47 213.084 55.672
2.48 --undefined-- 52.899
2.49 --undefined-- 51.677
2.50 --undefined-- 50.580
2.51 --undefined-- 53.826
2.52 228.647 59.600
2.53 208.852 63.497
2.54 204.740 65.653
2.55 199.550 66.543
2.56 184.503 66.587
2.57 177.070 66.640
2.58 172.920 66.772
2.59 169.497 66.538
2.60 166.074 66.044
2.61 165.384 65.826
2.62 166.322 65.616
2.63 167.302 64.613
2.64 167.664 62.499
2.65 167.947 59.310
2.66 --undefined-- 55.311
2.67 --undefined-- 50.927
2.68 --undefined-- 49.857
2.69 --undefined-- 51.841
2.70 --undefined-- 53.522
2.71 --undefined-- 54.753
2.72 --undefined-- 55.273
2.73 --undefined-- 54.940
2.74 --undefined-- 54.875
2.75 --undefined-- 57.099
2.76 --undefined-- 60.930
2.77 157.995 64.505
2.78 158.531 66.863
2.79 160.010 68.313
2.80 160.671 69.376
2.81 162.653 70.185
2.82 168.481 70.553
2.83 179.052 70.779
2.84 186.666 71.139
2.85 191.625 71.585
2.86 193.730 72.093
2.87 194.446 72.145
2.88 194.082 71.206
2.89 193.059 69.276
2.90 188.849 66.769
2.91 184.029 64.111
2.92 177.442 61.291
2.93 167.648 58.113
2.94 167.906 55.304
2.95 170.096 56.622
2.96 167.814 60.419
2.97 167.647 63.828
2.98 166.919 66.405
2.99 165.874 67.560
3.00 162.470 67.012
3.01 160.662 64.493
3.02 --undefined-- 59.519
3.03 --undefined-- 53.447
3.04 --undefined-- 52.126
3.05 --undefined-- 53.071
3.06 --undefined-- 54.739
3.07 --undefined-- 56.703
3.08 --undefined-- 57.708
3.09 --undefined-- 59.700
3.10 85.132 61.858
3.11 85.193 62.441
3.12 --undefined-- 61.873
3.13 --undefined-- 61.556
3.14 --undefined-- 61.683
3.15 --undefined-- 60.675
3.16 79.080 60.703
3.17 78.834 62.684
3.18 77.945 63.857
3.19 77.612 64.125
3.20 81.414 63.585
3.21 80.936 62.427
3.22 77.637 61.978
3.23 83.034 63.456
3.24 167.656 65.225
3.25 169.592 65.859
3.26 179.921 65.420
3.27 189.556 64.331
3.28 192.654 63.353
3.29 192.378 63.018
3.30 189.673 62.235
3.31 187.050 60.147
3.32 189.734 58.904
3.33 200.072 63.013
3.34 199.169 67.166
3.35 --undefined-- 70.138
3.36 --undefined-- 72.390
3.37 --undefined-- 73.730
3.38 --undefined-- 73.850
3.39 --undefined-- 72.636
3.40 --undefined-- 70.644
3.41 --undefined-- 69.397
3.42 --undefined-- 68.999
3.43 166.921 68.257
3.44 168.282 66.022
3.45 172.192 62.066
3.46 177.634 60.762
3.47 179.205 62.450
3.48 177.853 63.112
3.49 175.894 62.104
3.50 --undefined-- 59.673
3.51 --undefined-- 56.557
3.52 --undefined-- 53.234
3.53 --undefined-- 49.445
3.54 --undefined-- 45.409
3.55 --undefined-- 40.197
3.56 --undefined-- 34.613
3.57 --undefined-- 34.087
3.58 --undefined-- 36.210
3.59 --undefined-- 37.583
3.60 --undefined-- 40.948
3.61 --undefined-- 46.743
3.62 --undefined-- 51.595
3.63 --undefined-- 54.093
3.64 --undefined-- 54.248
3.65 --undefined-- 54.180
3.66 --undefined-- 54.788
3.67 --undefined-- 55.044
3.68 --undefined-- 55.653
3.69 --undefined-- 55.478
3.70 --undefined-- 54.493
3.71 --undefined-- 54.624
3.72 --undefined-- 55.212
3.73 --undefined-- 55.604
3.74 --undefined-- 56.284
3.75 --undefined-- 56.721
3.76 --undefined-- 55.987
3.77 --undefined-- 54.721
3.78 --undefined-- 54.083
3.79 --undefined-- 53.719
3.80 --undefined-- 53.588
3.81 --undefined-- 53.156
3.82 --undefined-- 51.878
3.83 --undefined-- 50.161
3.84 --undefined-- 49.802
3.85 --undefined-- 50.868
3.86 --undefined-- 50.814
3.87 --undefined-- 49.149
3.88 --undefined-- 47.442
3.89 --undefined-- 45.780
3.90 --undefined-- 43.630
3.91 --undefined-- 40.644
3.92 --undefined-- 36.490
3.93 --undefined-- 32.353
3.94 --undefined-- 31.752
3.95 --undefined-- 37.755
3.96 --undefined-- 43.263
3.97 --undefined-- 46.220
3.98 --undefined-- 47.503
3.99 --undefined-- 48.453
4.00 --undefined-- 49.008
4.01 --undefined-- 49.541
4.02 --undefined-- 52.833
4.03 --undefined-- 60.605
4.04 282.051 68.739
4.05 283.633 73.671
4.06 280.731 75.730
4.07 279.183 75.910
4.08 290.729 75.183
4.09 154.594 74.571
4.10 160.002 74.144
4.11 166.615 73.262
4.12 172.515 71.855
4.13 179.099 69.577
4.14 184.153 66.289
4.15 187.699 64.564
4.16 190.023 65.630
4.17 185.831 66.661
4.18 173.183 67.018
4.19 165.347 67.083
4.20 299.220 66.641
4.21 252.867 65.313
4.22 229.494 63.734
4.23 217.632 62.625
4.24 212.348 61.588
4.25 212.883 60.083
4.26 218.025 57.468
4.27 211.395 53.588
4.28 --undefined-- 50.111
4.29 --undefined-- 56.315
4.30 --undefined-- 64.027
4.31 241.264 68.676
4.32 241.435 70.718
4.33 242.596 71.138
4.34 245.755 70.626
4.35 251.621 69.673
4.36 277.280 68.844
4.37 296.206 68.227
4.38 152.796 67.495
4.39 161.049 67.106
4.40 168.356 67.209
4.41 172.091 66.932
4.42 --undefined-- 67.099
4.43 --undefined-- 68.744
4.44 --undefined-- 69.754
4.45 --undefined-- 69.277
4.46 --undefined-- 67.994
4.47 --undefined-- 66.963
4.48 --undefined-- 66.487
4.49 --undefined-- 66.777
4.50 --undefined-- 67.084
4.51 --undefined-- 66.930
4.52 --undefined-- 66.606
4.53 --undefined-- 66.790
4.54 --undefined-- 66.521
4.55 --undefined-- 65.546
4.56 --undefined-- 65.660
4.57 --undefined-- 65.544
4.58 --undefined-- 65.064
4.59 --undefined-- 66.111
4.60 --undefined-- 68.088
4.61 180.217 69.614
4.62 178.844 70.801
4.63 176.833 71.790
4.64 175.005 72.199
4.65 174.820 71.759
4.66 176.585 70.821
4.67 176.780 69.769
4.68 175.199 68.561
4.69 173.369 67.019
4.70 172.636 64.624
4.71 172.412 61.989
4.72 172.439 60.637
4.73 172.555 60.489
4.74 172.801 61.109
4.75 172.583 62.260
4.76 170.128 63.007
4.77 169.662 63.011
4.78 171.820 62.762
4.79 172.784 62.677
4.80 173.805 62.591
4.81 176.671 62.615
4.82 178.959 63.166
4.83 180.120 63.801
4.84 180.287 63.837
4.85 185.922 63.181
4.86 183.650 62.067
4.87 176.049 59.933
4.88 172.166 55.949
4.89 --undefined-- 50.228
4.90 --undefined-- 45.206
4.91 --undefined-- 41.088
4.92 --undefined-- 36.383
4.93 --undefined-- 37.695
4.94 --undefined-- 45.715
4.95 --undefined-- 53.912
4.96 201.174 61.673
4.97 200.786 66.972
4.98 195.966 70.056
4.99 189.821 71.911
5.00 187.225 72.889
5.01 186.347 72.972
5.02 184.804 72.640
5.03 181.384 72.328
5.04 179.423 71.608
5.05 177.660 70.093
5.06 177.836 68.532
5.07 177.841 67.915
5.08 177.454 67.776
5.09 178.060 67.784
5.10 180.206 67.944
5.11 181.057 67.755
5.12 179.563 66.359
5.13 179.366 63.950
5.14 180.759 61.568
5.15 180.208 60.046
5.16 179.770 59.228
5.17 179.924 59.173
5.18 175.413 59.673
5.19 166.235 60.085
5.20 161.959 60.707
5.21 162.218 61.358
5.22 160.477 61.648
5.23 162.558 62.836
5.24 164.299 65.191
5.25 163.544 67.014
5.26 164.562 67.919
5.27 166.462 68.233
5.28 167.960 68.455
5.29 169.446 68.773
5.30 169.351 68.988
5.31 170.337 69.112
5.32 173.231 69.137
5.33 175.620 --undefined--
5.34 175.488 --undefined--
5.35 --undefined-- --undefined--
5.36 --undefined-- --undefined--
