Time Pitch Intensity
0.01 --undefined-- --undefined--
0.02 179.155 --undefined--
0.03 182.781 --undefined--
0.04 183.281 --undefined--
0.05 185.006 73.253
0.06 188.073 74.122
0.07 189.519 74.388
0.08 188.626 73.658
0.09 187.311 72.463
0.10 186.631 70.349
0.11 188.488 66.210
0.12 --undefined-- 59.438
0.13 188.659 52.114
0.14 188.818 50.489
0.15 --undefined-- 49.910
0.16 --undefined-- 48.746
0.17 --undefined-- 46.667
0.18 --undefined-- 43.959
0.19 --undefined-- 44.522
0.20 --undefined-- 46.787
0.21 --undefined-- 49.215
0.22 208.298 52.775
0.23 203.073 55.367
0.24 200.458 56.810
0.25 198.090 57.725
0.26 196.759 58.293
0.27 197.068 58.724
0.28 197.929 59.209
0.29 198.510 59.857
0.30 198.336 60.590
0.31 199.191 61.042
0.32 200.465 60.832
0.33 200.465 59.497
0.34 206.607 58.553
0.35 206.662 59.676
0.36 205.656 60.165
0.37 204.862 59.353
0.38 208.774 57.785
0.39 207.186 55.257
0.40 --undefined-- 50.857
0.41 --undefined-- 44.627
0.42 --undefined-- 40.882
0.43 --undefined-- 41.012
0.44 --undefined-- 41.645
0.45 --undefined-- 41.406
0.46 --undefined-- 40.823
0.47 --undefined-- 40.469
0.48 --undefined-- 39.801
0.49 --undefined-- 39.255
0.50 --undefined-- 39.146
0.51 --undefined-- 39.052
0.52 --undefined-- 39.934
0.53 --undefined-- 42.570
0.54 --undefined-- 46.641
0.55 --undefined-- 50.508
0.56 --undefined-- 55.050
0.57 --undefined-- 63.848
0.58 253.224 70.811
0.59 254.594 74.594
0.60 256.349 75.918
0.61 256.516 75.463
0.62 253.659 73.525
0.63 247.809 70.697
0.64 245.610 68.994
0.65 243.535 68.649
0.66 241.225 68.177
0.67 236.938 67.580
0.68 231.003 68.347
0.69 224.814 70.246
0.70 217.290 71.876
0.71 210.563 72.524
0.72 200.541 72.300
0.73 191.234 71.360
0.74 181.374 69.697
0.75 171.734 67.724
0.76 164.618 66.276
0.77 158.655 66.237
0.78 155.679 67.684
0.79 153.929 69.442
0.80 153.157 70.578
0.81 152.104 71.014
0.82 151.626 71.284
0.83 151.757 71.713
0.84 151.993 72.146
0.85 152.286 72.232
0.86 151.964 71.852
0.87 151.685 71.224
0.88 149.787 70.778
0.89 148.612 70.630
0.90 147.398 70.645
0.91 146.415 70.871
0.92 145.832 71.313
0.93 146.488 71.745
0.94 148.272 71.988
0.95 149.669 71.350
0.96 --undefined-- 69.414
0.97 --undefined-- 67.799
0.98 --undefined-- 66.114
0.99 --undefined-- 61.742
1.00 --undefined-- 55.275
1.01 --undefined-- 50.345
1.02 --undefined-- 47.706
1.03 --undefined-- 46.832
1.04 --undefined-- 46.565
1.05 --undefined-- 46.185
1.06 --undefined-- 44.940
1.07 --undefined-- 43.613
1.08 --undefined-- 49.998
1.09 --undefined-- 60.741
1.10 222.564 68.039
1.11 214.519 71.688
1.12 208.347 73.165
1.13 214.399 74.151
1.14 221.504 74.794
1.15 231.880 74.875
1.16 241.674 74.574
1.17 246.188 74.106
1.18 245.598 73.431
1.19 242.312 72.635
1.20 240.206 72.247
1.21 237.688 72.222
1.22 232.758 72.547
1.23 226.570 73.082
1.24 217.904 73.230
1.25 206.977 72.528
1.26 197.375 70.754
1.27 189.218 67.435
1.28 178.158 61.988
1.29 --undefined-- 55.913
1.30 --undefined-- 52.987
1.31 --undefined-- 50.545
1.32 --undefined-- 47.900
1.33 --undefined-- 46.882
1.34 --undefined-- 46.642
1.35 --undefined-- 45.242
1.36 --undefined-- 45.901
1.37 --undefined-- 57.215
1.38 --undefined-- 65.758
1.39 --undefined-- 69.451
1.40 --undefined-- 70.711
1.41 229.933 73.083
1.42 222.769 74.768
1.43 217.075 74.789
1.44 212.831 74.229
1.45 211.175 73.867
1.46 210.430 73.667
1.47 209.966 73.420
1.48 209.531 73.173
1.49 209.859 72.955
1.50 210.765 72.823
1.51 211.763 72.633
1.52 213.172 72.057
1.53 214.730 70.929
1.54 216.770 69.582
1.55 218.459 68.610
1.56 219.359 67.806
1.57 220.190 67.037
1.58 222.076 66.671
1.59 222.562 66.328
1.60 223.235 66.103
1.61 223.655 66.465
1.62 224.770 67.253
1.63 224.673 68.003
1.64 223.153 68.233
1.65 221.836 67.735
1.66 219.858 66.237
1.67 218.265 63.132
1.68 225.735 58.251
1.69 --undefined-- 54.028
1.70 --undefined-- 53.219
1.71 --undefined-- 53.503
1.72 --undefined-- 53.669
1.73 --undefined-- 53.281
1.74 --undefined-- 52.176
1.75 --undefined-- 50.781
1.76 --undefined-- 50.368
1.77 --undefined-- 50.694
1.78 --undefined-- 55.115
1.79 --undefined-- 64.868
1.80 259.487 71.231
1.81 252.148 74.027
1.82 240.519 74.330
1.83 230.508 73.679
1.84 223.059 73.151
1.85 216.990 72.670
1.86 210.966 72.081
1.87 206.488 71.798
1.88 202.120 72.064
1.89 198.414 72.432
1.90 197.139 72.049
1.91 200.014 70.019
1.92 204.822 66.003
1.93 206.854 60.790
1.94 201.003 55.980
1.95 193.478 53.933
1.96 201.510 54.799
1.97 201.069 56.393
1.98 195.595 61.138
1.99 193.775 66.972
2.00 192.745 70.478
2.01 184.063 72.147
2.02 177.005 73.233
2.03 173.502 73.552
2.04 170.537 72.101
2.05 165.471 68.295
2.06 153.287 62.375
2.07 --undefined-- 56.340
2.08 --undefined-- 51.991
2.09 --undefined-- 49.717
2.10 --undefined-- 49.897
2.11 --undefined-- 50.674
2.12 --undefined-- 51.191
2.13 --undefined-- 51.034
2.14 --undefined-- 50.902
2.15 --undefined-- 53.504
2.16 --undefined-- 62.087
2.17 243.771 69.276
2.18 235.816 73.024
2.19 226.108 74.107
2.20 219.111 73.830
2.21 214.852 73.408
2.22 210.323 73.230
2.23 205.490 73.370
2.24 200.866 73.599
2.25 196.583 73.475
2.26 193.408 72.738
2.27 194.155 71.464
2.28 196.939 69.662
2.29 195.740 67.291
2.30 194.830 65.153
2.31 195.225 63.762
2.32 194.201 62.143
2.33 190.399 59.905
2.34 190.717 57.508
2.35 191.442 54.010
2.36 --undefined-- 49.020
2.37 --undefined-- 46.616
2.38 --undefined-- 45.814
2.39 --undefined-- 51.087
2.40 --undefined-- 61.861
2.41 --undefined-- 67.836
2.42 --undefined-- 69.380
2.43 --undefined-- 67.443
2.44 --undefined-- 65.386
2.45 --undefined-- 65.920
2.46 --undefined-- 66.119
2.47 --undefined-- 65.482
2.48 --undefined-- 64.057
2.49 --undefined-- 65.267
2.50 --undefined-- 70.461
2.51 --undefined-- 73.662
2.52 --undefined-- 74.005
2.53 --undefined-- 72.739
2.54 --undefined-- 71.595
2.55 --undefined-- 70.098
2.56 --undefined-- 67.852
2.57 --undefined-- 66.447
2.58 --undefined-- 65.181
2.59 --undefined-- 63.001
2.60 --undefined-- 61.196
2.61 --undefined-- 60.432
2.62 86.989 59.960
2.63 89.265 60.237
2.64 78.926 60.080
2.65 78.812 59.171
2.66 80.011 58.317
2.67 77.380 57.107
2.68 --undefined-- 55.852
2.69 --undefined-- 56.181
2.70 --undefined-- 55.919
2.71 --undefined-- 52.295
2.72 --undefined-- 45.424
2.73 --undefined-- 42.746
2.74 --undefined-- 43.366
2.75 --undefined-- 42.365
2.76 --undefined-- 40.583
2.77 --undefined-- 39.218
2.78 --undefined-- 38.621
2.79 --undefined-- 39.440
2.80 --undefined-- 41.798
2.81 --undefined-- 45.077
2.82 --undefined-- 46.294
2.83 --undefined-- 44.722
2.84 --undefined-- 41.764
2.85 --undefined-- 40.286
2.86 --undefined-- 40.785
2.87 --undefined-- 42.321
2.88 --undefined-- 43.043
2.89 --undefined-- 42.283
2.90 --undefined-- 41.178
2.91 --undefined-- 41.675
2.92 --undefined-- 42.702
2.93 --undefined-- 42.177
2.94 --undefined-- 40.198
2.95 --undefined-- 38.849
2.96 --undefined-- 38.448
2.97 --undefined-- 39.305
2.98 --undefined-- 49.464
2.99 --undefined-- 58.644
3.00 --undefined-- 62.978
3.01 --undefined-- 63.297
3.02 --undefined-- 62.187
3.03 198.746 66.272
3.04 195.017 71.726
3.05 186.866 74.886
3.06 182.331 75.501
3.07 179.051 74.432
3.08 175.168 73.349
3.09 173.629 73.080
3.10 174.261 72.924
3.11 177.976 71.752
3.12 200.847 69.090
3.13 215.840 66.339
3.14 224.424 65.838
3.15 230.873 66.600
3.16 233.970 66.981
3.17 234.082 66.259
3.18 232.258 64.626
3.19 247.052 64.657
3.20 255.100 67.780
3.21 258.913 70.514
3.22 258.930 72.075
3.23 255.464 72.844
3.24 251.493 73.407
3.25 248.953 73.900
3.26 245.987 73.596
3.27 243.157 72.257
3.28 241.426 70.916
3.29 240.207 70.596
3.30 238.490 70.815
3.31 237.621 70.896
3.32 236.209 70.449
3.33 235.133 69.738
3.34 234.778 69.205
3.35 232.849 69.850
3.36 228.112 72.072
3.37 224.448 73.650
3.38 217.743 73.844
3.39 209.760 73.299
3.40 202.126 71.993
3.41 196.683 69.078
3.42 194.209 65.489
3.43 190.406 64.528
3.44 185.589 64.457
3.45 178.566 64.229
3.46 172.434 64.723
3.47 166.292 67.201
3.48 159.829 70.505
3.49 155.889 72.126
3.50 150.105 71.868
3.51 144.435 70.818
3.52 140.604 69.669
3.53 134.362 67.990
3.54 --undefined-- 65.124
3.55 --undefined-- 60.783
3.56 124.603 57.695
3.57 116.198 56.890
3.58 114.314 56.217
3.59 113.060 56.417
3.60 113.181 56.790
3.61 115.442 56.768
3.62 117.664 56.557
3.63 119.811 56.126
3.64 121.316 55.720
3.65 122.915 55.453
3.66 124.549 54.852
3.67 --undefined-- 52.870
3.68 --undefined-- 49.686
3.69 --undefined-- 47.468
3.70 --undefined-- 46.405
3.71 --undefined-- 45.658
3.72 --undefined-- 43.966
3.73 --undefined-- 42.114
3.74 --undefined-- 42.077
3.75 --undefined-- 41.615
3.76 --undefined-- 39.714
3.77 --undefined-- 39.044
3.78 --undefined-- 43.711
3.79 --undefined-- 49.197
3.80 --undefined-- 51.552
3.81 --undefined-- 52.835
3.82 --undefined-- 59.431
3.83 --undefined-- 66.995
3.84 --undefined-- 71.341
3.85 164.043 72.863
3.86 159.983 72.842
3.87 --undefined-- 72.215
3.88 --undefined-- 70.658
3.89 --undefined-- 68.435
3.90 --undefined-- 68.614
3.91 --undefined-- 70.572
3.92 --undefined-- 71.535
3.93 --undefined-- 71.984
3.94 148.943 72.009
3.95 152.629 71.014
3.96 157.388 69.038
3.97 161.640 66.310
3.98 168.924 62.950
3.99 180.351 59.914
4.00 186.811 58.730
4.01 188.943 59.127
4.02 189.176 60.075
4.03 191.520 59.939
4.04 --undefined-- 57.656
4.05 --undefined-- 53.019
4.06 --undefined-- 48.030
4.07 --undefined-- 44.655
4.08 --undefined-- 42.243
4.09 --undefined-- 41.908
4.10 --undefined-- 45.751
4.11 --undefined-- 52.458
4.12 --undefined-- 55.573
4.13 --undefined-- 54.433
4.14 --undefined-- 49.235
4.15 --undefined-- 42.840
4.16 --undefined-- 40.680
4.17 --undefined-- 40.035
4.18 --undefined-- 39.499
4.19 --undefined-- 39.162
4.20 --undefined-- 39.293
4.21 --undefined-- 39.191
4.22 --undefined-- 43.338
4.23 --undefined-- 53.663
4.24 --undefined-- 60.035
4.25 --undefined-- 62.998
4.26 --undefined-- 64.447
4.27 --undefined-- 65.013
4.28 --undefined-- 65.051
4.29 --undefined-- 69.307
4.30 --undefined-- 73.443
4.31 183.612 74.755
4.32 182.505 74.185
4.33 183.839 73.753
4.34 186.311 73.307
4.35 191.488 71.241
4.36 202.647 67.385
4.37 205.331 63.891
4.38 211.146 63.368
4.39 216.339 63.588
4.40 218.932 61.714
4.41 --undefined-- 57.412
4.42 --undefined-- 56.913
4.43 --undefined-- 61.517
4.44 --undefined-- 66.133
4.45 258.813 69.796
4.46 256.739 71.531
4.47 247.515 72.390
4.48 236.510 73.217
4.49 228.799 73.005
4.50 224.224 71.466
4.51 222.912 70.216
4.52 221.911 70.189
4.53 221.289 70.488
4.54 221.077 70.707
4.55 220.914 70.700
4.56 220.250 70.294
4.57 218.331 69.266
4.58 214.864 67.832
4.59 215.429 67.872
4.60 217.125 69.755
4.61 211.183 71.326
4.62 201.090 72.314
4.63 192.939 72.899
4.64 186.742 72.470
4.65 176.466 71.143
4.66 171.501 70.412
4.67 169.261 70.192
4.68 168.302 69.943
4.69 168.992 70.061
4.70 169.696 70.533
4.71 169.361 70.827
4.72 167.798 70.044
4.73 165.178 67.582
4.74 164.984 63.611
4.75 166.371 59.255
4.76 166.396 55.567
4.77 168.351 54.012
4.78 171.579 57.892
4.79 172.519 64.148
4.80 173.125 69.056
4.81 174.260 72.211
4.82 174.570 73.549
4.83 173.884 73.479
4.84 173.084 72.551
4.85 174.291 71.592
4.86 176.871 71.278
4.87 179.344 71.271
4.88 181.794 71.298
4.89 184.921 71.544
4.90 188.758 72.169
4.91 191.929 72.980
4.92 194.164 73.520
4.93 195.019 73.668
4.94 194.655 73.755
4.95 192.959 73.959
4.96 190.573 74.064
4.97 187.864 73.916
4.98 184.391 73.401
4.99 179.506 72.667
5.00 175.310 72.270
5.01 172.520 72.161
5.02 170.833 72.003
5.03 169.324 71.886
5.04 168.093 71.850
5.05 167.548 71.921
5.06 167.141 71.686
5.07 165.872 70.236
5.08 163.999 66.825
5.09 164.807 61.507
5.10 166.963 56.502
5.11 167.012 53.728
5.12 --undefined-- 50.983
5.13 --undefined-- 48.681
5.14 --undefined-- 47.595
5.15 --undefined-- 46.574
5.16 --undefined-- 45.112
5.17 --undefined-- 43.585
5.18 --undefined-- 42.557
5.19 --undefined-- 42.261
5.20 --undefined-- 41.644
5.21 --undefined-- 40.212
5.22 --undefined-- 40.208
5.23 --undefined-- 43.676
5.24 --undefined-- 47.055
5.25 --undefined-- 49.123
5.26 --undefined-- 50.574
5.27 --undefined-- 51.842
5.28 --undefined-- 52.823
5.29 --undefined-- 53.243
5.30 --undefined-- 54.495
5.31 --undefined-- 57.769
5.32 --undefined-- 59.648
5.33 --undefined-- 59.328
5.34 --undefined-- 57.616
5.35 --undefined-- 58.189
5.36 --undefined-- 66.177
5.37 243.887 71.887
5.38 240.161 74.155
5.39 235.705 73.931
5.40 231.006 72.809
5.41 227.237 72.404
5.42 224.286 72.571
5.43 221.482 72.693
5.44 218.957 72.617
5.45 217.435 72.357
5.46 216.966 71.932
5.47 216.520 71.351
5.48 216.857 70.722
5.49 216.900 70.201
5.50 216.113 69.841
5.51 215.391 69.256
5.52 214.809 --undefined--
5.53 214.244 --undefined--
5.54 --undefined-- --undefined--
5.55 --undefined-- --undefined--
