Time Pitch Intensity
0.01 --undefined-- --undefined--
0.02 114.514 --undefined--
0.03 113.630 --undefined--
0.04 113.002 --undefined--
0.05 112.358 73.950
0.06 109.896 70.941
0.07 102.291 66.584
0.08 110.951 62.940
0.09 112.171 59.847
0.10 120.036 56.025
0.11 --undefined-- 52.039
0.12 --undefined-- 47.787
0.13 --undefined-- 45.459
0.14 --undefined-- 51.718
0.15 --undefined-- 62.793
0.16 --undefined-- 70.377
0.17 --undefined-- 74.326
0.18 131.500 75.315
0.19 116.971 74.701
0.20 114.314 73.964
0.21 111.909 73.289
0.22 111.005 72.074
0.23 111.272 70.647
0.24 113.407 69.700
0.25 115.239 69.141
0.26 118.665 68.998
0.27 122.123 69.448
0.28 126.754 70.453
0.29 132.921 71.670
0.30 136.208 72.688
0.31 138.382 73.404
0.32 139.921 73.902
0.33 142.600 74.323
0.34 145.088 74.833
0.35 144.915 75.360
0.36 145.870 75.807
0.37 147.800 76.215
0.38 149.647 76.557
0.39 151.618 76.754
0.40 153.292 76.708
0.41 153.558 76.178
0.42 152.449 74.777
0.43 147.948 72.411
0.44 148.447 69.686
0.45 149.510 66.639
0.46 152.135 63.354
0.47 154.116 62.281
0.48 --undefined-- 65.793
0.49 --undefined-- 71.004
0.50 132.243 73.827
0.51 119.127 74.677
0.52 114.938 74.809
0.53 110.651 74.477
0.54 108.548 73.293
0.55 107.153 71.034
0.56 106.477 68.223
0.57 108.695 66.297
0.58 111.605 65.958
0.59 118.165 67.802
0.60 126.462 71.050
0.61 129.833 73.601
0.62 130.497 75.027
0.63 130.439 75.773
0.64 130.233 76.061
0.65 129.620 75.742
0.66 128.775 74.504
0.67 127.063 72.200
0.68 124.117 69.065
0.69 124.631 65.014
0.70 128.437 59.766
0.71 129.756 55.189
0.72 128.133 54.291
0.73 127.973 53.672
0.74 --undefined-- 53.230
0.75 --undefined-- 54.144
0.76 --undefined-- 55.255
0.77 --undefined-- 59.941
0.78 --undefined-- 68.698
0.79 227.284 74.223
0.80 219.951 76.297
0.81 216.731 75.998
0.82 212.417 74.970
0.83 210.188 74.259
0.84 209.496 73.811
0.85 209.194 73.287
0.86 208.626 72.751
0.87 211.642 73.177
0.88 212.878 74.237
0.89 212.827 75.209
0.90 213.358 75.946
0.91 214.126 76.530
0.92 215.717 77.076
0.93 217.827 77.565
0.94 219.759 77.927
0.95 220.856 78.107
0.96 220.403 78.117
0.97 218.309 78.007
0.98 214.509 77.704
0.99 209.252 76.904
1.00 203.457 75.074
1.01 194.878 71.608
1.02 182.637 66.067
1.03 205.645 60.971
1.04 207.783 61.256
1.05 209.693 67.615
1.06 216.254 74.020
1.07 213.929 77.169
1.08 209.280 77.744
1.09 203.597 76.767
1.10 198.901 75.386
1.11 195.904 74.349
1.12 194.383 73.953
1.13 193.374 74.350
1.14 195.804 75.256
1.15 196.555 76.191
1.16 196.940 76.710
1.17 196.700 76.553
1.18 195.364 75.581
1.19 192.778 73.495
1.20 183.476 70.225
1.21 184.141 66.115
1.22 --undefined-- 62.324
1.23 --undefined-- 65.257
1.24 --undefined-- 70.755
1.25 150.746 73.565
1.26 148.920 73.401
1.27 122.596 71.144
1.28 117.167 68.918
1.29 114.441 68.020
1.30 108.604 67.895
1.31 105.514 68.185
1.32 103.693 68.528
1.33 102.103 68.745
1.34 101.441 68.886
1.35 100.165 69.084
1.36 99.844 69.155
1.37 99.305 68.902
1.38 98.834 68.343
1.39 98.738 67.880
1.40 100.138 68.777
1.41 105.862 71.082
1.42 106.266 72.656
1.43 105.243 73.167
1.44 103.926 73.346
1.45 103.072 73.432
1.46 102.532 73.302
1.47 102.579 72.959
1.48 102.946 72.663
1.49 102.464 72.462
1.50 103.362 72.148
1.51 102.354 71.384
1.52 96.813 70.033
1.53 103.598 69.185
1.54 106.225 69.416
1.55 106.930 69.751
1.56 107.613 69.593
1.57 109.080 68.556
1.58 110.560 66.239
1.59 111.927 62.670
1.60 126.375 59.757
1.61 132.374 61.642
1.62 141.940 66.398
1.63 157.125 71.552
1.64 163.345 75.181
1.65 163.221 76.592
1.66 161.040 76.826
1.67 160.224 77.172
1.68 160.377 77.416
1.69 161.079 77.394
1.70 161.661 77.323
1.71 161.857 77.023
1.72 162.571 76.467
1.73 163.650 75.844
1.74 164.591 75.297
1.75 166.483 75.034
1.76 169.185 75.136
1.77 171.998 75.484
1.78 173.330 75.903
1.79 173.565 76.151
1.80 172.809 75.994
1.81 170.204 75.262
1.82 165.527 73.806
1.83 160.237 71.462
1.84 156.880 67.964
1.85 148.033 63.134
1.86 155.903 59.563
1.87 162.775 59.259
1.88 162.268 59.865
1.89 --undefined-- 63.080
1.90 --undefined-- 69.215
1.91 --undefined-- 73.711
1.92 114.210 75.302
1.93 113.820 74.383
1.94 102.780 72.085
1.95 101.452 70.332
1.96 100.367 69.455
1.97 101.490 68.842
1.98 104.573 68.611
1.99 110.512 69.232
2.00 113.902 70.229
2.01 117.598 70.623
2.02 124.010 70.629
2.03 128.121 71.242
2.04 132.279 72.378
2.05 137.147 73.328
2.06 141.380 73.920
2.07 145.571 74.469
2.08 149.279 75.209
2.09 151.621 75.928
2.10 154.114 76.393
2.11 156.230 76.763
2.12 157.343 77.088
2.13 158.925 77.182
2.14 160.196 76.859
2.15 160.846 75.958
2.16 160.901 74.566
2.17 158.334 73.022
2.18 154.054 71.512
2.19 151.677 70.193
2.20 150.361 68.923
2.21 152.995 67.364
2.22 155.309 65.673
2.23 153.338 66.893
2.24 185.225 72.210
2.25 182.756 75.616
2.26 179.554 76.494
2.27 174.669 76.503
2.28 165.924 77.121
2.29 159.621 77.894
2.30 156.266 78.001
2.31 153.530 77.483
2.32 152.337 76.966
2.33 151.248 76.740
2.34 150.713 76.612
2.35 149.961 76.173
2.36 150.160 75.205
2.37 151.110 74.340
2.38 152.551 74.409
2.39 153.118 74.809
2.40 153.992 75.037
2.41 155.245 75.129
2.42 155.869 75.118
2.43 155.875 75.128
2.44 156.242 75.418
2.45 155.582 75.934
2.46 154.652 76.508
2.47 153.641 77.190
2.48 154.048 77.831
2.49 154.701 78.149
2.50 151.541 78.102
2.51 150.538 77.859
2.52 148.685 77.447
2.53 146.318 76.686
2.54 143.618 75.820
2.55 138.267 75.286
2.56 135.845 74.559
2.57 129.369 73.182
2.58 119.677 71.431
2.59 --undefined-- 68.919
2.60 --undefined-- 64.602
2.61 --undefined-- 58.526
2.62 --undefined-- 54.045
2.63 --undefined-- 53.481
2.64 --undefined-- 53.861
2.65 --undefined-- 53.947
2.66 --undefined-- 54.383
2.67 --undefined-- 55.387
2.68 --undefined-- 56.233
2.69 --undefined-- 56.546
2.70 --undefined-- 56.814
2.71 --undefined-- 56.904
2.72 --undefined-- 56.954
2.73 --undefined-- 57.382
2.74 --undefined-- 57.969
2.75 --undefined-- 58.484
2.76 --undefined-- 58.252
2.77 --undefined-- 56.751
2.78 --undefined-- 54.552
2.79 --undefined-- 53.182
2.80 --undefined-- 53.305
2.81 --undefined-- 53.219
2.82 --undefined-- 51.553
2.83 --undefined-- 48.589
2.84 --undefined-- 45.195
2.85 --undefined-- 41.551
2.86 --undefined-- 40.122
2.87 --undefined-- 50.633
2.88 --undefined-- 62.718
2.89 222.974 70.109
2.90 224.739 74.064
2.91 230.839 75.869
2.92 236.495 76.644
2.93 242.371 76.895
2.94 246.641 76.733
2.95 244.498 76.101
2.96 236.860 74.780
2.97 222.063 72.747
2.98 209.248 70.088
2.99 207.740 66.510
3.00 204.943 66.098
3.01 --undefined-- 72.325
3.02 --undefined-- 76.266
3.03 --undefined-- 77.186
3.04 --undefined-- 75.637
3.05 --undefined-- 72.572
3.06 --undefined-- 69.854
3.07 --undefined-- 69.912
3.08 --undefined-- 71.081
3.09 --undefined-- 71.629
3.10 --undefined-- 72.082
3.11 --undefined-- 73.686
3.12 166.048 75.703
3.13 164.783 76.882
3.14 164.754 77.125
3.15 165.079 77.202
3.16 165.194 77.451
3.17 165.697 77.643
3.18 165.180 77.764
3.19 165.207 77.736
3.20 165.273 77.506
3.21 164.390 76.947
3.22 162.854 75.497
3.23 156.872 72.768
3.24 152.588 69.416
3.25 144.105 67.015
3.26 153.305 66.399
3.27 158.946 66.308
3.28 160.001 67.631
3.29 170.460 71.939
3.30 160.886 75.780
3.31 154.987 77.786
3.32 152.425 78.468
3.33 150.798 78.468
3.34 150.670 78.238
3.35 152.069 78.083
3.36 153.994 78.009
3.37 157.014 77.644
3.38 161.617 76.581
3.39 168.100 74.482
3.40 175.318 71.264
3.41 164.077 68.160
3.42 163.640 66.384
3.43 162.678 64.928
3.44 164.432 65.983
3.45 182.679 70.083
3.46 196.887 73.291
3.47 207.880 75.194
3.48 209.279 76.142
3.49 208.943 75.939
3.50 205.868 74.459
3.51 187.461 72.245
3.52 176.924 70.401
3.53 178.827 68.211
3.54 180.105 64.095
3.55 182.284 59.999
3.56 147.133 63.002
3.57 154.236 68.541
3.58 141.443 72.041
3.59 126.522 73.450
3.60 115.186 73.340
3.61 105.582 72.389
3.62 104.126 71.101
3.63 102.015 69.997
3.64 102.157 69.602
3.65 103.412 69.528
3.66 102.899 69.252
3.67 102.040 68.681
3.68 100.411 67.755
3.69 98.274 66.359
3.70 101.905 65.787
3.71 114.275 68.253
3.72 114.635 71.420
3.73 112.210 73.023
3.74 107.726 72.902
3.75 106.750 72.146
3.76 105.975 71.769
3.77 106.642 71.906
3.78 108.265 72.428
3.79 109.233 72.591
3.80 108.922 71.740
3.81 104.374 69.443
3.82 106.923 65.571
3.83 112.534 61.063
3.84 112.206 56.433
3.85 --undefined-- 51.830
3.86 --undefined-- 55.236
3.87 --undefined-- 63.855
3.88 --undefined-- 69.309
3.89 --undefined-- 71.608
3.90 101.497 71.339
3.91 101.919 69.039
3.92 94.789 65.163
3.93 97.846 60.466
3.94 101.278 55.977
3.95 100.609 52.142
3.96 --undefined-- 48.538
3.97 --undefined-- 44.923
3.98 --undefined-- 45.449
3.99 --undefined-- 52.185
4.00 --undefined-- 60.869
4.01 --undefined-- 69.051
4.02 --undefined-- 73.938
4.03 173.688 75.828
4.04 173.648 76.028
4.05 172.670 75.535
4.06 171.326 74.198
4.07 162.887 71.722
4.08 162.722 68.490
4.09 162.886 64.802
4.10 171.669 60.028
4.11 169.944 56.954
4.12 166.228 57.840
4.13 167.448 57.643
4.14 --undefined-- 55.918
4.15 --undefined-- 54.579
4.16 --undefined-- 54.777
4.17 --undefined-- 55.701
4.18 --undefined-- 55.744
4.19 --undefined-- 55.245
4.20 --undefined-- 56.363
4.21 --undefined-- 61.098
4.22 --undefined-- 67.725
4.23 --undefined-- 71.432
4.24 --undefined-- 72.213
4.25 108.037 71.407
4.26 102.569 70.020
4.27 99.032 68.499
4.28 100.286 67.873
4.29 105.768 68.267
4.30 108.868 69.584
4.31 114.291 71.124
4.32 117.372 72.088
4.33 123.058 72.810
4.34 129.033 73.937
4.35 133.745 74.976
4.36 138.489 75.324
4.37 144.889 75.394
4.38 150.369 75.816
4.39 153.323 76.366
4.40 156.450 76.176
4.41 158.016 74.842
4.42 152.543 72.403
4.43 151.893 68.942
4.44 149.524 64.798
4.45 151.108 61.384
4.46 151.335 60.946
4.47 --undefined-- 62.096
4.48 --undefined-- 62.558
4.49 --undefined-- 62.076
4.50 --undefined-- 66.120
4.51 --undefined-- 71.029
4.52 --undefined-- 72.748
4.53 110.388 71.964
4.54 101.969 70.512
4.55 98.914 69.744
4.56 97.782 69.381
4.57 98.214 69.100
4.58 --undefined-- 68.782
4.59 --undefined-- 68.274
4.60 --undefined-- 67.395
4.61 --undefined-- 66.556
4.62 --undefined-- 66.116
4.63 --undefined-- 65.433
4.64 --undefined-- 65.006
4.65 86.352 64.676
4.66 95.105 63.964
4.67 93.124 62.283
4.68 94.222 60.344
4.69 101.201 60.084
4.70 101.054 61.316
4.71 97.536 62.410
4.72 112.917 64.039
4.73 113.541 67.634
4.74 109.540 70.633
4.75 106.673 72.087
4.76 106.988 72.754
4.77 108.727 73.485
4.78 111.933 74.419
4.79 115.934 75.331
4.80 123.769 75.959
4.81 129.385 76.166
4.82 136.230 75.979
4.83 143.309 75.808
4.84 145.124 75.654
4.85 141.355 74.244
4.86 --undefined-- 70.440
4.87 --undefined-- 64.768
4.88 --undefined-- 60.655
4.89 --undefined-- 58.055
4.90 --undefined-- 56.016
4.91 --undefined-- 56.700
4.92 --undefined-- 59.640
4.93 96.818 62.932
4.94 112.397 65.742
4.95 115.972 68.110
4.96 116.069 69.784
4.97 113.236 70.523
4.98 109.719 70.573
4.99 107.200 70.472
5.00 106.771 70.553
5.01 105.806 70.660
5.02 104.842 70.626
5.03 103.924 --undefined--
5.04 102.226 --undefined--
5.05 --undefined-- --undefined--
5.06 --undefined-- --undefined--
