Time Pitch Intensity
0.01 --undefined-- --undefined--
0.02 85.882 --undefined--
0.03 85.550 --undefined--
0.04 85.964 --undefined--
0.05 --undefined-- 52.076
0.06 --undefined-- 51.770
0.07 --undefined-- 52.089
0.08 --undefined-- 51.659
0.09 --undefined-- 51.220
0.10 --undefined-- 52.399
0.11 --undefined-- 54.432
0.12 --undefined-- 56.747
0.13 --undefined-- 58.585
0.14 --undefined-- 58.839
0.15 --undefined-- 60.013
0.16 90.928 62.774
0.17 91.613 64.711
0.18 --undefined-- 65.271
0.19 --undefined-- 64.894
0.20 --undefined-- 64.702
0.21 --undefined-- 64.205
0.22 --undefined-- 63.023
0.23 --undefined-- 61.725
0.24 --undefined-- 60.160
0.25 --undefined-- 57.926
0.26 --undefined-- 55.680
0.27 --undefined-- 55.460
0.28 --undefined-- 57.156
0.29 --undefined-- 58.435
0.30 --undefined-- 58.282
0.31 --undefined-- 57.953
0.32 --undefined-- 58.774
0.33 --undefined-- 59.825
0.34 --undefined-- 59.993
0.35 --undefined-- 59.341
0.36 --undefined-- 58.373
0.37 --undefined-- 58.118
0.38 --undefined-- 57.584
0.39 --undefined-- 55.101
0.40 --undefined-- 53.757
0.41 176.958 55.787
0.42 172.387 56.017
0.43 139.476 54.653
0.44 156.260 54.414
0.45 155.700 54.712
0.46 --undefined-- 55.435
0.47 --undefined-- 57.776
0.48 --undefined-- 60.557
0.49 88.259 63.199
0.50 88.145 65.145
0.51 88.543 65.966
0.52 91.687 66.351
0.53 95.022 66.801
0.54 97.542 66.530
0.55 101.725 65.703
0.56 105.762 65.812
0.57 108.998 65.832
0.58 --undefined-- 63.380
0.59 --undefined-- 57.236
0.60 --undefined-- 50.810
0.61 --undefined-- 58.948
0.62 --undefined-- 65.662
0.63 --undefined-- 69.951
0.64 119.577 72.209
0.65 119.012 72.442
0.66 115.910 70.920
0.67 114.460 68.433
0.68 108.878 65.992
0.69 104.724 64.033
0.70 99.804 62.919
0.71 97.763 63.166
0.72 95.330 64.218
0.73 95.129 64.362
0.74 91.763 62.785
0.75 --undefined-- 59.161
0.76 --undefined-- 53.214
0.77 --undefined-- 45.332
0.78 --undefined-- 39.408
0.79 --undefined-- 46.490
0.80 --undefined-- 53.616
0.81 --undefined-- 57.062
0.82 --undefined-- 56.941
0.83 --undefined-- 55.786
0.84 --undefined-- 59.298
0.85 --undefined-- 62.687
0.86 107.447 65.306
0.87 110.188 68.072
0.88 109.299 70.466
0.89 107.807 71.791
0.90 105.909 71.664
0.91 104.498 70.639
0.92 104.527 69.164
0.93 105.049 67.418
0.94 107.488 66.007
0.95 110.497 64.887
0.96 111.209 63.182
0.97 111.583 60.016
0.98 --undefined-- 55.277
0.99 --undefined-- 50.225
1.00 --undefined-- 47.232
1.01 --undefined-- 46.209
1.02 --undefined-- 45.414
1.03 --undefined-- 44.603
1.04 --undefined-- 45.249
1.05 --undefined-- 49.510
1.06 --undefined-- 55.268
1.07 --undefined-- 60.245
1.08 --undefined-- 63.904
1.09 94.762 66.220
1.10 90.279 67.580
1.11 90.155 68.179
1.12 85.112 68.307
1.13 81.309 68.643
1.14 75.312 68.533
1.15 75.262 67.378
1.16 --undefined-- 65.504
1.17 --undefined-- 63.427
1.18 --undefined-- 61.467
1.19 --undefined-- 58.838
1.20 --undefined-- 55.183
1.21 --undefined-- 50.608
1.22 --undefined-- 44.578
1.23 --undefined-- 38.640
1.24 --undefined-- 35.755
1.25 --undefined-- 33.943
1.26 --undefined-- 33.262
1.27 --undefined-- 33.355
1.28 --undefined-- 32.367
1.29 --undefined-- 32.406
1.30 --undefined-- 34.297
1.31 --undefined-- 35.869
1.32 --undefined-- 37.143
1.33 --undefined-- 38.234
1.34 --undefined-- 38.462
1.35 --undefined-- 37.944
1.36 --undefined-- 37.220
1.37 --undefined-- 37.801
1.38 --undefined-- 39.127
1.39 --undefined-- 39.655
1.40 --undefined-- 39.875
1.41 --undefined-- 40.193
1.42 --undefined-- 40.238
1.43 --undefined-- 39.872
1.44 --undefined-- 39.595
1.45 --undefined-- 39.591
1.46 --undefined-- 39.870
1.47 --undefined-- 40.182
1.48 --undefined-- 40.101
1.49 --undefined-- 39.309
1.50 --undefined-- 37.938
1.51 --undefined-- 37.044
1.52 --undefined-- 36.946
1.53 --undefined-- 36.643
1.54 --undefined-- 35.880
1.55 --undefined-- 39.930
1.56 --undefined-- 46.676
1.57 --undefined-- 49.646
1.58 --undefined-- 48.409
1.59 --undefined-- 43.111
1.60 --undefined-- 36.998
1.61 --undefined-- 35.129
1.62 --undefined-- 34.573
1.63 --undefined-- 35.927
1.64 --undefined-- 37.928
1.65 --undefined-- 39.802
1.66 --undefined-- 42.809
1.67 --undefined-- 45.895
1.68 --undefined-- 48.075
1.69 --undefined-- 49.394
1.70 --undefined-- 50.121
1.71 --undefined-- 51.122
1.72 --undefined-- 54.504
1.73 --undefined-- 59.180
1.74 --undefined-- 62.805
1.75 97.819 65.041
1.76 99.808 66.641
1.77 102.113 68.099
1.78 103.416 68.730
1.79 104.377 68.328
1.80 106.430 67.523
1.81 107.387 66.799
1.82 107.754 66.002
1.83 107.689 64.998
1.84 104.222 63.922
1.85 101.236 62.745
1.86 101.118 61.712
1.87 98.126 61.113
1.88 96.096 60.713
1.89 96.028 60.532
1.90 95.539 61.000
1.91 95.037 62.381
1.92 92.013 63.874
1.93 91.961 64.668
1.94 90.570 64.613
1.95 89.995 63.916
1.96 89.352 63.193
1.97 88.245 62.829
1.98 86.815 62.452
1.99 86.858 62.078
2.00 86.860 62.096
2.01 86.862 62.255
2.02 85.740 61.960
2.03 86.554 61.138
2.04 84.712 60.606
2.05 83.910 61.260
2.06 83.696 62.476
2.07 83.502 63.508
2.08 83.437 64.355
2.09 83.758 65.284
2.10 83.383 66.468
2.11 81.342 66.896
2.12 82.032 67.055
2.13 82.018 67.454
2.14 80.720 66.615
2.15 84.069 66.022
2.16 82.603 65.811
2.17 83.305 64.400
2.18 85.396 63.206
2.19 86.737 63.054
2.20 86.343 62.443
2.21 86.678 61.098
2.22 88.802 59.543
2.23 89.900 58.090
2.24 92.770 57.343
2.25 91.314 57.117
2.26 --undefined-- 55.590
2.27 --undefined-- 52.115
2.28 --undefined-- 48.711
2.29 --undefined-- 49.285
2.30 --undefined-- 51.817
2.31 --undefined-- 53.709
2.32 --undefined-- 54.693
2.33 --undefined-- 55.010
2.34 --undefined-- 55.049
2.35 --undefined-- 55.660
2.36 --undefined-- 56.172
2.37 --undefined-- 55.563
2.38 --undefined-- 55.122
2.39 --undefined-- 55.333
2.40 --undefined-- 54.600
2.41 --undefined-- 52.674
2.42 --undefined-- 51.241
2.43 --undefined-- 50.731
2.44 --undefined-- 49.726
2.45 --undefined-- 48.249
2.46 --undefined-- 49.199
2.47 91.565 53.551
2.48 91.622 56.997
2.49 82.906 58.888
2.50 80.303 59.662
2.51 80.371 59.200
2.52 80.694 57.070
2.53 --undefined-- 54.549
2.54 --undefined-- 54.841
2.55 --undefined-- 56.718
2.56 --undefined-- 58.119
2.57 --undefined-- 58.991
2.58 --undefined-- 60.041
2.59 --undefined-- 60.997
2.60 --undefined-- 60.411
2.61 --undefined-- 57.977
2.62 --undefined-- 57.992
2.63 --undefined-- 60.916
2.64 85.756 62.484
2.65 80.037 62.867
2.66 78.781 62.337
2.67 77.211 60.792
2.68 77.463 58.552
2.69 78.102 56.614
2.70 78.229 55.405
2.71 78.922 54.516
2.72 79.464 55.616
2.73 79.835 58.108
2.74 80.228 60.769
2.75 80.694 62.996
2.76 82.439 64.303
2.77 83.756 64.719
2.78 84.221 64.268
2.79 86.914 62.683
2.80 --undefined-- 59.471
2.81 --undefined-- 54.022
2.82 --undefined-- 46.413
2.83 --undefined-- 48.202
2.84 --undefined-- 58.739
2.85 --undefined-- 64.879
2.86 --undefined-- 66.881
2.87 --undefined-- 65.121
2.88 --undefined-- 61.804
2.89 --undefined-- 62.452
2.90 --undefined-- 64.720
2.91 --undefined-- 66.669
2.92 --undefined-- 69.212
2.93 --undefined-- 72.193
2.94 --undefined-- 73.889
2.95 115.584 74.029
2.96 111.995 73.001
2.97 107.552 71.075
2.98 102.743 68.583
2.99 99.024 66.218
3.00 96.942 64.382
3.01 96.705 62.672
3.02 98.020 61.318
3.03 99.699 60.710
3.04 100.440 60.312
3.05 100.674 59.712
3.06 101.561 58.660
3.07 101.754 56.281
3.08 --undefined-- 51.476
3.09 --undefined-- 45.148
3.10 --undefined-- 54.270
3.11 --undefined-- 62.683
3.12 --undefined-- 66.157
3.13 --undefined-- 65.692
3.14 --undefined-- 63.273
3.15 --undefined-- 62.216
3.16 --undefined-- 61.799
3.17 --undefined-- 60.391
3.18 114.196 59.743
3.19 110.273 61.388
3.20 111.452 62.793
3.21 107.704 62.863
3.22 103.700 61.386
3.23 100.387 58.629
3.24 96.927 55.262
3.25 95.300 52.480
3.26 94.128 50.950
3.27 93.134 50.186
3.28 92.473 49.483
3.29 92.320 48.635
3.30 92.474 48.438
3.31 92.856 49.114
3.32 93.198 49.283
3.33 94.493 48.428
3.34 91.886 47.633
3.35 --undefined-- 46.824
3.36 --undefined-- 45.759
3.37 --undefined-- 47.707
3.38 --undefined-- 55.161
3.39 --undefined-- 59.483
3.40 --undefined-- 59.740
3.41 --undefined-- 59.002
3.42 --undefined-- 62.979
3.43 78.385 67.068
3.44 75.726 69.090
3.45 75.683 69.202
3.46 --undefined-- 68.274
3.47 --undefined-- 66.577
3.48 --undefined-- 63.363
3.49 --undefined-- 59.668
3.50 --undefined-- 56.842
3.51 --undefined-- 54.083
3.52 --undefined-- 51.302
3.53 --undefined-- 47.773
3.54 --undefined-- 43.329
3.55 --undefined-- 38.250
3.56 --undefined-- 34.293
3.57 --undefined-- 32.395
3.58 --undefined-- 31.677
3.59 --undefined-- 30.953
3.60 --undefined-- 30.544
3.61 --undefined-- 31.488
3.62 --undefined-- 34.892
3.63 --undefined-- 37.878
3.64 --undefined-- 39.127
3.65 --undefined-- 39.506
3.66 --undefined-- 39.659
3.67 --undefined-- 39.795
3.68 --undefined-- 40.576
3.69 --undefined-- 41.535
3.70 --undefined-- 41.755
3.71 --undefined-- 41.710
3.72 --undefined-- 41.950
3.73 --undefined-- 42.231
3.74 --undefined-- 42.476
3.75 --undefined-- 42.129
3.76 --undefined-- 41.018
3.77 --undefined-- 39.558
3.78 --undefined-- 38.270
3.79 --undefined-- 37.592
3.80 --undefined-- 37.115
3.81 --undefined-- 36.799
3.82 --undefined-- 36.424
3.83 --undefined-- 35.650
3.84 --undefined-- 34.394
3.85 --undefined-- 32.980
3.86 --undefined-- 32.338
3.87 --undefined-- 31.278
3.88 --undefined-- 30.572
3.89 --undefined-- 31.156
3.90 --undefined-- 31.778
3.91 --undefined-- 34.910
3.92 --undefined-- 46.522
3.93 --undefined-- 54.695
3.94 --undefined-- 58.068
3.95 --undefined-- 57.741
3.96 --undefined-- 56.179
3.97 --undefined-- 56.448
3.98 --undefined-- 58.337
3.99 104.098 60.394
4.00 103.828 62.620
4.01 93.179 65.146
4.02 88.750 66.659
4.03 85.225 66.658
4.04 85.102 66.096
4.05 82.973 65.985
4.06 79.805 65.498
4.07 80.052 64.811
4.08 80.054 64.425
4.09 77.784 64.003
4.10 80.574 64.546
4.11 77.716 64.105
4.12 77.298 61.930
4.13 77.282 60.026
4.14 78.073 58.744
4.15 78.003 57.182
4.16 79.805 55.814
4.17 79.951 55.146
4.18 78.817 54.704
4.19 78.930 54.864
4.20 78.789 55.629
4.21 79.612 56.865
4.22 80.577 58.440
4.23 82.681 60.318
4.24 84.419 62.902
4.25 84.497 65.302
4.26 --undefined-- 65.905
4.27 --undefined-- 65.189
4.28 --undefined-- 63.823
4.29 --undefined-- 60.267
4.30 --undefined-- 53.624
4.31 --undefined-- 52.540
4.32 --undefined-- 57.575
4.33 --undefined-- 60.582
4.34 --undefined-- 63.362
4.35 --undefined-- 65.401
4.36 82.068 65.864
4.37 79.641 65.559
4.38 79.867 65.147
4.39 79.534 64.766
4.40 78.896 64.814
4.41 78.407 64.998
4.42 76.707 64.610
4.43 76.270 63.803
4.44 --undefined-- 63.707
4.45 75.062 64.235
4.46 --undefined-- 63.987
4.47 --undefined-- 63.608
4.48 --undefined-- 64.062
4.49 --undefined-- 63.498
4.50 77.554 63.429
4.51 76.181 63.871
4.52 76.334 63.031
4.53 77.137 61.831
4.54 77.870 60.686
4.55 76.569 58.878
4.56 78.539 56.211
4.57 78.482 54.140
4.58 76.336 52.419
4.59 --undefined-- 50.133
4.60 --undefined-- 47.292
4.61 --undefined-- 43.546
4.62 --undefined-- 39.812
4.63 --undefined-- 37.221
4.64 --undefined-- 35.163
4.65 --undefined-- 33.773
4.66 --undefined-- 39.172
4.67 --undefined-- 49.118
4.68 --undefined-- 56.559
4.69 --undefined-- 62.138
4.70 --undefined-- 65.410
4.71 --undefined-- 65.523
4.72 --undefined-- 62.294
4.73 --undefined-- 56.754
4.74 --undefined-- 54.278
4.75 --undefined-- 56.289
4.76 86.512 57.654
4.77 85.051 57.331
4.78 84.687 56.372
4.79 84.759 55.952
4.80 79.190 55.705
4.81 --undefined-- 54.052
4.82 --undefined-- 50.560
4.83 --undefined-- 47.633
4.84 --undefined-- 46.096
4.85 --undefined-- 45.969
4.86 --undefined-- 48.487
4.87 --undefined-- 50.736
4.88 --undefined-- 52.099
4.89 --undefined-- 52.871
4.90 --undefined-- 53.554
4.91 --undefined-- 54.476
4.92 --undefined-- 54.817
4.93 --undefined-- 56.198
4.94 --undefined-- 59.934
4.95 96.013 62.282
4.96 99.278 62.958
4.97 99.080 62.754
4.98 99.229 61.339
4.99 99.469 57.960
5.00 --undefined-- 52.030
5.01 --undefined-- 43.815
5.02 --undefined-- 42.742
5.03 --undefined-- 51.663
5.04 --undefined-- 57.406
5.05 --undefined-- 60.842
5.06 100.283 63.448
5.07 99.927 64.744
5.08 91.684 64.823
5.09 90.899 64.079
5.10 89.289 62.829
5.11 89.050 61.866
5.12 87.673 61.488
5.13 --undefined-- 60.830
5.14 --undefined-- 58.867
5.15 --undefined-- 54.697
5.16 --undefined-- 48.038
5.17 --undefined-- 43.271
5.18 --undefined-- 41.094
5.19 --undefined-- 42.300
5.20 --undefined-- 52.870
5.21 --undefined-- 59.627
5.22 --undefined-- 63.337
5.23 --undefined-- 66.025
5.24 --undefined-- 67.416
5.25 78.984 67.040
5.26 80.209 65.940
5.27 78.384 65.287
5.28 78.225 64.787
5.29 76.471 64.425
5.30 75.110 63.876
5.31 75.828 62.230
5.32 75.805 60.525
5.33 75.634 60.237
5.34 77.819 60.418
5.35 77.985 61.022
5.36 --undefined-- 61.465
5.37 --undefined-- 60.890
5.38 --undefined-- 59.946
5.39 --undefined-- 59.007
5.40 --undefined-- 57.476
5.41 80.550 56.252
5.42 83.388 55.587
5.43 85.923 55.380
5.44 88.142 57.643
5.45 --undefined-- 61.720
5.46 89.375 64.550
5.47 91.404 65.643
5.48 91.161 65.632
5.49 90.296 65.530
5.50 90.309 65.718
5.51 88.314 65.311
5.52 88.563 64.037
5.53 86.524 62.040
5.54 86.739 58.934
5.55 87.314 55.852
5.56 87.609 54.682
5.57 87.366 54.141
5.58 86.741 52.989
5.59 --undefined-- 51.192
5.60 --undefined-- 48.205
5.61 --undefined-- 44.518
5.62 --undefined-- 43.809
5.63 --undefined-- 44.778
5.64 --undefined-- 45.927
5.65 --undefined-- 46.915
5.66 84.413 47.511
5.67 86.434 47.992
5.68 85.498 48.868
5.69 85.385 51.904
5.70 --undefined-- 56.169
5.71 --undefined-- 59.418
5.72 --undefined-- 61.216
5.73 --undefined-- 61.000
5.74 --undefined-- 58.222
5.75 --undefined-- 52.663
5.76 --undefined-- 44.336
5.77 --undefined-- 46.797
5.78 --undefined-- 55.726
5.79 --undefined-- 59.922
5.80 --undefined-- 60.648
5.81 --undefined-- 61.253
5.82 85.936 62.803
5.83 79.198 --undefined--
5.84 79.306 --undefined--
5.85 --undefined-- --undefined--
5.86 --undefined-- --undefined--
