Time Pitch Intensity
0.01 --undefined-- --undefined--
0.02 --undefined-- --undefined--
0.03 --undefined-- --undefined--
0.04 --undefined-- --undefined--
0.05 --undefined-- 62.818
0.06 --undefined-- 61.557
0.07 --undefined-- 61.641
0.08 216.400 62.964
0.09 208.491 64.612
0.10 189.797 66.220
0.11 182.838 67.043
0.12 175.684 66.869
0.13 169.232 65.850
0.14 162.716 64.439
0.15 154.348 63.775
0.16 153.861 64.584
0.17 155.796 65.686
0.18 159.574 65.909
0.19 165.093 65.643
0.20 167.287 65.984
0.21 168.707 66.392
0.22 171.043 66.367
0.23 172.811 66.028
0.24 173.426 64.639
0.25 169.937 61.679
0.26 --undefined-- 59.920
0.27 --undefined-- 60.760
0.28 --undefined-- 59.747
0.29 --undefined-- 57.148
0.30 --undefined-- 56.240
0.31 --undefined-- 54.972
0.32 --undefined-- 51.218
0.33 --undefined-- 49.606
0.34 --undefined-- 51.472
0.35 --undefined-- 52.981
0.36 --undefined-- 55.830
0.37 199.333 58.857
0.38 195.624 61.177
0.39 196.834 63.489
0.40 195.795 66.007
0.41 195.122 67.952
0.42 196.280 68.770
0.43 198.407 68.705
0.44 202.357 68.159
0.45 215.268 67.542
0.46 225.265 67.607
0.47 238.014 68.423
0.48 243.460 69.977
0.49 255.420 72.530
0.50 266.369 74.687
0.51 263.684 75.341
0.52 258.568 76.072
0.53 254.955 77.974
0.54 243.204 79.410
0.55 229.511 80.114
0.56 223.727 79.592
0.57 --undefined-- 78.118
0.58 --undefined-- 77.122
0.59 --undefined-- 75.784
0.60 --undefined-- 73.002
0.61 --undefined-- 68.893
0.62 --undefined-- 64.353
0.63 --undefined-- 61.034
0.64 --undefined-- 60.474
0.65 --undefined-- 60.048
0.66 --undefined-- 57.841
0.67 --undefined-- 56.798
0.68 --undefined-- 58.903
0.69 --undefined-- 59.164
0.70 --undefined-- 57.597
0.71 --undefined-- 56.936
0.72 --undefined-- 56.849
0.73 --undefined-- 55.523
0.74 --undefined-- 53.967
0.75 --undefined-- 54.255
0.76 --undefined-- 56.832
0.77 --undefined-- 58.172
0.78 --undefined-- 57.278
0.79 --undefined-- 55.461
0.80 --undefined-- 56.554
0.81 --undefined-- 59.520
0.82 --undefined-- 60.544
0.83 --undefined-- 59.602
0.84 --undefined-- 57.561
0.85 --undefined-- 58.197
0.86 --undefined-- 61.076
0.87 --undefined-- 61.360
0.88 --undefined-- 58.759
0.89 --undefined-- 54.424
0.90 --undefined-- 53.915
0.91 --undefined-- 58.914
0.92 287.680 62.965
0.93 270.173 65.376
0.94 258.553 66.942
0.95 256.317 68.005
0.96 258.700 68.233
0.97 253.814 67.060
0.98 233.994 64.414
0.99 --undefined-- 61.894
1.00 --undefined-- 64.129
1.01 284.475 68.803
1.02 274.909 72.206
1.03 264.167 74.492
1.04 256.989 75.594
1.05 247.656 75.514
1.06 241.829 74.389
1.07 231.293 71.949
1.08 228.225 68.416
1.09 200.458 66.520
1.10 185.249 66.965
1.11 220.893 66.618
1.12 221.732 66.356
1.13 225.346 68.160
1.14 214.991 69.672
1.15 206.013 69.690
1.16 197.777 69.048
1.17 187.791 68.449
1.18 185.181 67.885
1.19 193.320 68.017
1.20 196.948 68.107
1.21 198.509 67.592
1.22 199.322 67.246
1.23 202.288 67.317
1.24 203.272 66.587
1.25 198.888 64.087
1.26 185.795 59.730
1.27 --undefined-- 55.280
1.28 --undefined-- 56.744
1.29 --undefined-- 61.407
1.30 --undefined-- 65.256
1.31 201.575 68.638
1.32 187.915 71.211
1.33 181.075 72.100
1.34 178.338 71.767
1.35 180.107 72.012
1.36 186.105 72.995
1.37 190.158 73.555
1.38 194.954 73.159
1.39 200.517 71.662
1.40 208.604 69.835
1.41 224.349 68.986
1.42 234.725 68.385
1.43 246.425 68.206
1.44 261.600 69.086
1.45 267.148 69.781
1.46 270.682 69.880
1.47 269.795 69.458
1.48 271.223 69.438
1.49 269.756 70.392
1.50 256.490 71.277
1.51 239.096 71.730
1.52 220.790 71.460
1.53 201.115 70.523
1.54 188.476 69.827
1.55 182.847 69.428
1.56 182.086 68.612
1.57 178.453 67.218
1.58 171.285 65.721
1.59 166.425 64.653
1.60 166.120 63.751
1.61 171.025 62.874
1.62 177.973 63.241
1.63 187.174 65.075
1.64 194.766 66.552
1.65 214.861 67.197
1.66 240.210 68.235
1.67 251.082 70.253
1.68 259.385 72.388
1.69 265.939 73.648
1.70 272.582 74.191
1.71 276.762 74.684
1.72 277.376 75.229
1.73 271.973 75.837
1.74 262.620 76.002
1.75 --undefined-- 75.237
1.76 --undefined-- 73.796
1.77 --undefined-- 72.210
1.78 --undefined-- 69.732
1.79 --undefined-- 65.601
1.80 --undefined-- 61.150
1.81 --undefined-- 58.689
1.82 --undefined-- 57.587
1.83 --undefined-- 55.425
1.84 --undefined-- 52.236
1.85 --undefined-- 49.556
1.86 --undefined-- 50.051
1.87 --undefined-- 53.549
1.88 --undefined-- 56.419
1.89 --undefined-- 57.112
1.90 --undefined-- 56.057
1.91 --undefined-- 55.240
1.92 --undefined-- 56.346
1.93 --undefined-- 59.190
1.94 --undefined-- 61.791
1.95 --undefined-- 62.010
1.96 --undefined-- 59.193
1.97 --undefined-- 53.789
1.98 --undefined-- 50.825
1.99 --undefined-- 54.876
2.00 --undefined-- 59.052
2.01 --undefined-- 60.436
2.02 --undefined-- 59.290
2.03 --undefined-- 58.417
2.04 --undefined-- 58.850
2.05 --undefined-- 57.721
2.06 --undefined-- 54.344
2.07 --undefined-- 50.346
2.08 --undefined-- 50.846
2.09 --undefined-- 53.710
2.10 --undefined-- 55.310
2.11 --undefined-- 55.259
2.12 --undefined-- 56.697
2.13 --undefined-- 58.353
2.14 --undefined-- 57.079
2.15 --undefined-- 54.920
2.16 --undefined-- 57.148
2.17 --undefined-- 60.992
2.18 --undefined-- 65.983
2.19 --undefined-- 70.580
2.20 239.365 73.085
2.21 233.595 73.841
2.22 230.681 73.871
2.23 229.867 73.403
2.24 229.138 72.597
2.25 231.063 71.995
2.26 234.032 71.614
2.27 238.456 71.373
2.28 244.989 71.091
2.29 252.933 70.924
2.30 260.937 70.933
2.31 267.883 70.740
2.32 280.002 70.744
2.33 288.938 71.066
2.34 150.849 71.317
2.35 158.303 71.620
2.36 164.900 72.136
2.37 170.175 72.692
2.38 175.198 73.295
2.39 178.581 73.984
2.40 180.993 74.749
2.41 182.337 75.251
2.42 183.222 74.641
2.43 183.993 72.009
2.44 185.580 66.845
2.45 183.490 60.101
2.46 --undefined-- 56.173
2.47 --undefined-- 58.593
2.48 --undefined-- 61.170
2.49 --undefined-- 63.424
2.50 --undefined-- 70.504
2.51 198.735 76.247
2.52 197.688 78.866
2.53 197.724 79.389
2.54 197.807 79.123
2.55 198.207 78.757
2.56 199.915 78.621
2.57 200.885 79.043
2.58 201.143 79.833
2.59 200.971 80.522
2.60 200.723 80.856
2.61 199.776 80.795
2.62 197.729 80.607
2.63 192.159 81.221
2.64 186.687 81.932
2.65 --undefined-- 80.657
2.66 --undefined-- 76.957
2.67 --undefined-- 72.356
2.68 --undefined-- 68.002
2.69 --undefined-- 62.800
2.70 --undefined-- 59.428
2.71 --undefined-- 58.831
2.72 --undefined-- 57.185
2.73 --undefined-- 55.747
2.74 --undefined-- 56.704
2.75 --undefined-- 58.257
2.76 --undefined-- 57.762
2.77 --undefined-- 57.232
2.78 --undefined-- 58.362
2.79 --undefined-- 59.329
2.80 --undefined-- 60.710
2.81 --undefined-- 61.920
2.82 --undefined-- 61.792
2.83 --undefined-- 61.415
2.84 198.989 62.214
2.85 217.331 63.560
2.86 218.957 65.811
2.87 204.401 68.128
2.88 195.303 69.274
2.89 192.420 69.557
2.90 192.094 69.860
2.91 191.834 70.504
2.92 191.230 71.175
2.93 189.690 71.412
2.94 188.455 71.355
2.95 189.236 71.396
2.96 190.132 71.639
2.97 190.718 71.863
2.98 191.241 71.981
2.99 190.836 72.004
3.00 189.595 71.849
3.01 187.445 71.310
3.02 184.212 69.876
3.03 180.223 67.323
3.04 177.411 64.476
3.05 174.783 63.344
3.06 172.509 64.129
3.07 174.023 64.888
3.08 174.941 65.074
3.09 176.629 65.873
3.10 181.003 68.264
3.11 187.598 70.906
3.12 195.295 73.021
3.13 196.345 74.471
3.14 193.737 75.449
3.15 190.276 76.057
3.16 186.278 75.624
3.17 184.129 74.162
3.18 183.556 73.189
3.19 185.340 73.392
3.20 187.419 74.125
3.21 187.775 74.895
3.22 188.806 74.812
3.23 189.417 73.227
3.24 187.685 70.008
3.25 185.538 65.611
3.26 185.571 61.535
3.27 --undefined-- 58.509
3.28 --undefined-- 57.493
3.29 --undefined-- 60.197
3.30 --undefined-- 64.324
3.31 204.184 68.164
3.32 199.126 71.239
3.33 189.056 73.226
3.34 185.155 73.469
3.35 183.320 71.298
3.36 189.118 66.376
3.37 --undefined-- 59.238
3.38 --undefined-- 53.301
3.39 --undefined-- 56.524
3.40 --undefined-- 63.559
3.41 205.514 67.821
3.42 203.319 69.408
3.43 202.200 70.007
3.44 202.491 70.974
3.45 199.754 71.724
3.46 203.942 71.521
3.47 211.599 71.010
3.48 228.113 71.562
3.49 237.532 72.492
3.50 246.708 72.140
3.51 257.750 70.162
3.52 283.836 68.153
3.53 287.355 67.111
3.54 286.752 65.896
3.55 --undefined-- 64.344
3.56 96.274 62.151
3.57 94.157 58.608
3.58 --undefined-- 54.158
3.59 --undefined-- 52.755
3.60 --undefined-- 56.494
3.61 --undefined-- 60.292
3.62 --undefined-- 61.491
3.63 --undefined-- 59.993
3.64 --undefined-- 58.296
3.65 --undefined-- 57.467
3.66 --undefined-- 55.254
3.67 --undefined-- 54.512
3.68 --undefined-- 54.841
3.69 --undefined-- 53.144
3.70 --undefined-- 54.906
3.71 232.701 59.877
3.72 212.178 63.436
3.73 206.719 65.811
3.74 203.733 67.214
3.75 200.685 67.479
3.76 194.024 67.138
3.77 186.243 67.099
3.78 180.780 67.504
3.79 176.997 67.819
3.80 175.037 67.732
3.81 174.611 67.365
3.82 174.616 67.135
3.83 175.499 67.252
3.84 176.830 67.423
3.85 178.768 67.574
3.86 181.055 67.962
3.87 183.974 68.501
3.88 187.950 68.864
3.89 190.742 68.771
3.90 192.880 68.320
3.91 194.246 67.518
3.92 195.197 66.714
3.93 207.874 67.566
3.94 208.945 70.078
3.95 206.992 72.548
3.96 204.015 74.144
3.97 200.907 74.835
3.98 198.850 74.965
3.99 198.039 74.456
4.00 198.832 72.992
4.01 199.670 71.584
4.02 200.159 71.472
4.03 201.942 71.583
4.04 203.802 70.800
4.05 204.670 69.278
4.06 203.756 68.018
4.07 217.099 67.706
4.08 226.094 68.383
4.09 233.042 69.588
4.10 245.334 71.191
4.11 256.196 73.568
4.12 259.687 75.424
4.13 265.357 75.860
4.14 273.641 76.069
4.15 278.100 76.910
4.16 283.379 77.285
4.17 287.253 76.605
4.18 293.286 74.922
4.19 295.873 73.485
4.20 294.927 72.743
4.21 291.603 72.057
4.22 288.210 71.256
4.23 284.470 70.077
4.24 277.789 68.553
4.25 267.899 67.310
4.26 250.231 67.178
4.27 234.046 68.870
4.28 220.966 71.014
4.29 207.305 72.842
4.30 194.302 74.622
4.31 185.649 75.883
4.32 180.896 75.911
4.33 179.146 74.794
4.34 179.961 73.193
4.35 180.677 71.787
4.36 181.335 71.074
4.37 180.909 70.698
4.38 179.796 70.338
4.39 178.569 69.664
4.40 176.908 67.676
4.41 175.270 63.545
4.42 --undefined-- 59.130
4.43 --undefined-- 60.623
4.44 191.928 64.405
4.45 189.386 67.363
4.46 187.008 69.134
4.47 185.931 70.102
4.48 183.823 70.508
4.49 184.687 70.651
4.50 188.968 70.635
4.51 194.922 69.969
4.52 208.800 68.470
4.53 214.144 66.484
4.54 218.609 63.833
4.55 213.583 60.246
4.56 --undefined-- 56.659
4.57 --undefined-- 55.223
4.58 --undefined-- 54.176
4.59 --undefined-- 52.970
4.60 --undefined-- 53.550
4.61 --undefined-- 53.131
4.62 --undefined-- 51.976
4.63 --undefined-- 53.230
4.64 --undefined-- 53.246
4.65 --undefined-- 51.676
4.66 --undefined-- 55.035
4.67 --undefined-- 62.410
4.68 203.190 68.276
4.69 200.231 71.849
4.70 197.059 73.475
4.71 194.615 73.778
4.72 193.230 74.112
4.73 191.830 75.328
4.74 190.506 76.471
4.75 189.364 76.346
4.76 188.514 74.366
4.77 187.004 70.856
4.78 186.830 67.057
4.79 189.789 64.363
4.80 190.736 62.625
4.81 191.763 60.989
4.82 --undefined-- 61.210
4.83 --undefined-- 61.739
4.84 --undefined-- 60.402
4.85 --undefined-- 57.570
4.86 --undefined-- 54.891
4.87 --undefined-- 57.235
4.88 --undefined-- 61.426
4.89 261.977 65.008
4.90 247.898 68.644
4.91 239.150 71.370
4.92 235.680 --undefined--
4.93 233.322 --undefined--
4.94 --undefined-- --undefined--
4.95 --undefined-- --undefined--
