Time Pitch Intensity
0.01 --undefined-- --undefined--
0.02 123.831 --undefined--
0.03 124.086 --undefined--
0.04 124.805 --undefined--
0.05 125.058 71.373
0.06 124.806 71.100
0.07 123.719 70.984
0.08 122.981 70.958
0.09 123.469 70.796
0.10 124.528 70.217
0.11 124.580 69.123
0.12 124.508 67.660
0.13 124.742 65.984
0.14 --undefined-- 63.923
0.15 --undefined-- 60.998
0.16 --undefined-- 57.534
0.17 --undefined-- 53.455
0.18 --undefined-- 51.991
0.19 284.060 53.019
0.20 290.753 52.057
0.21 --undefined-- 48.089
0.22 --undefined-- 41.752
0.23 --undefined-- 35.655
0.24 --undefined-- 33.697
0.25 --undefined-- 35.497
0.26 --undefined-- 36.802
0.27 --undefined-- 36.112
0.28 --undefined-- 34.804
0.29 --undefined-- 33.607
0.30 --undefined-- 33.362
0.31 --undefined-- 35.096
0.32 --undefined-- 36.453
0.33 --undefined-- 36.267
0.34 --undefined-- 35.371
0.35 --undefined-- 34.871
0.36 --undefined-- 36.919
0.37 --undefined-- 40.086
0.38 --undefined-- 41.208
0.39 --undefined-- 39.523
0.40 --undefined-- 36.830
0.41 --undefined-- 36.715
0.42 --undefined-- 38.368
0.43 --undefined-- 38.975
0.44 --undefined-- 38.189
0.45 --undefined-- 37.177
0.46 --undefined-- 36.893
0.47 --undefined-- 36.609
0.48 --undefined-- 35.846
0.49 --undefined-- 35.260
0.50 --undefined-- 35.729
0.51 --undefined-- 37.950
0.52 --undefined-- 39.512
0.53 --undefined-- 39.059
0.54 --undefined-- 38.216
0.55 --undefined-- 40.295
0.56 --undefined-- 41.884
0.57 --undefined-- 41.176
0.58 --undefined-- 40.141
0.59 --undefined-- 41.202
0.60 --undefined-- 43.188
0.61 --undefined-- 44.493
0.62 --undefined-- 46.335
0.63 --undefined-- 49.831
0.64 --undefined-- 58.530
0.65 --undefined-- 66.671
0.66 --undefined-- 71.620
0.67 137.578 74.049
0.68 132.961 74.662
0.69 130.207 74.194
0.70 131.874 73.444
0.71 133.910 72.932
0.72 133.625 72.858
0.73 130.662 73.294
0.74 128.573 74.025
0.75 127.375 74.636
0.76 126.756 74.731
0.77 127.711 74.149
0.78 129.243 73.290
0.79 130.243 72.854
0.80 126.335 72.710
0.81 127.367 72.405
0.82 130.683 71.658
0.83 130.520 69.601
0.84 123.355 65.431
0.85 113.073 59.415
0.86 --undefined-- 52.926
0.87 --undefined-- 48.221
0.88 --undefined-- 51.008
0.89 --undefined-- 53.540
0.90 --undefined-- 54.482
0.91 --undefined-- 55.935
0.92 --undefined-- 59.793
0.93 131.524 65.452
0.94 129.582 69.201
0.95 127.375 70.766
0.96 124.320 71.000
0.97 126.620 70.765
0.98 131.309 70.857
0.99 134.928 71.338
1.00 135.578 71.699
1.01 139.796 71.405
1.02 149.492 70.127
1.03 148.717 68.165
1.04 142.600 66.143
1.05 139.431 64.380
1.06 135.041 63.113
1.07 135.753 63.204
1.08 136.285 65.056
1.09 136.391 67.929
1.10 137.522 70.620
1.11 137.526 72.336
1.12 132.497 72.872
1.13 129.339 72.388
1.14 128.547 71.417
1.15 128.199 70.419
1.16 126.280 69.510
1.17 126.897 69.120
1.18 --undefined-- 68.439
1.19 --undefined-- 65.823
1.20 --undefined-- 60.419
1.21 --undefined-- 52.315
1.22 --undefined-- 45.470
1.23 --undefined-- 42.857
1.24 --undefined-- 40.106
1.25 --undefined-- 37.673
1.26 --undefined-- 36.770
1.27 --undefined-- 37.238
1.28 --undefined-- 38.811
1.29 --undefined-- 39.328
1.30 --undefined-- 37.458
1.31 --undefined-- 35.286
1.32 --undefined-- 34.995
1.33 --undefined-- 35.657
1.34 --undefined-- 37.271
1.35 --undefined-- 37.916
1.36 --undefined-- 37.192
1.37 --undefined-- 37.866
1.38 --undefined-- 39.886
1.39 --undefined-- 41.109
1.40 --undefined-- 41.792
1.41 --undefined-- 40.439
1.42 --undefined-- 37.453
1.43 --undefined-- 40.654
1.44 --undefined-- 47.402
1.45 --undefined-- 52.462
1.46 --undefined-- 56.139
1.47 --undefined-- 62.537
1.48 205.175 69.035
1.49 199.240 72.631
1.50 191.527 73.796
1.51 186.689 73.940
1.52 184.583 73.861
1.53 181.431 73.453
1.54 176.784 73.409
1.55 175.253 73.972
1.56 169.931 74.420
1.57 163.692 74.484
1.58 155.442 74.290
1.59 148.718 74.059
1.60 146.217 74.031
1.61 136.462 74.112
1.62 127.482 73.767
1.63 123.471 73.143
1.64 121.152 72.689
1.65 122.574 72.616
1.66 125.996 73.093
1.67 127.783 73.583
1.68 127.679 73.611
1.69 127.456 72.799
1.70 128.412 70.310
1.71 108.814 65.586
1.72 103.220 59.505
1.73 --undefined-- 53.405
1.74 --undefined-- 47.518
1.75 --undefined-- 45.077
1.76 --undefined-- 45.948
1.77 --undefined-- 53.225
1.78 --undefined-- 63.164
1.79 187.524 69.669
1.80 171.080 73.078
1.81 167.060 74.521
1.82 162.302 74.654
1.83 159.243 73.595
1.84 153.550 72.472
1.85 152.408 72.982
1.86 153.195 74.218
1.87 153.653 75.375
1.88 155.808 76.143
1.89 157.277 76.429
1.90 156.813 76.490
1.91 155.840 76.442
1.92 154.020 76.263
1.93 151.600 75.890
1.94 148.616 75.105
1.95 145.442 73.386
1.96 140.699 69.985
1.97 137.100 64.234
1.98 142.015 56.704
1.99 --undefined-- 55.729
2.00 --undefined-- 62.389
2.01 158.592 68.324
2.02 133.587 71.379
2.03 131.262 72.091
2.04 122.623 71.608
2.05 115.943 71.001
2.06 113.863 70.402
2.07 115.932 70.139
2.08 122.237 70.946
2.09 128.544 72.125
2.10 131.252 72.558
2.11 132.832 72.127
2.12 132.907 71.133
2.13 131.645 69.822
2.14 128.364 69.350
2.15 128.471 70.587
2.16 126.623 71.558
2.17 120.210 71.517
2.18 116.405 70.740
2.19 112.332 69.342
2.20 112.406 67.472
2.21 109.403 64.888
2.22 87.024 61.175
2.23 81.858 57.237
2.24 75.820 55.314
2.25 89.710 57.986
2.26 112.207 63.496
2.27 135.126 68.337
2.28 148.255 71.595
2.29 147.842 73.332
2.30 142.747 73.992
2.31 140.567 74.469
2.32 141.605 75.053
2.33 139.761 75.369
2.34 136.795 75.294
2.35 135.056 74.871
2.36 135.721 74.229
2.37 137.284 73.301
2.38 137.164 71.498
2.39 134.641 68.065
2.40 128.971 62.486
2.41 --undefined-- 55.713
2.42 --undefined-- 58.129
2.43 --undefined-- 64.252
2.44 --undefined-- 69.635
2.45 157.311 73.089
2.46 149.395 74.627
2.47 144.657 75.340
2.48 142.223 75.952
2.49 141.533 76.354
2.50 142.035 76.505
2.51 142.334 76.412
2.52 142.147 76.034
2.53 142.017 75.587
2.54 143.171 75.313
2.55 144.992 75.005
2.56 145.799 74.478
2.57 146.115 73.763
2.58 145.875 72.844
2.59 145.196 71.596
2.60 143.282 70.336
2.61 146.937 69.785
2.62 153.586 69.455
2.63 157.493 68.909
2.64 158.934 68.333
2.65 157.757 67.556
2.66 158.379 66.290
2.67 160.796 64.463
2.68 166.786 61.863
2.69 --undefined-- 57.651
2.70 --undefined-- 50.873
2.71 --undefined-- 42.704
2.72 --undefined-- 38.835
2.73 --undefined-- 37.574
2.74 --undefined-- 35.554
2.75 --undefined-- 34.860
2.76 --undefined-- 34.496
2.77 --undefined-- 34.618
2.78 --undefined-- 36.108
2.79 --undefined-- 35.681
2.80 --undefined-- 32.836
2.81 --undefined-- 32.411
2.82 --undefined-- 34.737
2.83 --undefined-- 35.809
2.84 --undefined-- 35.545
2.85 --undefined-- 35.038
2.86 --undefined-- 34.832
2.87 --undefined-- 34.740
2.88 --undefined-- 34.747
2.89 --undefined-- 36.230
2.90 --undefined-- 38.709
2.91 --undefined-- 39.232
2.92 --undefined-- 38.055
2.93 --undefined-- 37.358
2.94 --undefined-- 36.851
2.95 --undefined-- 34.925
2.96 --undefined-- 33.029
2.97 --undefined-- 34.184
2.98 --undefined-- 34.988
2.99 --undefined-- 35.638
3.00 --undefined-- 36.798
3.01 --undefined-- 36.721
3.02 --undefined-- 36.002
3.03 --undefined-- 35.526
3.04 --undefined-- 36.056
3.05 --undefined-- 38.204
3.06 --undefined-- 39.428
3.07 --undefined-- 38.316
3.08 --undefined-- 36.103
3.09 --undefined-- 33.928
3.10 --undefined-- 32.410
3.11 --undefined-- 32.344
3.12 --undefined-- 33.088
3.13 --undefined-- 34.645
3.14 --undefined-- 35.682
3.15 --undefined-- 35.471
3.16 --undefined-- 34.154
3.17 --undefined-- 33.604
3.18 --undefined-- 33.476
3.19 --undefined-- 34.210
3.20 --undefined-- 35.580
3.21 --undefined-- 35.538
3.22 --undefined-- 34.373
3.23 --undefined-- 33.183
3.24 --undefined-- 32.942
3.25 --undefined-- 34.519
3.26 --undefined-- 35.610
3.27 --undefined-- 36.299
3.28 --undefined-- 35.729
3.29 --undefined-- 34.084
3.30 --undefined-- 33.298
3.31 --undefined-- 33.392
3.32 --undefined-- 33.816
3.33 --undefined-- 34.573
3.34 --undefined-- 36.099
3.35 --undefined-- 36.596
3.36 --undefined-- 36.093
3.37 --undefined-- 36.390
3.38 --undefined-- 36.416
3.39 --undefined-- 35.681
3.40 --undefined-- 35.335
3.41 --undefined-- 35.011
3.42 --undefined-- 35.655
3.43 --undefined-- 37.013
3.44 --undefined-- 37.010
3.45 --undefined-- 36.075
3.46 --undefined-- 35.070
3.47 --undefined-- 34.587
3.48 --undefined-- 36.194
3.49 --undefined-- 37.639
3.50 --undefined-- 36.705
3.51 --undefined-- 33.769
3.52 --undefined-- 31.680
3.53 --undefined-- 35.074
3.54 --undefined-- 44.420
3.55 --undefined-- 53.845
3.56 --undefined-- 62.603
3.57 173.839 69.180
3.58 169.547 73.154
3.59 171.503 74.907
3.60 174.985 75.273
3.61 192.456 75.546
3.62 202.455 76.020
3.63 208.464 76.430
3.64 210.341 76.728
3.65 208.277 76.267
3.66 203.976 74.078
3.67 188.306 69.433
3.68 168.298 62.178
3.69 --undefined-- 54.332
3.70 --undefined-- 57.388
3.71 --undefined-- 66.358
3.72 215.864 72.038
3.73 195.514 74.585
3.74 182.202 74.952
3.75 174.207 74.058
3.76 170.672 72.535
3.77 168.648 70.910
3.78 166.858 69.878
3.79 165.122 69.641
3.80 164.309 69.926
3.81 166.174 70.733
3.82 173.143 72.004
3.83 183.294 73.471
3.84 187.534 74.813
3.85 191.200 76.023
3.86 193.170 77.381
3.87 194.899 78.661
3.88 195.512 79.051
3.89 195.276 77.638
3.90 192.554 73.702
3.91 167.972 67.227
3.92 172.500 59.950
3.93 --undefined-- 53.117
3.94 --undefined-- 47.619
3.95 --undefined-- 45.463
3.96 --undefined-- 54.872
3.97 --undefined-- 65.224
3.98 --undefined-- 71.761
3.99 156.648 75.157
4.00 148.841 76.225
4.01 141.458 75.930
4.02 137.769 75.410
4.03 134.799 75.325
4.04 134.978 74.900
4.05 134.652 72.953
4.06 125.005 68.867
4.07 125.421 63.512
4.08 119.979 58.969
4.09 129.345 56.284
4.10 --undefined-- 58.877
4.11 --undefined-- 62.540
4.12 --undefined-- 66.486
4.13 150.627 70.602
4.14 144.280 73.479
4.15 141.353 74.847
4.16 137.855 75.142
4.17 135.297 74.799
4.18 133.700 74.215
4.19 132.695 73.677
4.20 132.649 72.877
4.21 132.261 70.943
4.22 121.376 67.073
4.23 121.303 61.371
4.24 120.794 56.263
4.25 --undefined-- 56.453
4.26 --undefined-- 58.152
4.27 --undefined-- 62.137
4.28 203.018 68.149
4.29 184.456 72.077
4.30 178.244 73.999
4.31 176.307 75.013
4.32 175.707 75.648
4.33 176.884 75.729
4.34 177.153 75.168
4.35 172.578 74.318
4.36 167.671 73.878
4.37 168.629 74.165
4.38 172.536 74.389
4.39 173.903 74.060
4.40 173.855 73.427
4.41 173.059 72.542
4.42 169.046 71.311
4.43 164.164 69.569
4.44 166.823 67.141
4.45 --undefined-- 63.923
4.46 --undefined-- 60.317
4.47 --undefined-- 56.995
4.48 --undefined-- 55.042
4.49 --undefined-- 51.827
4.50 --undefined-- 45.044
4.51 --undefined-- 37.938
4.52 --undefined-- 36.649
4.53 --undefined-- 36.221
4.54 --undefined-- 35.666
4.55 --undefined-- 35.505
4.56 --undefined-- 34.979
4.57 --undefined-- 34.099
4.58 --undefined-- 34.023
4.59 --undefined-- 34.402
4.60 --undefined-- 42.080
4.61 --undefined-- 54.445
4.62 --undefined-- 63.509
4.63 --undefined-- 69.247
4.64 154.789 72.520
4.65 152.431 73.891
4.66 147.697 74.437
4.67 146.914 75.147
4.68 145.395 76.137
4.69 143.114 76.914
4.70 143.598 77.312
4.71 147.906 77.415
4.72 151.258 77.141
4.73 155.140 76.416
4.74 159.878 75.415
4.75 164.241 74.496
4.76 172.518 73.879
4.77 183.840 73.603
4.78 197.937 73.606
4.79 200.644 73.704
4.80 201.611 73.471
4.81 200.729 72.223
4.82 197.513 69.103
4.83 180.479 63.337
4.84 --undefined-- 54.921
4.85 --undefined-- 48.272
4.86 --undefined-- 54.377
4.87 --undefined-- 60.634
4.88 --undefined-- 65.670
4.89 --undefined-- 69.969
4.90 155.611 72.826
4.91 152.584 74.696
4.92 150.826 75.813
4.93 149.672 76.116
4.94 147.993 75.737
4.95 146.550 75.148
4.96 145.158 74.807
4.97 142.198 74.578
4.98 140.368 73.958
4.99 137.797 73.021
5.00 134.742 72.077
5.01 130.390 71.356
5.02 127.262 71.125
5.03 126.121 71.224
5.04 124.381 71.436
5.05 124.153 71.778
5.06 121.906 71.978
5.07 116.566 71.859
5.08 117.489 72.091
5.09 119.053 72.594
5.10 120.795 72.387
5.11 124.351 71.384
5.12 131.770 70.524
5.13 133.893 69.446
5.14 132.314 66.357
5.15 123.264 60.747
5.16 --undefined-- 53.707
5.17 --undefined-- 46.895
5.18 --undefined-- 43.231
5.19 --undefined-- 43.250
5.20 --undefined-- 45.653
5.21 --undefined-- 48.914
5.22 --undefined-- 54.169
5.23 --undefined-- 63.103
5.24 196.369 69.399
5.25 170.112 72.600
5.26 164.572 73.762
5.27 159.744 73.601
5.28 155.211 72.350
5.29 150.412 71.306
5.30 154.412 72.271
5.31 160.873 73.753
5.32 164.141 74.497
5.33 165.716 74.685
5.34 166.745 74.569
5.35 165.607 74.334
5.36 164.048 74.160
5.37 161.359 74.170
5.38 158.855 74.373
5.39 153.931 74.591
5.40 149.184 74.841
5.41 147.481 75.200
5.42 138.907 75.273
5.43 133.206 74.836
5.44 128.263 73.972
5.45 123.231 72.749
5.46 119.068 71.488
5.47 115.959 70.862
5.48 116.024 70.711
5.49 111.733 70.149
5.50 108.482 69.234
5.51 107.918 68.587
5.52 110.208 68.450
5.53 114.215 68.384
5.54 115.138 68.092
5.55 117.126 67.899
5.56 121.703 68.256
5.57 123.989 69.205
5.58 123.524 70.256
5.59 121.008 70.669
5.60 118.444 69.531
5.61 114.733 66.068
5.62 96.979 60.043
5.63 --undefined-- 52.528
5.64 --undefined-- 51.449
5.65 --undefined-- 59.110
5.66 --undefined-- 64.644
5.67 126.922 67.474
5.68 120.013 68.416
5.69 112.280 68.271
5.70 108.096 67.747
5.71 104.401 67.385
5.72 106.293 67.219
5.73 110.670 67.258
5.74 112.441 67.547
5.75 113.183 67.811
5.76 114.504 67.744
5.77 114.759 66.708
5.78 111.533 63.907
5.79 100.828 58.963
5.80 --undefined-- 52.245
5.81 --undefined-- 45.885
5.82 --undefined-- 43.366
5.83 --undefined-- 44.318
5.84 --undefined-- 53.151
5.85 --undefined-- 63.512
5.86 --undefined-- 70.131
5.87 148.544 73.960
5.88 148.504 75.930
5.89 148.368 76.721
5.90 148.960 76.824
5.91 150.206 76.697
5.92 152.381 76.509
5.93 154.552 76.417
5.94 156.356 76.405
5.95 158.999 76.170
5.96 161.272 75.666
5.97 162.237 74.787
5.98 162.831 73.388
5.99 162.624 71.917
6.00 161.023 71.054
6.01 159.617 70.578
6.02 157.083 69.901
6.03 153.887 68.739
6.04 145.572 66.820
6.05 81.492 64.002
6.06 78.906 60.619
6.07 --undefined-- 55.952
6.08 --undefined-- 48.431
6.09 --undefined-- 41.152
6.10 --undefined-- 39.426
6.11 --undefined-- 39.026
6.12 --undefined-- 39.156
6.13 --undefined-- 39.907
6.14 --undefined-- 39.664
6.15 --undefined-- 38.501
6.16 --undefined-- 37.549
6.17 --undefined-- 36.593
6.18 --undefined-- 35.417
6.19 --undefined-- 35.332
6.20 --undefined-- 36.001
6.21 --undefined-- 35.802
6.22 --undefined-- 35.221
6.23 --undefined-- 35.187
6.24 --undefined-- 36.206
6.25 --undefined-- 37.786
6.26 --undefined-- 38.362
6.27 --undefined-- 37.777
6.28 --undefined-- 37.276
6.29 --undefined-- 36.868
6.30 --undefined-- 36.548
6.31 --undefined-- 35.529
6.32 --undefined-- 34.443
6.33 --undefined-- 35.398
6.34 --undefined-- 37.512
6.35 --undefined-- 41.544
6.36 --undefined-- 45.734
6.37 --undefined-- 48.485
6.38 --undefined-- 50.644
6.39 --undefined-- 58.796
6.40 --undefined-- 67.199
6.41 166.210 72.216
6.42 153.783 74.666
6.43 151.625 75.996
6.44 149.656 76.816
6.45 149.140 77.143
6.46 148.904 77.193
6.47 149.083 76.785
6.48 154.788 75.938
6.49 153.584 74.844
6.50 149.688 72.891
6.51 142.385 69.427
6.52 135.850 64.409
6.53 139.866 58.285
6.54 --undefined-- 51.657
6.55 --undefined-- 47.237
6.56 --undefined-- 47.268
6.57 --undefined-- 51.341
6.58 --undefined-- 60.185
6.59 193.469 68.507
6.60 190.962 73.661
6.61 167.429 76.056
6.62 164.698 77.131
6.63 163.539 77.572
6.64 163.121 77.201
6.65 164.730 76.484
6.66 166.303 75.963
6.67 170.188 75.275
6.68 167.417 74.881
6.69 163.151 74.805
6.70 162.189 73.887
6.71 163.039 71.577
6.72 151.913 68.153
6.73 142.867 64.607
6.74 142.111 --undefined--
6.75 --undefined-- --undefined--
6.76 --undefined-- --undefined--
6.77 --undefined-- --undefined--
