Time Pitch Intensity
0.01 --undefined-- --undefined--
0.02 187.307 --undefined--
0.03 196.243 --undefined--
0.04 212.982 --undefined--
0.05 230.076 71.008
0.06 245.590 70.378
0.07 255.121 69.625
0.08 257.877 67.809
0.09 251.456 63.895
0.10 --undefined-- 57.160
0.11 --undefined-- 48.957
0.12 --undefined-- 44.459
0.13 --undefined-- 41.345
0.14 --undefined-- 38.212
0.15 --undefined-- 35.004
0.16 --undefined-- 32.231
0.17 --undefined-- 31.034
0.18 --undefined-- 30.051
0.19 --undefined-- 28.138
0.20 --undefined-- 27.543
0.21 --undefined-- 27.933
0.22 --undefined-- 27.382
0.23 --undefined-- 27.617
0.24 --undefined-- 28.551
0.25 --undefined-- 29.137
0.26 --undefined-- 30.131
0.27 --undefined-- 31.440
0.28 --undefined-- 32.522
0.29 --undefined-- 33.385
0.30 --undefined-- 34.115
0.31 --undefined-- 34.360
0.32 --undefined-- 34.574
0.33 --undefined-- 34.877
0.34 --undefined-- 34.615
0.35 --undefined-- 34.066
0.36 --undefined-- 33.907
0.37 --undefined-- 33.947
0.38 --undefined-- 34.027
0.39 --undefined-- 34.075
0.40 --undefined-- 34.101
0.41 --undefined-- 34.132
0.42 --undefined-- 33.832
0.43 --undefined-- 33.727
0.44 --undefined-- 34.133
0.45 --undefined-- 34.470
0.46 --undefined-- 35.228
0.47 --undefined-- 35.949
0.48 --undefined-- 35.727
0.49 --undefined-- 34.949
0.50 --undefined-- 34.800
0.51 --undefined-- 34.942
0.52 --undefined-- 34.800
0.53 --undefined-- 34.394
0.54 --undefined-- 33.592
0.55 --undefined-- 33.791
0.56 --undefined-- 35.501
0.57 --undefined-- 35.325
0.58 --undefined-- 32.743
0.59 --undefined-- 29.777
0.60 --undefined-- 34.715
0.61 --undefined-- 43.912
0.62 --undefined-- 50.750
0.63 --undefined-- 55.810
0.64 --undefined-- 60.160
0.65 --undefined-- 64.633
0.66 162.754 68.144
0.67 160.817 69.637
0.68 155.529 69.437
0.69 154.113 68.831
0.70 157.207 68.868
0.71 163.485 69.463
0.72 170.342 69.995
0.73 175.618 69.978
0.74 181.010 69.927
0.75 183.295 70.464
0.76 186.545 71.085
0.77 191.049 71.218
0.78 196.872 70.983
0.79 201.475 70.858
0.80 203.866 70.966
0.81 203.985 70.867
0.82 202.353 70.228
0.83 199.469 69.446
0.84 197.654 69.637
0.85 195.298 70.908
0.86 190.778 71.987
0.87 185.078 72.404
0.88 181.688 72.518
0.89 178.930 72.610
0.90 176.438 72.696
0.91 175.022 72.610
0.92 174.422 72.230
0.93 174.996 71.755
0.94 176.652 71.473
0.95 178.595 71.535
0.96 179.087 71.918
0.97 182.289 72.311
0.98 185.123 72.095
0.99 182.320 70.691
1.00 178.149 67.872
1.01 172.623 63.477
1.02 177.490 57.471
1.03 180.870 53.314
1.04 179.467 53.440
1.05 --undefined-- 56.036
1.06 --undefined-- 61.789
1.07 253.208 68.118
1.08 273.616 72.566
1.09 264.229 74.714
1.10 256.725 75.399
1.11 254.450 75.476
1.12 254.342 75.376
1.13 256.411 75.298
1.14 258.611 75.291
1.15 259.654 75.174
1.16 260.298 74.714
1.17 261.872 74.025
1.18 263.384 73.618
1.19 264.530 73.608
1.20 265.388 73.681
1.21 265.119 73.551
1.22 262.425 72.871
1.23 256.120 70.974
1.24 243.016 67.245
1.25 239.053 61.847
1.26 --undefined-- 55.003
1.27 --undefined-- 47.699
1.28 --undefined-- 43.573
1.29 --undefined-- 40.528
1.30 --undefined-- 38.599
1.31 --undefined-- 41.442
1.32 --undefined-- 48.083
1.33 --undefined-- 54.178
1.34 --undefined-- 60.620
1.35 177.825 65.655
1.36 171.201 68.783
1.37 164.835 70.466
1.38 160.731 71.060
1.39 158.257 70.792
1.40 157.400 70.155
1.41 157.801 69.683
1.42 157.144 69.437
1.43 157.652 69.475
1.44 163.503 69.757
1.45 167.090 69.959
1.46 171.364 70.005
1.47 177.546 70.100
1.48 185.212 70.694
1.49 191.889 71.511
1.50 200.127 71.842
1.51 210.446 71.862
1.52 216.306 71.751
1.53 220.763 70.518
1.54 223.340 67.136
1.55 --undefined-- 61.403
1.56 --undefined-- 59.089
1.57 --undefined-- 60.210
1.58 --undefined-- 58.499
1.59 --undefined-- 55.647
1.60 --undefined-- 55.095
1.61 --undefined-- 55.268
1.62 --undefined-- 55.274
1.63 --undefined-- 59.158
1.64 --undefined-- 66.067
1.65 --undefined-- 70.396
1.66 --undefined-- 71.972
1.67 --undefined-- 71.959
1.68 127.970 71.483
1.69 128.244 70.969
1.70 132.969 70.702
1.71 139.375 70.628
1.72 146.351 70.637
1.73 153.144 70.331
1.74 170.032 69.754
1.75 180.186 69.182
1.76 185.124 69.207
1.77 181.194 70.129
1.78 178.685 70.978
1.79 182.115 71.407
1.80 188.898 71.677
1.81 196.731 71.709
1.82 204.012 71.252
1.83 210.719 70.369
1.84 220.650 68.918
1.85 235.528 66.352
1.86 241.062 62.078
1.87 --undefined-- 55.434
1.88 --undefined-- 48.456
1.89 --undefined-- 46.466
1.90 --undefined-- 45.163
1.91 --undefined-- 44.366
1.92 --undefined-- 43.342
1.93 --undefined-- 42.203
1.94 --undefined-- 41.443
1.95 --undefined-- 39.924
1.96 --undefined-- 37.119
1.97 --undefined-- 34.669
1.98 --undefined-- 32.854
1.99 --undefined-- 30.614
2.00 --undefined-- 28.923
2.01 --undefined-- 31.682
2.02 --undefined-- 36.495
2.03 --undefined-- 40.068
2.04 --undefined-- 42.621
2.05 --undefined-- 44.335
2.06 --undefined-- 44.788
2.07 --undefined-- 43.385
2.08 --undefined-- 41.712
2.09 --undefined-- 46.138
2.10 --undefined-- 55.670
2.11 --undefined-- 64.353
2.12 196.755 69.679
2.13 181.920 72.498
2.14 170.076 73.792
2.15 161.563 73.776
2.16 153.374 72.586
2.17 146.163 70.776
2.18 140.518 68.516
2.19 135.217 65.388
2.20 130.470 61.236
2.21 137.480 58.158
2.22 153.848 59.714
2.23 155.999 63.928
2.24 153.682 67.399
2.25 152.101 69.476
2.26 155.061 70.575
2.27 161.307 71.084
2.28 166.106 71.263
2.29 172.961 71.183
2.30 178.429 70.330
2.31 178.534 68.194
2.32 178.594 64.790
2.33 175.062 60.108
2.34 --undefined-- 54.255
2.35 --undefined-- 50.014
2.36 --undefined-- 48.037
2.37 --undefined-- 46.136
2.38 --undefined-- 46.761
2.39 --undefined-- 49.469
2.40 --undefined-- 52.162
2.41 --undefined-- 54.786
2.42 --undefined-- 56.068
2.43 --undefined-- 56.606
2.44 291.333 62.967
2.45 286.820 69.786
2.46 285.214 73.675
2.47 285.389 75.340
2.48 287.227 75.713
2.49 289.227 75.506
2.50 291.697 75.119
2.51 294.197 74.715
2.52 296.070 74.367
2.53 294.542 73.784
2.54 287.705 72.354
2.55 275.177 69.487
2.56 271.814 64.634
2.57 292.197 57.922
2.58 290.454 52.418
2.59 --undefined-- 49.724
2.60 --undefined-- 48.408
2.61 --undefined-- 52.986
2.62 --undefined-- 63.061
2.63 --undefined-- 69.725
2.64 157.419 72.694
2.65 151.626 72.968
2.66 296.505 72.075
2.67 291.192 71.389
2.68 287.147 71.207
2.69 283.590 71.273
2.70 281.502 71.426
2.71 280.706 71.653
2.72 281.897 71.906
2.73 284.031 72.128
2.74 285.977 72.286
2.75 287.278 72.329
2.76 287.413 72.182
2.77 285.970 71.693
2.78 280.422 70.542
2.79 273.990 68.207
2.80 269.517 64.000
2.81 --undefined-- 57.238
2.82 --undefined-- 51.778
2.83 --undefined-- 56.335
2.84 --undefined-- 61.270
2.85 250.876 67.559
2.86 244.258 72.100
2.87 228.758 74.037
2.88 220.637 74.295
2.89 213.253 74.228
2.90 208.416 74.445
2.91 203.347 74.769
2.92 199.982 74.925
2.93 197.053 74.652
2.94 193.983 73.977
2.95 192.701 73.269
2.96 193.358 72.764
2.97 194.739 72.223
2.98 194.671 71.347
2.99 192.653 69.864
3.00 186.865 67.100
3.01 183.918 62.218
3.02 --undefined-- 55.086
3.03 192.418 50.137
3.04 189.803 48.990
3.05 --undefined-- 46.622
3.06 --undefined-- 46.282
3.07 --undefined-- 54.754
3.08 --undefined-- 60.982
3.09 --undefined-- 65.671
3.10 193.855 69.572
3.11 184.425 71.582
3.12 174.236 71.715
3.13 167.384 70.877
3.14 163.630 69.759
3.15 160.001 67.979
3.16 153.061 64.987
3.17 151.204 61.077
3.18 162.308 56.378
3.19 --undefined-- 50.847
3.20 --undefined-- 46.060
3.21 --undefined-- 42.565
3.22 --undefined-- 40.559
3.23 --undefined-- 38.547
3.24 --undefined-- 35.658
3.25 --undefined-- 34.745
3.26 --undefined-- 44.712
3.27 --undefined-- 54.803
3.28 --undefined-- 63.120
3.29 266.343 68.843
3.30 261.611 71.793
3.31 258.503 72.657
3.32 255.099 72.408
3.33 252.847 71.977
3.34 252.806 71.920
3.35 251.954 72.196
3.36 250.436 72.510
3.37 249.113 72.770
3.38 249.103 72.966
3.39 249.066 72.975
3.40 248.193 72.702
3.41 248.024 72.067
3.42 249.620 70.743
3.43 245.219 68.149
3.44 233.409 63.752
3.45 --undefined-- 57.401
3.46 --undefined-- 51.974
3.47 --undefined-- 51.007
3.48 --undefined-- 51.408
3.49 --undefined-- 52.885
3.50 --undefined-- 55.097
3.51 --undefined-- 59.227
3.52 231.921 65.694
3.53 203.987 70.054
3.54 193.905 71.964
3.55 182.563 72.387
3.56 174.567 71.986
3.57 164.416 71.021
3.58 157.238 69.776
3.59 151.700 69.048
3.60 151.207 69.538
3.61 154.613 70.257
3.62 156.614 70.530
3.63 160.357 70.508
3.64 164.197 70.337
3.65 163.618 70.134
3.66 164.608 70.037
3.67 164.984 69.975
3.68 165.439 69.635
3.69 164.582 68.502
3.70 162.072 65.869
3.71 152.884 61.099
3.72 153.143 55.118
3.73 163.947 52.405
3.74 162.555 51.944
3.75 --undefined-- 51.861
3.76 --undefined-- 51.063
3.77 --undefined-- 51.349
3.78 --undefined-- 53.372
3.79 --undefined-- 54.665
3.80 --undefined-- 56.664
3.81 --undefined-- 61.633
3.82 174.338 65.900
3.83 167.514 68.245
3.84 162.014 68.951
3.85 155.953 68.246
3.86 147.820 66.601
3.87 142.443 65.110
3.88 142.137 64.297
3.89 144.545 64.290
3.90 149.978 65.158
3.91 157.235 66.482
3.92 165.071 67.801
3.93 170.756 68.641
3.94 176.546 68.675
3.95 182.066 68.012
3.96 183.971 66.993
3.97 188.681 65.256
3.98 194.821 61.992
3.99 190.118 56.802
4.00 --undefined-- 49.891
4.01 --undefined-- 43.647
4.02 --undefined-- 40.822
4.03 --undefined-- 39.305
4.04 --undefined-- 38.765
4.05 --undefined-- 39.190
4.06 --undefined-- 38.741
4.07 --undefined-- 38.166
4.08 --undefined-- 38.594
4.09 --undefined-- 39.396
4.10 --undefined-- 39.816
4.11 --undefined-- 39.849
4.12 --undefined-- 40.038
4.13 --undefined-- 40.484
4.14 --undefined-- 40.407
4.15 --undefined-- 40.290
4.16 --undefined-- 39.924
4.17 --undefined-- 39.239
4.18 --undefined-- 38.844
4.19 --undefined-- 38.203
4.20 --undefined-- 36.715
4.21 --undefined-- 34.824
4.22 --undefined-- 33.556
4.23 --undefined-- 32.915
4.24 --undefined-- 32.859
4.25 --undefined-- 32.223
4.26 --undefined-- 31.759
4.27 --undefined-- 38.568
4.28 --undefined-- 51.669
4.29 220.496 60.279
4.30 202.130 65.297
4.31 182.966 68.436
4.32 179.665 70.745
4.33 174.073 72.218
4.34 169.625 72.661
4.35 167.033 72.501
4.36 165.873 72.104
4.37 164.201 71.554
4.38 163.526 71.047
4.39 164.057 70.679
4.40 165.560 70.303
4.41 165.775 69.810
4.42 165.060 69.205
4.43 163.585 68.331
4.44 161.345 66.819
4.45 161.301 64.128
4.46 155.650 59.986
4.47 149.853 56.964
4.48 --undefined-- 62.808
4.49 --undefined-- 68.826
4.50 174.581 72.135
4.51 170.067 73.256
4.52 162.986 73.292
4.53 161.085 73.275
4.54 161.081 73.269
4.55 160.433 73.050
4.56 160.211 72.706
4.57 159.778 72.271
4.58 159.954 71.669
4.59 159.884 70.919
4.60 160.976 70.175
4.61 162.487 69.651
4.62 164.888 69.261
4.63 168.463 68.926
4.64 170.168 68.595
4.65 171.578 68.339
4.66 171.555 68.200
4.67 170.694 68.035
4.68 168.805 67.639
4.69 165.565 67.100
4.70 164.344 67.059
4.71 164.250 68.219
4.72 165.311 70.025
4.73 165.345 71.431
4.74 164.992 72.116
4.75 164.231 72.236
4.76 163.056 71.962
4.77 161.970 71.449
4.78 162.625 71.019
4.79 162.587 70.807
4.80 162.007 70.566
4.81 160.393 69.541
4.82 153.677 66.933
4.83 147.454 62.591
4.84 157.753 57.164
4.85 161.816 51.871
4.86 159.297 49.520
4.87 --undefined-- 53.631
4.88 --undefined-- 63.272
4.89 211.738 70.200
4.90 202.902 73.746
4.91 201.349 74.941
4.92 196.152 74.944
4.93 191.912 74.679
4.94 189.403 74.347
4.95 187.386 73.873
4.96 185.565 73.328
4.97 183.689 72.843
4.98 182.192 72.475
4.99 181.474 72.294
5.00 182.088 72.317
5.01 182.951 72.269
5.02 182.821 71.662
5.03 178.898 69.922
5.04 174.466 66.761
5.05 175.763 62.098
5.06 179.374 55.589
5.07 180.657 50.824
5.08 172.675 50.851
5.09 --undefined-- 53.619
5.10 --undefined-- 61.674
5.11 211.707 67.827
5.12 199.112 70.837
5.13 187.738 71.636
5.14 178.329 71.283
5.15 170.178 70.357
5.16 162.245 69.356
5.17 158.091 68.664
5.18 155.736 68.494
5.19 155.784 68.996
5.20 155.983 69.633
5.21 157.084 70.011
5.22 158.180 70.045
5.23 160.089 69.933
5.24 162.106 69.913
5.25 163.195 69.964
5.26 163.224 69.946
5.27 161.506 69.594
5.28 157.456 68.429
5.29 152.727 65.884
5.30 150.522 61.516
5.31 159.766 55.386
5.32 162.807 51.308
5.33 --undefined-- 52.684
5.34 --undefined-- 56.493
5.35 --undefined-- 58.574
5.36 --undefined-- 57.955
5.37 --undefined-- 55.932
5.38 --undefined-- 54.773
5.39 --undefined-- 58.569
5.40 168.690 63.014
5.41 155.592 65.392
5.42 149.782 66.216
5.43 143.825 66.305
5.44 141.449 66.219
5.45 140.671 66.163
5.46 140.902 66.245
5.47 144.183 66.493
5.48 148.638 66.848
5.49 152.314 67.294
5.50 156.136 67.888
5.51 160.626 68.776
5.52 165.301 69.708
5.53 170.235 70.301
5.54 174.678 70.220
5.55 178.028 68.886
5.56 178.396 65.471
5.57 177.324 59.407
5.58 170.472 51.989
5.59 172.283 49.318
5.60 --undefined-- 47.693
5.61 --undefined-- 45.887
5.62 --undefined-- 54.018
5.63 --undefined-- 63.536
5.64 --undefined-- 70.503
5.65 261.603 74.369
5.66 257.642 75.717
5.67 256.250 75.478
5.68 257.015 74.578
5.69 260.530 73.534
5.70 264.972 72.618
5.71 268.718 72.054
5.72 272.195 71.706
5.73 276.121 71.541
5.74 278.679 71.509
5.75 279.779 71.070
5.76 285.332 70.417
5.77 290.196 69.988
5.78 294.109 69.594
5.79 298.799 69.163
5.80 151.647 68.711
5.81 152.629 67.833
5.82 151.959 65.806
5.83 147.644 62.102
5.84 --undefined-- 56.466
5.85 --undefined-- 50.019
5.86 --undefined-- 47.265
5.87 --undefined-- 46.476
5.88 --undefined-- 47.076
5.89 --undefined-- 48.241
5.90 --undefined-- 49.762
5.91 --undefined-- 57.872
5.92 164.182 --undefined--
5.93 164.280 --undefined--
5.94 --undefined-- --undefined--
5.95 --undefined-- --undefined--
