Time Pitch Intensity
0.01 --undefined-- --undefined--
0.02 176.311 --undefined--
0.03 175.692 --undefined--
0.04 174.647 --undefined--
0.05 172.772 71.237
0.06 170.066 71.049
0.07 166.697 70.943
0.08 163.184 70.968
0.09 159.839 70.765
0.10 --undefined-- 69.958
0.11 267.337 69.257
0.12 247.826 69.453
0.13 --undefined-- 69.714
0.14 --undefined-- 69.312
0.15 --undefined-- 67.369
0.16 --undefined-- 63.090
0.17 --undefined-- 56.524
0.18 --undefined-- 51.139
0.19 --undefined-- 49.906
0.20 --undefined-- 50.319
0.21 --undefined-- 52.314
0.22 --undefined-- 54.726
0.23 --undefined-- 57.223
0.24 --undefined-- 60.010
0.25 --undefined-- 62.859
0.26 229.246 66.554
0.27 242.775 70.780
0.28 244.942 73.318
0.29 247.243 73.708
0.30 253.216 73.085
0.31 261.000 72.607
0.32 267.439 72.435
0.33 276.709 72.420
0.34 284.503 71.822
0.35 292.979 70.200
0.36 294.297 68.148
0.37 288.344 66.123
0.38 283.359 63.857
0.39 280.459 61.064
0.40 286.778 58.443
0.41 --undefined-- 56.768
0.42 --undefined-- 55.169
0.43 --undefined-- 52.989
0.44 --undefined-- 52.388
0.45 --undefined-- 52.905
0.46 --undefined-- 51.508
0.47 --undefined-- 51.281
0.48 --undefined-- 56.013
0.49 248.801 60.702
0.50 249.010 63.787
0.51 216.541 65.474
0.52 207.320 66.084
0.53 200.986 66.212
0.54 194.746 66.370
0.55 191.873 66.558
0.56 188.821 67.014
0.57 187.116 67.898
0.58 186.531 68.662
0.59 186.035 68.976
0.60 185.011 68.310
0.61 183.110 65.694
0.62 181.563 60.769
0.63 184.922 54.350
0.64 --undefined-- 51.708
0.65 --undefined-- 58.259
0.66 --undefined-- 63.563
0.67 188.120 66.319
0.68 185.364 67.488
0.69 181.727 68.058
0.70 180.925 68.173
0.71 179.923 67.464
0.72 179.205 66.201
0.73 180.682 65.209
0.74 181.939 64.721
0.75 182.827 64.562
0.76 182.595 64.214
0.77 179.729 62.833
0.78 171.185 60.350
0.79 --undefined-- 58.249
0.80 --undefined-- 56.119
0.81 --undefined-- 51.919
0.82 --undefined-- 45.653
0.83 --undefined-- 43.331
0.84 --undefined-- 47.704
0.85 --undefined-- 50.079
0.86 --undefined-- 49.671
0.87 --undefined-- 50.200
0.88 --undefined-- 51.384
0.89 --undefined-- 52.958
0.90 --undefined-- 58.029
0.91 202.258 62.372
0.92 199.839 65.067
0.93 191.755 66.503
0.94 187.551 66.931
0.95 185.303 66.811
0.96 184.505 66.471
0.97 183.220 65.637
0.98 181.570 64.474
0.99 176.440 63.537
1.00 176.847 63.519
1.01 181.367 64.097
1.02 180.497 64.297
1.03 179.051 63.937
1.04 180.106 63.470
1.05 181.946 63.265
1.06 183.649 63.321
1.07 185.393 63.353
1.08 187.018 63.281
1.09 187.896 63.262
1.10 188.141 63.146
1.11 188.033 62.853
1.12 187.137 62.216
1.13 185.609 60.506
1.14 185.573 57.341
1.15 184.889 54.321
1.16 --undefined-- 53.040
1.17 --undefined-- 52.360
1.18 --undefined-- 53.918
1.19 --undefined-- 54.952
1.20 --undefined-- 56.331
1.21 --undefined-- 60.008
1.22 177.104 62.082
1.23 164.146 62.284
1.24 153.096 61.830
1.25 148.741 61.448
1.26 148.135 61.334
1.27 149.658 61.636
1.28 149.798 61.928
1.29 149.839 61.687
1.30 150.349 61.213
1.31 151.809 61.253
1.32 155.584 61.474
1.33 160.568 61.276
1.34 166.611 60.946
1.35 173.159 61.033
1.36 181.024 61.729
1.37 189.965 62.821
1.38 197.068 63.494
1.39 206.055 63.529
1.40 211.846 63.459
1.41 214.647 63.371
1.42 216.720 63.385
1.43 215.974 63.692
1.44 212.995 64.008
1.45 208.029 64.647
1.46 200.832 66.045
1.47 195.465 67.605
1.48 190.110 69.342
1.49 185.365 71.123
1.50 182.206 72.284
1.51 180.545 72.571
1.52 176.972 72.206
1.53 168.662 71.239
1.54 165.991 69.813
1.55 165.560 68.482
1.56 166.689 67.596
1.57 167.036 66.677
1.58 166.645 65.675
1.59 166.489 65.244
1.60 166.458 64.602
1.61 161.288 62.386
1.62 --undefined-- 58.287
1.63 --undefined-- 53.750
1.64 --undefined-- 51.371
1.65 --undefined-- 53.365
1.66 --undefined-- 58.754
1.67 182.268 62.612
1.68 177.786 64.292
1.69 169.848 64.478
1.70 165.801 64.320
1.71 164.892 64.341
1.72 164.139 64.165
1.73 163.124 63.213
1.74 157.703 61.181
1.75 164.348 59.416
1.76 168.252 58.880
1.77 165.608 58.003
1.78 161.638 55.769
1.79 --undefined-- 53.189
1.80 --undefined-- 54.836
1.81 --undefined-- 59.666
1.82 176.934 62.886
1.83 170.458 64.137
1.84 165.303 64.554
1.85 163.620 64.834
1.86 161.698 64.581
1.87 161.091 63.853
1.88 161.490 63.668
1.89 162.327 64.036
1.90 163.141 64.206
1.91 163.993 64.110
1.92 163.419 63.722
1.93 161.919 62.612
1.94 159.620 60.690
1.95 158.675 57.936
1.96 --undefined-- 53.814
1.97 --undefined-- 49.248
1.98 --undefined-- 47.630
1.99 --undefined-- 47.291
2.00 --undefined-- 47.769
2.01 --undefined-- 52.475
2.02 219.165 58.614
2.03 200.944 63.438
2.04 190.601 66.835
2.05 182.003 69.156
2.06 176.197 70.434
2.07 173.743 70.730
2.08 170.376 70.477
2.09 169.181 70.319
2.10 169.369 70.107
2.11 170.081 69.674
2.12 171.068 69.217
2.13 171.945 68.938
2.14 174.276 68.957
2.15 176.811 68.893
2.16 177.989 67.699
2.17 175.986 64.437
2.18 152.441 59.256
2.19 --undefined-- 54.387
2.20 --undefined-- 55.015
2.21 191.004 60.960
2.22 190.207 66.080
2.23 188.235 69.686
2.24 187.245 72.018
2.25 186.708 73.278
2.26 184.277 74.193
2.27 182.378 75.000
2.28 181.188 75.234
2.29 181.008 75.020
2.30 181.677 74.791
2.31 182.353 74.704
2.32 182.336 74.671
2.33 181.515 74.594
2.34 179.715 74.544
2.35 178.392 74.525
2.36 176.218 74.549
2.37 174.354 74.574
2.38 171.715 73.999
2.39 166.162 72.134
2.40 --undefined-- 68.300
2.41 --undefined-- 62.165
2.42 --undefined-- 55.758
2.43 --undefined-- 52.258
2.44 --undefined-- 50.017
2.45 --undefined-- 48.037
2.46 --undefined-- 46.964
2.47 --undefined-- 46.360
2.48 --undefined-- 45.259
2.49 --undefined-- 44.251
2.50 --undefined-- 43.258
2.51 --undefined-- 42.668
2.52 --undefined-- 42.634
2.53 --undefined-- 43.198
2.54 --undefined-- 45.421
2.55 --undefined-- 48.405
2.56 --undefined-- 49.421
2.57 --undefined-- 47.186
2.58 --undefined-- 42.952
2.59 --undefined-- 42.373
2.60 --undefined-- 42.981
2.61 --undefined-- 41.498
2.62 --undefined-- 39.618
2.63 --undefined-- 42.083
2.64 --undefined-- 44.678
2.65 --undefined-- 44.813
2.66 --undefined-- 44.829
2.67 --undefined-- 46.195
2.68 --undefined-- 48.022
2.69 --undefined-- 49.314
2.70 --undefined-- 48.757
2.71 --undefined-- 48.656
2.72 --undefined-- 49.441
2.73 --undefined-- 50.172
2.74 --undefined-- 51.313
2.75 --undefined-- 50.786
2.76 --undefined-- 49.470
2.77 --undefined-- 49.455
2.78 --undefined-- 49.216
2.79 --undefined-- 49.447
2.80 --undefined-- 50.174
2.81 --undefined-- 50.736
2.82 --undefined-- 51.411
2.83 --undefined-- 52.324
2.84 --undefined-- 52.754
2.85 --undefined-- 52.462
2.86 --undefined-- 51.914
2.87 --undefined-- 51.461
2.88 --undefined-- 51.797
2.89 --undefined-- 52.791
2.90 --undefined-- 53.010
2.91 --undefined-- 51.889
2.92 --undefined-- 51.463
2.93 --undefined-- 51.549
2.94 --undefined-- 49.804
2.95 --undefined-- 46.891
2.96 --undefined-- 46.168
2.97 --undefined-- 49.444
2.98 --undefined-- 52.618
2.99 --undefined-- 53.397
3.00 --undefined-- 52.084
3.01 --undefined-- 51.272
3.02 --undefined-- 56.200
3.03 --undefined-- 61.767
3.04 234.666 65.468
3.05 235.066 68.001
3.06 239.739 70.010
3.07 245.394 71.605
3.08 251.352 72.599
3.09 255.961 72.701
3.10 258.583 71.485
3.11 258.196 68.414
3.12 253.439 63.209
3.13 257.353 58.171
3.14 262.049 59.457
3.15 264.751 62.547
3.16 265.034 64.244
3.17 263.572 64.950
3.18 267.389 66.547
3.19 283.891 69.171
3.20 278.569 71.308
3.21 246.791 72.651
3.22 246.972 73.027
3.23 251.213 72.386
3.24 258.206 72.008
3.25 263.810 72.559
3.26 269.703 72.194
3.27 286.056 70.591
3.28 163.155 69.785
3.29 171.203 70.039
3.30 172.973 69.927
3.31 172.041 68.671
3.32 169.701 65.742
3.33 158.049 61.320
3.34 163.434 57.155
3.35 170.340 55.070
3.36 174.636 54.814
3.37 177.799 54.490
3.38 177.339 57.677
3.39 197.930 64.711
3.40 198.945 69.477
3.41 197.877 72.135
3.42 195.357 73.784
3.43 193.713 74.804
3.44 191.610 75.191
3.45 190.187 75.228
3.46 189.804 75.139
3.47 189.736 74.794
3.48 190.186 74.081
3.49 191.196 73.249
3.50 192.621 72.516
3.51 194.468 71.855
3.52 196.392 71.151
3.53 196.780 70.114
3.54 194.262 68.733
3.55 192.777 68.321
3.56 193.313 69.008
3.57 194.874 69.400
3.58 195.819 69.388
3.59 193.487 69.520
3.60 190.323 70.007
3.61 188.068 70.619
3.62 186.621 70.979
3.63 185.366 70.993
3.64 184.888 71.014
3.65 185.102 71.123
3.66 185.212 71.207
3.67 185.729 71.351
3.68 185.789 71.510
3.69 185.094 71.569
3.70 184.833 71.502
3.71 184.588 71.329
3.72 183.637 70.956
3.73 181.053 70.210
3.74 176.073 69.017
3.75 168.599 67.511
3.76 --undefined-- 65.676
3.77 --undefined-- 63.361
3.78 --undefined-- 61.086
3.79 --undefined-- 59.095
3.80 --undefined-- 57.053
3.81 --undefined-- 56.283
3.82 --undefined-- 57.211
3.83 172.633 59.985
3.84 171.432 63.106
3.85 181.776 65.308
3.86 191.195 66.782
3.87 191.163 67.923
3.88 188.718 68.754
3.89 186.889 69.321
3.90 186.520 69.515
3.91 188.835 69.267
3.92 191.046 68.630
3.93 191.946 67.269
3.94 189.400 64.570
3.95 183.870 60.302
3.96 186.981 55.452
3.97 --undefined-- 50.977
3.98 --undefined-- 47.849
3.99 --undefined-- 51.329
4.00 --undefined-- 55.045
4.01 --undefined-- 56.227
4.02 --undefined-- 55.836
4.03 259.253 58.008
4.04 231.619 62.313
4.05 231.715 65.203
4.06 234.930 66.721
4.07 236.346 67.395
4.08 239.844 67.601
4.09 246.068 67.602
4.10 253.466 67.586
4.11 260.695 67.711
4.12 268.470 67.822
4.13 277.973 68.047
4.14 286.119 68.814
4.15 293.140 69.781
4.16 299.939 70.393
4.17 151.385 70.406
4.18 299.157 69.386
4.19 291.698 66.510
4.20 286.879 60.960
4.21 --undefined-- 54.869
4.22 --undefined-- 56.220
4.23 --undefined-- 57.206
4.24 --undefined-- 56.051
4.25 --undefined-- 55.060
4.26 --undefined-- 57.326
4.27 --undefined-- 58.581
4.28 --undefined-- 56.435
4.29 --undefined-- 50.623
4.30 --undefined-- 47.918
4.31 --undefined-- 53.198
4.32 --undefined-- 56.821
4.33 --undefined-- 60.152
4.34 --undefined-- 65.162
4.35 175.330 68.860
4.36 174.948 69.988
4.37 174.790 69.621
4.38 174.250 69.072
4.39 172.225 68.568
4.40 170.298 68.363
4.41 176.576 68.984
4.42 176.767 69.569
4.43 177.347 69.801
4.44 178.226 69.868
4.45 179.111 69.750
4.46 179.703 69.518
4.47 179.899 69.236
4.48 179.406 68.788
4.49 178.173 68.198
4.50 177.483 67.617
4.51 176.439 66.911
4.52 173.833 65.910
4.53 168.665 64.957
4.54 163.464 64.575
4.55 159.194 64.483
4.56 155.278 63.960
4.57 147.313 63.258
4.58 145.610 63.554
4.59 145.636 64.700
4.60 145.384 66.259
4.61 144.899 67.993
4.62 --undefined-- 69.816
4.63 --undefined-- 71.336
4.64 --undefined-- 72.333
4.65 --undefined-- 72.309
4.66 --undefined-- 70.925
4.67 --undefined-- 68.752
4.68 --undefined-- 66.157
4.69 --undefined-- 63.401
4.70 --undefined-- 61.378
4.71 --undefined-- 58.668
4.72 --undefined-- 55.314
4.73 --undefined-- 56.393
4.74 --undefined-- 58.841
4.75 --undefined-- 61.198
4.76 --undefined-- 63.671
4.77 246.307 66.491
4.78 258.253 68.932
4.79 265.148 70.037
4.80 271.042 70.156
4.81 276.357 70.298
4.82 278.026 70.496
4.83 277.094 70.530
4.84 274.342 70.516
4.85 269.536 70.186
4.86 260.430 69.837
4.87 252.457 70.280
4.88 246.347 70.442
4.89 242.930 69.228
4.90 242.321 66.433
4.91 244.006 62.058
4.92 244.653 57.361
4.93 247.481 55.712
4.94 --undefined-- 59.261
4.95 283.546 63.848
4.96 283.902 66.302
4.97 289.109 67.026
4.98 292.655 67.115
4.99 291.771 67.205
5.00 289.150 67.224
5.01 285.212 67.050
5.02 279.930 66.706
5.03 272.119 66.672
5.04 266.490 67.638
5.05 258.598 68.737
5.06 249.449 68.702
5.07 232.150 67.553
5.08 218.835 67.162
5.09 206.468 68.191
5.10 200.626 69.195
5.11 194.839 68.931
5.12 192.319 67.321
5.13 193.365 64.712
5.14 197.777 61.481
5.15 208.807 --undefined--
5.16 206.970 --undefined--
5.17 --undefined-- --undefined--
5.18 --undefined-- --undefined--
