Time Pitch Intensity
0.01 --undefined-- --undefined--
0.02 101.449 --undefined--
0.03 103.861 --undefined--
0.04 105.541 --undefined--
0.05 106.589 68.947
0.06 107.311 70.045
0.07 109.130 71.310
0.08 107.133 71.917
0.09 106.020 71.843
0.10 104.651 71.574
0.11 104.272 71.420
0.12 104.165 71.243
0.13 101.867 70.953
0.14 102.476 70.746
0.15 103.453 70.660
0.16 104.272 70.901
0.17 104.816 71.330
0.18 105.168 71.704
0.19 104.979 71.870
0.20 105.294 71.361
0.21 103.268 69.478
0.22 98.466 66.192
0.23 102.819 62.880
0.24 105.609 60.160
0.25 102.829 56.535
0.26 --undefined-- 53.188
0.27 --undefined-- 53.891
0.28 --undefined-- 55.539
0.29 --undefined-- 57.427
0.30 --undefined-- 59.456
0.31 --undefined-- 61.215
0.32 --undefined-- 63.479
0.33 --undefined-- 64.407
0.34 --undefined-- 63.773
0.35 --undefined-- 63.858
0.36 --undefined-- 64.244
0.37 --undefined-- 64.299
0.38 --undefined-- 65.450
0.39 96.362 67.235
0.40 96.942 68.822
0.41 97.331 69.772
0.42 95.729 69.835
0.43 95.673 69.320
0.44 95.253 68.637
0.45 94.942 67.833
0.46 94.722 66.905
0.47 93.673 66.354
0.48 96.201 66.976
0.49 97.214 67.977
0.50 98.182 68.653
0.51 99.263 69.254
0.52 100.106 69.899
0.53 101.016 70.527
0.54 102.829 71.004
0.55 104.329 71.231
0.56 105.308 71.458
0.57 107.432 72.187
0.58 108.450 73.099
0.59 105.490 73.604
0.60 105.799 73.897
0.61 109.242 74.333
0.62 113.255 75.174
0.63 120.069 76.369
0.64 126.122 77.483
0.65 131.257 78.383
0.66 136.748 78.980
0.67 139.838 78.947
0.68 149.896 78.699
0.69 160.322 78.814
0.70 171.807 78.801
0.71 180.824 78.280
0.72 189.035 77.310
0.73 190.542 76.123
0.74 186.680 74.410
0.75 175.094 71.835
0.76 155.502 68.601
0.77 132.688 65.689
0.78 --undefined-- 62.736
0.79 --undefined-- 58.722
0.80 --undefined-- 55.584
0.81 --undefined-- 54.140
0.82 --undefined-- 51.005
0.83 --undefined-- 52.429
0.84 --undefined-- 58.458
0.85 104.842 62.472
0.86 124.788 65.504
0.87 136.647 68.323
0.88 143.512 70.792
0.89 146.722 72.780
0.90 149.913 74.069
0.91 154.894 74.507
0.92 159.045 74.089
0.93 157.693 72.660
0.94 155.257 69.641
0.95 153.100 64.730
0.96 150.913 60.032
0.97 149.625 60.411
0.98 --undefined-- 67.750
0.99 --undefined-- 73.858
1.00 --undefined-- 76.587
1.01 --undefined-- 76.862
1.02 --undefined-- 75.836
1.03 125.205 74.184
1.04 123.319 72.707
1.05 123.960 71.871
1.06 122.559 70.430
1.07 113.794 67.028
1.08 106.978 61.578
1.09 --undefined-- 56.050
1.10 --undefined-- 51.376
1.11 --undefined-- 49.453
1.12 --undefined-- 52.632
1.13 --undefined-- 60.863
1.14 --undefined-- 69.510
1.15 --undefined-- 74.600
1.16 144.404 76.519
1.17 133.002 76.376
1.18 126.641 75.167
1.19 121.178 72.760
1.20 118.979 68.710
1.21 125.380 63.351
1.22 --undefined-- 57.052
1.23 --undefined-- 51.023
1.24 --undefined-- 47.192
1.25 --undefined-- 44.630
1.26 --undefined-- 45.245
1.27 --undefined-- 47.112
1.28 --undefined-- 49.278
1.29 --undefined-- 52.846
1.30 --undefined-- 58.897
1.31 --undefined-- 67.868
1.32 --undefined-- 74.014
1.33 142.240 76.864
1.34 135.245 77.421
1.35 128.318 76.888
1.36 126.920 76.125
1.37 125.634 75.160
1.38 125.867 74.276
1.39 126.465 73.861
1.40 125.914 73.688
1.41 125.161 73.546
1.42 124.681 73.478
1.43 124.877 73.535
1.44 124.916 73.630
1.45 124.779 73.657
1.46 124.483 73.410
1.47 124.053 72.487
1.48 124.541 70.269
1.49 120.651 65.997
1.50 --undefined-- 59.222
1.51 --undefined-- 53.299
1.52 --undefined-- 51.627
1.53 --undefined-- 50.208
1.54 --undefined-- 49.901
1.55 --undefined-- 54.226
1.56 --undefined-- 62.176
1.57 123.626 67.991
1.58 122.523 71.311
1.59 121.103 73.040
1.60 121.977 73.939
1.61 124.732 74.320
1.62 126.952 73.807
1.63 126.433 72.005
1.64 131.792 69.780
1.65 141.857 68.925
1.66 144.642 68.529
1.67 145.056 66.875
1.68 149.251 63.265
1.69 153.461 57.979
1.70 --undefined-- 53.264
1.71 --undefined-- 51.095
1.72 --undefined-- 49.902
1.73 --undefined-- 49.499
1.74 --undefined-- 52.202
1.75 --undefined-- 53.587
1.76 --undefined-- 51.694
1.77 --undefined-- 48.898
1.78 --undefined-- 48.144
1.79 --undefined-- 51.155
1.80 --undefined-- 60.553
1.81 175.578 67.669
1.82 175.295 71.809
1.83 174.785 74.029
1.84 178.972 75.328
1.85 183.653 76.266
1.86 187.826 76.960
1.87 191.336 77.423
1.88 193.455 77.837
1.89 194.302 78.309
1.90 194.535 78.677
1.91 194.727 78.824
1.92 193.427 78.853
1.93 191.874 79.001
1.94 191.786 79.280
1.95 191.333 79.507
1.96 191.873 79.682
1.97 192.754 79.849
1.98 193.220 79.996
1.99 192.888 80.058
2.00 191.276 79.849
2.01 187.839 78.947
2.02 179.965 76.843
2.03 165.551 73.330
2.04 155.425 68.977
2.05 164.197 64.399
2.06 --undefined-- 59.914
2.07 --undefined-- 57.497
2.08 --undefined-- 57.027
2.09 --undefined-- 58.075
2.10 --undefined-- 59.238
2.11 --undefined-- 59.396
2.12 --undefined-- 59.668
2.13 --undefined-- 63.805
2.14 --undefined-- 69.444
2.15 114.350 72.881
2.16 110.322 74.299
2.17 105.440 74.390
2.18 102.231 73.752
2.19 99.194 72.999
2.20 96.448 72.486
2.21 96.258 72.176
2.22 94.423 71.785
2.23 --undefined-- 70.368
2.24 --undefined-- 67.501
2.25 133.209 65.793
2.26 137.395 66.644
2.27 124.426 68.744
2.28 123.276 71.117
2.29 111.660 72.519
2.30 109.674 73.035
2.31 109.272 72.988
2.32 108.833 72.630
2.33 106.246 72.316
2.34 104.009 72.231
2.35 100.350 72.219
2.36 99.180 72.035
2.37 95.909 71.691
2.38 96.486 71.560
2.39 97.377 71.727
2.40 97.713 71.789
2.41 97.814 71.558
2.42 97.980 71.284
2.43 97.772 71.254
2.44 97.043 71.295
2.45 96.666 71.094
2.46 95.783 70.544
2.47 95.123 69.842
2.48 95.352 69.279
2.49 95.487 68.673
2.50 94.542 67.658
2.51 93.801 66.709
2.52 96.376 66.993
2.53 100.848 68.509
2.54 104.080 70.232
2.55 106.313 71.526
2.56 108.304 72.425
2.57 110.054 73.200
2.58 112.245 73.964
2.59 115.357 74.665
2.60 119.287 75.225
2.61 122.565 75.636
2.62 124.891 75.528
2.63 123.690 73.960
2.64 115.120 70.141
2.65 117.633 64.265
2.66 --undefined-- 58.056
2.67 --undefined-- 53.861
2.68 --undefined-- 55.841
2.69 --undefined-- 59.899
2.70 --undefined-- 62.982
2.71 105.383 68.159
2.72 128.642 72.706
2.73 122.244 74.971
2.74 121.852 75.698
2.75 118.732 75.639
2.76 116.998 75.374
2.77 116.068 75.371
2.78 114.200 75.474
2.79 113.290 75.314
2.80 115.277 75.021
2.81 116.246 74.940
2.82 115.263 74.743
2.83 113.951 73.920
2.84 112.423 72.241
2.85 112.616 70.035
2.86 112.148 68.066
2.87 112.929 66.161
2.88 112.874 63.432
2.89 113.400 60.789
2.90 --undefined-- 60.303
2.91 --undefined-- 63.703
2.92 --undefined-- 70.989
2.93 155.442 75.875
2.94 149.722 77.845
2.95 145.148 77.794
2.96 142.817 76.600
2.97 138.573 74.385
2.98 132.171 70.713
2.99 122.354 65.820
3.00 128.758 61.839
3.01 133.643 58.751
3.02 137.159 55.395
3.03 --undefined-- 51.563
3.04 --undefined-- 47.689
3.05 --undefined-- 46.403
3.06 --undefined-- 46.253
3.07 --undefined-- 47.545
3.08 --undefined-- 54.167
3.09 --undefined-- 61.080
3.10 --undefined-- 68.597
3.11 --undefined-- 74.076
3.12 131.146 76.764
3.13 120.796 77.355
3.14 118.086 76.858
3.15 117.046 76.308
3.16 115.565 76.312
3.17 115.015 76.614
3.18 115.145 76.633
3.19 115.012 76.334
3.20 114.612 75.977
3.21 113.891 75.516
3.22 113.505 74.832
3.23 112.576 73.777
3.24 109.950 72.025
3.25 99.790 69.503
3.26 79.570 66.306
3.27 79.408 62.233
3.28 --undefined-- 56.958
3.29 --undefined-- 52.031
3.30 --undefined-- 53.105
3.31 113.027 56.742
3.32 113.831 58.380
3.33 119.093 57.466
3.34 127.596 56.189
3.35 128.009 56.300
3.36 120.865 55.553
3.37 121.294 54.513
3.38 --undefined-- 54.326
3.39 --undefined-- 54.482
3.40 --undefined-- 54.559
3.41 --undefined-- 54.470
3.42 --undefined-- 54.654
3.43 --undefined-- 54.829
3.44 --undefined-- 54.972
3.45 --undefined-- 55.122
3.46 --undefined-- 54.917
3.47 --undefined-- 54.305
3.48 --undefined-- 53.197
3.49 --undefined-- 52.417
3.50 --undefined-- 51.708
3.51 --undefined-- 49.596
3.52 --undefined-- 47.019
3.53 --undefined-- 47.020
3.54 --undefined-- 47.901
3.55 --undefined-- 53.144
3.56 --undefined-- 63.044
3.57 145.011 69.979
3.58 142.483 74.570
3.59 144.196 77.679
3.60 146.663 79.492
3.61 150.060 80.184
3.62 156.921 80.260
3.63 165.768 80.247
3.64 171.635 80.309
3.65 176.484 80.183
3.66 180.142 79.858
3.67 181.194 79.552
3.68 180.652 79.092
3.69 182.190 78.161
3.70 186.436 77.186
3.71 183.456 76.859
3.72 179.992 76.502
3.73 176.808 75.364
3.74 169.481 73.317
3.75 156.995 70.677
3.76 150.990 68.245
3.77 148.033 65.872
3.78 145.680 62.634
3.79 146.048 57.980
3.80 --undefined-- 52.169
3.81 --undefined-- 48.473
3.82 --undefined-- 52.467
3.83 --undefined-- 59.752
3.84 --undefined-- 64.790
3.85 --undefined-- 70.034
3.86 172.652 74.528
3.87 171.768 76.922
3.88 163.569 77.913
3.89 160.313 78.426
3.90 160.412 78.841
3.91 159.050 79.008
3.92 158.155 78.896
3.93 157.959 78.881
3.94 157.660 79.221
3.95 157.227 79.752
3.96 157.588 80.150
3.97 157.577 80.436
3.98 156.868 80.633
3.99 157.400 80.558
4.00 160.283 80.163
4.01 162.707 79.223
4.02 160.183 77.199
4.03 148.466 74.030
4.04 143.784 70.829
4.05 141.526 67.776
4.06 142.972 64.347
4.07 --undefined-- 64.319
4.08 --undefined-- 66.688
4.09 --undefined-- 69.053
4.10 --undefined-- 73.147
4.11 --undefined-- 75.481
4.12 --undefined-- 75.082
4.13 --undefined-- 72.442
4.14 --undefined-- 67.746
4.15 --undefined-- 61.073
4.16 --undefined-- 54.992
4.17 --undefined-- 53.373
4.18 --undefined-- 53.896
4.19 --undefined-- 59.666
4.20 138.866 65.559
4.21 145.352 69.923
4.22 151.112 72.957
4.23 159.625 75.026
4.24 162.094 76.302
4.25 164.550 76.970
4.26 168.339 77.365
4.27 171.538 77.685
4.28 173.563 78.051
4.29 173.337 78.392
4.30 169.756 78.088
4.31 163.825 76.160
4.32 152.887 72.295
4.33 154.592 67.458
4.34 148.084 62.341
4.35 --undefined-- 55.656
4.36 --undefined-- 57.034
4.37 --undefined-- 65.465
4.38 --undefined-- 70.170
4.39 --undefined-- 71.697
4.40 106.468 70.689
4.41 107.845 68.582
4.42 104.439 67.646
4.43 114.376 68.941
4.44 116.584 71.101
4.45 119.763 72.861
4.46 124.730 74.146
4.47 128.722 74.883
4.48 130.232 74.418
4.49 137.279 72.525
4.50 142.642 70.057
4.51 140.107 66.894
4.52 132.099 62.008
4.53 --undefined-- 56.172
4.54 --undefined-- 55.883
4.55 --undefined-- 64.106
4.56 --undefined-- 72.385
4.57 167.794 76.881
4.58 156.229 78.312
4.59 155.042 77.856
4.60 150.161 76.760
4.61 144.815 75.020
4.62 142.452 72.189
4.63 146.299 69.651
4.64 144.143 68.879
4.65 141.999 68.707
4.66 140.683 68.337
4.67 138.999 67.980
4.68 137.037 68.127
4.69 135.656 69.045
4.70 137.008 70.484
4.71 139.273 71.954
4.72 140.529 73.161
4.73 141.493 73.998
4.74 141.355 74.463
4.75 140.660 74.300
4.76 139.271 72.962
4.77 137.641 69.928
4.78 133.705 64.770
4.79 --undefined-- 57.645
4.80 --undefined-- 54.020
4.81 --undefined-- 56.474
4.82 --undefined-- 57.884
4.83 --undefined-- 58.231
4.84 --undefined-- 64.212
4.85 --undefined-- 70.931
4.86 --undefined-- 73.795
4.87 130.239 73.964
4.88 127.059 74.309
4.89 121.846 75.276
4.90 111.472 75.244
4.91 100.688 74.226
4.92 97.536 72.700
4.93 92.652 71.026
4.94 91.977 69.822
4.95 91.755 69.307
4.96 91.511 68.838
4.97 92.376 67.634
4.98 91.613 65.708
4.99 94.777 64.317
5.00 97.201 63.065
5.01 93.503 60.173
5.02 91.283 55.823
5.03 --undefined-- 56.802
5.04 --undefined-- 64.734
5.05 129.488 70.639
5.06 116.134 73.851
5.07 111.867 74.925
5.08 108.598 74.562
5.09 107.818 72.767
5.10 99.602 69.004
5.11 100.800 --undefined--
5.12 106.634 --undefined--
5.13 --undefined-- --undefined--
5.14 --undefined-- --undefined--
