Time Pitch Intensity
0.01 --undefined-- --undefined--
0.02 111.688 --undefined--
0.03 113.317 --undefined--
0.04 114.611 --undefined--
0.05 --undefined-- 55.119
0.06 --undefined-- 52.198
0.07 --undefined-- 48.911
0.08 --undefined-- 46.993
0.09 --undefined-- 46.330
0.10 --undefined-- 45.824
0.11 --undefined-- 46.751
0.12 --undefined-- 48.550
0.13 --undefined-- 49.557
0.14 --undefined-- 49.190
0.15 --undefined-- 48.364
0.16 --undefined-- 53.408
0.17 --undefined-- 61.145
0.18 --undefined-- 66.056
0.19 114.711 68.618
0.20 113.592 69.783
0.21 107.312 70.299
0.22 107.620 70.450
0.23 103.391 70.092
0.24 99.731 69.333
0.25 104.345 68.583
0.26 102.854 68.020
0.27 102.243 67.575
0.28 101.572 67.158
0.29 100.583 66.588
0.30 101.577 65.895
0.31 101.903 65.451
0.32 101.718 65.217
0.33 103.228 65.017
0.34 104.491 65.353
0.35 105.605 66.063
0.36 106.074 66.638
0.37 108.089 67.553
0.38 108.261 69.080
0.39 108.700 70.595
0.40 108.285 71.427
0.41 108.276 71.646
0.42 107.462 71.582
0.43 108.105 71.419
0.44 108.256 71.164
0.45 107.835 70.732
0.46 106.901 70.096
0.47 108.010 69.705
0.48 109.133 69.627
0.49 108.989 69.251
0.50 109.570 68.368
0.51 109.863 67.109
0.52 109.746 65.386
0.53 109.370 62.801
0.54 109.040 59.376
0.55 109.972 55.087
0.56 --undefined-- 50.071
0.57 --undefined-- 45.496
0.58 --undefined-- 42.416
0.59 --undefined-- 40.897
0.60 --undefined-- 39.711
0.61 --undefined-- 38.392
0.62 --undefined-- 37.587
0.63 --undefined-- 37.441
0.64 --undefined-- 36.740
0.65 --undefined-- 35.342
0.66 --undefined-- 34.927
0.67 --undefined-- 36.666
0.68 --undefined-- 42.138
0.69 --undefined-- 46.240
0.70 --undefined-- 46.752
0.71 --undefined-- 44.133
0.72 --undefined-- 41.091
0.73 --undefined-- 45.152
0.74 --undefined-- 53.156
0.75 --undefined-- 58.359
0.76 --undefined-- 60.924
0.77 107.107 61.915
0.78 98.004 61.816
0.79 98.019 60.207
0.80 97.927 56.738
0.81 --undefined-- 51.722
0.82 --undefined-- 47.169
0.83 --undefined-- 46.024
0.84 --undefined-- 46.424
0.85 --undefined-- 46.943
0.86 --undefined-- 47.374
0.87 --undefined-- 46.888
0.88 --undefined-- 47.235
0.89 --undefined-- 53.516
0.90 --undefined-- 60.364
0.91 --undefined-- 64.812
0.92 102.161 67.193
0.93 94.247 67.694
0.94 93.905 67.419
0.95 100.056 67.368
0.96 99.469 66.091
0.97 --undefined-- 62.760
0.98 --undefined-- 58.718
0.99 --undefined-- 54.766
1.00 --undefined-- 49.671
1.01 --undefined-- 44.585
1.02 --undefined-- 40.317
1.03 --undefined-- 37.764
1.04 --undefined-- 35.137
1.05 --undefined-- 31.878
1.06 --undefined-- 30.002
1.07 --undefined-- 30.559
1.08 --undefined-- 33.483
1.09 --undefined-- 36.173
1.10 --undefined-- 36.511
1.11 --undefined-- 34.428
1.12 --undefined-- 34.049
1.13 --undefined-- 41.851
1.14 --undefined-- 49.623
1.15 --undefined-- 58.435
1.16 --undefined-- 65.205
1.17 138.592 69.212
1.18 138.528 71.725
1.19 137.413 73.738
1.20 136.590 74.978
1.21 136.214 75.084
1.22 136.324 74.125
1.23 137.287 72.715
1.24 140.568 72.073
1.25 142.889 72.486
1.26 144.404 73.105
1.27 145.764 73.473
1.28 145.972 73.249
1.29 146.469 72.012
1.30 146.629 69.040
1.31 146.959 64.393
1.32 145.574 61.722
1.33 145.287 61.920
1.34 144.545 62.571
1.35 142.839 63.227
1.36 140.004 65.873
1.37 --undefined-- 70.125
1.38 --undefined-- 72.109
1.39 --undefined-- 71.637
1.40 113.892 70.697
1.41 114.378 70.206
1.42 104.710 69.107
1.43 102.838 67.614
1.44 100.324 66.162
1.45 98.955 66.149
1.46 --undefined-- 66.851
1.47 --undefined-- 65.303
1.48 --undefined-- 61.811
1.49 --undefined-- 59.469
1.50 --undefined-- 59.142
1.51 --undefined-- 59.005
1.52 --undefined-- 57.576
1.53 --undefined-- 55.672
1.54 --undefined-- 55.342
1.55 116.460 57.221
1.56 114.876 59.992
1.57 110.105 62.568
1.58 104.970 64.246
1.59 100.524 65.278
1.60 102.686 65.959
1.61 106.002 66.158
1.62 107.192 65.662
1.63 108.283 63.938
1.64 109.169 60.265
1.65 --undefined-- 54.626
1.66 --undefined-- 50.187
1.67 --undefined-- 49.041
1.68 --undefined-- 48.576
1.69 --undefined-- 49.568
1.70 --undefined-- 51.297
1.71 --undefined-- 53.805
1.72 --undefined-- 60.017
1.73 --undefined-- 65.527
1.74 --undefined-- 68.754
1.75 129.665 70.731
1.76 127.165 71.937
1.77 125.293 72.405
1.78 124.903 72.408
1.79 124.725 71.891
1.80 123.511 70.560
1.81 123.983 68.148
1.82 126.648 65.436
1.83 128.460 64.132
1.84 129.681 63.912
1.85 130.220 64.167
1.86 129.983 64.402
1.87 130.171 64.234
1.88 130.245 63.553
1.89 130.216 62.244
1.90 129.633 60.090
1.91 128.866 56.855
1.92 --undefined-- 52.701
1.93 --undefined-- 48.996
1.94 --undefined-- 47.273
1.95 --undefined-- 47.802
1.96 --undefined-- 53.485
1.97 --undefined-- 57.501
1.98 --undefined-- 57.747
1.99 --undefined-- 55.298
2.00 --undefined-- 53.866
2.01 --undefined-- 56.275
2.02 123.562 59.283
2.03 120.353 61.279
2.04 117.864 61.828
2.05 112.834 60.392
2.06 --undefined-- 56.859
2.07 --undefined-- 51.941
2.08 --undefined-- 48.190
2.09 --undefined-- 48.368
2.10 --undefined-- 49.490
2.11 --undefined-- 50.552
2.12 --undefined-- 53.624
2.13 --undefined-- 58.367
2.14 --undefined-- 61.511
2.15 103.874 62.382
2.16 102.896 61.316
2.17 --undefined-- 58.150
2.18 --undefined-- 52.474
2.19 --undefined-- 46.108
2.20 --undefined-- 42.896
2.21 --undefined-- 46.810
2.22 --undefined-- 53.241
2.23 --undefined-- 55.875
2.24 --undefined-- 54.982
2.25 --undefined-- 53.293
2.26 --undefined-- 53.337
2.27 --undefined-- 54.101
2.28 110.176 56.120
2.29 107.156 58.113
2.30 102.928 59.457
2.31 95.467 59.711
2.32 --undefined-- 58.364
2.33 --undefined-- 56.239
2.34 --undefined-- 53.578
2.35 --undefined-- 51.077
2.36 --undefined-- 50.076
2.37 --undefined-- 48.004
2.38 --undefined-- 44.742
2.39 --undefined-- 42.251
2.40 --undefined-- 42.832
2.41 --undefined-- 44.757
2.42 --undefined-- 44.296
2.43 --undefined-- 43.491
2.44 --undefined-- 47.052
2.45 --undefined-- 53.319
2.46 --undefined-- 58.902
2.47 --undefined-- 62.183
2.48 97.482 63.175
2.49 94.780 62.011
2.50 96.575 58.808
2.51 --undefined-- 54.146
2.52 --undefined-- 49.668
2.53 --undefined-- 51.140
2.54 117.386 57.180
2.55 117.131 60.710
2.56 111.627 61.614
2.57 108.276 61.701
2.58 117.387 63.692
2.59 121.261 65.491
2.60 121.748 65.137
2.61 121.546 62.497
2.62 120.291 57.661
2.63 --undefined-- 50.886
2.64 --undefined-- 46.159
2.65 --undefined-- 47.215
2.66 --undefined-- 49.446
2.67 --undefined-- 49.926
2.68 --undefined-- 50.573
2.69 --undefined-- 58.082
2.70 --undefined-- 64.729
2.71 136.120 68.324
2.72 133.292 70.187
2.73 126.989 71.723
2.74 126.461 73.154
2.75 124.904 74.411
2.76 125.421 75.484
2.77 122.756 76.251
2.78 123.393 76.873
2.79 --undefined-- 76.933
2.80 127.967 76.208
2.81 126.427 75.179
2.82 126.270 73.498
2.83 127.940 70.596
2.84 120.908 66.245
2.85 --undefined-- 60.470
2.86 --undefined-- 54.335
2.87 --undefined-- 50.297
2.88 --undefined-- 49.485
2.89 --undefined-- 50.869
2.90 --undefined-- 52.094
2.91 --undefined-- 52.135
2.92 --undefined-- 53.828
2.93 --undefined-- 57.935
2.94 135.982 60.566
2.95 132.785 61.200
2.96 130.797 60.967
2.97 126.252 60.638
2.98 123.020 59.588
2.99 121.117 57.616
3.00 --undefined-- 55.729
3.01 --undefined-- 54.468
3.02 --undefined-- 54.456
3.03 --undefined-- 56.855
3.04 123.101 61.212
3.05 118.473 65.111
3.06 112.527 67.670
3.07 105.603 68.990
3.08 100.229 69.353
3.09 98.371 69.315
3.10 98.562 69.247
3.11 99.905 68.938
3.12 100.047 68.193
3.13 97.836 67.275
3.14 96.893 66.513
3.15 97.051 65.593
3.16 96.662 64.333
3.17 96.586 62.939
3.18 99.268 61.458
3.19 98.938 59.625
3.20 98.530 56.721
3.21 --undefined-- 52.157
3.22 --undefined-- 46.630
3.23 --undefined-- 42.912
3.24 --undefined-- 42.826
3.25 --undefined-- 44.357
3.26 --undefined-- 45.040
3.27 --undefined-- 45.831
3.28 --undefined-- 47.663
3.29 --undefined-- 50.585
3.30 --undefined-- 53.419
3.31 --undefined-- 55.569
3.32 --undefined-- 57.453
3.33 --undefined-- 58.752
3.34 --undefined-- 59.248
3.35 --undefined-- 58.539
3.36 --undefined-- 57.172
3.37 --undefined-- 56.507
3.38 --undefined-- 58.296
3.39 --undefined-- 64.079
3.40 --undefined-- 68.841
3.41 --undefined-- 71.560
3.42 --undefined-- 72.812
3.43 --undefined-- 72.951
3.44 104.906 72.574
3.45 104.206 72.403
3.46 102.781 72.310
3.47 99.990 71.588
3.48 97.831 69.537
3.49 95.139 65.475
3.50 93.924 60.436
3.51 92.576 57.901
3.52 84.235 56.735
3.53 92.922 56.672
3.54 74.852 56.350
3.55 --undefined-- 55.357
3.56 --undefined-- 53.761
3.57 --undefined-- 50.813
3.58 --undefined-- 48.312
3.59 --undefined-- 46.599
3.60 --undefined-- 45.147
3.61 --undefined-- 44.177
3.62 --undefined-- 43.222
3.63 --undefined-- 42.487
3.64 --undefined-- 42.465
3.65 --undefined-- 42.888
3.66 --undefined-- 43.710
3.67 --undefined-- 48.589
3.68 --undefined-- 54.149
3.69 --undefined-- 58.978
3.70 --undefined-- 63.159
3.71 88.197 65.086
3.72 86.158 64.826
3.73 88.505 64.187
3.74 85.789 64.841
3.75 84.892 65.397
3.76 84.619 65.014
3.77 87.907 64.073
3.78 89.306 63.277
3.79 89.951 62.909
3.80 90.574 62.639
3.81 91.911 62.404
3.82 91.678 62.198
3.83 90.560 61.465
3.84 89.780 60.142
3.85 89.355 58.693
3.86 90.747 58.572
3.87 91.822 60.489
3.88 91.666 62.680
3.89 89.660 63.953
3.90 86.441 64.324
3.91 86.467 63.502
3.92 --undefined-- 60.661
3.93 --undefined-- 55.645
3.94 --undefined-- 49.960
3.95 --undefined-- 46.486
3.96 --undefined-- 45.342
3.97 --undefined-- 46.579
3.98 --undefined-- 48.403
3.99 --undefined-- 54.219
4.00 --undefined-- 61.095
4.01 103.601 65.150
4.02 88.211 66.583
4.03 89.450 66.348
4.04 89.035 65.565
4.05 --undefined-- 64.216
4.06 --undefined-- 61.839
4.07 --undefined-- 59.279
4.08 --undefined-- 57.621
4.09 --undefined-- 54.352
4.10 --undefined-- 48.562
4.11 --undefined-- 45.697
4.12 --undefined-- 44.459
4.13 --undefined-- 41.963
4.14 --undefined-- 39.687
4.15 --undefined-- 37.857
4.16 --undefined-- 36.766
4.17 --undefined-- 36.970
4.18 --undefined-- 38.338
4.19 --undefined-- 40.053
4.20 --undefined-- 40.617
4.21 --undefined-- 40.525
4.22 --undefined-- 40.636
4.23 --undefined-- 41.974
4.24 --undefined-- 48.730
4.25 --undefined-- 55.605
4.26 179.618 59.551
4.27 176.682 61.640
4.28 164.182 63.685
4.29 147.774 66.000
4.30 133.318 68.262
4.31 126.880 70.367
4.32 123.504 71.507
4.33 122.740 71.782
4.34 123.812 71.586
4.35 123.968 71.331
4.36 124.092 71.075
4.37 124.486 70.652
4.38 124.288 70.192
4.39 123.875 69.778
4.40 122.600 69.403
4.41 121.410 69.271
4.42 122.084 69.583
4.43 121.503 69.795
4.44 115.604 69.417
4.45 115.439 68.465
4.46 113.462 67.686
4.47 109.462 67.413
4.48 108.580 67.589
4.49 108.416 68.817
4.50 154.081 71.236
4.51 156.087 74.485
4.52 156.113 77.407
4.53 155.220 78.673
4.54 153.665 78.518
4.55 146.909 78.583
4.56 --undefined-- 78.580
4.57 --undefined-- 77.206
4.58 --undefined-- 74.793
4.59 --undefined-- 72.431
4.60 122.929 70.757
4.61 120.534 69.930
4.62 115.960 69.275
4.63 111.249 68.369
4.64 108.680 67.720
4.65 107.189 67.706
4.66 104.150 67.985
4.67 101.927 68.132
4.68 98.969 67.661
4.69 99.297 66.796
4.70 100.689 66.302
4.71 101.672 66.105
4.72 101.273 65.753
4.73 101.611 65.131
4.74 103.251 64.111
4.75 103.327 62.305
4.76 --undefined-- 59.270
4.77 --undefined-- 54.721
4.78 --undefined-- 49.877
4.79 --undefined-- 46.104
4.80 --undefined-- 42.522
4.81 --undefined-- 42.116
4.82 --undefined-- 44.477
4.83 --undefined-- 49.114
4.84 --undefined-- 58.194
4.85 --undefined-- 64.217
4.86 --undefined-- 66.952
4.87 --undefined-- 68.079
4.88 --undefined-- 69.001
4.89 --undefined-- 69.846
4.90 99.635 70.326
4.91 97.374 70.445
4.92 95.942 70.193
4.93 101.409 69.746
4.94 100.759 69.229
4.95 94.864 68.669
4.96 95.475 68.078
4.97 96.503 67.434
4.98 95.292 67.188
4.99 98.448 67.508
5.00 98.096 67.467
5.01 99.506 66.607
5.02 99.818 65.469
5.03 97.790 64.860
5.04 97.984 64.800
5.05 96.541 64.750
5.06 96.595 64.408
5.07 94.272 63.704
5.08 96.447 63.156
5.09 --undefined-- 62.715
5.10 96.500 62.263
5.11 93.797 61.974
5.12 92.892 61.346
5.13 86.282 60.304
5.14 85.935 58.838
5.15 76.347 56.230
5.16 --undefined-- 52.777
5.17 --undefined-- 49.239
5.18 --undefined-- 44.890
5.19 --undefined-- 41.860
5.20 --undefined-- 41.146
5.21 --undefined-- 41.300
5.22 --undefined-- 41.421
5.23 --undefined-- 40.088
5.24 --undefined-- 37.816
5.25 --undefined-- 36.736
5.26 --undefined-- 36.610
5.27 --undefined-- 35.844
5.28 --undefined-- 35.033
5.29 --undefined-- 35.263
5.30 --undefined-- 35.113
5.31 --undefined-- 35.351
5.32 --undefined-- 36.577
5.33 --undefined-- 36.062
5.34 --undefined-- 37.024
5.35 --undefined-- 50.428
5.36 --undefined-- 62.703
5.37 --undefined-- 70.913
5.38 --undefined-- 75.476
5.39 117.382 77.301
5.40 116.073 77.380
5.41 113.996 76.853
5.42 114.636 76.440
5.43 114.455 75.958
5.44 114.987 75.221
5.45 114.281 --undefined--
5.46 112.746 --undefined--
5.47 --undefined-- --undefined--
5.48 --undefined-- --undefined--
