Time Pitch Intensity
0.01 --undefined-- --undefined--
0.02 117.542 --undefined--
0.03 124.629 --undefined--
0.04 125.077 --undefined--
0.05 125.822 73.470
0.06 125.261 74.389
0.07 122.829 74.481
0.08 121.161 74.493
0.09 120.173 74.714
0.10 119.299 74.149
0.11 116.866 72.632
0.12 115.168 71.282
0.13 113.848 70.756
0.14 112.463 70.568
0.15 112.047 69.681
0.16 110.820 67.005
0.17 --undefined-- 62.227
0.18 --undefined-- 56.829
0.19 113.004 53.518
0.20 112.861 53.337
0.21 112.786 53.054
0.22 113.566 52.027
0.23 --undefined-- 51.704
0.24 --undefined-- 52.594
0.25 --undefined-- 53.913
0.26 --undefined-- 54.731
0.27 --undefined-- 54.434
0.28 --undefined-- 53.754
0.29 --undefined-- 53.191
0.30 --undefined-- 52.944
0.31 --undefined-- 54.422
0.32 --undefined-- 60.350
0.33 --undefined-- 66.371
0.34 141.301 69.951
0.35 135.905 71.692
0.36 132.716 72.437
0.37 128.968 72.796
0.38 124.664 72.991
0.39 120.757 72.778
0.40 118.260 72.334
0.41 116.290 71.877
0.42 114.776 70.912
0.43 113.848 69.414
0.44 113.168 67.699
0.45 112.176 65.409
0.46 114.224 62.404
0.47 116.181 59.751
0.48 114.496 58.332
0.49 113.503 57.647
0.50 112.844 56.129
0.51 112.426 53.856
0.52 116.871 52.459
0.53 --undefined-- 51.633
0.54 --undefined-- 51.896
0.55 --undefined-- 52.408
0.56 --undefined-- 52.163
0.57 --undefined-- 51.961
0.58 --undefined-- 51.825
0.59 --undefined-- 50.996
0.60 --undefined-- 49.663
0.61 --undefined-- 49.848
0.62 --undefined-- 50.657
0.63 --undefined-- 50.135
0.64 --undefined-- 48.705
0.65 --undefined-- 48.106
0.66 --undefined-- 47.943
0.67 --undefined-- 47.751
0.68 --undefined-- 47.691
0.69 --undefined-- 47.388
0.70 --undefined-- 46.633
0.71 --undefined-- 45.573
0.72 --undefined-- 44.684
0.73 --undefined-- 43.618
0.74 --undefined-- 42.370
0.75 --undefined-- 41.912
0.76 --undefined-- 41.910
0.77 --undefined-- 41.518
0.78 --undefined-- 40.828
0.79 --undefined-- 40.724
0.80 --undefined-- 41.816
0.81 --undefined-- 42.390
0.82 --undefined-- 42.674
0.83 --undefined-- 42.857
0.84 --undefined-- 43.669
0.85 --undefined-- 46.937
0.86 --undefined-- 52.396
0.87 --undefined-- 57.282
0.88 --undefined-- 60.821
0.89 --undefined-- 65.666
0.90 247.092 70.789
0.91 216.776 73.933
0.92 209.831 75.429
0.93 207.089 75.863
0.94 205.405 75.473
0.95 204.594 74.805
0.96 203.801 73.717
0.97 198.664 71.647
0.98 197.827 69.284
0.99 --undefined-- 66.717
1.00 106.612 62.751
1.01 106.923 58.354
1.02 111.108 55.829
1.03 118.131 56.476
1.04 115.865 61.705
1.05 --undefined-- 67.631
1.06 199.182 71.057
1.07 194.170 72.349
1.08 191.264 72.610
1.09 188.850 72.549
1.10 186.643 72.521
1.11 184.690 72.603
1.12 182.015 72.757
1.13 180.156 72.954
1.14 177.208 73.179
1.15 178.632 73.305
1.16 178.758 73.366
1.17 184.638 73.353
1.18 183.460 73.349
1.19 183.967 73.447
1.20 183.833 73.530
1.21 183.204 73.324
1.22 182.037 72.829
1.23 181.842 72.170
1.24 180.504 71.433
1.25 179.806 71.565
1.26 178.690 72.212
1.27 177.934 73.013
1.28 177.001 73.654
1.29 176.276 73.944
1.30 175.466 74.033
1.31 174.891 73.971
1.32 174.785 74.046
1.33 174.624 74.215
1.34 174.319 74.214
1.35 174.244 74.013
1.36 173.668 73.579
1.37 172.732 72.966
1.38 171.962 72.378
1.39 170.808 71.768
1.40 169.796 71.136
1.41 169.618 70.653
1.42 169.961 70.345
1.43 170.144 70.017
1.44 169.600 69.423
1.45 168.116 68.407
1.46 166.266 66.917
1.47 165.726 65.023
1.48 --undefined-- 63.136
1.49 --undefined-- 61.654
1.50 103.186 60.549
1.51 102.235 60.373
1.52 101.140 60.324
1.53 99.727 59.659
1.54 98.467 58.361
1.55 97.369 56.745
1.56 96.915 55.020
1.57 96.668 53.752
1.58 97.485 52.874
1.59 96.359 51.976
1.60 94.096 51.758
1.61 91.830 51.901
1.62 90.889 51.203
1.63 90.248 50.431
1.64 89.013 50.154
1.65 87.930 49.983
1.66 88.065 49.525
1.67 --undefined-- 48.377
1.68 --undefined-- 47.046
1.69 --undefined-- 45.756
1.70 --undefined-- 44.056
1.71 --undefined-- 42.908
1.72 --undefined-- 42.873
1.73 --undefined-- 43.000
1.74 --undefined-- 42.240
1.75 --undefined-- 41.396
1.76 --undefined-- 41.274
1.77 --undefined-- 40.611
1.78 --undefined-- 38.953
1.79 --undefined-- 39.595
1.80 --undefined-- 42.343
1.81 --undefined-- 42.825
1.82 --undefined-- 41.219
1.83 --undefined-- 42.725
1.84 --undefined-- 47.767
1.85 --undefined-- 51.742
1.86 --undefined-- 53.709
1.87 --undefined-- 58.478
1.88 269.268 67.178
1.89 252.765 72.966
1.90 243.716 75.825
1.91 240.843 76.468
1.92 246.946 75.629
1.93 250.279 74.426
1.94 248.439 73.825
1.95 245.491 73.696
1.96 244.384 73.650
1.97 244.649 73.546
1.98 245.336 73.391
1.99 244.273 73.386
2.00 240.973 74.009
2.01 232.117 75.201
2.02 226.719 75.810
2.03 222.249 75.297
2.04 218.717 74.133
2.05 214.992 73.262
2.06 212.334 73.167
2.07 212.340 73.390
2.08 211.429 73.513
2.09 210.282 73.547
2.10 208.394 73.475
2.11 205.431 73.248
2.12 201.628 72.863
2.13 197.632 72.346
2.14 193.236 71.822
2.15 187.622 71.689
2.16 182.931 72.225
2.17 179.010 72.877
2.18 175.477 73.214
2.19 172.805 73.220
2.20 169.977 72.936
2.21 167.428 72.500
2.22 165.434 72.053
2.23 163.382 71.703
2.24 161.723 71.422
2.25 159.516 70.975
2.26 157.912 70.368
2.27 156.903 70.045
2.28 156.975 70.330
2.29 158.398 70.918
2.30 160.447 71.219
2.31 162.084 70.973
2.32 162.451 70.499
2.33 163.406 70.108
2.34 165.114 69.733
2.35 167.152 69.316
2.36 167.333 68.613
2.37 164.550 67.090
2.38 --undefined-- 64.418
2.39 --undefined-- 60.476
2.40 --undefined-- 55.131
2.41 --undefined-- 49.195
2.42 --undefined-- 46.399
2.43 --undefined-- 49.907
2.44 --undefined-- 54.544
2.45 --undefined-- 59.672
2.46 --undefined-- 65.020
2.47 250.808 69.278
2.48 266.929 71.632
2.49 279.205 72.495
2.50 287.765 72.413
2.51 292.360 70.772
2.52 292.436 66.508
2.53 --undefined-- 59.164
2.54 146.295 53.520
2.55 148.143 54.143
2.56 149.941 54.888
2.57 145.585 55.481
2.58 157.952 56.632
2.59 156.623 60.242
2.60 288.524 65.708
2.61 272.558 69.463
2.62 258.617 71.261
2.63 248.609 71.907
2.64 242.961 72.135
2.65 238.634 72.319
2.66 235.361 72.523
2.67 231.866 72.577
2.68 228.984 72.417
2.69 226.588 72.159
2.70 225.958 72.032
2.71 225.514 72.141
2.72 224.806 72.399
2.73 224.458 72.564
2.74 223.630 72.534
2.75 222.923 72.404
2.76 222.674 72.134
2.77 222.332 71.627
2.78 221.472 70.650
2.79 219.285 68.572
2.80 214.068 64.844
2.81 207.345 60.308
2.82 195.007 58.398
2.83 191.172 58.473
2.84 188.842 58.001
2.85 189.694 57.175
2.86 191.994 56.441
2.87 196.426 57.018
2.88 199.924 62.758
2.89 229.866 69.052
2.90 225.994 72.660
2.91 222.035 73.911
2.92 218.983 73.834
2.93 217.701 73.588
2.94 217.341 73.209
2.95 217.083 72.038
2.96 215.853 69.732
2.97 210.525 66.178
2.98 205.746 61.689
2.99 213.370 56.508
3.00 --undefined-- 50.044
3.01 --undefined-- 43.954
3.02 --undefined-- 41.063
3.03 --undefined-- 40.701
3.04 --undefined-- 42.368
3.05 --undefined-- 48.304
3.06 --undefined-- 56.069
3.07 --undefined-- 62.950
3.08 270.304 67.242
3.09 267.685 69.164
3.10 268.295 69.729
3.11 269.824 69.824
3.12 270.629 70.046
3.13 270.896 70.550
3.14 270.253 71.196
3.15 268.974 71.864
3.16 267.748 72.387
3.17 267.028 72.746
3.18 266.061 73.161
3.19 265.170 73.685
3.20 264.204 74.142
3.21 262.633 74.511
3.22 261.573 74.888
3.23 261.086 75.193
3.24 261.204 75.222
3.25 261.524 74.929
3.26 261.515 74.312
3.27 261.426 73.462
3.28 260.283 72.590
3.29 257.955 71.504
3.30 252.531 69.882
3.31 247.003 67.768
3.32 247.827 64.561
3.33 235.170 59.310
3.34 247.164 53.877
3.35 --undefined-- 51.002
3.36 --undefined-- 49.024
3.37 --undefined-- 47.984
3.38 --undefined-- 48.231
3.39 --undefined-- 48.127
3.40 --undefined-- 48.286
3.41 --undefined-- 51.853
3.42 --undefined-- 56.693
3.43 --undefined-- 62.965
3.44 221.131 67.787
3.45 209.418 70.133
3.46 201.249 70.779
3.47 196.532 70.718
3.48 194.708 70.672
3.49 194.147 70.850
3.50 193.735 71.105
3.51 192.956 71.369
3.52 192.124 71.573
3.53 191.820 71.552
3.54 190.335 71.421
3.55 188.055 71.534
3.56 188.849 71.639
3.57 186.723 71.467
3.58 184.768 71.204
3.59 182.561 70.889
3.60 178.543 70.509
3.61 175.433 69.939
3.62 168.647 69.026
3.63 158.898 68.027
3.64 151.632 67.308
3.65 146.306 66.791
3.66 142.480 66.211
3.67 139.068 65.740
3.68 138.674 65.827
3.69 139.956 66.284
3.70 141.560 66.704
3.71 142.527 66.978
3.72 143.125 67.313
3.73 147.383 67.880
3.74 152.122 68.323
3.75 153.126 68.157
3.76 151.098 66.769
3.77 150.647 63.387
3.78 --undefined-- 57.305
3.79 --undefined-- 48.728
3.80 --undefined-- 44.797
3.81 --undefined-- 46.748
3.82 --undefined-- 49.083
3.83 --undefined-- 50.271
3.84 --undefined-- 51.825
3.85 --undefined-- 53.372
3.86 --undefined-- 58.844
3.87 229.658 66.342
3.88 226.538 70.704
3.89 223.541 72.230
3.90 220.029 71.473
3.91 210.666 68.456
3.92 195.960 62.988
3.93 --undefined-- 55.317
3.94 --undefined-- 46.835
3.95 --undefined-- 42.147
3.96 --undefined-- 40.789
3.97 --undefined-- 40.619
3.98 --undefined-- 46.279
3.99 --undefined-- 56.928
4.00 --undefined-- 64.872
4.01 192.454 69.080
4.02 185.917 70.637
4.03 181.591 70.923
4.04 178.529 71.037
4.05 175.217 71.163
4.06 172.808 71.453
4.07 171.877 71.867
4.08 169.948 72.050
4.09 169.021 72.049
4.10 169.003 72.004
4.11 169.309 71.899
4.12 169.918 71.701
4.13 170.946 71.178
4.14 169.804 69.808
4.15 168.239 67.131
4.16 161.546 62.720
4.17 150.193 57.789
4.18 --undefined-- 58.418
4.19 --undefined-- 64.508
4.20 203.406 69.396
4.21 192.609 71.671
4.22 189.403 72.368
4.23 187.135 72.607
4.24 184.729 72.681
4.25 183.597 72.871
4.26 183.447 73.190
4.27 183.752 73.344
4.28 184.698 73.319
4.29 185.296 73.271
4.30 185.274 73.303
4.31 185.070 73.348
4.32 185.001 73.349
4.33 185.352 73.305
4.34 186.334 73.234
4.35 186.652 73.196
4.36 187.239 73.137
4.37 187.408 73.019
4.38 186.831 72.860
4.39 186.460 72.580
4.40 186.542 72.152
4.41 185.323 71.662
4.42 180.976 71.051
4.43 174.324 69.575
4.44 148.377 66.680
4.45 --undefined-- 63.000
4.46 --undefined-- 59.374
4.47 --undefined-- 54.483
4.48 --undefined-- 48.511
4.49 --undefined-- 45.758
4.50 --undefined-- 45.070
4.51 --undefined-- 43.224
4.52 --undefined-- 40.113
4.53 --undefined-- 38.082
4.54 --undefined-- 39.614
4.55 --undefined-- 42.725
4.56 --undefined-- 44.849
4.57 --undefined-- 46.841
4.58 --undefined-- 50.315
4.59 --undefined-- 53.403
4.60 --undefined-- 55.330
4.61 --undefined-- 55.736
4.62 --undefined-- 54.768
4.63 --undefined-- 53.991
4.64 --undefined-- 54.414
4.65 --undefined-- 56.476
4.66 --undefined-- 61.911
4.67 197.621 67.012
4.68 192.883 69.915
4.69 187.030 71.105
4.70 183.161 71.521
4.71 183.757 71.581
4.72 183.284 71.454
4.73 180.918 71.388
4.74 181.634 71.496
4.75 182.515 71.380
4.76 185.194 70.690
4.77 185.158 69.564
4.78 183.091 68.362
4.79 179.520 67.554
4.80 179.839 67.102
4.81 178.641 66.842
4.82 179.353 66.718
4.83 177.569 66.505
4.84 177.478 66.107
4.85 175.606 65.731
4.86 174.688 65.579
4.87 175.208 65.599
4.88 175.497 65.643
4.89 175.346 65.805
4.90 175.713 66.085
4.91 176.672 66.455
4.92 177.450 66.838
4.93 177.883 67.096
4.94 179.029 67.255
4.95 180.200 67.454
4.96 182.463 67.662
4.97 184.936 67.895
4.98 186.992 68.214
4.99 188.913 68.672
5.00 192.354 69.174
5.01 196.571 69.636
5.02 199.754 70.117
5.03 203.073 70.659
5.04 207.121 71.563
5.05 211.376 72.807
5.06 215.440 73.775
5.07 215.918 73.909
5.08 212.364 72.930
5.09 205.052 70.644
5.10 203.803 66.746
5.11 --undefined-- 62.083
5.12 --undefined-- 57.953
5.13 --undefined-- 53.133
5.14 --undefined-- 48.748
5.15 --undefined-- 46.449
5.16 --undefined-- --undefined--
5.17 --undefined-- --undefined--
5.18 --undefined-- --undefined--
5.19 --undefined-- --undefined--
