Time Pitch Intensity
0.01 --undefined-- --undefined--
0.02 --undefined-- --undefined--
0.03 --undefined-- --undefined--
0.04 --undefined-- --undefined--
0.05 110.153 70.095
0.06 108.462 67.617
0.07 107.316 64.836
0.08 106.092 61.537
0.09 106.485 59.473
0.10 106.944 60.221
0.11 108.304 61.359
0.12 108.831 61.187
0.13 107.540 58.939
0.14 --undefined-- 53.895
0.15 --undefined-- 45.767
0.16 --undefined-- 36.890
0.17 --undefined-- 36.719
0.18 --undefined-- 40.113
0.19 --undefined-- 44.761
0.20 --undefined-- 52.712
0.21 --undefined-- 62.033
0.22 152.531 68.797
0.23 144.513 72.914
0.24 141.929 74.758
0.25 139.403 74.520
0.26 137.664 72.112
0.27 135.701 67.511
0.28 132.169 62.642
0.29 133.904 61.749
0.30 136.840 64.298
0.31 140.832 66.973
0.32 140.769 68.248
0.33 138.895 68.446
0.34 136.138 67.876
0.35 132.000 65.966
0.36 126.811 62.044
0.37 --undefined-- 55.722
0.38 --undefined-- 47.587
0.39 --undefined-- 42.355
0.40 --undefined-- 41.650
0.41 --undefined-- 43.121
0.42 --undefined-- 50.313
0.43 --undefined-- 59.042
0.44 145.941 65.024
0.45 149.991 68.615
0.46 154.151 70.767
0.47 157.470 71.804
0.48 157.478 71.772
0.49 155.991 70.637
0.50 153.642 67.588
0.51 --undefined-- 61.474
0.52 --undefined-- 52.567
0.53 --undefined-- 52.633
0.54 --undefined-- 56.540
0.55 --undefined-- 57.878
0.56 --undefined-- 57.161
0.57 --undefined-- 56.223
0.58 --undefined-- 55.620
0.59 --undefined-- 53.269
0.60 --undefined-- 47.811
0.61 --undefined-- 39.557
0.62 --undefined-- 35.321
0.63 --undefined-- 36.502
0.64 --undefined-- 37.276
0.65 --undefined-- 37.098
0.66 --undefined-- 36.937
0.67 --undefined-- 47.940
0.68 --undefined-- 59.971
0.69 139.385 68.086
0.70 136.182 73.071
0.71 132.475 75.434
0.72 129.447 75.506
0.73 125.481 73.594
0.74 121.093 69.857
0.75 115.551 64.111
0.76 --undefined-- 56.497
0.77 --undefined-- 49.979
0.78 --undefined-- 47.885
0.79 --undefined-- 46.292
0.80 --undefined-- 44.731
0.81 --undefined-- 51.743
0.82 --undefined-- 60.632
0.83 --undefined-- 67.966
0.84 167.750 73.573
0.85 166.042 77.411
0.86 163.816 79.269
0.87 162.123 78.661
0.88 162.437 75.472
0.89 163.266 70.456
0.90 163.490 67.494
0.91 162.408 67.439
0.92 160.857 67.424
0.93 158.696 67.419
0.94 155.898 68.337
0.95 151.404 70.436
0.96 146.446 72.403
0.97 142.646 73.514
0.98 134.559 73.767
0.99 134.314 73.487
1.00 135.082 72.598
1.01 --undefined-- 71.000
1.02 --undefined-- 68.613
1.03 --undefined-- 64.829
1.04 --undefined-- 59.902
1.05 --undefined-- 56.320
1.06 --undefined-- 56.625
1.07 --undefined-- 58.918
1.08 --undefined-- 61.559
1.09 --undefined-- 63.735
1.10 --undefined-- 67.099
1.11 --undefined-- 68.605
1.12 --undefined-- 67.710
1.13 --undefined-- 68.161
1.14 --undefined-- 68.423
1.15 --undefined-- 66.046
1.16 --undefined-- 61.908
1.17 --undefined-- 58.196
1.18 --undefined-- 56.087
1.19 --undefined-- 54.575
1.20 --undefined-- 51.718
1.21 --undefined-- 47.051
1.22 --undefined-- 43.140
1.23 --undefined-- 39.036
1.24 --undefined-- 35.906
1.25 --undefined-- 36.920
1.26 --undefined-- 37.427
1.27 --undefined-- 36.290
1.28 --undefined-- 35.694
1.29 --undefined-- 37.191
1.30 --undefined-- 38.345
1.31 --undefined-- 38.663
1.32 --undefined-- 40.485
1.33 --undefined-- 43.443
1.34 --undefined-- 45.179
1.35 --undefined-- 46.627
1.36 --undefined-- 48.297
1.37 --undefined-- 51.284
1.38 --undefined-- 56.470
1.39 118.636 61.156
1.40 118.699 64.277
1.41 117.942 66.135
1.42 116.791 66.998
1.43 116.078 67.170
1.44 116.613 67.436
1.45 117.832 67.987
1.46 119.488 68.521
1.47 121.403 69.044
1.48 123.450 69.016
1.49 122.751 67.610
1.50 121.202 64.904
1.51 121.805 66.158
1.52 130.482 71.959
1.53 133.701 76.549
1.54 134.951 78.777
1.55 134.972 78.769
1.56 134.063 76.928
1.57 131.856 73.617
1.58 --undefined-- 68.859
1.59 --undefined-- 62.346
1.60 --undefined-- 56.354
1.61 --undefined-- 53.999
1.62 --undefined-- 51.955
1.63 --undefined-- 49.017
1.64 --undefined-- 45.255
1.65 --undefined-- 41.059
1.66 --undefined-- 39.396
1.67 --undefined-- 41.212
1.68 --undefined-- 43.390
1.69 --undefined-- 45.032
1.70 --undefined-- 46.175
1.71 --undefined-- 46.932
1.72 --undefined-- 46.958
1.73 --undefined-- 46.631
1.74 --undefined-- 46.522
1.75 --undefined-- 46.049
1.76 --undefined-- 45.007
1.77 --undefined-- 44.026
1.78 --undefined-- 43.474
1.79 --undefined-- 42.970
1.80 --undefined-- 41.959
1.81 --undefined-- 40.873
1.82 --undefined-- 40.330
1.83 --undefined-- 39.238
1.84 --undefined-- 37.999
1.85 --undefined-- 37.119
1.86 --undefined-- 35.736
1.87 --undefined-- 35.772
1.88 --undefined-- 37.476
1.89 --undefined-- 38.324
1.90 --undefined-- 38.321
1.91 --undefined-- 37.870
1.92 --undefined-- 37.265
1.93 --undefined-- 36.564
1.94 --undefined-- 35.457
1.95 --undefined-- 35.201
1.96 --undefined-- 36.612
1.97 --undefined-- 37.952
1.98 --undefined-- 38.054
1.99 --undefined-- 37.170
2.00 --undefined-- 35.343
2.01 --undefined-- 33.357
2.02 --undefined-- 38.481
2.03 --undefined-- 52.922
2.04 --undefined-- 64.400
2.05 219.961 71.887
2.06 216.858 76.037
2.07 219.427 77.635
2.08 221.690 77.703
2.09 222.117 77.192
2.10 220.396 76.333
2.11 216.319 74.812
2.12 211.832 71.920
2.13 205.216 66.787
2.14 --undefined-- 59.592
2.15 --undefined-- 54.056
2.16 --undefined-- 51.238
2.17 --undefined-- 48.762
2.18 --undefined-- 48.907
2.19 --undefined-- 55.108
2.20 --undefined-- 61.426
2.21 --undefined-- 68.573
2.22 --undefined-- 74.297
2.23 --undefined-- 77.232
2.24 --undefined-- 77.369
2.25 --undefined-- 74.854
2.26 130.151 70.838
2.27 129.344 68.132
2.28 130.500 67.304
2.29 133.034 67.473
2.30 132.861 67.866
2.31 132.815 68.048
2.32 132.490 67.748
2.33 132.663 66.958
2.34 132.661 66.459
2.35 132.754 66.872
2.36 131.832 67.576
2.37 131.780 68.155
2.38 131.511 68.308
2.39 127.245 67.639
2.40 125.305 66.333
2.41 --undefined-- 64.125
2.42 --undefined-- 59.861
2.43 --undefined-- 54.774
2.44 --undefined-- 52.252
2.45 --undefined-- 53.327
2.46 --undefined-- 58.543
2.47 --undefined-- 65.869
2.48 130.336 72.064
2.49 131.046 76.091
2.50 130.224 77.992
2.51 126.967 78.173
2.52 123.530 77.072
2.53 121.428 74.899
2.54 123.085 72.128
2.55 122.128 70.137
2.56 120.281 69.378
2.57 120.358 68.618
2.58 120.422 67.247
2.59 120.292 65.762
2.60 120.240 64.643
2.61 120.448 63.618
2.62 119.951 62.096
2.63 119.190 59.619
2.64 --undefined-- 55.875
2.65 --undefined-- 50.470
2.66 --undefined-- 45.398
2.67 --undefined-- 45.230
2.68 --undefined-- 46.413
2.69 --undefined-- 46.748
2.70 --undefined-- 46.474
2.71 --undefined-- 48.334
2.72 --undefined-- 58.709
2.73 190.084 67.233
2.74 187.173 71.938
2.75 181.469 73.974
2.76 177.633 75.229
2.77 177.112 77.003
2.78 175.448 78.571
2.79 171.181 79.172
2.80 167.113 78.691
2.81 161.477 77.615
2.82 156.957 77.123
2.83 153.040 77.423
2.84 149.568 77.552
2.85 146.747 77.103
2.86 145.302 76.271
2.87 142.387 75.242
2.88 138.462 73.900
2.89 135.053 71.445
2.90 --undefined-- 66.782
2.91 --undefined-- 59.281
2.92 --undefined-- 50.425
2.93 --undefined-- 44.285
2.94 --undefined-- 41.479
2.95 --undefined-- 44.323
2.96 --undefined-- 47.573
2.97 --undefined-- 49.581
2.98 --undefined-- 50.604
2.99 --undefined-- 50.986
3.00 --undefined-- 50.992
3.01 --undefined-- 50.822
3.02 --undefined-- 50.360
3.03 --undefined-- 49.710
3.04 --undefined-- 49.051
3.05 --undefined-- 48.128
3.06 --undefined-- 46.952
3.07 --undefined-- 45.439
3.08 --undefined-- 43.582
3.09 --undefined-- 46.602
3.10 --undefined-- 55.399
3.11 140.242 62.582
3.12 138.073 67.169
3.13 134.113 69.475
3.14 131.792 70.020
3.15 130.360 69.391
3.16 130.096 68.145
3.17 131.238 66.723
3.18 133.235 65.726
3.19 134.849 65.394
3.20 140.238 65.177
3.21 146.041 65.069
3.22 151.937 65.450
3.23 158.082 66.197
3.24 162.796 66.862
3.25 167.301 67.866
3.26 172.280 69.883
3.27 173.067 71.340
3.28 174.309 70.833
3.29 174.271 68.033
3.30 169.989 62.919
3.31 --undefined-- 56.197
3.32 --undefined-- 50.845
3.33 --undefined-- 53.974
3.34 --undefined-- 60.347
3.35 154.479 65.522
3.36 151.932 69.440
3.37 150.311 71.870
3.38 146.915 72.864
3.39 143.422 72.353
3.40 138.410 69.825
3.41 --undefined-- 64.646
3.42 --undefined-- 56.212
3.43 --undefined-- 44.749
3.44 --undefined-- 38.259
3.45 --undefined-- 36.597
3.46 --undefined-- 35.121
3.47 --undefined-- 44.568
3.48 --undefined-- 56.886
3.49 179.460 64.482
3.50 176.547 68.314
3.51 175.041 69.263
3.52 172.868 68.581
3.53 171.061 68.024
3.54 171.024 68.167
3.55 171.401 68.331
3.56 170.625 67.844
3.57 167.338 66.214
3.58 160.720 63.072
3.59 --undefined-- 58.224
3.60 --undefined-- 53.207
3.61 --undefined-- 52.731
3.62 --undefined-- 53.620
3.63 --undefined-- 55.808
3.64 141.515 61.515
3.65 139.679 66.805
3.66 134.680 70.120
3.67 128.922 71.330
3.68 122.860 70.861
3.69 117.732 69.267
3.70 116.206 66.584
3.71 115.443 62.785
3.72 115.333 59.445
3.73 114.613 58.488
3.74 114.215 58.332
3.75 114.345 57.909
3.76 114.565 57.246
3.77 113.967 56.466
3.78 112.969 55.242
3.79 --undefined-- 53.303
3.80 --undefined-- 51.946
3.81 --undefined-- 52.293
3.82 --undefined-- 54.578
3.83 110.198 59.488
3.84 110.049 64.234
3.85 114.084 67.859
3.86 113.603 70.113
3.87 108.041 70.200
3.88 98.844 68.298
3.89 88.324 66.405
3.90 91.313 67.046
3.91 --undefined-- 68.694
3.92 --undefined-- 68.489
3.93 --undefined-- 66.034
3.94 --undefined-- 61.773
3.95 --undefined-- 56.036
3.96 --undefined-- 52.582
3.97 --undefined-- 53.008
3.98 --undefined-- 54.138
3.99 --undefined-- 55.012
4.00 --undefined-- 55.613
4.01 146.870 56.133
4.02 148.088 56.748
4.03 153.241 57.422
4.04 158.117 57.885
4.05 162.490 58.813
4.06 165.861 60.482
4.07 168.188 61.899
4.08 169.430 62.764
4.09 170.096 63.204
4.10 169.604 63.440
4.11 168.292 63.577
4.12 166.246 63.540
4.13 162.592 63.249
4.14 157.227 63.109
4.15 153.196 63.900
4.16 149.608 65.708
4.17 143.091 68.073
4.18 136.866 70.458
4.19 131.388 71.904
4.20 122.404 72.371
4.21 119.174 72.369
4.22 116.602 72.027
4.23 114.151 71.789
4.24 112.498 72.137
4.25 111.159 72.698
4.26 110.069 73.211
4.27 108.799 73.560
4.28 107.819 73.634
4.29 106.840 73.226
4.30 105.572 72.346
4.31 105.305 71.317
4.32 105.347 70.444
4.33 105.431 69.547
4.34 106.040 68.760
4.35 106.079 68.159
4.36 105.806 67.548
4.37 105.012 66.377
4.38 103.951 63.744
4.39 104.183 59.144
4.40 104.277 54.624
4.41 --undefined-- 51.736
4.42 --undefined-- 48.997
4.43 --undefined-- 47.273
4.44 --undefined-- 47.017
4.45 --undefined-- 46.612
4.46 --undefined-- 45.998
4.47 --undefined-- 45.095
4.48 --undefined-- 44.009
4.49 --undefined-- 43.080
4.50 --undefined-- 42.121
4.51 --undefined-- 40.949
4.52 --undefined-- 39.765
4.53 --undefined-- 38.761
4.54 --undefined-- 37.820
4.55 --undefined-- 36.183
4.56 --undefined-- 33.554
4.57 --undefined-- 31.411
4.58 --undefined-- 30.869
4.59 --undefined-- 30.812
4.60 --undefined-- 30.802
4.61 --undefined-- 30.786
4.62 --undefined-- 32.337
4.63 --undefined-- 34.788
4.64 --undefined-- 36.538
4.65 --undefined-- 37.273
4.66 --undefined-- 36.721
4.67 --undefined-- 36.076
4.68 --undefined-- 36.248
4.69 --undefined-- 36.511
4.70 --undefined-- 36.357
4.71 --undefined-- 36.024
4.72 --undefined-- 36.174
4.73 --undefined-- 36.020
4.74 --undefined-- 35.093
4.75 --undefined-- 33.820
4.76 --undefined-- 36.593
4.77 --undefined-- 47.398
4.78 --undefined-- 56.242
4.79 --undefined-- 62.280
4.80 --undefined-- 66.206
4.81 135.996 68.186
4.82 135.377 67.922
4.83 133.131 65.226
4.84 --undefined-- 59.801
4.85 --undefined-- 51.019
4.86 --undefined-- 41.946
4.87 --undefined-- 39.924
4.88 --undefined-- 40.908
4.89 --undefined-- 42.794
4.90 --undefined-- 45.901
4.91 --undefined-- 49.377
4.92 --undefined-- 51.152
4.93 --undefined-- 50.891
4.94 --undefined-- 50.956
4.95 114.783 54.982
4.96 114.278 61.156
4.97 116.707 66.779
4.98 120.467 70.586
4.99 --undefined-- 72.709
5.00 128.692 74.243
5.01 130.844 75.389
5.02 130.761 75.701
5.03 128.966 75.185
5.04 127.493 74.150
5.05 127.687 72.912
5.06 128.694 71.470
5.07 127.522 69.468
5.08 124.165 65.917
5.09 --undefined-- 60.251
5.10 --undefined-- 53.943
5.11 --undefined-- 51.127
5.12 --undefined-- 54.636
5.13 --undefined-- 60.842
5.14 122.655 64.947
5.15 120.143 66.733
5.16 116.920 66.958
5.17 114.726 66.767
5.18 113.598 66.810
5.19 111.959 66.180
5.20 111.620 63.990
5.21 107.691 60.026
5.22 --undefined-- 55.066
5.23 --undefined-- 52.597
5.24 --undefined-- 53.214
5.25 --undefined-- 54.001
5.26 --undefined-- 54.209
5.27 --undefined-- 54.367
5.28 --undefined-- 57.232
5.29 162.667 62.719
5.30 167.584 67.367
5.31 175.596 70.158
5.32 177.326 71.074
5.33 175.018 71.202
5.34 174.572 71.688
5.35 175.684 72.215
5.36 176.677 72.289
5.37 177.368 71.911
5.38 178.088 71.185
5.39 178.332 70.006
5.40 176.668 67.909
5.41 172.604 65.515
5.42 169.406 65.029
5.43 165.226 65.180
5.44 160.220 65.087
5.45 151.978 66.277
5.46 140.249 69.369
5.47 134.869 72.429
5.48 131.471 74.079
5.49 128.572 74.382
5.50 125.297 73.769
5.51 122.854 72.281
5.52 121.782 69.943
5.53 121.014 67.162
5.54 114.417 64.238
5.55 112.330 61.072
5.56 --undefined-- 56.879
5.57 --undefined-- 51.304
5.58 --undefined-- 46.794
5.59 --undefined-- 49.297
5.60 --undefined-- 52.242
5.61 --undefined-- 53.566
5.62 113.734 56.882
5.63 117.767 61.574
5.64 123.475 65.786
5.65 125.250 68.865
5.66 125.201 70.512
5.67 123.393 70.688
5.68 121.232 69.894
5.69 121.285 68.994
5.70 121.507 68.281
5.71 120.557 66.729
5.72 114.999 63.031
5.73 112.388 58.347
5.74 114.207 61.095
5.75 117.714 64.932
5.76 117.674 67.068
5.77 117.004 67.910
5.78 113.778 67.826
5.79 113.331 67.421
5.80 113.090 66.759
5.81 113.260 65.949
5.82 113.301 64.810
5.83 113.797 62.533
5.84 106.978 58.884
5.85 --undefined-- 54.305
5.86 --undefined-- 48.680
5.87 --undefined-- 41.690
5.88 --undefined-- 36.352
5.89 --undefined-- 34.014
5.90 --undefined-- 33.867
5.91 --undefined-- 33.264
5.92 --undefined-- 32.660
5.93 --undefined-- 33.684
5.94 --undefined-- 36.287
5.95 --undefined-- 40.025
5.96 --undefined-- 43.442
5.97 --undefined-- 46.014
5.98 --undefined-- 47.758
5.99 --undefined-- 48.076
6.00 --undefined-- 46.883
6.01 --undefined-- 46.677
6.02 --undefined-- 49.857
6.03 --undefined-- 53.965
6.04 111.258 57.456
6.05 109.287 60.014
6.06 107.446 61.637
6.07 104.182 61.950
6.08 104.230 60.304
6.09 --undefined-- 56.313
6.10 --undefined-- 49.895
6.11 --undefined-- 45.483
6.12 --undefined-- 49.678
6.13 --undefined-- 52.294
6.14 --undefined-- 51.478
6.15 --undefined-- 51.983
6.16 --undefined-- 58.976
6.17 112.587 64.460
6.18 113.226 67.732
6.19 115.510 69.429
6.20 116.590 70.397
6.21 118.612 70.965
6.22 120.543 71.260
6.23 124.020 71.427
6.24 128.112 71.349
6.25 131.936 71.092
6.26 132.885 70.833
6.27 134.953 70.283
6.28 137.342 69.528
6.29 139.003 68.393
6.30 139.604 66.267
6.31 139.001 62.766
6.32 --undefined-- 57.262
6.33 --undefined-- 49.479
6.34 --undefined-- 41.943
6.35 --undefined-- 36.823
6.36 --undefined-- 31.948
6.37 --undefined-- 31.480
6.38 --undefined-- 35.531
6.39 --undefined-- 39.049
6.40 --undefined-- 42.588
6.41 --undefined-- 45.360
6.42 --undefined-- 45.939
6.43 --undefined-- 44.679
6.44 --undefined-- 42.791
6.45 --undefined-- 40.822
6.46 --undefined-- 40.106
6.47 --undefined-- 42.000
6.48 --undefined-- 54.034
6.49 --undefined-- 65.356
6.50 --undefined-- 72.495
6.51 132.948 76.465
6.52 130.542 78.080
6.53 125.707 77.916
6.54 122.622 --undefined--
6.55 119.716 --undefined--
6.56 --undefined-- --undefined--
6.57 --undefined-- --undefined--
