Time Pitch Intensity
0.01 --undefined-- --undefined--
0.02 188.064 --undefined--
0.03 189.014 --undefined--
0.04 188.302 --undefined--
0.05 188.832 70.678
0.06 191.308 70.662
0.07 192.488 70.694
0.08 193.616 70.724
0.09 195.890 70.664
0.10 196.726 70.405
0.11 196.329 69.843
0.12 195.451 69.247
0.13 197.743 70.004
0.14 202.743 71.373
0.15 204.380 72.221
0.16 206.130 72.724
0.17 208.749 72.993
0.18 212.809 73.054
0.19 218.214 73.071
0.20 222.879 73.275
0.21 226.682 73.657
0.22 238.307 73.781
0.23 244.134 73.496
0.24 245.926 73.151
0.25 248.600 72.915
0.26 250.494 72.729
0.27 251.062 72.551
0.28 250.083 72.498
0.29 247.859 72.575
0.30 244.778 72.618
0.31 240.868 72.545
0.32 236.724 72.384
0.33 232.519 72.006
0.34 227.105 71.494
0.35 222.576 71.181
0.36 218.329 71.160
0.37 214.424 71.485
0.38 210.091 71.953
0.39 206.261 72.244
0.40 201.715 72.334
0.41 196.847 72.280
0.42 192.512 72.139
0.43 187.827 71.922
0.44 182.914 71.499
0.45 177.401 71.057
0.46 172.505 70.680
0.47 166.809 69.942
0.48 159.193 68.309
0.49 158.271 65.703
0.50 156.620 62.196
0.51 153.864 57.055
0.52 162.240 50.710
0.53 --undefined-- 47.043
0.54 --undefined-- 46.959
0.55 --undefined-- 47.705
0.56 --undefined-- 47.464
0.57 --undefined-- 46.823
0.58 --undefined-- 46.148
0.59 --undefined-- 45.423
0.60 --undefined-- 45.388
0.61 --undefined-- 46.001
0.62 --undefined-- 46.248
0.63 --undefined-- 45.817
0.64 --undefined-- 45.512
0.65 --undefined-- 45.685
0.66 --undefined-- 45.287
0.67 --undefined-- 44.339
0.68 --undefined-- 43.186
0.69 --undefined-- 40.867
0.70 --undefined-- 36.942
0.71 --undefined-- 35.677
0.72 --undefined-- 39.910
0.73 --undefined-- 43.773
0.74 --undefined-- 46.407
0.75 --undefined-- 48.027
0.76 --undefined-- 49.252
0.77 --undefined-- 55.763
0.78 213.922 63.698
0.79 203.413 68.591
0.80 199.318 70.966
0.81 196.989 71.746
0.82 194.055 71.772
0.83 190.854 71.602
0.84 187.474 71.537
0.85 186.225 71.722
0.86 186.442 71.923
0.87 186.445 71.736
0.88 185.478 71.209
0.89 184.987 70.676
0.90 185.242 70.335
0.91 185.333 70.147
0.92 185.545 69.989
0.93 185.984 69.888
0.94 187.136 69.876
0.95 188.530 69.875
0.96 190.100 69.703
0.97 191.320 69.229
0.98 192.339 68.431
0.99 191.514 67.202
1.00 189.427 65.148
1.01 187.030 61.682
1.02 188.000 56.005
1.03 --undefined-- 48.763
1.04 --undefined-- 44.887
1.05 --undefined-- 42.887
1.06 --undefined-- 41.116
1.07 --undefined-- 40.958
1.08 --undefined-- 41.809
1.09 --undefined-- 44.166
1.10 --undefined-- 53.996
1.11 --undefined-- 62.697
1.12 208.471 67.305
1.13 204.109 68.665
1.14 200.808 67.819
1.15 --undefined-- 65.374
1.16 --undefined-- 60.940
1.17 --undefined-- 54.158
1.18 --undefined-- 48.440
1.19 --undefined-- 49.071
1.20 --undefined-- 52.187
1.21 --undefined-- 59.153
1.22 226.901 64.799
1.23 240.259 68.313
1.24 255.074 70.389
1.25 263.279 71.266
1.26 268.436 71.149
1.27 271.398 70.030
1.28 270.928 67.365
1.29 247.486 62.580
1.30 262.306 55.890
1.31 263.800 49.363
1.32 264.213 46.414
1.33 --undefined-- 46.108
1.34 --undefined-- 52.508
1.35 --undefined-- 60.654
1.36 294.118 66.769
1.37 291.524 69.918
1.38 287.512 70.865
1.39 285.613 70.960
1.40 284.516 70.830
1.41 282.005 70.184
1.42 266.890 69.183
1.43 258.447 69.974
1.44 269.378 72.360
1.45 274.680 74.156
1.46 275.153 75.028
1.47 274.710 75.287
1.48 274.974 75.295
1.49 275.674 75.251
1.50 276.336 75.211
1.51 276.642 75.160
1.52 281.684 74.886
1.53 289.314 74.201
1.54 286.476 73.355
1.55 283.885 72.823
1.56 281.962 72.624
1.57 279.329 72.460
1.58 277.179 72.197
1.59 274.502 71.951
1.60 271.888 71.886
1.61 268.294 71.987
1.62 264.168 72.196
1.63 259.845 72.301
1.64 255.861 72.114
1.65 251.119 71.726
1.66 246.341 71.487
1.67 241.811 71.495
1.68 237.674 71.561
1.69 233.617 71.523
1.70 229.480 71.348
1.71 226.150 71.277
1.72 223.061 71.358
1.73 220.193 71.517
1.74 217.135 71.722
1.75 214.462 71.825
1.76 212.341 71.778
1.77 210.839 71.618
1.78 209.737 71.501
1.79 209.034 71.625
1.80 208.299 71.778
1.81 207.822 71.553
1.82 207.187 70.884
1.83 206.364 70.091
1.84 205.312 69.546
1.85 203.716 69.290
1.86 203.049 69.103
1.87 202.434 68.776
1.88 200.589 68.325
1.89 198.825 68.004
1.90 197.262 67.981
1.91 195.133 68.225
1.92 192.663 68.587
1.93 190.081 68.806
1.94 181.277 68.744
1.95 178.434 69.040
1.96 172.902 69.957
1.97 167.540 70.448
1.98 165.952 70.361
1.99 166.322 70.284
2.00 167.799 70.383
2.01 169.656 70.666
2.02 172.462 71.082
2.03 175.871 71.563
2.04 179.210 72.010
2.05 181.814 72.155
2.06 183.743 72.058
2.07 186.222 71.914
2.08 189.142 71.851
2.09 191.614 71.767
2.10 193.411 71.252
2.11 193.916 70.453
2.12 193.909 69.895
2.13 195.353 69.525
2.14 197.610 68.914
2.15 196.551 68.038
2.16 192.102 67.122
2.17 189.520 66.324
2.18 188.638 65.875
2.19 189.143 66.255
2.20 188.785 67.641
2.21 187.991 69.577
2.22 185.963 71.286
2.23 185.558 72.235
2.24 187.280 72.292
2.25 191.396 71.564
2.26 199.494 70.520
2.27 211.200 69.962
2.28 218.449 69.621
2.29 225.207 69.593
2.30 230.745 70.269
2.31 239.144 70.680
2.32 238.904 70.656
2.33 236.425 70.681
2.34 233.534 70.740
2.35 229.646 70.737
2.36 225.203 70.781
2.37 220.045 71.015
2.38 215.172 71.048
2.39 212.594 69.779
2.40 207.122 66.696
2.41 198.764 62.772
2.42 196.690 58.521
2.43 --undefined-- 52.765
2.44 --undefined-- 46.488
2.45 --undefined-- 43.280
2.46 --undefined-- 41.451
2.47 --undefined-- 40.237
2.48 --undefined-- 52.483
2.49 --undefined-- 63.451
2.50 237.741 69.765
2.51 234.545 72.558
2.52 228.832 73.055
2.53 225.620 72.745
2.54 225.071 72.468
2.55 225.156 72.201
2.56 225.730 71.714
2.57 226.446 70.872
2.58 228.105 70.014
2.59 230.619 69.723
2.60 232.361 70.183
2.61 233.511 70.781
2.62 235.508 71.266
2.63 237.610 71.863
2.64 238.120 72.590
2.65 237.490 73.259
2.66 237.645 73.735
2.67 237.663 73.834
2.68 236.354 73.310
2.69 234.240 71.816
2.70 231.365 68.845
2.71 230.226 64.088
2.72 248.765 59.147
2.73 250.364 57.370
2.74 251.729 56.994
2.75 --undefined-- 57.997
2.76 --undefined-- 60.341
2.77 234.722 65.083
2.78 227.697 68.621
2.79 212.079 70.000
2.80 197.186 70.226
2.81 180.655 70.294
2.82 172.113 70.398
2.83 165.343 70.282
2.84 162.506 70.085
2.85 161.632 70.032
2.86 158.525 70.147
2.87 156.490 70.168
2.88 157.400 70.019
2.89 159.022 69.802
2.90 161.751 69.363
2.91 164.931 68.553
2.92 167.264 67.463
2.93 167.170 66.349
2.94 168.919 65.606
2.95 170.414 65.696
2.96 170.154 66.353
2.97 170.089 67.077
2.98 170.602 67.665
2.99 170.536 68.025
3.00 170.491 68.224
3.01 169.513 68.557
3.02 168.330 69.054
3.03 167.808 69.492
3.04 167.850 69.624
3.05 169.135 69.221
3.06 174.975 68.418
3.07 179.972 67.643
3.08 182.075 66.611
3.09 181.449 64.460
3.10 176.118 60.988
3.11 179.338 56.298
3.12 --undefined-- 50.086
3.13 --undefined-- 44.984
3.14 --undefined-- 50.924
3.15 --undefined-- 60.231
3.16 --undefined-- 66.145
3.17 184.357 69.111
3.18 172.045 70.052
3.19 168.522 70.073
3.20 166.689 70.119
3.21 164.824 70.267
3.22 163.274 70.477
3.23 161.986 70.641
3.24 160.667 70.587
3.25 160.504 70.461
3.26 159.893 70.283
3.27 159.917 70.029
3.28 160.155 69.747
3.29 159.168 69.253
3.30 157.782 68.187
3.31 156.983 66.047
3.32 160.249 62.251
3.33 161.064 56.455
3.34 158.894 50.432
3.35 159.904 48.054
3.36 160.761 47.273
3.37 --undefined-- 47.300
3.38 --undefined-- 48.009
3.39 --undefined-- 48.355
3.40 --undefined-- 48.312
3.41 --undefined-- 48.263
3.42 --undefined-- 48.186
3.43 --undefined-- 47.733
3.44 --undefined-- 47.416
3.45 --undefined-- 48.027
3.46 --undefined-- 48.776
3.47 --undefined-- 48.788
3.48 --undefined-- 49.223
3.49 --undefined-- 50.439
3.50 --undefined-- 50.939
3.51 --undefined-- 50.319
3.52 --undefined-- 49.746
3.53 --undefined-- 50.260
3.54 --undefined-- 49.726
3.55 --undefined-- 46.692
3.56 --undefined-- 42.603
3.57 --undefined-- 41.336
3.58 --undefined-- 41.950
3.59 --undefined-- 47.334
3.60 --undefined-- 53.441
3.61 --undefined-- 58.859
3.62 79.937 63.531
3.63 79.913 67.109
3.64 106.462 69.283
3.65 139.620 70.227
3.66 139.446 70.537
3.67 147.368 70.520
3.68 152.510 70.296
3.69 155.607 70.166
3.70 157.333 70.235
3.71 157.611 70.400
3.72 156.808 70.448
3.73 156.270 70.332
3.74 156.079 70.151
3.75 155.891 70.104
3.76 155.225 70.323
3.77 154.950 70.546
3.78 154.869 70.536
3.79 154.517 70.297
3.80 154.270 70.044
3.81 153.978 69.946
3.82 153.555 69.886
3.83 153.547 69.702
3.84 152.922 69.398
3.85 152.897 69.019
3.86 153.396 68.327
3.87 153.904 66.656
3.88 153.088 63.684
3.89 155.790 59.737
3.90 155.902 54.554
3.91 --undefined-- 48.334
3.92 --undefined-- 45.702
3.93 --undefined-- 52.553
3.94 --undefined-- 61.831
3.95 225.302 67.383
3.96 222.174 69.904
3.97 222.897 70.757
3.98 224.976 71.169
3.99 226.738 71.527
4.00 227.049 71.794
4.01 226.530 71.872
4.02 225.400 71.741
4.03 222.881 71.418
4.04 219.630 70.715
4.05 214.868 69.419
4.06 208.727 67.733
4.07 203.354 66.387
4.08 197.844 65.832
4.09 192.618 66.082
4.10 187.069 67.293
4.11 181.693 69.162
4.12 172.429 70.795
4.13 164.251 71.398
4.14 --undefined-- 70.942
4.15 --undefined-- 69.917
4.16 133.572 68.695
4.17 132.780 67.528
4.18 134.526 66.699
4.19 138.757 66.030
4.20 139.643 65.171
4.21 138.558 64.396
4.22 137.541 64.060
4.23 137.852 64.022
4.24 138.269 64.009
4.25 138.195 64.055
4.26 138.433 64.232
4.27 138.714 64.412
4.28 138.387 64.466
4.29 138.062 64.442
4.30 137.821 64.401
4.31 137.949 64.191
4.32 136.427 63.613
4.33 132.563 63.067
4.34 142.957 63.450
4.35 150.331 64.414
4.36 150.890 65.027
4.37 151.413 65.119
4.38 150.983 64.706
4.39 154.046 63.863
4.40 156.052 62.818
4.41 167.061 63.452
4.42 186.767 66.018
4.43 191.642 67.660
4.44 197.302 67.811
4.45 200.618 66.593
4.46 202.053 63.800
4.47 199.704 59.146
4.48 197.170 52.565
4.49 --undefined-- 45.641
4.50 --undefined-- 42.457
4.51 --undefined-- 42.036
4.52 --undefined-- 43.874
4.53 --undefined-- 51.881
4.54 --undefined-- 60.521
4.55 210.646 65.786
4.56 198.280 68.361
4.57 193.021 69.064
4.58 190.957 68.696
4.59 189.618 67.887
4.60 186.001 67.272
4.61 183.177 67.083
4.62 181.293 67.025
4.63 181.045 66.836
4.64 181.148 66.482
4.65 181.801 66.141
4.66 189.495 66.239
4.67 197.694 66.866
4.68 203.021 68.093
4.69 202.272 69.504
4.70 200.085 70.581
4.71 198.752 71.151
4.72 199.085 71.307
4.73 201.292 71.257
4.74 204.119 71.131
4.75 208.042 70.671
4.76 211.263 69.367
4.77 212.231 66.937
4.78 209.959 63.578
4.79 198.727 60.161
4.80 197.844 57.774
4.81 196.670 57.106
4.82 195.924 58.867
4.83 191.918 62.274
4.84 194.546 65.443
4.85 188.448 67.618
4.86 178.622 68.777
4.87 166.386 69.300
4.88 157.037 69.493
4.89 151.395 69.436
4.90 148.239 69.028
4.91 147.980 68.303
4.92 149.889 67.760
4.93 153.125 67.741
4.94 156.521 67.869
4.95 159.907 67.858
4.96 164.652 67.766
4.97 170.819 67.602
4.98 177.007 67.406
4.99 183.635 67.649
5.00 188.699 68.521
5.01 192.790 69.534
5.02 197.329 70.574
5.03 200.488 71.525
5.04 199.398 71.918
5.05 197.648 72.104
5.06 196.551 72.361
5.07 194.607 72.355
5.08 192.883 72.158
5.09 189.648 --undefined--
5.10 187.213 --undefined--
5.11 --undefined-- --undefined--
5.12 --undefined-- --undefined--
