Time Pitch Intensity
0.01 --undefined-- --undefined--
0.02 104.959 --undefined--
0.03 115.177 --undefined--
0.04 --undefined-- --undefined--
0.05 --undefined-- 50.375
0.06 --undefined-- 55.261
0.07 --undefined-- 60.165
0.08 --undefined-- 66.309
0.09 178.437 70.864
0.10 175.075 73.302
0.11 172.573 74.211
0.12 173.039 74.141
0.13 174.215 73.495
0.14 175.719 72.721
0.15 175.858 72.068
0.16 176.593 71.437
0.17 173.350 70.149
0.18 165.331 67.580
0.19 154.768 63.603
0.20 156.531 59.084
0.21 148.045 58.633
0.22 --undefined-- 63.220
0.23 --undefined-- 68.567
0.24 184.748 72.546
0.25 178.891 74.776
0.26 173.236 75.826
0.27 170.840 76.238
0.28 170.254 76.404
0.29 169.674 76.392
0.30 168.875 76.066
0.31 168.281 75.486
0.32 167.584 74.951
0.33 166.588 74.616
0.34 165.771 74.259
0.35 163.803 73.549
0.36 165.238 72.704
0.37 165.477 72.201
0.38 162.825 71.453
0.39 157.069 69.431
0.40 146.588 65.594
0.41 141.788 60.041
0.42 --undefined-- 54.672
0.43 --undefined-- 53.485
0.44 --undefined-- 54.694
0.45 --undefined-- 55.110
0.46 --undefined-- 57.366
0.47 --undefined-- 64.250
0.48 156.478 69.193
0.49 147.952 71.455
0.50 132.068 72.062
0.51 127.244 72.277
0.52 125.345 72.434
0.53 122.677 72.190
0.54 120.161 71.488
0.55 119.316 70.656
0.56 120.082 69.923
0.57 122.440 69.100
0.58 121.372 68.132
0.59 116.383 67.195
0.60 112.818 65.660
0.61 106.823 62.637
0.62 98.866 58.644
0.63 93.187 56.512
0.64 98.319 57.861
0.65 100.953 60.594
0.66 102.941 62.459
0.67 104.465 62.977
0.68 101.683 62.475
0.69 101.593 60.915
0.70 94.066 58.324
0.71 --undefined-- 57.181
0.72 116.881 58.438
0.73 112.293 60.273
0.74 111.635 61.678
0.75 111.416 61.980
0.76 108.026 60.927
0.77 102.371 59.484
0.78 116.753 61.040
0.79 130.520 64.741
0.80 132.532 67.901
0.81 129.924 69.863
0.82 129.352 70.897
0.83 129.096 71.361
0.84 128.927 71.038
0.85 127.472 69.303
0.86 113.207 65.414
0.87 105.802 59.073
0.88 --undefined-- 51.449
0.89 --undefined-- 47.807
0.90 --undefined-- 52.558
0.91 --undefined-- 56.629
0.92 --undefined-- 58.110
0.93 --undefined-- 57.553
0.94 --undefined-- 57.128
0.95 --undefined-- 58.054
0.96 --undefined-- 59.096
0.97 --undefined-- 60.973
0.98 --undefined-- 62.289
0.99 131.314 62.774
1.00 131.886 64.689
1.01 128.574 66.572
1.02 122.131 67.381
1.03 123.478 67.672
1.04 125.111 68.098
1.05 128.114 69.008
1.06 131.568 70.352
1.07 135.816 71.709
1.08 139.952 72.627
1.09 144.952 73.080
1.10 148.433 73.435
1.11 149.609 73.368
1.12 153.598 72.188
1.13 153.210 70.053
1.14 146.578 68.072
1.15 141.278 66.731
1.16 136.138 65.767
1.17 131.508 65.320
1.18 122.961 65.462
1.19 121.632 65.981
1.20 122.156 66.566
1.21 119.139 67.103
1.22 118.815 67.777
1.23 119.565 68.647
1.24 122.707 69.497
1.25 124.714 70.144
1.26 125.599 70.555
1.27 127.865 70.759
1.28 129.973 70.827
1.29 132.016 70.979
1.30 133.727 71.330
1.31 134.577 71.637
1.32 137.941 71.585
1.33 138.709 71.082
1.34 139.094 70.102
1.35 140.328 68.339
1.36 140.756 65.263
1.37 145.798 60.484
1.38 --undefined-- 53.840
1.39 --undefined-- 45.713
1.40 --undefined-- 41.074
1.41 --undefined-- 40.143
1.42 --undefined-- 38.379
1.43 --undefined-- 37.359
1.44 --undefined-- 36.817
1.45 --undefined-- 36.660
1.46 --undefined-- 38.146
1.47 --undefined-- 38.991
1.48 --undefined-- 37.460
1.49 --undefined-- 35.139
1.50 --undefined-- 34.912
1.51 --undefined-- 34.835
1.52 --undefined-- 34.269
1.53 --undefined-- 34.181
1.54 --undefined-- 33.875
1.55 --undefined-- 33.925
1.56 --undefined-- 34.633
1.57 --undefined-- 35.639
1.58 --undefined-- 36.246
1.59 --undefined-- 36.118
1.60 --undefined-- 35.627
1.61 --undefined-- 36.013
1.62 --undefined-- 35.892
1.63 --undefined-- 35.533
1.64 --undefined-- 36.046
1.65 --undefined-- 37.611
1.66 --undefined-- 40.681
1.67 --undefined-- 41.649
1.68 --undefined-- 39.202
1.69 --undefined-- 35.135
1.70 --undefined-- 34.147
1.71 --undefined-- 35.567
1.72 --undefined-- 43.868
1.73 --undefined-- 54.337
1.74 --undefined-- 60.330
1.75 --undefined-- 62.183
1.76 --undefined-- 61.278
1.77 --undefined-- 63.857
1.78 189.488 69.524
1.79 183.687 73.300
1.80 172.061 75.149
1.81 168.752 75.816
1.82 170.127 75.703
1.83 181.155 75.334
1.84 183.273 75.369
1.85 182.606 75.672
1.86 178.850 76.115
1.87 176.615 76.498
1.88 176.010 76.641
1.89 177.207 76.654
1.90 181.989 76.634
1.91 189.636 76.514
1.92 200.948 76.355
1.93 214.616 76.495
1.94 223.579 76.940
1.95 224.763 77.069
1.96 219.866 76.318
1.97 217.965 75.133
1.98 220.002 74.519
1.99 221.410 74.060
2.00 218.675 73.045
2.01 211.795 72.273
2.02 208.311 72.177
2.03 203.682 71.925
2.04 198.168 71.597
2.05 191.754 71.515
2.06 185.270 71.677
2.07 180.434 72.432
2.08 157.073 74.475
2.09 155.176 76.533
2.10 152.636 77.344
2.11 147.795 77.086
2.12 143.694 76.358
2.13 139.455 75.561
2.14 135.677 75.136
2.15 133.256 75.223
2.16 132.302 75.509
2.17 131.360 75.777
2.18 131.043 75.921
2.19 131.653 75.795
2.20 132.712 75.223
2.21 133.258 74.108
2.22 133.479 72.605
2.23 133.526 71.051
2.24 133.891 69.926
2.25 134.114 69.490
2.26 134.656 69.257
2.27 134.156 68.487
2.28 131.549 66.728
2.29 133.925 63.860
2.30 142.964 59.752
2.31 --undefined-- 53.470
2.32 --undefined-- 44.440
2.33 --undefined-- 37.854
2.34 --undefined-- 37.215
2.35 --undefined-- 39.081
2.36 --undefined-- 42.798
2.37 --undefined-- 47.669
2.38 --undefined-- 50.849
2.39 --undefined-- 50.920
2.40 --undefined-- 48.199
2.41 --undefined-- 45.456
2.42 --undefined-- 44.924
2.43 --undefined-- 45.214
2.44 --undefined-- 46.133
2.45 --undefined-- 48.920
2.46 --undefined-- 55.374
2.47 --undefined-- 62.231
2.48 --undefined-- 67.961
2.49 194.427 72.439
2.50 184.885 75.306
2.51 182.861 76.888
2.52 183.046 77.610
2.53 181.986 77.529
2.54 181.853 76.712
2.55 180.709 75.625
2.56 178.319 74.892
2.57 177.774 74.176
2.58 182.117 73.703
2.59 178.354 73.819
2.60 178.721 73.345
2.61 183.443 71.921
2.62 181.529 69.954
2.63 162.721 67.255
2.64 149.969 63.489
2.65 145.886 59.398
2.66 --undefined-- 59.315
2.67 --undefined-- 62.115
2.68 --undefined-- 63.883
2.69 --undefined-- 63.834
2.70 --undefined-- 61.891
2.71 --undefined-- 58.813
2.72 --undefined-- 59.623
2.73 168.603 66.098
2.74 159.366 70.242
2.75 145.386 71.654
2.76 136.919 71.550
2.77 131.233 71.229
2.78 128.873 70.827
2.79 128.549 70.330
2.80 127.544 70.183
2.81 126.222 70.318
2.82 124.813 70.415
2.83 124.739 70.536
2.84 124.506 70.729
2.85 125.044 70.722
2.86 125.037 70.000
2.87 120.451 68.286
2.88 124.003 66.710
2.89 122.123 66.384
2.90 118.963 66.422
2.91 117.600 66.468
2.92 116.994 66.618
2.93 118.518 67.493
2.94 122.300 69.181
2.95 125.182 70.566
2.96 124.395 70.994
2.97 124.034 70.460
2.98 123.635 69.492
2.99 119.675 69.107
3.00 119.042 69.677
3.01 119.967 70.531
3.02 121.640 71.116
3.03 122.820 71.330
3.04 123.405 71.296
3.05 123.987 71.113
3.06 126.323 70.785
3.07 127.918 70.224
3.08 127.990 69.272
3.09 126.250 67.690
3.10 117.951 65.037
3.11 111.463 61.000
3.12 --undefined-- 55.642
3.13 --undefined-- 50.147
3.14 --undefined-- 48.948
3.15 --undefined-- 54.196
3.16 --undefined-- 62.899
3.17 174.240 68.871
3.18 162.120 72.168
3.19 154.900 73.864
3.20 147.573 74.732
3.21 144.481 75.013
3.22 143.698 74.907
3.23 143.272 74.391
3.24 143.141 73.354
3.25 143.512 72.587
3.26 144.815 72.205
3.27 142.701 71.478
3.28 140.020 70.070
3.29 139.913 67.468
3.30 138.086 63.874
3.31 132.931 60.815
3.32 132.763 59.819
3.33 132.951 62.139
3.34 137.993 65.858
3.35 140.247 68.782
3.36 141.502 69.968
3.37 140.296 68.835
3.38 120.354 65.121
3.39 112.293 59.571
3.40 --undefined-- 53.782
3.41 --undefined-- 47.267
3.42 --undefined-- 41.135
3.43 --undefined-- 39.014
3.44 --undefined-- 39.471
3.45 --undefined-- 40.365
3.46 --undefined-- 40.220
3.47 --undefined-- 44.403
3.48 --undefined-- 52.335
3.49 --undefined-- 58.130
3.50 --undefined-- 63.787
3.51 178.770 68.419
3.52 162.350 71.226
3.53 159.182 72.656
3.54 155.335 73.096
3.55 154.312 73.153
3.56 153.920 73.238
3.57 153.415 73.223
3.58 153.164 73.022
3.59 152.859 72.663
3.60 152.988 72.324
3.61 151.783 71.950
3.62 148.953 70.724
3.63 143.417 67.572
3.64 123.352 61.939
3.65 119.292 54.518
3.66 --undefined-- 47.224
3.67 --undefined-- 42.810
3.68 --undefined-- 43.443
3.69 --undefined-- 46.175
3.70 --undefined-- 50.593
3.71 --undefined-- 55.024
3.72 --undefined-- 62.236
3.73 177.858 68.692
3.74 173.067 72.327
3.75 164.494 74.183
3.76 160.476 75.661
3.77 159.513 76.568
3.78 158.459 76.093
3.79 153.855 74.120
3.80 151.686 71.504
3.81 149.695 69.676
3.82 149.744 68.419
3.83 146.967 67.537
3.84 146.054 67.452
3.85 143.842 67.996
3.86 142.283 69.384
3.87 141.215 70.831
3.88 139.497 71.309
3.89 135.050 70.365
3.90 129.892 67.691
3.91 109.718 63.479
3.92 104.115 58.884
3.93 94.069 54.190
3.94 --undefined-- 49.340
3.95 --undefined-- 47.513
3.96 --undefined-- 49.640
3.97 --undefined-- 50.713
3.98 --undefined-- 50.709
3.99 --undefined-- 50.578
4.00 --undefined-- 50.307
4.01 --undefined-- 49.886
4.02 --undefined-- 50.387
4.03 --undefined-- 52.625
4.04 --undefined-- 53.702
4.05 --undefined-- 53.494
4.06 --undefined-- 53.521
4.07 --undefined-- 52.653
4.08 --undefined-- 52.901
4.09 --undefined-- 57.125
4.10 --undefined-- 60.400
4.11 119.841 61.866
4.12 115.110 62.385
4.13 114.750 62.647
4.14 114.957 62.774
4.15 113.169 62.388
4.16 108.000 60.753
4.17 98.791 57.336
4.18 --undefined-- 52.336
4.19 --undefined-- 47.305
4.20 --undefined-- 45.508
4.21 --undefined-- 53.807
4.22 --undefined-- 59.422
4.23 --undefined-- 62.362
4.24 --undefined-- 66.015
4.25 147.586 69.447
4.26 144.250 71.175
4.27 140.807 71.757
4.28 140.258 72.229
4.29 140.382 72.793
4.30 141.275 73.207
4.31 142.892 73.387
4.32 144.244 73.123
4.33 145.129 72.376
4.34 145.691 71.286
4.35 141.623 70.471
4.36 144.322 70.987
4.37 144.045 71.658
4.38 141.429 71.654
4.39 134.292 71.432
4.40 129.258 70.955
4.41 121.559 69.330
4.42 112.228 66.620
4.43 102.429 64.125
4.44 106.173 63.055
4.45 114.640 63.302
4.46 124.313 64.734
4.47 122.886 66.542
4.48 122.184 68.017
4.49 121.297 69.079
4.50 120.058 69.598
4.51 120.320 69.475
4.52 121.837 69.126
4.53 122.989 69.265
4.54 125.524 70.064
4.55 129.195 70.692
4.56 129.512 70.784
4.57 128.531 70.444
4.58 127.413 69.461
4.59 124.988 67.316
4.60 116.987 63.377
4.61 111.264 57.714
4.62 --undefined-- 51.328
4.63 --undefined-- 48.222
4.64 --undefined-- 52.153
4.65 180.684 60.529
4.66 170.767 66.965
4.67 159.415 70.731
4.68 148.827 72.660
4.69 146.004 73.573
4.70 142.567 74.163
4.71 140.848 74.483
4.72 141.481 74.595
4.73 142.499 74.713
4.74 142.793 74.681
4.75 143.499 74.098
4.76 145.639 73.404
4.77 143.405 73.106
4.78 149.827 72.513
4.79 148.915 71.639
4.80 148.659 71.063
4.81 148.441 70.663
4.82 149.185 70.178
4.83 150.426 69.502
4.84 150.356 68.640
4.85 149.043 67.477
4.86 147.990 65.910
4.87 142.702 63.590
4.88 --undefined-- 59.902
4.89 --undefined-- 54.748
4.90 265.444 51.185
4.91 --undefined-- 48.271
4.92 --undefined-- 43.144
4.93 --undefined-- 37.266
4.94 --undefined-- 34.255
4.95 --undefined-- 32.659
4.96 --undefined-- 33.195
4.97 --undefined-- 34.405
4.98 --undefined-- 35.113
4.99 --undefined-- 35.240
5.00 --undefined-- 34.951
5.01 --undefined-- 35.574
5.02 --undefined-- 36.121
5.03 --undefined-- 34.791
5.04 --undefined-- 33.368
5.05 --undefined-- 32.649
5.06 --undefined-- 32.662
5.07 --undefined-- 34.429
5.08 --undefined-- 36.303
5.09 --undefined-- 38.033
5.10 --undefined-- 38.623
5.11 --undefined-- 37.757
5.12 --undefined-- 37.062
5.13 --undefined-- 37.419
5.14 --undefined-- 38.160
5.15 --undefined-- 39.397
5.16 --undefined-- 39.976
5.17 --undefined-- 39.151
5.18 --undefined-- 38.515
5.19 --undefined-- 38.849
5.20 --undefined-- 38.605
5.21 --undefined-- 38.456
5.22 --undefined-- 39.192
5.23 --undefined-- 39.539
5.24 --undefined-- 39.290
5.25 --undefined-- 39.035
5.26 --undefined-- 39.187
5.27 --undefined-- 40.149
5.28 --undefined-- 40.743
5.29 --undefined-- 40.223
5.30 --undefined-- 39.875
5.31 --undefined-- 40.080
5.32 --undefined-- 39.579
5.33 --undefined-- 38.620
5.34 --undefined-- 38.153
5.35 --undefined-- 38.195
5.36 --undefined-- 38.377
5.37 --undefined-- 38.253
5.38 --undefined-- 36.877
5.39 --undefined-- 35.254
5.40 --undefined-- 35.252
5.41 --undefined-- 35.417
5.42 --undefined-- 35.416
5.43 --undefined-- 35.650
5.44 --undefined-- 37.183
5.45 --undefined-- 47.837
5.46 --undefined-- 57.285
5.47 167.699 63.015
5.48 134.506 66.187
5.49 133.622 67.944
5.50 134.039 69.242
5.51 135.264 70.526
5.52 137.729 71.733
5.53 144.034 72.841
5.54 145.556 73.793
5.55 150.311 74.386
5.56 152.380 74.604
5.57 153.612 74.665
5.58 155.611 74.754
5.59 157.180 74.841
5.60 157.642 74.868
5.61 157.915 74.740
5.62 157.357 74.245
5.63 153.842 73.006
5.64 145.612 70.501
5.65 135.551 66.647
5.66 121.251 61.887
5.67 --undefined-- 58.245
5.68 --undefined-- 59.486
5.69 --undefined-- 62.686
5.70 --undefined-- 64.296
5.71 --undefined-- 63.913
5.72 --undefined-- 61.925
5.73 --undefined-- 59.137
5.74 --undefined-- 58.176
5.75 --undefined-- 62.348
5.76 145.591 67.210
5.77 153.222 70.405
5.78 154.399 72.389
5.79 147.429 73.843
5.80 141.459 74.740
5.81 138.431 74.967
5.82 138.101 74.793
5.83 137.441 74.261
5.84 137.635 73.821
5.85 138.242 74.231
5.86 139.031 74.770
5.87 140.458 74.500
5.88 144.062 73.835
5.89 143.667 73.625
5.90 143.040 --undefined--
5.91 141.480 --undefined--
5.92 --undefined-- --undefined--
5.93 --undefined-- --undefined--
