Time Pitch Intensity
0.01 --undefined-- --undefined--
0.02 116.582 --undefined--
0.03 116.708 --undefined--
0.04 117.584 --undefined--
0.05 118.918 67.109
0.06 119.744 66.593
0.07 125.393 65.895
0.08 129.983 65.525
0.09 128.581 65.290
0.10 123.749 64.500
0.11 119.048 62.863
0.12 115.238 60.423
0.13 110.058 57.584
0.14 110.827 56.050
0.15 111.907 57.473
0.16 112.489 60.229
0.17 116.268 62.646
0.18 117.254 64.115
0.19 118.409 64.790
0.20 118.014 64.949
0.21 117.743 64.602
0.22 126.690 65.030
0.23 131.250 66.708
0.24 136.230 68.373
0.25 142.956 69.940
0.26 147.794 71.132
0.27 153.489 71.837
0.28 159.553 71.943
0.29 163.313 71.297
0.30 160.386 70.361
0.31 159.756 69.685
0.32 159.404 69.259
0.33 157.270 69.046
0.34 153.373 69.079
0.35 150.275 69.047
0.36 144.281 68.479
0.37 142.698 67.399
0.38 143.560 66.585
0.39 144.001 66.766
0.40 141.471 67.635
0.41 139.051 68.335
0.42 136.594 68.435
0.43 128.809 67.987
0.44 124.418 67.600
0.45 122.650 67.875
0.46 122.100 68.421
0.47 123.802 68.734
0.48 127.871 68.805
0.49 132.253 68.730
0.50 137.131 68.199
0.51 140.815 66.932
0.52 140.153 64.818
0.53 139.351 61.289
0.54 142.071 56.198
0.55 141.570 51.109
0.56 139.562 47.924
0.57 --undefined-- 45.577
0.58 --undefined-- 43.250
0.59 --undefined-- 40.580
0.60 --undefined-- 38.644
0.61 --undefined-- 37.774
0.62 --undefined-- 37.760
0.63 --undefined-- 38.079
0.64 --undefined-- 38.152
0.65 --undefined-- 38.769
0.66 --undefined-- 38.500
0.67 --undefined-- 36.958
0.68 --undefined-- 36.035
0.69 --undefined-- 36.185
0.70 --undefined-- 36.467
0.71 --undefined-- 36.297
0.72 --undefined-- 36.147
0.73 --undefined-- 36.366
0.74 --undefined-- 36.705
0.75 --undefined-- 37.171
0.76 --undefined-- 37.711
0.77 --undefined-- 39.942
0.78 --undefined-- 44.101
0.79 --undefined-- 45.608
0.80 --undefined-- 43.413
0.81 --undefined-- 39.263
0.82 --undefined-- 37.808
0.83 --undefined-- 37.622
0.84 --undefined-- 36.611
0.85 --undefined-- 34.680
0.86 --undefined-- 33.020
0.87 --undefined-- 31.369
0.88 --undefined-- 29.619
0.89 --undefined-- 29.125
0.90 --undefined-- 29.004
0.91 --undefined-- 29.487
0.92 --undefined-- 39.364
0.93 --undefined-- 50.367
0.94 --undefined-- 57.261
0.95 157.364 61.566
0.96 165.834 64.815
0.97 169.752 67.241
0.98 174.496 68.386
0.99 181.732 68.154
1.00 197.997 67.598
1.01 208.002 68.377
1.02 217.728 69.839
1.03 223.744 70.858
1.04 231.110 71.086
1.05 236.082 70.772
1.06 245.146 70.208
1.07 242.752 70.024
1.08 238.983 70.310
1.09 235.771 70.209
1.10 232.148 69.728
1.11 228.045 69.292
1.12 223.228 68.851
1.13 218.061 68.247
1.14 211.617 67.287
1.15 200.461 65.851
1.16 191.125 63.828
1.17 171.854 61.776
1.18 171.149 60.485
1.19 169.396 59.155
1.20 165.506 59.126
1.21 167.647 61.961
1.22 156.349 64.885
1.23 153.479 66.881
1.24 139.830 67.645
1.25 133.510 67.573
1.26 133.445 67.389
1.27 134.709 67.138
1.28 135.491 66.628
1.29 137.046 65.818
1.30 139.217 64.765
1.31 143.733 63.220
1.32 146.855 60.994
1.33 148.968 59.059
1.34 151.006 58.927
1.35 155.602 60.163
1.36 161.296 61.621
1.37 159.308 63.125
1.38 151.029 64.487
1.39 135.978 65.316
1.40 127.082 65.522
1.41 121.009 65.387
1.42 118.570 65.090
1.43 117.605 64.624
1.44 117.540 64.218
1.45 116.705 64.141
1.46 115.833 64.500
1.47 116.042 64.862
1.48 116.556 64.672
1.49 118.107 64.099
1.50 123.241 64.049
1.51 124.511 64.322
1.52 127.694 64.148
1.53 133.080 64.231
1.54 136.151 64.871
1.55 143.074 65.543
1.56 150.924 66.194
1.57 158.347 66.541
1.58 163.350 66.261
1.59 168.333 65.229
1.60 171.758 63.508
1.61 171.674 61.172
1.62 170.303 57.895
1.63 174.641 53.800
1.64 171.098 49.949
1.65 --undefined-- 46.546
1.66 --undefined-- 43.413
1.67 --undefined-- 42.063
1.68 --undefined-- 42.391
1.69 --undefined-- 43.093
1.70 --undefined-- 48.118
1.71 --undefined-- 58.238
1.72 --undefined-- 65.175
1.73 --undefined-- 68.689
1.74 --undefined-- 69.440
1.75 --undefined-- 68.192
1.76 --undefined-- 66.345
1.77 105.043 65.172
1.78 100.014 64.385
1.79 92.961 63.357
1.80 90.007 62.425
1.81 85.669 62.193
1.82 82.452 62.090
1.83 79.514 61.432
1.84 77.710 60.094
1.85 77.828 58.535
1.86 80.441 58.013
1.87 87.310 58.492
1.88 89.212 59.172
1.89 86.908 59.605
1.90 84.676 59.692
1.91 85.684 59.738
1.92 86.550 59.726
1.93 87.130 59.693
1.94 87.520 59.856
1.95 90.148 60.028
1.96 91.938 59.975
1.97 95.672 60.095
1.98 101.761 60.701
1.99 105.347 61.518
2.00 105.520 62.156
2.01 105.812 62.337
2.02 104.350 62.117
2.03 104.098 61.778
2.04 100.810 61.695
2.05 96.609 61.316
2.06 109.992 59.933
2.07 110.189 58.031
2.08 104.288 55.810
2.09 98.712 52.537
2.10 --undefined-- 48.537
2.11 --undefined-- 45.718
2.12 --undefined-- 43.666
2.13 --undefined-- 40.652
2.14 --undefined-- 37.250
2.15 --undefined-- 34.724
2.16 --undefined-- 32.974
2.17 --undefined-- 33.403
2.18 --undefined-- 35.206
2.19 --undefined-- 36.980
2.20 --undefined-- 38.407
2.21 --undefined-- 39.492
2.22 --undefined-- 40.444
2.23 --undefined-- 41.377
2.24 --undefined-- 41.763
2.25 --undefined-- 41.355
2.26 --undefined-- 41.314
2.27 --undefined-- 41.688
2.28 --undefined-- 42.390
2.29 --undefined-- 43.188
2.30 --undefined-- 43.487
2.31 --undefined-- 43.054
2.32 --undefined-- 41.655
2.33 --undefined-- 40.323
2.34 --undefined-- 39.868
2.35 --undefined-- 39.147
2.36 --undefined-- 36.115
2.37 --undefined-- 30.710
2.38 --undefined-- 28.432
2.39 --undefined-- 29.084
2.40 --undefined-- 29.172
2.41 --undefined-- 29.654
2.42 --undefined-- 30.366
2.43 --undefined-- 30.051
2.44 --undefined-- 29.452
2.45 --undefined-- 30.504
2.46 --undefined-- 32.481
2.47 --undefined-- 34.001
2.48 --undefined-- 35.181
2.49 --undefined-- 36.671
2.50 --undefined-- 38.373
2.51 --undefined-- 39.598
2.52 --undefined-- 40.998
2.53 --undefined-- 49.769
2.54 --undefined-- 59.628
2.55 243.568 65.871
2.56 230.245 69.528
2.57 232.229 71.627
2.58 235.182 72.656
2.59 235.431 72.745
2.60 232.430 71.703
2.61 223.109 69.221
2.62 214.536 65.278
2.63 224.582 60.144
2.64 234.065 54.454
2.65 225.938 50.550
2.66 225.458 53.356
2.67 244.821 60.586
2.68 219.050 65.350
2.69 200.976 67.250
2.70 187.319 67.194
2.71 182.064 66.784
2.72 179.990 67.183
2.73 180.407 67.799
2.74 185.053 68.036
2.75 190.586 68.580
2.76 193.774 69.170
2.77 193.840 68.271
2.78 190.726 65.249
2.79 191.934 60.460
2.80 193.571 55.433
2.81 193.283 57.273
2.82 206.515 62.904
2.83 200.086 66.031
2.84 188.606 67.240
2.85 168.405 68.022
2.86 162.703 68.384
2.87 148.870 67.421
2.88 134.229 65.568
2.89 122.283 63.925
2.90 121.790 62.804
2.91 118.819 62.061
2.92 115.194 61.627
2.93 113.833 62.224
2.94 115.117 63.577
2.95 116.406 64.449
2.96 119.254 64.635
2.97 123.314 64.640
2.98 127.307 65.204
2.99 131.232 66.466
3.00 133.685 67.749
3.01 137.408 68.548
3.02 140.130 68.972
3.03 141.740 69.149
3.04 142.520 69.112
3.05 142.672 69.133
3.06 141.948 68.996
3.07 139.925 68.529
3.08 136.328 68.000
3.09 131.819 67.797
3.10 126.558 67.938
3.11 121.658 67.604
3.12 116.344 66.635
3.13 --undefined-- 65.177
3.14 --undefined-- 62.723
3.15 --undefined-- 59.045
3.16 --undefined-- 55.388
3.17 --undefined-- 52.215
3.18 --undefined-- 48.329
3.19 --undefined-- 44.895
3.20 --undefined-- 45.543
3.21 --undefined-- 49.043
3.22 --undefined-- 50.026
3.23 --undefined-- 49.157
3.24 --undefined-- 49.683
3.25 --undefined-- 50.865
3.26 --undefined-- 51.095
3.27 --undefined-- 53.987
3.28 --undefined-- 61.975
3.29 192.674 67.538
3.30 186.566 70.075
3.31 173.692 70.657
3.32 170.415 70.457
3.33 168.503 70.089
3.34 167.983 69.810
3.35 167.418 69.700
3.36 166.753 69.502
3.37 166.666 69.026
3.38 167.049 68.209
3.39 170.570 67.695
3.40 175.740 68.092
3.41 174.857 68.721
3.42 177.302 69.096
3.43 176.755 69.292
3.44 173.217 69.595
3.45 163.968 69.848
3.46 156.038 69.819
3.47 150.666 69.831
3.48 146.112 69.895
3.49 142.749 69.850
3.50 138.999 69.325
3.51 136.221 67.885
3.52 137.693 65.535
3.53 139.045 62.343
3.54 140.692 58.048
3.55 --undefined-- 53.350
3.56 --undefined-- 50.804
3.57 --undefined-- 49.636
3.58 --undefined-- 48.123
3.59 --undefined-- 46.606
3.60 --undefined-- 48.294
3.61 --undefined-- 54.110
3.62 118.898 58.533
3.63 110.768 61.070
3.64 107.306 62.340
3.65 102.715 62.594
3.66 98.100 62.047
3.67 94.278 60.829
3.68 92.947 58.888
3.69 86.890 56.365
3.70 85.245 53.265
3.71 86.211 49.670
3.72 --undefined-- 46.400
3.73 --undefined-- 46.318
3.74 --undefined-- 52.782
3.75 --undefined-- 58.851
3.76 130.587 62.668
3.77 130.170 64.701
3.78 124.843 65.284
3.79 122.563 65.084
3.80 120.152 65.248
3.81 119.667 65.753
3.82 118.833 65.947
3.83 118.365 65.717
3.84 118.204 65.226
3.85 119.092 64.613
3.86 120.737 63.697
3.87 127.283 63.215
3.88 129.220 64.212
3.89 133.807 65.725
3.90 138.839 66.834
3.91 144.882 67.511
3.92 149.175 67.964
3.93 151.515 68.311
3.94 156.292 68.788
3.95 155.236 69.583
3.96 151.197 70.323
3.97 149.518 70.536
3.98 147.098 70.148
3.99 142.543 69.269
4.00 136.545 68.197
4.01 131.632 67.339
4.02 128.908 66.482
4.03 123.946 64.661
4.04 121.145 61.656
4.05 123.729 57.943
4.06 122.658 54.678
4.07 128.618 55.898
4.08 144.170 59.559
4.09 141.226 61.907
4.10 136.761 62.781
4.11 132.636 62.820
4.12 127.356 62.586
4.13 115.330 62.419
4.14 102.600 62.413
4.15 95.385 62.345
4.16 85.885 61.768
4.17 83.506 61.282
4.18 89.313 61.481
4.19 91.050 61.663
4.20 94.099 61.088
4.21 101.849 60.440
4.22 106.458 61.351
4.23 110.424 63.002
4.24 113.386 64.347
4.25 114.396 65.357
4.26 112.463 66.023
4.27 110.996 66.237
4.28 111.078 65.996
4.29 113.227 65.471
4.30 115.726 64.774
4.31 116.938 63.581
4.32 114.136 61.372
4.33 111.985 57.932
4.34 110.724 53.885
4.35 140.389 50.310
4.36 142.219 48.027
4.37 --undefined-- 45.521
4.38 --undefined-- 43.973
4.39 --undefined-- 45.250
4.40 --undefined-- 50.139
4.41 --undefined-- 56.210
4.42 --undefined-- 60.142
4.43 --undefined-- 62.319
4.44 --undefined-- 63.645
4.45 104.305 64.647
4.46 102.717 65.603
4.47 102.526 66.579
4.48 102.121 67.255
4.49 102.363 67.678
4.50 103.914 68.039
4.51 106.090 68.131
4.52 108.055 67.566
4.53 110.365 66.548
4.54 114.514 66.093
4.55 118.258 66.213
4.56 116.676 65.953
4.57 113.874 64.778
4.58 100.667 62.146
4.59 --undefined-- 58.053
4.60 --undefined-- 53.180
4.61 --undefined-- 48.229
4.62 --undefined-- 47.699
4.63 --undefined-- 54.288
4.64 --undefined-- 59.725
4.65 --undefined-- 63.630
4.66 --undefined-- 66.833
4.67 187.491 69.241
4.68 188.563 70.817
4.69 194.846 71.748
4.70 203.821 72.004
4.71 207.273 71.502
4.72 208.409 70.086
4.73 208.183 67.111
4.74 205.494 62.757
4.75 205.627 58.284
4.76 208.002 54.150
4.77 206.843 51.139
4.78 206.540 49.358
4.79 --undefined-- 46.812
4.80 --undefined-- 42.784
4.81 --undefined-- 44.013
4.82 --undefined-- 55.454
4.83 --undefined-- 64.092
4.84 --undefined-- 69.133
4.85 164.319 71.568
4.86 162.492 72.318
4.87 156.830 72.286
4.88 152.529 71.943
4.89 147.827 71.881
4.90 147.497 72.278
4.91 149.780 72.334
4.92 157.999 72.166
4.93 165.997 72.562
4.94 171.936 73.129
4.95 177.768 72.638
4.96 188.499 70.703
4.97 201.774 69.151
4.98 214.577 69.184
4.99 219.594 69.134
5.00 220.870 68.026
5.01 218.641 65.808
5.02 211.482 62.654
5.03 205.565 58.085
5.04 207.579 52.285
5.05 212.461 48.608
5.06 --undefined-- 47.011
5.07 --undefined-- 45.947
5.08 --undefined-- 45.260
5.09 --undefined-- 47.076
5.10 --undefined-- 57.929
5.11 252.311 66.208
5.12 244.162 70.708
5.13 235.285 72.445
5.14 229.042 72.757
5.15 223.321 72.707
5.16 218.434 72.480
5.17 214.677 72.216
5.18 212.222 71.857
5.19 209.729 71.185
5.20 207.386 70.317
5.21 205.330 69.663
5.22 204.173 69.618
5.23 203.466 69.553
5.24 203.052 69.020
5.25 202.418 68.422
5.26 201.994 68.095
5.27 203.993 67.905
5.28 205.522 67.851
5.29 203.601 68.248
5.30 202.115 69.097
5.31 204.050 69.921
5.32 204.383 70.132
5.33 201.537 69.428
5.34 194.078 67.621
5.35 186.704 64.538
5.36 185.386 60.858
5.37 179.274 59.422
5.38 175.886 61.031
5.39 173.066 64.080
5.40 168.126 67.483
5.41 161.697 69.818
5.42 157.230 71.000
5.43 150.078 71.494
5.44 146.927 71.584
5.45 146.048 71.505
5.46 146.139 71.203
5.47 149.205 70.974
5.48 152.239 71.104
5.49 153.270 70.624
5.50 151.966 68.428
5.51 159.969 64.925
5.52 167.573 61.847
5.53 167.595 59.583
5.54 165.408 57.925
5.55 182.122 57.764
5.56 187.127 60.691
5.57 186.835 64.630
5.58 185.318 67.440
5.59 183.459 68.711
5.60 182.742 68.604
5.61 183.689 67.218
5.62 177.020 64.515
5.63 172.019 60.647
5.64 178.883 56.353
5.65 183.429 --undefined--
5.66 183.816 --undefined--
5.67 --undefined-- --undefined--
5.68 --undefined-- --undefined--
