Time Pitch Intensity
0.01 --undefined-- --undefined--
0.02 213.478 --undefined--
0.03 212.398 --undefined--
0.04 212.229 --undefined--
0.05 212.063 70.783
0.06 202.005 66.464
0.07 200.716 61.131
0.08 208.322 55.138
0.09 --undefined-- 50.791
0.10 --undefined-- 50.281
0.11 --undefined-- 50.762
0.12 --undefined-- 53.540
0.13 --undefined-- 61.931
0.14 217.506 68.887
0.15 208.205 72.926
0.16 199.248 74.863
0.17 188.137 75.411
0.18 180.283 75.286
0.19 177.526 74.859
0.20 176.828 74.062
0.21 177.059 72.694
0.22 176.266 70.395
0.23 174.413 66.653
0.24 173.504 61.615
0.25 182.385 57.363
0.26 208.104 55.108
0.27 196.442 55.864
0.28 180.811 57.111
0.29 167.626 56.983
0.30 151.545 56.541
0.31 146.788 56.664
0.32 145.393 57.347
0.33 138.589 61.346
0.34 --undefined-- 67.074
0.35 167.976 71.187
0.36 166.732 73.416
0.37 161.122 74.558
0.38 156.690 75.204
0.39 153.394 75.402
0.40 153.820 75.394
0.41 159.059 75.378
0.42 161.801 75.272
0.43 166.597 75.052
0.44 170.662 74.602
0.45 173.869 73.154
0.46 176.021 70.469
0.47 187.061 68.581
0.48 193.096 68.868
0.49 199.374 69.399
0.50 205.710 69.797
0.51 208.708 70.006
0.52 208.974 69.476
0.53 211.667 67.964
0.54 212.922 65.360
0.55 223.848 61.731
0.56 234.621 61.009
0.57 238.755 67.395
0.58 243.469 72.452
0.59 233.541 74.610
0.60 221.083 74.962
0.61 209.176 74.426
0.62 202.469 72.744
0.63 187.045 70.087
0.64 181.142 70.321
0.65 182.622 73.491
0.66 181.351 75.594
0.67 178.926 76.326
0.68 175.125 76.451
0.69 174.632 76.392
0.70 175.046 75.883
0.71 174.487 74.616
0.72 172.116 72.229
0.73 167.618 68.015
0.74 --undefined-- 61.500
0.75 --undefined-- 55.741
0.76 --undefined-- 56.018
0.77 --undefined-- 57.307
0.78 --undefined-- 59.048
0.79 188.897 62.762
0.80 179.106 65.620
0.81 166.288 67.086
0.82 151.286 68.487
0.83 140.011 70.020
0.84 128.015 70.822
0.85 120.635 70.723
0.86 122.824 70.390
0.87 129.408 70.177
0.88 140.259 69.384
0.89 142.954 67.318
0.90 141.643 64.666
0.91 --undefined-- 65.269
0.92 --undefined-- 66.890
0.93 --undefined-- 66.600
0.94 --undefined-- 65.222
0.95 239.106 66.862
0.96 230.053 69.974
0.97 217.058 70.687
0.98 209.333 68.879
0.99 199.249 65.065
1.00 200.796 59.826
1.01 --undefined-- 53.635
1.02 --undefined-- 47.919
1.03 --undefined-- 45.682
1.04 --undefined-- 44.804
1.05 --undefined-- 42.823
1.06 --undefined-- 40.772
1.07 --undefined-- 41.148
1.08 --undefined-- 44.355
1.09 --undefined-- 50.960
1.10 --undefined-- 58.058
1.11 --undefined-- 62.954
1.12 --undefined-- 66.093
1.13 --undefined-- 70.390
1.14 181.777 74.141
1.15 171.677 75.724
1.16 164.497 75.935
1.17 160.428 75.894
1.18 157.819 75.748
1.19 157.533 75.456
1.20 157.136 75.400
1.21 158.235 75.739
1.22 161.365 76.116
1.23 164.706 76.258
1.24 169.507 76.034
1.25 176.040 75.487
1.26 183.761 74.945
1.27 190.279 74.887
1.28 194.707 75.213
1.29 198.486 75.435
1.30 200.946 75.452
1.31 202.627 75.385
1.32 203.297 75.171
1.33 203.274 74.583
1.34 202.754 73.067
1.35 201.222 69.843
1.36 198.150 64.786
1.37 199.334 59.223
1.38 201.769 54.316
1.39 202.323 51.317
1.40 --undefined-- 51.168
1.41 --undefined-- 55.214
1.42 252.333 62.675
1.43 233.714 68.518
1.44 221.943 72.099
1.45 220.444 74.128
1.46 220.007 75.184
1.47 218.751 75.751
1.48 217.752 76.167
1.49 216.661 76.433
1.50 215.880 76.339
1.51 215.280 75.697
1.52 214.575 74.244
1.53 212.527 71.549
1.54 204.390 67.248
1.55 194.096 61.615
1.56 --undefined-- 55.862
1.57 --undefined-- 55.330
1.58 --undefined-- 61.466
1.59 --undefined-- 68.901
1.60 202.941 73.734
1.61 204.033 75.997
1.62 200.470 76.528
1.63 195.362 76.177
1.64 190.831 75.888
1.65 187.725 75.802
1.66 184.284 75.441
1.67 181.850 74.649
1.68 178.735 73.080
1.69 176.071 70.335
1.70 174.835 66.404
1.71 175.803 61.203
1.72 --undefined-- 54.619
1.73 --undefined-- 50.175
1.74 --undefined-- 50.111
1.75 --undefined-- 49.816
1.76 --undefined-- 48.623
1.77 --undefined-- 48.664
1.78 --undefined-- 50.373
1.79 --undefined-- 51.652
1.80 --undefined-- 52.590
1.81 --undefined-- 53.333
1.82 --undefined-- 53.286
1.83 --undefined-- 53.408
1.84 --undefined-- 53.948
1.85 --undefined-- 53.742
1.86 --undefined-- 53.064
1.87 --undefined-- 53.015
1.88 --undefined-- 53.660
1.89 --undefined-- 53.787
1.90 --undefined-- 52.610
1.91 --undefined-- 50.952
1.92 --undefined-- 49.847
1.93 --undefined-- 50.772
1.94 --undefined-- 55.229
1.95 --undefined-- 57.865
1.96 --undefined-- 56.688
1.97 --undefined-- 51.798
1.98 --undefined-- 45.501
1.99 --undefined-- 43.232
2.00 --undefined-- 45.052
2.01 --undefined-- 54.862
2.02 --undefined-- 65.514
2.03 215.793 72.331
2.04 212.500 75.923
2.05 213.017 77.440
2.06 217.328 78.166
2.07 221.977 78.486
2.08 226.042 77.861
2.09 235.496 75.998
2.10 243.944 73.840
2.11 242.360 73.905
2.12 247.042 76.147
2.13 248.618 77.621
2.14 242.666 77.562
2.15 237.851 77.043
2.16 235.215 76.861
2.17 231.292 76.735
2.18 227.632 76.682
2.19 225.854 76.609
2.20 225.434 76.311
2.21 225.116 75.726
2.22 225.012 74.353
2.23 223.260 72.223
2.24 222.236 70.395
2.25 220.124 69.572
2.26 215.995 69.605
2.27 211.765 69.933
2.28 206.587 70.131
2.29 201.220 70.136
2.30 195.350 70.021
2.31 190.626 69.868
2.32 187.355 69.536
2.33 181.638 68.807
2.34 174.657 67.758
2.35 169.098 67.647
2.36 189.838 69.936
2.37 162.217 72.348
2.38 160.688 73.732
2.39 157.416 74.416
2.40 152.328 74.904
2.41 147.361 75.227
2.42 144.272 74.970
2.43 142.198 74.310
2.44 140.214 73.891
2.45 140.207 73.767
2.46 142.980 73.694
2.47 144.266 73.433
2.48 146.803 73.084
2.49 147.594 72.899
2.50 146.740 72.524
2.51 145.707 71.811
2.52 145.404 71.123
2.53 145.055 70.516
2.54 144.074 69.738
2.55 145.560 69.121
2.56 149.185 69.095
2.57 151.468 69.279
2.58 153.964 69.485
2.59 157.796 69.959
2.60 159.935 70.559
2.61 162.695 71.048
2.62 164.428 71.448
2.63 165.644 71.723
2.64 166.447 71.822
2.65 166.481 71.454
2.66 163.910 70.163
2.67 155.785 67.601
2.68 147.729 64.084
2.69 162.807 61.065
2.70 --undefined-- 59.543
2.71 --undefined-- 61.684
2.72 --undefined-- 65.182
2.73 --undefined-- 70.415
2.74 189.959 74.991
2.75 194.778 77.038
2.76 199.043 77.215
2.77 198.468 76.489
2.78 196.375 75.571
2.79 195.107 75.133
2.80 193.769 75.338
2.81 192.170 75.745
2.82 190.805 75.773
2.83 190.490 75.074
2.84 191.252 74.124
2.85 190.756 73.743
2.86 190.061 74.035
2.87 189.545 74.631
2.88 189.227 75.160
2.89 188.352 75.461
2.90 186.890 75.340
2.91 187.033 74.358
2.92 188.363 72.017
2.93 186.883 68.030
2.94 176.847 62.841
2.95 181.183 57.721
2.96 187.676 52.802
2.97 --undefined-- 51.609
2.98 --undefined-- 57.519
2.99 --undefined-- 62.579
3.00 --undefined-- 68.154
3.01 --undefined-- 72.857
3.02 201.097 75.322
3.03 197.542 76.296
3.04 193.751 76.483
3.05 188.782 75.947
3.06 186.073 75.317
3.07 184.583 75.368
3.08 183.142 75.803
3.09 182.029 75.965
3.10 179.462 74.816
3.11 172.497 71.390
3.12 163.076 65.411
3.13 168.395 58.137
3.14 --undefined-- 51.790
3.15 --undefined-- 48.280
3.16 --undefined-- 47.604
3.17 --undefined-- 47.130
3.18 --undefined-- 45.869
3.19 --undefined-- 44.398
3.20 --undefined-- 44.561
3.21 --undefined-- 46.068
3.22 --undefined-- 48.924
3.23 --undefined-- 58.423
3.24 --undefined-- 66.920
3.25 204.136 72.012
3.26 201.460 74.597
3.27 197.863 75.589
3.28 194.042 75.708
3.29 190.821 75.380
3.30 187.036 74.542
3.31 183.855 72.862
3.32 180.375 71.048
3.33 183.243 70.755
3.34 183.810 71.184
3.35 183.539 71.371
3.36 183.613 71.423
3.37 183.929 71.490
3.38 184.221 71.602
3.39 185.210 71.760
3.40 186.398 71.952
3.41 187.852 72.138
3.42 188.964 72.296
3.43 189.561 72.442
3.44 189.975 72.578
3.45 190.144 72.648
3.46 190.878 72.600
3.47 190.601 72.246
3.48 188.265 71.225
3.49 185.303 69.071
3.50 182.206 65.170
3.51 --undefined-- 59.609
3.52 --undefined-- 54.954
3.53 --undefined-- 53.083
3.54 --undefined-- 54.665
3.55 --undefined-- 57.418
3.56 --undefined-- 59.327
3.57 --undefined-- 62.814
3.58 262.962 68.225
3.59 245.123 72.112
3.60 239.166 73.975
3.61 234.727 74.515
3.62 219.439 74.649
3.63 209.558 74.980
3.64 199.129 75.729
3.65 195.946 76.193
3.66 192.403 75.880
3.67 189.087 74.897
3.68 184.503 73.213
3.69 179.634 71.360
3.70 180.162 70.517
3.71 182.851 71.115
3.72 187.950 72.349
3.73 195.341 73.700
3.74 218.960 75.154
3.75 230.342 76.200
3.76 241.418 76.587
3.77 252.712 76.479
3.78 265.895 75.927
3.79 277.543 74.865
3.80 285.104 73.128
3.81 289.646 70.451
3.82 291.794 66.512
3.83 293.829 60.872
3.84 --undefined-- 54.115
3.85 --undefined-- 50.355
3.86 --undefined-- 50.034
3.87 --undefined-- 49.661
3.88 --undefined-- 49.052
3.89 --undefined-- 49.112
3.90 --undefined-- 49.289
3.91 --undefined-- 49.503
3.92 --undefined-- 50.207
3.93 --undefined-- 51.437
3.94 --undefined-- 52.524
3.95 --undefined-- 53.160
3.96 --undefined-- 53.360
3.97 --undefined-- 53.527
3.98 --undefined-- 53.746
3.99 --undefined-- 53.964
4.00 --undefined-- 54.512
4.01 --undefined-- 55.066
4.02 --undefined-- 55.318
4.03 --undefined-- 54.875
4.04 --undefined-- 54.290
4.05 --undefined-- 54.240
4.06 --undefined-- 53.850
4.07 --undefined-- 52.846
4.08 --undefined-- 51.662
4.09 --undefined-- 50.428
4.10 --undefined-- 49.080
4.11 --undefined-- 47.573
4.12 --undefined-- 45.564
4.13 --undefined-- 42.512
4.14 --undefined-- 39.706
4.15 --undefined-- 41.272
4.16 --undefined-- 44.464
4.17 --undefined-- 53.266
4.18 166.255 62.883
4.19 179.578 69.244
4.20 181.640 73.483
4.21 180.559 76.084
4.22 180.550 77.139
4.23 182.125 77.150
4.24 183.987 76.740
4.25 185.224 76.387
4.26 186.285 76.404
4.27 187.048 76.612
4.28 186.845 76.404
4.29 185.961 74.903
4.30 183.473 71.337
4.31 171.241 65.616
4.32 173.358 60.955
4.33 222.115 64.521
4.34 223.733 71.812
4.35 230.275 76.228
4.36 228.607 77.436
4.37 225.095 76.879
4.38 225.545 76.583
4.39 226.024 76.810
4.40 225.842 77.062
4.41 225.972 77.301
4.42 225.138 77.547
4.43 224.546 77.656
4.44 224.200 77.477
4.45 224.673 77.194
4.46 224.667 77.043
4.47 224.505 77.012
4.48 224.412 77.007
4.49 224.683 76.968
4.50 224.820 76.874
4.51 224.800 76.702
4.52 224.393 76.432
4.53 224.196 76.111
4.54 224.718 75.785
4.55 225.687 75.357
4.56 226.050 74.630
4.57 226.636 73.589
4.58 226.945 72.226
4.59 229.376 70.428
4.60 230.345 68.048
4.61 231.075 66.176
4.62 236.257 65.842
4.63 239.074 66.284
4.64 237.107 66.759
4.65 222.571 67.401
4.66 217.884 68.352
4.67 212.477 69.252
4.68 212.021 70.196
4.69 209.439 71.313
4.70 196.753 72.408
4.71 190.796 73.154
4.72 183.184 73.510
4.73 177.662 73.681
4.74 174.076 73.827
4.75 172.579 74.131
4.76 171.794 74.624
4.77 171.181 75.224
4.78 170.733 75.715
4.79 170.723 75.844
4.80 170.754 75.640
4.81 170.357 75.361
4.82 170.052 75.186
4.83 169.373 75.095
4.84 168.127 75.011
4.85 166.571 74.771
4.86 164.950 74.330
4.87 163.080 74.035
4.88 162.382 74.211
4.89 163.276 74.945
4.90 166.395 75.963
4.91 168.168 76.617
4.92 167.189 76.517
4.93 164.707 75.893
4.94 163.958 75.276
4.95 163.424 74.891
4.96 163.812 74.594
4.97 164.417 73.816
4.98 164.700 72.252
4.99 170.260 70.776
5.00 178.585 70.314
5.01 186.799 70.808
5.02 195.708 71.771
5.03 206.469 72.442
5.04 215.041 72.846
5.05 220.708 72.970
5.06 227.020 72.771
5.07 231.072 72.658
5.08 233.240 72.730
5.09 234.035 72.832
5.10 233.927 73.017
5.11 233.075 --undefined--
5.12 231.462 --undefined--
5.13 --undefined-- --undefined--
5.14 --undefined-- --undefined--
