Time Pitch Intensity
0.01 --undefined-- --undefined--
0.02 --undefined-- --undefined--
0.03 --undefined-- --undefined--
0.04 --undefined-- --undefined--
0.05 --undefined-- 59.632
0.06 --undefined-- 59.187
0.07 --undefined-- 58.172
0.08 178.802 57.745
0.09 180.618 58.767
0.10 179.627 60.032
0.11 181.534 62.130
0.12 190.630 65.726
0.13 192.412 68.941
0.14 191.931 71.131
0.15 189.293 72.558
0.16 185.069 73.270
0.17 181.619 73.636
0.18 180.524 73.939
0.19 178.617 73.871
0.20 176.259 73.200
0.21 173.060 71.999
0.22 170.386 70.627
0.23 170.719 69.215
0.24 170.826 67.105
0.25 170.805 63.736
0.26 169.377 59.061
0.27 169.255 54.723
0.28 --undefined-- 53.240
0.29 --undefined-- 52.202
0.30 --undefined-- 49.028
0.31 --undefined-- 44.648
0.32 --undefined-- 43.989
0.33 --undefined-- 48.105
0.34 --undefined-- 50.411
0.35 --undefined-- 49.914
0.36 --undefined-- 49.592
0.37 --undefined-- 51.937
0.38 --undefined-- 55.776
0.39 --undefined-- 59.213
0.40 229.126 62.663
0.41 214.612 65.912
0.42 209.861 68.002
0.43 206.066 68.719
0.44 203.703 68.285
0.45 203.695 67.522
0.46 204.168 66.652
0.47 201.992 65.303
0.48 203.033 64.641
0.49 210.097 64.914
0.50 210.483 65.210
0.51 208.968 65.362
0.52 205.983 65.236
0.53 202.655 65.110
0.54 197.165 65.583
0.55 188.074 66.683
0.56 180.786 67.391
0.57 175.682 67.074
0.58 171.930 66.078
0.59 170.301 65.047
0.60 168.983 64.142
0.61 168.485 63.388
0.62 162.156 63.164
0.63 163.132 63.762
0.64 165.781 63.821
0.65 166.310 62.415
0.66 163.134 59.333
0.67 155.100 55.022
0.68 --undefined-- 52.370
0.69 --undefined-- 50.718
0.70 --undefined-- 49.556
0.71 --undefined-- 51.691
0.72 --undefined-- 55.307
0.73 --undefined-- 59.667
0.74 --undefined-- 64.197
0.75 189.843 67.208
0.76 183.536 68.865
0.77 182.611 69.471
0.78 189.729 69.483
0.79 190.071 69.991
0.80 189.904 70.875
0.81 190.954 71.325
0.82 193.661 70.650
0.83 197.015 68.189
0.84 195.524 63.704
0.85 191.078 58.187
0.86 190.402 55.367
0.87 --undefined-- 56.261
0.88 --undefined-- 59.850
0.89 144.813 64.277
0.90 146.933 66.907
0.91 152.077 68.061
0.92 154.472 68.193
0.93 153.409 66.921
0.94 148.728 63.414
0.95 --undefined-- 57.106
0.96 --undefined-- 50.353
0.97 --undefined-- 47.246
0.98 --undefined-- 44.719
0.99 --undefined-- 46.567
1.00 --undefined-- 51.568
1.01 --undefined-- 55.350
1.02 --undefined-- 59.616
1.03 156.769 64.503
1.04 157.927 68.116
1.05 160.025 70.129
1.06 160.633 70.769
1.07 160.769 70.479
1.08 159.867 69.854
1.09 157.441 69.303
1.10 155.150 69.296
1.11 157.689 69.964
1.12 158.585 70.537
1.13 158.157 70.734
1.14 157.346 70.620
1.15 156.506 70.289
1.16 156.090 69.964
1.17 155.788 69.838
1.18 154.861 70.002
1.19 152.631 70.455
1.20 299.608 70.938
1.21 293.304 71.067
1.22 286.578 70.698
1.23 278.639 69.937
1.24 269.447 68.785
1.25 256.729 67.285
1.26 240.529 65.978
1.27 228.020 65.254
1.28 211.271 65.084
1.29 199.141 66.263
1.30 192.370 68.173
1.31 188.678 69.560
1.32 187.394 70.102
1.33 189.627 69.973
1.34 193.933 69.280
1.35 200.417 67.851
1.36 212.955 66.110
1.37 223.211 65.537
1.38 233.271 65.974
1.39 245.919 66.543
1.40 254.273 67.082
1.41 261.553 67.575
1.42 266.749 67.917
1.43 270.466 68.069
1.44 271.833 67.989
1.45 270.719 67.453
1.46 267.305 66.243
1.47 258.098 65.172
1.48 256.703 65.898
1.49 245.367 67.363
1.50 228.027 68.587
1.51 --undefined-- 69.503
1.52 --undefined-- 69.910
1.53 --undefined-- 69.560
1.54 --undefined-- 68.353
1.55 --undefined-- 65.999
1.56 --undefined-- 62.783
1.57 --undefined-- 60.841
1.58 --undefined-- 60.812
1.59 171.014 60.666
1.60 174.905 59.859
1.61 181.221 58.678
1.62 175.978 57.346
1.63 180.943 56.665
1.64 188.166 57.962
1.65 192.371 59.969
1.66 213.860 61.172
1.67 219.073 62.351
1.68 230.572 64.809
1.69 226.988 67.791
1.70 220.366 69.670
1.71 --undefined-- 69.739
1.72 --undefined-- 68.170
1.73 --undefined-- 65.697
1.74 --undefined-- 63.512
1.75 --undefined-- 62.590
1.76 --undefined-- 62.137
1.77 --undefined-- 60.734
1.78 92.696 59.137
1.79 89.890 58.291
1.80 87.478 59.429
1.81 185.054 63.079
1.82 187.340 65.889
1.83 182.186 66.781
1.84 177.740 66.167
1.85 171.062 64.925
1.86 168.694 64.016
1.87 166.985 63.247
1.88 165.735 62.458
1.89 165.084 62.018
1.90 164.232 61.940
1.91 164.719 61.916
1.92 166.728 61.613
1.93 170.323 61.035
1.94 172.825 60.467
1.95 175.548 60.276
1.96 178.131 60.370
1.97 179.437 60.532
1.98 181.420 60.452
1.99 183.337 59.257
2.00 183.707 56.156
2.01 --undefined-- 51.344
2.02 --undefined-- 48.292
2.03 --undefined-- 49.220
2.04 --undefined-- 50.319
2.05 --undefined-- 50.320
2.06 --undefined-- 50.160
2.07 --undefined-- 50.666
2.08 --undefined-- 51.222
2.09 --undefined-- 55.565
2.10 267.812 61.670
2.11 239.589 65.572
2.12 231.787 67.585
2.13 228.023 68.452
2.14 225.730 68.662
2.15 223.524 68.501
2.16 221.939 68.051
2.17 221.298 67.424
2.18 222.160 66.816
2.19 223.605 66.215
2.20 223.041 65.414
2.21 227.654 64.643
2.22 241.022 64.222
2.23 243.193 64.120
2.24 232.189 64.385
2.25 218.895 64.720
2.26 207.874 65.003
2.27 196.104 65.424
2.28 186.672 66.146
2.29 181.423 66.738
2.30 178.467 66.905
2.31 178.215 67.124
2.32 179.904 67.585
2.33 179.364 67.847
2.34 178.188 68.251
2.35 178.682 69.152
2.36 179.807 69.682
2.37 182.618 69.287
2.38 188.120 68.278
2.39 196.666 67.051
2.40 200.456 65.454
2.41 196.766 62.896
2.42 189.552 58.784
2.43 189.325 53.746
2.44 --undefined-- 51.964
2.45 --undefined-- 52.024
2.46 --undefined-- 49.860
2.47 --undefined-- 47.649
2.48 --undefined-- 48.938
2.49 --undefined-- 51.595
2.50 --undefined-- 53.424
2.51 --undefined-- 52.966
2.52 --undefined-- 51.055
2.53 --undefined-- 49.711
2.54 --undefined-- 49.698
2.55 --undefined-- 50.501
2.56 --undefined-- 51.688
2.57 --undefined-- 52.941
2.58 --undefined-- 53.319
2.59 --undefined-- 53.406
2.60 --undefined-- 53.224
2.61 --undefined-- 52.792
2.62 --undefined-- 52.442
2.63 --undefined-- 54.521
2.64 --undefined-- 58.475
2.65 184.396 61.569
2.66 184.184 63.604
2.67 178.879 64.569
2.68 170.811 64.686
2.69 170.013 64.432
2.70 169.036 64.134
2.71 167.779 64.032
2.72 166.527 64.289
2.73 166.952 64.927
2.74 169.177 65.409
2.75 171.345 65.124
2.76 171.696 63.687
2.77 166.899 61.043
2.78 166.076 57.783
2.79 164.023 54.355
2.80 170.890 51.250
2.81 --undefined-- 51.493
2.82 --undefined-- 55.120
2.83 --undefined-- 58.467
2.84 --undefined-- 60.923
2.85 --undefined-- 63.790
2.86 203.114 66.109
2.87 197.205 67.566
2.88 186.536 67.830
2.89 177.394 66.169
2.90 --undefined-- 62.490
2.91 --undefined-- 57.181
2.92 --undefined-- 52.415
2.93 --undefined-- 52.436
2.94 --undefined-- 52.690
2.95 --undefined-- 52.125
2.96 --undefined-- 51.576
2.97 --undefined-- 50.779
2.98 --undefined-- 50.540
2.99 --undefined-- 52.201
3.00 --undefined-- 54.039
3.01 --undefined-- 53.935
3.02 --undefined-- 52.281
3.03 --undefined-- 51.485
3.04 --undefined-- 51.370
3.05 --undefined-- 51.611
3.06 --undefined-- 52.069
3.07 --undefined-- 52.726
3.08 --undefined-- 53.474
3.09 --undefined-- 53.867
3.10 --undefined-- 54.265
3.11 --undefined-- 54.282
3.12 --undefined-- 54.449
3.13 --undefined-- 55.224
3.14 --undefined-- 56.584
3.15 --undefined-- 57.952
3.16 --undefined-- 58.612
3.17 --undefined-- 59.324
3.18 --undefined-- 61.138
3.19 222.502 63.538
3.20 197.444 65.490
3.21 192.582 66.703
3.22 187.469 66.883
3.23 183.447 66.341
3.24 182.610 66.008
3.25 183.251 65.981
3.26 184.620 65.921
3.27 185.534 65.883
3.28 185.706 66.038
3.29 185.680 66.317
3.30 186.527 66.701
3.31 187.528 67.234
3.32 187.934 67.810
3.33 187.765 68.211
3.34 187.773 68.498
3.35 187.993 68.781
3.36 188.248 68.966
3.37 188.926 69.086
3.38 189.742 69.183
3.39 190.768 69.181
3.40 192.032 69.234
3.41 192.676 69.388
3.42 193.036 69.312
3.43 192.867 68.826
3.44 192.719 67.793
3.45 193.410 65.889
3.46 191.596 62.848
3.47 191.111 58.938
3.48 192.572 54.921
3.49 191.831 51.652
3.50 --undefined-- 52.087
3.51 --undefined-- 55.924
3.52 --undefined-- 60.786
3.53 222.178 64.321
3.54 222.975 65.654
3.55 221.437 65.284
3.56 223.704 64.345
3.57 227.222 63.585
3.58 227.211 62.503
3.59 225.310 60.187
3.60 211.113 56.540
3.61 210.549 52.886
3.62 --undefined-- 50.865
3.63 --undefined-- 50.191
3.64 --undefined-- 52.341
3.65 --undefined-- 53.380
3.66 --undefined-- 51.298
3.67 --undefined-- 47.500
3.68 --undefined-- 45.942
3.69 --undefined-- 47.256
3.70 --undefined-- 54.081
3.71 --undefined-- 61.900
3.72 223.892 66.327
3.73 222.653 67.556
3.74 205.750 67.068
3.75 204.717 67.166
3.76 204.881 67.917
3.77 204.510 68.284
3.78 204.403 68.008
3.79 204.852 67.261
3.80 206.650 66.112
3.81 207.369 64.431
3.82 202.744 62.206
3.83 187.521 59.496
3.84 192.110 56.301
3.85 204.236 52.511
3.86 --undefined-- 48.446
3.87 --undefined-- 47.889
3.88 --undefined-- 49.996
3.89 --undefined-- 50.855
3.90 --undefined-- 50.569
3.91 --undefined-- 48.301
3.92 --undefined-- 46.050
3.93 --undefined-- 47.583
3.94 --undefined-- 50.935
3.95 --undefined-- 53.001
3.96 --undefined-- 56.694
3.97 --undefined-- 62.483
3.98 148.539 65.767
3.99 150.507 66.680
4.00 154.004 66.305
4.01 153.578 65.214
4.02 295.979 62.755
4.03 281.200 57.798
4.04 --undefined-- 50.582
4.05 --undefined-- 47.737
4.06 --undefined-- 48.628
4.07 --undefined-- 47.918
4.08 --undefined-- 45.545
4.09 --undefined-- 43.198
4.10 --undefined-- 43.898
4.11 --undefined-- 45.941
4.12 --undefined-- 46.911
4.13 --undefined-- 45.749
4.14 --undefined-- 43.361
4.15 --undefined-- 41.054
4.16 --undefined-- 38.794
4.17 --undefined-- 41.918
4.18 --undefined-- 45.646
4.19 --undefined-- 46.725
4.20 --undefined-- 46.459
4.21 --undefined-- 46.784
4.22 --undefined-- 48.099
4.23 --undefined-- 49.903
4.24 --undefined-- 53.526
4.25 --undefined-- 59.502
4.26 197.677 63.895
4.27 194.963 66.322
4.28 188.842 67.601
4.29 184.372 68.193
4.30 181.098 68.736
4.31 180.423 69.461
4.32 180.019 69.784
4.33 179.031 69.571
4.34 178.403 69.012
4.35 178.098 68.290
4.36 178.388 67.577
4.37 178.677 66.926
4.38 178.219 66.337
4.39 178.378 65.700
4.40 178.411 65.065
4.41 177.472 64.378
4.42 175.419 63.319
4.43 173.936 62.083
4.44 179.960 62.147
4.45 183.041 63.138
4.46 182.970 63.580
4.47 182.579 63.520
4.48 182.608 63.447
4.49 183.640 63.449
4.50 184.972 63.091
4.51 186.196 61.502
4.52 186.472 58.037
4.53 --undefined-- 55.592
4.54 226.789 60.543
4.55 224.734 65.403
4.56 216.910 68.752
4.57 214.043 71.456
4.58 212.838 73.906
4.59 212.540 75.583
4.60 212.151 76.305
4.61 212.280 76.446
4.62 212.477 76.446
4.63 210.747 76.194
4.64 206.813 75.642
4.65 201.295 75.100
4.66 192.905 74.906
4.67 180.848 74.555
4.68 170.686 73.134
4.69 167.727 70.565
4.70 168.613 66.802
4.71 --undefined-- 61.919
4.72 --undefined-- 57.289
4.73 --undefined-- 53.221
4.74 --undefined-- 49.791
4.75 --undefined-- 49.742
4.76 --undefined-- 50.990
4.77 --undefined-- 50.674
4.78 --undefined-- 50.543
4.79 --undefined-- 51.565
4.80 --undefined-- 51.666
4.81 --undefined-- 52.029
4.82 --undefined-- 53.096
4.83 --undefined-- 53.577
4.84 --undefined-- 52.876
4.85 --undefined-- 51.314
4.86 --undefined-- 48.862
4.87 --undefined-- 46.849
4.88 --undefined-- 46.656
4.89 --undefined-- 49.177
4.90 --undefined-- 51.953
4.91 --undefined-- 52.641
4.92 --undefined-- 52.148
4.93 --undefined-- 51.348
4.94 --undefined-- 49.103
4.95 --undefined-- 46.763
4.96 --undefined-- 48.272
4.97 --undefined-- 50.244
4.98 --undefined-- 51.205
4.99 --undefined-- 51.694
5.00 --undefined-- 51.723
5.01 --undefined-- 51.486
5.02 --undefined-- 51.803
5.03 --undefined-- 52.916
5.04 --undefined-- 53.471
5.05 --undefined-- 52.551
5.06 --undefined-- 52.231
5.07 --undefined-- 52.359
5.08 --undefined-- 50.807
5.09 --undefined-- 50.635
5.10 --undefined-- 53.769
5.11 --undefined-- 55.206
5.12 --undefined-- 53.545
5.13 --undefined-- --undefined--
5.14 --undefined-- --undefined--
5.15 --undefined-- --undefined--
5.16 --undefined-- --undefined--
