Time Pitch Intensity
0.01 --undefined-- --undefined--
0.02 182.778 --undefined--
0.03 182.231 --undefined--
0.04 182.181 --undefined--
0.05 180.132 62.880
0.06 180.715 62.373
0.07 179.419 62.272
0.08 176.918 62.175
0.09 174.829 62.007
0.10 173.531 61.786
0.11 172.645 61.552
0.12 173.673 61.433
0.13 174.970 61.649
0.14 177.097 62.068
0.15 179.701 62.452
0.16 182.530 62.796
0.17 185.133 62.857
0.18 186.657 61.916
0.19 184.444 59.267
0.20 184.506 54.747
0.21 187.003 54.025
0.22 --undefined-- 61.171
0.23 --undefined-- 66.031
0.24 199.498 68.247
0.25 191.720 68.997
0.26 188.347 68.926
0.27 187.120 68.204
0.28 188.105 67.076
0.29 189.304 65.580
0.30 190.009 63.289
0.31 190.115 59.698
0.32 188.684 55.339
0.33 189.192 52.968
0.34 189.281 52.440
0.35 --undefined-- 51.841
0.36 --undefined-- 49.531
0.37 --undefined-- 52.163
0.38 --undefined-- 60.513
0.39 --undefined-- 65.275
0.40 234.033 66.987
0.41 229.865 66.937
0.42 229.548 66.523
0.43 231.157 66.313
0.44 233.212 66.264
0.45 234.892 66.460
0.46 236.143 66.706
0.47 237.031 66.656
0.48 237.885 66.253
0.49 237.322 65.710
0.50 235.732 65.483
0.51 235.387 65.660
0.52 232.108 65.465
0.53 227.687 64.311
0.54 220.286 61.727
0.55 207.495 57.445
0.56 229.091 55.489
0.57 217.556 59.995
0.58 204.717 63.404
0.59 193.856 65.190
0.60 185.042 66.233
0.61 176.640 66.875
0.62 176.853 66.931
0.63 176.702 65.997
0.64 175.324 64.157
0.65 174.355 61.713
0.66 172.598 58.859
0.67 178.710 56.250
0.68 --undefined-- 55.013
0.69 --undefined-- 53.870
0.70 --undefined-- 53.182
0.71 167.469 54.441
0.72 168.727 56.303
0.73 183.596 57.191
0.74 167.121 58.477
0.75 162.532 61.283
0.76 158.212 63.552
0.77 155.151 64.599
0.78 151.633 64.910
0.79 149.795 65.020
0.80 147.854 64.876
0.81 147.426 64.230
0.82 147.080 63.085
0.83 147.804 61.762
0.84 147.338 60.300
0.85 148.056 59.272
0.86 152.152 59.482
0.87 154.943 59.963
0.88 158.177 60.090
0.89 162.218 59.824
0.90 167.063 58.984
0.91 171.465 57.412
0.92 170.084 55.028
0.93 165.716 51.939
0.94 --undefined-- 49.279
0.95 --undefined-- 54.512
0.96 --undefined-- 61.554
0.97 --undefined-- 65.103
0.98 220.129 66.063
0.99 220.227 66.151
1.00 223.025 66.370
1.01 226.535 66.580
1.02 229.641 66.806
1.03 233.745 67.307
1.04 236.624 67.940
1.05 238.115 68.213
1.06 238.876 67.963
1.07 239.165 67.512
1.08 239.421 66.939
1.09 240.139 66.081
1.10 241.565 65.179
1.11 244.312 64.890
1.12 246.609 65.059
1.13 246.141 64.984
1.14 244.609 64.095
1.15 242.288 61.472
1.16 --undefined-- 56.464
1.17 --undefined-- 51.623
1.18 --undefined-- 56.194
1.19 --undefined-- 61.118
1.20 --undefined-- 62.629
1.21 --undefined-- 61.277
1.22 --undefined-- 58.749
1.23 --undefined-- 56.012
1.24 --undefined-- 52.479
1.25 188.138 51.226
1.26 188.464 53.948
1.27 190.924 56.388
1.28 190.049 58.241
1.29 177.962 60.002
1.30 164.929 61.237
1.31 158.313 61.575
1.32 156.672 61.611
1.33 157.520 62.154
1.34 157.925 62.978
1.35 158.800 63.391
1.36 162.025 63.125
1.37 168.834 62.708
1.38 173.285 62.759
1.39 177.039 62.958
1.40 183.222 63.273
1.41 187.079 63.440
1.42 188.854 62.554
1.43 187.906 60.160
1.44 184.735 56.551
1.45 184.553 53.048
1.46 --undefined-- 50.404
1.47 --undefined-- 47.783
1.48 --undefined-- 46.841
1.49 --undefined-- 49.036
1.50 --undefined-- 51.535
1.51 --undefined-- 52.247
1.52 --undefined-- 50.541
1.53 --undefined-- 49.189
1.54 --undefined-- 49.795
1.55 --undefined-- 49.383
1.56 --undefined-- 54.754
1.57 255.133 61.238
1.58 254.933 64.709
1.59 253.698 66.066
1.60 253.065 66.511
1.61 252.897 66.882
1.62 253.285 67.355
1.63 253.827 67.950
1.64 253.616 68.552
1.65 251.217 68.860
1.66 245.926 68.664
1.67 240.330 68.174
1.68 235.198 68.049
1.69 230.132 68.265
1.70 222.755 68.004
1.71 212.059 67.640
1.72 204.383 68.194
1.73 196.459 68.869
1.74 186.432 69.175
1.75 177.366 69.160
1.76 173.670 68.416
1.77 171.696 66.253
1.78 171.836 62.454
1.79 170.884 57.597
1.80 172.925 52.919
1.81 --undefined-- 49.773
1.82 --undefined-- 48.452
1.83 --undefined-- 50.823
1.84 --undefined-- 55.993
1.85 181.844 60.858
1.86 182.693 63.752
1.87 174.900 64.995
1.88 172.788 65.343
1.89 171.822 65.296
1.90 180.359 65.101
1.91 184.171 64.995
1.92 191.095 64.648
1.93 194.110 63.407
1.94 205.954 61.583
1.95 206.688 60.595
1.96 206.318 60.567
1.97 204.457 60.565
1.98 202.557 60.657
1.99 195.849 61.093
2.00 189.726 61.861
2.01 185.999 63.106
2.02 178.279 64.406
2.03 173.029 65.324
2.04 165.771 65.828
2.05 162.904 66.145
2.06 160.604 66.328
2.07 158.909 66.252
2.08 158.459 65.830
2.09 158.948 64.829
2.10 158.678 63.119
2.11 155.228 61.507
2.12 155.647 60.991
2.13 157.761 60.859
2.14 158.204 60.308
2.15 159.197 59.441
2.16 --undefined-- 58.841
2.17 --undefined-- 58.370
2.18 --undefined-- 57.704
2.19 --undefined-- 57.101
2.20 92.803 56.715
2.21 90.228 56.898
2.22 89.193 58.240
2.23 81.653 59.347
2.24 86.834 59.832
2.25 86.947 60.612
2.26 88.878 61.754
2.27 89.431 62.729
2.28 89.619 63.239
2.29 89.700 63.327
2.30 89.171 63.106
2.31 88.709 62.924
2.32 89.658 63.076
2.33 90.568 63.646
2.34 91.356 64.358
2.35 91.924 64.886
2.36 92.120 65.254
2.37 91.859 65.495
2.38 91.580 65.576
2.39 90.637 65.378
2.40 90.114 64.838
2.41 89.325 64.002
2.42 88.331 62.985
2.43 87.366 61.815
2.44 87.625 60.429
2.45 96.409 59.389
2.46 --undefined-- 57.595
2.47 --undefined-- 53.097
2.48 --undefined-- 46.965
2.49 --undefined-- 44.874
2.50 --undefined-- 45.406
2.51 --undefined-- 48.811
2.52 --undefined-- 52.395
2.53 --undefined-- 53.619
2.54 --undefined-- 52.226
2.55 --undefined-- 49.625
2.56 --undefined-- 47.871
2.57 --undefined-- 47.266
2.58 --undefined-- 47.358
2.59 --undefined-- 47.881
2.60 --undefined-- 48.234
2.61 --undefined-- 48.382
2.62 --undefined-- 48.511
2.63 --undefined-- 47.253
2.64 --undefined-- 45.765
2.65 --undefined-- 46.599
2.66 --undefined-- 47.939
2.67 --undefined-- 48.850
2.68 --undefined-- 48.666
2.69 --undefined-- 47.966
2.70 --undefined-- 47.663
2.71 --undefined-- 47.832
2.72 --undefined-- 48.781
2.73 --undefined-- 48.870
2.74 --undefined-- 46.856
2.75 --undefined-- 43.614
2.76 --undefined-- 42.859
2.77 --undefined-- 44.455
2.78 --undefined-- 45.741
2.79 --undefined-- 46.446
2.80 --undefined-- 45.747
2.81 --undefined-- 45.243
2.82 --undefined-- 47.426
2.83 --undefined-- 52.666
2.84 --undefined-- 56.926
2.85 --undefined-- 57.845
2.86 --undefined-- 56.248
2.87 --undefined-- 59.933
2.88 175.760 66.102
2.89 187.626 69.938
2.90 193.228 72.313
2.91 197.450 73.618
2.92 202.524 73.495
2.93 205.797 72.254
2.94 206.742 70.789
2.95 205.291 70.041
2.96 203.981 70.123
2.97 201.410 70.449
2.98 196.849 70.889
2.99 190.403 71.388
3.00 183.056 71.733
3.01 174.097 71.716
3.02 160.791 71.803
3.03 156.178 71.618
3.04 264.857 70.270
3.05 241.058 68.537
3.06 216.106 67.046
3.07 197.966 65.582
3.08 186.537 64.251
3.09 182.906 62.850
3.10 179.923 61.805
3.11 184.096 61.520
3.12 181.307 61.088
3.13 176.171 59.946
3.14 171.163 57.675
3.15 168.613 53.947
3.16 --undefined-- 51.326
3.17 --undefined-- 54.553
3.18 --undefined-- 58.313
3.19 197.260 60.783
3.20 188.022 62.198
3.21 178.951 63.307
3.22 175.778 64.609
3.23 172.327 65.739
3.24 167.667 66.439
3.25 163.729 66.745
3.26 164.014 66.417
3.27 166.017 65.262
3.28 168.484 63.817
3.29 170.322 62.690
3.30 174.507 61.715
3.31 180.206 60.603
3.32 184.462 59.968
3.33 185.715 60.121
3.34 191.149 60.735
3.35 192.272 61.766
3.36 193.093 62.974
3.37 198.427 64.095
3.38 203.785 64.957
3.39 212.541 65.467
3.40 219.893 66.043
3.41 232.786 66.953
3.42 244.444 67.847
3.43 260.565 68.417
3.44 273.465 68.499
3.45 294.017 68.542
3.46 155.592 68.850
3.47 161.213 68.657
3.48 158.756 67.645
3.49 155.394 66.542
3.50 152.082 66.480
3.51 150.437 67.178
3.52 298.611 67.683
3.53 291.196 67.571
3.54 280.253 66.820
3.55 265.457 65.688
3.56 250.014 64.887
3.57 228.427 64.967
3.58 217.164 65.435
3.59 208.214 66.169
3.60 186.031 67.146
3.61 181.199 67.568
3.62 172.287 67.305
3.63 165.492 66.868
3.64 159.028 66.780
3.65 158.593 67.012
3.66 159.327 66.866
3.67 158.317 66.284
3.68 157.179 65.871
3.69 157.279 65.755
3.70 158.412 65.669
3.71 162.614 65.446
3.72 164.482 65.161
3.73 167.763 64.826
3.74 168.222 63.743
3.75 161.986 60.957
3.76 166.354 56.206
3.77 167.521 52.243
3.78 --undefined-- 51.172
3.79 --undefined-- 49.956
3.80 --undefined-- 52.425
3.81 --undefined-- 59.235
3.82 182.563 63.772
3.83 183.429 65.747
3.84 175.512 66.568
3.85 173.048 67.303
3.86 172.391 67.667
3.87 173.271 67.864
3.88 177.087 68.445
3.89 179.632 68.986
3.90 183.495 68.971
3.91 190.067 68.522
3.92 198.009 67.995
3.93 206.160 67.733
3.94 214.997 68.239
3.95 222.952 69.427
3.96 229.738 70.584
3.97 238.616 71.194
3.98 247.707 70.938
3.99 260.260 70.091
4.00 268.119 69.118
4.01 274.035 67.799
4.02 273.006 66.882
4.03 276.875 67.410
4.04 279.359 68.226
4.05 281.585 68.827
4.06 282.574 69.099
4.07 280.839 68.823
4.08 275.467 67.986
4.09 266.603 66.772
4.10 254.141 65.709
4.11 244.763 66.177
4.12 229.688 68.128
4.13 218.308 69.192
4.14 202.635 68.634
4.15 192.185 66.256
4.16 --undefined-- 61.720
4.17 --undefined-- 55.582
4.18 --undefined-- 49.743
4.19 --undefined-- 46.878
4.20 --undefined-- 47.818
4.21 --undefined-- 50.086
4.22 --undefined-- 50.863
4.23 --undefined-- 50.020
4.24 --undefined-- 48.535
4.25 --undefined-- 47.296
4.26 --undefined-- 45.639
4.27 --undefined-- 46.183
4.28 --undefined-- 48.138
4.29 --undefined-- 48.623
4.30 --undefined-- 47.951
4.31 --undefined-- 45.531
4.32 --undefined-- 44.164
4.33 --undefined-- 46.428
4.34 --undefined-- 50.185
4.35 --undefined-- 57.747
4.36 --undefined-- 65.161
4.37 277.051 69.375
4.38 278.367 70.726
4.39 277.788 70.225
4.40 273.885 68.787
4.41 263.092 66.686
4.42 249.888 63.700
4.43 --undefined-- 59.772
4.44 --undefined-- 55.975
4.45 --undefined-- 53.076
4.46 --undefined-- 51.363
4.47 --undefined-- 50.309
4.48 --undefined-- 49.153
4.49 --undefined-- 48.140
4.50 --undefined-- 46.183
4.51 --undefined-- 45.030
4.52 --undefined-- 50.382
4.53 --undefined-- 56.749
4.54 --undefined-- 61.119
4.55 196.653 63.187
4.56 199.465 63.484
4.57 189.827 62.689
4.58 186.149 61.586
4.59 183.184 61.898
4.60 182.376 63.951
4.61 182.555 65.120
4.62 181.721 64.889
4.63 179.880 63.769
4.64 178.731 62.126
4.65 175.815 59.975
4.66 167.800 56.525
4.67 --undefined-- 51.569
4.68 --undefined-- 47.403
4.69 --undefined-- 44.807
4.70 --undefined-- 43.481
4.71 --undefined-- 44.996
4.72 --undefined-- 46.960
4.73 --undefined-- 47.670
4.74 --undefined-- 46.767
4.75 --undefined-- 43.818
4.76 --undefined-- 40.156
4.77 --undefined-- 40.118
4.78 --undefined-- 42.410
4.79 --undefined-- 44.526
4.80 --undefined-- 47.844
4.81 --undefined-- 50.950
4.82 --undefined-- 52.740
4.83 --undefined-- 54.282
4.84 --undefined-- 58.768
4.85 269.353 64.435
4.86 267.716 68.121
4.87 264.354 70.003
4.88 262.318 70.443
4.89 263.033 69.591
4.90 263.974 67.820
4.91 259.211 66.420
4.92 261.834 66.515
4.93 266.118 66.838
4.94 265.585 66.765
4.95 265.364 66.559
4.96 265.960 66.327
4.97 266.015 66.070
4.98 266.459 65.784
4.99 266.711 65.445
5.00 266.731 65.188
5.01 266.366 65.030
5.02 265.290 64.571
5.03 262.074 63.055
5.04 251.735 59.799
5.05 251.901 55.765
5.06 267.831 53.347
5.07 266.262 52.131
5.08 --undefined-- 50.776
5.09 --undefined-- 49.088
5.10 --undefined-- 46.434
5.11 --undefined-- 45.053
5.12 --undefined-- 46.220
5.13 --undefined-- 46.504
5.14 --undefined-- 47.223
5.15 --undefined-- 49.046
5.16 --undefined-- 51.317
5.17 --undefined-- --undefined--
5.18 --undefined-- --undefined--
5.19 --undefined-- --undefined--
5.20 --undefined-- --undefined--
