Time Pitch Intensity
0.01 --undefined-- --undefined--
0.02 180.780 --undefined--
0.03 178.754 --undefined--
0.04 --undefined-- --undefined--
0.05 --undefined-- 52.949
0.06 --undefined-- 53.544
0.07 --undefined-- 51.882
0.08 --undefined-- 51.714
0.09 --undefined-- 52.537
0.10 --undefined-- 54.802
0.11 --undefined-- 57.877
0.12 --undefined-- 58.616
0.13 --undefined-- 57.719
0.14 --undefined-- 56.559
0.15 --undefined-- 54.697
0.16 --undefined-- 52.625
0.17 --undefined-- 52.099
0.18 --undefined-- 51.593
0.19 --undefined-- 51.318
0.20 --undefined-- 51.340
0.21 --undefined-- 52.994
0.22 --undefined-- 56.940
0.23 188.846 59.697
0.24 196.748 61.772
0.25 195.876 63.944
0.26 195.518 65.807
0.27 198.399 66.951
0.28 204.724 67.153
0.29 215.082 66.640
0.30 230.697 66.083
0.31 234.033 65.371
0.32 235.273 63.748
0.33 233.404 60.698
0.34 220.959 56.144
0.35 --undefined-- 51.378
0.36 --undefined-- 50.623
0.37 --undefined-- 50.826
0.38 --undefined-- 48.923
0.39 --undefined-- 47.308
0.40 --undefined-- 49.494
0.41 --undefined-- 51.715
0.42 --undefined-- 52.076
0.43 --undefined-- 54.171
0.44 230.851 59.642
0.45 209.332 63.177
0.46 200.548 64.676
0.47 191.380 65.392
0.48 188.863 66.020
0.49 185.883 66.171
0.50 186.400 65.833
0.51 187.615 65.260
0.52 188.376 64.483
0.53 187.413 63.379
0.54 185.365 61.265
0.55 180.276 57.520
0.56 --undefined-- 52.817
0.57 --undefined-- 51.066
0.58 --undefined-- 52.187
0.59 224.589 53.668
0.60 224.259 56.553
0.61 222.661 60.433
0.62 216.124 63.412
0.63 210.807 65.573
0.64 203.195 67.447
0.65 196.937 68.863
0.66 194.610 69.303
0.67 192.582 68.095
0.68 187.588 64.662
0.69 192.700 58.932
0.70 --undefined-- 52.128
0.71 --undefined-- 48.870
0.72 --undefined-- 48.469
0.73 --undefined-- 46.207
0.74 --undefined-- 42.784
0.75 --undefined-- 42.525
0.76 --undefined-- 44.753
0.77 --undefined-- 47.095
0.78 --undefined-- 49.219
0.79 --undefined-- 50.086
0.80 --undefined-- 54.731
0.81 187.236 61.482
0.82 186.042 65.748
0.83 181.838 67.078
0.84 174.029 66.066
0.85 173.582 64.889
0.86 173.704 65.258
0.87 172.441 66.383
0.88 178.329 68.033
0.89 185.174 69.865
0.90 190.875 71.048
0.91 196.360 70.886
0.92 206.622 69.449
0.93 221.087 68.305
0.94 234.899 68.281
0.95 244.065 68.533
0.96 258.984 69.083
0.97 267.889 69.481
0.98 271.303 69.208
0.99 270.351 68.196
1.00 263.245 66.253
1.01 243.261 63.445
1.02 220.843 60.269
1.03 211.950 57.098
1.04 223.759 53.814
1.05 --undefined-- 50.740
1.06 --undefined-- 50.648
1.07 --undefined-- 49.894
1.08 --undefined-- 47.752
1.09 --undefined-- 48.332
1.10 --undefined-- 49.560
1.11 --undefined-- 49.675
1.12 --undefined-- 50.030
1.13 --undefined-- 51.779
1.14 --undefined-- 54.463
1.15 --undefined-- 55.448
1.16 --undefined-- 53.763
1.17 --undefined-- 51.330
1.18 --undefined-- 51.092
1.19 --undefined-- 50.516
1.20 --undefined-- 49.800
1.21 --undefined-- 50.576
1.22 --undefined-- 50.553
1.23 --undefined-- 51.028
1.24 --undefined-- 52.802
1.25 --undefined-- 52.257
1.26 --undefined-- 49.961
1.27 --undefined-- 50.639
1.28 --undefined-- 50.742
1.29 --undefined-- 47.639
1.30 --undefined-- 44.225
1.31 --undefined-- 47.928
1.32 --undefined-- 52.988
1.33 --undefined-- 55.599
1.34 --undefined-- 56.879
1.35 234.664 58.405
1.36 220.111 61.088
1.37 208.591 63.622
1.38 211.627 65.621
1.39 223.703 67.279
1.40 236.295 68.605
1.41 254.351 69.813
1.42 261.511 71.090
1.43 274.895 72.442
1.44 285.610 73.980
1.45 295.329 75.327
1.46 153.664 76.051
1.47 156.650 76.194
1.48 158.330 75.813
1.49 158.354 74.354
1.50 150.990 70.762
1.51 135.042 64.533
1.52 165.078 57.455
1.53 163.309 54.796
1.54 --undefined-- 57.099
1.55 --undefined-- 63.121
1.56 293.289 66.557
1.57 261.515 66.939
1.58 235.031 66.192
1.59 226.043 66.304
1.60 218.385 66.815
1.61 212.884 66.864
1.62 204.781 66.345
1.63 206.493 65.592
1.64 212.554 64.950
1.65 221.154 65.213
1.66 234.508 65.976
1.67 245.343 66.283
1.68 261.185 66.333
1.69 279.340 66.634
1.70 293.651 67.366
1.71 152.544 68.228
1.72 156.982 68.784
1.73 160.402 69.262
1.74 163.162 69.562
1.75 165.538 68.965
1.76 163.802 67.143
1.77 158.408 63.949
1.78 162.918 59.494
1.79 165.319 55.585
1.80 --undefined-- 53.558
1.81 --undefined-- 52.240
1.82 --undefined-- 55.202
1.83 --undefined-- 60.843
1.84 227.286 64.421
1.85 221.997 65.947
1.86 216.417 65.971
1.87 213.484 65.456
1.88 210.935 65.027
1.89 209.307 64.642
1.90 209.384 64.383
1.91 210.302 64.339
1.92 209.879 64.114
1.93 209.095 62.859
1.94 206.081 59.959
1.95 202.781 55.708
1.96 --undefined-- 55.313
1.97 --undefined-- 61.192
1.98 249.400 65.430
1.99 249.773 67.480
2.00 252.180 68.258
2.01 256.271 68.491
2.02 259.853 68.291
2.03 265.213 67.773
2.04 275.924 67.543
2.05 280.509 67.530
2.06 277.395 67.500
2.07 269.138 67.426
2.08 256.590 67.349
2.09 243.566 67.747
2.10 232.289 68.404
2.11 221.988 68.393
2.12 206.592 67.600
2.13 196.570 66.910
2.14 190.731 66.890
2.15 187.642 67.112
2.16 185.300 67.015
2.17 184.660 66.198
2.18 182.823 64.024
2.19 180.107 59.839
2.20 184.594 54.207
2.21 --undefined-- 50.463
2.22 --undefined-- 51.927
2.23 --undefined-- 53.622
2.24 --undefined-- 53.251
2.25 --undefined-- 50.869
2.26 --undefined-- 46.694
2.27 --undefined-- 44.998
2.28 --undefined-- 49.802
2.29 --undefined-- 56.055
2.30 --undefined-- 59.632
2.31 --undefined-- 60.764
2.32 --undefined-- 60.018
2.33 --undefined-- 58.326
2.34 --undefined-- 57.898
2.35 --undefined-- 57.919
2.36 --undefined-- 57.286
2.37 --undefined-- 57.137
2.38 --undefined-- 58.288
2.39 --undefined-- 59.377
2.40 --undefined-- 60.196
2.41 --undefined-- 61.530
2.42 159.754 63.310
2.43 163.464 64.597
2.44 169.895 65.183
2.45 180.490 65.237
2.46 188.623 65.001
2.47 193.686 64.699
2.48 197.836 64.383
2.49 203.248 64.227
2.50 208.680 64.377
2.51 213.134 64.879
2.52 219.939 65.414
2.53 226.912 65.714
2.54 233.986 65.881
2.55 239.864 65.985
2.56 245.287 66.085
2.57 252.021 66.274
2.58 257.596 66.758
2.59 260.019 67.813
2.60 262.385 69.089
2.61 265.203 70.080
2.62 268.780 70.794
2.63 271.960 71.220
2.64 274.153 71.121
2.65 275.369 70.620
2.66 271.377 69.980
2.67 265.121 68.653
2.68 259.474 65.560
2.69 254.649 60.224
2.70 266.317 55.845
2.71 272.115 54.715
2.72 --undefined-- 51.856
2.73 --undefined-- 48.863
2.74 --undefined-- 50.042
2.75 --undefined-- 52.011
2.76 --undefined-- 52.300
2.77 --undefined-- 50.277
2.78 --undefined-- 48.482
2.79 --undefined-- 48.769
2.80 --undefined-- 48.860
2.81 --undefined-- 49.266
2.82 --undefined-- 49.614
2.83 --undefined-- 51.293
2.84 --undefined-- 54.643
2.85 --undefined-- 56.128
2.86 --undefined-- 55.243
2.87 --undefined-- 55.158
2.88 --undefined-- 55.761
2.89 --undefined-- 54.954
2.90 --undefined-- 54.138
2.91 --undefined-- 55.183
2.92 --undefined-- 59.495
2.93 291.553 64.528
2.94 278.609 67.212
2.95 273.749 67.632
2.96 269.319 66.732
2.97 268.131 65.758
2.98 267.635 65.639
2.99 266.050 65.788
3.00 266.395 65.698
3.01 266.239 65.588
3.02 266.581 65.534
3.03 267.924 65.472
3.04 268.499 65.525
3.05 268.829 65.719
3.06 268.403 65.815
3.07 266.156 65.734
3.08 263.276 65.625
3.09 260.742 65.534
3.10 257.965 65.392
3.11 255.774 65.262
3.12 252.624 64.909
3.13 247.229 63.365
3.14 239.459 59.579
3.15 --undefined-- 53.707
3.16 --undefined-- 53.668
3.17 --undefined-- 58.291
3.18 --undefined-- 63.272
3.19 211.246 66.787
3.20 202.382 68.270
3.21 196.424 68.843
3.22 193.414 69.755
3.23 191.728 70.533
3.24 189.805 70.582
3.25 189.751 70.014
3.26 190.708 68.937
3.27 192.529 67.829
3.28 193.451 67.250
3.29 193.608 67.168
3.30 193.077 67.485
3.31 192.809 68.066
3.32 194.514 68.334
3.33 197.006 67.606
3.34 199.409 65.568
3.35 202.065 63.238
3.36 215.695 64.567
3.37 218.383 67.274
3.38 221.476 68.426
3.39 226.160 68.601
3.40 231.321 68.863
3.41 233.969 69.568
3.42 237.399 70.241
3.43 240.873 70.340
3.44 242.501 69.480
3.45 245.538 67.806
3.46 251.793 66.479
3.47 255.825 66.174
3.48 259.652 66.042
3.49 262.949 65.204
3.50 260.183 62.990
3.51 252.743 58.731
3.52 --undefined-- 52.820
3.53 --undefined-- 50.859
3.54 --undefined-- 52.149
3.55 --undefined-- 51.713
3.56 --undefined-- 51.062
3.57 --undefined-- 52.192
3.58 --undefined-- 53.349
3.59 --undefined-- 53.482
3.60 --undefined-- 53.415
3.61 --undefined-- 53.793
3.62 --undefined-- 55.081
3.63 234.226 59.201
3.64 232.924 63.138
3.65 216.571 65.697
3.66 199.212 67.539
3.67 190.109 68.739
3.68 187.669 68.726
3.69 185.662 66.896
3.70 184.975 62.803
3.71 --undefined-- 56.611
3.72 --undefined-- 51.459
3.73 --undefined-- 52.537
3.74 --undefined-- 58.654
3.75 193.630 63.722
3.76 190.513 66.433
3.77 182.517 67.497
3.78 172.529 67.497
3.79 169.363 66.995
3.80 168.754 66.283
3.81 170.437 65.596
3.82 175.665 65.227
3.83 175.135 64.357
3.84 168.922 61.711
3.85 --undefined-- 56.951
3.86 --undefined-- 52.984
3.87 --undefined-- 51.119
3.88 --undefined-- 47.770
3.89 --undefined-- 47.552
3.90 --undefined-- 50.655
3.91 --undefined-- 50.977
3.92 --undefined-- 49.661
3.93 --undefined-- 49.787
3.94 --undefined-- 50.035
3.95 --undefined-- 52.245
3.96 --undefined-- 55.799
3.97 --undefined-- 58.025
3.98 --undefined-- 61.999
3.99 257.024 65.916
4.00 253.490 67.719
4.01 248.856 67.704
4.02 243.420 66.615
4.03 241.214 65.400
4.04 243.192 64.816
4.05 246.752 64.822
4.06 247.727 65.016
4.07 248.500 65.141
4.08 247.971 65.228
4.09 247.004 65.257
4.10 245.020 65.041
4.11 241.580 64.371
4.12 237.740 62.985
4.13 231.947 60.291
4.14 223.274 55.495
4.15 --undefined-- 51.032
4.16 --undefined-- 49.517
4.17 --undefined-- 48.141
4.18 --undefined-- 49.089
4.19 --undefined-- 50.274
4.20 --undefined-- 52.605
4.21 209.862 55.990
4.22 204.346 57.694
4.23 200.799 57.917
4.24 159.989 57.711
4.25 161.070 57.767
4.26 178.290 58.090
4.27 --undefined-- 58.338
4.28 --undefined-- 59.398
4.29 176.942 60.438
4.30 183.460 60.025
4.31 176.877 59.263
4.32 169.097 58.718
4.33 --undefined-- 56.654
4.34 --undefined-- 53.059
4.35 --undefined-- 50.727
4.36 --undefined-- 49.926
4.37 --undefined-- 49.232
4.38 --undefined-- 48.331
4.39 --undefined-- 46.744
4.40 --undefined-- 48.049
4.41 --undefined-- 53.823
4.42 --undefined-- 57.397
4.43 188.629 59.377
4.44 197.051 60.547
4.45 199.997 61.222
4.46 196.211 61.761
4.47 175.994 61.903
4.48 166.885 60.969
4.49 154.885 59.101
4.50 154.507 57.666
4.51 159.080 56.896
4.52 156.144 55.964
4.53 157.257 55.553
4.54 159.683 55.799
4.55 166.391 55.706
4.56 174.511 55.839
4.57 181.549 57.300
4.58 185.726 58.889
4.59 187.648 59.970
4.60 188.918 61.011
4.61 184.384 62.514
4.62 178.286 64.354
4.63 174.389 65.664
4.64 171.855 66.184
4.65 171.537 66.158
4.66 171.884 65.567
4.67 171.860 64.049
4.68 170.779 61.312
4.69 --undefined-- 58.016
4.70 --undefined-- 55.882
4.71 --undefined-- 55.442
4.72 --undefined-- 54.701
4.73 --undefined-- 53.104
4.74 --undefined-- 51.027
4.75 --undefined-- 48.325
4.76 --undefined-- 46.667
4.77 --undefined-- 47.886
4.78 --undefined-- 50.055
4.79 --undefined-- 51.271
4.80 --undefined-- 53.902
4.81 --undefined-- 59.176
4.82 214.306 64.144
4.83 199.981 67.977
4.84 193.240 71.138
4.85 191.857 73.501
4.86 190.183 74.489
4.87 188.586 74.419
4.88 188.207 74.161
4.89 188.790 74.264
4.90 189.349 74.551
4.91 189.929 74.697
4.92 190.077 74.624
4.93 189.650 74.396
4.94 188.264 74.098
4.95 185.741 73.753
4.96 181.634 73.380
4.97 173.250 72.676
4.98 168.713 70.971
4.99 --undefined-- 68.016
5.00 --undefined-- 64.130
5.01 --undefined-- 59.456
5.02 --undefined-- 54.907
5.03 --undefined-- 51.926
5.04 --undefined-- 49.200
5.05 --undefined-- 46.767
5.06 --undefined-- 45.485
5.07 --undefined-- 43.172
5.08 --undefined-- 41.396
5.09 --undefined-- 43.047
5.10 --undefined-- 46.360
5.11 --undefined-- 48.137
5.12 --undefined-- --undefined--
5.13 --undefined-- --undefined--
5.14 --undefined-- --undefined--
5.15 --undefined-- --undefined--
