Time Pitch Intensity
0.01 --undefined-- --undefined--
0.02 --undefined-- --undefined--
0.03 --undefined-- --undefined--
0.04 --undefined-- --undefined--
0.05 --undefined-- 57.015
0.06 --undefined-- 60.387
0.07 --undefined-- 67.673
0.08 182.084 73.426
0.09 172.297 76.310
0.10 166.664 77.446
0.11 164.093 77.910
0.12 163.166 78.157
0.13 163.362 78.330
0.14 162.534 78.502
0.15 162.288 78.591
0.16 161.874 78.446
0.17 160.329 77.925
0.18 158.066 77.301
0.19 157.745 76.992
0.20 154.016 76.845
0.21 149.276 76.355
0.22 143.785 75.229
0.23 138.770 73.323
0.24 126.525 71.105
0.25 118.472 70.693
0.26 112.683 72.265
0.27 109.625 74.035
0.28 104.085 75.125
0.29 97.582 75.284
0.30 92.275 74.615
0.31 89.842 73.412
0.32 87.881 72.078
0.33 87.970 71.158
0.34 89.039 70.430
0.35 84.330 68.815
0.36 87.014 66.902
0.37 94.573 68.065
0.38 101.944 70.439
0.39 105.564 72.260
0.40 112.439 73.944
0.41 120.423 75.370
0.42 120.730 76.131
0.43 126.943 76.421
0.44 130.595 76.673
0.45 134.710 77.141
0.46 137.039 77.698
0.47 142.342 78.094
0.48 144.621 78.059
0.49 145.513 77.360
0.50 144.121 75.662
0.51 140.180 72.581
0.52 142.635 68.726
0.53 138.139 64.938
0.54 135.069 61.555
0.55 134.883 64.973
0.56 140.305 70.896
0.57 134.528 74.215
0.58 121.730 75.156
0.59 113.360 74.751
0.60 107.258 74.136
0.61 104.300 73.902
0.62 102.182 73.967
0.63 102.037 74.058
0.64 102.339 73.978
0.65 104.266 73.886
0.66 105.204 73.819
0.67 104.661 73.181
0.68 100.964 71.072
0.69 102.654 67.408
0.70 108.537 64.024
0.71 110.081 61.038
0.72 105.610 57.159
0.73 --undefined-- 54.341
0.74 --undefined-- 55.182
0.75 --undefined-- 57.577
0.76 --undefined-- 64.247
0.77 --undefined-- 71.238
0.78 132.054 74.667
0.79 129.730 75.132
0.80 120.049 74.263
0.81 115.793 73.242
0.82 111.379 71.949
0.83 113.903 71.697
0.84 115.261 72.916
0.85 114.634 73.968
0.86 115.080 74.497
0.87 116.214 74.807
0.88 117.769 75.086
0.89 119.184 75.318
0.90 120.292 75.518
0.91 122.713 75.661
0.92 123.255 75.330
0.93 119.948 73.959
0.94 116.437 71.135
0.95 115.746 66.586
0.96 112.062 61.375
0.97 111.943 63.700
0.98 127.150 70.387
0.99 133.746 74.323
1.00 118.775 75.454
1.01 112.713 75.116
1.02 103.795 74.532
1.03 99.396 73.773
1.04 96.403 72.541
1.05 94.956 70.231
1.06 94.579 66.985
1.07 93.403 65.037
1.08 95.292 66.464
1.09 106.125 70.398
1.10 109.774 73.351
1.11 107.199 74.669
1.12 107.585 74.973
1.13 108.310 74.984
1.14 108.576 74.946
1.15 108.490 74.856
1.16 107.936 74.730
1.17 107.231 74.425
1.18 105.538 74.039
1.19 101.010 73.783
1.20 99.874 73.108
1.21 96.770 71.335
1.22 82.956 70.536
1.23 105.685 71.826
1.24 105.774 72.672
1.25 103.335 72.915
1.26 102.718 73.029
1.27 102.390 73.057
1.28 103.604 73.058
1.29 106.451 73.111
1.30 110.205 73.078
1.31 114.672 73.222
1.32 122.659 73.880
1.33 131.849 74.656
1.34 136.107 75.252
1.35 137.775 75.195
1.36 140.824 73.940
1.37 142.467 71.572
1.38 143.343 69.419
1.39 143.629 69.198
1.40 144.205 71.049
1.41 146.185 73.592
1.42 146.906 75.800
1.43 147.126 77.155
1.44 147.115 77.650
1.45 145.875 77.606
1.46 144.434 76.957
1.47 143.005 75.075
1.48 140.019 72.837
1.49 143.723 73.903
1.50 146.431 75.921
1.51 148.632 76.865
1.52 143.926 76.876
1.53 141.118 76.496
1.54 138.673 76.219
1.55 137.469 76.123
1.56 136.781 76.085
1.57 135.546 75.798
1.58 132.436 74.973
1.59 130.019 73.377
1.60 129.448 71.106
1.61 127.070 69.078
1.62 124.542 67.565
1.63 118.041 66.250
1.64 121.574 66.206
1.65 125.556 68.064
1.66 130.684 70.710
1.67 134.531 73.033
1.68 136.584 74.561
1.69 137.184 74.941
1.70 136.360 73.983
1.71 133.705 71.912
1.72 131.858 69.138
1.73 133.131 65.618
1.74 134.352 61.488
1.75 138.695 58.047
1.76 --undefined-- 57.866
1.77 --undefined-- 59.653
1.78 --undefined-- 58.402
1.79 --undefined-- 52.902
1.80 --undefined-- 45.945
1.81 --undefined-- 45.606
1.82 --undefined-- 44.825
1.83 --undefined-- 43.286
1.84 --undefined-- 42.285
1.85 --undefined-- 40.613
1.86 --undefined-- 39.238
1.87 --undefined-- 49.643
1.88 --undefined-- 62.448
1.89 --undefined-- 70.280
1.90 --undefined-- 74.056
1.91 152.451 74.665
1.92 148.255 73.059
1.93 143.413 70.052
1.94 139.253 65.601
1.95 148.961 59.618
1.96 148.992 54.092
1.97 --undefined-- 51.078
1.98 --undefined-- 49.562
1.99 --undefined-- 48.470
2.00 --undefined-- 46.627
2.01 --undefined-- 43.971
2.02 --undefined-- 45.790
2.03 --undefined-- 49.630
2.04 --undefined-- 50.147
2.05 --undefined-- 47.272
2.06 --undefined-- 45.460
2.07 --undefined-- 47.284
2.08 --undefined-- 46.738
2.09 --undefined-- 43.039
2.10 --undefined-- 39.410
2.11 --undefined-- 39.446
2.12 --undefined-- 40.315
2.13 --undefined-- 41.008
2.14 --undefined-- 42.147
2.15 --undefined-- 52.809
2.16 --undefined-- 63.816
2.17 --undefined-- 70.488
2.18 --undefined-- 73.675
2.19 112.589 74.503
2.20 105.353 74.306
2.21 102.736 74.090
2.22 99.977 74.256
2.23 98.956 74.792
2.24 98.064 75.380
2.25 97.582 75.599
2.26 96.395 75.234
2.27 95.876 74.499
2.28 95.640 73.915
2.29 95.228 73.734
2.30 95.367 73.774
2.31 95.221 73.842
2.32 95.131 73.866
2.33 95.214 73.856
2.34 95.461 73.831
2.35 95.712 73.728
2.36 96.319 73.566
2.37 97.117 73.235
2.38 97.812 72.323
2.39 97.947 70.508
2.40 97.057 67.775
2.41 99.544 65.000
2.42 102.837 62.965
2.43 106.218 60.788
2.44 112.509 57.778
2.45 --undefined-- 57.843
2.46 --undefined-- 64.613
2.47 --undefined-- 70.670
2.48 --undefined-- 73.862
2.49 112.321 74.630
2.50 109.846 74.341
2.51 108.171 74.152
2.52 107.364 74.124
2.53 106.665 74.129
2.54 105.818 74.050
2.55 105.030 73.904
2.56 104.361 73.818
2.57 104.465 73.791
2.58 105.260 73.875
2.59 107.093 74.128
2.60 109.005 74.457
2.61 110.860 74.612
2.62 110.674 74.261
2.63 110.191 73.722
2.64 120.847 73.748
2.65 127.408 74.610
2.66 133.444 76.191
2.67 139.576 77.708
2.68 144.018 78.477
2.69 148.800 78.472
2.70 152.105 77.966
2.71 151.175 77.373
2.72 149.729 76.956
2.73 149.637 76.706
2.74 149.977 76.624
2.75 150.253 76.631
2.76 150.557 76.661
2.77 150.661 76.706
2.78 150.856 76.839
2.79 150.982 77.013
2.80 151.458 77.078
2.81 151.617 77.039
2.82 151.466 77.007
2.83 150.541 76.817
2.84 148.907 76.141
2.85 147.817 74.498
2.86 147.264 71.258
2.87 149.443 66.278
2.88 153.360 61.898
2.89 --undefined-- 61.195
2.90 --undefined-- 61.209
2.91 --undefined-- 61.245
2.92 --undefined-- 61.104
2.93 --undefined-- 61.967
2.94 --undefined-- 68.774
2.95 175.254 74.453
2.96 164.894 77.152
2.97 156.557 77.689
2.98 149.228 77.041
2.99 144.055 76.432
3.00 142.054 76.298
3.01 140.321 75.892
3.02 137.914 75.091
3.03 136.835 74.364
3.04 135.799 73.868
3.05 134.754 73.694
3.06 134.268 73.749
3.07 132.441 73.595
3.08 130.960 72.855
3.09 127.825 71.348
3.10 123.630 69.154
3.11 117.299 66.727
3.12 112.398 64.974
3.13 108.998 64.549
3.14 102.946 65.296
3.15 103.124 66.661
3.16 100.500 68.120
3.17 99.788 69.458
3.18 99.691 70.615
3.19 99.690 71.595
3.20 100.273 72.435
3.21 100.546 73.207
3.22 102.142 73.966
3.23 103.319 74.777
3.24 106.241 75.543
3.25 107.933 75.895
3.26 110.064 75.025
3.27 109.031 72.083
3.28 106.531 67.173
3.29 112.443 62.321
3.30 109.521 58.010
3.31 --undefined-- 53.054
3.32 --undefined-- 49.279
3.33 --undefined-- 50.783
3.34 --undefined-- 61.312
3.35 --undefined-- 69.274
3.36 --undefined-- 73.551
3.37 --undefined-- 75.063
3.38 97.019 75.081
3.39 95.789 74.776
3.40 95.558 74.441
3.41 95.733 74.169
3.42 95.968 74.057
3.43 96.598 74.225
3.44 97.388 74.503
3.45 98.099 74.575
3.46 97.948 74.482
3.47 97.846 74.390
3.48 97.695 74.283
3.49 98.090 73.877
3.50 97.046 72.764
3.51 95.492 70.520
3.52 95.782 66.908
3.53 101.681 62.427
3.54 113.838 58.157
3.55 --undefined-- 56.297
3.56 --undefined-- 58.430
3.57 --undefined-- 60.781
3.58 118.684 65.948
3.59 128.677 71.992
3.60 140.000 75.475
3.61 139.050 76.393
3.62 139.850 76.084
3.63 139.334 75.578
3.64 135.769 75.081
3.65 134.888 75.174
3.66 135.197 75.714
3.67 134.452 76.028
3.68 133.152 75.678
3.69 129.823 74.105
3.70 124.084 70.770
3.71 124.301 65.990
3.72 122.653 64.148
3.73 136.326 69.044
3.74 131.538 73.198
3.75 122.488 75.099
3.76 117.726 75.631
3.77 114.751 75.425
3.78 108.977 74.675
3.79 107.115 74.030
3.80 106.469 73.208
3.81 106.831 71.560
3.82 112.823 68.814
3.83 102.350 64.246
3.84 106.022 58.475
3.85 110.418 55.373
3.86 113.896 55.160
3.87 --undefined-- 56.024
3.88 --undefined-- 55.939
3.89 --undefined-- 54.790
3.90 --undefined-- 54.473
3.91 --undefined-- 55.485
3.92 --undefined-- 56.199
3.93 --undefined-- 55.244
3.94 --undefined-- 53.953
3.95 --undefined-- 53.447
3.96 --undefined-- 52.669
3.97 --undefined-- 52.285
3.98 --undefined-- 56.063
3.99 --undefined-- 65.952
4.00 167.889 72.630
4.01 166.280 75.549
4.02 152.949 75.663
4.03 148.260 73.866
4.04 146.401 71.352
4.05 144.799 69.341
4.06 142.939 68.186
4.07 141.173 67.770
4.08 140.735 68.019
4.09 140.323 68.390
4.10 139.144 69.098
4.11 138.204 70.588
4.12 143.661 72.729
4.13 142.936 74.747
4.14 144.388 76.254
4.15 145.136 77.010
4.16 144.572 76.909
4.17 145.072 76.820
4.18 149.343 77.402
4.19 148.356 77.876
4.20 147.297 78.068
4.21 146.474 78.027
4.22 145.151 77.564
4.23 142.576 76.366
4.24 141.241 74.056
4.25 136.995 70.154
4.26 125.934 64.622
4.27 126.016 59.580
4.28 --undefined-- 61.444
4.29 --undefined-- 68.311
4.30 --undefined-- 73.374
4.31 119.723 75.914
4.32 118.629 76.562
4.33 116.002 76.346
4.34 113.902 76.105
4.35 113.621 76.090
4.36 113.567 76.048
4.37 114.053 75.941
4.38 115.490 75.766
4.39 116.365 75.133
4.40 116.459 73.387
4.41 120.026 70.565
4.42 126.017 68.222
4.43 129.445 67.344
4.44 130.359 67.512
4.45 131.985 68.273
4.46 134.779 69.286
4.47 137.381 70.539
4.48 140.748 72.114
4.49 142.230 73.696
4.50 143.466 74.912
4.51 144.416 75.653
4.52 145.153 75.950
4.53 146.341 75.763
4.54 145.617 74.766
4.55 144.210 72.669
4.56 142.965 70.120
4.57 141.191 69.396
4.58 147.372 71.418
4.59 153.414 74.597
4.60 157.697 77.091
4.61 157.624 78.160
4.62 156.073 78.225
4.63 150.646 77.526
4.64 144.578 75.777
4.65 136.669 74.834
4.66 130.534 75.592
4.67 121.975 75.895
4.68 118.393 75.567
4.69 96.867 74.892
4.70 97.936 73.986
4.71 89.830 73.029
4.72 84.265 72.020
4.73 80.975 71.165
4.74 86.962 70.893
4.75 84.773 70.734
4.76 84.490 70.003
4.77 84.671 68.715
4.78 87.674 68.254
4.79 93.325 69.267
4.80 94.412 70.252
4.81 96.127 70.565
4.82 97.300 70.130
4.83 96.572 68.530
4.84 94.948 65.473
4.85 94.761 61.622
4.86 100.065 58.349
4.87 --undefined-- 58.793
4.88 --undefined-- 66.344
4.89 --undefined-- 72.411
4.90 125.169 75.237
4.91 124.325 75.889
4.92 119.309 75.551
4.93 116.135 74.860
4.94 115.322 73.960
4.95 114.574 72.544
4.96 112.265 69.982
4.97 110.565 65.908
4.98 115.635 60.993
4.99 118.765 56.598
5.00 117.257 52.217
5.01 --undefined-- 48.556
5.02 --undefined-- 46.718
5.03 --undefined-- 44.124
5.04 --undefined-- 41.141
5.05 --undefined-- 39.290
5.06 --undefined-- 39.787
5.07 --undefined-- 41.698
5.08 --undefined-- 43.068
5.09 --undefined-- 45.948
5.10 --undefined-- 53.012
5.11 --undefined-- 62.340
5.12 --undefined-- 70.420
5.13 168.491 75.094
5.14 166.751 77.056
5.15 164.469 77.473
5.16 161.388 77.657
5.17 159.048 77.872
5.18 157.012 77.933
5.19 155.170 77.855
5.20 154.188 77.776
5.21 155.145 77.660
5.22 157.053 77.446
5.23 157.169 77.265
5.24 156.857 77.174
5.25 156.499 --undefined--
5.26 156.319 --undefined--
5.27 --undefined-- --undefined--
5.28 --undefined-- --undefined--
