Time Pitch Intensity
0.01 --undefined-- --undefined--
0.02 103.625 --undefined--
0.03 100.848 --undefined--
0.04 89.770 --undefined--
0.05 --undefined-- 51.742
0.06 --undefined-- 46.185
0.07 --undefined-- 44.439
0.08 --undefined-- 52.307
0.09 --undefined-- 58.823
0.10 --undefined-- 64.452
0.11 146.653 68.386
0.12 123.200 70.310
0.13 121.505 70.945
0.14 118.985 70.858
0.15 116.305 70.059
0.16 115.856 68.955
0.17 116.352 68.633
0.18 116.313 68.946
0.19 115.051 69.054
0.20 113.158 68.924
0.21 112.023 68.677
0.22 111.982 68.393
0.23 113.069 68.341
0.24 114.172 68.825
0.25 113.549 69.662
0.26 112.843 70.371
0.27 111.284 70.540
0.28 108.591 70.136
0.29 105.396 69.401
0.30 97.412 68.264
0.31 89.372 66.735
0.32 89.562 65.132
0.33 87.296 63.785
0.34 86.954 62.735
0.35 94.664 62.590
0.36 89.418 62.698
0.37 95.859 62.486
0.38 104.534 61.822
0.39 --undefined-- 58.829
0.40 --undefined-- 52.400
0.41 --undefined-- 43.726
0.42 --undefined-- 40.638
0.43 --undefined-- 43.613
0.44 --undefined-- 53.100
0.45 --undefined-- 62.024
0.46 147.463 67.296
0.47 122.639 69.618
0.48 116.067 70.018
0.49 110.075 69.669
0.50 99.764 69.092
0.51 96.171 68.424
0.52 95.624 67.987
0.53 102.186 68.052
0.54 101.812 67.638
0.55 103.078 65.297
0.56 --undefined-- 60.105
0.57 --undefined-- 51.770
0.58 --undefined-- 42.307
0.59 --undefined-- 38.688
0.60 --undefined-- 39.198
0.61 --undefined-- 39.751
0.62 --undefined-- 42.040
0.63 --undefined-- 47.844
0.64 --undefined-- 52.921
0.65 --undefined-- 56.376
0.66 --undefined-- 62.967
0.67 --undefined-- 70.429
0.68 163.275 74.907
0.69 154.514 76.949
0.70 147.516 77.533
0.71 145.743 77.302
0.72 144.970 76.328
0.73 144.826 75.036
0.74 144.842 74.414
0.75 146.304 74.687
0.76 149.402 75.059
0.77 151.438 75.030
0.78 153.165 74.560
0.79 154.109 73.756
0.80 153.586 72.595
0.81 152.056 70.843
0.82 152.283 68.353
0.83 153.134 64.996
0.84 --undefined-- 60.865
0.85 --undefined-- 55.530
0.86 --undefined-- 47.629
0.87 --undefined-- 40.681
0.88 --undefined-- 38.865
0.89 --undefined-- 37.635
0.90 --undefined-- 36.122
0.91 --undefined-- 34.307
0.92 --undefined-- 34.136
0.93 --undefined-- 35.205
0.94 --undefined-- 35.819
0.95 --undefined-- 35.940
0.96 --undefined-- 35.683
0.97 --undefined-- 35.236
0.98 --undefined-- 36.087
0.99 --undefined-- 37.702
1.00 --undefined-- 37.710
1.01 --undefined-- 35.961
1.02 --undefined-- 34.428
1.03 --undefined-- 35.610
1.04 --undefined-- 38.203
1.05 --undefined-- 38.761
1.06 --undefined-- 36.968
1.07 --undefined-- 34.996
1.08 --undefined-- 34.202
1.09 --undefined-- 33.644
1.10 --undefined-- 33.087
1.11 --undefined-- 34.224
1.12 --undefined-- 35.943
1.13 --undefined-- 35.948
1.14 --undefined-- 34.698
1.15 --undefined-- 33.964
1.16 --undefined-- 35.285
1.17 --undefined-- 37.286
1.18 --undefined-- 38.135
1.19 --undefined-- 37.906
1.20 --undefined-- 37.817
1.21 --undefined-- 37.341
1.22 --undefined-- 35.997
1.23 --undefined-- 35.178
1.24 --undefined-- 35.181
1.25 --undefined-- 35.402
1.26 --undefined-- 35.167
1.27 --undefined-- 35.738
1.28 --undefined-- 37.291
1.29 --undefined-- 37.783
1.30 --undefined-- 37.497
1.31 --undefined-- 35.959
1.32 --undefined-- 34.763
1.33 --undefined-- 35.301
1.34 --undefined-- 35.713
1.35 --undefined-- 35.900
1.36 --undefined-- 35.565
1.37 --undefined-- 35.858
1.38 --undefined-- 39.189
1.39 --undefined-- 41.033
1.40 --undefined-- 39.964
1.41 --undefined-- 37.694
1.42 --undefined-- 36.162
1.43 --undefined-- 37.401
1.44 --undefined-- 39.809
1.45 --undefined-- 41.196
1.46 --undefined-- 41.720
1.47 --undefined-- 42.271
1.48 --undefined-- 43.380
1.49 --undefined-- 44.813
1.50 --undefined-- 45.892
1.51 --undefined-- 46.273
1.52 --undefined-- 46.562
1.53 --undefined-- 47.099
1.54 --undefined-- 47.528
1.55 --undefined-- 47.977
1.56 --undefined-- 48.432
1.57 --undefined-- 48.402
1.58 --undefined-- 47.669
1.59 --undefined-- 46.865
1.60 --undefined-- 46.389
1.61 --undefined-- 46.164
1.62 --undefined-- 45.813
1.63 --undefined-- 44.858
1.64 --undefined-- 43.694
1.65 --undefined-- 43.085
1.66 --undefined-- 43.519
1.67 --undefined-- 44.408
1.68 --undefined-- 48.655
1.69 --undefined-- 56.692
1.70 --undefined-- 62.212
1.71 --undefined-- 66.797
1.72 --undefined-- 70.907
1.73 135.779 73.655
1.74 135.878 75.165
1.75 133.434 75.716
1.76 130.669 75.508
1.77 130.296 75.023
1.78 131.315 74.629
1.79 132.779 74.299
1.80 131.223 73.800
1.81 128.655 72.421
1.82 127.625 69.642
1.83 --undefined-- 66.020
1.84 --undefined-- 62.948
1.85 75.029 60.664
1.86 99.661 60.631
1.87 107.550 64.225
1.88 121.748 68.147
1.89 128.434 70.875
1.90 131.018 72.629
1.91 132.128 73.803
1.92 132.142 74.593
1.93 132.023 75.098
1.94 133.112 75.415
1.95 133.808 75.633
1.96 134.993 75.793
1.97 136.487 75.962
1.98 139.744 76.295
1.99 143.428 76.746
2.00 144.175 76.681
2.01 141.027 75.195
2.02 135.178 71.636
2.03 109.649 66.423
2.04 --undefined-- 67.577
2.05 137.946 72.850
2.06 141.013 76.109
2.07 139.081 77.477
2.08 135.670 77.207
2.09 127.125 75.652
2.10 123.000 73.653
2.11 121.576 71.892
2.12 120.249 70.249
2.13 119.680 69.267
2.14 123.728 69.466
2.15 131.138 70.226
2.16 140.999 72.065
2.17 151.336 75.181
2.18 157.487 77.777
2.19 159.174 79.133
2.20 158.171 79.390
2.21 156.512 78.560
2.22 152.766 76.484
2.23 145.042 72.875
2.24 142.244 67.222
2.25 --undefined-- 60.056
2.26 --undefined-- 55.206
2.27 --undefined-- 53.099
2.28 --undefined-- 51.681
2.29 --undefined-- 50.955
2.30 --undefined-- 50.990
2.31 --undefined-- 55.048
2.32 --undefined-- 62.975
2.33 --undefined-- 68.082
2.34 120.791 70.315
2.35 123.176 70.961
2.36 119.910 71.227
2.37 126.416 71.771
2.38 130.123 72.633
2.39 135.246 73.377
2.40 145.305 74.219
2.41 152.257 74.752
2.42 160.266 73.985
2.43 170.815 72.641
2.44 173.426 72.168
2.45 171.863 71.578
2.46 168.747 69.775
2.47 162.722 67.735
2.48 159.308 68.107
2.49 157.023 70.751
2.50 155.910 73.907
2.51 153.918 76.187
2.52 148.756 76.669
2.53 141.753 75.598
2.54 138.060 74.072
2.55 135.505 72.559
2.56 128.182 70.773
2.57 121.354 68.490
2.58 113.910 65.761
2.59 105.371 62.902
2.60 77.200 60.040
2.61 --undefined-- 57.039
2.62 --undefined-- 54.303
2.63 --undefined-- 52.111
2.64 --undefined-- 49.941
2.65 --undefined-- 46.669
2.66 --undefined-- 42.100
2.67 --undefined-- 39.426
2.68 --undefined-- 37.653
2.69 --undefined-- 37.025
2.70 --undefined-- 36.960
2.71 --undefined-- 35.655
2.72 --undefined-- 35.102
2.73 --undefined-- 35.843
2.74 --undefined-- 36.326
2.75 --undefined-- 36.469
2.76 --undefined-- 37.637
2.77 --undefined-- 38.893
2.78 --undefined-- 38.922
2.79 --undefined-- 38.516
2.80 --undefined-- 39.502
2.81 --undefined-- 43.257
2.82 --undefined-- 47.730
2.83 --undefined-- 50.030
2.84 --undefined-- 50.446
2.85 --undefined-- 50.856
2.86 --undefined-- 51.402
2.87 --undefined-- 51.253
2.88 --undefined-- 51.948
2.89 --undefined-- 58.606
2.90 199.016 67.248
2.91 183.395 72.871
2.92 166.573 76.029
2.93 159.036 78.144
2.94 154.113 79.908
2.95 152.276 80.933
2.96 152.150 80.871
2.97 153.680 79.937
2.98 153.871 78.874
2.99 153.370 78.076
3.00 153.066 76.913
3.01 150.669 74.427
3.02 151.492 70.246
3.03 154.976 65.659
3.04 149.791 62.091
3.05 150.218 58.754
3.06 --undefined-- 59.696
3.07 --undefined-- 65.315
3.08 --undefined-- 69.619
3.09 196.350 73.672
3.10 189.765 76.417
3.11 183.262 77.449
3.12 177.546 77.627
3.13 174.813 77.722
3.14 174.176 77.801
3.15 176.058 77.757
3.16 178.350 77.626
3.17 179.184 77.456
3.18 179.546 77.335
3.19 178.550 77.238
3.20 175.346 76.735
3.21 170.762 75.390
3.22 168.145 73.479
3.23 162.709 72.284
3.24 154.082 73.093
3.25 148.954 75.111
3.26 --undefined-- 76.643
3.27 --undefined-- 76.925
3.28 119.408 76.379
3.29 115.974 75.793
3.30 113.953 75.162
3.31 111.657 73.985
3.32 --undefined-- 72.282
3.33 --undefined-- 70.166
3.34 --undefined-- 66.471
3.35 --undefined-- 60.222
3.36 --undefined-- 53.826
3.37 --undefined-- 58.421
3.38 --undefined-- 63.034
3.39 --undefined-- 63.936
3.40 --undefined-- 61.248
3.41 --undefined-- 55.637
3.42 --undefined-- 50.422
3.43 --undefined-- 47.535
3.44 --undefined-- 45.440
3.45 --undefined-- 50.414
3.46 --undefined-- 60.463
3.47 149.053 66.907
3.48 148.135 70.016
3.49 123.401 71.214
3.50 118.644 71.901
3.51 117.432 72.066
3.52 117.390 71.093
3.53 117.142 68.313
3.54 --undefined-- 62.907
3.55 --undefined-- 54.812
3.56 --undefined-- 48.176
3.57 --undefined-- 45.879
3.58 --undefined-- 45.039
3.59 --undefined-- 47.949
3.60 --undefined-- 55.686
3.61 --undefined-- 62.267
3.62 --undefined-- 67.237
3.63 132.912 70.371
3.64 127.375 71.923
3.65 123.162 72.307
3.66 119.660 71.528
3.67 117.648 70.103
3.68 117.838 70.361
3.69 112.570 71.523
3.70 111.673 71.868
3.71 111.776 71.624
3.72 111.290 71.162
3.73 110.404 70.704
3.74 110.061 70.601
3.75 108.749 70.858
3.76 108.400 70.588
3.77 107.265 69.083
3.78 --undefined-- 65.715
3.79 --undefined-- 59.517
3.80 --undefined-- 49.723
3.81 --undefined-- 41.751
3.82 --undefined-- 39.768
3.83 --undefined-- 39.355
3.84 --undefined-- 38.592
3.85 --undefined-- 37.489
3.86 --undefined-- 36.860
3.87 --undefined-- 35.899
3.88 --undefined-- 38.878
3.89 --undefined-- 52.653
3.90 --undefined-- 62.732
3.91 --undefined-- 68.653
3.92 121.820 71.592
3.93 113.843 72.653
3.94 108.847 72.770
3.95 106.578 72.628
3.96 106.156 72.614
3.97 105.374 72.806
3.98 103.585 72.959
3.99 102.652 72.818
4.00 103.647 72.409
4.01 104.397 72.134
4.02 103.799 71.857
4.03 102.731 71.190
4.04 102.019 70.325
4.05 102.167 69.587
4.06 102.593 69.080
4.07 102.536 68.601
4.08 101.001 67.768
4.09 101.227 66.460
4.10 76.663 64.325
4.11 75.600 60.724
4.12 --undefined-- 56.544
4.13 --undefined-- 53.950
4.14 --undefined-- 50.453
4.15 --undefined-- 44.516
4.16 --undefined-- 41.070
4.17 --undefined-- 40.235
4.18 --undefined-- 38.305
4.19 --undefined-- 39.563
4.20 --undefined-- 50.494
4.21 --undefined-- 59.172
4.22 --undefined-- 64.566
4.23 117.369 67.444
4.24 115.668 68.684
4.25 114.736 69.054
4.26 108.462 69.237
4.27 107.030 69.729
4.28 107.673 70.281
4.29 109.482 70.793
4.30 112.189 71.296
4.31 113.026 71.306
4.32 114.859 70.573
4.33 118.616 69.146
4.34 116.460 66.612
4.35 115.275 62.023
4.36 --undefined-- 55.152
4.37 --undefined-- 48.615
4.38 --undefined-- 46.407
4.39 --undefined-- 47.928
4.40 --undefined-- 54.673
4.41 --undefined-- 62.343
4.42 124.998 66.889
4.43 120.850 68.765
4.44 109.015 69.017
4.45 107.668 69.063
4.46 107.858 69.638
4.47 111.101 70.776
4.48 116.302 71.996
4.49 119.279 72.568
4.50 121.131 71.694
4.51 --undefined-- 68.520
4.52 --undefined-- 62.408
4.53 --undefined-- 53.898
4.54 --undefined-- 53.437
4.55 --undefined-- 62.316
4.56 --undefined-- 69.641
4.57 --undefined-- 73.976
4.58 147.749 75.934
4.59 144.332 76.215
4.60 142.393 75.085
4.61 140.466 72.038
4.62 --undefined-- 66.100
4.63 --undefined-- 56.733
4.64 --undefined-- 46.770
4.65 --undefined-- 43.287
4.66 --undefined-- 41.534
4.67 --undefined-- 40.275
4.68 --undefined-- 46.385
4.69 --undefined-- 55.110
4.70 --undefined-- 59.797
4.71 --undefined-- 60.561
4.72 --undefined-- 58.072
4.73 --undefined-- 55.958
4.74 --undefined-- 61.497
4.75 --undefined-- 66.901
4.76 110.165 69.711
4.77 107.557 70.563
4.78 106.276 70.417
4.79 102.453 70.120
4.80 99.555 69.555
4.81 96.603 68.442
4.82 94.955 67.489
4.83 96.436 67.156
4.84 97.441 67.271
4.85 98.328 67.515
4.86 98.701 67.543
4.87 98.030 67.255
4.88 97.105 66.694
4.89 96.089 65.895
4.90 97.399 65.166
4.91 --undefined-- 64.176
4.92 --undefined-- 62.496
4.93 --undefined-- 60.233
4.94 --undefined-- 57.058
4.95 --undefined-- 53.088
4.96 --undefined-- 47.677
4.97 --undefined-- 42.708
4.98 --undefined-- 42.254
4.99 --undefined-- 41.658
5.00 --undefined-- 40.523
5.01 --undefined-- 40.207
5.02 --undefined-- 39.833
5.03 --undefined-- 38.573
5.04 --undefined-- 37.373
5.05 --undefined-- 38.054
5.06 --undefined-- 39.421
5.07 --undefined-- 39.807
5.08 --undefined-- 39.378
5.09 --undefined-- 39.679
5.10 --undefined-- 39.797
5.11 --undefined-- 39.003
5.12 --undefined-- 38.528
5.13 --undefined-- 39.283
5.14 --undefined-- 39.650
5.15 --undefined-- 39.923
5.16 --undefined-- 41.160
5.17 --undefined-- 41.186
5.18 --undefined-- 39.608
5.19 --undefined-- 38.449
5.20 --undefined-- 39.407
5.21 --undefined-- 40.230
5.22 --undefined-- 39.490
5.23 --undefined-- 37.614
5.24 --undefined-- 36.854
5.25 --undefined-- 36.438
5.26 --undefined-- 35.050
5.27 --undefined-- 34.251
5.28 --undefined-- 35.065
5.29 --undefined-- 36.491
5.30 --undefined-- 37.360
5.31 --undefined-- 37.066
5.32 --undefined-- 34.948
5.33 --undefined-- 33.816
5.34 --undefined-- 35.372
5.35 --undefined-- 36.704
5.36 --undefined-- 37.489
5.37 --undefined-- 36.915
5.38 --undefined-- 35.457
5.39 --undefined-- 35.321
5.40 --undefined-- 36.299
5.41 --undefined-- 37.152
5.42 --undefined-- 37.089
5.43 --undefined-- 37.937
5.44 --undefined-- 48.050
5.45 --undefined-- 57.282
5.46 --undefined-- 63.736
5.47 167.130 68.482
5.48 146.200 71.350
5.49 145.559 71.841
5.50 145.882 69.631
5.51 134.244 64.992
5.52 122.505 60.723
5.53 124.267 62.861
5.54 154.944 68.399
5.55 155.140 72.076
5.56 157.077 73.933
5.57 156.316 74.646
5.58 154.876 74.760
5.59 153.701 74.073
5.60 151.843 71.928
5.61 138.423 68.007
5.62 132.643 62.305
5.63 --undefined-- 55.466
5.64 --undefined-- 49.853
5.65 --undefined-- 47.090
5.66 --undefined-- 45.863
5.67 --undefined-- 46.509
5.68 --undefined-- 52.195
5.69 --undefined-- 62.381
5.70 --undefined-- 69.584
5.71 --undefined-- 73.748
5.72 146.964 76.062
5.73 145.432 77.279
5.74 144.506 77.621
5.75 143.950 77.384
5.76 144.490 76.946
5.77 145.399 76.306
5.78 143.244 75.529
5.79 144.099 75.150
5.80 144.846 74.813
5.81 143.278 73.813
5.82 139.161 71.774
5.83 135.236 68.215
5.84 --undefined-- 63.324
5.85 --undefined-- 64.192
5.86 --undefined-- 70.749
5.87 137.977 74.901
5.88 134.133 76.782
5.89 129.811 77.339
5.90 125.499 77.168
5.91 121.971 76.664
5.92 119.040 76.040
5.93 118.643 75.201
5.94 120.447 74.330
5.95 120.093 73.476
5.96 120.072 71.809
5.97 115.563 68.197
5.98 --undefined-- 62.126
5.99 --undefined-- 54.998
6.00 --undefined-- 59.305
6.01 --undefined-- 64.522
6.02 --undefined-- 66.077
6.03 --undefined-- 67.515
6.04 137.391 70.850
6.05 123.046 72.823
6.06 121.959 73.491
6.07 120.280 73.766
6.08 117.837 73.899
6.09 117.297 74.046
6.10 117.370 74.305
6.11 118.022 74.726
6.12 118.634 75.171
6.13 118.905 75.585
6.14 118.884 75.930
6.15 120.394 75.848
6.16 121.198 75.055
6.17 123.196 73.119
6.18 127.155 69.420
6.19 115.237 64.301
6.20 115.976 58.949
6.21 --undefined-- 53.944
6.22 --undefined-- 48.981
6.23 --undefined-- 45.892
6.24 --undefined-- 44.968
6.25 --undefined-- 50.265
6.26 --undefined-- 59.153
6.27 --undefined-- 64.076
6.28 --undefined-- 66.340
6.29 160.426 69.237
6.30 151.821 72.172
6.31 145.623 73.762
6.32 143.142 74.536
6.33 142.231 75.335
6.34 142.026 76.338
6.35 142.818 77.203
6.36 144.199 77.833
6.37 145.827 78.430
6.38 146.834 78.761
6.39 146.683 78.430
6.40 146.427 77.430
6.41 146.063 76.085
6.42 143.190 74.955
6.43 143.785 74.684
6.44 145.159 74.787
6.45 143.466 74.439
6.46 140.170 73.406
6.47 137.177 71.228
6.48 131.394 67.141
6.49 --undefined-- 60.217
6.50 --undefined-- 50.777
6.51 --undefined-- 46.958
6.52 --undefined-- 50.451
6.53 --undefined-- --undefined--
6.54 --undefined-- --undefined--
6.55 --undefined-- --undefined--
6.56 --undefined-- --undefined--
