Time Pitch Intensity
0.01 --undefined-- --undefined--
0.02 103.075 --undefined--
0.03 105.056 --undefined--
0.04 116.109 --undefined--
0.05 117.023 61.748
0.06 118.433 62.672
0.07 119.039 62.104
0.08 119.879 61.063
0.09 120.938 60.823
0.10 117.874 60.911
0.11 --undefined-- 60.143
0.12 --undefined-- 58.038
0.13 --undefined-- 54.963
0.14 --undefined-- 54.472
0.15 --undefined-- 56.968
0.16 --undefined-- 59.925
0.17 --undefined-- 61.967
0.18 --undefined-- 62.042
0.19 --undefined-- 60.115
0.20 --undefined-- 58.001
0.21 --undefined-- 60.315
0.22 114.698 63.777
0.23 114.623 66.028
0.24 114.849 67.297
0.25 114.668 67.886
0.26 113.412 67.620
0.27 111.817 66.391
0.28 111.855 65.247
0.29 113.287 65.039
0.30 114.711 64.653
0.31 115.075 63.626
0.32 114.644 62.431
0.33 114.081 61.403
0.34 113.973 60.377
0.35 111.188 58.846
0.36 105.976 57.265
0.37 110.410 59.254
0.38 111.796 62.454
0.39 113.070 64.008
0.40 113.598 64.251
0.41 113.143 63.950
0.42 112.924 63.509
0.43 112.970 63.034
0.44 111.848 62.791
0.45 111.133 63.271
0.46 111.968 64.414
0.47 110.188 65.734
0.48 113.399 67.094
0.49 112.881 68.104
0.50 113.258 68.259
0.51 113.087 67.823
0.52 114.146 67.539
0.53 109.499 66.683
0.54 108.646 64.747
0.55 108.991 63.218
0.56 108.146 62.910
0.57 107.854 64.018
0.58 108.002 66.016
0.59 107.825 67.630
0.60 107.366 68.451
0.61 107.036 68.511
0.62 106.883 68.137
0.63 106.996 67.887
0.64 107.076 67.897
0.65 107.647 68.151
0.66 106.892 68.309
0.67 106.109 67.976
0.68 106.446 67.241
0.69 107.572 66.174
0.70 108.378 64.982
0.71 107.968 64.006
0.72 107.602 63.266
0.73 107.519 62.517
0.74 105.591 61.296
0.75 --undefined-- 58.891
0.76 --undefined-- 55.026
0.77 --undefined-- 49.709
0.78 --undefined-- 43.603
0.79 --undefined-- 40.351
0.80 --undefined-- 39.143
0.81 --undefined-- 37.485
0.82 --undefined-- 36.760
0.83 --undefined-- 38.517
0.84 --undefined-- 40.039
0.85 --undefined-- 40.648
0.86 --undefined-- 42.031
0.87 --undefined-- 43.817
0.88 --undefined-- 45.072
0.89 --undefined-- 45.995
0.90 --undefined-- 46.366
0.91 --undefined-- 45.843
0.92 --undefined-- 45.017
0.93 --undefined-- 44.122
0.94 --undefined-- 42.620
0.95 --undefined-- 41.224
0.96 --undefined-- 40.526
0.97 --undefined-- 40.293
0.98 --undefined-- 40.478
0.99 --undefined-- 40.667
1.00 --undefined-- 40.521
1.01 --undefined-- 40.470
1.02 --undefined-- 40.521
1.03 --undefined-- 39.824
1.04 --undefined-- 38.902
1.05 --undefined-- 38.940
1.06 --undefined-- 39.229
1.07 --undefined-- 38.955
1.08 --undefined-- 37.998
1.09 --undefined-- 40.029
1.10 --undefined-- 48.529
1.11 --undefined-- 53.980
1.12 --undefined-- 57.552
1.13 --undefined-- 61.959
1.14 --undefined-- 65.178
1.15 --undefined-- 66.018
1.16 --undefined-- 64.056
1.17 --undefined-- 59.086
1.18 --undefined-- 52.887
1.19 95.322 50.891
1.20 95.616 51.062
1.21 95.072 51.538
1.22 94.911 55.570
1.23 --undefined-- 61.720
1.24 --undefined-- 66.120
1.25 91.601 68.355
1.26 90.659 68.849
1.27 91.147 68.333
1.28 92.523 67.572
1.29 94.560 66.069
1.30 93.505 63.106
1.31 --undefined-- 58.710
1.32 --undefined-- 53.638
1.33 --undefined-- 49.651
1.34 --undefined-- 46.962
1.35 --undefined-- 45.640
1.36 --undefined-- 45.870
1.37 --undefined-- 46.328
1.38 --undefined-- 47.076
1.39 --undefined-- 48.918
1.40 --undefined-- 51.751
1.41 --undefined-- 53.834
1.42 --undefined-- 57.590
1.43 --undefined-- 65.363
1.44 --undefined-- 71.144
1.45 126.248 73.695
1.46 126.931 73.758
1.47 122.669 72.511
1.48 120.392 71.080
1.49 118.953 69.643
1.50 119.300 67.970
1.51 119.555 65.909
1.52 119.484 63.136
1.53 119.894 59.928
1.54 118.229 56.644
1.55 116.937 52.981
1.56 --undefined-- 48.781
1.57 --undefined-- 45.309
1.58 --undefined-- 43.885
1.59 --undefined-- 44.475
1.60 --undefined-- 47.678
1.61 --undefined-- 51.101
1.62 --undefined-- 52.986
1.63 --undefined-- 56.581
1.64 136.950 62.358
1.65 136.058 65.999
1.66 126.725 67.086
1.67 124.671 66.237
1.68 120.657 63.972
1.69 --undefined-- 60.693
1.70 --undefined-- 58.743
1.71 --undefined-- 59.277
1.72 --undefined-- 59.808
1.73 --undefined-- 59.973
1.74 --undefined-- 59.210
1.75 --undefined-- 57.359
1.76 --undefined-- 56.317
1.77 --undefined-- 56.925
1.78 --undefined-- 57.796
1.79 --undefined-- 58.344
1.80 --undefined-- 58.193
1.81 --undefined-- 60.680
1.82 --undefined-- 66.594
1.83 123.570 70.085
1.84 123.909 71.083
1.85 122.110 70.859
1.86 120.126 70.418
1.87 119.038 69.721
1.88 119.664 68.499
1.89 121.101 67.082
1.90 121.473 66.272
1.91 121.510 66.302
1.92 121.461 66.355
1.93 120.865 65.996
1.94 119.799 65.264
1.95 118.314 64.008
1.96 --undefined-- 62.048
1.97 --undefined-- 59.027
1.98 --undefined-- 55.582
1.99 --undefined-- 52.799
2.00 --undefined-- 50.635
2.01 --undefined-- 50.267
2.02 --undefined-- 51.826
2.03 --undefined-- 54.136
2.04 --undefined-- 57.568
2.05 --undefined-- 63.237
2.06 119.929 67.557
2.07 118.900 69.518
2.08 117.891 69.743
2.09 116.549 69.318
2.10 115.078 69.144
2.11 114.309 69.122
2.12 114.618 68.900
2.13 114.905 68.597
2.14 115.087 68.422
2.15 114.896 68.116
2.16 114.270 67.600
2.17 113.866 66.985
2.18 113.817 65.966
2.19 110.410 63.938
2.20 106.943 59.925
2.21 --undefined-- 53.121
2.22 --undefined-- 44.884
2.23 --undefined-- 40.268
2.24 --undefined-- 38.483
2.25 --undefined-- 37.363
2.26 --undefined-- 45.234
2.27 --undefined-- 56.585
2.28 --undefined-- 62.823
2.29 --undefined-- 64.395
2.30 --undefined-- 61.667
2.31 --undefined-- 56.133
2.32 --undefined-- 54.523
2.33 --undefined-- 54.478
2.34 --undefined-- 53.413
2.35 --undefined-- 55.129
2.36 115.146 59.168
2.37 109.213 61.465
2.38 105.779 62.027
2.39 103.723 61.893
2.40 101.711 61.635
2.41 100.330 61.324
2.42 101.009 61.069
2.43 101.510 60.830
2.44 101.136 60.671
2.45 101.320 60.725
2.46 102.425 60.891
2.47 102.756 61.070
2.48 102.644 61.066
2.49 102.186 60.776
2.50 101.195 60.169
2.51 99.401 58.644
2.52 96.505 55.373
2.53 --undefined-- 49.856
2.54 --undefined-- 43.150
2.55 --undefined-- 39.130
2.56 --undefined-- 37.059
2.57 --undefined-- 37.709
2.58 --undefined-- 43.655
2.59 --undefined-- 50.553
2.60 --undefined-- 54.141
2.61 --undefined-- 55.230
2.62 --undefined-- 56.084
2.63 --undefined-- 56.851
2.64 --undefined-- 56.506
2.65 --undefined-- 55.590
2.66 --undefined-- 56.544
2.67 --undefined-- 61.206
2.68 --undefined-- 65.076
2.69 125.149 66.990
2.70 126.454 67.761
2.71 127.399 68.022
2.72 128.970 68.128
2.73 130.472 68.202
2.74 131.400 68.053
2.75 131.653 67.533
2.76 132.016 66.771
2.77 132.637 65.932
2.78 133.374 64.984
2.79 133.067 63.838
2.80 131.777 62.365
2.81 129.593 60.762
2.82 127.753 59.510
2.83 124.803 59.012
2.84 122.438 59.160
2.85 116.795 59.529
2.86 111.656 59.744
2.87 105.248 59.646
2.88 100.509 59.199
2.89 95.087 58.026
2.90 90.405 56.406
2.91 85.997 55.489
2.92 83.421 55.874
2.93 80.892 57.287
2.94 88.178 59.111
2.95 84.256 60.728
2.96 83.843 61.449
2.97 83.562 60.800
2.98 86.029 59.452
2.99 87.381 58.117
3.00 81.244 57.575
3.01 --undefined-- 60.054
3.02 --undefined-- 63.086
3.03 --undefined-- 64.769
3.04 --undefined-- 65.313
3.05 --undefined-- 65.911
3.06 --undefined-- 67.170
3.07 --undefined-- 68.058
3.08 98.376 68.431
3.09 100.702 68.396
3.10 100.990 68.156
3.11 101.351 67.656
3.12 101.706 66.550
3.13 96.733 64.470
3.14 95.778 61.301
3.15 --undefined-- 57.005
3.16 --undefined-- 50.878
3.17 --undefined-- 43.466
3.18 --undefined-- 37.844
3.19 --undefined-- 35.731
3.20 --undefined-- 37.899
3.21 --undefined-- 39.700
3.22 --undefined-- 39.883
3.23 --undefined-- 39.646
3.24 --undefined-- 39.754
3.25 --undefined-- 40.928
3.26 --undefined-- 42.953
3.27 --undefined-- 45.129
3.28 --undefined-- 46.834
3.29 --undefined-- 47.212
3.30 --undefined-- 47.335
3.31 --undefined-- 48.160
3.32 --undefined-- 49.056
3.33 --undefined-- 49.738
3.34 --undefined-- 50.138
3.35 --undefined-- 51.290
3.36 --undefined-- 52.770
3.37 --undefined-- 53.665
3.38 --undefined-- 53.489
3.39 --undefined-- 52.399
3.40 --undefined-- 51.862
3.41 --undefined-- 52.042
3.42 --undefined-- 52.133
3.43 --undefined-- 51.745
3.44 --undefined-- 50.626
3.45 --undefined-- 48.742
3.46 --undefined-- 46.407
3.47 --undefined-- 44.591
3.48 --undefined-- 43.515
3.49 --undefined-- 42.284
3.50 --undefined-- 40.941
3.51 --undefined-- 40.176
3.52 --undefined-- 39.931
3.53 --undefined-- 39.623
3.54 --undefined-- 39.288
3.55 --undefined-- 38.664
3.56 --undefined-- 37.982
3.57 --undefined-- 39.616
3.58 --undefined-- 49.664
3.59 --undefined-- 58.218
3.60 --undefined-- 62.887
3.61 --undefined-- 65.577
3.62 --undefined-- 66.744
3.63 --undefined-- 66.942
3.64 --undefined-- 68.753
3.65 123.978 69.940
3.66 119.571 69.947
3.67 119.816 69.927
3.68 119.820 70.086
3.69 119.640 70.205
3.70 120.017 70.189
3.71 121.171 70.560
3.72 122.066 71.185
3.73 122.930 71.181
3.74 124.727 70.261
3.75 125.360 68.859
3.76 126.341 68.184
3.77 131.883 69.553
3.78 141.469 71.822
3.79 143.606 73.505
3.80 144.333 74.129
3.81 144.379 73.797
3.82 145.337 72.554
3.83 147.520 70.512
3.84 148.094 67.718
3.85 147.894 63.546
3.86 148.846 57.622
3.87 149.510 53.464
3.88 147.770 53.667
3.89 145.835 55.037
3.90 143.425 58.131
3.91 138.862 64.177
3.92 136.988 69.736
3.93 134.247 72.966
3.94 130.786 74.071
3.95 127.965 73.733
3.96 124.468 72.630
3.97 121.279 71.178
3.98 120.758 69.326
3.99 120.614 66.798
4.00 118.623 63.692
4.01 114.406 59.978
4.02 109.272 55.276
4.03 115.784 52.148
4.04 115.684 51.711
4.05 115.094 51.298
4.06 --undefined-- 50.310
4.07 --undefined-- 48.565
4.08 --undefined-- 45.720
4.09 --undefined-- 41.818
4.10 --undefined-- 39.340
4.11 --undefined-- 38.110
4.12 --undefined-- 37.511
4.13 --undefined-- 38.068
4.14 --undefined-- 38.291
4.15 --undefined-- 38.625
4.16 --undefined-- 40.167
4.17 --undefined-- 41.266
4.18 --undefined-- 41.259
4.19 --undefined-- 40.661
4.20 --undefined-- 40.615
4.21 --undefined-- 40.941
4.22 --undefined-- 43.860
4.23 --undefined-- 53.895
4.24 --undefined-- 62.110
4.25 --undefined-- 69.026
4.26 152.846 73.794
4.27 150.478 75.591
4.28 145.512 74.767
4.29 144.580 72.259
4.30 145.528 69.106
4.31 --undefined-- 64.968
4.32 --undefined-- 58.653
4.33 --undefined-- 49.561
4.34 --undefined-- 43.428
4.35 --undefined-- 42.345
4.36 --undefined-- 43.068
4.37 --undefined-- 45.509
4.38 --undefined-- 48.117
4.39 --undefined-- 50.866
4.40 119.063 53.492
4.41 114.479 54.981
4.42 110.808 54.841
4.43 110.698 53.806
4.44 107.081 54.804
4.45 103.616 58.263
4.46 102.298 60.501
4.47 101.465 61.466
4.48 101.332 62.240
4.49 103.858 62.961
4.50 103.870 62.881
4.51 102.549 61.854
4.52 102.297 60.403
4.53 100.409 58.266
4.54 --undefined-- 55.401
4.55 106.910 53.515
4.56 107.577 53.438
4.57 108.113 53.436
4.58 108.951 52.736
4.59 --undefined-- 50.860
4.60 --undefined-- 47.749
4.61 --undefined-- 43.910
4.62 --undefined-- 39.546
4.63 --undefined-- 38.227
4.64 --undefined-- 43.481
4.65 --undefined-- 51.587
4.66 --undefined-- 57.461
4.67 --undefined-- 60.884
4.68 --undefined-- 64.765
4.69 --undefined-- 69.463
4.70 138.204 72.107
4.71 136.482 72.105
4.72 132.224 69.580
4.73 --undefined-- 64.242
4.74 --undefined-- 55.270
4.75 --undefined-- 43.048
4.76 --undefined-- 38.066
4.77 --undefined-- 36.218
4.78 --undefined-- 35.930
4.79 --undefined-- 35.979
4.80 --undefined-- 34.822
4.81 --undefined-- 33.231
4.82 --undefined-- 33.384
4.83 --undefined-- 35.930
4.84 --undefined-- 39.081
4.85 --undefined-- 39.500
4.86 --undefined-- 36.693
4.87 --undefined-- 34.722
4.88 --undefined-- 35.782
4.89 --undefined-- 39.656
4.90 --undefined-- 46.209
4.91 --undefined-- 52.200
4.92 --undefined-- 56.283
4.93 --undefined-- 58.421
4.94 --undefined-- 59.806
4.95 --undefined-- 63.523
4.96 --undefined-- 67.477
4.97 --undefined-- 69.682
4.98 115.458 70.317
4.99 109.022 69.199
5.00 101.843 65.950
5.01 103.514 60.535
5.02 103.924 54.821
5.03 104.533 53.485
5.04 104.383 53.487
5.05 104.208 53.067
5.06 103.908 52.813
5.07 103.557 53.069
5.08 103.486 53.266
5.09 104.290 53.154
5.10 104.052 53.024
5.11 104.475 52.994
5.12 104.396 52.838
5.13 104.418 52.854
5.14 104.746 53.164
5.15 104.548 53.288
5.16 103.256 52.765
5.17 --undefined-- 51.321
5.18 --undefined-- 49.446
5.19 --undefined-- 52.607
5.20 --undefined-- 57.639
5.21 --undefined-- 62.103
5.22 --undefined-- 66.626
5.23 --undefined-- 69.436
5.24 101.083 70.175
5.25 98.203 69.453
5.26 98.189 68.521
5.27 99.110 68.291
5.28 97.852 68.402
5.29 97.860 68.616
5.30 97.770 68.860
5.31 97.713 69.143
5.32 97.888 69.432
5.33 98.174 69.534
5.34 98.046 69.366
5.35 97.299 68.964
5.36 97.144 68.527
5.37 97.590 68.393
5.38 97.480 68.544
5.39 97.938 68.864
5.40 97.945 69.264
5.41 97.859 69.414
5.42 98.426 69.466
5.43 99.862 69.636
5.44 99.747 69.655
5.45 100.270 69.557
5.46 101.216 69.532
5.47 101.368 69.415
5.48 102.401 69.204
5.49 104.023 69.117
5.50 103.057 68.801
5.51 101.236 68.627
5.52 99.646 68.648
5.53 --undefined-- 66.997
5.54 --undefined-- 63.362
5.55 --undefined-- 61.350
5.56 --undefined-- 61.514
5.57 --undefined-- 61.605
5.58 --undefined-- 61.717
5.59 125.721 63.453
5.60 129.266 66.558
5.61 128.934 68.577
5.62 120.568 68.812
5.63 120.666 67.846
5.64 118.139 66.656
5.65 116.466 65.182
5.66 115.042 62.821
5.67 114.605 59.558
5.68 116.243 55.871
5.69 116.826 53.248
5.70 115.134 50.959
5.71 --undefined-- 47.387
5.72 --undefined-- 43.823
5.73 --undefined-- 50.026
5.74 --undefined-- 59.202
5.75 --undefined-- 64.924
5.76 --undefined-- 68.211
5.77 --undefined-- 70.112
5.78 --undefined-- 70.235
5.79 --undefined-- 68.063
5.80 --undefined-- 64.330
5.81 --undefined-- 60.281
5.82 --undefined-- 58.176
5.83 116.820 59.367
5.84 117.008 59.679
5.85 116.704 --undefined--
5.86 115.045 --undefined--
5.87 --undefined-- --undefined--
5.88 --undefined-- --undefined--
