Time Pitch Intensity
0.01 --undefined-- --undefined--
0.02 214.157 --undefined--
0.03 176.100 --undefined--
0.04 159.703 --undefined--
0.05 140.151 57.002
0.06 135.118 55.215
0.07 135.294 53.159
0.08 131.986 50.524
0.09 --undefined-- 48.137
0.10 --undefined-- 46.094
0.11 --undefined-- 44.443
0.12 --undefined-- 45.674
0.13 --undefined-- 47.595
0.14 --undefined-- 47.281
0.15 --undefined-- 45.686
0.16 --undefined-- 48.090
0.17 179.423 52.403
0.18 173.071 53.744
0.19 --undefined-- 52.072
0.20 --undefined-- 49.098
0.21 --undefined-- 47.418
0.22 --undefined-- 46.435
0.23 --undefined-- 50.078
0.24 --undefined-- 57.674
0.25 207.754 62.252
0.26 186.940 64.254
0.27 178.586 64.911
0.28 175.896 65.138
0.29 175.093 65.237
0.30 172.562 65.199
0.31 169.824 64.850
0.32 168.515 64.182
0.33 169.577 63.645
0.34 172.015 63.729
0.35 175.643 64.479
0.36 179.509 65.566
0.37 182.513 66.348
0.38 183.887 66.344
0.39 184.383 65.873
0.40 184.565 65.557
0.41 185.970 65.536
0.42 188.050 65.473
0.43 186.600 64.479
0.44 180.286 61.702
0.45 175.798 57.397
0.46 178.674 53.331
0.47 --undefined-- 50.912
0.48 --undefined-- 49.987
0.49 --undefined-- 49.718
0.50 --undefined-- 50.056
0.51 --undefined-- 52.801
0.52 --undefined-- 58.735
0.53 196.618 63.037
0.54 188.810 65.220
0.55 178.886 66.177
0.56 174.637 66.557
0.57 171.871 66.302
0.58 169.369 65.343
0.59 168.334 64.119
0.60 167.154 63.025
0.61 165.333 61.892
0.62 162.024 60.769
0.63 166.013 60.464
0.64 166.309 60.412
0.65 165.719 60.231
0.66 167.031 60.048
0.67 167.727 59.679
0.68 168.246 59.283
0.69 169.478 59.109
0.70 170.048 58.831
0.71 171.036 57.542
0.72 173.807 54.426
0.73 --undefined-- 49.627
0.74 --undefined-- 46.530
0.75 --undefined-- 47.300
0.76 --undefined-- 48.042
0.77 --undefined-- 47.348
0.78 --undefined-- 48.234
0.79 --undefined-- 51.592
0.80 --undefined-- 56.255
0.81 265.623 62.619
0.82 259.179 67.940
0.83 259.757 71.225
0.84 260.155 72.829
0.85 259.787 73.392
0.86 258.871 73.442
0.87 259.024 72.930
0.88 260.767 71.847
0.89 261.848 70.740
0.90 262.448 69.869
0.91 263.822 68.809
0.92 267.015 67.476
0.93 266.549 66.218
0.94 262.297 64.733
0.95 253.281 62.588
0.96 238.660 59.897
0.97 --undefined-- 57.002
0.98 --undefined-- 54.378
0.99 --undefined-- 51.655
1.00 --undefined-- 48.066
1.01 --undefined-- 47.217
1.02 --undefined-- 49.301
1.03 --undefined-- 49.648
1.04 --undefined-- 48.680
1.05 --undefined-- 48.113
1.06 --undefined-- 46.246
1.07 --undefined-- 43.569
1.08 --undefined-- 43.764
1.09 --undefined-- 44.453
1.10 --undefined-- 42.687
1.11 --undefined-- 41.225
1.12 --undefined-- 44.165
1.13 --undefined-- 49.972
1.14 --undefined-- 55.787
1.15 --undefined-- 60.775
1.16 148.884 64.506
1.17 155.211 66.698
1.18 164.994 67.275
1.19 175.966 66.582
1.20 184.529 65.937
1.21 188.560 66.286
1.22 191.129 66.581
1.23 193.069 66.412
1.24 192.070 66.198
1.25 188.542 66.191
1.26 182.674 66.243
1.27 173.637 66.051
1.28 161.566 66.177
1.29 294.630 67.079
1.30 255.515 68.860
1.31 237.548 71.023
1.32 222.137 72.330
1.33 205.058 72.606
1.34 192.798 72.418
1.35 183.859 72.297
1.36 175.787 72.405
1.37 172.475 72.034
1.38 170.072 70.471
1.39 170.313 68.316
1.40 172.395 66.363
1.41 174.987 64.929
1.42 176.356 64.554
1.43 176.990 64.383
1.44 179.248 63.892
1.45 183.245 63.360
1.46 184.635 62.836
1.47 187.719 62.457
1.48 191.088 62.300
1.49 193.617 62.095
1.50 195.977 61.299
1.51 192.221 59.078
1.52 173.389 54.658
1.53 --undefined-- 49.264
1.54 --undefined-- 51.872
1.55 --undefined-- 57.632
1.56 224.460 61.492
1.57 218.444 63.321
1.58 208.672 63.761
1.59 202.725 63.851
1.60 198.901 64.038
1.61 197.817 64.253
1.62 196.299 64.411
1.63 196.344 64.499
1.64 198.248 64.420
1.65 200.054 64.086
1.66 202.013 63.647
1.67 203.574 63.439
1.68 204.549 63.539
1.69 204.863 63.639
1.70 204.756 63.586
1.71 204.675 63.314
1.72 203.259 62.751
1.73 201.923 61.476
1.74 196.904 58.750
1.75 181.885 54.515
1.76 --undefined-- 51.267
1.77 --undefined-- 49.591
1.78 --undefined-- 46.564
1.79 --undefined-- 44.921
1.80 --undefined-- 48.116
1.81 --undefined-- 52.352
1.82 --undefined-- 55.390
1.83 --undefined-- 57.636
1.84 289.828 61.941
1.85 265.383 66.626
1.86 265.711 69.765
1.87 264.454 71.567
1.88 261.909 72.298
1.89 258.858 72.335
1.90 256.755 72.269
1.91 255.945 72.389
1.92 256.543 72.517
1.93 259.046 72.147
1.94 264.322 70.790
1.95 270.078 68.681
1.96 271.384 66.935
1.97 270.124 65.862
1.98 266.175 64.511
1.99 256.492 62.284
2.00 246.355 59.715
2.01 261.345 57.380
2.02 --undefined-- 56.038
2.03 --undefined-- 56.291
2.04 --undefined-- 57.166
2.05 --undefined-- 58.943
2.06 158.568 62.980
2.07 156.932 66.256
2.08 159.877 68.073
2.09 162.952 68.939
2.10 165.621 69.315
2.11 167.118 69.475
2.12 168.428 69.232
2.13 169.622 68.349
2.14 169.488 67.016
2.15 168.836 65.924
2.16 167.520 65.431
2.17 162.414 64.606
2.18 157.375 62.139
2.19 166.426 57.833
2.20 167.422 54.155
2.21 --undefined-- 51.822
2.22 --undefined-- 50.704
2.23 --undefined-- 57.819
2.24 --undefined-- 64.028
2.25 240.641 67.282
2.26 233.354 68.299
2.27 --undefined-- 68.543
2.28 190.355 69.199
2.29 187.715 69.345
2.30 187.718 68.220
2.31 189.313 66.412
2.32 189.131 65.107
2.33 190.577 64.524
2.34 197.285 64.230
2.35 198.594 63.782
2.36 199.810 63.188
2.37 200.425 62.485
2.38 199.561 61.260
2.39 196.271 58.810
2.40 188.264 54.589
2.41 --undefined-- 50.160
2.42 --undefined-- 47.849
2.43 --undefined-- 45.861
2.44 --undefined-- 48.464
2.45 --undefined-- 52.519
2.46 294.267 57.385
2.47 273.812 62.169
2.48 268.390 65.052
2.49 266.034 66.176
2.50 264.487 66.457
2.51 264.258 66.668
2.52 264.592 66.857
2.53 264.588 66.713
2.54 266.340 66.248
2.55 267.599 65.855
2.56 267.613 65.659
2.57 267.536 65.461
2.58 267.013 65.263
2.59 265.406 65.058
2.60 262.851 64.791
2.61 259.887 64.544
2.62 256.795 64.498
2.63 252.251 64.829
2.64 246.601 65.651
2.65 237.507 66.748
2.66 227.600 67.914
2.67 --undefined-- 69.245
2.68 --undefined-- 70.382
2.69 --undefined-- 70.736
2.70 --undefined-- 70.619
2.71 --undefined-- 70.535
2.72 --undefined-- 70.280
2.73 --undefined-- 69.428
2.74 --undefined-- 67.427
2.75 --undefined-- 64.121
2.76 --undefined-- 60.319
2.77 --undefined-- 56.229
2.78 --undefined-- 54.857
2.79 --undefined-- 56.295
2.80 --undefined-- 56.886
2.81 --undefined-- 56.627
2.82 --undefined-- 55.491
2.83 --undefined-- 53.956
2.84 --undefined-- 52.034
2.85 --undefined-- 51.404
2.86 --undefined-- 52.823
2.87 --undefined-- 54.017
2.88 --undefined-- 54.327
2.89 --undefined-- 54.043
2.90 --undefined-- 54.424
2.91 --undefined-- 54.993
2.92 --undefined-- 54.725
2.93 --undefined-- 53.756
2.94 --undefined-- 53.386
2.95 --undefined-- 53.713
2.96 --undefined-- 53.443
2.97 --undefined-- 51.458
2.98 --undefined-- 48.632
2.99 --undefined-- 49.091
3.00 --undefined-- 52.542
3.01 --undefined-- 55.525
3.02 --undefined-- 57.710
3.03 --undefined-- 58.729
3.04 --undefined-- 58.388
3.05 --undefined-- 57.107
3.06 --undefined-- 54.998
3.07 --undefined-- 52.577
3.08 --undefined-- 50.441
3.09 --undefined-- 52.882
3.10 --undefined-- 56.403
3.11 --undefined-- 58.277
3.12 --undefined-- 60.582
3.13 --undefined-- 66.006
3.14 160.632 70.591
3.15 162.711 72.774
3.16 162.187 73.104
3.17 161.236 72.556
3.18 161.450 71.991
3.19 162.347 71.673
3.20 162.829 71.557
3.21 162.559 71.578
3.22 162.207 71.654
3.23 160.769 71.432
3.24 156.983 70.137
3.25 296.279 66.976
3.26 278.217 61.857
3.27 --undefined-- 56.454
3.28 159.596 52.808
3.29 158.311 51.889
3.30 --undefined-- 56.258
3.31 272.843 63.422
3.32 256.619 68.463
3.33 248.899 70.863
3.34 239.255 71.685
3.35 232.057 72.471
3.36 228.729 73.036
3.37 225.794 72.807
3.38 223.891 72.304
3.39 222.255 72.001
3.40 220.919 71.684
3.41 219.786 70.913
3.42 218.835 69.542
3.43 217.703 67.779
3.44 215.261 66.178
3.45 217.081 65.618
3.46 214.613 65.640
3.47 211.004 65.595
3.48 207.986 65.404
3.49 204.245 65.014
3.50 200.175 64.682
3.51 194.440 64.509
3.52 188.836 64.224
3.53 183.300 63.667
3.54 176.333 63.207
3.55 168.634 63.266
3.56 164.526 63.583
3.57 163.256 64.108
3.58 162.797 65.022
3.59 162.701 66.034
3.60 163.803 66.875
3.61 164.375 67.394
3.62 166.457 67.600
3.63 168.726 67.411
3.64 170.795 66.999
3.65 174.222 66.911
3.66 178.528 67.478
3.67 184.511 68.607
3.68 190.257 69.410
3.69 197.716 69.089
3.70 206.698 67.654
3.71 208.377 65.841
3.72 207.471 63.940
3.73 205.055 61.502
3.74 192.839 58.672
3.75 --undefined-- 56.579
3.76 --undefined-- 56.196
3.77 --undefined-- 55.824
3.78 --undefined-- 53.483
3.79 --undefined-- 50.836
3.80 --undefined-- 52.698
3.81 --undefined-- 53.698
3.82 --undefined-- 51.655
3.83 --undefined-- 49.081
3.84 --undefined-- 48.041
3.85 --undefined-- 46.562
3.86 --undefined-- 49.434
3.87 --undefined-- 56.274
3.88 189.970 61.628
3.89 180.141 64.528
3.90 169.215 65.453
3.91 166.032 65.567
3.92 164.539 65.700
3.93 165.802 65.877
3.94 168.111 66.115
3.95 174.172 66.355
3.96 181.573 66.843
3.97 189.894 67.877
3.98 198.388 68.469
3.99 210.905 68.041
4.00 223.465 67.258
4.01 233.460 66.386
4.02 237.517 64.703
4.03 234.316 61.422
4.04 224.527 56.122
4.05 --undefined-- 48.968
4.06 --undefined-- 47.055
4.07 --undefined-- 47.940
4.08 --undefined-- 47.058
4.09 --undefined-- 47.831
4.10 --undefined-- 48.649
4.11 --undefined-- 47.916
4.12 --undefined-- 49.376
4.13 --undefined-- 50.443
4.14 --undefined-- 49.430
4.15 --undefined-- 49.427
4.16 --undefined-- 49.757
4.17 --undefined-- 52.128
4.18 --undefined-- 58.137
4.19 166.281 62.253
4.20 161.739 64.120
4.21 158.766 64.674
4.22 155.153 64.791
4.23 155.225 64.844
4.24 154.888 64.941
4.25 154.853 64.978
4.26 153.963 64.809
4.27 152.017 64.458
4.28 151.880 64.009
4.29 151.657 63.614
4.30 150.655 63.404
4.31 151.090 63.134
4.32 153.476 62.487
4.33 156.022 61.516
4.34 159.594 60.315
4.35 162.940 59.233
4.36 173.356 59.832
4.37 183.417 62.729
4.38 195.349 65.860
4.39 211.367 68.088
4.40 223.644 68.814
4.41 221.319 68.394
4.42 226.419 68.256
4.43 233.976 68.532
4.44 237.334 67.849
4.45 237.830 65.153
4.46 234.459 59.888
4.47 --undefined-- 54.359
4.48 --undefined-- 54.620
4.49 --undefined-- 56.385
4.50 --undefined-- 57.864
4.51 --undefined-- 59.029
4.52 --undefined-- 59.239
4.53 --undefined-- 58.354
4.54 --undefined-- 56.176
4.55 --undefined-- 52.852
4.56 --undefined-- 48.526
4.57 --undefined-- 49.156
4.58 --undefined-- 54.051
4.59 --undefined-- 57.693
4.60 --undefined-- 59.505
4.61 --undefined-- 59.654
4.62 --undefined-- 58.903
4.63 --undefined-- 59.039
4.64 --undefined-- 64.138
4.65 --undefined-- 68.648
4.66 204.428 70.644
4.67 193.008 71.175
4.68 188.528 71.293
4.69 183.229 71.274
4.70 178.439 71.081
4.71 --undefined-- 70.345
4.72 --undefined-- 68.487
4.73 --undefined-- 65.655
4.74 --undefined-- 62.277
4.75 --undefined-- 57.907
4.76 --undefined-- 53.537
4.77 --undefined-- 51.208
4.78 --undefined-- 48.848
4.79 --undefined-- 45.537
4.80 --undefined-- 45.094
4.81 --undefined-- 51.781
4.82 --undefined-- 57.137
4.83 --undefined-- 60.646
4.84 197.905 63.517
4.85 189.799 65.401
4.86 186.675 66.092
4.87 180.442 66.029
4.88 178.699 65.908
4.89 180.184 66.117
4.90 178.745 65.972
4.91 175.257 65.286
4.92 169.915 63.886
4.93 --undefined-- 60.925
4.94 --undefined-- 56.548
4.95 --undefined-- 52.439
4.96 --undefined-- 50.896
4.97 --undefined-- 54.421
4.98 --undefined-- 57.303
4.99 --undefined-- 57.655
5.00 --undefined-- 55.635
5.01 --undefined-- 51.465
5.02 --undefined-- 50.461
5.03 --undefined-- 55.406
5.04 --undefined-- 59.382
5.05 --undefined-- 60.992
5.06 --undefined-- 60.526
5.07 --undefined-- 60.313
5.08 196.431 62.317
5.09 190.131 63.893
5.10 177.443 63.583
5.11 171.589 --undefined--
5.12 155.093 --undefined--
5.13 --undefined-- --undefined--
5.14 --undefined-- --undefined--
