Time Pitch Intensity
0.01 --undefined-- --undefined--
0.02 114.878 --undefined--
0.03 112.375 --undefined--
0.04 113.157 --undefined--
0.05 114.468 76.705
0.06 113.305 77.021
0.07 111.967 76.954
0.08 111.908 76.704
0.09 111.990 76.837
0.10 112.688 77.251
0.11 111.102 77.264
0.12 114.553 76.948
0.13 118.016 76.702
0.14 120.124 76.732
0.15 119.680 76.961
0.16 119.130 77.214
0.17 119.127 77.287
0.18 120.210 77.090
0.19 121.475 76.741
0.20 121.946 76.405
0.21 122.595 76.118
0.22 122.906 75.548
0.23 121.679 73.895
0.24 110.212 70.498
0.25 112.398 65.882
0.26 115.545 60.643
0.27 --undefined-- 55.702
0.28 --undefined-- 58.358
0.29 --undefined-- 67.105
0.30 --undefined-- 73.035
0.31 151.856 76.020
0.32 143.472 77.234
0.33 142.072 77.611
0.34 142.816 77.700
0.35 143.705 77.848
0.36 144.449 78.046
0.37 147.123 78.077
0.38 147.808 77.554
0.39 143.555 76.285
0.40 142.678 74.804
0.41 140.156 73.435
0.42 135.358 72.132
0.43 129.783 70.854
0.44 124.082 69.396
0.45 119.942 68.270
0.46 119.395 69.021
0.47 130.365 71.184
0.48 116.492 72.960
0.49 108.488 74.569
0.50 104.267 75.949
0.51 105.210 76.727
0.52 106.513 76.932
0.53 109.015 76.863
0.54 113.083 77.002
0.55 117.865 77.318
0.56 119.605 77.197
0.57 119.858 76.396
0.58 119.830 74.875
0.59 118.277 72.338
0.60 117.005 68.594
0.61 113.462 63.548
0.62 --undefined-- 57.214
0.63 --undefined-- 52.625
0.64 --undefined-- 52.782
0.65 --undefined-- 53.614
0.66 --undefined-- 56.202
0.67 --undefined-- 64.599
0.68 --undefined-- 71.348
0.69 122.227 75.093
0.70 118.370 76.806
0.71 114.958 77.464
0.72 114.172 77.557
0.73 113.151 77.074
0.74 111.199 75.934
0.75 107.737 74.159
0.76 105.080 71.937
0.77 104.281 70.273
0.78 109.202 70.709
0.79 111.872 72.647
0.80 106.484 74.382
0.81 103.681 75.180
0.82 99.897 75.168
0.83 98.887 74.754
0.84 96.652 74.120
0.85 94.783 73.408
0.86 94.742 72.890
0.87 94.787 72.623
0.88 95.260 72.592
0.89 95.486 72.666
0.90 94.873 72.661
0.91 94.828 72.591
0.92 96.866 72.837
0.93 98.826 73.562
0.94 102.808 74.419
0.95 105.597 75.255
0.96 106.554 75.869
0.97 108.821 76.089
0.98 113.867 76.162
0.99 117.264 75.825
1.00 117.211 74.390
1.01 --undefined-- 71.814
1.02 --undefined-- 67.944
1.03 --undefined-- 61.757
1.04 --undefined-- 52.793
1.05 --undefined-- 45.505
1.06 --undefined-- 44.221
1.07 --undefined-- 45.401
1.08 --undefined-- 45.789
1.09 --undefined-- 44.452
1.10 --undefined-- 42.528
1.11 --undefined-- 42.569
1.12 --undefined-- 42.855
1.13 --undefined-- 41.437
1.14 --undefined-- 39.776
1.15 --undefined-- 41.559
1.16 --undefined-- 43.677
1.17 --undefined-- 43.665
1.18 --undefined-- 41.743
1.19 --undefined-- 40.013
1.20 --undefined-- 39.657
1.21 --undefined-- 39.185
1.22 --undefined-- 38.775
1.23 --undefined-- 38.017
1.24 --undefined-- 36.655
1.25 --undefined-- 36.675
1.26 --undefined-- 36.973
1.27 --undefined-- 36.768
1.28 --undefined-- 37.249
1.29 --undefined-- 37.988
1.30 --undefined-- 37.969
1.31 --undefined-- 38.070
1.32 --undefined-- 38.965
1.33 --undefined-- 39.355
1.34 --undefined-- 39.643
1.35 --undefined-- 40.607
1.36 --undefined-- 41.205
1.37 --undefined-- 42.458
1.38 --undefined-- 45.086
1.39 --undefined-- 54.173
1.40 --undefined-- 63.762
1.41 --undefined-- 69.494
1.42 103.105 72.563
1.43 99.655 74.059
1.44 94.104 74.397
1.45 93.494 74.000
1.46 93.274 73.638
1.47 99.486 73.395
1.48 100.333 72.699
1.49 99.666 71.822
1.50 100.253 71.538
1.51 102.648 72.089
1.52 107.508 73.252
1.53 109.035 74.614
1.54 109.769 75.735
1.55 108.127 76.509
1.56 111.126 77.151
1.57 112.320 77.563
1.58 113.665 77.668
1.59 115.260 77.518
1.60 116.955 77.133
1.61 118.221 76.441
1.62 117.849 75.283
1.63 116.041 73.842
1.64 115.708 72.697
1.65 115.162 71.760
1.66 118.578 70.894
1.67 124.390 71.335
1.68 128.624 73.438
1.69 131.457 75.920
1.70 128.330 78.071
1.71 123.038 79.473
1.72 119.570 79.989
1.73 118.252 79.966
1.74 117.666 79.652
1.75 115.648 78.463
1.76 110.285 75.691
1.77 109.779 71.725
1.78 112.614 68.201
1.79 108.069 65.623
1.80 100.203 63.202
1.81 102.257 60.979
1.82 --undefined-- 60.602
1.83 --undefined-- 62.043
1.84 152.570 67.094
1.85 144.678 72.587
1.86 129.964 76.133
1.87 119.165 78.204
1.88 116.291 79.276
1.89 116.663 79.731
1.90 118.027 79.967
1.91 118.769 80.135
1.92 120.442 80.212
1.93 121.905 80.164
1.94 123.891 79.964
1.95 125.173 79.575
1.96 126.092 78.827
1.97 126.467 77.426
1.98 128.181 75.610
1.99 131.830 74.428
2.00 129.816 74.115
2.01 131.687 74.893
2.02 132.395 76.384
2.03 130.392 77.442
2.04 123.132 77.945
2.05 121.727 78.013
2.06 117.797 77.529
2.07 115.148 76.378
2.08 109.883 74.159
2.09 105.071 70.812
2.10 105.651 67.107
2.11 110.661 62.621
2.12 --undefined-- 56.761
2.13 --undefined-- 50.909
2.14 --undefined-- 48.056
2.15 --undefined-- 50.687
2.16 --undefined-- 55.474
2.17 --undefined-- 58.539
2.18 --undefined-- 58.878
2.19 --undefined-- 61.900
2.20 147.271 68.463
2.21 134.295 72.574
2.22 112.973 74.438
2.23 107.402 75.087
2.24 107.341 75.231
2.25 105.457 75.304
2.26 105.341 75.429
2.27 106.498 75.536
2.28 109.011 75.537
2.29 109.825 75.206
2.30 111.201 74.447
2.31 109.944 73.413
2.32 108.692 72.456
2.33 111.354 72.565
2.34 115.668 73.687
2.35 116.056 74.659
2.36 114.556 75.263
2.37 116.531 75.720
2.38 114.199 75.978
2.39 118.244 76.075
2.40 117.326 76.149
2.41 119.507 76.193
2.42 119.513 76.216
2.43 120.665 76.504
2.44 120.059 77.108
2.45 120.854 77.355
2.46 116.373 77.172
2.47 116.943 77.216
2.48 117.282 77.408
2.49 117.422 77.515
2.50 118.386 77.587
2.51 119.966 77.521
2.52 122.088 77.345
2.53 124.070 77.385
2.54 125.240 77.559
2.55 125.613 77.256
2.56 124.530 75.764
2.57 119.785 72.952
2.58 124.511 69.882
2.59 125.333 67.656
2.60 130.538 66.644
2.61 136.922 67.662
2.62 139.742 71.301
2.63 144.954 75.414
2.64 142.292 78.068
2.65 135.969 79.054
2.66 132.032 78.999
2.67 130.548 78.601
2.68 132.009 78.075
2.69 132.449 77.469
2.70 132.094 76.901
2.71 131.703 76.121
2.72 126.548 74.326
2.73 122.905 71.246
2.74 124.945 68.223
2.75 129.254 68.347
2.76 147.902 72.296
2.77 146.426 76.028
2.78 140.759 78.240
2.79 134.438 79.056
2.80 129.631 78.937
2.81 126.830 78.583
2.82 125.132 78.402
2.83 124.689 78.275
2.84 123.371 77.867
2.85 121.832 76.829
2.86 118.494 74.667
2.87 114.490 71.107
2.88 115.579 66.831
2.89 113.122 62.193
2.90 --undefined-- 56.436
2.91 --undefined-- 52.432
2.92 --undefined-- 54.716
2.93 --undefined-- 58.599
2.94 --undefined-- 66.051
2.95 176.742 72.545
2.96 156.354 76.033
2.97 147.066 77.232
2.98 140.302 76.948
2.99 140.412 75.514
3.00 139.110 72.856
3.01 139.027 68.777
3.02 140.103 63.454
3.03 --undefined-- 61.410
3.04 --undefined-- 64.017
3.05 --undefined-- 66.814
3.06 --undefined-- 73.259
3.07 229.085 79.340
3.08 212.090 82.764
3.09 203.626 84.143
3.10 204.701 84.473
3.11 206.992 84.410
3.12 206.109 83.626
3.13 200.885 81.129
3.14 190.566 76.138
3.15 101.595 69.515
3.16 106.019 65.487
3.17 114.698 63.015
3.18 --undefined-- 59.194
3.19 --undefined-- 52.656
3.20 --undefined-- 44.119
3.21 --undefined-- 40.649
3.22 --undefined-- 38.755
3.23 --undefined-- 38.126
3.24 --undefined-- 41.493
3.25 --undefined-- 43.808
3.26 --undefined-- 43.815
3.27 --undefined-- 42.042
3.28 --undefined-- 39.843
3.29 --undefined-- 41.692
3.30 --undefined-- 45.368
3.31 --undefined-- 46.752
3.32 --undefined-- 44.907
3.33 --undefined-- 41.530
3.34 --undefined-- 43.605
3.35 --undefined-- 46.228
3.36 --undefined-- 46.999
3.37 --undefined-- 47.225
3.38 --undefined-- 47.275
3.39 --undefined-- 46.444
3.40 --undefined-- 44.472
3.41 --undefined-- 45.852
3.42 --undefined-- 57.045
3.43 --undefined-- 65.172
3.44 --undefined-- 69.612
3.45 --undefined-- 72.238
3.46 113.499 74.385
3.47 110.364 75.443
3.48 101.920 75.088
3.49 97.718 74.014
3.50 94.571 72.930
3.51 92.874 72.156
3.52 93.529 71.690
3.53 93.744 71.349
3.54 94.778 71.324
3.55 97.974 71.686
3.56 100.267 71.916
3.57 103.733 71.859
3.58 107.836 71.586
3.59 112.555 71.329
3.60 117.199 71.625
3.61 122.285 73.108
3.62 129.233 75.101
3.63 124.955 76.326
3.64 122.322 76.705
3.65 122.954 76.797
3.66 124.865 76.928
3.67 126.642 76.970
3.68 128.509 77.008
3.69 128.934 77.198
3.70 128.281 77.425
3.71 128.650 77.618
3.72 129.951 77.800
3.73 131.752 77.849
3.74 131.212 77.489
3.75 131.393 76.584
3.76 132.131 75.085
3.77 128.357 72.678
3.78 121.876 69.037
3.79 114.250 64.715
3.80 117.912 63.509
3.81 126.004 68.105
3.82 129.720 72.523
3.83 116.501 74.661
3.84 107.582 75.259
3.85 103.103 75.325
3.86 100.062 75.103
3.87 98.544 74.746
3.88 98.325 74.311
3.89 97.710 73.472
3.90 95.888 71.798
3.91 94.649 69.149
3.92 100.138 66.439
3.93 106.118 65.491
3.94 116.229 67.413
3.95 121.689 70.432
3.96 120.686 73.113
3.97 115.597 74.873
3.98 114.505 75.693
3.99 112.833 75.943
4.00 111.825 76.026
4.01 112.748 76.198
4.02 114.143 76.339
4.03 114.353 76.164
4.04 113.623 75.560
4.05 113.512 74.300
4.06 112.751 72.222
4.07 110.315 69.749
4.08 109.520 67.519
4.09 113.284 66.255
4.10 117.324 66.831
4.11 121.550 69.427
4.12 121.766 72.468
4.13 105.283 74.451
4.14 104.720 75.380
4.15 103.891 75.754
4.16 103.567 75.939
4.17 103.108 75.911
4.18 102.706 75.573
4.19 102.998 75.099
4.20 107.505 74.564
4.21 108.554 73.322
4.22 103.760 70.714
4.23 107.979 66.974
4.24 113.154 63.472
4.25 --undefined-- 62.790
4.26 --undefined-- 63.988
4.27 --undefined-- 68.381
4.28 --undefined-- 73.093
4.29 124.222 75.537
4.30 122.342 76.274
4.31 123.965 76.310
4.32 126.902 76.357
4.33 129.773 76.531
4.34 131.909 76.675
4.35 133.698 76.684
4.36 135.474 76.458
4.37 135.714 75.956
4.38 133.365 75.191
4.39 129.420 74.008
4.40 121.450 72.571
4.41 117.081 71.551
4.42 112.810 70.860
4.43 110.725 70.541
4.44 114.239 71.202
4.45 116.349 72.297
4.46 112.927 73.484
4.47 110.194 74.588
4.48 106.392 75.518
4.49 103.432 76.434
4.50 101.000 77.175
4.51 99.702 77.323
4.52 98.936 76.461
4.53 99.813 74.461
4.54 102.496 72.421
4.55 105.490 71.647
4.56 105.190 71.129
4.57 104.483 70.047
4.58 104.192 68.250
4.59 105.974 65.869
4.60 109.975 65.296
4.61 132.768 70.348
4.62 121.506 74.951
4.63 115.243 77.229
4.64 110.179 77.683
4.65 105.244 76.910
4.66 101.555 75.839
4.67 102.144 75.090
4.68 102.460 74.835
4.69 102.323 74.823
4.70 102.099 74.403
4.71 101.980 73.027
4.72 104.060 70.346
4.73 100.889 65.940
4.74 --undefined-- 59.274
4.75 --undefined-- 51.404
4.76 --undefined-- 45.761
4.77 --undefined-- 41.152
4.78 --undefined-- 39.759
4.79 --undefined-- 38.856
4.80 --undefined-- 36.859
4.81 --undefined-- 36.593
4.82 --undefined-- 37.109
4.83 --undefined-- 38.810
4.84 --undefined-- 41.196
4.85 --undefined-- 42.141
4.86 --undefined-- 41.967
4.87 --undefined-- 43.367
4.88 --undefined-- 46.638
4.89 --undefined-- 57.754
4.90 --undefined-- 66.916
4.91 --undefined-- 73.033
4.92 139.995 76.868
4.93 139.160 79.123
4.94 143.040 80.310
4.95 145.681 80.970
4.96 146.994 81.402
4.97 148.715 81.732
4.98 150.901 81.890
4.99 152.198 81.601
5.00 151.538 80.460
5.01 148.468 78.273
5.02 141.786 74.956
5.03 138.580 69.958
5.04 138.759 63.032
5.05 --undefined-- 57.579
5.06 --undefined-- 57.119
5.07 --undefined-- 63.854
5.08 202.507 71.812
5.09 176.663 76.368
5.10 164.197 78.225
5.11 156.180 78.478
5.12 152.026 78.064
5.13 150.208 77.222
5.14 148.683 76.204
5.15 148.158 75.463
5.16 148.303 75.199
5.17 149.490 75.454
5.18 150.670 76.057
5.19 151.545 76.745
5.20 151.478 77.350
5.21 151.436 77.803
5.22 151.489 78.141
5.23 150.060 78.308
5.24 149.536 78.241
5.25 149.968 78.162
5.26 150.901 78.200
5.27 151.373 78.314
5.28 152.103 78.427
5.29 151.210 78.105
5.30 149.080 76.619
5.31 144.162 73.270
5.32 139.312 68.096
5.33 109.827 62.771
5.34 104.705 61.327
5.35 103.242 61.875
5.36 101.640 62.191
5.37 --undefined-- 63.754
5.38 138.953 69.221
5.39 136.390 73.524
5.40 118.831 75.032
5.41 109.062 74.815
5.42 104.926 74.065
5.43 101.428 72.856
5.44 97.445 71.420
5.45 98.932 70.592
5.46 95.267 70.189
5.47 96.052 70.025
5.48 97.598 70.047
5.49 98.286 69.882
5.50 98.033 69.398
5.51 96.168 68.510
5.52 94.576 67.139
5.53 95.781 66.255
5.54 107.386 67.783
5.55 113.653 70.289
5.56 99.601 71.910
5.57 98.330 --undefined--
5.58 95.593 --undefined--
5.59 --undefined-- --undefined--
5.60 --undefined-- --undefined--
