Time Pitch Intensity
0.01 --undefined-- --undefined--
0.02 158.593 --undefined--
0.03 161.619 --undefined--
0.04 164.067 --undefined--
0.05 165.479 64.541
0.06 172.422 59.983
0.07 --undefined-- 52.510
0.08 --undefined-- 50.881
0.09 --undefined-- 60.372
0.10 195.904 66.372
0.11 186.483 69.134
0.12 176.718 69.954
0.13 169.627 69.777
0.14 159.794 68.963
0.15 153.782 67.724
0.16 148.887 66.384
0.17 148.351 65.843
0.18 148.859 66.060
0.19 149.030 66.471
0.20 147.061 66.813
0.21 145.288 66.984
0.22 142.649 67.138
0.23 138.873 67.323
0.24 133.533 67.287
0.25 129.454 66.485
0.26 111.508 64.346
0.27 81.520 60.846
0.28 --undefined-- 55.864
0.29 --undefined-- 48.356
0.30 --undefined-- 38.778
0.31 --undefined-- 33.448
0.32 --undefined-- 30.125
0.33 --undefined-- 29.558
0.34 --undefined-- 31.345
0.35 --undefined-- 31.674
0.36 --undefined-- 30.933
0.37 --undefined-- 33.789
0.38 --undefined-- 36.169
0.39 --undefined-- 35.553
0.40 --undefined-- 33.069
0.41 --undefined-- 31.613
0.42 --undefined-- 31.304
0.43 --undefined-- 29.577
0.44 --undefined-- 29.239
0.45 --undefined-- 32.701
0.46 --undefined-- 34.099
0.47 --undefined-- 33.763
0.48 --undefined-- 34.111
0.49 --undefined-- 34.238
0.50 --undefined-- 32.339
0.51 --undefined-- 29.941
0.52 --undefined-- 30.189
0.53 --undefined-- 30.675
0.54 --undefined-- 30.885
0.55 --undefined-- 33.063
0.56 --undefined-- 33.993
0.57 --undefined-- 32.853
0.58 --undefined-- 33.835
0.59 --undefined-- 34.773
0.60 --undefined-- 33.431
0.61 --undefined-- 32.122
0.62 --undefined-- 32.676
0.63 --undefined-- 32.875
0.64 --undefined-- 32.161
0.65 --undefined-- 30.855
0.66 --undefined-- 30.348
0.67 --undefined-- 31.477
0.68 --undefined-- 30.720
0.69 --undefined-- 28.604
0.70 --undefined-- 30.778
0.71 --undefined-- 32.687
0.72 --undefined-- 32.950
0.73 --undefined-- 31.990
0.74 --undefined-- 31.100
0.75 --undefined-- 39.843
0.76 --undefined-- 46.715
0.77 161.341 50.180
0.78 160.326 52.071
0.79 155.731 53.589
0.80 158.877 54.224
0.81 163.309 54.289
0.82 159.741 54.478
0.83 158.326 56.129
0.84 178.464 61.378
0.85 190.240 66.985
0.86 183.911 70.412
0.87 176.941 71.838
0.88 174.161 71.966
0.89 172.154 71.188
0.90 169.575 69.657
0.91 167.040 67.543
0.92 162.066 65.286
0.93 160.673 63.769
0.94 158.753 63.130
0.95 159.380 62.868
0.96 159.580 63.021
0.97 160.273 63.387
0.98 160.954 63.588
0.99 160.220 63.583
1.00 158.863 63.611
1.01 163.125 63.898
1.02 163.541 64.124
1.03 161.839 64.114
1.04 160.307 64.139
1.05 160.296 64.399
1.06 160.380 64.664
1.07 163.208 65.024
1.08 167.050 65.868
1.09 170.637 66.864
1.10 175.407 67.902
1.11 180.887 69.150
1.12 186.456 70.326
1.13 192.620 71.068
1.14 195.280 71.297
1.15 198.621 71.147
1.16 200.157 70.612
1.17 201.785 69.718
1.18 210.799 68.917
1.19 219.001 68.505
1.20 222.650 69.180
1.21 227.004 70.330
1.22 230.214 70.721
1.23 232.126 69.892
1.24 232.535 67.667
1.25 229.254 64.145
1.26 215.586 59.330
1.27 209.394 53.640
1.28 --undefined-- 49.175
1.29 --undefined-- 47.604
1.30 --undefined-- 46.611
1.31 --undefined-- 46.099
1.32 --undefined-- 46.171
1.33 --undefined-- 46.740
1.34 --undefined-- 47.141
1.35 --undefined-- 46.600
1.36 --undefined-- 45.913
1.37 --undefined-- 46.258
1.38 --undefined-- 50.428
1.39 --undefined-- 58.878
1.40 256.331 65.705
1.41 247.513 69.357
1.42 238.340 70.690
1.43 232.444 71.218
1.44 228.152 71.375
1.45 224.118 70.347
1.46 218.468 67.926
1.47 210.984 64.787
1.48 201.576 61.782
1.49 188.049 59.192
1.50 --undefined-- 57.371
1.51 --undefined-- 57.140
1.52 --undefined-- 57.975
1.53 --undefined-- 58.758
1.54 --undefined-- 58.965
1.55 --undefined-- 58.958
1.56 --undefined-- 59.012
1.57 --undefined-- 59.455
1.58 --undefined-- 60.345
1.59 --undefined-- 60.881
1.60 --undefined-- 61.119
1.61 --undefined-- 62.550
1.62 194.566 65.842
1.63 192.997 69.097
1.64 190.013 70.893
1.65 188.025 71.218
1.66 187.903 70.915
1.67 188.962 70.917
1.68 190.064 70.956
1.69 191.013 70.177
1.70 194.038 68.852
1.71 196.170 68.063
1.72 198.852 67.479
1.73 202.259 66.567
1.74 204.292 65.387
1.75 206.087 63.821
1.76 206.796 61.897
1.77 204.966 59.538
1.78 200.839 56.998
1.79 197.670 54.852
1.80 195.307 52.661
1.81 94.488 50.245
1.82 96.524 48.638
1.83 --undefined-- 47.719
1.84 --undefined-- 46.004
1.85 --undefined-- 43.643
1.86 --undefined-- 42.146
1.87 --undefined-- 41.102
1.88 --undefined-- 41.060
1.89 --undefined-- 45.004
1.90 192.497 50.584
1.91 191.156 55.107
1.92 188.918 59.337
1.93 193.442 63.151
1.94 189.121 65.641
1.95 181.261 67.023
1.96 178.422 67.743
1.97 175.327 67.873
1.98 172.695 67.496
1.99 171.698 66.937
2.00 171.905 66.610
2.01 174.011 66.707
2.02 177.102 67.061
2.03 179.080 67.045
2.04 180.455 66.095
2.05 179.242 63.708
2.06 175.162 59.576
2.07 169.314 53.986
2.08 --undefined-- 48.625
2.09 --undefined-- 46.614
2.10 --undefined-- 46.323
2.11 --undefined-- 46.296
2.12 --undefined-- 46.634
2.13 --undefined-- 46.348
2.14 --undefined-- 45.315
2.15 --undefined-- 44.112
2.16 --undefined-- 43.318
2.17 --undefined-- 42.711
2.18 --undefined-- 42.176
2.19 --undefined-- 41.678
2.20 --undefined-- 41.993
2.21 --undefined-- 43.311
2.22 --undefined-- 43.548
2.23 --undefined-- 42.251
2.24 --undefined-- 40.343
2.25 --undefined-- 38.553
2.26 --undefined-- 38.160
2.27 --undefined-- 39.417
2.28 --undefined-- 42.527
2.29 --undefined-- 48.448
2.30 199.513 53.098
2.31 177.606 55.349
2.32 167.834 56.091
2.33 163.789 56.316
2.34 166.202 56.623
2.35 165.064 57.027
2.36 162.383 57.199
2.37 161.612 57.325
2.38 166.192 59.729
2.39 180.610 64.759
2.40 188.428 69.202
2.41 193.148 72.251
2.42 192.801 73.660
2.43 190.469 73.477
2.44 189.753 72.336
2.45 190.852 71.112
2.46 192.634 70.172
2.47 194.167 69.250
2.48 195.703 68.157
2.49 197.276 66.844
2.50 197.054 65.187
2.51 196.280 63.695
2.52 199.174 63.216
2.53 197.832 63.339
2.54 196.469 63.427
2.55 194.722 63.375
2.56 192.378 63.381
2.57 191.502 63.611
2.58 190.109 64.318
2.59 189.357 65.455
2.60 189.582 66.479
2.61 188.966 66.750
2.62 186.553 65.843
2.63 182.572 63.636
2.64 178.917 60.603
2.65 174.400 57.570
2.66 171.336 54.791
2.67 170.930 52.682
2.68 171.095 53.344
2.69 172.022 57.139
2.70 172.051 61.184
2.71 172.021 64.511
2.72 170.369 66.619
2.73 169.912 67.616
2.74 167.873 67.978
2.75 166.069 67.887
2.76 163.495 67.132
2.77 159.760 65.301
2.78 155.077 61.917
2.79 151.349 56.901
2.80 153.703 51.173
2.81 --undefined-- 46.163
2.82 --undefined-- 43.747
2.83 --undefined-- 42.982
2.84 --undefined-- 43.806
2.85 --undefined-- 45.755
2.86 --undefined-- 47.646
2.87 --undefined-- 49.616
2.88 --undefined-- 51.828
2.89 --undefined-- 54.150
2.90 --undefined-- 57.053
2.91 188.194 61.241
2.92 188.240 65.693
2.93 175.191 68.948
2.94 170.677 70.451
2.95 168.060 70.357
2.96 166.351 69.112
2.97 163.414 67.254
2.98 160.481 65.042
2.99 158.056 62.575
3.00 155.351 59.760
3.01 151.313 55.797
3.02 --undefined-- 50.025
3.03 --undefined-- 44.330
3.04 --undefined-- 43.642
3.05 --undefined-- 44.045
3.06 --undefined-- 44.173
3.07 --undefined-- 44.344
3.08 --undefined-- 44.245
3.09 --undefined-- 44.945
3.10 --undefined-- 47.595
3.11 --undefined-- 53.816
3.12 --undefined-- 61.333
3.13 166.086 66.336
3.14 164.695 68.913
3.15 164.187 69.804
3.16 162.282 69.385
3.17 159.609 67.740
3.18 156.781 65.076
3.19 156.052 61.991
3.20 159.530 59.489
3.21 162.404 58.559
3.22 84.051 58.593
3.23 79.939 58.440
3.24 82.487 58.279
3.25 84.629 57.829
3.26 89.985 56.430
3.27 91.442 54.077
3.28 --undefined-- 50.495
3.29 --undefined-- 45.064
3.30 --undefined-- 40.918
3.31 --undefined-- 41.176
3.32 --undefined-- 40.985
3.33 --undefined-- 39.911
3.34 --undefined-- 41.680
3.35 --undefined-- 53.194
3.36 --undefined-- 62.670
3.37 175.349 67.754
3.38 170.415 69.306
3.39 167.372 68.711
3.40 163.535 67.852
3.41 159.546 67.551
3.42 156.107 67.616
3.43 153.847 67.554
3.44 153.088 66.727
3.45 154.381 65.120
3.46 152.826 63.119
3.47 149.454 60.199
3.48 142.838 55.741
3.49 145.000 50.639
3.50 --undefined-- 46.610
3.51 --undefined-- 45.018
3.52 --undefined-- 46.801
3.53 164.004 51.875
3.54 156.541 56.727
3.55 152.122 59.892
3.56 151.755 61.637
3.57 146.991 62.592
3.58 146.998 62.982
3.59 146.882 63.164
3.60 145.834 63.437
3.61 145.426 63.616
3.62 143.876 63.603
3.63 142.316 63.451
3.64 141.184 62.927
3.65 140.492 61.474
3.66 136.811 58.643
3.67 134.079 54.756
3.68 141.290 51.620
3.69 133.793 49.591
3.70 --undefined-- 48.136
3.71 --undefined-- 47.111
3.72 --undefined-- 44.959
3.73 --undefined-- 42.124
3.74 --undefined-- 45.806
3.75 --undefined-- 54.990
3.76 --undefined-- 61.770
3.77 --undefined-- 65.766
3.78 --undefined-- 67.392
3.79 --undefined-- 67.468
3.80 --undefined-- 67.114
3.81 77.940 66.519
3.82 76.945 65.547
3.83 76.219 64.566
3.84 75.331 63.479
3.85 --undefined-- 62.604
3.86 --undefined-- 62.333
3.87 --undefined-- 62.299
3.88 --undefined-- 62.009
3.89 --undefined-- 61.252
3.90 --undefined-- 60.460
3.91 --undefined-- 60.075
3.92 --undefined-- 59.940
3.93 --undefined-- 60.042
3.94 --undefined-- 59.949
3.95 --undefined-- 59.976
3.96 --undefined-- 60.846
3.97 --undefined-- 61.531
3.98 --undefined-- 62.198
3.99 --undefined-- 62.690
4.00 --undefined-- 61.960
4.01 --undefined-- 60.851
4.02 76.396 59.273
4.03 --undefined-- 56.413
4.04 --undefined-- 53.906
4.05 --undefined-- 54.353
4.06 --undefined-- 55.354
4.07 --undefined-- 55.251
4.08 --undefined-- 54.981
4.09 163.883 53.921
4.10 158.880 51.967
4.11 153.413 49.617
4.12 --undefined-- 46.729
4.13 --undefined-- 43.607
4.14 --undefined-- 41.641
4.15 --undefined-- 41.509
4.16 --undefined-- 41.745
4.17 --undefined-- 41.701
4.18 --undefined-- 41.357
4.19 --undefined-- 41.636
4.20 --undefined-- 42.427
4.21 --undefined-- 42.431
4.22 --undefined-- 41.812
4.23 --undefined-- 40.915
4.24 --undefined-- 40.644
4.25 --undefined-- 41.678
4.26 --undefined-- 42.748
4.27 --undefined-- 43.061
4.28 --undefined-- 42.095
4.29 --undefined-- 40.807
4.30 --undefined-- 40.731
4.31 --undefined-- 40.989
4.32 --undefined-- 41.553
4.33 --undefined-- 42.239
4.34 --undefined-- 42.114
4.35 --undefined-- 41.700
4.36 --undefined-- 42.668
4.37 --undefined-- 44.506
4.38 --undefined-- 45.483
4.39 --undefined-- 45.334
4.40 --undefined-- 45.025
4.41 --undefined-- 45.848
4.42 --undefined-- 46.128
4.43 --undefined-- 45.182
4.44 --undefined-- 45.742
4.45 --undefined-- 51.439
4.46 --undefined-- 58.657
4.47 189.519 63.455
4.48 167.782 65.952
4.49 164.822 66.966
4.50 166.669 67.537
4.51 164.778 67.962
4.52 160.998 67.572
4.53 154.732 65.762
4.54 143.404 62.441
4.55 139.005 58.298
4.56 --undefined-- 57.093
4.57 --undefined-- 60.570
4.58 --undefined-- 62.469
4.59 --undefined-- 61.584
4.60 --undefined-- 58.952
4.61 --undefined-- 57.802
4.62 --undefined-- 61.431
4.63 224.046 66.808
4.64 223.734 70.567
4.65 223.676 72.515
4.66 223.380 73.287
4.67 221.326 73.393
4.68 222.788 73.215
4.69 224.912 72.963
4.70 225.065 72.326
4.71 221.200 70.746
4.72 --undefined-- 68.281
4.73 --undefined-- 65.186
4.74 --undefined-- 60.440
4.75 --undefined-- 52.785
4.76 --undefined-- 43.359
4.77 --undefined-- 38.454
4.78 --undefined-- 37.550
4.79 --undefined-- 40.048
4.80 --undefined-- 43.561
4.81 --undefined-- 45.665
4.82 --undefined-- 46.171
4.83 --undefined-- 45.670
4.84 --undefined-- 44.455
4.85 --undefined-- 43.242
4.86 --undefined-- 43.134
4.87 --undefined-- 46.810
4.88 --undefined-- 56.334
4.89 224.908 63.388
4.90 212.333 66.870
4.91 201.671 67.506
4.92 191.919 65.718
4.93 180.100 61.352
4.94 171.016 54.741
4.95 --undefined-- 48.076
4.96 --undefined-- 42.640
4.97 --undefined-- 43.186
4.98 --undefined-- 55.539
4.99 --undefined-- 64.298
5.00 197.173 69.163
5.01 183.291 71.263
5.02 178.875 71.851
5.03 176.902 71.475
5.04 173.718 70.068
5.05 171.626 68.210
5.06 169.794 66.536
5.07 168.294 65.431
5.08 167.403 64.764
5.09 167.480 64.191
5.10 167.250 63.868
5.11 167.391 64.090
5.12 167.218 64.653
5.13 167.264 65.421
5.14 166.782 66.370
5.15 165.664 67.213
5.16 164.210 67.299
5.17 162.183 66.080
5.18 78.936 64.247
5.19 78.789 63.329
5.20 78.784 62.368
5.21 --undefined-- 60.685
5.22 --undefined-- 58.534
5.23 --undefined-- 55.523
5.24 --undefined-- 50.941
5.25 --undefined-- 46.397
5.26 --undefined-- 45.432
5.27 --undefined-- 48.201
5.28 --undefined-- 50.912
5.29 --undefined-- 52.767
5.30 --undefined-- 53.085
5.31 --undefined-- 52.579
5.32 --undefined-- 53.744
5.33 --undefined-- 54.662
5.34 --undefined-- 53.567
5.35 --undefined-- 51.657
5.36 --undefined-- 50.097
5.37 --undefined-- 48.570
5.38 --undefined-- 47.605
5.39 --undefined-- 46.855
5.40 --undefined-- 46.147
5.41 --undefined-- 45.564
5.42 --undefined-- 44.834
5.43 --undefined-- 44.318
5.44 --undefined-- 44.250
5.45 --undefined-- 44.021
5.46 --undefined-- 43.650
5.47 --undefined-- 43.332
5.48 --undefined-- 43.012
5.49 --undefined-- 42.729
5.50 --undefined-- 43.053
5.51 --undefined-- 43.115
5.52 --undefined-- 42.449
5.53 --undefined-- 41.656
5.54 --undefined-- 40.800
5.55 --undefined-- 40.223
5.56 --undefined-- 40.620
5.57 --undefined-- 40.892
5.58 --undefined-- 40.990
5.59 --undefined-- 45.580
5.60 221.251 51.908
5.61 205.516 55.447
5.62 186.350 56.897
5.63 168.533 57.973
5.64 169.593 61.476
5.65 176.747 66.418
5.66 178.145 70.165
5.67 179.163 72.103
5.68 178.300 72.401
5.69 176.177 71.263
5.70 173.898 68.858
5.71 172.782 65.242
5.72 166.048 60.802
5.73 157.641 56.560
5.74 --undefined-- 52.636
5.75 --undefined-- 48.609
5.76 --undefined-- 46.070
5.77 --undefined-- 45.218
5.78 --undefined-- 44.754
5.79 --undefined-- 45.284
5.80 --undefined-- 46.808
5.81 --undefined-- 47.549
5.82 --undefined-- 46.322
5.83 --undefined-- 43.551
5.84 --undefined-- 41.450
5.85 --undefined-- 41.201
5.86 --undefined-- 41.680
5.87 --undefined-- 48.762
5.88 --undefined-- 59.149
5.89 --undefined-- 66.194
5.90 180.163 70.374
5.91 173.871 72.479
5.92 169.688 72.622
5.93 164.068 70.947
5.94 160.334 68.285
5.95 158.408 65.801
5.96 156.456 64.398
5.97 155.506 63.717
5.98 154.848 63.127
5.99 154.513 62.747
6.00 153.679 62.608
6.01 152.402 62.325
6.02 151.769 61.851
6.03 150.594 61.395
6.04 149.907 --undefined--
6.05 150.508 --undefined--
6.06 --undefined-- --undefined--
6.07 --undefined-- --undefined--
