Time Pitch Intensity
0.01 --undefined-- --undefined--
0.02 --undefined-- --undefined--
0.03 --undefined-- --undefined--
0.04 --undefined-- --undefined--
0.05 --undefined-- 56.439
0.06 --undefined-- 58.823
0.07 226.397 63.968
0.08 224.042 67.663
0.09 220.002 69.315
0.10 207.981 69.684
0.11 183.518 68.977
0.12 160.014 67.349
0.13 151.131 65.389
0.14 --undefined-- 63.606
0.15 --undefined-- 62.300
0.16 79.728 61.802
0.17 77.290 61.163
0.18 75.203 59.985
0.19 90.230 58.604
0.20 --undefined-- 57.198
0.21 --undefined-- 56.307
0.22 --undefined-- 55.490
0.23 --undefined-- 54.594
0.24 --undefined-- 52.041
0.25 --undefined-- 46.541
0.26 --undefined-- 41.224
0.27 --undefined-- 41.295
0.28 --undefined-- 43.925
0.29 --undefined-- 47.679
0.30 156.840 50.741
0.31 169.987 51.598
0.32 172.709 49.922
0.33 --undefined-- 48.114
0.34 --undefined-- 50.756
0.35 --undefined-- 52.954
0.36 --undefined-- 57.917
0.37 212.723 65.166
0.38 212.725 69.434
0.39 201.735 70.862
0.40 188.738 70.788
0.41 178.761 70.362
0.42 168.811 69.816
0.43 162.530 69.154
0.44 150.194 68.415
0.45 137.070 67.566
0.46 138.001 67.205
0.47 151.521 67.327
0.48 152.321 66.797
0.49 152.081 65.678
0.50 129.760 64.361
0.51 126.114 62.656
0.52 122.529 61.248
0.53 116.726 60.589
0.54 109.697 60.306
0.55 104.547 60.321
0.56 105.246 60.862
0.57 108.861 61.359
0.58 111.898 61.607
0.59 115.583 61.435
0.60 114.703 60.388
0.61 113.575 58.870
0.62 116.612 57.285
0.63 114.515 55.104
0.64 114.713 52.461
0.65 --undefined-- 50.419
0.66 --undefined-- 49.835
0.67 --undefined-- 49.885
0.68 --undefined-- 49.460
0.69 --undefined-- 49.139
0.70 --undefined-- 49.053
0.71 --undefined-- 48.987
0.72 --undefined-- 49.670
0.73 --undefined-- 50.627
0.74 --undefined-- 51.145
0.75 --undefined-- 52.012
0.76 --undefined-- 53.095
0.77 --undefined-- 54.076
0.78 --undefined-- 55.273
0.79 --undefined-- 56.378
0.80 --undefined-- 58.142
0.81 245.751 60.870
0.82 244.407 63.420
0.83 247.244 65.815
0.84 253.565 67.942
0.85 254.090 68.814
0.86 256.362 67.351
0.87 --undefined-- 62.900
0.88 --undefined-- 55.848
0.89 --undefined-- 48.382
0.90 --undefined-- 42.604
0.91 --undefined-- 38.103
0.92 --undefined-- 34.410
0.93 --undefined-- 31.295
0.94 --undefined-- 29.023
0.95 --undefined-- 28.149
0.96 --undefined-- 29.062
0.97 --undefined-- 31.286
0.98 --undefined-- 41.098
0.99 --undefined-- 51.388
1.00 --undefined-- 57.768
1.01 --undefined-- 61.727
1.02 267.404 65.492
1.03 271.673 68.542
1.04 290.247 69.619
1.05 160.231 69.020
1.06 177.612 67.959
1.07 186.176 67.662
1.08 190.740 67.892
1.09 191.452 68.014
1.10 189.257 67.888
1.11 185.112 67.809
1.12 179.834 68.046
1.13 174.429 68.628
1.14 168.771 69.467
1.15 164.909 70.335
1.16 161.028 71.198
1.17 156.178 72.077
1.18 151.435 72.522
1.19 146.507 72.403
1.20 --undefined-- 71.814
1.21 --undefined-- 70.891
1.22 224.099 70.277
1.23 220.976 70.040
1.24 219.336 69.724
1.25 219.652 69.430
1.26 225.405 69.386
1.27 232.704 69.562
1.28 228.607 69.721
1.29 224.978 69.532
1.30 224.599 69.141
1.31 223.459 69.032
1.32 227.006 68.829
1.33 228.533 68.313
1.34 227.841 68.645
1.35 243.998 69.791
1.36 254.590 70.361
1.37 258.207 70.156
1.38 262.329 69.754
1.39 272.058 69.937
1.40 276.002 70.364
1.41 275.244 70.397
1.42 279.149 70.369
1.43 286.021 70.019
1.44 --undefined-- 69.199
1.45 155.813 68.668
1.46 156.259 68.855
1.47 154.651 69.249
1.48 153.312 69.455
1.49 152.340 69.582
1.50 151.344 69.644
1.51 151.059 69.369
1.52 152.041 68.644
1.53 151.511 67.836
1.54 150.326 67.381
1.55 150.113 67.248
1.56 151.181 67.306
1.57 154.236 67.449
1.58 157.467 67.691
1.59 160.250 68.272
1.60 163.132 69.427
1.61 164.435 70.578
1.62 163.990 70.931
1.63 162.538 70.565
1.64 160.550 70.194
1.65 158.677 70.176
1.66 156.823 70.432
1.67 153.499 70.962
1.68 296.613 71.420
1.69 282.989 71.300
1.70 268.810 70.545
1.71 253.800 69.484
1.72 243.753 68.366
1.73 232.876 67.507
1.74 222.261 67.260
1.75 212.007 67.307
1.76 204.666 67.305
1.77 198.793 67.344
1.78 197.836 67.733
1.79 198.020 68.432
1.80 198.045 69.336
1.81 199.041 70.342
1.82 201.484 71.095
1.83 204.317 71.492
1.84 207.556 71.666
1.85 210.877 71.629
1.86 215.714 71.317
1.87 222.572 70.723
1.88 230.796 70.093
1.89 236.465 69.753
1.90 240.824 69.522
1.91 247.906 69.281
1.92 257.821 69.101
1.93 270.014 68.506
1.94 282.029 67.017
1.95 288.991 64.445
1.96 288.979 60.789
1.97 281.640 56.083
1.98 265.760 50.359
1.99 --undefined-- 44.105
2.00 --undefined-- 41.531
2.01 --undefined-- 44.663
2.02 --undefined-- 46.561
2.03 --undefined-- 47.967
2.04 --undefined-- 56.753
2.05 292.346 64.951
2.06 289.546 69.243
2.07 282.615 70.518
2.08 258.767 70.208
2.09 237.817 69.970
2.10 226.034 70.166
2.11 220.983 70.286
2.12 214.633 70.039
2.13 205.497 69.912
2.14 198.586 70.105
2.15 --undefined-- 69.885
2.16 --undefined-- 69.260
2.17 --undefined-- 68.321
2.18 --undefined-- 67.369
2.19 --undefined-- 67.100
2.20 --undefined-- 67.477
2.21 --undefined-- 68.322
2.22 --undefined-- 69.296
2.23 --undefined-- 69.906
2.24 223.036 70.173
2.25 231.357 70.120
2.26 237.172 69.220
2.27 240.213 66.946
2.28 239.624 64.628
2.29 242.058 65.592
2.30 241.739 67.574
2.31 245.776 69.106
2.32 247.442 69.919
2.33 249.735 70.051
2.34 253.752 69.969
2.35 251.842 70.235
2.36 247.211 70.605
2.37 242.912 70.743
2.38 240.661 70.448
2.39 238.549 69.248
2.40 235.858 67.595
2.41 234.650 67.870
2.42 235.363 69.189
2.43 234.567 69.827
2.44 233.040 69.947
2.45 229.819 69.778
2.46 223.913 69.323
2.47 216.746 68.590
2.48 207.551 67.774
2.49 193.712 67.532
2.50 184.806 67.917
2.51 177.376 68.299
2.52 173.645 68.508
2.53 172.077 68.611
2.54 172.280 68.885
2.55 174.233 69.399
2.56 177.757 69.899
2.57 180.671 70.003
2.58 182.819 69.184
2.59 186.762 67.270
2.60 195.710 64.710
2.61 192.416 62.089
2.62 187.373 60.747
2.63 194.082 61.273
2.64 194.574 61.904
2.65 198.619 62.349
2.66 210.013 63.118
2.67 213.479 64.345
2.68 228.325 66.142
2.69 237.064 68.166
2.70 235.478 69.731
2.71 220.394 70.510
2.72 204.734 70.449
2.73 198.287 69.871
2.74 196.723 69.508
2.75 197.575 69.593
2.76 198.988 69.703
2.77 200.662 69.609
2.78 202.631 69.338
2.79 204.873 68.786
2.80 208.075 67.634
2.81 209.538 65.562
2.82 207.161 62.365
2.83 207.429 57.898
2.84 --undefined-- 52.241
2.85 --undefined-- 46.143
2.86 --undefined-- 39.709
2.87 --undefined-- 35.875
2.88 --undefined-- 36.592
2.89 --undefined-- 40.070
2.90 --undefined-- 51.185
2.91 224.896 60.266
2.92 209.947 65.381
2.93 196.654 67.716
2.94 196.077 68.585
2.95 197.833 68.911
2.96 200.560 68.980
2.97 204.007 68.666
2.98 204.847 67.627
2.99 202.169 65.586
3.00 195.647 62.380
3.01 192.225 57.796
3.02 --undefined-- 51.469
3.03 --undefined-- 52.254
3.04 --undefined-- 62.086
3.05 248.021 67.913
3.06 244.449 70.295
3.07 244.069 70.498
3.08 247.976 69.854
3.09 252.279 68.543
3.10 254.166 67.138
3.11 259.842 68.084
3.12 264.171 69.758
3.13 274.332 70.583
3.14 282.273 70.629
3.15 286.444 70.222
3.16 288.218 69.891
3.17 285.102 69.919
3.18 279.704 70.125
3.19 274.061 70.188
3.20 263.147 70.108
3.21 254.812 70.485
3.22 248.293 71.240
3.23 241.606 71.510
3.24 230.068 71.205
3.25 219.727 70.937
3.26 212.805 70.988
3.27 206.353 71.151
3.28 201.038 71.059
3.29 195.945 70.862
3.30 191.887 70.531
3.31 188.478 69.612
3.32 185.104 67.973
3.33 182.844 65.702
3.34 179.438 63.196
3.35 175.535 61.811
3.36 179.151 61.771
3.37 178.436 61.804
3.38 176.603 61.650
3.39 172.302 61.280
3.40 162.651 60.562
3.41 160.412 59.634
3.42 --undefined-- 58.160
3.43 --undefined-- 55.978
3.44 --undefined-- 53.644
3.45 --undefined-- 50.819
3.46 --undefined-- 48.250
3.47 --undefined-- 48.970
3.48 --undefined-- 54.374
3.49 140.748 59.121
3.50 149.152 62.389
3.51 157.942 64.741
3.52 173.926 66.787
3.53 186.187 68.448
3.54 192.648 69.295
3.55 193.089 69.962
3.56 190.799 70.636
3.57 188.948 70.302
3.58 195.766 69.554
3.59 203.593 69.638
3.60 211.370 69.911
3.61 220.951 69.337
3.62 224.600 67.165
3.63 220.466 63.161
3.64 218.940 58.270
3.65 --undefined-- 52.553
3.66 --undefined-- 46.819
3.67 --undefined-- 56.855
3.68 --undefined-- 65.523
3.69 --undefined-- 69.844
3.70 --undefined-- 71.002
3.71 191.939 70.609
3.72 181.392 70.058
3.73 174.149 69.507
3.74 172.548 69.120
3.75 170.938 68.919
3.76 169.931 68.360
3.77 169.395 67.187
3.78 168.588 65.374
3.79 170.195 63.134
3.80 179.508 61.988
3.81 191.760 62.664
3.82 195.532 63.000
3.83 197.173 61.378
3.84 192.915 57.209
3.85 --undefined-- 50.851
3.86 --undefined-- 45.677
3.87 --undefined-- 44.989
3.88 --undefined-- 53.879
3.89 252.997 63.547
3.90 244.334 69.123
3.91 231.534 71.426
3.92 220.667 71.575
3.93 210.568 70.880
3.94 202.034 70.090
3.95 195.641 69.155
3.96 --undefined-- 68.274
3.97 --undefined-- 67.602
3.98 --undefined-- 67.268
3.99 --undefined-- 66.613
4.00 --undefined-- 64.672
4.01 --undefined-- 61.555
4.02 --undefined-- 59.751
4.03 --undefined-- 60.493
4.04 --undefined-- 61.563
4.05 221.519 63.127
4.06 228.816 64.993
4.07 235.142 66.613
4.08 241.611 68.225
4.09 246.660 69.925
4.10 245.490 70.966
4.11 244.161 71.177
4.12 242.747 71.099
4.13 241.532 70.933
4.14 240.407 70.585
4.15 238.724 70.066
4.16 237.157 69.482
4.17 234.961 68.978
4.18 232.476 68.283
4.19 230.095 66.548
4.20 226.072 63.170
4.21 217.813 58.700
4.22 217.164 54.053
4.23 --undefined-- 48.108
4.24 --undefined-- 49.658
4.25 --undefined-- 59.587
4.26 --undefined-- 65.582
4.27 196.500 68.136
4.28 184.577 68.142
4.29 176.455 66.745
4.30 169.972 64.756
4.31 164.355 62.354
4.32 168.681 60.853
4.33 168.088 61.692
4.34 173.792 63.900
4.35 173.705 65.722
4.36 172.833 66.728
4.37 171.726 67.172
4.38 169.576 67.173
4.39 165.757 66.743
4.40 160.549 65.990
4.41 156.965 65.077
4.42 153.180 64.150
4.43 152.259 63.868
4.44 152.159 64.718
4.45 153.031 65.848
4.46 152.794 66.411
4.47 151.775 66.245
4.48 152.033 65.568
4.49 154.655 64.718
4.50 158.120 64.065
4.51 161.388 63.790
4.52 164.950 63.846
4.53 169.230 64.146
4.54 173.444 64.576
4.55 179.928 65.232
4.56 186.587 66.071
4.57 189.548 66.740
4.58 190.669 67.142
4.59 191.425 67.198
4.60 192.646 67.020
4.61 196.134 67.273
4.62 201.511 68.559
4.63 204.005 70.010
4.64 197.986 70.584
4.65 188.300 70.430
4.66 182.939 69.630
4.67 164.647 67.666
4.68 156.293 65.409
4.69 155.500 65.339
4.70 152.675 66.221
4.71 152.066 66.616
4.72 152.568 66.762
4.73 154.095 66.948
4.74 154.990 67.254
4.75 155.825 67.612
4.76 158.057 67.949
4.77 161.069 68.244
4.78 164.212 68.472
4.79 167.278 68.593
4.80 170.301 68.601
4.81 174.571 68.518
4.82 178.394 68.353
4.83 180.723 68.205
4.84 181.586 68.173
4.85 180.852 68.149
4.86 179.783 68.242
4.87 176.054 68.619
4.88 172.860 68.951
4.89 172.174 69.033
4.90 171.650 69.023
4.91 170.988 68.894
4.92 171.213 68.590
4.93 171.313 68.210
4.94 170.628 67.806
4.95 169.852 67.110
4.96 168.716 65.394
4.97 164.238 61.913
4.98 168.606 56.440
4.99 --undefined-- 49.231
5.00 --undefined-- 41.275
5.01 --undefined-- 37.310
5.02 --undefined-- 39.295
5.03 --undefined-- 45.090
5.04 --undefined-- 56.288
5.05 --undefined-- 64.245
5.06 198.174 68.620
5.07 196.788 70.159
5.08 193.384 69.934
5.09 190.095 69.067
5.10 187.496 68.400
5.11 184.514 68.123
5.12 182.605 67.997
5.13 180.948 67.865
5.14 178.611 67.690
5.15 175.344 --undefined--
5.16 169.630 --undefined--
5.17 --undefined-- --undefined--
5.18 --undefined-- --undefined--
