Time Pitch Intensity
0.01 --undefined-- --undefined--
0.02 --undefined-- --undefined--
0.03 --undefined-- --undefined--
0.04 --undefined-- --undefined--
0.05 --undefined-- 44.265
0.06 --undefined-- 43.990
0.07 --undefined-- 44.498
0.08 --undefined-- 45.108
0.09 --undefined-- 45.155
0.10 --undefined-- 44.412
0.11 --undefined-- 43.183
0.12 --undefined-- 42.820
0.13 --undefined-- 42.960
0.14 --undefined-- 42.471
0.15 --undefined-- 41.389
0.16 --undefined-- 39.579
0.17 --undefined-- 37.300
0.18 --undefined-- 36.813
0.19 --undefined-- 38.416
0.20 --undefined-- 39.970
0.21 --undefined-- 39.700
0.22 --undefined-- 37.135
0.23 --undefined-- 34.161
0.24 --undefined-- 35.016
0.25 --undefined-- 37.984
0.26 --undefined-- 39.536
0.27 --undefined-- 38.934
0.28 --undefined-- 36.499
0.29 --undefined-- 33.355
0.30 --undefined-- 35.928
0.31 --undefined-- 48.234
0.32 --undefined-- 57.698
0.33 146.228 63.442
0.34 140.128 66.791
0.35 132.398 68.614
0.36 126.020 69.289
0.37 123.991 69.293
0.38 121.524 69.029
0.39 120.425 68.704
0.40 119.230 68.335
0.41 117.557 67.915
0.42 115.035 67.601
0.43 113.429 67.467
0.44 112.129 67.438
0.45 111.252 67.479
0.46 110.935 67.545
0.47 110.242 67.573
0.48 106.119 67.442
0.49 101.551 66.984
0.50 --undefined-- 66.126
0.51 --undefined-- 64.682
0.52 --undefined-- 62.262
0.53 --undefined-- 59.437
0.54 --undefined-- 56.265
0.55 --undefined-- 50.520
0.56 --undefined-- 43.528
0.57 --undefined-- 46.934
0.58 --undefined-- 55.748
0.59 --undefined-- 61.491
0.60 --undefined-- 64.913
0.61 164.439 67.182
0.62 174.786 68.778
0.63 179.274 69.823
0.64 180.136 70.428
0.65 180.118 70.792
0.66 180.976 71.055
0.67 184.472 70.747
0.68 185.769 69.106
0.69 182.127 65.589
0.70 184.192 60.255
0.71 --undefined-- 53.681
0.72 --undefined-- 45.892
0.73 --undefined-- 41.221
0.74 --undefined-- 40.964
0.75 --undefined-- 40.978
0.76 --undefined-- 42.507
0.77 --undefined-- 48.018
0.78 --undefined-- 57.604
0.79 --undefined-- 64.630
0.80 --undefined-- 68.797
0.81 161.184 70.937
0.82 152.081 71.927
0.83 147.513 72.088
0.84 143.118 71.412
0.85 138.721 70.430
0.86 135.119 69.607
0.87 134.314 69.027
0.88 134.848 68.718
0.89 134.608 68.267
0.90 132.917 67.255
0.91 130.362 65.742
0.92 130.260 64.146
0.93 134.534 62.916
0.94 139.537 62.391
0.95 140.718 62.871
0.96 140.053 63.940
0.97 137.902 65.221
0.98 131.596 66.419
0.99 124.506 67.052
1.00 116.779 66.540
1.01 88.922 64.915
1.02 89.697 62.648
1.03 90.864 60.266
1.04 91.590 57.876
1.05 91.673 55.795
1.06 93.581 56.953
1.07 124.101 59.341
1.08 119.925 61.971
1.09 131.530 64.518
1.10 139.214 66.763
1.11 143.772 68.283
1.12 147.433 69.009
1.13 149.235 69.144
1.14 149.687 68.664
1.15 152.181 67.981
1.16 155.717 67.234
1.17 156.358 65.468
1.18 156.432 61.946
1.19 162.974 57.020
1.20 164.603 52.180
1.21 181.454 50.283
1.22 191.035 51.037
1.23 200.573 51.205
1.24 197.322 49.974
1.25 --undefined-- 52.690
1.26 --undefined-- 60.498
1.27 --undefined-- 65.472
1.28 170.669 67.850
1.29 159.841 68.849
1.30 151.189 69.193
1.31 145.877 68.829
1.32 139.481 67.859
1.33 130.567 67.034
1.34 127.663 66.934
1.35 126.600 67.294
1.36 126.888 67.659
1.37 128.303 67.830
1.38 127.474 67.541
1.39 128.967 66.783
1.40 135.053 66.063
1.41 139.162 65.595
1.42 142.835 65.389
1.43 146.429 65.510
1.44 146.964 65.848
1.45 143.064 66.304
1.46 124.586 66.888
1.47 118.072 67.099
1.48 106.187 66.317
1.49 100.968 65.024
1.50 99.692 64.389
1.51 100.890 64.472
1.52 105.632 64.982
1.53 113.826 65.825
1.54 120.879 66.467
1.55 132.719 66.675
1.56 142.017 66.987
1.57 147.888 67.748
1.58 152.685 68.579
1.59 155.049 69.324
1.60 155.103 70.138
1.61 154.417 70.935
1.62 153.320 71.380
1.63 151.369 71.310
1.64 149.390 70.738
1.65 146.900 69.813
1.66 142.102 68.640
1.67 138.400 67.126
1.68 135.031 64.804
1.69 131.488 61.291
1.70 146.506 57.377
1.71 155.311 54.108
1.72 154.809 50.902
1.73 --undefined-- 47.611
1.74 --undefined-- 45.815
1.75 --undefined-- 48.679
1.76 --undefined-- 55.946
1.77 --undefined-- 61.084
1.78 --undefined-- 63.716
1.79 --undefined-- 64.984
1.80 --undefined-- 65.908
1.81 104.508 66.310
1.82 99.831 65.939
1.83 95.124 65.212
1.84 94.473 64.373
1.85 95.214 63.526
1.86 97.030 63.157
1.87 99.514 63.378
1.88 103.946 63.972
1.89 111.417 64.556
1.90 116.734 65.065
1.91 122.067 65.596
1.92 129.173 66.149
1.93 136.377 66.879
1.94 144.857 67.871
1.95 152.606 68.586
1.96 157.385 68.229
1.97 160.763 66.527
1.98 163.674 63.710
1.99 163.158 59.631
2.00 163.687 53.798
2.01 --undefined-- 46.675
2.02 --undefined-- 42.027
2.03 --undefined-- 44.905
2.04 --undefined-- 53.880
2.05 --undefined-- 60.849
2.06 --undefined-- 64.904
2.07 158.723 66.970
2.08 149.926 67.735
2.09 139.742 67.534
2.10 133.801 66.964
2.11 133.421 66.338
2.12 132.177 65.235
2.13 132.081 63.151
2.14 133.759 59.455
2.15 132.642 53.736
2.16 --undefined-- 47.496
2.17 --undefined-- 44.930
2.18 --undefined-- 45.783
2.19 --undefined-- 52.833
2.20 --undefined-- 60.572
2.21 179.801 65.282
2.22 160.130 67.616
2.23 153.375 68.311
2.24 147.837 67.826
2.25 144.342 66.663
2.26 143.352 66.099
2.27 147.716 66.640
2.28 148.695 67.089
2.29 148.425 66.869
2.30 145.011 65.637
2.31 143.962 63.194
2.32 146.590 59.690
2.33 143.869 55.506
2.34 150.076 53.987
2.35 163.035 58.960
2.36 151.766 63.181
2.37 138.232 65.506
2.38 --undefined-- 66.410
2.39 --undefined-- 65.993
2.40 --undefined-- 64.423
2.41 --undefined-- 62.376
2.42 --undefined-- 60.209
2.43 --undefined-- 57.589
2.44 74.989 54.914
2.45 76.902 52.629
2.46 111.129 51.408
2.47 112.436 50.751
2.48 137.905 49.222
2.49 --undefined-- 46.108
2.50 --undefined-- 46.898
2.51 --undefined-- 54.266
2.52 --undefined-- 59.989
2.53 147.973 63.470
2.54 143.086 65.192
2.55 140.983 65.724
2.56 140.958 65.619
2.57 141.081 65.324
2.58 141.480 65.167
2.59 141.923 65.231
2.60 142.139 65.405
2.61 143.017 65.754
2.62 144.596 66.436
2.63 145.444 67.362
2.64 146.745 68.207
2.65 147.566 68.544
2.66 146.931 68.280
2.67 144.824 67.917
2.68 143.657 67.912
2.69 142.845 68.157
2.70 142.491 68.380
2.71 142.342 68.122
2.72 141.127 66.768
2.73 134.389 63.643
2.74 132.686 58.352
2.75 --undefined-- 51.514
2.76 --undefined-- 46.504
2.77 --undefined-- 44.414
2.78 --undefined-- 42.957
2.79 --undefined-- 43.367
2.80 --undefined-- 45.328
2.81 --undefined-- 47.700
2.82 --undefined-- 49.694
2.83 --undefined-- 51.168
2.84 --undefined-- 55.108
2.85 164.597 61.707
2.86 155.820 66.489
2.87 134.461 69.092
2.88 123.580 70.139
2.89 119.740 70.308
2.90 116.847 70.063
2.91 115.070 69.680
2.92 113.888 69.582
2.93 112.562 69.709
2.94 108.663 69.518
2.95 104.743 68.552
2.96 101.154 66.682
2.97 88.181 64.000
2.98 148.840 60.358
2.99 146.364 55.908
3.00 136.133 51.101
3.01 --undefined-- 45.967
3.02 --undefined-- 45.798
3.03 --undefined-- 46.066
3.04 --undefined-- 43.017
3.05 --undefined-- 39.122
3.06 --undefined-- 39.689
3.07 --undefined-- 40.883
3.08 --undefined-- 40.899
3.09 --undefined-- 39.838
3.10 --undefined-- 38.750
3.11 --undefined-- 39.003
3.12 --undefined-- 39.896
3.13 --undefined-- 40.384
3.14 --undefined-- 40.672
3.15 --undefined-- 40.941
3.16 --undefined-- 41.062
3.17 --undefined-- 40.442
3.18 --undefined-- 39.704
3.19 --undefined-- 40.137
3.20 --undefined-- 40.678
3.21 --undefined-- 40.019
3.22 --undefined-- 37.755
3.23 --undefined-- 35.183
3.24 --undefined-- 35.626
3.25 --undefined-- 38.010
3.26 --undefined-- 38.455
3.27 --undefined-- 36.808
3.28 --undefined-- 34.318
3.29 --undefined-- 33.013
3.30 --undefined-- 34.321
3.31 --undefined-- 36.912
3.32 --undefined-- 44.866
3.33 --undefined-- 55.529
3.34 --undefined-- 62.459
3.35 160.406 66.657
3.36 155.814 69.320
3.37 153.454 71.439
3.38 162.785 73.389
3.39 167.966 74.798
3.40 176.826 75.414
3.41 193.279 75.441
3.42 197.611 75.289
3.43 202.155 75.076
3.44 207.675 75.154
3.45 210.900 75.477
3.46 212.222 75.527
3.47 216.396 75.188
3.48 209.080 74.439
3.49 206.322 73.654
3.50 204.988 73.240
3.51 204.644 73.096
3.52 204.846 73.054
3.53 202.968 72.827
3.54 200.181 72.314
3.55 198.382 71.494
3.56 197.669 70.298
3.57 198.004 68.683
3.58 202.167 66.729
3.59 208.032 64.467
3.60 210.819 61.294
3.61 204.371 56.193
3.62 --undefined-- 48.645
3.63 --undefined-- 42.440
3.64 --undefined-- 41.723
3.65 --undefined-- 41.147
3.66 --undefined-- 39.703
3.67 --undefined-- 38.622
3.68 --undefined-- 39.222
3.69 --undefined-- 39.809
3.70 --undefined-- 39.507
3.71 --undefined-- 38.596
3.72 --undefined-- 36.856
3.73 --undefined-- 34.543
3.74 --undefined-- 36.307
3.75 --undefined-- 39.094
3.76 --undefined-- 39.887
3.77 --undefined-- 39.165
3.78 --undefined-- 37.525
3.79 --undefined-- 35.894
3.80 --undefined-- 41.862
3.81 --undefined-- 52.866
3.82 --undefined-- 60.544
3.83 164.805 65.146
3.84 159.295 67.721
3.85 155.058 69.219
3.86 154.386 70.135
3.87 157.858 70.450
3.88 158.683 70.181
3.89 163.008 70.221
3.90 171.429 70.727
3.91 181.345 71.076
3.92 200.642 71.199
3.93 206.848 70.902
3.94 206.039 69.954
3.95 205.124 68.054
3.96 201.727 64.828
3.97 195.073 60.320
3.98 184.638 54.736
3.99 --undefined-- 50.423
4.00 --undefined-- 55.644
4.01 --undefined-- 62.975
4.02 200.325 67.819
4.03 197.003 70.286
4.04 175.457 71.283
4.05 162.921 71.799
4.06 158.043 72.459
4.07 144.995 73.214
4.08 140.854 73.657
4.09 138.983 73.776
4.10 138.095 73.627
4.11 138.176 73.403
4.12 139.122 73.226
4.13 141.128 73.053
4.14 145.947 73.098
4.15 150.895 73.239
4.16 153.706 73.082
4.17 158.314 72.895
4.18 161.687 72.421
4.19 162.168 71.653
4.20 164.892 71.396
4.21 165.163 71.535
4.22 165.605 71.770
4.23 168.234 72.284
4.24 168.614 73.235
4.25 169.260 73.838
4.26 169.704 73.642
4.27 170.632 72.785
4.28 172.429 71.391
4.29 176.991 69.924
4.30 182.469 68.724
4.31 185.903 67.322
4.32 189.001 65.624
4.33 186.682 63.999
4.34 181.445 62.444
4.35 171.032 60.697
4.36 167.543 59.701
4.37 166.585 60.035
4.38 168.852 61.673
4.39 174.801 64.008
4.40 167.637 65.914
4.41 161.599 67.406
4.42 151.795 68.514
4.43 146.293 68.972
4.44 145.030 68.899
4.45 147.410 69.056
4.46 149.030 69.644
4.47 152.284 69.923
4.48 153.967 69.606
4.49 151.816 69.197
4.50 149.973 68.740
4.51 147.287 67.882
4.52 144.339 66.879
4.53 144.305 66.649
4.54 145.937 67.801
4.55 149.006 69.291
4.56 145.705 69.906
4.57 136.816 69.922
4.58 131.079 70.214
4.59 123.769 70.439
4.60 122.463 70.361
4.61 122.424 69.929
4.62 122.826 69.282
4.63 136.409 69.448
4.64 141.328 70.087
4.65 148.879 70.447
4.66 156.164 70.508
4.67 166.299 70.430
4.68 184.225 70.605
4.69 189.620 70.643
4.70 190.900 69.987
4.71 191.035 68.394
4.72 190.671 65.868
4.73 189.805 62.871
4.74 186.441 60.478
4.75 190.984 61.986
4.76 186.628 66.124
4.77 181.306 68.973
4.78 171.651 70.327
4.79 162.544 70.959
4.80 157.535 71.219
4.81 150.115 70.941
4.82 148.453 70.457
4.83 150.328 70.319
4.84 155.842 70.611
4.85 158.597 70.517
4.86 157.431 69.154
4.87 153.769 66.235
4.88 159.417 62.033
4.89 157.301 57.158
4.90 152.420 52.929
4.91 --undefined-- 49.964
4.92 --undefined-- 47.634
4.93 --undefined-- 46.261
4.94 --undefined-- 52.060
4.95 --undefined-- 59.476
4.96 187.314 64.394
4.97 186.175 67.474
4.98 179.377 69.124
4.99 174.934 69.656
5.00 174.502 69.648
5.01 175.773 69.390
5.02 175.332 68.645
5.03 174.284 67.353
5.04 177.237 66.309
5.05 175.295 65.918
5.06 173.974 65.743
5.07 172.586 65.798
5.08 170.514 66.011
5.09 161.483 66.363
5.10 150.610 67.123
5.11 139.170 67.595
5.12 129.967 67.193
5.13 118.637 66.508
5.14 113.559 66.202
5.15 108.676 66.210
5.16 106.442 66.052
5.17 106.356 65.360
5.18 106.572 64.541
5.19 109.615 64.631
5.20 114.459 65.588
5.21 117.409 66.590
5.22 121.420 67.439
5.23 125.730 68.217
5.24 129.357 69.017
5.25 132.230 70.042
5.26 134.300 71.017
5.27 136.773 71.515
5.28 139.173 71.514
5.29 139.529 70.952
5.30 140.021 70.009
5.31 140.733 68.852
5.32 141.414 67.570
5.33 141.393 66.190
5.34 137.406 64.047
5.35 132.070 60.228
5.36 177.927 55.715
5.37 172.948 52.032
5.38 --undefined-- 48.161
5.39 --undefined-- 44.168
5.40 --undefined-- 41.656
5.41 --undefined-- 42.697
5.42 --undefined-- 51.798
5.43 --undefined-- 60.682
5.44 161.975 65.770
5.45 152.965 68.101
5.46 141.895 68.889
5.47 131.413 69.234
5.48 124.096 69.439
5.49 118.170 69.137
5.50 116.006 68.472
5.51 116.902 68.186
5.52 120.825 68.459
5.53 125.881 68.894
5.54 128.539 69.214
5.55 129.343 69.243
5.56 129.896 68.879
5.57 129.218 68.243
5.58 128.908 67.846
5.59 134.082 68.340
5.60 128.840 69.109
5.61 126.310 69.248
5.62 122.388 68.791
5.63 119.334 68.024
5.64 116.939 67.036
5.65 113.561 66.056
5.66 113.746 66.216
5.67 117.218 67.564
5.68 118.293 68.566
5.69 119.625 68.864
5.70 120.628 68.826
5.71 121.669 68.730
5.72 122.424 68.703
5.73 122.841 68.706
5.74 123.997 68.640
5.75 126.090 68.318
5.76 126.995 --undefined--
5.77 126.368 --undefined--
5.78 --undefined-- --undefined--
5.79 --undefined-- --undefined--
