Time Pitch Intensity
0.01 --undefined-- --undefined--
0.02 104.636 --undefined--
0.03 104.930 --undefined--
0.04 105.868 --undefined--
0.05 107.490 69.404
0.06 110.908 68.985
0.07 113.329 68.298
0.08 112.632 66.732
0.09 107.503 64.353
0.10 99.280 61.845
0.11 87.579 59.970
0.12 92.896 59.806
0.13 104.911 61.730
0.14 118.167 64.237
0.15 123.844 66.407
0.16 124.208 68.253
0.17 121.652 69.918
0.18 119.714 71.784
0.19 124.557 73.155
0.20 118.258 73.217
0.21 112.340 72.751
0.22 108.439 72.462
0.23 105.351 72.413
0.24 105.932 72.635
0.25 107.083 72.807
0.26 107.296 72.901
0.27 107.317 72.870
0.28 106.102 72.541
0.29 104.461 71.716
0.30 100.082 70.439
0.31 102.081 69.568
0.32 101.416 69.214
0.33 99.652 68.573
0.34 99.517 67.259
0.35 102.081 64.973
0.36 102.500 61.860
0.37 102.912 59.661
0.38 --undefined-- 63.172
0.39 --undefined-- 68.975
0.40 121.280 72.656
0.41 117.376 74.417
0.42 114.238 74.713
0.43 110.881 73.893
0.44 107.673 72.081
0.45 104.678 70.075
0.46 107.195 69.351
0.47 106.557 69.477
0.48 105.416 69.301
0.49 103.958 68.335
0.50 103.377 66.761
0.51 103.736 65.093
0.52 104.252 63.309
0.53 103.398 60.930
0.54 104.464 58.195
0.55 108.018 57.129
0.56 --undefined-- 59.306
0.57 --undefined-- 64.740
0.58 --undefined-- 70.313
0.59 --undefined-- 73.165
0.60 107.053 73.564
0.61 103.124 72.749
0.62 100.704 71.601
0.63 101.083 70.218
0.64 100.152 68.424
0.65 98.840 65.500
0.66 98.522 61.678
0.67 100.273 58.752
0.68 102.355 56.879
0.69 104.751 54.808
0.70 --undefined-- 51.652
0.71 --undefined-- 47.222
0.72 --undefined-- 42.986
0.73 --undefined-- 40.670
0.74 --undefined-- 39.005
0.75 --undefined-- 47.589
0.76 --undefined-- 60.509
0.77 --undefined-- 67.955
0.78 --undefined-- 71.217
0.79 92.829 71.480
0.80 92.634 70.508
0.81 96.001 70.203
0.82 --undefined-- 70.205
0.83 --undefined-- 69.979
0.84 --undefined-- 69.480
0.85 89.824 68.515
0.86 90.247 67.950
0.87 90.034 67.495
0.88 89.848 67.268
0.89 90.193 67.183
0.90 93.506 66.590
0.91 93.299 65.454
0.92 94.946 64.599
0.93 95.755 64.677
0.94 96.537 65.006
0.95 96.312 65.233
0.96 96.566 65.284
0.97 96.878 65.064
0.98 97.458 65.071
0.99 99.503 66.336
1.00 101.486 68.389
1.01 102.924 69.938
1.02 103.926 70.871
1.03 108.381 71.803
1.04 111.765 72.972
1.05 118.734 74.030
1.06 123.708 74.700
1.07 130.590 75.326
1.08 137.717 76.141
1.09 147.298 76.756
1.10 153.503 77.132
1.11 162.268 77.460
1.12 169.391 76.878
1.13 171.068 74.329
1.14 172.802 69.677
1.15 172.755 64.045
1.16 85.884 59.204
1.17 84.752 56.761
1.18 83.059 55.843
1.19 82.461 54.936
1.20 --undefined-- 53.954
1.21 --undefined-- 51.808
1.22 --undefined-- 48.198
1.23 --undefined-- 45.352
1.24 --undefined-- 43.944
1.25 --undefined-- 42.989
1.26 --undefined-- 42.454
1.27 --undefined-- 42.156
1.28 --undefined-- 42.417
1.29 --undefined-- 42.800
1.30 --undefined-- 42.948
1.31 --undefined-- 42.330
1.32 --undefined-- 41.746
1.33 --undefined-- 41.499
1.34 --undefined-- 41.208
1.35 --undefined-- 41.052
1.36 --undefined-- 40.810
1.37 --undefined-- 40.511
1.38 --undefined-- 40.408
1.39 --undefined-- 40.497
1.40 --undefined-- 40.393
1.41 --undefined-- 39.853
1.42 --undefined-- 38.656
1.43 --undefined-- 37.444
1.44 --undefined-- 36.730
1.45 --undefined-- 36.034
1.46 --undefined-- 35.260
1.47 --undefined-- 35.109
1.48 --undefined-- 35.791
1.49 --undefined-- 38.010
1.50 --undefined-- 39.677
1.51 --undefined-- 39.992
1.52 --undefined-- 52.726
1.53 --undefined-- 64.862
1.54 --undefined-- 71.946
1.55 151.499 75.378
1.56 148.221 76.637
1.57 145.259 77.275
1.58 142.453 77.685
1.59 140.388 77.624
1.60 140.120 77.548
1.61 142.449 78.087
1.62 143.976 78.672
1.63 143.120 78.332
1.64 142.042 76.336
1.65 140.823 72.170
1.66 138.495 66.318
1.67 142.829 60.964
1.68 --undefined-- 61.007
1.69 --undefined-- 68.794
1.70 --undefined-- 74.910
1.71 --undefined-- 77.588
1.72 199.120 77.778
1.73 198.550 77.196
1.74 200.728 76.923
1.75 201.375 76.815
1.76 199.350 76.491
1.77 195.275 75.945
1.78 182.677 75.719
1.79 170.514 75.770
1.80 159.513 75.363
1.81 140.218 74.518
1.82 130.717 74.300
1.83 124.332 74.690
1.84 119.557 75.007
1.85 115.818 75.206
1.86 111.890 75.237
1.87 110.469 75.336
1.88 110.545 75.737
1.89 111.833 76.222
1.90 113.146 76.676
1.91 113.587 76.982
1.92 113.082 76.993
1.93 111.623 76.667
1.94 110.374 76.018
1.95 109.225 74.859
1.96 108.521 72.622
1.97 110.320 68.627
1.98 115.856 62.650
1.99 116.688 56.926
2.00 116.875 55.363
2.01 --undefined-- 56.119
2.02 --undefined-- 57.714
2.03 --undefined-- 59.979
2.04 --undefined-- 61.111
2.05 --undefined-- 63.528
2.06 --undefined-- 70.221
2.07 181.389 75.150
2.08 157.347 77.466
2.09 156.647 78.167
2.10 156.977 78.217
2.11 156.924 78.104
2.12 157.038 78.020
2.13 157.949 77.964
2.14 158.781 77.907
2.15 159.152 77.869
2.16 159.209 77.947
2.17 159.043 78.146
2.18 158.306 78.399
2.19 156.794 78.637
2.20 154.219 78.670
2.21 151.378 78.456
2.22 148.092 78.090
2.23 144.968 77.662
2.24 142.233 77.202
2.25 139.707 77.015
2.26 139.931 77.410
2.27 140.361 77.871
2.28 141.282 78.120
2.29 143.334 78.319
2.30 145.430 78.346
2.31 143.435 77.979
2.32 141.688 77.551
2.33 140.537 77.366
2.34 140.349 77.306
2.35 140.157 77.374
2.36 137.941 77.617
2.37 135.222 77.942
2.38 124.860 77.963
2.39 124.183 77.702
2.40 123.433 77.444
2.41 124.559 77.240
2.42 124.186 77.108
2.43 123.037 77.073
2.44 123.749 77.108
2.45 121.377 77.175
2.46 119.649 77.138
2.47 117.964 76.897
2.48 115.981 76.555
2.49 113.808 76.295
2.50 113.307 76.126
2.51 112.653 75.925
2.52 110.803 75.750
2.53 111.319 75.775
2.54 110.501 75.926
2.55 110.552 76.082
2.56 110.590 76.226
2.57 110.456 76.265
2.58 110.543 76.175
2.59 110.525 76.082
2.60 110.882 75.985
2.61 110.205 75.807
2.62 108.675 75.603
2.63 108.473 75.687
2.64 113.677 76.200
2.65 116.708 76.652
2.66 114.364 76.750
2.67 114.074 76.585
2.68 119.292 76.458
2.69 126.179 76.554
2.70 134.830 76.801
2.71 145.519 77.222
2.72 154.428 77.527
2.73 165.986 77.402
2.74 180.695 77.210
2.75 194.867 77.375
2.76 203.284 77.753
2.77 211.277 77.857
2.78 216.421 77.959
2.79 216.670 78.488
2.80 214.444 79.054
2.81 210.453 79.053
2.82 204.482 78.342
2.83 195.324 77.375
2.84 185.793 76.709
2.85 179.806 76.183
2.86 173.626 75.599
2.87 169.409 75.230
2.88 167.298 75.209
2.89 163.527 75.536
2.90 159.567 76.049
2.91 156.517 76.458
2.92 154.771 76.715
2.93 145.806 76.529
2.94 143.481 75.986
2.95 140.993 75.250
2.96 139.251 74.383
2.97 146.175 74.812
2.98 152.683 76.278
2.99 161.092 77.265
3.00 173.224 77.561
3.01 185.142 77.561
3.02 193.728 77.528
3.03 197.141 77.427
3.04 200.781 77.382
3.05 202.540 77.541
3.06 201.409 77.649
3.07 201.277 77.675
3.08 199.892 77.622
3.09 197.287 77.282
3.10 193.789 76.824
3.11 193.589 76.760
3.12 197.130 76.998
3.13 198.885 77.217
3.14 199.505 77.409
3.15 199.095 77.360
3.16 197.648 76.980
3.17 194.084 76.356
3.18 190.137 75.856
3.19 194.047 76.532
3.20 195.839 77.637
3.21 195.693 77.711
3.22 193.242 76.924
3.23 189.465 76.163
3.24 185.850 75.833
3.25 182.267 75.040
3.26 173.634 72.754
3.27 170.532 69.445
3.28 176.388 66.551
3.29 179.571 64.186
3.30 180.855 65.942
3.31 212.852 72.444
3.32 201.660 76.638
3.33 196.905 78.093
3.34 191.560 78.130
3.35 187.066 77.829
3.36 179.466 77.088
3.37 165.339 75.772
3.38 150.061 74.651
3.39 135.564 74.637
3.40 130.217 75.117
3.41 116.445 75.289
3.42 109.751 75.212
3.43 110.517 74.963
3.44 108.425 74.788
3.45 108.236 74.966
3.46 108.518 75.054
3.47 109.720 74.800
3.48 110.381 74.412
3.49 111.089 74.066
3.50 112.912 73.691
3.51 114.259 73.367
3.52 114.460 73.406
3.53 115.174 73.860
3.54 117.532 75.013
3.55 120.459 76.769
3.56 120.884 78.070
3.57 121.164 78.631
3.58 123.630 78.824
3.59 126.353 78.690
3.60 128.527 77.898
3.61 128.783 76.402
3.62 128.978 74.884
3.63 130.161 74.260
3.64 128.942 73.974
3.65 127.082 73.097
3.66 124.185 71.959
3.67 121.244 71.597
3.68 118.201 72.775
3.69 110.117 74.917
3.70 105.073 76.431
3.71 100.220 76.679
3.72 98.029 75.932
3.73 98.652 75.016
3.74 100.642 74.780
3.75 104.704 74.610
3.76 109.076 74.272
3.77 113.410 74.399
3.78 118.350 75.001
3.79 120.967 75.825
3.80 123.298 76.677
3.81 125.930 77.259
3.82 128.727 77.149
3.83 129.085 75.668
3.84 122.190 72.363
3.85 136.466 67.818
3.86 135.919 63.139
3.87 124.469 61.849
3.88 --undefined-- 69.424
3.89 --undefined-- 75.096
3.90 160.867 77.684
3.91 157.043 78.161
3.92 148.847 77.825
3.93 144.112 77.505
3.94 142.369 77.121
3.95 141.173 76.805
3.96 139.205 76.803
3.97 137.778 76.940
3.98 136.690 77.112
3.99 135.781 77.150
4.00 135.597 76.947
4.01 136.033 76.721
4.02 136.289 76.724
4.03 135.393 76.747
4.04 131.625 76.705
4.05 129.133 76.999
4.06 127.545 77.498
4.07 125.762 77.864
4.08 122.797 78.183
4.09 120.817 78.372
4.10 119.665 77.554
4.11 119.970 75.010
4.12 121.556 71.163
4.13 118.733 68.161
4.14 117.311 67.426
4.15 123.561 69.473
4.16 126.094 73.264
4.17 128.549 76.350
4.18 130.578 78.068
4.19 128.370 78.596
4.20 127.342 78.481
4.21 127.702 78.150
4.22 128.575 77.839
4.23 129.190 77.716
4.24 129.366 77.845
4.25 129.676 77.944
4.26 130.178 77.841
4.27 130.093 77.600
4.28 129.747 77.294
4.29 129.275 76.953
4.30 128.911 76.673
4.31 129.088 76.594
4.32 129.228 76.553
4.33 129.793 76.445
4.34 130.618 76.273
4.35 131.314 76.048
4.36 132.010 75.826
4.37 132.189 75.572
4.38 132.396 75.402
4.39 133.483 75.430
4.40 134.459 75.602
4.41 134.160 75.672
4.42 133.559 75.477
4.43 133.032 75.160
4.44 132.566 74.866
4.45 131.789 74.525
4.46 131.073 74.130
4.47 130.996 73.718
4.48 132.725 73.253
4.49 135.766 72.726
4.50 137.747 72.199
4.51 140.233 71.594
4.52 143.253 70.924
4.53 145.438 70.391
4.54 147.756 69.735
4.55 147.724 68.327
4.56 144.428 65.482
4.57 144.909 60.715
4.58 --undefined-- 54.987
4.59 --undefined-- 56.073
4.60 97.929 59.999
4.61 101.166 63.674
4.62 101.009 66.204
4.63 100.422 67.514
4.64 98.225 68.241
4.65 96.738 68.660
4.66 96.975 68.898
4.67 95.452 69.056
4.68 93.667 69.013
4.69 92.411 68.671
4.70 92.219 68.145
4.71 92.988 67.932
4.72 94.225 68.077
4.73 95.395 67.595
4.74 95.101 65.598
4.75 96.086 62.530
4.76 95.135 59.794
4.77 102.976 57.159
4.78 96.188 54.041
4.79 --undefined-- 53.965
4.80 --undefined-- 58.869
4.81 --undefined-- 63.013
4.82 --undefined-- 66.064
4.83 90.829 68.157
4.84 90.775 69.231
4.85 90.928 69.783
4.86 92.381 70.240
4.87 93.181 70.081
4.88 93.830 69.024
4.89 101.500 68.503
4.90 107.970 69.461
4.91 114.917 70.628
4.92 120.818 71.790
4.93 129.026 73.227
4.94 135.895 74.855
4.95 142.777 76.272
4.96 150.711 77.396
4.97 158.661 78.407
4.98 166.005 79.134
4.99 172.166 79.241
5.00 177.470 79.041
5.01 178.659 79.232
5.02 178.577 79.506
5.03 178.961 79.109
5.04 178.333 77.823
5.05 173.995 76.142
5.06 168.972 75.004
5.07 166.265 75.450
5.08 165.530 77.390
5.09 165.307 79.235
5.10 161.474 80.142
5.11 155.686 79.944
5.12 144.452 78.820
5.13 134.708 77.454
5.14 128.039 76.405
5.15 125.807 76.023
5.16 120.984 75.875
5.17 119.350 75.708
5.18 117.848 75.562
5.19 113.919 75.325
5.20 111.476 74.555
5.21 108.738 72.680
5.22 105.775 70.524
5.23 105.681 69.656
5.24 102.465 69.345
5.25 99.023 68.757
5.26 96.190 68.175
5.27 94.537 68.101
5.28 94.427 68.128
5.29 93.763 --undefined--
5.30 93.416 --undefined--
5.31 --undefined-- --undefined--
5.32 --undefined-- --undefined--
