Time Pitch Intensity
0.01 --undefined-- --undefined--
0.02 292.730 --undefined--
0.03 296.118 --undefined--
0.04 294.166 --undefined--
0.05 --undefined-- 56.268
0.06 --undefined-- 51.402
0.07 --undefined-- 50.751
0.08 --undefined-- 48.737
0.09 --undefined-- 46.601
0.10 --undefined-- 52.436
0.11 --undefined-- 60.037
0.12 150.395 64.523
0.13 148.363 66.546
0.14 147.192 67.103
0.15 145.462 67.060
0.16 145.187 67.007
0.17 147.986 67.275
0.18 151.509 67.651
0.19 153.346 67.806
0.20 153.567 67.978
0.21 155.964 68.396
0.22 159.307 68.702
0.23 162.590 68.782
0.24 165.528 68.961
0.25 170.945 69.854
0.26 175.437 70.962
0.27 174.862 71.041
0.28 174.494 70.533
0.29 174.861 70.614
0.30 174.859 71.200
0.31 173.275 71.845
0.32 170.623 72.156
0.33 166.531 71.923
0.34 161.046 71.699
0.35 155.501 71.787
0.36 --undefined-- 71.914
0.37 --undefined-- 71.844
0.38 --undefined-- 71.690
0.39 --undefined-- 71.956
0.40 --undefined-- 71.821
0.41 190.548 70.946
0.42 185.797 70.117
0.43 184.759 69.682
0.44 184.058 69.506
0.45 182.942 69.168
0.46 182.004 68.483
0.47 180.866 67.340
0.48 180.491 66.188
0.49 187.938 65.964
0.50 191.393 66.501
0.51 195.189 66.822
0.52 197.661 66.417
0.53 200.131 65.433
0.54 210.809 64.464
0.55 215.358 64.186
0.56 217.457 64.265
0.57 219.821 64.168
0.58 223.919 64.055
0.59 230.062 64.164
0.60 236.688 64.487
0.61 239.878 64.767
0.62 242.061 64.870
0.63 244.806 64.879
0.64 245.807 64.475
0.65 245.324 62.797
0.66 240.072 59.051
0.67 --undefined-- 54.469
0.68 --undefined-- 58.118
0.69 270.318 63.066
0.70 266.151 65.640
0.71 262.801 66.439
0.72 261.487 66.458
0.73 262.096 66.352
0.74 265.976 66.073
0.75 275.495 65.726
0.76 284.270 65.612
0.77 288.715 65.392
0.78 287.750 64.275
0.79 274.554 61.988
0.80 266.637 59.396
0.81 267.264 57.821
0.82 267.085 58.154
0.83 151.685 59.809
0.84 159.540 61.951
0.85 173.721 64.060
0.86 179.817 65.743
0.87 183.909 66.952
0.88 186.826 67.718
0.89 189.228 68.106
0.90 189.807 68.443
0.91 187.696 68.842
0.92 184.145 68.759
0.93 180.236 67.286
0.94 175.924 63.525
0.95 --undefined-- 57.179
0.96 --undefined-- 51.815
0.97 --undefined-- 53.502
0.98 --undefined-- 58.370
0.99 250.801 63.230
1.00 236.259 66.283
1.01 232.544 67.577
1.02 232.644 67.762
1.03 237.287 67.645
1.04 243.247 67.229
1.05 248.380 66.131
1.06 250.775 64.662
1.07 250.574 63.273
1.08 246.569 61.343
1.09 238.841 57.856
1.10 241.255 52.629
1.11 --undefined-- 52.610
1.12 --undefined-- 59.165
1.13 --undefined-- 62.887
1.14 198.222 64.276
1.15 186.232 65.092
1.16 181.167 66.052
1.17 181.807 66.923
1.18 185.415 67.420
1.19 188.098 66.811
1.20 189.018 64.345
1.21 187.467 59.728
1.22 --undefined-- 53.670
1.23 --undefined-- 49.944
1.24 --undefined-- 53.927
1.25 266.421 59.560
1.26 258.429 62.718
1.27 259.949 63.526
1.28 261.804 62.350
1.29 259.879 59.127
1.30 255.373 53.950
1.31 --undefined-- 49.874
1.32 --undefined-- 49.524
1.33 --undefined-- 49.250
1.34 --undefined-- 50.217
1.35 --undefined-- 51.372
1.36 --undefined-- 53.823
1.37 --undefined-- 59.146
1.38 249.261 63.055
1.39 255.644 64.983
1.40 261.651 65.572
1.41 266.346 65.612
1.42 270.709 65.753
1.43 271.100 66.085
1.44 268.558 66.183
1.45 264.161 65.946
1.46 257.874 65.623
1.47 250.831 65.393
1.48 242.863 65.234
1.49 234.572 65.064
1.50 222.445 64.945
1.51 213.722 64.807
1.52 206.324 64.460
1.53 205.286 63.871
1.54 207.136 62.980
1.55 209.094 62.045
1.56 211.028 61.583
1.57 211.312 61.042
1.58 205.104 59.085
1.59 193.131 55.835
1.60 235.324 58.073
1.61 230.981 63.195
1.62 229.834 65.865
1.63 220.215 66.352
1.64 212.268 66.072
1.65 209.429 65.672
1.66 206.963 64.310
1.67 205.199 61.725
1.68 206.408 58.386
1.69 198.029 54.589
1.70 --undefined-- 51.284
1.71 --undefined-- 49.667
1.72 --undefined-- 49.210
1.73 --undefined-- 48.443
1.74 --undefined-- 49.553
1.75 --undefined-- 51.292
1.76 --undefined-- 50.862
1.77 --undefined-- 50.246
1.78 --undefined-- 49.843
1.79 --undefined-- 48.706
1.80 --undefined-- 47.111
1.81 --undefined-- 47.622
1.82 --undefined-- 53.698
1.83 211.384 59.050
1.84 206.143 62.085
1.85 185.575 63.540
1.86 176.594 64.073
1.87 173.114 64.264
1.88 171.752 64.510
1.89 173.181 64.592
1.90 177.849 64.781
1.91 179.380 65.579
1.92 179.491 66.282
1.93 179.410 66.435
1.94 180.386 66.435
1.95 180.604 66.698
1.96 181.224 67.045
1.97 182.129 67.351
1.98 183.172 67.695
1.99 184.053 68.029
2.00 185.072 68.243
2.01 185.189 68.102
2.02 183.601 67.029
2.03 180.569 64.274
2.04 180.849 59.349
2.05 177.319 53.148
2.06 --undefined-- 48.418
2.07 --undefined-- 47.560
2.08 --undefined-- 52.721
2.09 222.400 59.137
2.10 214.607 63.769
2.11 203.885 66.802
2.12 197.242 68.850
2.13 194.024 70.107
2.14 190.785 70.445
2.15 187.374 69.944
2.16 185.347 69.043
2.17 185.181 68.277
2.18 185.219 67.797
2.19 186.872 67.415
2.20 189.750 66.992
2.21 191.892 66.411
2.22 193.032 65.914
2.23 192.312 65.430
2.24 191.169 64.518
2.25 190.397 62.451
2.26 190.755 58.458
2.27 191.783 52.961
2.28 191.007 48.265
2.29 --undefined-- 45.751
2.30 --undefined-- 48.328
2.31 --undefined-- 51.499
2.32 --undefined-- 52.491
2.33 --undefined-- 51.414
2.34 --undefined-- 51.008
2.35 --undefined-- 55.177
2.36 256.452 59.986
2.37 258.846 63.532
2.38 254.218 65.869
2.39 253.089 66.826
2.40 252.639 65.683
2.41 253.346 61.921
2.42 252.706 56.409
2.43 253.496 53.894
2.44 --undefined-- 56.423
2.45 --undefined-- 58.149
2.46 --undefined-- 56.576
2.47 --undefined-- 51.888
2.48 --undefined-- 50.022
2.49 --undefined-- 50.964
2.50 --undefined-- 49.525
2.51 --undefined-- 46.717
2.52 --undefined-- 47.178
2.53 --undefined-- 48.224
2.54 --undefined-- 48.583
2.55 --undefined-- 49.375
2.56 --undefined-- 53.796
2.57 --undefined-- 59.696
2.58 176.385 63.567
2.59 170.394 65.297
2.60 155.539 65.414
2.61 155.873 64.465
2.62 169.052 63.965
2.63 165.459 64.303
2.64 163.876 64.414
2.65 163.019 64.110
2.66 162.188 63.613
2.67 161.996 63.200
2.68 161.930 62.889
2.69 161.730 62.691
2.70 161.972 62.566
2.71 162.959 62.491
2.72 164.525 62.458
2.73 164.426 62.058
2.74 163.232 60.900
2.75 161.016 59.024
2.76 159.015 57.220
2.77 156.466 56.729
2.78 157.056 56.886
2.79 161.495 58.178
2.80 167.460 60.919
2.81 172.538 63.278
2.82 172.855 64.545
2.83 169.289 65.190
2.84 167.074 65.722
2.85 165.056 65.845
2.86 163.199 65.576
2.87 163.079 65.397
2.88 163.029 65.292
2.89 162.550 64.910
2.90 163.422 64.407
2.91 163.589 64.286
2.92 161.629 63.624
2.93 --undefined-- 61.302
2.94 --undefined-- 58.119
2.95 --undefined-- 55.502
2.96 --undefined-- 52.044
2.97 --undefined-- 50.058
2.98 --undefined-- 51.978
2.99 --undefined-- 52.452
3.00 --undefined-- 52.815
3.01 --undefined-- 58.534
3.02 248.001 64.523
3.03 240.729 67.524
3.04 239.329 68.079
3.05 242.124 67.238
3.06 243.819 65.310
3.07 242.633 61.667
3.08 241.768 55.976
3.09 --undefined-- 49.811
3.10 --undefined-- 46.699
3.11 --undefined-- 45.968
3.12 --undefined-- 45.476
3.13 --undefined-- 45.264
3.14 --undefined-- 45.467
3.15 --undefined-- 45.726
3.16 --undefined-- 45.414
3.17 --undefined-- 46.515
3.18 --undefined-- 48.947
3.19 --undefined-- 50.405
3.20 --undefined-- 49.462
3.21 --undefined-- 47.345
3.22 --undefined-- 48.051
3.23 --undefined-- 51.516
3.24 --undefined-- 56.172
3.25 --undefined-- 58.837
3.26 174.416 59.806
3.27 163.852 60.346
3.28 158.379 60.757
3.29 155.160 60.974
3.30 153.652 60.811
3.31 153.566 59.895
3.32 158.165 58.367
3.33 233.177 57.984
3.34 231.686 58.673
3.35 229.073 58.802
3.36 223.077 58.395
3.37 208.956 58.754
3.38 184.708 60.529
3.39 171.098 62.500
3.40 170.563 63.946
3.41 177.613 65.732
3.42 184.897 68.108
3.43 189.721 69.983
3.44 195.488 70.745
3.45 201.669 70.471
3.46 207.024 69.885
3.47 209.000 70.338
3.48 209.665 71.332
3.49 207.142 71.468
3.50 203.874 71.185
3.51 200.934 71.521
3.52 197.130 71.975
3.53 192.819 72.141
3.54 188.678 71.789
3.55 182.694 70.960
3.56 176.008 70.830
3.57 171.520 71.293
3.58 164.475 71.057
3.59 159.367 69.767
3.60 78.563 67.925
3.61 78.355 65.925
3.62 --undefined-- 63.577
3.63 --undefined-- 60.821
3.64 --undefined-- 57.605
3.65 --undefined-- 53.405
3.66 --undefined-- 48.924
3.67 --undefined-- 48.653
3.68 --undefined-- 51.163
3.69 --undefined-- 51.410
3.70 --undefined-- 50.889
3.71 --undefined-- 51.658
3.72 --undefined-- 50.241
3.73 --undefined-- 45.793
3.74 --undefined-- 44.932
3.75 --undefined-- 47.379
3.76 --undefined-- 47.429
3.77 --undefined-- 46.023
3.78 --undefined-- 47.041
3.79 --undefined-- 50.156
3.80 --undefined-- 51.420
3.81 --undefined-- 50.538
3.82 --undefined-- 49.190
3.83 --undefined-- 47.379
3.84 --undefined-- 45.471
3.85 --undefined-- 46.724
3.86 --undefined-- 48.428
3.87 --undefined-- 48.037
3.88 --undefined-- 47.598
3.89 --undefined-- 48.856
3.90 --undefined-- 48.167
3.91 --undefined-- 46.321
3.92 --undefined-- 46.326
3.93 --undefined-- 46.752
3.94 --undefined-- 48.081
3.95 --undefined-- 51.197
3.96 --undefined-- 53.249
3.97 --undefined-- 53.331
3.98 --undefined-- 51.134
3.99 --undefined-- 48.139
4.00 --undefined-- 47.655
4.01 --undefined-- 47.362
4.02 --undefined-- 46.991
4.03 --undefined-- 48.279
4.04 --undefined-- 49.975
4.05 --undefined-- 49.753
4.06 --undefined-- 50.077
4.07 --undefined-- 51.957
4.08 --undefined-- 50.981
4.09 --undefined-- 46.584
4.10 --undefined-- 44.303
4.11 --undefined-- 46.914
4.12 --undefined-- 48.205
4.13 --undefined-- 48.233
4.14 --undefined-- 49.487
4.15 --undefined-- 53.332
4.16 --undefined-- 57.024
4.17 --undefined-- 58.627
4.18 --undefined-- 59.047
4.19 --undefined-- 63.755
4.20 155.202 68.796
4.21 156.867 71.570
4.22 160.863 72.677
4.23 162.792 72.853
4.24 163.418 72.760
4.25 164.285 72.776
4.26 164.698 72.823
4.27 164.220 72.855
4.28 166.388 72.969
4.29 168.048 72.993
4.30 169.358 72.883
4.31 168.550 72.861
4.32 166.971 73.249
4.33 166.635 73.981
4.34 166.263 74.550
4.35 165.689 74.795
4.36 164.335 74.531
4.37 161.876 73.176
4.38 159.476 69.968
4.39 162.942 64.147
4.40 167.592 58.084
4.41 167.600 60.590
4.42 165.536 65.439
4.43 162.524 68.313
4.44 159.605 69.448
4.45 157.321 69.721
4.46 156.793 69.621
4.47 156.837 69.321
4.48 157.518 69.067
4.49 158.558 69.052
4.50 159.766 69.222
4.51 160.549 69.521
4.52 160.749 69.792
4.53 160.667 69.852
4.54 160.372 69.626
4.55 159.504 69.280
4.56 156.838 68.973
4.57 152.888 68.793
4.58 297.897 68.567
4.59 287.972 67.937
4.60 270.996 66.524
4.61 246.436 64.762
4.62 228.737 64.326
4.63 214.887 65.601
4.64 205.617 67.259
4.65 192.101 68.743
4.66 181.947 70.622
4.67 176.915 72.266
4.68 174.093 73.007
4.69 173.666 73.266
4.70 175.008 73.512
4.71 176.337 73.360
4.72 178.837 72.804
4.73 184.140 72.618
4.74 188.315 72.804
4.75 194.419 72.766
4.76 200.035 72.284
4.77 205.879 71.463
4.78 210.293 70.931
4.79 212.272 70.771
4.80 212.619 70.816
4.81 211.942 70.929
4.82 209.729 70.957
4.83 205.761 71.286
4.84 --undefined-- 72.117
4.85 --undefined-- 72.344
4.86 --undefined-- 71.006
4.87 --undefined-- 68.662
4.88 --undefined-- 66.454
4.89 --undefined-- 64.267
4.90 --undefined-- 62.289
4.91 127.359 61.316
4.92 137.067 61.846
4.93 148.615 62.714
4.94 164.791 63.057
4.95 165.603 63.052
4.96 185.627 63.443
4.97 189.636 64.436
4.98 193.549 65.301
4.99 197.467 65.851
5.00 204.416 66.437
5.01 211.063 67.256
5.02 218.270 --undefined--
5.03 239.982 --undefined--
5.04 --undefined-- --undefined--
5.05 --undefined-- --undefined--
