Time Pitch Intensity
0.01 --undefined-- --undefined--
0.02 103.979 --undefined--
0.03 104.107 --undefined--
0.04 103.307 --undefined--
0.05 101.462 65.281
0.06 99.208 60.945
0.07 --undefined-- 53.796
0.08 --undefined-- 49.874
0.09 --undefined-- 57.606
0.10 --undefined-- 63.452
0.11 97.903 66.205
0.12 97.968 67.018
0.13 94.497 66.922
0.14 89.943 66.182
0.15 89.289 65.276
0.16 85.234 64.465
0.17 83.993 63.002
0.18 --undefined-- 60.490
0.19 --undefined-- 59.554
0.20 --undefined-- 61.335
0.21 --undefined-- 62.004
0.22 --undefined-- 61.749
0.23 --undefined-- 63.511
0.24 97.178 66.197
0.25 102.866 67.804
0.26 102.696 68.417
0.27 108.497 68.074
0.28 112.767 66.645
0.29 118.319 64.153
0.30 119.798 60.525
0.31 114.017 56.111
0.32 --undefined-- 52.729
0.33 --undefined-- 53.269
0.34 --undefined-- 54.901
0.35 --undefined-- 55.045
0.36 --undefined-- 54.680
0.37 --undefined-- 54.781
0.38 --undefined-- 54.825
0.39 --undefined-- 54.872
0.40 --undefined-- 54.497
0.41 --undefined-- 53.471
0.42 --undefined-- 53.832
0.43 --undefined-- 55.713
0.44 --undefined-- 59.367
0.45 --undefined-- 65.822
0.46 --undefined-- 70.568
0.47 161.245 72.557
0.48 157.231 72.550
0.49 155.537 71.585
0.50 152.656 70.645
0.51 150.768 70.219
0.52 149.393 69.902
0.53 148.040 69.031
0.54 147.876 67.845
0.55 147.640 67.331
0.56 147.289 67.132
0.57 143.581 66.086
0.58 141.272 64.303
0.59 139.792 63.033
0.60 138.070 62.745
0.61 137.391 62.953
0.62 137.204 63.349
0.63 138.459 64.119
0.64 139.614 65.220
0.65 140.235 65.982
0.66 139.620 66.317
0.67 137.413 66.355
0.68 135.874 66.161
0.69 135.215 65.852
0.70 134.720 65.384
0.71 133.626 64.597
0.72 131.650 63.466
0.73 128.115 62.008
0.74 126.095 60.550
0.75 124.322 59.666
0.76 119.705 58.974
0.77 115.485 58.846
0.78 116.575 60.339
0.79 116.786 62.206
0.80 116.615 63.927
0.81 116.004 66.442
0.82 115.054 69.067
0.83 114.272 70.186
0.84 113.280 69.923
0.85 112.634 69.496
0.86 111.377 69.371
0.87 110.092 69.255
0.88 109.081 69.112
0.89 107.637 68.828
0.90 106.342 68.043
0.91 105.898 66.733
0.92 106.096 65.249
0.93 106.096 63.769
0.94 106.146 62.273
0.95 105.270 60.876
0.96 103.492 59.594
0.97 99.451 57.766
0.98 --undefined-- 54.446
0.99 --undefined-- 49.407
1.00 --undefined-- 44.488
1.01 --undefined-- 43.026
1.02 --undefined-- 43.474
1.03 --undefined-- 42.681
1.04 --undefined-- 39.978
1.05 --undefined-- 37.377
1.06 --undefined-- 36.456
1.07 --undefined-- 36.473
1.08 --undefined-- 37.172
1.09 --undefined-- 38.389
1.10 --undefined-- 40.237
1.11 --undefined-- 42.866
1.12 --undefined-- 45.852
1.13 --undefined-- 47.585
1.14 --undefined-- 47.488
1.15 --undefined-- 46.923
1.16 --undefined-- 46.773
1.17 --undefined-- 47.378
1.18 --undefined-- 48.470
1.19 --undefined-- 48.874
1.20 --undefined-- 48.467
1.21 --undefined-- 48.252
1.22 --undefined-- 48.127
1.23 --undefined-- 47.401
1.24 --undefined-- 45.701
1.25 --undefined-- 44.042
1.26 --undefined-- 44.126
1.27 --undefined-- 44.399
1.28 --undefined-- 43.996
1.29 --undefined-- 44.046
1.30 --undefined-- 44.385
1.31 --undefined-- 44.317
1.32 --undefined-- 43.413
1.33 --undefined-- 42.219
1.34 --undefined-- 41.884
1.35 --undefined-- 41.779
1.36 --undefined-- 41.411
1.37 --undefined-- 40.838
1.38 --undefined-- 40.137
1.39 --undefined-- 39.436
1.40 --undefined-- 38.853
1.41 --undefined-- 38.247
1.42 --undefined-- 37.706
1.43 --undefined-- 37.625
1.44 --undefined-- 38.066
1.45 --undefined-- 38.576
1.46 --undefined-- 38.551
1.47 --undefined-- 38.067
1.48 --undefined-- 38.217
1.49 --undefined-- 38.519
1.50 --undefined-- 38.154
1.51 --undefined-- 39.218
1.52 --undefined-- 51.336
1.53 --undefined-- 62.932
1.54 --undefined-- 69.670
1.55 --undefined-- 72.593
1.56 143.480 72.944
1.57 140.624 72.275
1.58 --undefined-- 71.264
1.59 --undefined-- 69.783
1.60 --undefined-- 68.196
1.61 --undefined-- 67.501
1.62 --undefined-- 68.019
1.63 --undefined-- 68.632
1.64 134.039 68.366
1.65 132.650 67.294
1.66 130.289 65.833
1.67 127.531 64.070
1.68 124.790 61.459
1.69 170.874 57.379
1.70 --undefined-- 51.377
1.71 --undefined-- 43.878
1.72 --undefined-- 38.119
1.73 --undefined-- 40.474
1.74 --undefined-- 46.468
1.75 --undefined-- 50.307
1.76 --undefined-- 54.002
1.77 --undefined-- 55.788
1.78 --undefined-- 54.248
1.79 --undefined-- 54.365
1.80 --undefined-- 60.335
1.81 --undefined-- 64.506
1.82 116.761 66.314
1.83 113.523 66.266
1.84 110.078 64.422
1.85 105.791 60.403
1.86 103.429 54.386
1.87 --undefined-- 50.017
1.88 --undefined-- 51.397
1.89 --undefined-- 52.799
1.90 --undefined-- 54.428
1.91 --undefined-- 57.035
1.92 --undefined-- 58.748
1.93 --undefined-- 59.325
1.94 --undefined-- 59.657
1.95 --undefined-- 59.770
1.96 --undefined-- 60.943
1.97 108.476 63.916
1.98 104.805 65.873
1.99 102.882 66.379
2.00 103.532 66.434
2.01 102.637 66.343
2.02 104.250 65.898
2.03 108.622 65.411
2.04 112.842 64.627
2.05 118.189 62.380
2.06 --undefined-- 58.095
2.07 --undefined-- 51.335
2.08 --undefined-- 43.273
2.09 --undefined-- 39.285
2.10 --undefined-- 38.119
2.11 --undefined-- 38.153
2.12 --undefined-- 41.297
2.13 --undefined-- 46.192
2.14 --undefined-- 49.779
2.15 --undefined-- 54.034
2.16 --undefined-- 57.807
2.17 --undefined-- 59.510
2.18 --undefined-- 59.563
2.19 --undefined-- 59.497
2.20 --undefined-- 62.936
2.21 115.190 66.713
2.22 114.339 68.615
2.23 112.360 69.140
2.24 108.735 68.830
2.25 105.596 68.127
2.26 102.147 67.236
2.27 101.102 66.305
2.28 100.953 65.465
2.29 101.214 64.712
2.30 104.188 63.886
2.31 103.830 62.408
2.32 103.993 59.773
2.33 101.938 55.829
2.34 --undefined-- 50.810
2.35 --undefined-- 47.342
2.36 --undefined-- 51.255
2.37 --undefined-- 55.538
2.38 --undefined-- 56.191
2.39 --undefined-- 54.046
2.40 --undefined-- 53.540
2.41 --undefined-- 55.543
2.42 --undefined-- 57.100
2.43 --undefined-- 57.456
2.44 --undefined-- 57.314
2.45 --undefined-- 57.342
2.46 --undefined-- 57.403
2.47 --undefined-- 57.648
2.48 --undefined-- 58.078
2.49 --undefined-- 58.321
2.50 --undefined-- 58.197
2.51 --undefined-- 57.693
2.52 --undefined-- 57.033
2.53 --undefined-- 56.673
2.54 --undefined-- 57.256
2.55 --undefined-- 57.559
2.56 --undefined-- 56.641
2.57 --undefined-- 55.437
2.58 --undefined-- 56.874
2.59 --undefined-- 60.094
2.60 125.902 62.091
2.61 125.272 62.888
2.62 124.888 63.435
2.63 124.165 64.042
2.64 123.802 64.620
2.65 123.389 64.906
2.66 123.069 64.830
2.67 122.944 64.561
2.68 122.949 64.586
2.69 123.404 65.662
2.70 124.561 67.385
2.71 124.581 68.518
2.72 124.147 68.427
2.73 121.614 67.020
2.74 119.953 64.443
2.75 111.403 61.394
2.76 111.483 61.283
2.77 112.123 64.956
2.78 114.779 67.917
2.79 111.308 68.731
2.80 106.938 67.865
2.81 103.789 66.817
2.82 99.846 66.049
2.83 98.328 65.109
2.84 97.242 64.179
2.85 96.589 63.595
2.86 94.635 62.877
2.87 92.638 60.870
2.88 93.581 56.711
2.89 --undefined-- 50.121
2.90 --undefined-- 44.686
2.91 --undefined-- 48.072
2.92 --undefined-- 53.121
2.93 --undefined-- 57.684
2.94 --undefined-- 61.052
2.95 97.726 62.501
2.96 94.901 62.329
2.97 92.266 60.932
2.98 91.362 58.805
2.99 89.985 57.151
3.00 90.042 55.946
3.01 87.502 54.298
3.02 86.955 52.709
3.03 86.669 51.840
3.04 88.228 51.411
3.05 87.247 51.653
3.06 --undefined-- 53.292
3.07 --undefined-- 55.049
3.08 --undefined-- 58.509
3.09 98.389 62.944
3.10 101.712 66.163
3.11 101.617 67.955
3.12 100.603 68.473
3.13 100.210 68.264
3.14 99.720 67.747
3.15 99.093 66.712
3.16 98.677 65.131
3.17 97.705 63.327
3.18 95.784 61.270
3.19 94.710 59.241
3.20 94.694 58.041
3.21 94.320 57.778
3.22 95.167 59.442
3.23 95.475 62.844
3.24 94.652 65.785
3.25 93.964 67.773
3.26 --undefined-- 68.976
3.27 --undefined-- 69.147
3.28 84.471 68.338
3.29 82.774 67.129
3.30 80.984 66.071
3.31 79.602 65.197
3.32 78.323 64.643
3.33 77.353 64.195
3.34 --undefined-- 63.503
3.35 --undefined-- 62.973
3.36 --undefined-- 63.034
3.37 --undefined-- 63.057
3.38 --undefined-- 62.731
3.39 --undefined-- 62.458
3.40 --undefined-- 62.151
3.41 --undefined-- 61.355
3.42 81.707 60.451
3.43 83.192 60.340
3.44 83.114 60.677
3.45 83.281 60.217
3.46 83.736 58.293
3.47 83.667 55.277
3.48 82.743 52.302
3.49 83.598 50.664
3.50 82.718 51.347
3.51 85.764 55.130
3.52 88.380 59.383
3.53 88.448 62.171
3.54 87.939 63.141
3.55 --undefined-- 62.241
3.56 78.532 59.890
3.57 79.792 57.914
3.58 79.375 57.125
3.59 78.901 56.551
3.60 80.991 55.582
3.61 78.871 53.546
3.62 81.058 51.276
3.63 82.702 50.730
3.64 82.703 50.736
3.65 83.945 50.908
3.66 83.189 51.055
3.67 83.833 51.168
3.68 84.819 51.512
3.69 83.896 52.069
3.70 --undefined-- 52.904
3.71 --undefined-- 53.999
3.72 --undefined-- 56.035
3.73 --undefined-- 58.341
3.74 --undefined-- 60.167
3.75 --undefined-- 61.181
3.76 --undefined-- 61.661
3.77 --undefined-- 62.025
3.78 --undefined-- 62.222
3.79 --undefined-- 62.448
3.80 --undefined-- 62.207
3.81 --undefined-- 61.200
3.82 --undefined-- 60.724
3.83 --undefined-- 64.733
3.84 --undefined-- 68.461
3.85 114.206 69.933
3.86 112.446 70.212
3.87 109.882 70.158
3.88 107.743 69.830
3.89 107.032 69.083
3.90 107.378 67.659
3.91 107.711 65.711
3.92 107.549 64.026
3.93 107.283 62.749
3.94 106.021 61.392
3.95 104.779 60.103
3.96 104.083 59.208
3.97 102.899 58.398
3.98 101.975 57.402
3.99 101.135 55.850
4.00 --undefined-- 53.158
4.01 --undefined-- 48.829
4.02 --undefined-- 43.667
4.03 --undefined-- 40.717
4.04 --undefined-- 43.382
4.05 --undefined-- 48.239
4.06 --undefined-- 49.799
4.07 --undefined-- 49.894
4.08 --undefined-- 53.276
4.09 --undefined-- 56.385
4.10 --undefined-- 57.890
4.11 --undefined-- 58.207
4.12 --undefined-- 57.340
4.13 --undefined-- 56.549
4.14 --undefined-- 57.044
4.15 --undefined-- 58.142
4.16 94.545 59.161
4.17 93.852 60.086
4.18 91.647 61.080
4.19 91.184 61.704
4.20 90.550 61.878
4.21 90.400 62.439
4.22 90.483 63.425
4.23 90.429 64.181
4.24 90.185 64.450
4.25 89.784 63.836
4.26 91.343 62.345
4.27 96.796 61.467
4.28 99.442 63.936
4.29 109.107 67.705
4.30 112.368 70.134
4.31 111.967 70.867
4.32 113.930 70.365
4.33 115.621 69.635
4.34 117.661 69.209
4.35 117.290 68.387
4.36 117.442 66.382
4.37 116.996 63.089
4.38 111.140 59.184
4.39 --undefined-- 55.536
4.40 --undefined-- 51.663
4.41 --undefined-- 46.197
4.42 --undefined-- 40.795
4.43 --undefined-- 37.316
4.44 --undefined-- 36.893
4.45 --undefined-- 38.747
4.46 --undefined-- 41.254
4.47 --undefined-- 43.402
4.48 --undefined-- 44.887
4.49 --undefined-- 46.303
4.50 --undefined-- 47.525
4.51 --undefined-- 48.290
4.52 --undefined-- 48.987
4.53 --undefined-- 49.700
4.54 --undefined-- 50.080
4.55 --undefined-- 50.310
4.56 --undefined-- 51.308
4.57 --undefined-- 52.619
4.58 --undefined-- 52.663
4.59 --undefined-- 51.986
4.60 --undefined-- 51.830
4.61 --undefined-- 51.845
4.62 --undefined-- 51.901
4.63 --undefined-- 52.064
4.64 --undefined-- 51.882
4.65 --undefined-- 51.320
4.66 --undefined-- 51.043
4.67 --undefined-- 50.671
4.68 --undefined-- 50.146
4.69 --undefined-- 49.551
4.70 --undefined-- 48.678
4.71 --undefined-- 48.771
4.72 --undefined-- 49.591
4.73 --undefined-- 49.551
4.74 --undefined-- 48.612
4.75 --undefined-- 47.341
4.76 --undefined-- 46.407
4.77 --undefined-- 45.565
4.78 --undefined-- 44.628
4.79 --undefined-- 43.762
4.80 --undefined-- 42.667
4.81 --undefined-- 41.460
4.82 --undefined-- 40.525
4.83 --undefined-- 39.925
4.84 --undefined-- 39.397
4.85 --undefined-- 38.952
4.86 --undefined-- 38.858
4.87 --undefined-- 39.084
4.88 --undefined-- 39.881
4.89 --undefined-- 42.207
4.90 --undefined-- 47.941
4.91 --undefined-- 54.735
4.92 --undefined-- 59.706
4.93 100.647 62.777
4.94 98.087 64.331
4.95 99.113 65.068
4.96 99.943 65.476
4.97 100.524 65.747
4.98 100.902 65.626
4.99 100.614 64.630
5.00 98.533 62.071
5.01 98.966 57.505
5.02 --undefined-- 51.469
5.03 --undefined-- 45.595
5.04 --undefined-- 50.177
5.05 --undefined-- 59.466
5.06 --undefined-- 64.273
5.07 --undefined-- 65.104
5.08 --undefined-- 65.464
5.09 135.423 68.281
5.10 134.105 70.019
5.11 132.195 69.560
5.12 127.385 67.196
5.13 122.072 63.912
5.14 121.806 61.324
5.15 122.720 60.485
5.16 122.862 60.601
5.17 122.875 60.841
5.18 122.660 61.126
5.19 122.911 61.618
5.20 121.573 62.282
5.21 120.963 63.490
5.22 120.285 65.434
5.23 119.575 66.842
5.24 119.285 67.317
5.25 118.845 67.292
5.26 116.965 67.028
5.27 115.162 66.901
5.28 113.265 66.535
5.29 111.378 65.656
5.30 110.200 65.914
5.31 --undefined-- 65.802
5.32 --undefined-- 63.121
5.33 --undefined-- 59.352
5.34 --undefined-- 57.080
5.35 --undefined-- 55.502
5.36 --undefined-- 54.866
5.37 --undefined-- 54.955
5.38 --undefined-- 55.749
5.39 --undefined-- 57.728
5.40 93.244 59.342
5.41 92.335 60.385
5.42 92.596 61.785
5.43 93.189 63.030
5.44 93.427 --undefined--
5.45 91.982 --undefined--
5.46 --undefined-- --undefined--
5.47 --undefined-- --undefined--
