Time Pitch Intensity
0.01 --undefined-- --undefined--
0.02 215.862 --undefined--
0.03 209.422 --undefined--
0.04 186.717 --undefined--
0.05 --undefined-- 60.796
0.06 --undefined-- 62.370
0.07 --undefined-- 62.686
0.08 79.920 61.911
0.09 80.415 61.180
0.10 --undefined-- 60.587
0.11 --undefined-- 59.597
0.12 78.512 58.096
0.13 79.551 56.717
0.14 80.180 55.479
0.15 80.555 54.244
0.16 78.101 53.329
0.17 78.364 53.669
0.18 --undefined-- 54.554
0.19 --undefined-- 54.225
0.20 --undefined-- 52.970
0.21 --undefined-- 52.343
0.22 --undefined-- 51.733
0.23 --undefined-- 51.394
0.24 --undefined-- 52.905
0.25 --undefined-- 52.403
0.26 --undefined-- 48.717
0.27 --undefined-- 48.346
0.28 --undefined-- 51.301
0.29 --undefined-- 52.267
0.30 --undefined-- 55.563
0.31 245.687 60.186
0.32 244.173 63.127
0.33 244.750 64.530
0.34 245.407 64.944
0.35 246.466 65.037
0.36 248.242 65.485
0.37 249.429 66.315
0.38 250.383 66.586
0.39 248.088 65.429
0.40 241.719 63.765
0.41 244.105 64.019
0.42 243.082 65.317
0.43 238.966 66.220
0.44 234.595 66.675
0.45 229.718 66.618
0.46 221.259 66.218
0.47 213.188 66.219
0.48 204.988 66.645
0.49 198.255 66.960
0.50 191.800 67.294
0.51 187.032 67.670
0.52 183.522 68.158
0.53 180.830 68.742
0.54 177.475 69.055
0.55 173.828 68.893
0.56 171.115 68.272
0.57 171.161 67.692
0.58 171.411 67.084
0.59 170.695 65.965
0.60 169.900 64.524
0.61 170.085 63.599
0.62 170.284 63.446
0.63 170.826 63.367
0.64 171.283 62.652
0.65 171.383 61.185
0.66 168.299 59.076
0.67 161.960 55.811
0.68 171.575 51.810
0.69 --undefined-- 50.159
0.70 --undefined-- 49.844
0.71 --undefined-- 50.238
0.72 --undefined-- 53.101
0.73 --undefined-- 55.316
0.74 --undefined-- 57.394
0.75 199.096 60.909
0.76 198.260 63.448
0.77 189.098 64.453
0.78 185.512 64.518
0.79 183.866 64.501
0.80 182.306 64.771
0.81 180.992 65.139
0.82 180.297 65.475
0.83 180.466 65.735
0.84 180.437 65.926
0.85 180.587 66.123
0.86 180.471 66.436
0.87 180.104 66.851
0.88 179.487 67.207
0.89 179.102 67.342
0.90 178.128 67.269
0.91 177.622 67.049
0.92 177.730 66.744
0.93 178.268 66.485
0.94 179.341 66.359
0.95 180.262 66.336
0.96 180.987 65.917
0.97 180.705 64.187
0.98 180.371 60.461
0.99 180.675 55.477
1.00 180.839 52.831
1.01 242.230 53.815
1.02 247.619 53.959
1.03 248.913 53.046
1.04 --undefined-- 53.111
1.05 --undefined-- 51.745
1.06 --undefined-- 51.354
1.07 --undefined-- 54.544
1.08 --undefined-- 56.194
1.09 --undefined-- 56.280
1.10 --undefined-- 55.559
1.11 --undefined-- 54.109
1.12 --undefined-- 55.815
1.13 --undefined-- 61.182
1.14 --undefined-- 65.146
1.15 --undefined-- 66.787
1.16 --undefined-- 66.881
1.17 172.141 66.208
1.18 174.921 65.174
1.19 179.768 63.733
1.20 185.269 61.981
1.21 184.064 60.419
1.22 178.627 59.059
1.23 175.619 57.340
1.24 196.886 55.667
1.25 193.609 54.480
1.26 --undefined-- 52.283
1.27 --undefined-- 51.320
1.28 --undefined-- 52.536
1.29 --undefined-- 52.848
1.30 --undefined-- 52.956
1.31 --undefined-- 54.108
1.32 --undefined-- 54.041
1.33 --undefined-- 53.783
1.34 --undefined-- 53.193
1.35 --undefined-- 51.763
1.36 --undefined-- 52.300
1.37 --undefined-- 53.862
1.38 --undefined-- 53.780
1.39 --undefined-- 52.327
1.40 --undefined-- 51.003
1.41 --undefined-- 49.283
1.42 --undefined-- 50.768
1.43 --undefined-- 54.630
1.44 237.693 59.356
1.45 231.645 62.885
1.46 226.549 64.593
1.47 222.797 65.208
1.48 221.427 65.507
1.49 221.518 65.679
1.50 222.535 65.758
1.51 224.089 65.558
1.52 225.430 65.206
1.53 226.443 65.146
1.54 227.629 65.203
1.55 228.702 65.238
1.56 229.344 65.246
1.57 229.109 65.070
1.58 228.653 64.218
1.59 228.157 62.270
1.60 224.199 59.313
1.61 213.925 55.318
1.62 --undefined-- 50.370
1.63 --undefined-- 47.856
1.64 --undefined-- 48.915
1.65 --undefined-- 50.359
1.66 --undefined-- 50.566
1.67 --undefined-- 50.965
1.68 --undefined-- 52.360
1.69 --undefined-- 52.771
1.70 --undefined-- 53.023
1.71 --undefined-- 53.312
1.72 --undefined-- 53.315
1.73 --undefined-- 53.346
1.74 --undefined-- 53.434
1.75 258.395 56.641
1.76 249.090 60.272
1.77 239.308 62.667
1.78 236.108 64.298
1.79 232.920 65.262
1.80 230.676 65.676
1.81 229.666 65.596
1.82 229.113 65.143
1.83 228.078 64.342
1.84 227.107 62.996
1.85 225.949 60.993
1.86 222.010 58.566
1.87 219.228 55.806
1.88 207.790 52.162
1.89 --undefined-- 48.547
1.90 --undefined-- 47.673
1.91 --undefined-- 47.192
1.92 --undefined-- 47.237
1.93 --undefined-- 49.335
1.94 --undefined-- 52.025
1.95 --undefined-- 52.479
1.96 --undefined-- 50.469
1.97 --undefined-- 48.457
1.98 --undefined-- 47.457
1.99 --undefined-- 46.658
2.00 --undefined-- 46.760
2.01 --undefined-- 48.399
2.02 221.231 53.054
2.03 190.477 57.150
2.04 184.587 59.524
2.05 176.975 60.391
2.06 173.580 60.342
2.07 171.106 60.446
2.08 169.948 61.249
2.09 169.228 62.100
2.10 168.986 62.725
2.11 168.830 63.332
2.12 167.802 63.451
2.13 166.055 62.194
2.14 162.762 59.267
2.15 166.390 55.104
2.16 167.686 52.650
2.17 168.517 53.785
2.18 --undefined-- 57.052
2.19 192.869 60.389
2.20 191.224 62.783
2.21 182.453 64.724
2.22 179.762 66.481
2.23 178.478 68.006
2.24 175.855 69.256
2.25 174.118 70.127
2.26 173.609 70.619
2.27 173.741 71.100
2.28 174.867 71.692
2.29 175.715 71.947
2.30 176.008 71.702
2.31 174.906 71.316
2.32 172.928 70.897
2.33 173.849 69.960
2.34 --undefined-- 68.009
2.35 --undefined-- 65.553
2.36 --undefined-- 62.861
2.37 --undefined-- 58.979
2.38 --undefined-- 54.700
2.39 --undefined-- 51.941
2.40 --undefined-- 50.186
2.41 --undefined-- 49.802
2.42 --undefined-- 50.959
2.43 --undefined-- 50.321
2.44 --undefined-- 47.597
2.45 --undefined-- 48.767
2.46 --undefined-- 52.100
2.47 --undefined-- 52.407
2.48 --undefined-- 49.480
2.49 --undefined-- 46.892
2.50 --undefined-- 50.291
2.51 --undefined-- 52.066
2.52 --undefined-- 51.252
2.53 --undefined-- 50.715
2.54 --undefined-- 50.200
2.55 --undefined-- 48.257
2.56 --undefined-- 47.251
2.57 --undefined-- 47.414
2.58 --undefined-- 48.613
2.59 --undefined-- 49.426
2.60 --undefined-- 49.499
2.61 --undefined-- 51.043
2.62 --undefined-- 52.496
2.63 --undefined-- 53.908
2.64 --undefined-- 54.162
2.65 --undefined-- 52.015
2.66 --undefined-- 49.914
2.67 --undefined-- 49.890
2.68 --undefined-- 49.653
2.69 --undefined-- 51.021
2.70 --undefined-- 51.067
2.71 --undefined-- 48.627
2.72 --undefined-- 47.218
2.73 --undefined-- 47.943
2.74 --undefined-- 49.146
2.75 --undefined-- 50.590
2.76 --undefined-- 51.382
2.77 279.564 52.895
2.78 276.606 54.034
2.79 283.836 54.201
2.80 281.995 56.455
2.81 287.159 57.599
2.82 --undefined-- 55.122
2.83 --undefined-- 49.246
2.84 --undefined-- 46.655
2.85 --undefined-- 49.429
2.86 --undefined-- 51.826
2.87 --undefined-- 53.515
2.88 --undefined-- 55.663
2.89 270.591 59.120
2.90 238.898 62.652
2.91 237.108 65.715
2.92 239.459 68.026
2.93 242.856 69.392
2.94 248.466 69.793
2.95 252.812 69.334
2.96 255.723 68.206
2.97 253.990 66.209
2.98 239.065 63.138
2.99 --undefined-- 61.169
3.00 --undefined-- 61.795
3.01 --undefined-- 62.609
3.02 --undefined-- 62.828
3.03 --undefined-- 62.455
3.04 257.066 63.486
3.05 273.824 65.880
3.06 275.329 67.621
3.07 262.835 68.706
3.08 241.532 69.431
3.09 234.623 69.856
3.10 229.599 69.861
3.11 227.012 69.289
3.12 226.332 67.844
3.13 226.977 65.098
3.14 220.733 61.485
3.15 235.637 59.834
3.16 234.113 60.112
3.17 272.320 61.054
3.18 285.955 62.818
3.19 291.131 64.322
3.20 155.955 65.460
3.21 163.808 66.241
3.22 170.788 66.645
3.23 177.634 66.761
3.24 183.527 66.980
3.25 188.401 66.945
3.26 191.690 65.281
3.27 188.699 61.630
3.28 190.651 59.397
3.29 193.046 58.669
3.30 191.849 56.234
3.31 191.785 54.284
3.32 192.961 52.358
3.33 --undefined-- 48.578
3.34 --undefined-- 48.802
3.35 --undefined-- 52.661
3.36 --undefined-- 59.451
3.37 --undefined-- 65.315
3.38 --undefined-- 68.196
3.39 260.826 68.762
3.40 250.314 68.162
3.41 241.850 67.383
3.42 236.787 66.453
3.43 233.889 65.372
3.44 233.957 64.793
3.45 233.095 64.745
3.46 230.592 64.616
3.47 226.891 64.250
3.48 222.894 63.895
3.49 219.459 63.630
3.50 216.420 63.123
3.51 216.658 62.519
3.52 217.676 62.348
3.53 216.284 62.336
3.54 215.535 62.373
3.55 214.483 62.472
3.56 212.981 62.399
3.57 211.208 62.279
3.58 209.755 62.243
3.59 201.664 62.568
3.60 197.260 63.496
3.61 194.073 64.618
3.62 190.957 65.269
3.63 189.115 65.297
3.64 190.838 65.410
3.65 194.477 65.804
3.66 200.838 65.663
3.67 208.968 64.725
3.68 215.690 63.918
3.69 222.841 63.601
3.70 233.750 63.313
3.71 243.108 63.168
3.72 249.267 63.011
3.73 263.339 62.841
3.74 267.416 62.945
3.75 280.550 63.581
3.76 285.586 64.859
3.77 290.155 66.090
3.78 293.880 66.687
3.79 293.659 66.664
3.80 289.803 66.181
3.81 282.769 65.393
3.82 277.043 64.859
3.83 272.630 64.951
3.84 264.359 65.365
3.85 248.436 65.564
3.86 221.983 65.686
3.87 203.535 65.859
3.88 193.293 65.799
3.89 193.321 65.427
3.90 194.029 64.394
3.91 193.225 62.048
3.92 193.745 58.716
3.93 193.687 56.125
3.94 193.704 53.544
3.95 257.524 51.645
3.96 256.983 51.166
3.97 263.445 49.318
3.98 268.177 47.874
3.99 270.325 48.309
4.00 267.782 50.829
4.01 263.565 53.408
4.02 --undefined-- 54.060
4.03 291.678 54.645
4.04 270.150 57.955
4.05 264.524 61.072
4.06 264.983 63.109
4.07 267.374 64.384
4.08 268.404 65.027
4.09 269.763 65.117
4.10 271.366 64.947
4.11 270.904 64.669
4.12 268.824 64.247
4.13 264.971 63.723
4.14 259.211 63.212
4.15 253.314 63.169
4.16 245.461 63.769
4.17 237.078 64.189
4.18 226.388 64.300
4.19 217.953 64.925
4.20 210.551 65.947
4.21 202.336 66.902
4.22 197.291 67.695
4.23 195.240 68.357
4.24 194.855 68.836
4.25 194.303 68.888
4.26 194.535 68.482
4.27 195.605 67.941
4.28 196.778 67.443
4.29 197.866 66.662
4.30 199.099 65.424
4.31 205.379 64.364
4.32 215.842 64.245
4.33 220.647 64.666
4.34 225.365 64.837
4.35 230.541 64.696
4.36 234.018 64.879
4.37 233.411 65.169
4.38 230.475 64.962
4.39 224.141 64.799
4.40 217.390 65.181
4.41 205.544 65.214
4.42 192.743 64.155
4.43 188.316 61.829
4.44 185.880 58.636
4.45 196.844 55.406
4.46 193.440 55.058
4.47 265.007 57.344
4.48 270.972 57.801
4.49 --undefined-- 55.597
4.50 --undefined-- 54.003
4.51 --undefined-- 53.628
4.52 --undefined-- 51.546
4.53 --undefined-- 51.878
4.54 --undefined-- 53.575
4.55 --undefined-- 52.781
4.56 --undefined-- 49.956
4.57 --undefined-- 50.524
4.58 --undefined-- 53.181
4.59 --undefined-- 53.462
4.60 --undefined-- 52.173
4.61 --undefined-- 52.719
4.62 --undefined-- 51.841
4.63 --undefined-- 48.683
4.64 --undefined-- 50.171
4.65 --undefined-- 52.725
4.66 --undefined-- 52.834
4.67 --undefined-- 51.895
4.68 --undefined-- 50.728
4.69 --undefined-- 49.362
4.70 --undefined-- 50.549
4.71 --undefined-- 52.126
4.72 --undefined-- 51.867
4.73 --undefined-- 50.608
4.74 --undefined-- 50.167
4.75 --undefined-- 51.412
4.76 --undefined-- 53.549
4.77 291.501 57.834
4.78 265.022 63.003
4.79 251.473 66.946
4.80 249.104 69.596
4.81 254.317 71.257
4.82 261.328 71.740
4.83 270.212 70.837
4.84 282.536 68.968
4.85 290.287 67.302
4.86 297.891 66.403
4.87 151.473 65.310
4.88 151.954 62.897
4.89 279.277 58.402
4.90 278.584 52.682
4.91 --undefined-- 49.101
4.92 --undefined-- 50.999
4.93 --undefined-- 57.008
4.94 --undefined-- 62.442
4.95 --undefined-- 65.645
4.96 287.635 67.310
4.97 282.738 68.361
4.98 277.310 69.152
4.99 274.082 69.554
5.00 271.220 69.375
5.01 268.268 68.541
5.02 265.188 --undefined--
5.03 262.955 --undefined--
5.04 --undefined-- --undefined--
5.05 --undefined-- --undefined--
