Time Pitch Intensity
0.01 --undefined-- --undefined--
0.02 109.929 --undefined--
0.03 108.610 --undefined--
0.04 108.096 --undefined--
0.05 106.770 71.251
0.06 105.409 71.564
0.07 104.532 71.164
0.08 103.931 70.858
0.09 104.225 70.606
0.10 105.183 70.215
0.11 105.267 69.745
0.12 103.871 68.554
0.13 --undefined-- 65.436
0.14 --undefined-- 59.456
0.15 --undefined-- 49.941
0.16 --undefined-- 39.745
0.17 --undefined-- 48.113
0.18 --undefined-- 59.099
0.19 --undefined-- 66.052
0.20 --undefined-- 70.578
0.21 --undefined-- 72.692
0.22 --undefined-- 72.173
0.23 --undefined-- 70.204
0.24 --undefined-- 69.345
0.25 --undefined-- 68.717
0.26 --undefined-- 67.544
0.27 --undefined-- 65.636
0.28 --undefined-- 62.555
0.29 --undefined-- 61.082
0.30 --undefined-- 62.451
0.31 106.327 63.432
0.32 105.393 63.933
0.33 103.596 64.410
0.34 103.440 64.646
0.35 100.441 64.728
0.36 98.865 65.127
0.37 102.450 66.290
0.38 101.605 67.852
0.39 101.709 68.864
0.40 97.540 68.968
0.41 93.088 68.426
0.42 90.675 67.824
0.43 90.348 67.987
0.44 89.746 68.571
0.45 89.032 69.128
0.46 88.575 70.100
0.47 88.302 70.961
0.48 89.265 70.766
0.49 89.193 69.075
0.50 74.617 65.940
0.51 87.650 62.866
0.52 --undefined-- 59.710
0.53 --undefined-- 53.633
0.54 --undefined-- 44.251
0.55 --undefined-- 39.448
0.56 --undefined-- 38.845
0.57 --undefined-- 38.432
0.58 --undefined-- 37.592
0.59 --undefined-- 37.593
0.60 --undefined-- 38.984
0.61 --undefined-- 39.793
0.62 --undefined-- 39.956
0.63 --undefined-- 40.248
0.64 --undefined-- 41.340
0.65 --undefined-- 43.447
0.66 --undefined-- 45.516
0.67 --undefined-- 46.780
0.68 --undefined-- 47.305
0.69 --undefined-- 47.847
0.70 --undefined-- 48.940
0.71 --undefined-- 50.309
0.72 --undefined-- 51.095
0.73 --undefined-- 50.353
0.74 --undefined-- 47.184
0.75 --undefined-- 42.814
0.76 --undefined-- 42.874
0.77 --undefined-- 46.422
0.78 --undefined-- 49.327
0.79 --undefined-- 50.464
0.80 --undefined-- 50.857
0.81 --undefined-- 53.127
0.82 174.026 56.139
0.83 174.272 58.788
0.84 173.491 61.507
0.85 172.871 63.038
0.86 162.991 62.638
0.87 --undefined-- 64.049
0.88 --undefined-- 69.569
0.89 156.827 73.033
0.90 157.456 73.746
0.91 164.888 73.235
0.92 166.343 73.618
0.93 169.655 74.753
0.94 173.644 75.913
0.95 188.112 76.412
0.96 181.997 75.747
0.97 181.314 74.780
0.98 181.123 74.898
0.99 180.046 75.178
1.00 177.023 74.313
1.01 --undefined-- 71.734
1.02 --undefined-- 66.822
1.03 --undefined-- 58.906
1.04 --undefined-- 48.545
1.05 --undefined-- 43.092
1.06 --undefined-- 50.243
1.07 --undefined-- 60.205
1.08 --undefined-- 66.721
1.09 --undefined-- 71.317
1.10 --undefined-- 74.730
1.11 --undefined-- 76.324
1.12 147.761 76.072
1.13 142.345 74.617
1.14 --undefined-- 72.435
1.15 --undefined-- 69.521
1.16 --undefined-- 65.590
1.17 --undefined-- 61.143
1.18 --undefined-- 59.915
1.19 --undefined-- 61.992
1.20 --undefined-- 65.792
1.21 129.395 69.665
1.22 129.416 71.907
1.23 132.950 72.195
1.24 117.148 70.554
1.25 121.391 67.771
1.26 121.698 65.070
1.27 131.144 62.963
1.28 136.912 62.142
1.29 141.962 62.341
1.30 147.205 62.943
1.31 158.862 63.596
1.32 159.202 64.346
1.33 170.090 65.075
1.34 170.228 65.463
1.35 167.261 65.403
1.36 153.838 65.881
1.37 150.429 69.042
1.38 142.748 72.515
1.39 143.320 74.229
1.40 144.425 74.614
1.41 145.992 74.566
1.42 148.245 74.386
1.43 148.248 74.195
1.44 146.498 74.235
1.45 144.248 74.382
1.46 137.342 74.350
1.47 135.522 74.099
1.48 132.584 73.499
1.49 129.461 72.679
1.50 128.708 72.000
1.51 129.077 71.252
1.52 129.237 69.833
1.53 129.664 67.313
1.54 132.243 63.979
1.55 134.366 61.558
1.56 134.203 62.741
1.57 136.363 68.233
1.58 140.275 72.563
1.59 142.324 74.817
1.60 142.882 75.676
1.61 142.551 75.710
1.62 141.641 75.237
1.63 140.256 74.790
1.64 140.642 74.503
1.65 136.631 74.116
1.66 134.885 73.518
1.67 133.125 72.250
1.68 129.663 69.685
1.69 --undefined-- 64.993
1.70 --undefined-- 57.167
1.71 --undefined-- 47.673
1.72 --undefined-- 48.464
1.73 --undefined-- 53.096
1.74 --undefined-- 58.570
1.75 --undefined-- 65.194
1.76 --undefined-- 70.211
1.77 --undefined-- 72.731
1.78 --undefined-- 73.244
1.79 --undefined-- 72.599
1.80 100.271 71.738
1.81 96.113 71.180
1.82 93.971 70.407
1.83 92.925 69.254
1.84 93.931 68.060
1.85 95.797 67.111
1.86 96.956 66.445
1.87 96.044 65.499
1.88 95.529 64.138
1.89 95.353 62.745
1.90 95.714 61.385
1.91 96.427 60.350
1.92 96.729 59.911
1.93 98.538 59.708
1.94 99.436 58.949
1.95 96.701 57.325
1.96 --undefined-- 54.875
1.97 --undefined-- 50.934
1.98 --undefined-- 44.735
1.99 --undefined-- 37.676
2.00 --undefined-- 35.044
2.01 --undefined-- 35.187
2.02 --undefined-- 36.739
2.03 --undefined-- 43.703
2.04 --undefined-- 52.697
2.05 --undefined-- 58.967
2.06 --undefined-- 62.566
2.07 --undefined-- 64.507
2.08 --undefined-- 66.808
2.09 --undefined-- 70.437
2.10 138.450 72.828
2.11 138.161 73.138
2.12 136.146 71.709
2.13 128.268 68.696
2.14 --undefined-- 63.625
2.15 --undefined-- 55.749
2.16 --undefined-- 45.142
2.17 --undefined-- 42.003
2.18 --undefined-- 53.775
2.19 --undefined-- 62.310
2.20 --undefined-- 67.970
2.21 --undefined-- 71.794
2.22 107.146 73.211
2.23 106.691 71.900
2.24 106.629 68.231
2.25 109.161 62.947
2.26 110.509 57.058
2.27 114.468 54.164
2.28 114.931 54.573
2.29 114.833 55.268
2.30 114.853 55.885
2.31 115.309 56.486
2.32 115.686 57.065
2.33 118.076 57.973
2.34 120.679 60.300
2.35 123.060 64.134
2.36 122.587 67.658
2.37 122.952 69.939
2.38 123.276 71.256
2.39 123.584 72.381
2.40 123.520 73.399
2.41 123.193 73.817
2.42 121.902 72.999
2.43 --undefined-- 70.141
2.44 --undefined-- 64.409
2.45 --undefined-- 55.077
2.46 --undefined-- 44.041
2.47 --undefined-- 46.179
2.48 --undefined-- 55.671
2.49 --undefined-- 61.815
2.50 --undefined-- 66.298
2.51 --undefined-- 70.867
2.52 117.844 73.789
2.53 116.158 74.412
2.54 111.597 73.666
2.55 110.353 72.861
2.56 109.807 72.419
2.57 109.779 72.191
2.58 109.571 72.005
2.59 108.583 71.709
2.60 107.669 71.106
2.61 106.425 70.057
2.62 104.296 68.755
2.63 101.978 67.495
2.64 99.770 66.013
2.65 --undefined-- 63.975
2.66 --undefined-- 61.992
2.67 --undefined-- 59.848
2.68 --undefined-- 57.889
2.69 --undefined-- 56.785
2.70 --undefined-- 55.492
2.71 --undefined-- 54.462
2.72 --undefined-- 53.962
2.73 --undefined-- 53.070
2.74 --undefined-- 54.570
2.75 --undefined-- 59.951
2.76 101.934 63.969
2.77 101.842 65.523
2.78 101.539 64.756
2.79 100.252 62.251
2.80 98.007 59.650
2.81 97.405 58.670
2.82 97.337 59.151
2.83 96.926 60.241
2.84 97.139 61.217
2.85 98.279 62.020
2.86 97.958 62.522
2.87 98.626 62.585
2.88 99.652 62.513
2.89 104.392 63.459
2.90 112.826 65.808
2.91 119.557 67.892
2.92 124.041 68.601
2.93 126.686 67.838
2.94 127.082 65.866
2.95 128.255 63.417
2.96 129.488 61.487
2.97 --undefined-- 58.963
2.98 --undefined-- 53.908
2.99 --undefined-- 45.676
3.00 --undefined-- 49.681
3.01 --undefined-- 61.517
3.02 --undefined-- 68.898
3.03 --undefined-- 73.097
3.04 --undefined-- 74.705
3.05 --undefined-- 74.343
3.06 --undefined-- 73.008
3.07 99.088 71.485
3.08 101.538 70.389
3.09 100.579 69.900
3.10 94.857 69.343
3.11 93.947 68.550
3.12 93.429 67.420
3.13 92.990 65.728
3.14 92.502 64.155
3.15 92.953 63.373
3.16 --undefined-- 62.476
3.17 --undefined-- 60.601
3.18 --undefined-- 57.941
3.19 --undefined-- 55.487
3.20 --undefined-- 53.119
3.21 94.168 53.937
3.22 98.389 58.695
3.23 101.258 62.731
3.24 100.876 65.269
3.25 100.723 67.108
3.26 100.714 68.702
3.27 101.227 69.539
3.28 102.918 69.602
3.29 103.611 69.743
3.30 103.904 69.957
3.31 103.730 70.004
3.32 103.000 70.190
3.33 102.261 70.390
3.34 101.872 70.165
3.35 102.787 69.620
3.36 103.231 69.553
3.37 103.799 69.887
3.38 103.346 70.199
3.39 102.808 70.484
3.40 101.460 70.406
3.41 100.774 69.901
3.42 100.334 69.323
3.43 100.684 68.855
3.44 101.448 68.724
3.45 101.562 69.001
3.46 102.145 69.276
3.47 101.645 69.385
3.48 101.073 69.669
3.49 98.509 69.919
3.50 98.719 69.683
3.51 99.569 69.163
3.52 99.818 68.888
3.53 100.926 68.553
3.54 103.250 68.148
3.55 103.502 67.890
3.56 103.403 67.811
3.57 104.045 68.047
3.58 104.613 68.197
3.59 105.099 68.037
3.60 105.073 67.831
3.61 105.305 67.345
3.62 104.335 66.151
3.63 101.665 63.656
3.64 --undefined-- 59.031
3.65 --undefined-- 51.534
3.66 --undefined-- 42.192
3.67 --undefined-- 37.636
3.68 --undefined-- 35.236
3.69 --undefined-- 33.544
3.70 --undefined-- 33.056
3.71 --undefined-- 34.518
3.72 --undefined-- 36.213
3.73 --undefined-- 36.505
3.74 --undefined-- 35.775
3.75 --undefined-- 35.439
3.76 --undefined-- 35.572
3.77 --undefined-- 35.277
3.78 --undefined-- 35.009
3.79 --undefined-- 35.448
3.80 --undefined-- 36.569
3.81 --undefined-- 40.234
3.82 --undefined-- 44.589
3.83 --undefined-- 46.819
3.84 --undefined-- 47.395
3.85 --undefined-- 47.226
3.86 --undefined-- 46.755
3.87 --undefined-- 46.596
3.88 --undefined-- 46.581
3.89 --undefined-- 46.369
3.90 --undefined-- 46.258
3.91 --undefined-- 46.462
3.92 --undefined-- 46.584
3.93 --undefined-- 46.739
3.94 --undefined-- 46.688
3.95 --undefined-- 46.188
3.96 --undefined-- 45.761
3.97 --undefined-- 45.949
3.98 --undefined-- 46.354
3.99 --undefined-- 46.397
4.00 --undefined-- 46.072
4.01 --undefined-- 45.436
4.02 --undefined-- 44.827
4.03 --undefined-- 45.480
4.04 --undefined-- 53.160
4.05 --undefined-- 62.831
4.06 --undefined-- 69.590
4.07 --undefined-- 73.048
4.08 --undefined-- 73.408
4.09 --undefined-- 71.035
4.10 --undefined-- 67.284
4.11 --undefined-- 67.062
4.12 --undefined-- 69.632
4.13 --undefined-- 70.709
4.14 --undefined-- 69.929
4.15 95.530 67.267
4.16 96.593 62.637
4.17 98.865 57.589
4.18 100.194 55.291
4.19 104.338 54.306
4.20 105.343 52.670
4.21 109.511 50.993
4.22 109.481 49.475
4.23 --undefined-- 47.272
4.24 --undefined-- 44.508
4.25 --undefined-- 41.856
4.26 --undefined-- 50.125
4.27 --undefined-- 61.738
4.28 --undefined-- 68.799
4.29 --undefined-- 72.263
4.30 --undefined-- 73.066
4.31 102.695 72.178
4.32 102.994 70.749
4.33 110.744 69.521
4.34 115.838 68.268
4.35 117.895 66.645
4.36 117.260 64.954
4.37 117.793 63.754
4.38 121.664 62.428
4.39 123.959 59.676
4.40 --undefined-- 55.471
4.41 --undefined-- 50.600
4.42 --undefined-- 47.456
4.43 --undefined-- 51.934
4.44 --undefined-- 57.874
4.45 --undefined-- 61.841
4.46 --undefined-- 66.926
4.47 --undefined-- 71.822
4.48 --undefined-- 74.126
4.49 --undefined-- 74.275
4.50 --undefined-- 73.634
4.51 --undefined-- 72.775
4.52 --undefined-- 71.598
4.53 100.042 70.520
4.54 99.033 69.910
4.55 96.722 69.559
4.56 94.848 68.819
4.57 95.739 67.809
4.58 96.965 66.659
4.59 --undefined-- 64.872
4.60 --undefined-- 61.925
4.61 --undefined-- 57.413
4.62 --undefined-- 50.507
4.63 --undefined-- 43.078
4.64 --undefined-- 51.151
4.65 --undefined-- 59.103
4.66 --undefined-- 65.242
4.67 --undefined-- 69.401
4.68 --undefined-- 71.164
4.69 --undefined-- 70.818
4.70 --undefined-- 69.884
4.71 --undefined-- 69.602
4.72 --undefined-- 68.640
4.73 --undefined-- 66.471
4.74 --undefined-- 65.512
4.75 --undefined-- 66.411
4.76 --undefined-- 67.292
4.77 --undefined-- 67.844
4.78 --undefined-- 66.906
4.79 --undefined-- 63.444
4.80 --undefined-- 57.646
4.81 113.075 53.659
4.82 112.194 54.033
4.83 109.685 54.363
4.84 106.978 54.184
4.85 104.389 54.069
4.86 102.071 55.419
4.87 100.088 58.770
4.88 99.260 63.063
4.89 99.495 66.738
4.90 100.399 68.453
4.91 100.045 67.753
4.92 99.778 64.449
4.93 101.625 58.757
4.94 102.403 54.590
4.95 103.609 54.824
4.96 107.025 56.107
4.97 107.253 57.127
4.98 106.498 58.565
4.99 105.383 62.402
5.00 104.965 67.315
5.01 104.855 70.539
5.02 104.101 71.757
5.03 101.910 71.664
5.04 99.135 71.042
5.05 98.476 70.113
5.06 97.488 69.139
5.07 98.832 68.700
5.08 --undefined-- 67.705
5.09 --undefined-- 64.981
5.10 --undefined-- 61.191
5.11 --undefined-- 59.272
5.12 --undefined-- 57.259
5.13 --undefined-- 52.225
5.14 --undefined-- 44.473
5.15 --undefined-- 44.424
5.16 --undefined-- 48.712
5.17 --undefined-- 56.187
5.18 131.736 64.072
5.19 132.939 69.305
5.20 133.606 71.611
5.21 134.808 71.710
5.22 138.571 71.541
5.23 138.335 71.645
5.24 138.478 70.418
5.25 139.713 67.028
5.26 144.602 61.899
5.27 144.937 59.118
5.28 144.965 59.997
5.29 144.080 62.029
5.30 143.302 66.177
5.31 141.878 70.491
5.32 140.903 72.848
5.33 139.095 73.345
5.34 135.711 72.634
5.35 130.870 71.385
5.36 125.514 70.341
5.37 120.168 70.014
5.38 117.999 70.230
5.39 116.250 69.855
5.40 114.955 68.058
5.41 115.196 65.723
5.42 120.453 65.370
5.43 123.239 66.635
5.44 126.654 68.162
5.45 129.393 70.382
5.46 133.991 73.203
5.47 137.538 75.050
5.48 138.275 75.434
5.49 139.461 --undefined--
5.50 139.387 --undefined--
5.51 --undefined-- --undefined--
5.52 --undefined-- --undefined--
