Time Pitch Intensity
0.01 --undefined-- --undefined--
0.02 236.262 --undefined--
0.03 227.387 --undefined--
0.04 221.459 --undefined--
0.05 217.405 66.320
0.06 214.115 66.116
0.07 211.889 65.833
0.08 210.339 65.442
0.09 208.544 65.160
0.10 206.536 65.075
0.11 205.295 64.882
0.12 204.083 64.481
0.13 204.412 64.017
0.14 209.747 63.194
0.15 212.979 61.757
0.16 213.017 59.472
0.17 203.097 56.246
0.18 --undefined-- 52.751
0.19 --undefined-- 50.644
0.20 --undefined-- 53.821
0.21 --undefined-- 57.274
0.22 222.917 59.712
0.23 211.750 61.357
0.24 199.310 62.515
0.25 184.817 63.380
0.26 175.600 63.581
0.27 170.039 63.144
0.28 163.591 62.302
0.29 156.422 60.969
0.30 153.909 59.640
0.31 159.330 59.224
0.32 160.301 58.979
0.33 161.095 58.037
0.34 161.875 56.277
0.35 164.912 54.479
0.36 168.334 53.931
0.37 172.223 54.494
0.38 175.734 55.653
0.39 180.226 56.611
0.40 180.144 57.214
0.41 183.545 58.999
0.42 188.383 62.351
0.43 183.686 65.234
0.44 180.999 67.162
0.45 177.513 68.399
0.46 175.312 69.013
0.47 175.809 69.205
0.48 176.918 69.260
0.49 178.778 68.486
0.50 178.930 65.815
0.51 176.777 60.742
0.52 177.720 54.224
0.53 --undefined-- 48.390
0.54 --undefined-- 46.290
0.55 --undefined-- 46.720
0.56 --undefined-- 48.211
0.57 --undefined-- 48.992
0.58 --undefined-- 48.945
0.59 --undefined-- 51.025
0.60 --undefined-- 54.824
0.61 221.599 58.581
0.62 224.472 61.674
0.63 206.795 64.220
0.64 203.993 65.955
0.65 200.380 66.702
0.66 198.618 66.500
0.67 199.534 65.581
0.68 202.196 64.137
0.69 205.146 62.338
0.70 205.205 60.147
0.71 202.900 56.806
0.72 202.287 53.298
0.73 --undefined-- 54.266
0.74 233.933 58.955
0.75 224.473 62.643
0.76 216.408 64.854
0.77 208.961 66.514
0.78 204.851 67.475
0.79 203.698 67.007
0.80 206.382 65.005
0.81 207.839 62.049
0.82 205.996 58.384
0.83 204.910 53.921
0.84 --undefined-- 51.184
0.85 --undefined-- 52.166
0.86 --undefined-- 54.953
0.87 --undefined-- 58.211
0.88 --undefined-- 59.866
0.89 --undefined-- 59.442
0.90 --undefined-- 57.496
0.91 --undefined-- 55.687
0.92 215.792 57.461
0.93 221.218 61.094
0.94 206.918 63.306
0.95 185.100 64.253
0.96 175.862 64.597
0.97 168.531 64.428
0.98 163.850 63.648
0.99 157.525 62.349
1.00 152.391 60.974
1.01 157.205 60.722
1.02 167.105 61.456
1.03 168.720 61.961
1.04 172.030 62.089
1.05 173.656 61.474
1.06 172.967 59.381
1.07 167.976 56.596
1.08 --undefined-- 57.620
1.09 250.729 63.065
1.10 245.413 67.008
1.11 244.883 68.778
1.12 248.945 69.449
1.13 253.876 69.782
1.14 260.085 69.767
1.15 267.183 69.711
1.16 272.609 69.552
1.17 278.733 69.228
1.18 282.010 68.891
1.19 285.282 68.186
1.20 290.228 67.559
1.21 293.089 67.410
1.22 295.469 67.367
1.23 295.245 67.515
1.24 296.021 68.467
1.25 299.604 69.723
1.26 150.844 70.405
1.27 152.409 70.302
1.28 154.966 69.386
1.29 155.047 68.066
1.30 154.089 67.172
1.31 153.193 66.814
1.32 152.667 66.646
1.33 152.169 66.524
1.34 151.851 66.435
1.35 151.719 66.399
1.36 152.042 66.417
1.37 152.003 66.439
1.38 151.512 66.391
1.39 150.669 66.351
1.40 150.268 66.328
1.41 299.820 65.840
1.42 296.136 64.021
1.43 286.149 60.233
1.44 --undefined-- 54.444
1.45 --undefined-- 49.095
1.46 --undefined-- 51.533
1.47 268.377 56.901
1.48 267.319 60.357
1.49 260.505 61.543
1.50 256.885 61.626
1.51 249.371 61.415
1.52 228.404 60.984
1.53 210.336 60.246
1.54 194.666 59.970
1.55 189.589 60.974
1.56 187.820 62.313
1.57 178.415 62.998
1.58 168.761 62.761
1.59 164.123 62.102
1.60 160.946 61.370
1.61 --undefined-- 60.281
1.62 --undefined-- 59.885
1.63 --undefined-- 61.527
1.64 --undefined-- 63.140
1.65 --undefined-- 62.920
1.66 --undefined-- 60.737
1.67 --undefined-- 57.600
1.68 --undefined-- 54.347
1.69 --undefined-- 50.743
1.70 --undefined-- 47.598
1.71 --undefined-- 48.464
1.72 --undefined-- 49.514
1.73 --undefined-- 49.203
1.74 --undefined-- 51.063
1.75 --undefined-- 51.725
1.76 --undefined-- 49.170
1.77 --undefined-- 45.888
1.78 --undefined-- 47.410
1.79 --undefined-- 50.148
1.80 --undefined-- 51.629
1.81 --undefined-- 50.938
1.82 --undefined-- 47.325
1.83 --undefined-- 43.016
1.84 --undefined-- 48.659
1.85 --undefined-- 56.000
1.86 263.811 60.552
1.87 262.476 62.823
1.88 265.198 63.754
1.89 265.007 63.905
1.90 262.967 63.572
1.91 261.004 63.248
1.92 261.812 63.249
1.93 263.958 63.376
1.94 266.114 63.485
1.95 268.762 63.678
1.96 271.751 63.751
1.97 270.840 63.100
1.98 268.152 61.076
1.99 264.758 57.554
2.00 265.972 53.146
2.01 --undefined-- 49.125
2.02 --undefined-- 50.124
2.03 --undefined-- 56.041
2.04 --undefined-- 61.780
2.05 --undefined-- 64.656
2.06 --undefined-- 64.884
2.07 --undefined-- 62.992
2.08 --undefined-- 59.633
2.09 --undefined-- 56.405
2.10 213.916 54.596
2.11 213.728 54.669
2.12 211.448 55.971
2.13 205.702 56.787
2.14 99.948 57.615
2.15 98.329 60.630
2.16 --undefined-- 64.584
2.17 --undefined-- 67.201
2.18 186.048 68.345
2.19 193.230 68.404
2.20 197.694 67.374
2.21 205.998 65.463
2.22 219.334 64.005
2.23 224.304 64.043
2.24 233.324 64.312
2.25 242.410 63.593
2.26 244.302 61.740
2.27 242.274 58.912
2.28 240.480 56.042
2.29 --undefined-- 54.781
2.30 --undefined-- 53.114
2.31 --undefined-- 49.357
2.32 --undefined-- 49.114
2.33 --undefined-- 52.302
2.34 --undefined-- 54.199
2.35 --undefined-- 54.160
2.36 --undefined-- 52.500
2.37 --undefined-- 51.624
2.38 --undefined-- 51.149
2.39 --undefined-- 49.557
2.40 --undefined-- 49.414
2.41 --undefined-- 50.052
2.42 --undefined-- 50.091
2.43 --undefined-- 49.678
2.44 --undefined-- 48.940
2.45 --undefined-- 49.359
2.46 --undefined-- 50.055
2.47 --undefined-- 49.355
2.48 --undefined-- 47.370
2.49 --undefined-- 45.636
2.50 --undefined-- 46.652
2.51 --undefined-- 47.327
2.52 --undefined-- 47.041
2.53 --undefined-- 48.125
2.54 --undefined-- 53.813
2.55 --undefined-- 58.553
2.56 96.310 61.209
2.57 94.490 63.030
2.58 195.271 64.463
2.59 196.597 65.392
2.60 206.241 66.142
2.61 213.169 66.988
2.62 223.391 67.228
2.63 218.270 66.221
2.64 209.654 64.412
2.65 213.848 62.696
2.66 211.404 60.875
2.67 202.955 59.329
2.68 194.675 58.979
2.69 204.068 58.886
2.70 204.808 58.660
2.71 205.257 59.585
2.72 196.839 61.656
2.73 194.415 64.524
2.74 185.027 67.287
2.75 181.654 68.983
2.76 181.406 69.629
2.77 182.524 69.674
2.78 184.997 69.342
2.79 188.161 68.531
2.80 193.420 67.193
2.81 201.986 65.653
2.82 209.045 64.591
2.83 219.014 64.175
2.84 229.484 64.050
2.85 236.139 64.010
2.86 248.217 64.497
2.87 258.864 65.433
2.88 263.027 65.941
2.89 265.220 65.820
2.90 264.207 65.211
2.91 259.869 64.143
2.92 251.824 63.087
2.93 244.880 63.694
2.94 243.865 65.433
2.95 238.563 66.708
2.96 230.774 67.070
2.97 225.293 66.801
2.98 221.187 66.452
2.99 218.815 66.345
3.00 216.867 66.228
3.01 215.403 65.783
3.02 214.411 65.138
3.03 213.519 64.397
3.04 213.814 63.640
3.05 214.644 63.091
3.06 214.563 62.728
3.07 213.092 62.317
3.08 211.964 61.687
3.09 213.356 60.849
3.10 219.412 59.641
3.11 211.430 57.878
3.12 206.804 56.311
3.13 208.266 56.122
3.14 222.637 57.559
3.15 229.802 60.005
3.16 223.498 62.596
3.17 --undefined-- 65.292
3.18 --undefined-- 67.513
3.19 --undefined-- 68.233
3.20 --undefined-- 67.198
3.21 --undefined-- 64.611
3.22 --undefined-- 61.502
3.23 --undefined-- 59.012
3.24 --undefined-- 57.004
3.25 --undefined-- 55.987
3.26 --undefined-- 56.530
3.27 155.300 57.585
3.28 158.464 58.269
3.29 165.999 59.577
3.30 160.904 61.181
3.31 155.505 61.576
3.32 154.864 60.987
3.33 154.108 60.337
3.34 153.038 60.010
3.35 151.461 59.890
3.36 150.209 59.768
3.37 151.013 59.408
3.38 150.001 58.720
3.39 148.288 57.804
3.40 151.218 56.802
3.41 155.236 55.786
3.42 150.900 53.916
3.43 --undefined-- 50.619
3.44 --undefined-- 47.688
3.45 --undefined-- 48.579
3.46 --undefined-- 51.955
3.47 --undefined-- 54.783
3.48 --undefined-- 58.634
3.49 --undefined-- 62.008
3.50 193.654 63.874
3.51 187.431 64.802
3.52 182.171 64.942
3.53 177.277 64.502
3.54 178.785 63.577
3.55 180.124 61.802
3.56 179.868 59.178
3.57 179.899 56.168
3.58 179.046 53.785
3.59 192.505 54.500
3.60 202.265 57.110
3.61 195.834 59.537
3.62 187.882 61.960
3.63 178.298 63.965
3.64 170.498 64.973
3.65 171.714 65.038
3.66 182.037 64.551
3.67 182.904 63.698
3.68 183.402 62.411
3.69 185.577 60.722
3.70 193.773 59.681
3.71 205.656 60.099
3.72 211.408 60.921
3.73 209.143 61.687
3.74 205.503 63.186
3.75 199.805 65.208
3.76 194.952 66.846
3.77 189.572 67.726
3.78 185.163 67.207
3.79 182.387 64.448
3.80 --undefined-- 59.055
3.81 --undefined-- 52.499
3.82 --undefined-- 49.539
3.83 --undefined-- 54.976
3.84 --undefined-- 61.567
3.85 --undefined-- 65.200
3.86 178.668 66.508
3.87 170.921 66.605
3.88 166.696 66.721
3.89 163.713 66.883
3.90 161.945 66.589
3.91 160.754 66.128
3.92 159.917 65.624
3.93 159.388 64.702
3.94 162.938 63.409
3.95 164.511 62.644
3.96 164.550 62.162
3.97 164.775 61.415
3.98 165.384 60.262
3.99 165.559 57.835
4.00 165.899 53.446
4.01 --undefined-- 49.006
4.02 --undefined-- 49.375
4.03 --undefined-- 51.206
4.04 --undefined-- 54.283
4.05 201.307 59.873
4.06 194.868 64.342
4.07 183.973 67.069
4.08 178.596 68.357
4.09 174.801 68.424
4.10 172.296 67.567
4.11 170.905 66.483
4.12 171.299 65.702
4.13 172.389 65.062
4.14 175.388 64.430
4.15 178.664 63.786
4.16 179.578 62.575
4.17 177.465 60.037
4.18 172.572 55.670
4.19 --undefined-- 51.168
4.20 --undefined-- 48.313
4.21 --undefined-- 46.834
4.22 --undefined-- 51.357
4.23 --undefined-- 58.505
4.24 --undefined-- 62.996
4.25 226.263 65.425
4.26 223.302 66.942
4.27 221.092 67.978
4.28 219.921 68.451
4.29 219.791 68.271
4.30 220.178 67.543
4.31 221.105 66.494
4.32 223.341 65.445
4.33 224.338 64.785
4.34 223.770 64.804
4.35 223.042 65.165
4.36 222.377 65.393
4.37 221.712 65.280
4.38 221.198 64.764
4.39 220.752 63.624
4.40 217.665 61.559
4.41 196.993 58.499
4.42 185.807 55.154
4.43 --undefined-- 54.072
4.44 --undefined-- 54.951
4.45 --undefined-- 57.600
4.46 --undefined-- 62.162
4.47 195.634 66.414
4.48 188.702 69.808
4.49 184.869 71.825
4.50 180.301 72.540
4.51 176.034 73.034
4.52 176.106 73.794
4.53 176.533 74.419
4.54 175.876 74.789
4.55 175.467 74.947
4.56 174.166 74.751
4.57 172.209 74.120
4.58 169.944 73.635
4.59 168.124 73.554
4.60 165.723 73.033
4.61 162.657 71.374
4.62 156.976 68.257
4.63 --undefined-- 64.490
4.64 --undefined-- 60.316
4.65 --undefined-- 55.105
4.66 --undefined-- 52.080
4.67 --undefined-- 52.524
4.68 --undefined-- 52.236
4.69 --undefined-- 50.281
4.70 --undefined-- 46.490
4.71 --undefined-- 44.115
4.72 --undefined-- 47.256
4.73 --undefined-- 50.216
4.74 --undefined-- 51.316
4.75 --undefined-- 49.731
4.76 --undefined-- 47.179
4.77 --undefined-- 46.220
4.78 --undefined-- 45.475
4.79 --undefined-- 47.781
4.80 --undefined-- 49.974
4.81 --undefined-- 50.230
4.82 --undefined-- 49.626
4.83 --undefined-- 48.870
4.84 --undefined-- 48.355
4.85 --undefined-- 47.937
4.86 --undefined-- 45.855
4.87 --undefined-- 44.848
4.88 --undefined-- 47.200
4.89 --undefined-- 48.477
4.90 --undefined-- 48.568
4.91 --undefined-- 49.250
4.92 --undefined-- 49.182
4.93 --undefined-- 47.678
4.94 --undefined-- 46.767
4.95 --undefined-- 48.876
4.96 --undefined-- 52.012
4.97 --undefined-- 53.011
4.98 --undefined-- 51.646
4.99 --undefined-- --undefined--
5.00 --undefined-- --undefined--
5.01 --undefined-- --undefined--
5.02 --undefined-- --undefined--
