Time Pitch Intensity
0.01 --undefined-- --undefined--
0.02 183.634 --undefined--
0.03 180.637 --undefined--
0.04 179.055 --undefined--
0.05 178.220 72.417
0.06 177.203 71.123
0.07 176.214 68.907
0.08 172.799 65.457
0.09 167.757 60.678
0.10 --undefined-- 54.812
0.11 --undefined-- 48.691
0.12 --undefined-- 45.076
0.13 --undefined-- 45.240
0.14 --undefined-- 45.505
0.15 --undefined-- 44.195
0.16 --undefined-- 41.671
0.17 --undefined-- 40.830
0.18 --undefined-- 42.410
0.19 --undefined-- 42.539
0.20 --undefined-- 41.129
0.21 --undefined-- 42.344
0.22 --undefined-- 45.711
0.23 --undefined-- 47.733
0.24 --undefined-- 48.629
0.25 --undefined-- 49.227
0.26 --undefined-- 49.125
0.27 --undefined-- 48.492
0.28 --undefined-- 47.982
0.29 --undefined-- 48.836
0.30 --undefined-- 50.144
0.31 --undefined-- 54.769
0.32 195.058 61.597
0.33 185.824 65.728
0.34 177.898 67.465
0.35 168.443 67.739
0.36 157.612 67.241
0.37 143.734 66.487
0.38 138.240 65.871
0.39 136.962 65.433
0.40 136.648 65.066
0.41 136.919 64.820
0.42 137.722 64.670
0.43 139.458 64.608
0.44 140.154 64.130
0.45 138.975 62.561
0.46 136.834 59.490
0.47 --undefined-- 54.254
0.48 --undefined-- 46.455
0.49 --undefined-- 41.354
0.50 --undefined-- 43.769
0.51 --undefined-- 49.154
0.52 --undefined-- 55.883
0.53 --undefined-- 62.393
0.54 188.347 66.234
0.55 185.444 67.678
0.56 184.744 68.171
0.57 184.277 68.641
0.58 183.655 69.092
0.59 183.094 69.591
0.60 182.979 70.211
0.61 182.333 70.881
0.62 180.745 71.416
0.63 179.163 71.578
0.64 178.696 71.320
0.65 178.715 70.986
0.66 178.089 70.757
0.67 177.007 70.199
0.68 176.135 68.700
0.69 173.468 65.597
0.70 175.769 60.422
0.71 --undefined-- 53.178
0.72 --undefined-- 45.280
0.73 --undefined-- 42.726
0.74 --undefined-- 45.612
0.75 --undefined-- 54.146
0.76 --undefined-- 62.230
0.77 --undefined-- 66.860
0.78 163.056 68.808
0.79 157.085 69.160
0.80 152.257 68.738
0.81 150.672 67.822
0.82 151.298 66.634
0.83 157.387 65.876
0.84 166.082 65.913
0.85 174.115 66.459
0.86 181.082 67.286
0.87 186.803 67.794
0.88 188.949 67.011
0.89 186.694 64.305
0.90 187.024 59.558
0.91 --undefined-- 52.869
0.92 --undefined-- 46.507
0.93 --undefined-- 45.227
0.94 --undefined-- 44.780
0.95 --undefined-- 51.202
0.96 --undefined-- 60.944
0.97 229.646 67.189
0.98 225.747 69.802
0.99 220.100 69.133
1.00 208.178 65.316
1.01 --undefined-- 58.595
1.02 --undefined-- 50.183
1.03 --undefined-- 44.317
1.04 --undefined-- 41.803
1.05 --undefined-- 40.506
1.06 --undefined-- 41.813
1.07 --undefined-- 47.678
1.08 --undefined-- 54.886
1.09 --undefined-- 62.249
1.10 183.022 66.729
1.11 180.017 68.577
1.12 172.201 69.134
1.13 168.487 69.096
1.14 163.487 68.440
1.15 161.170 67.706
1.16 161.010 67.531
1.17 161.439 67.698
1.18 160.977 67.602
1.19 158.827 66.838
1.20 158.705 65.541
1.21 162.853 64.527
1.22 167.394 64.636
1.23 173.899 65.963
1.24 177.761 67.492
1.25 180.386 68.577
1.26 179.110 69.281
1.27 175.321 69.635
1.28 173.299 69.802
1.29 173.268 69.854
1.30 173.538 69.697
1.31 175.316 69.411
1.32 177.719 69.389
1.33 177.993 69.811
1.34 177.101 70.114
1.35 176.789 69.681
1.36 173.348 68.383
1.37 167.914 65.854
1.38 158.577 61.417
1.39 --undefined-- 54.938
1.40 --undefined-- 48.772
1.41 --undefined-- 47.743
1.42 --undefined-- 52.951
1.43 189.780 60.927
1.44 190.757 66.011
1.45 183.425 68.459
1.46 170.587 69.188
1.47 158.719 68.989
1.48 154.172 68.578
1.49 151.193 68.436
1.50 150.167 68.414
1.51 149.235 68.353
1.52 148.394 68.244
1.53 147.947 68.024
1.54 146.639 67.335
1.55 143.932 65.461
1.56 134.380 62.087
1.57 131.276 57.685
1.58 --undefined-- 52.768
1.59 --undefined-- 46.929
1.60 --undefined-- 41.568
1.61 --undefined-- 40.932
1.62 --undefined-- 39.989
1.63 --undefined-- 39.359
1.64 --undefined-- 41.882
1.65 --undefined-- 43.529
1.66 --undefined-- 42.864
1.67 --undefined-- 40.935
1.68 --undefined-- 39.840
1.69 --undefined-- 39.299
1.70 --undefined-- 39.171
1.71 --undefined-- 38.785
1.72 --undefined-- 38.623
1.73 --undefined-- 39.612
1.74 --undefined-- 40.782
1.75 --undefined-- 40.616
1.76 --undefined-- 39.839
1.77 --undefined-- 39.760
1.78 --undefined-- 39.323
1.79 --undefined-- 37.407
1.80 --undefined-- 35.774
1.81 --undefined-- 36.757
1.82 --undefined-- 37.909
1.83 --undefined-- 38.395
1.84 --undefined-- 39.008
1.85 --undefined-- 39.603
1.86 --undefined-- 39.460
1.87 --undefined-- 39.058
1.88 --undefined-- 38.403
1.89 --undefined-- 37.976
1.90 --undefined-- 38.820
1.91 --undefined-- 40.246
1.92 --undefined-- 41.905
1.93 --undefined-- 41.721
1.94 --undefined-- 39.891
1.95 --undefined-- 39.804
1.96 --undefined-- 41.009
1.97 --undefined-- 41.113
1.98 --undefined-- 40.888
1.99 --undefined-- 41.371
2.00 --undefined-- 41.748
2.01 --undefined-- 41.639
2.02 --undefined-- 41.240
2.03 --undefined-- 40.007
2.04 --undefined-- 39.145
2.05 --undefined-- 40.193
2.06 --undefined-- 39.687
2.07 --undefined-- 38.742
2.08 --undefined-- 40.675
2.09 --undefined-- 42.211
2.10 --undefined-- 41.775
2.11 --undefined-- 40.619
2.12 --undefined-- 40.753
2.13 --undefined-- 40.463
2.14 --undefined-- 40.467
2.15 --undefined-- 41.058
2.16 --undefined-- 40.436
2.17 --undefined-- 40.097
2.18 --undefined-- 41.200
2.19 --undefined-- 41.944
2.20 --undefined-- 41.201
2.21 --undefined-- 41.436
2.22 --undefined-- 41.716
2.23 --undefined-- 39.680
2.24 --undefined-- 37.430
2.25 --undefined-- 37.388
2.26 --undefined-- 38.213
2.27 --undefined-- 39.376
2.28 --undefined-- 47.030
2.29 --undefined-- 57.694
2.30 196.284 64.406
2.31 198.162 68.002
2.32 198.648 69.656
2.33 198.284 70.409
2.34 198.607 70.924
2.35 198.405 71.509
2.36 197.902 72.233
2.37 196.882 72.813
2.38 195.706 72.893
2.39 195.769 72.743
2.40 194.547 72.393
2.41 197.268 71.026
2.42 196.062 68.277
2.43 183.023 64.940
2.44 178.321 61.580
2.45 --undefined-- 56.695
2.46 --undefined-- 49.274
2.47 --undefined-- 43.837
2.48 --undefined-- 44.330
2.49 --undefined-- 45.545
2.50 --undefined-- 47.660
2.51 --undefined-- 49.942
2.52 --undefined-- 50.893
2.53 --undefined-- 50.293
2.54 --undefined-- 49.963
2.55 --undefined-- 50.768
2.56 --undefined-- 51.551
2.57 --undefined-- 55.102
2.58 203.058 61.473
2.59 193.731 65.690
2.60 189.389 67.768
2.61 189.320 68.758
2.62 190.387 69.262
2.63 191.272 69.459
2.64 192.880 69.424
2.65 194.716 69.225
2.66 196.468 68.945
2.67 199.042 68.708
2.68 201.874 68.575
2.69 205.427 68.494
2.70 210.165 68.517
2.71 214.614 68.698
2.72 218.980 68.999
2.73 224.967 69.269
2.74 230.453 69.343
2.75 237.304 69.157
2.76 244.123 68.858
2.77 248.992 68.494
2.78 252.393 67.674
2.79 254.094 66.203
2.80 252.530 64.240
2.81 233.848 62.108
2.82 --undefined-- 60.055
2.83 --undefined-- 57.065
2.84 --undefined-- 51.413
2.85 --undefined-- 44.185
2.86 --undefined-- 41.441
2.87 --undefined-- 40.252
2.88 --undefined-- 39.352
2.89 --undefined-- 38.844
2.90 --undefined-- 39.253
2.91 --undefined-- 39.725
2.92 --undefined-- 39.101
2.93 --undefined-- 39.901
2.94 --undefined-- 41.558
2.95 --undefined-- 42.045
2.96 --undefined-- 41.316
2.97 --undefined-- 39.865
2.98 --undefined-- 39.507
2.99 --undefined-- 39.833
3.00 --undefined-- 39.295
3.01 --undefined-- 39.679
3.02 --undefined-- 41.274
3.03 --undefined-- 42.119
3.04 --undefined-- 41.228
3.05 --undefined-- 39.795
3.06 --undefined-- 39.894
3.07 --undefined-- 39.162
3.08 --undefined-- 38.555
3.09 --undefined-- 39.933
3.10 --undefined-- 41.480
3.11 --undefined-- 42.055
3.12 --undefined-- 41.483
3.13 --undefined-- 39.697
3.14 --undefined-- 38.254
3.15 --undefined-- 38.508
3.16 --undefined-- 38.621
3.17 --undefined-- 37.751
3.18 --undefined-- 36.395
3.19 --undefined-- 37.204
3.20 --undefined-- 43.750
3.21 --undefined-- 53.398
3.22 228.193 62.229
3.23 221.549 68.188
3.24 218.949 71.796
3.25 215.755 74.105
3.26 210.215 75.846
3.27 205.720 76.972
3.28 203.267 77.365
3.29 203.492 77.187
3.30 204.151 76.665
3.31 203.431 76.132
3.32 202.514 75.606
3.33 202.502 74.956
3.34 202.081 74.021
3.35 197.759 72.074
3.36 186.420 69.082
3.37 181.865 66.076
3.38 179.526 62.806
3.39 177.702 60.153
3.40 222.539 65.049
3.41 217.940 70.369
3.42 213.947 72.991
3.43 211.980 73.739
3.44 211.448 73.729
3.45 211.284 73.755
3.46 213.310 74.048
3.47 217.003 74.470
3.48 221.128 74.789
3.49 225.434 74.779
3.50 227.408 73.750
3.51 224.552 70.605
3.52 217.063 64.546
3.53 --undefined-- 55.641
3.54 --undefined-- 51.247
3.55 --undefined-- 60.864
3.56 --undefined-- 68.492
3.57 264.906 72.664
3.58 263.099 74.452
3.59 263.256 75.020
3.60 263.876 75.031
3.61 263.945 74.719
3.62 262.919 74.184
3.63 261.205 73.520
3.64 257.933 72.832
3.65 250.304 71.873
3.66 239.112 70.033
3.67 --undefined-- 67.183
3.68 --undefined-- 63.773
3.69 --undefined-- 59.361
3.70 --undefined-- 53.317
3.71 --undefined-- 47.519
3.72 --undefined-- 44.196
3.73 --undefined-- 44.643
3.74 --undefined-- 48.378
3.75 --undefined-- 53.051
3.76 177.134 57.483
3.77 180.393 61.284
3.78 185.917 64.042
3.79 188.775 65.999
3.80 190.168 67.400
3.81 189.143 68.125
3.82 185.212 68.337
3.83 181.530 68.274
3.84 178.565 68.071
3.85 176.605 67.902
3.86 175.154 67.792
3.87 175.192 67.715
3.88 176.192 67.674
3.89 178.343 67.721
3.90 182.562 68.018
3.91 188.242 68.572
3.92 194.668 69.190
3.93 201.795 69.588
3.94 207.834 69.701
3.95 211.612 69.545
3.96 212.229 68.932
3.97 211.487 67.740
3.98 208.608 65.912
3.99 209.074 63.028
4.00 210.295 58.351
4.01 --undefined-- 52.565
4.02 --undefined-- 49.323
4.03 --undefined-- 48.277
4.04 --undefined-- 47.447
4.05 --undefined-- 46.538
4.06 --undefined-- 45.862
4.07 --undefined-- 47.478
4.08 --undefined-- 56.536
4.09 --undefined-- 64.605
4.10 194.932 68.885
4.11 180.300 70.176
4.12 166.651 69.828
4.13 157.376 69.173
4.14 152.241 68.959
4.15 150.693 69.164
4.16 150.756 69.381
4.17 151.312 69.498
4.18 151.893 69.572
4.19 152.401 69.632
4.20 152.830 69.726
4.21 154.954 69.839
4.22 156.811 69.916
4.23 158.386 69.728
4.24 159.559 69.127
4.25 160.872 68.160
4.26 161.910 67.113
4.27 165.785 66.864
4.28 174.208 67.646
4.29 180.356 68.761
4.30 185.921 69.952
4.31 186.211 71.038
4.32 185.810 71.814
4.33 185.884 72.344
4.34 185.502 72.705
4.35 184.310 72.897
4.36 182.627 72.858
4.37 181.050 72.775
4.38 179.300 72.754
4.39 177.542 72.700
4.40 176.346 72.633
4.41 175.872 72.619
4.42 175.934 72.721
4.43 176.707 72.921
4.44 178.580 73.115
4.45 181.115 73.254
4.46 182.569 73.285
4.47 181.322 72.897
4.48 177.327 71.428
4.49 --undefined-- 68.286
4.50 --undefined-- 63.607
4.51 --undefined-- 58.230
4.52 --undefined-- 53.194
4.53 --undefined-- 49.488
4.54 --undefined-- 44.968
4.55 --undefined-- 41.860
4.56 --undefined-- 41.407
4.57 --undefined-- 41.978
4.58 --undefined-- 42.440
4.59 --undefined-- 42.074
4.60 --undefined-- 41.840
4.61 --undefined-- 41.846
4.62 --undefined-- 42.923
4.63 --undefined-- 43.315
4.64 --undefined-- 41.736
4.65 --undefined-- 40.040
4.66 --undefined-- 40.259
4.67 --undefined-- 41.302
4.68 --undefined-- 40.819
4.69 --undefined-- 40.522
4.70 --undefined-- 43.653
4.71 --undefined-- 48.068
4.72 --undefined-- 51.483
4.73 --undefined-- 53.218
4.74 --undefined-- 53.313
4.75 --undefined-- 52.634
4.76 --undefined-- 52.280
4.77 --undefined-- 52.793
4.78 --undefined-- 58.571
4.79 226.938 65.534
4.80 226.911 69.399
4.81 221.169 71.115
4.82 215.814 71.902
4.83 212.741 72.204
4.84 212.302 71.991
4.85 211.848 71.552
4.86 211.748 71.256
4.87 212.049 71.270
4.88 212.063 71.140
4.89 211.579 69.677
4.90 205.716 65.907
4.91 --undefined-- 59.342
4.92 --undefined-- 50.385
4.93 --undefined-- 42.776
4.94 --undefined-- 43.472
4.95 --undefined-- 48.384
4.96 --undefined-- 52.409
4.97 --undefined-- 54.249
4.98 --undefined-- 54.030
4.99 --undefined-- 57.982
5.00 288.851 64.756
5.01 283.578 68.725
5.02 279.901 70.467
5.03 278.653 70.790
5.04 277.527 69.815
5.05 274.506 67.297
5.06 250.746 63.287
5.07 243.699 58.935
5.08 --undefined-- 53.563
5.09 --undefined-- 46.326
5.10 --undefined-- 41.702
5.11 --undefined-- 40.745
5.12 --undefined-- 40.988
5.13 --undefined-- 41.786
5.14 --undefined-- 41.987
5.15 --undefined-- 41.654
5.16 --undefined-- 41.155
5.17 --undefined-- 40.604
5.18 --undefined-- 39.684
5.19 --undefined-- 39.639
5.20 --undefined-- 39.938
5.21 --undefined-- 39.118
5.22 --undefined-- 39.837
5.23 --undefined-- 47.172
5.24 --undefined-- 57.519
5.25 --undefined-- 64.459
5.26 262.627 67.989
5.27 259.351 69.220
5.28 257.141 69.493
5.29 256.807 69.638
5.30 256.569 69.807
5.31 256.685 70.065
5.32 256.724 70.317
5.33 256.605 70.392
5.34 256.237 70.293
5.35 255.978 70.100
5.36 255.810 69.872
5.37 255.528 69.548
5.38 254.578 68.809
5.39 251.947 66.925
5.40 242.011 63.237
5.41 236.814 57.531
5.42 --undefined-- 50.484
5.43 --undefined-- 44.021
5.44 --undefined-- 41.217
5.45 --undefined-- 41.843
5.46 --undefined-- 49.990
5.47 --undefined-- 59.265
5.48 219.990 64.815
5.49 212.666 67.140
5.50 201.943 67.350
5.51 192.650 66.816
5.52 186.382 66.520
5.53 181.680 66.558
5.54 178.352 66.696
5.55 176.319 66.852
5.56 175.311 66.994
5.57 174.836 67.144
5.58 174.885 67.216
5.59 176.157 67.054
5.60 177.074 66.703
5.61 176.217 65.865
5.62 172.534 64.105
5.63 169.881 61.507
5.64 169.162 57.691
5.65 --undefined-- 52.113
5.66 --undefined-- 44.762
5.67 --undefined-- 38.606
5.68 --undefined-- 36.900
5.69 --undefined-- 37.811
5.70 --undefined-- 38.321
5.71 --undefined-- 38.170
5.72 --undefined-- 39.636
5.73 --undefined-- 40.297
5.74 --undefined-- 39.991
5.75 --undefined-- 40.681
5.76 --undefined-- 40.080
5.77 --undefined-- 38.621
5.78 --undefined-- 38.187
5.79 --undefined-- 37.191
5.80 --undefined-- 37.671
5.81 --undefined-- 42.022
5.82 --undefined-- 53.893
5.83 --undefined-- 62.839
5.84 199.624 67.619
5.85 200.890 69.465
5.86 198.630 69.580
5.87 196.376 69.184
5.88 194.705 68.893
5.89 193.158 68.831
5.90 191.671 68.764
5.91 190.332 68.515
5.92 188.786 68.182
5.93 187.862 67.839
5.94 187.717 67.398
5.95 188.157 66.583
5.96 184.977 64.611
5.97 177.234 60.375
5.98 --undefined-- 53.234
5.99 --undefined-- 43.682
6.00 --undefined-- 40.183
6.01 --undefined-- 40.681
6.02 --undefined-- 39.474
6.03 --undefined-- 37.523
6.04 --undefined-- 38.374
6.05 --undefined-- 39.513
6.06 --undefined-- 39.898
6.07 --undefined-- 44.396
6.08 --undefined-- 53.045
6.09 --undefined-- 61.289
6.10 205.670 66.417
6.11 203.126 68.534
6.12 196.407 69.004
6.13 193.026 69.154
6.14 191.243 69.383
6.15 190.151 69.437
6.16 189.598 69.242
6.17 189.423 68.990
6.18 189.323 68.828
6.19 189.828 68.731
6.20 190.143 68.647
6.21 190.236 68.587
6.22 190.016 68.572
6.23 189.813 68.602
6.24 189.708 68.632
6.25 189.733 68.620
6.26 189.870 68.642
6.27 190.164 68.707
6.28 190.644 68.749
6.29 191.489 68.620
6.30 193.143 68.065
6.31 193.581 66.715
6.32 187.694 64.228
6.33 185.848 60.234
6.34 --undefined-- 54.088
6.35 --undefined-- 45.141
6.36 --undefined-- 39.780
6.37 --undefined-- 40.317
6.38 --undefined-- 40.604
6.39 --undefined-- 40.866
6.40 --undefined-- 42.014
6.41 --undefined-- 43.154
6.42 --undefined-- 44.347
6.43 --undefined-- 45.557
6.44 --undefined-- 46.281
6.45 --undefined-- 47.217
6.46 --undefined-- 48.354
6.47 --undefined-- 49.253
6.48 --undefined-- 52.898
6.49 --undefined-- 61.283
6.50 272.834 66.886
6.51 267.361 69.378
6.52 264.877 70.063
6.53 264.295 70.221
6.54 264.183 70.381
6.55 263.536 70.553
6.56 261.620 70.496
6.57 260.393 69.755
6.58 259.047 67.871
6.59 250.968 64.722
6.60 236.270 60.610
6.61 238.443 55.803
6.62 --undefined-- 49.492
6.63 --undefined-- 44.246
6.64 --undefined-- 45.870
6.65 --undefined-- 50.273
6.66 --undefined-- 53.257
6.67 --undefined-- 55.650
6.68 --undefined-- 61.772
6.69 272.776 67.022
6.70 267.018 69.846
6.71 264.729 71.406
6.72 262.944 72.608
6.73 260.701 73.355
6.74 257.533 --undefined--
6.75 253.683 --undefined--
6.76 --undefined-- --undefined--
6.77 --undefined-- --undefined--
