Time Pitch Intensity
0.01 --undefined-- --undefined--
0.02 --undefined-- --undefined--
0.03 --undefined-- --undefined--
0.04 --undefined-- --undefined--
0.05 --undefined-- 52.242
0.06 --undefined-- 49.413
0.07 --undefined-- 49.244
0.08 --undefined-- 47.783
0.09 --undefined-- 45.928
0.10 --undefined-- 47.394
0.11 --undefined-- 50.724
0.12 --undefined-- 53.099
0.13 --undefined-- 53.832
0.14 --undefined-- 53.057
0.15 --undefined-- 51.190
0.16 --undefined-- 48.755
0.17 --undefined-- 50.055
0.18 --undefined-- 53.045
0.19 --undefined-- 54.847
0.20 --undefined-- 60.829
0.21 --undefined-- 67.266
0.22 239.195 71.000
0.23 237.361 72.557
0.24 233.174 72.888
0.25 231.602 72.805
0.26 231.513 72.580
0.27 230.628 71.966
0.28 229.226 70.591
0.29 229.019 68.919
0.30 229.716 67.707
0.31 230.407 66.991
0.32 231.012 66.425
0.33 231.939 65.570
0.34 230.882 64.319
0.35 227.395 63.061
0.36 221.940 62.031
0.37 208.123 61.928
0.38 201.169 64.624
0.39 196.246 67.498
0.40 189.100 68.776
0.41 182.183 68.257
0.42 164.810 66.310
0.43 163.909 64.471
0.44 163.996 63.110
0.45 --undefined-- 61.012
0.46 --undefined-- 58.888
0.47 --undefined-- 57.991
0.48 218.100 57.710
0.49 203.792 57.213
0.50 194.024 56.484
0.51 186.951 56.233
0.52 184.914 56.903
0.53 184.565 58.043
0.54 181.979 58.768
0.55 173.123 59.401
0.56 168.189 60.344
0.57 172.542 61.284
0.58 179.494 63.198
0.59 179.852 65.628
0.60 180.127 67.325
0.61 180.781 68.579
0.62 181.053 69.855
0.63 181.717 70.970
0.64 183.563 71.531
0.65 185.673 71.547
0.66 188.326 71.551
0.67 189.069 71.825
0.68 187.764 72.013
0.69 185.567 71.893
0.70 180.042 71.264
0.71 173.930 70.274
0.72 171.646 68.904
0.73 --undefined-- 66.075
0.74 --undefined-- 61.234
0.75 --undefined-- 55.138
0.76 --undefined-- 50.298
0.77 --undefined-- 49.670
0.78 --undefined-- 48.962
0.79 --undefined-- 47.663
0.80 --undefined-- 48.653
0.81 --undefined-- 48.897
0.82 --undefined-- 47.415
0.83 --undefined-- 46.135
0.84 --undefined-- 49.904
0.85 --undefined-- 55.035
0.86 --undefined-- 56.782
0.87 --undefined-- 55.765
0.88 --undefined-- 53.849
0.89 --undefined-- 52.230
0.90 --undefined-- 52.170
0.91 --undefined-- 52.406
0.92 --undefined-- 51.004
0.93 --undefined-- 49.219
0.94 --undefined-- 48.417
0.95 --undefined-- 48.280
0.96 --undefined-- 48.649
0.97 --undefined-- 49.526
0.98 --undefined-- 50.639
0.99 --undefined-- 52.116
1.00 --undefined-- 53.316
1.01 --undefined-- 53.187
1.02 --undefined-- 51.792
1.03 --undefined-- 50.304
1.04 --undefined-- 49.648
1.05 --undefined-- 49.602
1.06 --undefined-- 50.740
1.07 --undefined-- 51.780
1.08 --undefined-- 51.712
1.09 --undefined-- 52.474
1.10 --undefined-- 52.985
1.11 --undefined-- 51.147
1.12 --undefined-- 50.402
1.13 --undefined-- 53.955
1.14 --undefined-- 55.551
1.15 --undefined-- 55.249
1.16 --undefined-- 55.186
1.17 --undefined-- 53.982
1.18 --undefined-- 50.437
1.19 --undefined-- 49.299
1.20 262.913 55.860
1.21 242.996 60.732
1.22 222.556 63.683
1.23 227.124 65.849
1.24 231.837 67.432
1.25 234.356 68.466
1.26 236.183 69.155
1.27 239.374 69.639
1.28 247.485 70.042
1.29 255.008 70.510
1.30 266.136 71.070
1.31 269.771 71.268
1.32 272.275 70.595
1.33 271.042 68.831
1.34 253.813 67.013
1.35 266.808 67.230
1.36 272.590 68.341
1.37 280.127 69.259
1.38 284.568 69.967
1.39 287.864 70.455
1.40 299.563 70.894
1.41 167.376 71.517
1.42 178.656 72.166
1.43 181.921 72.930
1.44 185.745 73.795
1.45 188.360 74.419
1.46 188.724 74.902
1.47 185.901 75.027
1.48 182.624 73.852
1.49 179.575 70.588
1.50 180.124 64.860
1.51 177.604 57.693
1.52 187.538 54.455
1.53 183.205 54.895
1.54 --undefined-- 60.025
1.55 --undefined-- 66.075
1.56 --undefined-- 69.405
1.57 289.344 70.598
1.58 277.898 70.576
1.59 267.598 70.084
1.60 260.976 69.317
1.61 258.964 67.865
1.62 251.806 65.961
1.63 239.993 64.737
1.64 229.569 64.132
1.65 223.273 63.582
1.66 217.685 63.309
1.67 206.880 64.044
1.68 203.709 66.092
1.69 195.817 68.205
1.70 198.714 68.717
1.71 --undefined-- 67.284
1.72 75.645 65.042
1.73 75.870 63.561
1.74 --undefined-- 62.327
1.75 --undefined-- 61.082
1.76 --undefined-- 61.558
1.77 --undefined-- 63.417
1.78 --undefined-- 65.117
1.79 195.457 66.332
1.80 222.264 67.732
1.81 227.532 69.624
1.82 233.415 70.722
1.83 240.190 70.768
1.84 249.263 70.002
1.85 258.078 68.554
1.86 269.369 67.063
1.87 282.483 66.108
1.88 289.285 65.544
1.89 288.089 64.496
1.90 280.733 61.963
1.91 281.480 58.091
1.92 288.950 55.141
1.93 --undefined-- 52.092
1.94 --undefined-- 50.486
1.95 --undefined-- 52.808
1.96 --undefined-- 53.088
1.97 --undefined-- 51.863
1.98 --undefined-- 52.320
1.99 --undefined-- 55.698
2.00 229.614 60.240
2.01 209.444 63.201
2.02 195.199 64.818
2.03 188.228 65.333
2.04 183.791 64.202
2.05 174.429 61.227
2.06 169.488 59.242
2.07 174.711 60.376
2.08 182.219 62.437
2.09 183.288 64.748
2.10 181.620 66.169
2.11 176.255 66.464
2.12 172.482 66.050
2.13 168.494 65.173
2.14 164.055 63.706
2.15 159.983 61.397
2.16 157.626 58.549
2.17 --undefined-- 56.194
2.18 --undefined-- 55.398
2.19 --undefined-- 56.789
2.20 --undefined-- 56.952
2.21 --undefined-- 57.176
2.22 162.516 59.951
2.23 163.055 62.063
2.24 159.711 62.952
2.25 160.968 62.819
2.26 163.289 61.640
2.27 167.527 59.907
2.28 179.194 58.897
2.29 196.341 58.446
2.30 202.356 58.308
2.31 195.411 59.991
2.32 186.718 62.621
2.33 172.248 64.218
2.34 164.990 64.045
2.35 163.794 62.357
2.36 174.738 61.639
2.37 174.909 63.059
2.38 170.932 64.060
2.39 176.638 63.644
2.40 174.542 61.447
2.41 164.895 57.202
2.42 --undefined-- 51.939
2.43 --undefined-- 49.212
2.44 --undefined-- 51.071
2.45 --undefined-- 55.043
2.46 --undefined-- 57.206
2.47 --undefined-- 57.049
2.48 --undefined-- 55.451
2.49 --undefined-- 56.835
2.50 253.298 61.918
2.51 249.210 65.676
2.52 250.934 67.709
2.53 251.179 68.345
2.54 251.406 68.291
2.55 253.565 68.334
2.56 257.915 68.210
2.57 264.184 67.452
2.58 271.586 66.376
2.59 275.803 65.776
2.60 277.536 65.708
2.61 275.476 65.716
2.62 272.218 65.674
2.63 266.272 65.922
2.64 257.594 66.494
2.65 247.558 66.886
2.66 --undefined-- 66.823
2.67 --undefined-- 66.561
2.68 --undefined-- 66.140
2.69 --undefined-- 65.504
2.70 150.971 64.900
2.71 149.661 64.085
2.72 151.024 63.466
2.73 158.254 63.382
2.74 157.090 62.460
2.75 154.710 59.458
2.76 --undefined-- 54.356
2.77 --undefined-- 50.093
2.78 --undefined-- 49.076
2.79 --undefined-- 51.145
2.80 --undefined-- 57.146
2.81 156.233 61.878
2.82 164.603 64.118
2.83 164.639 64.813
2.84 163.753 64.943
2.85 164.000 64.777
2.86 165.937 64.233
2.87 166.532 63.551
2.88 166.513 63.201
2.89 166.036 63.051
2.90 164.496 63.052
2.91 161.519 63.127
2.92 161.212 62.767
2.93 164.474 61.965
2.94 164.837 60.872
2.95 162.749 59.410
2.96 156.752 58.514
2.97 --undefined-- 57.756
2.98 --undefined-- 55.837
2.99 --undefined-- 53.868
3.00 --undefined-- 52.011
3.01 --undefined-- 49.679
3.02 --undefined-- 49.780
3.03 --undefined-- 52.074
3.04 --undefined-- 55.039
3.05 --undefined-- 57.837
3.06 159.403 59.356
3.07 152.526 60.149
3.08 152.064 60.915
3.09 152.587 61.788
3.10 153.369 62.574
3.11 154.380 63.278
3.12 155.224 64.033
3.13 156.741 64.522
3.14 159.152 64.471
3.15 163.827 64.045
3.16 173.822 63.520
3.17 183.447 63.451
3.18 194.887 63.624
3.19 206.918 63.238
3.20 217.586 62.405
3.21 219.207 61.440
3.22 213.221 60.495
3.23 215.934 59.986
3.24 217.243 60.080
3.25 220.306 60.464
3.26 221.906 60.214
3.27 204.394 59.398
3.28 191.109 58.985
3.29 175.692 59.528
3.30 169.643 60.114
3.31 153.267 60.293
3.32 150.329 60.633
3.33 149.725 61.205
3.34 150.603 61.570
3.35 153.684 61.492
3.36 155.521 61.213
3.37 157.543 60.855
3.38 157.315 59.997
3.39 153.591 58.704
3.40 152.254 57.910
3.41 153.231 57.599
3.42 154.066 57.614
3.43 159.148 59.089
3.44 165.158 61.666
3.45 169.810 63.951
3.46 173.477 65.475
3.47 174.777 66.518
3.48 174.423 67.364
3.49 174.884 68.161
3.50 174.841 68.628
3.51 173.397 68.443
3.52 173.080 67.794
3.53 172.585 67.026
3.54 173.211 66.510
3.55 173.426 66.552
3.56 173.373 66.873
3.57 173.187 66.826
3.58 180.362 66.076
3.59 182.211 64.938
3.60 179.590 63.843
3.61 176.306 62.497
3.62 173.083 60.694
3.63 171.412 58.809
3.64 169.233 57.263
3.65 168.019 56.361
3.66 168.261 56.266
3.67 169.691 57.287
3.68 175.274 59.440
3.69 178.452 62.086
3.70 179.537 64.584
3.71 180.066 66.618
3.72 181.115 68.251
3.73 183.912 69.695
3.74 186.541 70.942
3.75 190.895 71.846
3.76 195.608 72.298
3.77 199.826 72.208
3.78 205.622 71.880
3.79 210.415 72.295
3.80 215.700 73.435
3.81 217.644 74.360
3.82 218.559 74.698
3.83 218.205 74.213
3.84 216.738 72.489
3.85 218.578 69.387
3.86 --undefined-- 65.842
3.87 --undefined-- 62.430
3.88 --undefined-- 58.203
3.89 --undefined-- 54.465
3.90 --undefined-- 53.500
3.91 --undefined-- 52.072
3.92 --undefined-- 50.081
3.93 --undefined-- 49.535
3.94 --undefined-- 50.869
3.95 --undefined-- 52.509
3.96 --undefined-- 52.309
3.97 --undefined-- 50.146
3.98 --undefined-- 48.614
3.99 --undefined-- 49.513
4.00 --undefined-- 50.277
4.01 --undefined-- 49.727
4.02 --undefined-- 49.131
4.03 --undefined-- 48.895
4.04 --undefined-- 48.830
4.05 --undefined-- 49.558
4.06 --undefined-- 51.565
4.07 --undefined-- 52.491
4.08 --undefined-- 51.199
4.09 --undefined-- 49.468
4.10 --undefined-- 48.738
4.11 --undefined-- 50.415
4.12 --undefined-- 54.236
4.13 --undefined-- 56.245
4.14 --undefined-- 55.203
4.15 --undefined-- 50.961
4.16 --undefined-- 47.959
4.17 --undefined-- 51.749
4.18 --undefined-- 54.330
4.19 --undefined-- 54.804
4.20 --undefined-- 56.743
4.21 --undefined-- 60.237
4.22 238.387 64.435
4.23 247.173 68.675
4.24 227.024 71.946
4.25 221.876 73.703
4.26 223.560 73.966
4.27 229.585 73.332
4.28 237.530 72.825
4.29 250.059 72.585
4.30 267.651 71.907
4.31 289.075 70.925
4.32 155.073 70.600
4.33 163.358 70.890
4.34 171.687 71.331
4.35 180.543 71.946
4.36 188.592 72.686
4.37 194.506 72.799
4.38 200.481 71.878
4.39 204.339 70.523
4.40 205.729 69.611
4.41 204.322 69.579
4.42 201.392 70.027
4.43 197.832 70.561
4.44 193.002 71.444
4.45 186.860 72.560
4.46 176.759 72.894
4.47 163.973 72.014
4.48 153.054 70.476
4.49 289.571 69.142
4.50 272.399 68.277
4.51 256.493 67.496
4.52 246.406 66.593
4.53 235.646 65.650
4.54 228.584 64.876
4.55 225.980 64.652
4.56 224.554 64.709
4.57 223.594 64.515
4.58 224.563 64.211
4.59 224.788 63.827
4.60 223.813 62.709
4.61 218.200 60.011
4.62 209.514 56.797
4.63 245.663 59.113
4.64 233.511 63.740
4.65 228.852 66.832
4.66 225.180 68.469
4.67 223.496 69.033
4.68 223.337 68.965
4.69 224.475 68.866
4.70 227.279 69.029
4.71 230.653 69.114
4.72 234.261 68.821
4.73 238.013 68.457
4.74 244.724 68.294
4.75 251.254 68.173
4.76 258.526 68.489
4.77 270.124 69.735
4.78 274.171 71.432
4.79 277.302 72.752
4.80 282.100 73.465
4.81 286.375 73.529
4.82 291.378 72.654
4.83 299.723 71.118
4.84 153.452 69.925
4.85 157.613 69.441
4.86 159.900 69.105
4.87 159.358 67.815
4.88 157.614 64.786
4.89 --undefined-- 59.632
4.90 --undefined-- 53.315
4.91 --undefined-- 49.303
4.92 --undefined-- 47.549
4.93 --undefined-- --undefined--
4.94 --undefined-- --undefined--
4.95 --undefined-- --undefined--
4.96 --undefined-- --undefined--
