Time Pitch Intensity
0.01 --undefined-- --undefined--
0.02 119.404 --undefined--
0.03 124.999 --undefined--
0.04 127.056 --undefined--
0.05 129.423 68.188
0.06 128.058 68.116
0.07 127.928 67.964
0.08 128.071 67.358
0.09 125.933 65.806
0.10 118.642 62.645
0.11 103.828 58.708
0.12 86.108 57.362
0.13 76.412 57.328
0.14 --undefined-- 57.870
0.15 --undefined-- 57.406
0.16 --undefined-- 54.200
0.17 --undefined-- 49.174
0.18 --undefined-- 46.078
0.19 --undefined-- 44.235
0.20 --undefined-- 44.574
0.21 --undefined-- 51.629
0.22 --undefined-- 60.858
0.23 213.890 66.999
0.24 201.517 69.935
0.25 197.022 70.215
0.26 180.831 68.473
0.27 179.513 65.210
0.28 173.388 60.903
0.29 181.140 56.267
0.30 181.968 51.288
0.31 --undefined-- 45.231
0.32 --undefined-- 41.137
0.33 --undefined-- 43.564
0.34 --undefined-- 46.506
0.35 --undefined-- 53.014
0.36 --undefined-- 61.358
0.37 --undefined-- 66.839
0.38 164.623 69.707
0.39 156.214 70.751
0.40 149.061 70.848
0.41 140.015 70.490
0.42 135.749 70.133
0.43 133.984 69.736
0.44 132.115 69.051
0.45 130.542 68.099
0.46 128.478 67.704
0.47 133.868 68.531
0.48 134.662 69.160
0.49 134.312 69.202
0.50 133.220 69.083
0.51 132.301 68.919
0.52 131.831 68.621
0.53 125.943 68.467
0.54 123.258 68.540
0.55 118.599 68.665
0.56 115.769 68.608
0.57 115.096 68.315
0.58 113.242 68.218
0.59 112.326 68.536
0.60 112.767 68.805
0.61 112.724 68.535
0.62 115.826 68.193
0.63 118.987 68.191
0.64 121.252 68.574
0.65 122.951 68.579
0.66 123.069 67.109
0.67 117.873 63.501
0.68 --undefined-- 58.306
0.69 --undefined-- 52.060
0.70 --undefined-- 45.710
0.71 --undefined-- 45.979
0.72 --undefined-- 52.614
0.73 159.968 59.763
0.74 153.291 64.126
0.75 138.344 66.028
0.76 125.622 66.389
0.77 109.034 65.840
0.78 91.143 64.475
0.79 84.684 62.601
0.80 76.011 61.049
0.81 75.107 60.522
0.82 74.978 60.998
0.83 84.179 61.390
0.84 87.458 60.973
0.85 96.524 60.043
0.86 98.188 58.553
0.87 101.462 55.562
0.88 --undefined-- 51.181
0.89 --undefined-- 49.411
0.90 204.334 51.172
0.91 205.648 51.194
0.92 --undefined-- 48.601
0.93 --undefined-- 45.108
0.94 --undefined-- 46.511
0.95 --undefined-- 52.446
0.96 --undefined-- 56.889
0.97 92.141 59.586
0.98 92.096 61.194
0.99 92.585 62.070
1.00 93.497 62.399
1.01 93.764 62.297
1.02 93.978 61.849
1.03 94.070 60.949
1.04 93.371 59.151
1.05 --undefined-- 55.848
1.06 --undefined-- 50.703
1.07 --undefined-- 45.839
1.08 --undefined-- 45.193
1.09 --undefined-- 48.190
1.10 --undefined-- 56.315
1.11 --undefined-- 62.924
1.12 --undefined-- 66.339
1.13 --undefined-- 66.992
1.14 --undefined-- 65.220
1.15 --undefined-- 61.107
1.16 --undefined-- 54.814
1.17 --undefined-- 47.441
1.18 --undefined-- 41.881
1.19 --undefined-- 39.807
1.20 --undefined-- 38.821
1.21 --undefined-- 37.803
1.22 --undefined-- 38.712
1.23 --undefined-- 42.666
1.24 --undefined-- 49.230
1.25 --undefined-- 56.775
1.26 121.302 61.716
1.27 121.002 64.483
1.28 118.558 66.204
1.29 116.076 67.417
1.30 112.503 68.229
1.31 108.253 68.530
1.32 106.988 68.272
1.33 107.880 67.741
1.34 110.773 66.785
1.35 111.085 65.051
1.36 111.394 62.444
1.37 124.017 59.727
1.38 142.086 57.885
1.39 158.823 57.069
1.40 166.975 56.307
1.41 173.494 56.531
1.42 176.934 60.520
1.43 172.445 64.923
1.44 164.027 67.839
1.45 159.722 69.302
1.46 156.727 69.608
1.47 156.113 69.309
1.48 156.590 69.143
1.49 157.704 69.287
1.50 158.128 69.677
1.51 160.041 70.397
1.52 162.959 71.110
1.53 165.511 71.643
1.54 166.220 72.043
1.55 166.921 72.227
1.56 166.545 72.396
1.57 165.485 72.499
1.58 165.073 72.077
1.59 164.973 71.145
1.60 166.096 70.060
1.61 166.115 69.109
1.62 165.297 68.278
1.63 164.403 67.234
1.64 166.565 65.831
1.65 170.025 63.619
1.66 171.771 59.744
1.67 168.232 53.983
1.68 --undefined-- 48.801
1.69 --undefined-- 46.137
1.70 --undefined-- 43.532
1.71 --undefined-- 39.754
1.72 --undefined-- 37.148
1.73 --undefined-- 40.721
1.74 --undefined-- 48.796
1.75 --undefined-- 58.037
1.76 --undefined-- 63.687
1.77 141.815 66.444
1.78 129.847 67.505
1.79 124.015 67.941
1.80 107.191 68.066
1.81 103.802 67.715
1.82 99.027 66.881
1.83 96.566 65.864
1.84 95.645 64.992
1.85 96.343 64.672
1.86 100.010 65.017
1.87 105.129 65.597
1.88 110.552 66.319
1.89 118.252 66.905
1.90 126.027 67.260
1.91 132.818 67.722
1.92 140.701 68.387
1.93 145.460 68.902
1.94 146.179 68.931
1.95 146.763 68.635
1.96 147.258 67.825
1.97 146.182 65.481
1.98 140.374 60.795
1.99 162.368 54.208
2.00 --undefined-- 47.997
2.01 --undefined-- 42.922
2.02 --undefined-- 40.294
2.03 --undefined-- 40.005
2.04 --undefined-- 39.757
2.05 --undefined-- 38.357
2.06 --undefined-- 36.584
2.07 --undefined-- 47.223
2.08 --undefined-- 58.394
2.09 --undefined-- 65.521
2.10 --undefined-- 69.427
2.11 --undefined-- 71.109
2.12 --undefined-- 71.614
2.13 --undefined-- 71.251
2.14 --undefined-- 69.749
2.15 --undefined-- 67.361
2.16 --undefined-- 64.608
2.17 --undefined-- 61.104
2.18 --undefined-- 56.583
2.19 --undefined-- 50.026
2.20 --undefined-- 42.129
2.21 --undefined-- 39.388
2.22 --undefined-- 39.453
2.23 --undefined-- 39.133
2.24 --undefined-- 37.450
2.25 --undefined-- 34.996
2.26 --undefined-- 35.294
2.27 --undefined-- 37.897
2.28 --undefined-- 45.682
2.29 --undefined-- 54.589
2.30 --undefined-- 59.609
2.31 107.506 61.655
2.32 110.011 62.262
2.33 110.471 62.619
2.34 110.453 62.874
2.35 109.829 62.855
2.36 108.718 62.625
2.37 107.656 62.199
2.38 107.146 61.497
2.39 106.327 60.538
2.40 106.623 59.482
2.41 107.842 58.336
2.42 115.676 56.444
2.43 115.434 52.953
2.44 --undefined-- 48.018
2.45 --undefined-- 45.157
2.46 --undefined-- 46.867
2.47 --undefined-- 48.345
2.48 --undefined-- 49.986
2.49 --undefined-- 57.379
2.50 --undefined-- 63.699
2.51 --undefined-- 66.994
2.52 --undefined-- 67.664
2.53 --undefined-- 66.003
2.54 --undefined-- 62.279
2.55 --undefined-- 58.439
2.56 --undefined-- 57.397
2.57 --undefined-- 54.475
2.58 --undefined-- 48.565
2.59 --undefined-- 49.651
2.60 --undefined-- 53.542
2.61 --undefined-- 57.575
2.62 117.131 61.098
2.63 118.938 62.998
2.64 131.002 63.640
2.65 140.815 64.508
2.66 163.312 66.831
2.67 163.181 69.271
2.68 163.173 71.079
2.69 162.406 71.994
2.70 157.236 72.046
2.71 154.826 71.814
2.72 154.643 71.415
2.73 152.352 70.523
2.74 145.483 68.914
2.75 134.511 66.157
2.76 --undefined-- 61.362
2.77 --undefined-- 54.014
2.78 --undefined-- 48.841
2.79 --undefined-- 46.857
2.80 --undefined-- 42.546
2.81 --undefined-- 38.637
2.82 --undefined-- 37.662
2.83 --undefined-- 37.845
2.84 --undefined-- 37.756
2.85 --undefined-- 36.989
2.86 --undefined-- 37.315
2.87 --undefined-- 37.561
2.88 --undefined-- 36.525
2.89 --undefined-- 36.454
2.90 --undefined-- 41.315
2.91 --undefined-- 45.233
2.92 --undefined-- 45.322
2.93 --undefined-- 41.954
2.94 --undefined-- 38.072
2.95 --undefined-- 36.212
2.96 --undefined-- 34.774
2.97 --undefined-- 35.115
2.98 --undefined-- 37.140
2.99 --undefined-- 38.766
3.00 --undefined-- 40.264
3.01 --undefined-- 42.902
3.02 --undefined-- 44.737
3.03 --undefined-- 44.080
3.04 --undefined-- 42.464
3.05 --undefined-- 41.916
3.06 --undefined-- 41.221
3.07 --undefined-- 40.025
3.08 --undefined-- 39.131
3.09 --undefined-- 38.461
3.10 --undefined-- 38.117
3.11 --undefined-- 38.146
3.12 --undefined-- 37.309
3.13 --undefined-- 35.164
3.14 --undefined-- 32.833
3.15 --undefined-- 33.415
3.16 --undefined-- 35.409
3.17 --undefined-- 35.700
3.18 --undefined-- 34.736
3.19 --undefined-- 33.776
3.20 --undefined-- 32.862
3.21 --undefined-- 36.554
3.22 --undefined-- 48.432
3.23 --undefined-- 57.006
3.24 --undefined-- 62.131
3.25 --undefined-- 65.131
3.26 166.646 67.183
3.27 177.444 68.988
3.28 188.371 69.780
3.29 203.545 69.620
3.30 219.948 69.819
3.31 222.553 70.194
3.32 225.453 70.264
3.33 230.692 70.072
3.34 232.856 69.559
3.35 235.073 68.602
3.36 236.909 67.105
3.37 230.293 65.046
3.38 221.286 62.101
3.39 218.659 57.769
3.40 --undefined-- 52.290
3.41 --undefined-- 48.505
3.42 --undefined-- 47.421
3.43 --undefined-- 46.658
3.44 --undefined-- 46.647
3.45 --undefined-- 47.704
3.46 --undefined-- 48.157
3.47 --undefined-- 47.488
3.48 --undefined-- 45.524
3.49 --undefined-- 47.160
3.50 --undefined-- 56.690
3.51 176.247 63.256
3.52 170.048 66.576
3.53 148.719 67.641
3.54 134.520 67.368
3.55 125.668 66.670
3.56 118.926 66.342
3.57 114.337 66.395
3.58 111.127 66.533
3.59 108.521 66.646
3.60 107.435 66.650
3.61 106.744 66.393
3.62 105.354 65.938
3.63 105.904 65.634
3.64 106.797 65.453
3.65 107.521 65.294
3.66 109.166 65.203
3.67 110.828 65.234
3.68 111.664 65.322
3.69 111.438 65.286
3.70 111.496 65.155
3.71 111.198 65.057
3.72 110.761 65.026
3.73 110.117 64.893
3.74 108.968 64.249
3.75 106.201 62.722
3.76 104.876 60.364
3.77 104.160 57.413
3.78 114.250 54.095
3.79 151.730 54.192
3.80 152.543 59.137
3.81 150.790 63.705
3.82 145.044 66.880
3.83 142.941 68.874
3.84 138.068 69.788
3.85 140.354 69.926
3.86 142.949 69.909
3.87 143.380 69.956
3.88 142.809 69.906
3.89 143.319 69.865
3.90 142.206 69.777
3.91 140.192 68.774
3.92 140.634 66.421
3.93 149.849 63.569
3.94 153.974 61.463
3.95 153.237 60.060
3.96 152.462 59.497
3.97 152.640 60.879
3.98 151.604 63.900
3.99 141.794 66.627
4.00 134.601 68.246
4.01 123.668 68.583
4.02 118.360 67.991
4.03 109.192 67.105
4.04 108.279 66.338
4.05 101.517 65.401
4.06 101.471 64.047
4.07 98.750 63.231
4.08 98.135 63.182
4.09 95.263 63.191
4.10 95.049 62.853
4.11 93.705 62.257
4.12 93.612 61.780
4.13 94.744 61.525
4.14 92.140 61.476
4.15 92.857 62.110
4.16 97.602 63.216
4.17 100.509 64.090
4.18 103.439 64.735
4.19 105.553 64.948
4.20 105.186 64.290
4.21 104.238 62.511
4.22 --undefined-- 59.237
4.23 --undefined-- 54.050
4.24 --undefined-- 50.753
4.25 --undefined-- 52.329
4.26 --undefined-- 52.903
4.27 --undefined-- 51.807
4.28 --undefined-- 49.908
4.29 --undefined-- 55.042
4.30 192.655 62.967
4.31 189.256 67.765
4.32 182.543 69.864
4.33 181.899 70.410
4.34 178.900 70.125
4.35 176.263 69.228
4.36 175.016 67.977
4.37 173.505 66.821
4.38 172.541 66.317
4.39 177.575 66.825
4.40 181.139 67.675
4.41 181.067 68.099
4.42 182.166 68.264
4.43 183.560 68.526
4.44 184.945 68.945
4.45 184.730 69.348
4.46 183.471 69.595
4.47 182.198 69.692
4.48 181.453 69.600
4.49 180.606 69.309
4.50 180.005 69.002
4.51 178.762 68.952
4.52 177.763 69.105
4.53 177.667 69.351
4.54 178.257 69.706
4.55 178.748 70.048
4.56 179.524 70.254
4.57 178.915 70.147
4.58 180.905 69.397
4.59 184.688 67.663
4.60 182.989 64.769
4.61 174.020 60.666
4.62 149.352 54.839
4.63 --undefined-- 47.434
4.64 --undefined-- 40.848
4.65 --undefined-- 38.193
4.66 --undefined-- 36.819
4.67 --undefined-- 37.208
4.68 --undefined-- 38.383
4.69 --undefined-- 39.005
4.70 --undefined-- 38.541
4.71 --undefined-- 36.603
4.72 --undefined-- 35.504
4.73 --undefined-- 37.017
4.74 --undefined-- 38.750
4.75 --undefined-- 39.180
4.76 --undefined-- 38.410
4.77 --undefined-- 37.612
4.78 --undefined-- 37.769
4.79 --undefined-- 38.709
4.80 --undefined-- 39.707
4.81 --undefined-- 39.993
4.82 --undefined-- 39.064
4.83 --undefined-- 38.492
4.84 --undefined-- 40.968
4.85 --undefined-- 43.870
4.86 --undefined-- 45.259
4.87 --undefined-- 45.088
4.88 --undefined-- 42.905
4.89 --undefined-- 38.540
4.90 --undefined-- 35.527
4.91 --undefined-- 35.455
4.92 --undefined-- 35.284
4.93 --undefined-- 34.179
4.94 --undefined-- 32.394
4.95 --undefined-- 30.495
4.96 --undefined-- 31.995
4.97 --undefined-- 36.808
4.98 --undefined-- 50.015
4.99 --undefined-- 60.409
5.00 141.365 66.514
5.01 138.379 69.906
5.02 138.998 71.921
5.03 130.938 72.859
5.04 130.617 72.850
5.05 130.177 72.604
5.06 131.177 72.581
5.07 131.488 72.411
5.08 130.937 71.439
5.09 128.689 69.338
5.10 120.264 66.057
5.11 121.583 62.465
5.12 128.717 59.122
5.13 145.351 55.850
5.14 157.023 52.200
5.15 --undefined-- 47.222
5.16 --undefined-- 40.714
5.17 --undefined-- 39.869
5.18 --undefined-- 44.554
5.19 --undefined-- 49.345
5.20 --undefined-- 55.113
5.21 --undefined-- 59.734
5.22 145.923 62.872
5.23 143.241 65.124
5.24 140.224 66.692
5.25 136.727 67.582
5.26 133.723 67.992
5.27 130.922 68.225
5.28 129.450 68.381
5.29 128.226 68.286
5.30 127.278 67.949
5.31 127.796 67.590
5.32 127.459 67.837
5.33 129.901 68.745
5.34 131.770 69.448
5.35 131.842 69.742
5.36 131.558 69.700
5.37 132.185 69.076
5.38 131.411 67.574
5.39 129.172 64.854
5.40 129.493 61.001
5.41 131.340 56.588
5.42 --undefined-- 52.704
5.43 --undefined-- 50.466
5.44 --undefined-- 51.140
5.45 --undefined-- 55.529
5.46 --undefined-- 61.508
5.47 150.795 65.602
5.48 139.606 67.470
5.49 131.981 67.968
5.50 127.013 68.320
5.51 121.123 68.893
5.52 119.382 69.523
5.53 118.878 70.107
5.54 119.808 70.687
5.55 121.910 71.206
5.56 123.880 71.489
5.57 125.008 71.456
5.58 126.937 71.274
5.59 129.034 71.145
5.60 130.098 71.079
5.61 130.593 71.165
5.62 130.475 71.363
5.63 130.050 71.391
5.64 129.946 71.253
5.65 129.754 71.147
5.66 128.193 70.945
5.67 126.887 70.390
5.68 124.244 69.315
5.69 121.199 68.009
5.70 114.137 66.738
5.71 111.713 65.336
5.72 109.677 63.192
5.73 114.176 59.843
5.74 104.633 55.533
5.75 105.788 50.912
5.76 --undefined-- 46.812
5.77 --undefined-- 43.417
5.78 --undefined-- 39.670
5.79 --undefined-- 35.640
5.80 --undefined-- 33.861
5.81 --undefined-- 36.358
5.82 --undefined-- 38.513
5.83 --undefined-- 38.646
5.84 --undefined-- 36.702
5.85 --undefined-- 33.295
5.86 --undefined-- 32.858
5.87 --undefined-- 35.666
5.88 --undefined-- 37.329
5.89 --undefined-- 37.383
5.90 --undefined-- 35.855
5.91 --undefined-- 33.654
5.92 --undefined-- 33.327
5.93 --undefined-- 34.467
5.94 --undefined-- 35.763
5.95 --undefined-- 42.900
5.96 --undefined-- 53.033
5.97 --undefined-- 59.713
5.98 114.808 63.329
5.99 123.053 65.283
6.00 126.154 66.515
6.01 129.268 67.225
6.02 130.931 67.593
6.03 141.477 68.547
6.04 149.666 69.836
6.05 153.983 70.653
6.06 157.381 71.032
6.07 160.688 71.322
6.08 163.734 71.688
6.09 166.568 71.954
6.10 166.247 72.066
6.11 165.408 71.808
6.12 165.428 70.822
6.13 158.021 69.702
6.14 151.906 69.257
6.15 144.284 68.828
6.16 139.712 67.988
6.17 133.928 --undefined--
6.18 129.070 --undefined--
6.19 --undefined-- --undefined--
6.20 --undefined-- --undefined--
