Time Pitch Intensity
0.01 --undefined-- --undefined--
0.02 185.381 --undefined--
0.03 185.880 --undefined--
0.04 --undefined-- --undefined--
0.05 --undefined-- 56.684
0.06 --undefined-- 54.963
0.07 --undefined-- 59.957
0.08 --undefined-- 65.141
0.09 173.323 67.577
0.10 176.709 68.613
0.11 179.145 69.365
0.12 186.429 69.820
0.13 188.051 69.483
0.14 187.718 67.877
0.15 186.910 64.868
0.16 187.450 62.291
0.17 187.402 63.247
0.18 --undefined-- 63.650
0.19 --undefined-- 61.249
0.20 --undefined-- 56.418
0.21 --undefined-- 53.855
0.22 --undefined-- 55.857
0.23 --undefined-- 59.343
0.24 --undefined-- 61.177
0.25 --undefined-- 62.511
0.26 --undefined-- 64.123
0.27 --undefined-- 64.745
0.28 201.852 65.977
0.29 199.454 67.823
0.30 194.933 68.974
0.31 191.943 69.669
0.32 188.534 70.190
0.33 188.156 70.384
0.34 190.008 70.239
0.35 188.889 70.165
0.36 187.766 70.465
0.37 186.666 70.908
0.38 185.871 71.295
0.39 185.476 71.685
0.40 186.131 72.085
0.41 187.283 72.290
0.42 188.509 72.009
0.43 188.225 70.816
0.44 186.351 68.120
0.45 186.999 63.610
0.46 184.079 58.805
0.47 --undefined-- 57.175
0.48 --undefined-- 56.794
0.49 --undefined-- 56.512
0.50 --undefined-- 58.988
0.51 --undefined-- 62.134
0.52 248.513 65.406
0.53 243.060 69.061
0.54 243.031 71.706
0.55 243.400 73.324
0.56 243.671 73.872
0.57 245.242 73.041
0.58 253.847 71.267
0.59 260.130 69.503
0.60 264.795 68.147
0.61 262.937 66.977
0.62 261.737 65.994
0.63 259.159 66.224
0.64 255.697 66.843
0.65 249.499 66.900
0.66 244.343 66.576
0.67 237.589 66.244
0.68 229.684 66.171
0.69 217.802 66.734
0.70 207.631 67.507
0.71 --undefined-- 67.517
0.72 --undefined-- 66.281
0.73 --undefined-- 64.120
0.74 --undefined-- 62.037
0.75 --undefined-- 61.029
0.76 --undefined-- 60.985
0.77 --undefined-- 61.337
0.78 --undefined-- 60.903
0.79 --undefined-- 59.302
0.80 --undefined-- 57.925
0.81 --undefined-- 56.960
0.82 --undefined-- 56.616
0.83 --undefined-- 56.262
0.84 --undefined-- 56.132
0.85 --undefined-- 55.777
0.86 --undefined-- 54.182
0.87 --undefined-- 53.945
0.88 --undefined-- 53.250
0.89 --undefined-- 51.123
0.90 --undefined-- 53.994
0.91 --undefined-- 58.132
0.92 --undefined-- 59.943
0.93 --undefined-- 59.617
0.94 --undefined-- 58.023
0.95 --undefined-- 58.806
0.96 --undefined-- 61.767
0.97 --undefined-- 64.173
0.98 224.073 65.958
0.99 212.958 67.057
1.00 204.722 68.030
1.01 201.992 69.191
1.02 199.132 70.012
1.03 198.215 70.076
1.04 197.114 69.203
1.05 191.468 67.480
1.06 189.148 65.068
1.07 188.916 63.011
1.08 192.148 63.921
1.09 --undefined-- 65.011
1.10 --undefined-- 64.110
1.11 --undefined-- 60.961
1.12 --undefined-- 57.470
1.13 --undefined-- 58.960
1.14 --undefined-- 60.643
1.15 259.762 62.328
1.16 253.553 64.267
1.17 258.170 65.522
1.18 261.714 66.485
1.19 262.945 67.477
1.20 267.999 68.359
1.21 268.840 68.915
1.22 267.747 69.060
1.23 264.140 68.647
1.24 258.130 67.770
1.25 252.635 67.204
1.26 245.515 67.525
1.27 234.387 68.518
1.28 224.603 69.831
1.29 212.705 71.678
1.30 202.893 74.150
1.31 191.942 76.339
1.32 184.776 77.383
1.33 179.423 77.207
1.34 176.067 76.666
1.35 174.559 76.656
1.36 173.396 77.025
1.37 174.700 77.092
1.38 176.141 76.650
1.39 178.741 76.070
1.40 182.569 75.605
1.41 183.066 74.978
1.42 183.803 73.453
1.43 184.342 71.128
1.44 179.414 69.328
1.45 179.256 67.955
1.46 179.048 66.008
1.47 178.537 63.410
1.48 181.827 60.144
1.49 183.823 56.229
1.50 --undefined-- 54.037
1.51 --undefined-- 53.018
1.52 --undefined-- 51.374
1.53 --undefined-- 52.322
1.54 --undefined-- 55.539
1.55 --undefined-- 57.177
1.56 --undefined-- 57.164
1.57 --undefined-- 56.268
1.58 --undefined-- 56.449
1.59 --undefined-- 57.948
1.60 --undefined-- 59.122
1.61 --undefined-- 59.282
1.62 276.142 58.480
1.63 --undefined-- 58.672
1.64 --undefined-- 59.381
1.65 --undefined-- 58.082
1.66 --undefined-- 54.595
1.67 --undefined-- 52.463
1.68 --undefined-- 52.151
1.69 --undefined-- 52.384
1.70 --undefined-- 52.177
1.71 --undefined-- 53.550
1.72 --undefined-- 56.664
1.73 --undefined-- 57.510
1.74 --undefined-- 56.444
1.75 --undefined-- 58.366
1.76 --undefined-- 62.017
1.77 175.000 66.233
1.78 174.265 69.981
1.79 173.441 72.203
1.80 171.748 73.415
1.81 172.929 74.280
1.82 174.708 74.956
1.83 173.815 75.172
1.84 170.310 74.696
1.85 168.821 73.878
1.86 170.939 73.548
1.87 162.491 73.769
1.88 296.538 74.282
1.89 270.926 74.879
1.90 252.531 75.428
1.91 237.088 75.201
1.92 220.587 73.823
1.93 209.280 71.816
1.94 206.607 70.229
1.95 205.369 69.073
1.96 200.854 67.813
1.97 189.976 65.687
1.98 190.822 62.341
1.99 204.987 59.526
2.00 --undefined-- 59.253
2.01 --undefined-- 59.011
2.02 --undefined-- 56.951
2.03 --undefined-- 52.824
2.04 --undefined-- 50.743
2.05 --undefined-- 54.743
2.06 --undefined-- 57.723
2.07 274.708 59.587
2.08 275.815 63.706
2.09 258.434 67.852
2.10 249.178 70.098
2.11 245.761 70.588
2.12 239.886 69.832
2.13 234.699 69.116
2.14 231.566 69.406
2.15 231.159 69.764
2.16 232.129 69.202
2.17 233.866 68.186
2.18 236.058 67.672
2.19 237.757 67.497
2.20 239.140 67.351
2.21 240.653 67.220
2.22 241.402 67.099
2.23 243.183 67.043
2.24 242.897 67.144
2.25 240.608 67.327
2.26 236.459 67.283
2.27 229.841 66.910
2.28 220.330 65.730
2.29 205.224 64.768
2.30 204.984 66.943
2.31 205.941 69.266
2.32 195.769 70.378
2.33 184.147 71.098
2.34 172.174 71.531
2.35 167.516 71.918
2.36 166.715 71.939
2.37 166.716 71.187
2.38 166.112 70.341
2.39 165.534 69.541
2.40 166.259 68.077
2.41 168.666 66.287
2.42 176.951 65.630
2.43 177.984 66.256
2.44 181.092 67.375
2.45 185.166 67.877
2.46 186.662 66.864
2.47 187.999 64.083
2.48 191.461 61.261
2.49 --undefined-- 60.505
2.50 --undefined-- 59.959
2.51 --undefined-- 60.950
2.52 263.736 64.571
2.53 255.382 67.283
2.54 257.006 68.743
2.55 263.128 69.264
2.56 270.898 68.929
2.57 279.119 68.275
2.58 282.814 68.495
2.59 287.497 69.419
2.60 291.222 70.428
2.61 289.258 71.367
2.62 281.176 71.696
2.63 275.368 71.853
2.64 272.839 71.778
2.65 267.882 70.859
2.66 259.693 69.732
2.67 251.554 69.329
2.68 242.989 69.457
2.69 232.673 70.000
2.70 229.478 70.358
2.71 230.806 69.543
2.72 238.459 67.541
2.73 236.442 64.842
2.74 221.818 61.702
2.75 223.680 58.569
2.76 --undefined-- 56.106
2.77 --undefined-- 58.242
2.78 --undefined-- 61.298
2.79 --undefined-- 61.554
2.80 --undefined-- 58.982
2.81 --undefined-- 53.830
2.82 --undefined-- 51.153
2.83 --undefined-- 56.551
2.84 --undefined-- 61.060
2.85 --undefined-- 63.066
2.86 --undefined-- 65.155
2.87 170.975 69.228
2.88 168.893 71.719
2.89 170.324 72.372
2.90 172.815 72.300
2.91 174.444 72.261
2.92 175.039 72.286
2.93 174.584 71.841
2.94 174.562 71.015
2.95 173.583 70.585
2.96 174.083 70.775
2.97 175.022 71.254
2.98 176.554 71.897
2.99 176.289 72.103
3.00 173.835 70.979
3.01 168.407 68.011
3.02 155.632 63.561
3.03 163.314 61.160
3.04 176.495 63.352
3.05 172.607 64.863
3.06 177.063 64.146
3.07 --undefined-- 63.123
3.08 --undefined-- 65.415
3.09 --undefined-- 68.918
3.10 --undefined-- 71.357
3.11 --undefined-- 72.996
3.12 --undefined-- 74.230
3.13 --undefined-- 74.357
3.14 --undefined-- 73.405
3.15 --undefined-- 72.143
3.16 --undefined-- 70.734
3.17 --undefined-- 69.902
3.18 255.736 70.197
3.19 252.175 70.254
3.20 --undefined-- 68.979
3.21 --undefined-- 67.232
3.22 --undefined-- 66.605
3.23 --undefined-- 66.834
3.24 --undefined-- 67.710
3.25 --undefined-- 69.526
3.26 242.978 72.336
3.27 246.381 74.180
3.28 250.197 74.579
3.29 253.546 74.592
3.30 253.845 74.683
3.31 250.746 74.571
3.32 242.634 74.490
3.33 231.460 74.772
3.34 223.741 74.547
3.35 --undefined-- 73.148
3.36 --undefined-- 70.610
3.37 --undefined-- 66.761
3.38 --undefined-- 61.977
3.39 --undefined-- 58.115
3.40 --undefined-- 58.875
3.41 --undefined-- 60.309
3.42 --undefined-- 59.302
3.43 --undefined-- 56.056
3.44 --undefined-- 52.929
3.45 --undefined-- 53.625
3.46 --undefined-- 57.676
3.47 --undefined-- 61.761
3.48 --undefined-- 63.705
3.49 --undefined-- 63.255
3.50 --undefined-- 60.440
3.51 --undefined-- 56.936
3.52 --undefined-- 58.968
3.53 --undefined-- 62.179
3.54 --undefined-- 63.276
3.55 --undefined-- 62.202
3.56 --undefined-- 59.187
3.57 --undefined-- 55.063
3.58 --undefined-- 53.219
3.59 --undefined-- 54.589
3.60 --undefined-- 56.489
3.61 --undefined-- 58.224
3.62 --undefined-- 58.745
3.63 --undefined-- 58.141
3.64 --undefined-- 56.735
3.65 --undefined-- 55.671
3.66 --undefined-- 59.084
3.67 --undefined-- 63.034
3.68 --undefined-- 64.530
3.69 --undefined-- 63.211
3.70 --undefined-- 59.537
3.71 --undefined-- 58.052
3.72 --undefined-- 62.123
3.73 --undefined-- 64.703
3.74 --undefined-- 64.198
3.75 --undefined-- 60.894
3.76 --undefined-- 56.753
3.77 --undefined-- 57.975
3.78 --undefined-- 60.953
3.79 --undefined-- 61.354
3.80 --undefined-- 60.498
3.81 --undefined-- 64.590
3.82 158.723 69.915
3.83 158.153 73.307
3.84 157.950 74.838
3.85 157.405 75.179
3.86 157.654 75.055
3.87 158.637 74.449
3.88 160.593 73.402
3.89 161.454 72.324
3.90 161.448 71.624
3.91 161.419 71.761
3.92 162.810 72.301
3.93 163.576 72.712
3.94 163.446 72.958
3.95 163.109 73.080
3.96 162.379 73.054
3.97 161.816 72.890
3.98 161.877 72.662
3.99 161.710 72.416
4.00 161.585 72.242
4.01 161.569 72.140
4.02 161.274 72.030
4.03 160.929 71.877
4.04 160.837 71.677
4.05 160.668 71.599
4.06 160.978 71.828
4.07 161.744 72.261
4.08 163.653 72.710
4.09 163.582 73.012
4.10 162.169 72.999
4.11 161.047 72.302
4.12 161.727 70.246
4.13 --undefined-- 66.584
4.14 --undefined-- 62.172
4.15 --undefined-- 58.099
4.16 --undefined-- 54.415
4.17 --undefined-- 53.529
4.18 --undefined-- 54.231
4.19 --undefined-- 54.879
4.20 --undefined-- 53.921
4.21 --undefined-- 52.267
4.22 --undefined-- 55.897
4.23 --undefined-- 59.055
4.24 --undefined-- 59.358
4.25 --undefined-- 60.652
4.26 --undefined-- 67.367
4.27 --undefined-- 71.718
4.28 --undefined-- 72.619
4.29 152.306 70.708
4.30 151.820 66.922
4.31 --undefined-- 62.071
4.32 --undefined-- 58.651
4.33 --undefined-- 58.209
4.34 --undefined-- 56.792
4.35 --undefined-- 55.791
4.36 --undefined-- 59.374
4.37 --undefined-- 62.127
4.38 --undefined-- 62.043
4.39 --undefined-- 61.120
4.40 --undefined-- 61.853
4.41 --undefined-- 61.634
4.42 --undefined-- 60.519
4.43 --undefined-- 59.553
4.44 --undefined-- 58.153
4.45 --undefined-- 57.700
4.46 --undefined-- 60.134
4.47 --undefined-- 62.241
4.48 --undefined-- 63.929
4.49 --undefined-- 65.961
4.50 257.890 68.112
4.51 258.654 69.572
4.52 261.966 70.205
4.53 268.138 71.139
4.54 272.062 73.028
4.55 272.807 74.631
4.56 272.860 75.195
4.57 272.667 74.914
4.58 271.482 74.070
4.59 268.250 72.952
4.60 264.002 72.137
4.61 258.739 72.133
4.62 252.973 72.757
4.63 246.651 73.064
4.64 231.779 73.211
4.65 222.869 73.701
4.66 212.373 74.120
4.67 204.662 74.291
4.68 197.270 74.110
4.69 190.234 74.248
4.70 186.202 74.412
4.71 180.930 73.942
4.72 176.985 73.456
4.73 174.371 72.843
4.74 174.550 71.397
4.75 179.275 69.609
4.76 180.021 67.939
4.77 177.009 65.356
4.78 --undefined-- 60.981
4.79 --undefined-- 56.726
4.80 --undefined-- 57.421
4.81 --undefined-- 57.980
4.82 --undefined-- 57.193
4.83 --undefined-- 56.878
4.84 --undefined-- 56.304
4.85 --undefined-- 56.105
4.86 --undefined-- 56.875
4.87 --undefined-- 57.383
4.88 --undefined-- 58.102
4.89 --undefined-- 58.994
4.90 218.305 59.674
4.91 217.350 61.822
4.92 202.426 --undefined--
4.93 192.405 --undefined--
4.94 --undefined-- --undefined--
4.95 --undefined-- --undefined--
