Time Pitch Intensity
0.01 --undefined-- --undefined--
0.02 --undefined-- --undefined--
0.03 --undefined-- --undefined--
0.04 --undefined-- --undefined--
0.05 --undefined-- 50.929
0.06 --undefined-- 52.084
0.07 --undefined-- 53.607
0.08 --undefined-- 54.631
0.09 --undefined-- 54.665
0.10 --undefined-- 54.675
0.11 --undefined-- 55.626
0.12 --undefined-- 56.605
0.13 --undefined-- 57.232
0.14 --undefined-- 57.325
0.15 --undefined-- 56.862
0.16 --undefined-- 56.920
0.17 --undefined-- 58.286
0.18 --undefined-- 58.839
0.19 --undefined-- 58.013
0.20 --undefined-- 56.325
0.21 --undefined-- 54.620
0.22 --undefined-- 53.256
0.23 --undefined-- 51.333
0.24 --undefined-- 50.998
0.25 --undefined-- 51.772
0.26 --undefined-- 49.685
0.27 --undefined-- 44.147
0.28 --undefined-- 39.363
0.29 --undefined-- 39.071
0.30 --undefined-- 40.121
0.31 --undefined-- 43.060
0.32 --undefined-- 51.791
0.33 --undefined-- 61.153
0.34 --undefined-- 67.481
0.35 --undefined-- 71.020
0.36 178.712 71.797
0.37 176.825 70.470
0.38 170.796 68.650
0.39 168.013 67.425
0.40 167.671 66.997
0.41 168.479 67.446
0.42 168.062 67.388
0.43 169.314 67.045
0.44 174.146 67.361
0.45 194.462 67.766
0.46 197.965 67.552
0.47 196.774 66.153
0.48 194.194 64.713
0.49 197.689 65.295
0.50 210.979 67.903
0.51 221.253 70.635
0.52 232.335 72.365
0.53 244.611 73.302
0.54 251.995 73.100
0.55 253.962 71.183
0.56 248.240 67.777
0.57 244.999 64.820
0.58 244.513 64.663
0.59 240.813 65.673
0.60 237.171 66.212
0.61 233.109 66.960
0.62 231.662 68.637
0.63 231.999 70.428
0.64 224.265 71.615
0.65 196.919 72.341
0.66 185.460 72.698
0.67 183.581 72.638
0.68 182.920 72.225
0.69 182.277 70.633
0.70 181.819 66.706
0.71 183.205 60.586
0.72 186.790 58.480
0.73 191.825 62.241
0.74 203.659 68.762
0.75 209.072 73.177
0.76 206.167 74.353
0.77 195.824 73.357
0.78 187.600 72.402
0.79 182.911 71.627
0.80 179.245 69.598
0.81 175.297 65.735
0.82 178.014 59.922
0.83 188.122 53.525
0.84 184.139 50.134
0.85 184.072 48.411
0.86 --undefined-- 47.151
0.87 --undefined-- 51.499
0.88 --undefined-- 59.030
0.89 --undefined-- 64.846
0.90 261.066 69.922
0.91 255.522 73.464
0.92 252.488 74.815
0.93 249.250 74.689
0.94 246.155 74.232
0.95 244.480 74.009
0.96 242.959 73.891
0.97 241.846 73.576
0.98 242.688 72.827
0.99 244.777 71.111
1.00 243.131 67.897
1.01 236.418 64.268
1.02 237.925 62.075
1.03 234.768 59.989
1.04 229.046 56.890
1.05 230.338 53.182
1.06 238.577 50.350
1.07 --undefined-- 47.953
1.08 --undefined-- 47.234
1.09 --undefined-- 52.997
1.10 --undefined-- 57.959
1.11 --undefined-- 61.761
1.12 256.604 65.072
1.13 250.119 66.762
1.14 245.750 67.088
1.15 242.864 67.126
1.16 241.395 67.169
1.17 239.157 66.868
1.18 236.920 66.252
1.19 234.198 65.574
1.20 231.820 64.799
1.21 227.921 63.394
1.22 222.892 61.785
1.23 224.610 62.683
1.24 224.219 64.681
1.25 223.112 65.749
1.26 221.860 65.879
1.27 219.595 65.063
1.28 216.983 63.231
1.29 223.443 60.564
1.30 223.877 57.161
1.31 225.769 53.370
1.32 224.448 49.803
1.33 --undefined-- 46.672
1.34 --undefined-- 46.340
1.35 --undefined-- 52.632
1.36 --undefined-- 59.282
1.37 --undefined-- 61.913
1.38 --undefined-- 60.949
1.39 --undefined-- 61.344
1.40 223.319 66.094
1.41 222.428 70.045
1.42 217.408 72.342
1.43 205.528 72.863
1.44 188.541 72.170
1.45 177.993 70.879
1.46 169.336 68.537
1.47 159.698 64.509
1.48 --undefined-- 58.987
1.49 --undefined-- 55.171
1.50 --undefined-- 59.328
1.51 159.597 64.178
1.52 155.352 67.212
1.53 157.093 68.737
1.54 161.367 68.744
1.55 171.333 67.775
1.56 211.579 66.852
1.57 210.335 66.164
1.58 208.420 65.659
1.59 209.023 65.792
1.60 210.017 66.257
1.61 209.278 66.731
1.62 206.239 67.856
1.63 202.264 69.565
1.64 199.683 70.646
1.65 197.609 70.711
1.66 194.149 70.105
1.67 190.018 68.908
1.68 184.644 66.821
1.69 177.599 63.981
1.70 173.861 62.549
1.71 175.306 64.998
1.72 173.625 68.250
1.73 170.665 70.113
1.74 168.348 69.758
1.75 167.577 66.484
1.76 --undefined-- 59.717
1.77 --undefined-- 50.098
1.78 --undefined-- 47.196
1.79 --undefined-- 55.247
1.80 --undefined-- 63.126
1.81 --undefined-- 67.372
1.82 --undefined-- 68.285
1.83 --undefined-- 65.902
1.84 --undefined-- 60.525
1.85 --undefined-- 55.788
1.86 --undefined-- 56.832
1.87 --undefined-- 61.189
1.88 141.749 65.864
1.89 143.058 68.585
1.90 141.744 69.767
1.91 138.699 70.418
1.92 138.001 70.505
1.93 137.917 69.512
1.94 138.665 68.007
1.95 138.335 67.098
1.96 139.341 66.555
1.97 137.459 65.590
1.98 135.548 63.146
1.99 135.976 58.473
2.00 136.325 51.815
2.01 --undefined-- 46.599
2.02 --undefined-- 45.379
2.03 --undefined-- 45.329
2.04 --undefined-- 46.090
2.05 --undefined-- 46.629
2.06 --undefined-- 48.354
2.07 --undefined-- 49.649
2.08 --undefined-- 48.375
2.09 --undefined-- 45.651
2.10 --undefined-- 44.215
2.11 --undefined-- 46.271
2.12 --undefined-- 50.613
2.13 --undefined-- 56.425
2.14 --undefined-- 63.206
2.15 --undefined-- 67.657
2.16 --undefined-- 69.542
2.17 134.841 69.559
2.18 135.598 68.943
2.19 140.935 68.859
2.20 150.996 69.206
2.21 159.556 69.281
2.22 165.222 68.495
2.23 --undefined-- 66.718
2.24 --undefined-- 64.362
2.25 --undefined-- 62.237
2.26 --undefined-- 61.099
2.27 --undefined-- 60.360
2.28 --undefined-- 58.653
2.29 --undefined-- 56.150
2.30 --undefined-- 54.986
2.31 --undefined-- 53.999
2.32 --undefined-- 52.543
2.33 --undefined-- 54.151
2.34 --undefined-- 60.435
2.35 --undefined-- 64.752
2.36 --undefined-- 66.129
2.37 --undefined-- 65.021
2.38 --undefined-- 62.067
2.39 --undefined-- 58.600
2.40 --undefined-- 56.872
2.41 --undefined-- 58.221
2.42 --undefined-- 60.115
2.43 --undefined-- 61.056
2.44 --undefined-- 60.598
2.45 --undefined-- 57.771
2.46 --undefined-- 52.062
2.47 --undefined-- 45.454
2.48 --undefined-- 42.574
2.49 --undefined-- 42.676
2.50 --undefined-- 44.039
2.51 --undefined-- 47.936
2.52 --undefined-- 54.650
2.53 --undefined-- 62.694
2.54 181.008 67.859
2.55 175.298 70.247
2.56 171.933 70.851
2.57 164.890 70.432
2.58 162.414 69.634
2.59 163.345 68.932
2.60 --undefined-- 67.970
2.61 101.968 66.615
2.62 100.928 65.358
2.63 --undefined-- 64.969
2.64 --undefined-- 63.488
2.65 --undefined-- 58.660
2.66 --undefined-- 59.019
2.67 --undefined-- 65.456
2.68 --undefined-- 67.964
2.69 --undefined-- 67.773
2.70 --undefined-- 67.262
2.71 166.812 67.217
2.72 167.550 66.456
2.73 163.003 65.787
2.74 161.048 65.891
2.75 159.828 65.632
2.76 160.000 65.241
2.77 160.804 64.883
2.78 161.368 63.989
2.79 162.255 62.377
2.80 163.197 59.537
2.81 --undefined-- 54.994
2.82 --undefined-- 49.549
2.83 --undefined-- 44.552
2.84 --undefined-- 40.346
2.85 --undefined-- 39.375
2.86 --undefined-- 40.949
2.87 --undefined-- 41.379
2.88 --undefined-- 41.117
2.89 --undefined-- 41.590
2.90 --undefined-- 42.299
2.91 --undefined-- 42.858
2.92 --undefined-- 43.312
2.93 --undefined-- 43.581
2.94 --undefined-- 43.107
2.95 --undefined-- 41.925
2.96 --undefined-- 41.194
2.97 --undefined-- 41.078
2.98 --undefined-- 40.676
2.99 --undefined-- 39.859
3.00 --undefined-- 39.206
3.01 --undefined-- 38.686
3.02 --undefined-- 38.295
3.03 --undefined-- 38.605
3.04 --undefined-- 39.264
3.05 --undefined-- 38.945
3.06 --undefined-- 38.274
3.07 --undefined-- 38.756
3.08 --undefined-- 42.276
3.09 --undefined-- 46.529
3.10 --undefined-- 47.983
3.11 --undefined-- 52.794
3.12 --undefined-- 62.768
3.13 216.522 68.938
3.14 218.457 71.735
3.15 219.747 72.223
3.16 219.776 71.585
3.17 219.539 70.793
3.18 219.844 70.226
3.19 220.189 69.744
3.20 220.867 69.155
3.21 220.379 68.098
3.22 218.088 65.828
3.23 213.553 61.761
3.24 202.135 56.634
3.25 205.337 53.963
3.26 211.517 56.113
3.27 214.322 60.714
3.28 218.302 64.739
3.29 220.328 67.417
3.30 219.687 68.850
3.31 218.926 69.459
3.32 218.171 69.571
3.33 217.688 69.322
3.34 216.945 68.820
3.35 215.962 68.094
3.36 214.684 67.111
3.37 212.888 65.968
3.38 210.636 65.527
3.39 212.649 66.456
3.40 212.363 66.655
3.41 210.657 65.351
3.42 208.045 63.996
3.43 204.967 63.203
3.44 203.495 62.205
3.45 --undefined-- 60.593
3.46 --undefined-- 58.392
3.47 --undefined-- 55.313
3.48 --undefined-- 51.066
3.49 --undefined-- 46.471
3.50 --undefined-- 43.635
3.51 --undefined-- 41.291
3.52 --undefined-- 40.469
3.53 --undefined-- 41.445
3.54 --undefined-- 42.596
3.55 --undefined-- 44.665
3.56 --undefined-- 47.573
3.57 --undefined-- 51.092
3.58 --undefined-- 59.668
3.59 250.182 67.528
3.60 244.368 71.547
3.61 236.649 72.443
3.62 231.223 71.941
3.63 229.420 71.785
3.64 227.285 71.799
3.65 223.612 71.387
3.66 219.250 70.217
3.67 214.186 67.746
3.68 205.225 64.033
3.69 202.764 62.908
3.70 199.936 66.036
3.71 193.984 69.495
3.72 189.728 71.551
3.73 183.303 71.928
3.74 174.816 71.429
3.75 170.018 71.070
3.76 166.408 70.932
3.77 164.348 70.829
3.78 163.218 70.044
3.79 162.241 67.892
3.80 160.218 64.483
3.81 158.823 60.918
3.82 155.477 57.853
3.83 --undefined-- 54.397
3.84 --undefined-- 51.447
3.85 --undefined-- 51.021
3.86 --undefined-- 50.807
3.87 --undefined-- 50.039
3.88 --undefined-- 49.816
3.89 --undefined-- 49.982
3.90 --undefined-- 50.239
3.91 --undefined-- 50.713
3.92 --undefined-- 50.980
3.93 --undefined-- 49.795
3.94 --undefined-- 46.218
3.95 --undefined-- 41.277
3.96 --undefined-- 38.063
3.97 --undefined-- 37.543
3.98 --undefined-- 38.373
3.99 --undefined-- 39.358
4.00 --undefined-- 40.356
4.01 --undefined-- 41.208
4.02 --undefined-- 42.179
4.03 --undefined-- 42.826
4.04 --undefined-- 43.028
4.05 --undefined-- 43.508
4.06 --undefined-- 43.978
4.07 --undefined-- 44.723
4.08 --undefined-- 45.465
4.09 --undefined-- 44.530
4.10 --undefined-- 42.722
4.11 --undefined-- 43.033
4.12 --undefined-- 44.480
4.13 --undefined-- 45.184
4.14 --undefined-- 45.243
4.15 --undefined-- 45.620
4.16 --undefined-- 46.819
4.17 --undefined-- 48.096
4.18 --undefined-- 49.392
4.19 --undefined-- 51.545
4.20 --undefined-- 56.349
4.21 --undefined-- 64.940
4.22 206.735 71.381
4.23 199.416 74.613
4.24 194.885 75.375
4.25 194.135 74.493
4.26 199.361 72.410
4.27 208.997 69.598
4.28 220.785 67.485
4.29 226.644 66.897
4.30 232.672 66.488
4.31 238.052 65.091
4.32 241.244 62.117
4.33 227.733 57.326
4.34 208.698 52.164
4.35 --undefined-- 51.157
4.36 --undefined-- 54.180
4.37 --undefined-- 57.540
4.38 --undefined-- 61.398
4.39 --undefined-- 67.880
4.40 259.683 72.578
4.41 247.681 74.336
4.42 229.010 73.808
4.43 217.542 71.807
4.44 209.572 69.119
4.45 199.890 67.156
4.46 192.788 67.203
4.47 187.826 67.796
4.48 184.126 67.637
4.49 181.536 67.192
4.50 182.846 68.508
4.51 183.231 71.098
4.52 181.556 72.566
4.53 178.480 72.579
4.54 173.861 71.548
4.55 169.925 69.429
4.56 167.540 65.666
4.57 172.210 60.292
4.58 175.806 54.574
4.59 --undefined-- 51.342
4.60 --undefined-- 50.523
4.61 --undefined-- 50.410
4.62 --undefined-- 50.242
4.63 --undefined-- 49.944
4.64 --undefined-- 50.719
4.65 --undefined-- 54.474
4.66 --undefined-- 62.241
4.67 233.907 69.388
4.68 224.029 73.583
4.69 216.578 74.880
4.70 209.680 74.128
4.71 205.033 72.446
4.72 204.775 71.115
4.73 204.408 69.918
4.74 201.074 67.734
4.75 197.686 64.624
4.76 193.819 61.254
4.77 191.921 58.671
4.78 194.846 57.542
4.79 --undefined-- 56.202
4.80 --undefined-- 53.767
4.81 --undefined-- 51.281
4.82 --undefined-- 49.810
4.83 --undefined-- 49.950
4.84 --undefined-- 53.368
4.85 --undefined-- 59.552
4.86 --undefined-- 66.911
4.87 --undefined-- 71.677
4.88 200.772 73.392
4.89 192.887 72.991
4.90 183.781 72.027
4.91 171.704 71.558
4.92 165.332 71.020
4.93 161.279 69.996
4.94 157.069 68.669
4.95 154.598 67.008
4.96 152.108 65.848
4.97 148.800 65.766
4.98 145.630 65.323
4.99 143.874 63.490
5.00 141.947 60.480
5.01 140.534 57.569
5.02 144.216 55.403
5.03 147.982 53.208
5.04 148.261 50.232
5.05 --undefined-- 46.362
5.06 --undefined-- 42.815
5.07 --undefined-- 41.152
5.08 --undefined-- 40.388
5.09 --undefined-- 40.192
5.10 --undefined-- 40.688
5.11 --undefined-- 41.748
5.12 --undefined-- 42.882
5.13 --undefined-- 43.824
5.14 --undefined-- 44.125
5.15 --undefined-- 44.337
5.16 --undefined-- 45.379
5.17 --undefined-- 45.870
5.18 --undefined-- 45.764
5.19 --undefined-- 46.125
5.20 --undefined-- 46.500
5.21 --undefined-- 47.037
5.22 --undefined-- 47.930
5.23 --undefined-- 48.470
5.24 --undefined-- 48.695
5.25 --undefined-- 49.203
5.26 --undefined-- 49.495
5.27 --undefined-- 49.510
5.28 --undefined-- 49.627
5.29 --undefined-- 50.192
5.30 --undefined-- 50.742
5.31 --undefined-- 50.605
5.32 --undefined-- 50.551
5.33 --undefined-- 50.642
5.34 --undefined-- 49.871
5.35 --undefined-- 49.411
5.36 --undefined-- 49.655
5.37 --undefined-- 49.314
5.38 --undefined-- 48.852
5.39 --undefined-- 48.744
5.40 --undefined-- --undefined--
5.41 --undefined-- --undefined--
5.42 --undefined-- --undefined--
5.43 --undefined-- --undefined--
