Time Pitch Intensity
0.01 --undefined-- --undefined--
0.02 162.445 --undefined--
0.03 164.752 --undefined--
0.04 163.458 --undefined--
0.05 158.316 72.151
0.06 150.192 69.197
0.07 150.897 64.408
0.08 160.973 59.369
0.09 159.855 57.206
0.10 157.713 56.416
0.11 --undefined-- 55.453
0.12 --undefined-- 55.207
0.13 --undefined-- 56.134
0.14 --undefined-- 56.346
0.15 --undefined-- 55.844
0.16 --undefined-- 55.224
0.17 --undefined-- 54.691
0.18 --undefined-- 54.603
0.19 --undefined-- 54.763
0.20 --undefined-- 55.232
0.21 --undefined-- 55.221
0.22 --undefined-- 54.072
0.23 --undefined-- 53.130
0.24 --undefined-- 58.245
0.25 180.221 66.353
0.26 161.899 71.794
0.27 157.617 74.991
0.28 156.616 76.831
0.29 154.999 77.883
0.30 153.930 78.419
0.31 152.622 78.501
0.32 150.780 78.204
0.33 148.732 77.603
0.34 147.540 76.791
0.35 146.830 76.085
0.36 146.377 76.190
0.37 146.375 77.355
0.38 146.278 78.708
0.39 144.685 79.449
0.40 142.429 79.650
0.41 --undefined-- 79.500
0.42 --undefined-- 79.005
0.43 --undefined-- 78.191
0.44 --undefined-- 76.820
0.45 --undefined-- 74.212
0.46 --undefined-- 70.175
0.47 --undefined-- 65.390
0.48 --undefined-- 64.595
0.49 95.643 68.502
0.50 95.978 71.717
0.51 99.222 73.662
0.52 101.918 74.827
0.53 103.719 75.620
0.54 107.978 76.140
0.55 107.162 76.367
0.56 104.934 76.362
0.57 103.359 76.169
0.58 101.945 75.795
0.59 101.409 75.349
0.60 101.561 74.975
0.61 102.872 74.745
0.62 105.505 74.546
0.63 107.377 74.224
0.64 108.439 73.918
0.65 110.253 73.961
0.66 111.201 74.381
0.67 113.444 74.967
0.68 116.775 75.705
0.69 121.115 76.588
0.70 126.218 77.154
0.71 132.848 77.157
0.72 140.284 77.308
0.73 143.820 77.978
0.74 146.916 78.508
0.75 148.028 78.621
0.76 146.441 78.390
0.77 142.586 77.385
0.78 137.740 74.767
0.79 123.237 70.197
0.80 133.181 64.472
0.81 --undefined-- 58.004
0.82 --undefined-- 51.839
0.83 --undefined-- 50.316
0.84 --undefined-- 53.274
0.85 --undefined-- 61.097
0.86 --undefined-- 68.707
0.87 141.866 74.031
0.88 127.157 77.031
0.89 123.217 78.529
0.90 119.613 79.091
0.91 116.100 78.914
0.92 112.756 78.364
0.93 110.986 77.836
0.94 109.505 77.147
0.95 108.874 76.325
0.96 108.362 75.602
0.97 108.051 75.042
0.98 107.693 74.611
0.99 109.217 74.388
1.00 110.717 74.336
1.01 111.580 74.191
1.02 110.849 73.452
1.03 105.707 71.524
1.04 98.631 68.468
1.05 97.402 64.755
1.06 118.982 60.249
1.07 --undefined-- 58.913
1.08 --undefined-- 66.939
1.09 --undefined-- 73.199
1.10 119.403 76.577
1.11 115.706 77.631
1.12 100.314 77.507
1.13 97.648 77.343
1.14 98.254 76.924
1.15 99.523 76.120
1.16 99.945 75.514
1.17 100.273 75.324
1.18 101.473 75.359
1.19 103.450 75.555
1.20 106.548 75.598
1.21 108.790 75.147
1.22 113.823 74.869
1.23 122.565 76.026
1.24 131.764 77.946
1.25 130.734 78.892
1.26 131.813 78.590
1.27 135.013 77.939
1.28 140.746 77.949
1.29 142.837 78.203
1.30 143.440 77.773
1.31 143.699 76.694
1.32 142.839 75.642
1.33 141.278 75.161
1.34 140.285 75.608
1.35 138.879 76.841
1.36 137.955 78.110
1.37 136.864 78.661
1.38 128.674 78.225
1.39 123.355 76.994
1.40 117.949 74.420
1.41 99.866 69.433
1.42 123.264 62.500
1.43 123.706 58.046
1.44 124.741 56.118
1.45 --undefined-- 53.477
1.46 --undefined-- 50.230
1.47 --undefined-- 48.981
1.48 --undefined-- 49.149
1.49 --undefined-- 48.235
1.50 --undefined-- 45.745
1.51 --undefined-- 42.721
1.52 --undefined-- 40.484
1.53 --undefined-- 39.491
1.54 --undefined-- 39.196
1.55 --undefined-- 43.830
1.56 --undefined-- 57.053
1.57 --undefined-- 67.257
1.58 193.562 73.510
1.59 181.895 76.740
1.60 176.342 77.849
1.61 173.942 77.898
1.62 171.935 77.511
1.63 171.109 76.923
1.64 171.059 76.227
1.65 172.782 75.804
1.66 176.237 76.286
1.67 178.489 77.394
1.68 178.705 78.275
1.69 178.014 78.403
1.70 171.644 78.064
1.71 164.020 78.295
1.72 157.125 79.053
1.73 153.570 79.345
1.74 138.789 78.779
1.75 129.609 78.322
1.76 122.395 78.778
1.77 117.755 79.083
1.78 112.436 78.855
1.79 109.421 78.408
1.80 108.446 77.478
1.81 108.488 75.900
1.82 108.467 74.351
1.83 109.725 73.318
1.84 111.141 72.434
1.85 111.835 70.601
1.86 108.943 66.678
1.87 110.266 60.355
1.88 --undefined-- 56.749
1.89 --undefined-- 59.378
1.90 --undefined-- 60.246
1.91 --undefined-- 59.722
1.92 --undefined-- 61.001
1.93 129.049 64.422
1.94 133.778 68.175
1.95 133.118 70.953
1.96 118.306 72.522
1.97 100.657 73.542
1.98 95.895 74.320
1.99 92.065 74.569
2.00 88.394 74.318
2.01 85.603 74.014
2.02 86.786 73.946
2.03 86.969 73.810
2.04 93.595 73.405
2.05 93.848 72.609
2.06 93.090 70.898
2.07 91.422 67.294
2.08 --undefined-- 61.308
2.09 --undefined-- 53.489
2.10 --undefined-- 48.452
2.11 --undefined-- 49.206
2.12 --undefined-- 56.277
2.13 --undefined-- 62.614
2.14 --undefined-- 68.088
2.15 --undefined-- 72.558
2.16 120.320 75.437
2.17 118.518 77.038
2.18 116.903 77.603
2.19 116.103 77.583
2.20 117.869 77.751
2.21 119.899 77.817
2.22 121.148 76.999
2.23 125.220 75.458
2.24 128.355 74.180
2.25 137.147 74.672
2.26 142.414 76.480
2.27 144.506 77.638
2.28 147.983 77.929
2.29 152.156 77.992
2.30 154.893 78.309
2.31 157.612 78.753
2.32 159.329 78.999
2.33 158.995 78.748
2.34 157.702 77.789
2.35 155.113 76.147
2.36 150.361 73.613
2.37 151.250 69.426
2.38 157.101 63.016
2.39 156.498 56.503
2.40 157.681 53.868
2.41 --undefined-- 52.231
2.42 --undefined-- 57.818
2.43 --undefined-- 68.080
2.44 139.107 74.242
2.45 135.963 77.077
2.46 123.087 77.736
2.47 116.149 77.353
2.48 110.132 76.647
2.49 105.827 76.144
2.50 107.028 76.455
2.51 111.646 77.036
2.52 109.156 77.035
2.53 104.115 76.623
2.54 101.987 76.062
2.55 100.270 75.040
2.56 98.767 73.060
2.57 94.774 69.776
2.58 99.446 64.988
2.59 105.641 58.693
2.60 --undefined-- 52.611
2.61 --undefined-- 50.252
2.62 --undefined-- 52.936
2.63 --undefined-- 61.924
2.64 --undefined-- 69.819
2.65 --undefined-- 74.778
2.66 123.306 77.280
2.67 118.218 78.186
2.68 115.697 78.330
2.69 115.004 78.314
2.70 114.755 78.070
2.71 114.830 77.399
2.72 114.866 76.620
2.73 115.385 76.063
2.74 117.082 75.701
2.75 117.679 75.426
2.76 117.921 75.147
2.77 117.178 74.796
2.78 117.348 74.472
2.79 118.020 74.293
2.80 118.091 73.919
2.81 116.635 72.613
2.82 113.348 70.001
2.83 111.535 66.257
2.84 112.114 62.073
2.85 116.954 58.907
2.86 118.017 56.878
2.87 119.505 55.541
2.88 120.715 55.364
2.89 120.439 55.900
2.90 119.837 56.100
2.91 --undefined-- 58.094
2.92 --undefined-- 64.667
2.93 121.969 69.700
2.94 116.581 72.496
2.95 115.770 74.049
2.96 116.110 75.112
2.97 117.562 75.918
2.98 120.479 76.293
2.99 121.135 76.124
3.00 125.575 76.114
3.01 133.840 76.883
3.02 139.194 78.120
3.03 146.098 79.312
3.04 148.637 79.671
3.05 148.966 78.965
3.06 148.095 77.397
3.07 145.380 74.822
3.08 141.390 70.762
3.09 --undefined-- 64.707
3.10 --undefined-- 57.089
3.11 --undefined-- 51.567
3.12 --undefined-- 49.869
3.13 --undefined-- 50.867
3.14 --undefined-- 52.517
3.15 --undefined-- 53.907
3.16 --undefined-- 55.199
3.17 --undefined-- 56.825
3.18 --undefined-- 57.931
3.19 --undefined-- 57.889
3.20 --undefined-- 57.469
3.21 --undefined-- 57.008
3.22 --undefined-- 56.342
3.23 --undefined-- 55.229
3.24 --undefined-- 54.042
3.25 --undefined-- 53.591
3.26 --undefined-- 53.558
3.27 --undefined-- 53.580
3.28 --undefined-- 53.347
3.29 --undefined-- 52.786
3.30 --undefined-- 52.082
3.31 --undefined-- 51.665
3.32 --undefined-- 51.696
3.33 --undefined-- 51.059
3.34 --undefined-- 49.642
3.35 --undefined-- 48.901
3.36 --undefined-- 50.146
3.37 --undefined-- 50.841
3.38 --undefined-- 49.756
3.39 --undefined-- 48.551
3.40 --undefined-- 52.071
3.41 --undefined-- 61.814
3.42 --undefined-- 70.503
3.43 164.733 75.618
3.44 160.629 77.988
3.45 159.531 78.726
3.46 159.793 78.831
3.47 160.072 79.044
3.48 159.921 79.346
3.49 160.178 79.151
3.50 162.354 78.392
3.51 162.765 77.700
3.52 162.545 77.297
3.53 161.198 76.507
3.54 158.467 74.647
3.55 154.965 71.622
3.56 157.976 68.287
3.57 161.172 65.039
3.58 160.433 60.766
3.59 161.169 55.813
3.60 159.173 53.170
3.61 158.330 51.850
3.62 --undefined-- 49.667
3.63 --undefined-- 46.329
3.64 --undefined-- 43.281
3.65 --undefined-- 42.901
3.66 --undefined-- 43.163
3.67 --undefined-- 42.714
3.68 --undefined-- 43.153
3.69 --undefined-- 53.782
3.70 --undefined-- 66.381
3.71 --undefined-- 73.855
3.72 184.537 77.474
3.73 179.922 78.572
3.74 175.687 78.705
3.75 170.861 78.918
3.76 167.378 79.364
3.77 166.581 79.749
3.78 165.931 79.895
3.79 165.192 79.965
3.80 164.870 79.982
3.81 165.555 79.771
3.82 166.258 79.141
3.83 165.620 77.885
3.84 164.387 76.176
3.85 166.645 75.239
3.86 172.257 75.471
3.87 174.366 75.713
3.88 175.173 75.780
3.89 175.396 76.070
3.90 174.769 76.603
3.91 173.669 77.157
3.92 171.116 77.460
3.93 167.074 77.214
3.94 162.582 76.717
3.95 158.811 76.560
3.96 158.512 76.743
3.97 158.298 76.955
3.98 155.741 77.152
3.99 156.418 77.705
4.00 156.583 78.338
4.01 151.247 78.407
4.02 140.118 77.813
4.03 127.694 77.093
4.04 125.855 76.967
4.05 122.534 77.148
4.06 121.381 77.301
4.07 122.489 77.423
4.08 125.161 77.260
4.09 129.512 76.620
4.10 134.267 75.704
4.11 138.309 74.912
4.12 143.537 74.307
4.13 150.313 73.948
4.14 158.695 74.017
4.15 164.352 74.459
4.16 167.821 74.897
4.17 170.191 75.127
4.18 173.313 75.258
4.19 175.504 75.356
4.20 175.768 75.363
4.21 173.626 75.483
4.22 174.948 76.070
4.23 177.592 76.812
4.24 177.216 77.056
4.25 176.105 76.886
4.26 175.064 76.728
4.27 174.062 76.621
4.28 172.688 76.472
4.29 171.699 76.329
4.30 169.579 76.194
4.31 167.982 76.068
4.32 166.462 75.988
4.33 164.350 75.954
4.34 162.239 75.679
4.35 161.051 74.376
4.36 157.981 71.459
4.37 152.034 67.013
4.38 --undefined-- 62.586
4.39 --undefined-- 60.815
4.40 --undefined-- 60.328
4.41 --undefined-- 59.504
4.42 --undefined-- 59.220
4.43 --undefined-- 59.947
4.44 --undefined-- 60.968
4.45 --undefined-- 61.435
4.46 --undefined-- 61.752
4.47 --undefined-- 62.046
4.48 --undefined-- 60.899
4.49 --undefined-- 61.411
4.50 --undefined-- 68.592
4.51 130.136 73.782
4.52 126.301 76.172
4.53 118.231 76.770
4.54 111.938 76.788
4.55 109.735 77.063
4.56 109.943 77.352
4.57 110.403 77.247
4.58 112.005 76.789
4.59 112.908 76.068
4.60 113.592 75.201
4.61 112.874 74.583
4.62 113.110 74.462
4.63 114.359 74.550
4.64 115.808 74.676
4.65 115.487 74.793
4.66 115.191 74.839
4.67 115.028 74.816
4.68 115.681 74.651
4.69 116.290 74.104
4.70 115.985 72.851
4.71 113.490 70.764
4.72 111.474 67.868
4.73 108.330 64.282
4.74 108.562 60.900
4.75 115.919 57.397
4.76 119.032 54.397
4.77 118.844 53.839
4.78 136.819 59.728
4.79 160.922 67.342
4.80 133.434 71.719
4.81 121.733 73.548
4.82 118.206 74.001
4.83 117.615 73.933
4.84 117.697 73.832
4.85 121.189 74.328
4.86 124.270 74.949
4.87 126.052 75.170
4.88 127.306 75.045
4.89 129.193 74.591
4.90 130.710 73.419
4.91 135.347 70.701
4.92 141.773 66.280
4.93 --undefined-- 63.279
4.94 --undefined-- 64.364
4.95 --undefined-- 66.759
4.96 --undefined-- 71.535
4.97 135.041 75.359
4.98 126.467 77.042
4.99 116.911 77.416
5.00 109.037 77.380
5.01 104.578 77.386
5.02 102.851 77.286
5.03 99.074 76.456
5.04 95.165 74.713
5.05 97.150 74.014
5.06 97.747 74.949
5.07 97.000 75.661
5.08 97.628 --undefined--
5.09 99.077 --undefined--
5.10 --undefined-- --undefined--
5.11 --undefined-- --undefined--
