Time Pitch Intensity
0.01 --undefined-- --undefined--
0.02 149.229 --undefined--
0.03 147.159 --undefined--
0.04 144.511 --undefined--
0.05 141.203 72.794
0.06 138.732 72.149
0.07 144.147 72.378
0.08 136.823 72.532
0.09 131.207 72.206
0.10 130.386 72.327
0.11 129.181 72.681
0.12 127.341 72.707
0.13 124.892 72.378
0.14 122.611 72.087
0.15 122.527 72.049
0.16 123.377 71.919
0.17 123.378 71.634
0.18 123.354 71.532
0.19 123.429 71.744
0.20 123.532 72.179
0.21 123.542 72.591
0.22 123.545 72.917
0.23 123.654 73.206
0.24 123.725 73.355
0.25 123.481 73.151
0.26 122.256 72.423
0.27 120.577 70.952
0.28 122.242 68.528
0.29 118.072 65.196
0.30 121.641 62.029
0.31 125.754 60.248
0.32 126.161 58.429
0.33 126.056 56.130
0.34 125.417 54.350
0.35 125.563 52.988
0.36 125.591 51.197
0.37 123.829 49.287
0.38 122.516 48.200
0.39 130.402 48.211
0.40 --undefined-- 48.261
0.41 --undefined-- 48.705
0.42 --undefined-- 55.252
0.43 211.859 64.407
0.44 202.438 70.027
0.45 200.479 72.539
0.46 201.008 73.376
0.47 201.294 73.687
0.48 201.177 73.838
0.49 200.948 73.903
0.50 200.728 73.917
0.51 200.629 73.873
0.52 200.397 73.679
0.53 198.608 73.113
0.54 195.505 71.825
0.55 191.816 69.353
0.56 185.574 65.214
0.57 171.422 59.052
0.58 --undefined-- 51.196
0.59 --undefined-- 45.365
0.60 --undefined-- 43.016
0.61 --undefined-- 41.514
0.62 --undefined-- 42.156
0.63 --undefined-- 44.680
0.64 --undefined-- 46.993
0.65 --undefined-- 53.704
0.66 195.699 63.304
0.67 200.742 69.403
0.68 200.380 72.227
0.69 199.415 73.086
0.70 197.266 73.187
0.71 194.799 73.136
0.72 192.879 73.075
0.73 191.828 72.954
0.74 190.468 72.373
0.75 187.494 70.717
0.76 171.435 67.806
0.77 165.492 64.603
0.78 165.036 62.082
0.79 166.752 61.469
0.80 166.844 65.404
0.81 156.803 70.351
0.82 148.518 72.925
0.83 136.866 73.202
0.84 125.824 72.516
0.85 122.583 71.738
0.86 120.004 71.009
0.87 121.721 70.719
0.88 122.992 70.087
0.89 124.014 68.354
0.90 133.287 67.008
0.91 148.709 68.407
0.92 157.812 70.632
0.93 163.156 72.119
0.94 168.835 72.525
0.95 173.489 71.205
0.96 171.002 67.282
0.97 --undefined-- 60.025
0.98 --undefined-- 53.029
0.99 --undefined-- 57.302
1.00 --undefined-- 60.919
1.01 --undefined-- 62.063
1.02 --undefined-- 60.644
1.03 --undefined-- 57.533
1.04 --undefined-- 56.616
1.05 --undefined-- 61.759
1.06 120.725 66.155
1.07 120.984 67.719
1.08 104.239 67.387
1.09 95.320 66.294
1.10 88.628 65.358
1.11 98.755 64.714
1.12 --undefined-- 64.310
1.13 --undefined-- 63.671
1.14 --undefined-- 63.124
1.15 84.612 63.090
1.16 93.760 63.414
1.17 96.454 64.308
1.18 99.122 65.067
1.19 102.375 65.639
1.20 103.890 66.195
1.21 107.278 66.644
1.22 110.474 66.978
1.23 114.589 67.711
1.24 124.409 69.607
1.25 130.085 71.731
1.26 136.872 73.022
1.27 142.002 73.561
1.28 146.441 73.790
1.29 150.013 73.773
1.30 151.942 73.373
1.31 151.954 72.806
1.32 154.275 72.775
1.33 154.485 73.228
1.34 152.867 73.553
1.35 150.192 73.611
1.36 146.653 73.467
1.37 142.245 72.998
1.38 135.386 71.970
1.39 125.701 70.430
1.40 117.939 69.672
1.41 107.129 70.335
1.42 102.874 70.212
1.43 92.489 68.657
1.44 86.265 66.387
1.45 80.779 64.639
1.46 115.358 63.806
1.47 124.345 62.849
1.48 125.438 62.712
1.49 142.005 63.079
1.50 121.566 64.332
1.51 100.431 66.401
1.52 107.476 68.165
1.53 116.078 69.864
1.54 125.930 71.717
1.55 133.928 73.279
1.56 137.676 74.156
1.57 143.259 74.550
1.58 147.338 74.718
1.59 149.897 74.594
1.60 149.929 73.993
1.61 147.703 72.899
1.62 147.676 70.960
1.63 147.713 67.392
1.64 147.935 61.379
1.65 --undefined-- 52.782
1.66 --undefined-- 46.673
1.67 --undefined-- 46.914
1.68 --undefined-- 48.546
1.69 --undefined-- 49.032
1.70 --undefined-- 49.022
1.71 --undefined-- 49.240
1.72 --undefined-- 49.397
1.73 --undefined-- 49.460
1.74 --undefined-- 49.818
1.75 --undefined-- 50.127
1.76 --undefined-- 49.995
1.77 --undefined-- 49.931
1.78 --undefined-- 49.741
1.79 --undefined-- 49.461
1.80 --undefined-- 49.140
1.81 --undefined-- 48.456
1.82 --undefined-- 47.646
1.83 --undefined-- 46.542
1.84 --undefined-- 44.704
1.85 --undefined-- 42.331
1.86 --undefined-- 40.100
1.87 --undefined-- 40.448
1.88 --undefined-- 53.183
1.89 --undefined-- 64.065
1.90 153.517 70.368
1.91 148.799 73.209
1.92 150.491 73.811
1.93 152.946 73.430
1.94 153.218 72.506
1.95 152.915 70.768
1.96 157.814 68.403
1.97 162.604 66.234
1.98 166.050 65.095
1.99 174.232 67.312
2.00 212.926 71.531
2.01 223.505 74.171
2.02 236.983 74.903
2.03 241.994 74.714
2.04 244.829 74.605
2.05 248.129 74.835
2.06 248.909 75.129
2.07 246.620 75.333
2.08 239.132 75.398
2.09 231.013 74.957
2.10 220.495 73.251
2.11 207.471 69.710
2.12 --undefined-- 64.505
2.13 --undefined-- 60.434
2.14 --undefined-- 60.682
2.15 --undefined-- 61.594
2.16 --undefined-- 61.886
2.17 --undefined-- 62.099
2.18 --undefined-- 62.313
2.19 --undefined-- 62.911
2.20 --undefined-- 63.129
2.21 --undefined-- 63.480
2.22 --undefined-- 64.717
2.23 --undefined-- 68.566
2.24 242.204 72.801
2.25 234.615 74.688
2.26 227.862 74.574
2.27 223.251 73.407
2.28 220.493 72.288
2.29 217.751 71.932
2.30 215.962 72.101
2.31 214.679 72.511
2.32 214.092 72.947
2.33 213.890 73.152
2.34 213.860 72.843
2.35 212.256 71.897
2.36 210.247 71.146
2.37 212.883 71.579
2.38 213.287 72.215
2.39 212.954 72.504
2.40 211.805 72.449
2.41 208.535 71.798
2.42 200.997 70.059
2.43 188.665 66.700
2.44 175.194 61.465
2.45 --undefined-- 58.409
2.46 --undefined-- 65.374
2.47 --undefined-- 70.784
2.48 175.876 73.144
2.49 159.234 73.518
2.50 149.048 73.349
2.51 139.998 73.250
2.52 133.096 73.166
2.53 127.653 73.177
2.54 124.492 73.093
2.55 124.419 72.962
2.56 125.110 72.997
2.57 125.897 72.680
2.58 124.522 71.295
2.59 123.494 68.693
2.60 129.252 65.177
2.61 129.699 60.226
2.62 --undefined-- 52.981
2.63 --undefined-- 45.300
2.64 --undefined-- 43.549
2.65 --undefined-- 45.969
2.66 --undefined-- 56.080
2.67 180.395 64.790
2.68 179.408 70.030
2.69 176.412 72.870
2.70 174.379 74.331
2.71 170.296 75.021
2.72 164.107 75.266
2.73 157.400 75.248
2.74 150.251 74.894
2.75 142.593 74.112
2.76 136.145 72.925
2.77 129.961 71.439
2.78 125.371 70.211
2.79 121.538 69.756
2.80 118.394 70.076
2.81 115.859 71.065
2.82 113.858 72.317
2.83 112.781 73.030
2.84 111.771 72.742
2.85 109.265 71.635
2.86 102.960 70.645
2.87 108.095 70.439
2.88 99.490 69.835
2.89 97.731 68.367
2.90 97.246 67.292
2.91 106.406 68.249
2.92 109.713 69.624
2.93 109.939 70.049
2.94 110.784 69.902
2.95 110.381 69.611
2.96 107.581 68.753
2.97 103.651 66.895
2.98 99.933 64.138
2.99 96.743 60.646
3.00 91.676 56.595
3.01 --undefined-- 52.266
3.02 --undefined-- 47.603
3.03 --undefined-- 43.599
3.04 --undefined-- 44.531
3.05 --undefined-- 48.710
3.06 --undefined-- 52.001
3.07 --undefined-- 53.714
3.08 --undefined-- 54.247
3.09 --undefined-- 54.470
3.10 --undefined-- 55.351
3.11 --undefined-- 59.960
3.12 --undefined-- 67.304
3.13 158.194 71.773
3.14 148.815 73.254
3.15 143.262 72.855
3.16 139.403 71.953
3.17 136.887 71.328
3.18 135.000 71.011
3.19 134.467 70.921
3.20 134.293 70.975
3.21 133.750 70.987
3.22 134.141 71.101
3.23 136.036 71.531
3.24 137.190 72.053
3.25 137.978 72.419
3.26 138.666 72.608
3.27 138.932 72.691
3.28 138.843 72.817
3.29 137.614 73.070
3.30 135.573 73.320
3.31 136.033 73.549
3.32 134.366 73.598
3.33 132.536 73.346
3.34 132.086 73.150
3.35 132.210 73.176
3.36 132.029 73.171
3.37 130.859 72.745
3.38 129.864 71.302
3.39 131.630 68.184
3.40 129.723 63.386
3.41 131.594 57.785
3.42 --undefined-- 54.154
3.43 --undefined-- 58.576
3.44 --undefined-- 65.385
3.45 121.035 69.342
3.46 120.229 70.422
3.47 110.450 69.740
3.48 105.928 68.174
3.49 100.358 66.561
3.50 99.571 66.419
3.51 98.420 66.860
3.52 95.849 67.010
3.53 93.594 66.999
3.54 93.733 66.829
3.55 91.651 66.257
3.56 90.376 65.480
3.57 91.210 65.084
3.58 92.641 65.202
3.59 93.100 65.551
3.60 94.210 66.037
3.61 94.276 66.527
3.62 92.295 66.860
3.63 93.122 66.951
3.64 89.636 66.459
3.65 --undefined-- 64.823
3.66 --undefined-- 61.179
3.67 --undefined-- 55.189
3.68 --undefined-- 50.213
3.69 --undefined-- 49.068
3.70 --undefined-- 49.002
3.71 --undefined-- 49.328
3.72 --undefined-- 49.190
3.73 --undefined-- 48.316
3.74 --undefined-- 47.562
3.75 --undefined-- 46.855
3.76 --undefined-- 46.940
3.77 --undefined-- 47.146
3.78 --undefined-- 46.749
3.79 --undefined-- 47.334
3.80 --undefined-- 53.475
3.81 --undefined-- 59.910
3.82 --undefined-- 63.578
3.83 107.501 65.645
3.84 106.753 67.339
3.85 106.775 68.767
3.86 107.045 69.880
3.87 107.309 70.767
3.88 107.834 71.459
3.89 108.259 71.929
3.90 109.332 72.190
3.91 110.244 72.304
3.92 110.279 72.215
3.93 110.144 71.559
3.94 108.989 69.902
3.95 111.306 67.847
3.96 119.813 67.068
3.97 125.228 67.762
3.98 131.126 69.980
3.99 139.654 72.550
4.00 134.723 73.573
4.01 137.384 73.302
4.02 137.977 72.771
4.03 138.471 72.729
4.04 139.271 73.224
4.05 138.708 73.571
4.06 137.877 73.498
4.07 139.419 73.440
4.08 140.449 73.677
4.09 140.249 73.827
4.10 139.429 73.793
4.11 137.675 73.731
4.12 134.942 73.456
4.13 131.960 72.283
4.14 127.698 69.491
4.15 128.445 65.719
4.16 130.961 62.667
4.17 129.441 59.772
4.18 127.673 55.558
4.19 --undefined-- 51.555
4.20 --undefined-- 55.734
4.21 --undefined-- 63.292
4.22 --undefined-- 68.558
4.23 119.728 71.071
4.24 111.696 71.472
4.25 110.484 70.638
4.26 105.076 69.602
4.27 105.459 69.150
4.28 108.340 69.316
4.29 110.820 70.007
4.30 114.407 70.992
4.31 114.261 71.738
4.32 116.663 71.777
4.33 117.305 70.841
4.34 117.313 68.747
4.35 119.606 65.916
4.36 121.052 63.639
4.37 119.313 62.043
4.38 117.553 61.196
4.39 118.782 62.083
4.40 116.360 64.897
4.41 115.628 67.993
4.42 114.814 70.015
4.43 111.718 70.774
4.44 107.528 70.596
4.45 104.903 69.997
4.46 104.312 69.398
4.47 104.797 69.085
4.48 105.301 68.981
4.49 105.338 68.893
4.50 105.009 68.631
4.51 104.006 67.474
4.52 93.517 64.443
4.53 107.537 59.607
4.54 109.305 54.302
4.55 --undefined-- 48.225
4.56 --undefined-- 42.678
4.57 --undefined-- 42.751
4.58 --undefined-- 44.973
4.59 --undefined-- 47.666
4.60 --undefined-- 50.656
4.61 --undefined-- 53.633
4.62 --undefined-- 55.370
4.63 --undefined-- 55.719
4.64 --undefined-- 56.009
4.65 --undefined-- 56.919
4.66 --undefined-- 57.124
4.67 --undefined-- 58.174
4.68 --undefined-- 64.034
4.69 --undefined-- 69.033
4.70 126.789 71.249
4.71 117.359 71.403
4.72 109.074 70.636
4.73 --undefined-- 69.514
4.74 --undefined-- 66.985
4.75 --undefined-- 61.714
4.76 --undefined-- 55.165
4.77 --undefined-- 55.555
4.78 --undefined-- 56.541
4.79 --undefined-- 57.034
4.80 --undefined-- 61.896
4.81 77.565 65.341
4.82 77.017 67.083
4.83 92.883 68.309
4.84 93.868 69.007
4.85 94.697 69.210
4.86 95.152 68.753
4.87 97.156 68.075
4.88 96.959 68.054
4.89 92.207 68.179
4.90 91.748 67.940
4.91 91.596 67.158
4.92 91.675 66.155
4.93 87.691 65.151
4.94 87.541 63.894
4.95 81.663 62.207
4.96 78.225 60.264
4.97 86.270 57.776
4.98 --undefined-- 53.839
4.99 --undefined-- 47.931
5.00 --undefined-- 44.805
5.01 --undefined-- 48.755
5.02 --undefined-- --undefined--
5.03 --undefined-- --undefined--
5.04 --undefined-- --undefined--
5.05 --undefined-- --undefined--
