Time Pitch Intensity
0.01 --undefined-- --undefined--
0.02 209.181 --undefined--
0.03 210.419 --undefined--
0.04 209.334 --undefined--
0.05 206.240 59.738
0.06 204.351 53.661
0.07 --undefined-- 49.205
0.08 --undefined-- 51.625
0.09 --undefined-- 54.060
0.10 --undefined-- 56.860
0.11 --undefined-- 61.676
0.12 --undefined-- 65.207
0.13 183.101 66.629
0.14 179.141 66.412
0.15 178.016 65.543
0.16 178.164 65.252
0.17 176.648 65.836
0.18 174.871 66.769
0.19 174.293 67.841
0.20 174.376 68.876
0.21 177.075 69.541
0.22 181.601 69.810
0.23 187.086 70.144
0.24 192.393 70.609
0.25 200.934 70.654
0.26 213.210 70.485
0.27 224.783 70.317
0.28 236.635 69.737
0.29 250.457 69.310
0.30 253.804 68.856
0.31 257.273 67.148
0.32 263.118 63.825
0.33 252.317 59.453
0.34 --undefined-- 56.380
0.35 --undefined-- 57.680
0.36 --undefined-- 57.834
0.37 --undefined-- 56.445
0.38 --undefined-- 56.620
0.39 --undefined-- 55.914
0.40 --undefined-- 52.715
0.41 --undefined-- 52.038
0.42 --undefined-- 55.125
0.43 --undefined-- 55.694
0.44 --undefined-- 53.931
0.45 --undefined-- 52.874
0.46 --undefined-- 52.739
0.47 --undefined-- 51.947
0.48 --undefined-- 51.338
0.49 --undefined-- 53.294
0.50 --undefined-- 53.560
0.51 --undefined-- 50.654
0.52 --undefined-- 49.012
0.53 --undefined-- 50.124
0.54 --undefined-- 50.930
0.55 --undefined-- 54.272
0.56 --undefined-- 57.575
0.57 --undefined-- 57.404
0.58 --undefined-- 53.981
0.59 --undefined-- 51.000
0.60 --undefined-- 50.055
0.61 --undefined-- 47.836
0.62 --undefined-- 48.274
0.63 --undefined-- 58.619
0.64 152.331 66.048
0.65 151.934 70.043
0.66 154.067 71.501
0.67 156.722 71.403
0.68 159.526 70.923
0.69 160.416 70.729
0.70 159.187 70.461
0.71 156.766 69.551
0.72 154.287 67.726
0.73 151.202 64.693
0.74 147.078 60.140
0.75 --undefined-- 56.427
0.76 --undefined-- 59.941
0.77 168.699 65.851
0.78 167.853 69.583
0.79 167.535 71.271
0.80 167.023 71.650
0.81 164.922 71.353
0.82 164.007 70.873
0.83 163.919 70.342
0.84 162.117 70.248
0.85 159.581 71.126
0.86 158.185 71.813
0.87 156.814 71.084
0.88 154.831 68.306
0.89 143.954 62.995
0.90 --undefined-- 56.387
0.91 --undefined-- 52.929
0.92 --undefined-- 55.907
0.93 --undefined-- 60.459
0.94 --undefined-- 62.064
0.95 247.071 62.160
0.96 239.665 62.713
0.97 243.006 63.137
0.98 247.497 63.964
0.99 246.114 64.921
1.00 210.550 65.660
1.01 186.190 66.439
1.02 184.071 66.964
1.03 179.598 66.652
1.04 178.948 65.685
1.05 181.565 65.281
1.06 184.700 65.601
1.07 185.566 65.927
1.08 185.658 66.070
1.09 186.051 66.043
1.10 187.053 65.538
1.11 186.948 63.997
1.12 186.748 61.170
1.13 207.127 57.875
1.14 --undefined-- 56.706
1.15 --undefined-- 56.300
1.16 --undefined-- 55.162
1.17 --undefined-- 55.261
1.18 --undefined-- 59.350
1.19 220.495 63.653
1.20 226.495 65.947
1.21 231.885 66.603
1.22 238.872 65.980
1.23 248.811 65.303
1.24 274.949 66.357
1.25 291.131 68.304
1.26 154.044 69.862
1.27 164.363 70.461
1.28 171.479 70.147
1.29 176.235 69.384
1.30 178.130 68.322
1.31 176.097 66.246
1.32 166.369 62.581
1.33 162.691 59.628
1.34 175.682 62.240
1.35 168.662 65.972
1.36 158.819 67.559
1.37 297.038 67.803
1.38 283.662 67.768
1.39 268.116 68.217
1.40 257.026 69.420
1.41 250.095 70.254
1.42 243.626 70.182
1.43 239.202 69.907
1.44 237.495 69.571
1.45 235.941 68.425
1.46 234.593 66.203
1.47 235.330 62.872
1.48 239.042 59.162
1.49 240.015 57.389
1.50 --undefined-- 55.493
1.51 --undefined-- 52.599
1.52 --undefined-- 52.595
1.53 --undefined-- 54.412
1.54 --undefined-- 55.606
1.55 --undefined-- 58.680
1.56 --undefined-- 64.657
1.57 168.294 69.907
1.58 162.294 72.439
1.59 164.768 72.993
1.60 169.222 72.589
1.61 171.931 71.613
1.62 173.850 70.215
1.63 175.004 69.128
1.64 175.047 69.130
1.65 175.014 69.679
1.66 174.886 70.188
1.67 174.251 70.432
1.68 172.779 70.233
1.69 169.983 69.588
1.70 165.191 68.594
1.71 159.004 66.929
1.72 156.911 63.958
1.73 170.503 59.641
1.74 168.348 55.577
1.75 --undefined-- 55.900
1.76 --undefined-- 58.977
1.77 --undefined-- 62.430
1.78 223.263 64.638
1.79 203.236 65.650
1.80 191.285 66.362
1.81 181.625 66.734
1.82 179.890 66.676
1.83 181.764 66.193
1.84 183.491 65.379
1.85 182.722 64.928
1.86 188.475 65.194
1.87 193.091 65.393
1.88 198.394 65.108
1.89 207.731 64.897
1.90 217.945 65.433
1.91 230.010 66.184
1.92 238.229 67.033
1.93 241.806 68.021
1.94 245.544 68.780
1.95 249.504 69.416
1.96 254.154 70.220
1.97 257.071 70.759
1.98 258.785 70.039
1.99 261.156 67.864
2.00 263.062 65.130
2.01 261.262 62.271
2.02 250.372 59.175
2.03 259.324 56.245
2.04 261.138 54.933
2.05 --undefined-- 54.336
2.06 --undefined-- 52.522
2.07 --undefined-- 54.151
2.08 --undefined-- 56.803
2.09 --undefined-- 57.090
2.10 --undefined-- 56.576
2.11 --undefined-- 57.916
2.12 --undefined-- 58.504
2.13 --undefined-- 60.106
2.14 248.506 64.213
2.15 244.815 66.621
2.16 239.389 67.320
2.17 237.369 67.653
2.18 237.502 67.718
2.19 237.377 67.210
2.20 235.807 66.534
2.21 233.719 65.818
2.22 232.368 65.049
2.23 229.474 64.858
2.24 225.818 64.895
2.25 220.020 64.489
2.26 210.280 64.593
2.27 200.888 65.188
2.28 189.730 65.405
2.29 181.915 65.144
2.30 171.653 64.276
2.31 163.163 63.505
2.32 166.975 63.758
2.33 169.779 64.018
2.34 167.426 63.178
2.35 163.923 61.426
2.36 158.966 59.452
2.37 166.004 56.788
2.38 --undefined-- 52.962
2.39 --undefined-- 51.365
2.40 --undefined-- 52.515
2.41 --undefined-- 53.039
2.42 --undefined-- 53.604
2.43 --undefined-- 58.825
2.44 227.324 63.626
2.45 224.366 66.003
2.46 220.612 66.869
2.47 217.856 67.179
2.48 217.164 67.416
2.49 216.548 67.650
2.50 216.021 67.571
2.51 216.144 66.940
2.52 217.627 65.893
2.53 219.812 64.427
2.54 219.167 62.323
2.55 210.254 59.249
2.56 206.757 54.966
2.57 --undefined-- 51.356
2.58 --undefined-- 51.955
2.59 --undefined-- 54.059
2.60 --undefined-- 56.229
2.61 --undefined-- 59.555
2.62 --undefined-- 61.467
2.63 --undefined-- 61.021
2.64 140.831 59.662
2.65 138.285 59.458
2.66 138.303 59.676
2.67 146.482 59.266
2.68 145.768 58.988
2.69 144.868 58.610
2.70 148.766 57.944
2.71 152.244 57.905
2.72 155.073 58.234
2.73 160.809 58.457
2.74 164.468 58.376
2.75 174.391 58.570
2.76 181.425 59.409
2.77 181.946 60.532
2.78 183.426 61.065
2.79 185.290 59.877
2.80 184.075 56.999
2.81 --undefined-- 56.663
2.82 --undefined-- 60.417
2.83 213.636 64.441
2.84 206.495 67.530
2.85 199.663 69.832
2.86 196.088 71.381
2.87 194.683 72.272
2.88 195.845 72.829
2.89 196.839 73.188
2.90 197.012 73.435
2.91 196.516 73.652
2.92 195.132 73.886
2.93 192.446 74.278
2.94 189.011 74.640
2.95 182.552 74.731
2.96 --undefined-- 74.410
2.97 --undefined-- 73.282
2.98 --undefined-- 71.172
2.99 --undefined-- 68.100
3.00 --undefined-- 64.292
3.01 --undefined-- 60.463
3.02 --undefined-- 56.431
3.03 --undefined-- 53.295
3.04 --undefined-- 50.979
3.05 --undefined-- 47.860
3.06 --undefined-- 46.900
3.07 --undefined-- 48.345
3.08 --undefined-- 50.998
3.09 --undefined-- 52.417
3.10 --undefined-- 51.933
3.11 --undefined-- 50.041
3.12 --undefined-- 47.592
3.13 --undefined-- 48.550
3.14 --undefined-- 51.351
3.15 --undefined-- 51.825
3.16 --undefined-- 49.770
3.17 --undefined-- 47.517
3.18 --undefined-- 48.459
3.19 --undefined-- 49.860
3.20 --undefined-- 52.890
3.21 --undefined-- 56.438
3.22 --undefined-- 57.194
3.23 --undefined-- 56.579
3.24 --undefined-- 57.154
3.25 --undefined-- 56.397
3.26 --undefined-- 53.151
3.27 --undefined-- 50.834
3.28 --undefined-- 52.202
3.29 287.361 55.164
3.30 282.400 57.117
3.31 285.619 56.993
3.32 284.689 57.017
3.33 283.335 56.896
3.34 283.431 54.312
3.35 --undefined-- 51.602
3.36 --undefined-- 53.019
3.37 --undefined-- 53.699
3.38 --undefined-- 53.661
3.39 --undefined-- 54.150
3.40 --undefined-- 53.015
3.41 --undefined-- 49.979
3.42 --undefined-- 47.956
3.43 --undefined-- 47.346
3.44 --undefined-- 46.195
3.45 --undefined-- 46.935
3.46 --undefined-- 51.807
3.47 --undefined-- 58.010
3.48 181.770 64.352
3.49 181.374 68.619
3.50 179.845 71.021
3.51 174.617 72.320
3.52 166.706 72.942
3.53 158.963 73.047
3.54 152.730 72.431
3.55 286.778 70.852
3.56 266.551 68.744
3.57 238.443 66.717
3.58 221.644 65.257
3.59 206.917 64.498
3.60 191.053 64.222
3.61 187.922 63.205
3.62 184.653 60.735
3.63 184.215 57.487
3.64 --undefined-- 54.153
3.65 --undefined-- 51.336
3.66 --undefined-- 51.494
3.67 --undefined-- 55.825
3.68 --undefined-- 59.430
3.69 --undefined-- 61.521
3.70 --undefined-- 64.893
3.71 165.722 68.931
3.72 166.986 71.549
3.73 169.119 73.445
3.74 167.262 75.175
3.75 159.247 75.855
3.76 149.324 74.809
3.77 147.062 72.214
3.78 150.878 69.449
3.79 297.830 68.067
3.80 291.679 67.115
3.81 263.082 65.572
3.82 238.833 64.184
3.83 231.080 64.983
3.84 232.171 67.266
3.85 237.211 68.931
3.86 238.057 69.324
3.87 238.095 68.933
3.88 238.929 68.435
3.89 242.688 68.092
3.90 246.241 67.668
3.91 248.166 67.136
3.92 254.017 67.428
3.93 264.629 68.433
3.94 269.947 69.157
3.95 274.196 69.538
3.96 277.767 69.805
3.97 284.677 70.022
3.98 292.927 70.009
3.99 292.855 69.687
4.00 287.029 69.550
4.01 279.724 70.062
4.02 270.136 71.161
4.03 261.968 72.342
4.04 255.460 72.907
4.05 249.768 72.472
4.06 241.907 71.422
4.07 237.289 70.814
4.08 234.340 70.681
4.09 234.387 70.560
4.10 235.639 70.068
4.11 238.801 69.140
4.12 242.417 67.874
4.13 241.910 66.330
4.14 238.590 64.639
4.15 237.197 62.545
4.16 232.235 59.599
4.17 233.047 56.440
4.18 237.299 54.418
4.19 239.263 53.685
4.20 236.858 55.117
4.21 271.334 59.451
4.22 285.838 63.688
4.23 157.092 66.922
4.24 166.636 69.081
4.25 170.087 70.264
4.26 172.605 70.726
4.27 176.157 70.804
4.28 180.031 70.915
4.29 181.494 71.143
4.30 181.528 71.220
4.31 179.162 71.119
4.32 174.314 70.756
4.33 169.896 69.815
4.34 163.122 68.020
4.35 155.954 65.023
4.36 157.316 60.642
4.37 168.708 55.889
4.38 --undefined-- 55.714
4.39 --undefined-- 61.014
4.40 242.497 66.056
4.41 238.688 69.143
4.42 240.358 70.318
4.43 244.461 69.799
4.44 251.572 68.238
4.45 262.140 67.183
4.46 275.902 67.282
4.47 291.251 67.798
4.48 295.156 67.686
4.49 294.118 66.073
4.50 287.675 62.517
4.51 --undefined-- 57.666
4.52 --undefined-- 53.393
4.53 --undefined-- 52.245
4.54 --undefined-- 57.255
4.55 --undefined-- 63.274
4.56 248.865 66.792
4.57 234.794 67.919
4.58 220.429 67.781
4.59 213.021 67.518
4.60 210.108 67.675
4.61 209.886 67.521
4.62 212.437 66.613
4.63 217.817 65.503
4.64 220.628 64.268
4.65 219.593 61.960
4.66 198.430 57.953
4.67 208.492 52.681
4.68 --undefined-- 48.223
4.69 --undefined-- 47.052
4.70 --undefined-- 49.419
4.71 --undefined-- 56.908
4.72 299.673 62.585
4.73 288.449 65.404
4.74 290.115 66.263
4.75 291.491 66.128
4.76 287.762 65.036
4.77 281.343 62.109
4.78 --undefined-- 56.466
4.79 --undefined-- 50.045
4.80 --undefined-- 48.816
4.81 --undefined-- 48.419
4.82 --undefined-- 49.347
4.83 --undefined-- 48.991
4.84 --undefined-- 46.913
4.85 --undefined-- 45.864
4.86 --undefined-- 47.472
4.87 --undefined-- 51.103
4.88 --undefined-- 56.226
4.89 155.326 61.950
4.90 152.617 66.107
4.91 155.194 68.770
4.92 156.369 70.210
4.93 156.970 70.540
4.94 157.049 70.113
4.95 155.410 69.683
4.96 154.911 69.538
4.97 156.066 69.559
4.98 156.943 69.638
4.99 156.884 --undefined--
5.00 156.434 --undefined--
5.01 --undefined-- --undefined--
5.02 --undefined-- --undefined--
