Time Pitch Intensity
0.01 --undefined-- --undefined--
0.02 --undefined-- --undefined--
0.03 --undefined-- --undefined--
0.04 --undefined-- --undefined--
0.05 --undefined-- 37.195
0.06 --undefined-- 35.917
0.07 --undefined-- 35.054
0.08 --undefined-- 34.284
0.09 --undefined-- 33.935
0.10 --undefined-- 35.391
0.11 --undefined-- 37.914
0.12 --undefined-- 39.855
0.13 --undefined-- 41.147
0.14 --undefined-- 43.480
0.15 --undefined-- 47.245
0.16 --undefined-- 49.462
0.17 --undefined-- 49.316
0.18 --undefined-- 48.234
0.19 --undefined-- 47.821
0.20 --undefined-- 48.527
0.21 --undefined-- 49.419
0.22 --undefined-- 49.702
0.23 --undefined-- 49.795
0.24 --undefined-- 50.491
0.25 --undefined-- 51.291
0.26 --undefined-- 51.581
0.27 --undefined-- 51.466
0.28 --undefined-- 51.197
0.29 --undefined-- 51.371
0.30 --undefined-- 51.681
0.31 --undefined-- 51.324
0.32 --undefined-- 50.223
0.33 --undefined-- 49.226
0.34 --undefined-- 48.152
0.35 --undefined-- 47.065
0.36 --undefined-- 46.879
0.37 --undefined-- 46.742
0.38 --undefined-- 45.075
0.39 --undefined-- 41.291
0.40 --undefined-- 36.804
0.41 --undefined-- 35.902
0.42 --undefined-- 39.566
0.43 --undefined-- 50.551
0.44 --undefined-- 59.134
0.45 --undefined-- 63.046
0.46 --undefined-- 64.130
0.47 --undefined-- 68.074
0.48 --undefined-- 74.016
0.49 --undefined-- 77.355
0.50 --undefined-- 78.469
0.51 251.962 78.576
0.52 256.862 78.465
0.53 263.618 77.631
0.54 266.858 74.885
0.55 286.761 70.346
0.56 153.389 68.712
0.57 162.770 69.897
0.58 170.921 70.696
0.59 177.053 71.174
0.60 183.595 71.833
0.61 183.775 72.054
0.62 175.584 71.242
0.63 168.995 69.857
0.64 156.063 68.722
0.65 287.806 67.827
0.66 247.003 66.908
0.67 230.270 66.261
0.68 199.517 66.717
0.69 193.975 68.183
0.70 183.118 69.566
0.71 178.793 70.264
0.72 168.873 70.587
0.73 164.540 71.104
0.74 157.837 71.675
0.75 152.434 71.860
0.76 149.007 71.338
0.77 147.249 69.939
0.78 145.553 67.295
0.79 139.866 63.075
0.80 139.782 57.912
0.81 147.278 53.870
0.82 --undefined-- 56.881
0.83 --undefined-- 62.144
0.84 --undefined-- 64.847
0.85 --undefined-- 65.187
0.86 --undefined-- 64.265
0.87 --undefined-- 62.766
0.88 --undefined-- 61.185
0.89 --undefined-- 60.491
0.90 --undefined-- 60.821
0.91 --undefined-- 61.139
0.92 --undefined-- 64.810
0.93 --undefined-- 71.804
0.94 206.834 75.895
0.95 202.382 77.111
0.96 200.979 76.772
0.97 202.316 76.074
0.98 200.780 75.263
0.99 198.726 74.330
1.00 197.133 73.412
1.01 195.540 73.039
1.02 195.401 73.473
1.03 196.024 73.692
1.04 200.971 72.595
1.05 201.307 69.777
1.06 196.785 65.781
1.07 194.782 61.713
1.08 193.077 56.853
1.09 --undefined-- 50.958
1.10 --undefined-- 49.846
1.11 --undefined-- 53.431
1.12 --undefined-- 56.513
1.13 --undefined-- 64.180
1.14 --undefined-- 71.832
1.15 229.722 76.107
1.16 225.492 77.814
1.17 223.905 77.973
1.18 223.500 77.192
1.19 222.580 75.423
1.20 220.539 72.239
1.21 221.492 67.819
1.22 226.558 65.077
1.23 227.084 65.408
1.24 226.607 66.153
1.25 226.220 66.609
1.26 225.867 66.829
1.27 225.354 66.971
1.28 224.944 67.308
1.29 225.200 69.072
1.30 227.324 72.702
1.31 226.907 75.123
1.32 223.275 75.632
1.33 222.613 75.774
1.34 222.105 76.193
1.35 221.115 76.342
1.36 221.218 76.440
1.37 219.681 76.401
1.38 219.485 76.162
1.39 219.174 76.055
1.40 219.013 76.037
1.41 218.713 76.002
1.42 217.835 75.762
1.43 215.891 75.016
1.44 214.883 74.301
1.45 214.497 74.396
1.46 212.716 74.660
1.47 210.125 74.530
1.48 208.171 73.903
1.49 206.977 72.952
1.50 199.649 72.462
1.51 191.588 73.242
1.52 184.173 74.768
1.53 179.449 75.954
1.54 175.698 76.324
1.55 166.367 76.519
1.56 169.908 76.851
1.57 157.203 76.670
1.58 155.398 76.357
1.59 155.602 76.131
1.60 155.177 75.405
1.61 155.045 74.257
1.62 156.448 73.437
1.63 158.938 72.620
1.64 160.653 70.344
1.65 158.539 65.685
1.66 --undefined-- 58.457
1.67 --undefined-- 50.410
1.68 --undefined-- 46.119
1.69 --undefined-- 45.640
1.70 --undefined-- 55.547
1.71 --undefined-- 65.803
1.72 --undefined-- 71.776
1.73 --undefined-- 74.448
1.74 139.902 75.061
1.75 137.975 74.431
1.76 133.334 72.806
1.77 127.884 70.935
1.78 --undefined-- 69.282
1.79 110.911 67.837
1.80 110.937 66.603
1.81 113.701 65.760
1.82 114.805 65.450
1.83 115.591 64.812
1.84 120.442 63.531
1.85 122.539 61.374
1.86 --undefined-- 58.017
1.87 --undefined-- 53.460
1.88 --undefined-- 48.843
1.89 --undefined-- 47.821
1.90 --undefined-- 48.570
1.91 --undefined-- 49.113
1.92 --undefined-- 49.764
1.93 --undefined-- 51.170
1.94 --undefined-- 52.218
1.95 --undefined-- 52.480
1.96 --undefined-- 52.269
1.97 --undefined-- 51.641
1.98 --undefined-- 50.891
1.99 --undefined-- 50.146
2.00 --undefined-- 49.533
2.01 --undefined-- 49.193
2.02 --undefined-- 51.426
2.03 --undefined-- 56.489
2.04 115.655 60.190
2.05 116.845 62.528
2.06 97.841 64.069
2.07 94.894 65.188
2.08 94.087 66.263
2.09 90.132 66.994
2.10 88.830 66.833
2.11 86.807 65.316
2.12 86.170 62.216
2.13 --undefined-- 58.148
2.14 --undefined-- 55.791
2.15 --undefined-- 58.048
2.16 --undefined-- 64.754
2.17 146.457 70.682
2.18 149.084 74.359
2.19 151.418 76.075
2.20 160.686 76.543
2.21 164.448 76.400
2.22 168.862 75.894
2.23 177.219 75.416
2.24 182.336 75.087
2.25 190.362 74.318
2.26 191.644 72.643
2.27 192.209 70.148
2.28 191.211 66.877
2.29 188.927 62.157
2.30 190.465 55.724
2.31 --undefined-- 48.728
2.32 --undefined-- 42.348
2.33 --undefined-- 38.415
2.34 --undefined-- 37.605
2.35 --undefined-- 37.898
2.36 --undefined-- 37.713
2.37 --undefined-- 36.593
2.38 --undefined-- 35.703
2.39 --undefined-- 35.634
2.40 --undefined-- 36.586
2.41 --undefined-- 38.203
2.42 --undefined-- 39.546
2.43 --undefined-- 39.808
2.44 --undefined-- 39.231
2.45 --undefined-- 39.144
2.46 --undefined-- 39.573
2.47 --undefined-- 39.365
2.48 --undefined-- 38.984
2.49 --undefined-- 39.236
2.50 --undefined-- 39.712
2.51 --undefined-- 39.637
2.52 --undefined-- 39.163
2.53 --undefined-- 38.492
2.54 --undefined-- 37.671
2.55 --undefined-- 37.176
2.56 --undefined-- 36.828
2.57 --undefined-- 36.383
2.58 --undefined-- 36.385
2.59 --undefined-- 36.622
2.60 --undefined-- 36.510
2.61 --undefined-- 36.624
2.62 --undefined-- 36.996
2.63 --undefined-- 36.755
2.64 --undefined-- 35.523
2.65 --undefined-- 34.666
2.66 --undefined-- 35.841
2.67 --undefined-- 36.967
2.68 --undefined-- 36.622
2.69 --undefined-- 36.589
2.70 --undefined-- 38.104
2.71 --undefined-- 39.198
2.72 --undefined-- 38.390
2.73 --undefined-- 36.677
2.74 --undefined-- 35.995
2.75 --undefined-- 35.111
2.76 --undefined-- 34.870
2.77 --undefined-- 35.312
2.78 --undefined-- 35.072
2.79 --undefined-- 35.069
2.80 --undefined-- 35.243
2.81 --undefined-- 34.605
2.82 --undefined-- 34.094
2.83 --undefined-- 34.433
2.84 --undefined-- 34.936
2.85 --undefined-- 36.791
2.86 --undefined-- 38.520
2.87 --undefined-- 38.715
2.88 --undefined-- 37.854
2.89 --undefined-- 37.040
2.90 --undefined-- 36.695
2.91 --undefined-- 35.711
2.92 --undefined-- 34.602
2.93 --undefined-- 34.606
2.94 --undefined-- 35.124
2.95 --undefined-- 34.976
2.96 --undefined-- 34.243
2.97 --undefined-- 34.489
2.98 --undefined-- 35.887
2.99 --undefined-- 44.868
3.00 --undefined-- 56.953
3.01 --undefined-- 64.924
3.02 --undefined-- 68.442
3.03 --undefined-- 67.716
3.04 --undefined-- 63.275
3.05 --undefined-- 59.445
3.06 --undefined-- 62.646
3.07 --undefined-- 68.941
3.08 181.843 73.540
3.09 171.351 75.632
3.10 166.350 75.748
3.11 166.102 75.132
3.12 165.979 75.091
3.13 158.635 75.126
3.14 156.396 74.594
3.15 157.738 73.533
3.16 158.553 72.183
3.17 158.433 71.332
3.18 158.041 71.157
3.19 157.252 71.195
3.20 156.639 71.263
3.21 155.988 71.322
3.22 155.025 71.404
3.23 154.421 71.537
3.24 153.703 71.574
3.25 152.725 71.433
3.26 151.487 71.115
3.27 150.371 70.706
3.28 149.732 70.393
3.29 149.149 70.248
3.30 148.761 70.240
3.31 148.666 70.297
3.32 149.135 70.351
3.33 149.278 70.420
3.34 148.330 70.419
3.35 147.491 70.264
3.36 146.084 70.025
3.37 145.490 69.747
3.38 146.003 69.614
3.39 145.774 69.720
3.40 144.938 69.771
3.41 144.325 69.722
3.42 143.055 69.810
3.43 137.557 70.267
3.44 131.167 70.778
3.45 129.923 70.464
3.46 128.906 68.735
3.47 122.958 65.398
3.48 123.544 60.624
3.49 130.260 55.079
3.50 --undefined-- 49.411
3.51 --undefined-- 44.070
3.52 --undefined-- 43.217
3.53 --undefined-- 47.884
3.54 --undefined-- 53.763
3.55 --undefined-- 58.421
3.56 --undefined-- 61.441
3.57 --undefined-- 63.720
3.58 --undefined-- 65.626
3.59 --undefined-- 67.452
3.60 --undefined-- 69.530
3.61 --undefined-- 70.861
3.62 --undefined-- 71.486
3.63 --undefined-- 71.731
3.64 --undefined-- 71.295
3.65 --undefined-- 71.451
3.66 --undefined-- 73.278
3.67 140.220 74.700
3.68 141.441 74.841
3.69 137.711 74.092
3.70 137.938 73.437
3.71 139.885 73.994
3.72 139.152 74.674
3.73 130.571 74.632
3.74 132.622 74.406
3.75 133.384 74.322
3.76 135.411 74.108
3.77 144.122 73.685
3.78 148.458 72.601
3.79 156.393 70.395
3.80 160.994 67.568
3.81 161.671 63.779
3.82 162.534 58.136
3.83 173.081 52.954
3.84 --undefined-- 51.925
3.85 --undefined-- 58.092
3.86 --undefined-- 66.484
3.87 206.050 72.534
3.88 205.499 75.693
3.89 203.761 76.750
3.90 202.013 76.909
3.91 200.474 76.892
3.92 199.504 76.581
3.93 199.349 75.577
3.94 197.899 74.032
3.95 197.075 73.279
3.96 194.070 73.355
3.97 189.218 73.611
3.98 185.586 74.078
3.99 181.001 74.754
4.00 175.417 76.094
4.01 167.523 77.432
4.02 158.805 77.695
4.03 151.935 76.445
4.04 --undefined-- 74.018
4.05 127.657 71.303
4.06 123.131 68.663
4.07 117.847 65.817
4.08 114.742 63.213
4.09 99.606 62.616
4.10 100.273 63.013
4.11 96.596 63.034
4.12 96.312 62.864
4.13 97.594 62.557
4.14 98.214 61.809
4.15 97.625 59.841
4.16 96.230 56.430
4.17 --undefined-- 55.681
4.18 --undefined-- 59.016
4.19 --undefined-- 62.135
4.20 127.076 65.607
4.21 134.910 69.558
4.22 139.088 73.059
4.23 142.122 75.477
4.24 145.771 76.585
4.25 147.681 76.618
4.26 149.522 76.276
4.27 152.047 76.124
4.28 154.272 76.114
4.29 156.127 76.067
4.30 157.125 75.945
4.31 158.261 75.624
4.32 160.002 75.151
4.33 161.534 74.718
4.34 163.393 74.255
4.35 164.616 73.716
4.36 165.362 73.503
4.37 165.034 73.650
4.38 163.765 73.841
4.39 162.727 73.877
4.40 162.712 73.539
4.41 163.201 72.422
4.42 164.447 69.985
4.43 166.427 65.926
4.44 176.578 61.980
4.45 177.568 59.604
4.46 169.363 57.497
4.47 168.317 54.651
4.48 --undefined-- 50.565
4.49 --undefined-- 46.503
4.50 --undefined-- 43.319
4.51 --undefined-- 40.920
4.52 --undefined-- 39.686
4.53 --undefined-- 38.278
4.54 --undefined-- 36.604
4.55 --undefined-- 36.051
4.56 --undefined-- 35.484
4.57 --undefined-- 34.085
4.58 --undefined-- 33.198
4.59 --undefined-- 33.314
4.60 --undefined-- 34.113
4.61 --undefined-- 34.438
4.62 --undefined-- 33.531
4.63 --undefined-- 32.696
4.64 --undefined-- 32.743
4.65 --undefined-- 33.061
4.66 --undefined-- 33.271
4.67 --undefined-- 33.018
4.68 --undefined-- 33.582
4.69 --undefined-- 35.921
4.70 --undefined-- 37.437
4.71 --undefined-- 36.997
4.72 --undefined-- 35.768
4.73 --undefined-- 35.268
4.74 --undefined-- 34.899
4.75 --undefined-- 35.521
4.76 --undefined-- 36.843
4.77 --undefined-- 37.586
4.78 --undefined-- 38.267
4.79 --undefined-- 45.229
4.80 --undefined-- 54.356
4.81 --undefined-- 60.429
4.82 --undefined-- 63.007
4.83 --undefined-- 63.010
4.84 --undefined-- 63.858
4.85 146.575 67.614
4.86 152.955 70.991
4.87 142.365 73.148
4.88 140.756 74.199
4.89 136.412 74.432
4.90 135.981 74.148
4.91 135.659 73.629
4.92 134.168 73.081
4.93 131.038 72.436
4.94 128.085 71.911
4.95 124.981 71.864
4.96 123.267 72.110
4.97 120.787 72.489
4.98 119.442 72.772
4.99 118.486 72.888
5.00 117.641 72.807
5.01 117.914 72.345
5.02 116.907 71.581
5.03 115.518 70.722
5.04 114.334 69.142
5.05 --undefined-- 65.776
5.06 --undefined-- 59.937
5.07 --undefined-- 53.686
5.08 --undefined-- 49.896
5.09 --undefined-- 46.191
5.10 --undefined-- 41.401
5.11 --undefined-- 38.748
5.12 --undefined-- 47.619
5.13 --undefined-- 56.499
5.14 --undefined-- 63.858
5.15 --undefined-- 69.457
5.16 155.420 72.557
5.17 152.829 73.418
5.18 151.578 73.333
5.19 153.968 73.358
5.20 158.319 73.037
5.21 160.791 71.846
5.22 161.917 69.715
5.23 164.010 66.516
5.24 166.581 62.299
5.25 179.000 59.366
5.26 198.497 63.587
5.27 197.379 69.377
5.28 193.790 73.242
5.29 188.437 75.129
5.30 182.109 75.386
5.31 173.708 75.046
5.32 168.137 75.153
5.33 163.933 75.452
5.34 160.445 75.460
5.35 156.995 74.927
5.36 154.023 73.852
5.37 151.871 72.322
5.38 150.772 70.192
5.39 148.603 67.058
5.40 --undefined-- 63.386
5.41 --undefined-- 59.726
5.42 --undefined-- 54.576
5.43 --undefined-- 46.889
5.44 --undefined-- 41.248
5.45 --undefined-- 38.199
5.46 --undefined-- 36.053
5.47 --undefined-- 34.173
5.48 --undefined-- 33.393
5.49 --undefined-- 33.811
5.50 --undefined-- 34.264
5.51 --undefined-- 35.455
5.52 --undefined-- 36.270
5.53 --undefined-- 36.450
5.54 --undefined-- 36.481
5.55 --undefined-- 36.244
5.56 --undefined-- 43.740
5.57 --undefined-- 56.677
5.58 --undefined-- 64.885
5.59 --undefined-- 69.107
5.60 --undefined-- 71.054
5.61 --undefined-- 73.284
5.62 199.979 76.041
5.63 191.228 77.336
5.64 187.602 77.229
5.65 185.961 76.698
5.66 184.608 76.260
5.67 182.964 75.904
5.68 182.257 75.557
5.69 181.435 75.221
5.70 180.018 75.080
5.71 179.409 75.219
5.72 178.906 75.400
5.73 178.477 75.497
5.74 178.540 75.556
5.75 179.182 75.607
5.76 179.793 75.657
5.77 180.306 75.715
5.78 180.512 75.771
5.79 180.670 76.008
5.80 179.909 76.723
5.81 179.115 77.758
5.82 177.044 78.582
5.83 174.426 78.481
5.84 169.978 76.950
5.85 164.910 74.398
5.86 163.583 72.360
5.87 162.192 70.408
5.88 159.276 66.980
5.89 160.009 62.972
5.90 155.219 61.460
5.91 149.367 60.964
5.92 144.869 60.241
5.93 142.229 59.147
5.94 140.849 58.235
5.95 139.489 57.685
5.96 139.329 57.348
5.97 138.391 57.031
5.98 139.168 56.474
5.99 138.810 55.470
6.00 138.639 53.851
6.01 --undefined-- 52.374
6.02 --undefined-- 54.035
6.03 --undefined-- 57.540
6.04 --undefined-- 62.207
6.05 --undefined-- 66.482
6.06 144.093 68.445
6.07 138.798 68.293
6.08 135.998 68.004
6.09 134.221 69.071
6.10 132.925 70.377
6.11 133.511 71.171
6.12 133.753 71.863
6.13 134.001 72.630
6.14 133.377 73.071
6.15 131.997 72.742
6.16 133.201 71.367
6.17 133.812 68.431
6.18 131.182 63.485
6.19 --undefined-- 57.383
6.20 --undefined-- 51.934
6.21 --undefined-- 49.272
6.22 --undefined-- 52.584
6.23 --undefined-- 58.367
6.24 170.869 64.006
6.25 161.007 68.136
6.26 157.871 70.429
6.27 157.275 71.467
6.28 157.050 --undefined--
6.29 157.382 --undefined--
6.30 --undefined-- --undefined--
6.31 --undefined-- --undefined--
