Time Pitch Intensity
0.01 --undefined-- --undefined--
0.02 --undefined-- --undefined--
0.03 --undefined-- --undefined--
0.04 --undefined-- --undefined--
0.05 161.263 76.492
0.06 159.288 77.036
0.07 159.169 77.051
0.08 162.177 77.029
0.09 165.501 76.880
0.10 167.241 76.224
0.11 165.408 74.302
0.12 162.097 70.335
0.13 163.015 64.377
0.14 162.984 59.619
0.15 162.710 58.725
0.16 --undefined-- 61.217
0.17 --undefined-- 63.751
0.18 --undefined-- 65.693
0.19 --undefined-- 68.190
0.20 --undefined-- 70.413
0.21 --undefined-- 71.075
0.22 --undefined-- 70.167
0.23 --undefined-- 68.626
0.24 --undefined-- 67.304
0.25 --undefined-- 65.955
0.26 --undefined-- 67.133
0.27 --undefined-- 71.987
0.28 145.170 75.665
0.29 138.364 77.031
0.30 124.649 76.801
0.31 106.664 76.254
0.32 100.646 75.954
0.33 97.835 75.717
0.34 96.995 75.179
0.35 85.788 74.300
0.36 85.676 73.543
0.37 89.290 72.634
0.38 83.928 71.288
0.39 90.778 71.034
0.40 95.907 72.267
0.41 100.881 73.603
0.42 102.613 74.757
0.43 105.589 75.732
0.44 107.929 76.212
0.45 109.472 76.030
0.46 108.555 75.210
0.47 107.364 73.427
0.48 105.078 70.509
0.49 111.789 66.600
0.50 111.348 61.879
0.51 --undefined-- 60.306
0.52 --undefined-- 67.339
0.53 --undefined-- 73.362
0.54 151.676 75.937
0.55 134.329 76.051
0.56 129.710 75.730
0.57 126.956 76.191
0.58 126.591 76.798
0.59 126.251 76.911
0.60 122.995 76.568
0.61 127.168 76.291
0.62 128.300 76.185
0.63 123.480 75.436
0.64 120.356 73.302
0.65 117.987 69.610
0.66 124.157 64.804
0.67 124.900 60.306
0.68 124.580 57.823
0.69 124.895 55.915
0.70 126.558 53.606
0.71 121.347 52.336
0.72 121.690 54.924
0.73 --undefined-- 63.834
0.74 189.405 71.356
0.75 161.319 75.566
0.76 151.935 77.315
0.77 150.543 77.768
0.78 148.734 77.874
0.79 147.193 77.954
0.80 146.805 77.946
0.81 146.820 77.819
0.82 147.050 77.584
0.83 146.835 77.278
0.84 145.448 76.879
0.85 142.239 76.272
0.86 137.167 75.484
0.87 133.735 75.027
0.88 132.118 75.529
0.89 131.411 76.277
0.90 130.021 76.556
0.91 126.758 76.563
0.92 121.414 76.708
0.93 119.671 77.026
0.94 118.598 77.127
0.95 117.565 76.842
0.96 116.495 76.429
0.97 115.568 76.003
0.98 116.279 75.581
0.99 118.658 75.571
1.00 121.752 75.949
1.01 124.648 76.179
1.02 127.684 76.194
1.03 131.196 76.425
1.04 136.216 77.046
1.05 136.702 77.359
1.06 136.593 77.031
1.07 135.889 76.528
1.08 135.365 76.092
1.09 134.014 75.768
1.10 131.363 75.630
1.11 128.864 75.352
1.12 126.382 74.388
1.13 120.794 72.917
1.14 117.771 71.926
1.15 114.383 71.987
1.16 114.056 72.829
1.17 113.892 73.889
1.18 112.753 74.698
1.19 112.040 75.083
1.20 112.362 75.225
1.21 113.287 75.394
1.22 115.024 75.736
1.23 117.420 76.282
1.24 118.862 76.707
1.25 119.101 76.689
1.26 118.096 75.957
1.27 110.517 73.853
1.28 101.589 70.347
1.29 99.044 67.715
1.30 126.352 70.930
1.31 131.905 75.096
1.32 117.385 76.840
1.33 115.127 76.778
1.34 107.645 76.218
1.35 102.298 76.084
1.36 101.347 75.919
1.37 100.493 75.492
1.38 96.626 74.830
1.39 94.685 73.814
1.40 94.009 73.275
1.41 94.831 73.649
1.42 93.806 74.126
1.43 93.354 74.460
1.44 92.616 74.695
1.45 91.788 74.814
1.46 91.801 74.873
1.47 92.741 75.044
1.48 93.799 75.223
1.49 94.918 75.331
1.50 95.744 75.446
1.51 96.298 75.610
1.52 98.703 75.753
1.53 100.180 75.806
1.54 105.235 75.752
1.55 104.392 75.733
1.56 103.655 75.966
1.57 102.947 76.181
1.58 103.273 76.297
1.59 104.208 76.419
1.60 106.438 76.476
1.61 107.141 76.309
1.62 108.841 76.079
1.63 108.756 75.468
1.64 106.786 73.614
1.65 105.496 70.351
1.66 107.782 66.324
1.67 110.623 61.577
1.68 108.084 56.070
1.69 --undefined-- 53.411
1.70 --undefined-- 52.652
1.71 --undefined-- 50.386
1.72 --undefined-- 46.304
1.73 --undefined-- 43.344
1.74 --undefined-- 43.050
1.75 --undefined-- 43.033
1.76 --undefined-- 42.526
1.77 --undefined-- 40.768
1.78 --undefined-- 39.100
1.79 --undefined-- 39.515
1.80 --undefined-- 43.324
1.81 --undefined-- 46.774
1.82 --undefined-- 47.699
1.83 --undefined-- 49.079
1.84 --undefined-- 57.744
1.85 --undefined-- 66.262
1.86 148.423 71.080
1.87 150.460 73.318
1.88 136.236 75.289
1.89 127.483 77.104
1.90 118.985 77.803
1.91 116.325 77.747
1.92 113.586 77.549
1.93 111.420 77.482
1.94 107.744 77.411
1.95 103.982 77.264
1.96 101.600 77.044
1.97 100.051 76.827
1.98 100.076 76.655
1.99 101.129 76.560
2.00 103.293 76.552
2.01 105.585 76.096
2.02 112.951 74.392
2.03 115.756 70.813
2.04 105.309 65.382
2.05 103.652 59.902
2.06 123.755 57.074
2.07 123.204 56.607
2.08 --undefined-- 57.723
2.09 --undefined-- 58.609
2.10 --undefined-- 59.809
2.11 --undefined-- 66.022
2.12 --undefined-- 72.722
2.13 151.608 76.326
2.14 149.806 77.498
2.15 147.943 77.608
2.16 145.855 77.520
2.17 142.954 77.139
2.18 140.086 75.860
2.19 137.280 72.945
2.20 144.819 69.998
2.21 155.514 72.628
2.22 151.467 75.706
2.23 142.604 76.813
2.24 135.220 76.810
2.25 129.758 76.750
2.26 125.387 76.958
2.27 122.103 77.126
2.28 119.567 76.950
2.29 117.868 76.539
2.30 117.324 76.169
2.31 117.160 75.823
2.32 116.555 74.833
2.33 112.376 72.363
2.34 105.499 68.991
2.35 107.701 67.474
2.36 119.266 67.949
2.37 131.352 71.135
2.38 147.511 75.253
2.39 139.127 77.431
2.40 132.687 77.764
2.41 130.777 77.377
2.42 130.334 76.977
2.43 129.880 76.636
2.44 129.229 76.215
2.45 128.256 75.548
2.46 126.906 74.422
2.47 125.340 72.656
2.48 133.508 70.085
2.49 132.476 66.325
2.50 --undefined-- 62.143
2.51 --undefined-- 58.790
2.52 --undefined-- 55.817
2.53 --undefined-- 53.463
2.54 --undefined-- 57.987
2.55 --undefined-- 67.216
2.56 --undefined-- 72.761
2.57 100.178 75.178
2.58 88.072 75.694
2.59 90.487 75.610
2.60 91.672 75.416
2.61 93.807 74.971
2.62 94.998 74.483
2.63 93.713 74.176
2.64 93.260 74.026
2.65 93.721 73.908
2.66 94.788 73.891
2.67 96.315 74.176
2.68 98.587 74.804
2.69 101.902 75.679
2.70 106.993 76.578
2.71 110.945 76.972
2.72 112.256 76.227
2.73 107.857 74.019
2.74 104.177 70.892
2.75 112.181 67.664
2.76 117.602 63.700
2.77 109.477 61.135
2.78 --undefined-- 68.484
2.79 --undefined-- 74.515
2.80 --undefined-- 77.202
2.81 134.698 77.509
2.82 127.370 77.133
2.83 123.344 77.226
2.84 122.889 77.444
2.85 122.874 77.405
2.86 122.035 77.195
2.87 121.217 77.101
2.88 120.600 77.082
2.89 120.069 77.030
2.90 119.741 77.053
2.91 119.028 76.933
2.92 117.313 76.655
2.93 115.404 76.770
2.94 113.984 77.140
2.95 112.186 77.325
2.96 111.965 77.326
2.97 112.400 77.082
2.98 111.959 76.074
2.99 109.582 73.636
3.00 113.623 69.668
3.01 112.386 64.989
3.02 113.514 61.302
3.03 116.023 61.852
3.04 --undefined-- 69.116
3.05 --undefined-- 74.518
3.06 --undefined-- 76.728
3.07 126.890 76.902
3.08 123.615 76.787
3.09 123.262 77.102
3.10 123.873 77.336
3.11 123.872 77.324
3.12 121.399 76.847
3.13 119.605 75.071
3.14 104.945 70.935
3.15 105.245 63.898
3.16 123.344 56.579
3.17 122.206 55.881
3.18 --undefined-- 58.204
3.19 --undefined-- 60.218
3.20 --undefined-- 61.180
3.21 --undefined-- 61.178
3.22 --undefined-- 60.135
3.23 --undefined-- 58.487
3.24 --undefined-- 57.459
3.25 --undefined-- 57.156
3.26 --undefined-- 57.187
3.27 --undefined-- 57.750
3.28 --undefined-- 58.341
3.29 --undefined-- 58.729
3.30 --undefined-- 58.850
3.31 --undefined-- 58.637
3.32 --undefined-- 57.893
3.33 --undefined-- 57.055
3.34 --undefined-- 56.710
3.35 --undefined-- 56.476
3.36 --undefined-- 56.224
3.37 --undefined-- 56.121
3.38 --undefined-- 55.853
3.39 --undefined-- 55.372
3.40 --undefined-- 55.074
3.41 --undefined-- 55.297
3.42 --undefined-- 55.595
3.43 --undefined-- 54.936
3.44 --undefined-- 53.674
3.45 --undefined-- 52.998
3.46 --undefined-- 52.745
3.47 --undefined-- 52.021
3.48 --undefined-- 49.795
3.49 --undefined-- 48.171
3.50 --undefined-- 51.405
3.51 --undefined-- 53.614
3.52 --undefined-- 59.333
3.53 193.361 68.324
3.54 183.159 73.713
3.55 165.569 75.923
3.56 161.623 76.366
3.57 161.745 76.373
3.58 161.847 76.316
3.59 158.874 76.452
3.60 157.009 76.917
3.61 155.518 77.141
3.62 151.631 76.745
3.63 146.956 76.123
3.64 143.885 75.770
3.65 141.815 75.641
3.66 139.706 75.563
3.67 137.669 75.511
3.68 135.764 75.603
3.69 134.552 75.736
3.70 133.808 75.843
3.71 133.105 75.869
3.72 132.149 75.359
3.73 --undefined-- 73.275
3.74 --undefined-- 68.818
3.75 --undefined-- 63.329
3.76 --undefined-- 61.126
3.77 --undefined-- 61.313
3.78 --undefined-- 67.541
3.79 --undefined-- 73.317
3.80 --undefined-- 75.858
3.81 --undefined-- 75.981
3.82 123.366 75.361
3.83 121.808 75.185
3.84 122.867 75.376
3.85 124.196 75.383
3.86 123.487 74.700
3.87 121.187 73.861
3.88 124.831 74.016
3.89 125.216 74.510
3.90 125.880 74.985
3.91 124.739 75.467
3.92 124.538 75.732
3.93 124.681 75.892
3.94 125.357 76.016
3.95 125.921 76.065
3.96 126.215 75.946
3.97 126.766 75.642
3.98 127.373 75.256
3.99 128.400 74.862
4.00 132.630 74.826
4.01 138.490 75.418
4.02 144.712 76.254
4.03 154.922 77.061
4.04 158.712 77.753
4.05 160.604 78.194
4.06 162.692 78.200
4.07 164.559 77.790
4.08 164.604 76.985
4.09 162.607 75.314
4.10 162.832 71.969
4.11 163.501 67.205
4.12 162.698 62.801
4.13 162.283 59.221
4.14 159.807 56.613
4.15 158.996 56.571
4.16 159.888 57.305
4.17 163.128 58.827
4.18 172.471 65.180
4.19 199.270 71.824
4.20 186.408 75.379
4.21 179.070 76.483
4.22 177.911 76.547
4.23 174.614 76.598
4.24 172.474 76.472
4.25 169.688 75.353
4.26 161.210 72.558
4.27 160.508 68.791
4.28 164.987 69.083
4.29 173.512 73.655
4.30 166.387 76.400
4.31 162.460 77.215
4.32 155.507 77.178
4.33 144.176 76.792
4.34 136.909 76.476
4.35 132.567 76.338
4.36 128.599 76.202
4.37 125.232 76.177
4.38 123.345 76.322
4.39 122.493 76.490
4.40 121.483 76.420
4.41 121.015 76.002
4.42 121.536 75.578
4.43 122.853 75.635
4.44 125.565 76.080
4.45 128.505 76.514
4.46 134.561 76.796
4.47 136.477 76.723
4.48 138.041 76.533
4.49 139.481 76.426
4.50 139.934 76.174
4.51 139.319 75.842
4.52 137.856 75.404
4.53 136.195 74.510
4.54 135.419 72.594
4.55 129.019 68.998
4.56 138.562 63.274
4.57 137.807 58.481
4.58 134.444 58.420
4.59 134.666 61.699
4.60 --undefined-- 68.955
4.61 152.687 73.720
4.62 137.294 75.339
4.63 131.617 75.063
4.64 125.355 74.333
4.65 122.754 73.871
4.66 142.364 73.772
4.67 144.060 74.059
4.68 145.615 74.556
4.69 145.099 75.000
4.70 145.784 75.606
4.71 132.923 76.238
4.72 120.247 76.529
4.73 118.278 76.536
4.74 116.218 76.410
4.75 116.960 76.369
4.76 117.420 76.366
4.77 115.819 76.199
4.78 113.266 75.949
4.79 110.294 75.885
4.80 109.204 76.056
4.81 109.564 76.324
4.82 109.955 76.632
4.83 109.849 76.671
4.84 109.187 75.767
4.85 106.403 73.238
4.86 102.266 69.193
4.87 --undefined-- 64.577
4.88 --undefined-- 59.424
4.89 --undefined-- 54.653
4.90 --undefined-- 62.907
4.91 --undefined-- 71.007
4.92 --undefined-- 75.349
4.93 --undefined-- 76.680
4.94 127.676 75.908
4.95 116.644 74.555
4.96 109.866 73.403
4.97 110.164 72.771
4.98 114.392 73.112
4.99 115.449 73.691
5.00 115.164 74.482
5.01 115.019 75.164
5.02 115.217 75.285
5.03 117.682 75.514
5.04 120.863 --undefined--
5.05 119.352 --undefined--
5.06 --undefined-- --undefined--
5.07 --undefined-- --undefined--
