Time Pitch Intensity
0.01 --undefined-- --undefined--
0.02 --undefined-- --undefined--
0.03 --undefined-- --undefined--
0.04 --undefined-- --undefined--
0.05 --undefined-- 46.684
0.06 --undefined-- 47.085
0.07 --undefined-- 47.145
0.08 --undefined-- 47.418
0.09 --undefined-- 48.145
0.10 --undefined-- 48.902
0.11 --undefined-- 49.525
0.12 --undefined-- 50.086
0.13 --undefined-- 50.171
0.14 --undefined-- 50.430
0.15 --undefined-- 51.045
0.16 --undefined-- 51.501
0.17 --undefined-- 51.441
0.18 --undefined-- 50.657
0.19 --undefined-- 49.013
0.20 --undefined-- 46.299
0.21 --undefined-- 42.461
0.22 --undefined-- 40.514
0.23 --undefined-- 41.921
0.24 --undefined-- 49.708
0.25 --undefined-- 60.147
0.26 172.720 66.948
0.27 174.779 70.764
0.28 178.224 72.706
0.29 180.620 73.700
0.30 182.201 74.127
0.31 181.711 73.850
0.32 175.374 72.765
0.33 167.124 71.254
0.34 161.139 69.691
0.35 157.409 69.085
0.36 164.431 71.663
0.37 171.786 74.258
0.38 158.869 74.873
0.39 154.678 74.153
0.40 151.413 72.996
0.41 151.474 71.498
0.42 152.576 69.503
0.43 157.860 67.370
0.44 165.507 66.142
0.45 170.341 66.083
0.46 171.962 66.520
0.47 173.372 66.954
0.48 173.761 67.063
0.49 173.820 66.841
0.50 172.014 66.890
0.51 167.880 68.297
0.52 164.459 70.797
0.53 160.516 73.013
0.54 154.358 74.123
0.55 150.384 74.158
0.56 147.957 73.720
0.57 144.925 73.172
0.58 140.243 72.185
0.59 134.694 70.745
0.60 132.189 69.947
0.61 130.713 70.460
0.62 127.338 71.142
0.63 125.036 71.215
0.64 121.022 70.747
0.65 116.606 70.373
0.66 114.675 70.496
0.67 113.341 70.848
0.68 113.467 71.210
0.69 113.416 71.437
0.70 114.735 71.571
0.71 115.184 71.279
0.72 125.054 69.493
0.73 114.738 65.379
0.74 106.112 59.253
0.75 --undefined-- 58.377
0.76 --undefined-- 65.582
0.77 135.246 70.367
0.78 132.202 71.986
0.79 122.742 71.451
0.80 118.125 70.211
0.81 112.314 68.978
0.82 107.759 67.893
0.83 108.154 67.365
0.84 109.948 67.250
0.85 109.146 67.213
0.86 107.833 67.270
0.87 107.464 67.389
0.88 106.812 67.526
0.89 106.968 67.881
0.90 109.711 68.305
0.91 109.909 68.566
0.92 113.074 69.432
0.93 116.373 70.644
0.94 121.677 71.516
0.95 126.407 72.219
0.96 131.684 72.934
0.97 136.014 73.501
0.98 139.518 73.822
0.99 143.492 73.928
1.00 144.786 73.842
1.01 144.871 73.483
1.02 143.182 72.283
1.03 140.216 69.358
1.04 133.897 64.555
1.05 132.634 59.809
1.06 132.441 57.169
1.07 131.548 54.739
1.08 139.098 52.582
1.09 138.720 51.119
1.10 141.932 50.813
1.11 --undefined-- 58.401
1.12 --undefined-- 66.892
1.13 187.083 71.863
1.14 177.804 74.015
1.15 177.726 74.499
1.16 177.482 74.175
1.17 175.899 73.279
1.18 172.997 71.977
1.19 171.576 70.416
1.20 168.008 68.314
1.21 163.435 65.243
1.22 158.625 62.035
1.23 171.719 64.932
1.24 179.603 69.914
1.25 171.267 72.119
1.26 165.369 72.338
1.27 157.962 71.975
1.28 152.730 71.763
1.29 149.704 71.682
1.30 147.017 71.210
1.31 142.463 69.159
1.32 141.027 64.729
1.33 144.658 59.259
1.34 144.529 57.778
1.35 141.972 59.242
1.36 142.961 62.175
1.37 155.245 67.260
1.38 156.524 71.957
1.39 153.426 74.535
1.40 153.658 75.392
1.41 154.791 75.401
1.42 156.738 75.081
1.43 160.243 74.647
1.44 165.560 74.210
1.45 169.647 73.705
1.46 171.337 72.965
1.47 173.032 71.922
1.48 171.395 70.003
1.49 164.802 66.230
1.50 162.582 60.347
1.51 164.437 55.762
1.52 165.387 54.997
1.53 --undefined-- 54.850
1.54 --undefined-- 57.045
1.55 --undefined-- 64.693
1.56 196.065 70.109
1.57 190.252 72.158
1.58 184.506 72.241
1.59 181.607 72.107
1.60 179.904 71.646
1.61 178.836 70.103
1.62 178.328 68.502
1.63 179.043 68.509
1.64 178.398 69.212
1.65 177.972 69.726
1.66 176.079 70.160
1.67 172.515 70.788
1.68 166.186 71.432
1.69 157.128 71.877
1.70 148.477 72.202
1.71 140.742 72.202
1.72 125.196 71.510
1.73 116.586 70.630
1.74 111.385 70.112
1.75 107.948 69.645
1.76 107.240 69.286
1.77 107.542 68.834
1.78 108.289 68.103
1.79 109.533 67.567
1.80 113.185 67.545
1.81 115.934 67.571
1.82 122.236 67.825
1.83 126.494 68.842
1.84 129.686 70.024
1.85 131.825 70.939
1.86 134.221 71.562
1.87 135.252 71.881
1.88 135.651 71.948
1.89 136.108 71.834
1.90 136.567 71.648
1.91 136.465 71.470
1.92 135.814 71.351
1.93 134.419 71.347
1.94 131.863 71.526
1.95 129.115 71.786
1.96 126.621 71.879
1.97 124.135 71.741
1.98 121.629 71.622
1.99 120.054 71.334
2.00 112.116 70.081
2.01 110.152 67.432
2.02 105.500 64.056
2.03 101.270 60.435
2.04 99.979 56.770
2.05 103.430 53.337
2.06 104.332 50.912
2.07 104.323 50.436
2.08 --undefined-- 51.551
2.09 --undefined-- 57.218
2.10 --undefined-- 63.468
2.11 120.618 68.044
2.12 120.559 71.102
2.13 123.790 72.943
2.14 128.621 73.937
2.15 135.169 74.446
2.16 143.013 74.414
2.17 154.334 73.529
2.18 167.417 72.313
2.19 173.336 71.712
2.20 176.540 71.389
2.21 177.441 71.171
2.22 176.670 71.091
2.23 173.992 70.875
2.24 169.444 70.569
2.25 164.722 70.303
2.26 161.615 70.030
2.27 157.678 69.934
2.28 154.850 70.297
2.29 154.356 71.133
2.30 155.394 72.028
2.31 158.024 72.422
2.32 158.795 72.116
2.33 159.268 71.098
2.34 159.221 69.415
2.35 159.260 67.525
2.36 160.027 66.174
2.37 165.180 66.152
2.38 172.338 68.062
2.39 178.338 70.791
2.40 178.726 72.723
2.41 178.618 73.485
2.42 177.661 73.481
2.43 176.480 73.019
2.44 175.504 72.252
2.45 175.068 71.625
2.46 178.107 71.451
2.47 180.192 71.415
2.48 181.957 71.276
2.49 183.020 70.954
2.50 183.135 70.270
2.51 182.120 68.659
2.52 177.644 65.274
2.53 167.762 59.376
2.54 175.233 51.427
2.55 --undefined-- 49.570
2.56 --undefined-- 53.155
2.57 --undefined-- 55.759
2.58 --undefined-- 57.816
2.59 --undefined-- 61.219
2.60 163.796 66.316
2.61 168.529 70.215
2.62 175.791 72.513
2.63 184.241 73.613
2.64 187.236 73.846
2.65 186.402 73.597
2.66 184.344 73.258
2.67 182.013 73.067
2.68 180.597 73.079
2.69 179.200 73.167
2.70 177.818 73.264
2.71 177.004 73.243
2.72 176.550 72.831
2.73 175.527 72.307
2.74 178.094 72.233
2.75 179.000 72.368
2.76 179.498 72.348
2.77 179.897 72.167
2.78 180.124 71.987
2.79 180.319 71.778
2.80 178.563 71.012
2.81 173.778 68.948
2.82 164.850 65.067
2.83 163.563 59.463
2.84 --undefined-- 54.992
2.85 --undefined-- 54.954
2.86 --undefined-- 54.769
2.87 --undefined-- 58.349
2.88 206.102 66.624
2.89 200.325 71.405
2.90 190.515 72.932
2.91 186.092 72.553
2.92 182.464 71.640
2.93 180.680 70.731
2.94 180.239 70.143
2.95 179.937 70.063
2.96 178.594 70.248
2.97 180.524 70.376
2.98 180.638 70.524
2.99 181.765 70.609
3.00 181.798 70.855
3.01 182.188 71.152
3.02 181.305 71.327
3.03 180.098 71.262
3.04 178.600 70.778
3.05 173.701 69.703
3.06 166.661 67.877
3.07 164.242 65.377
3.08 158.773 63.050
3.09 --undefined-- 62.185
3.10 --undefined-- 61.964
3.11 --undefined-- 62.440
3.12 163.158 67.141
3.13 146.010 70.637
3.14 133.659 71.201
3.15 124.025 70.075
3.16 120.701 69.451
3.17 118.099 69.472
3.18 115.932 69.039
3.19 116.887 68.639
3.20 122.835 69.273
3.21 130.529 70.747
3.22 136.576 72.275
3.23 142.814 73.272
3.24 149.327 73.802
3.25 156.688 74.150
3.26 164.922 74.258
3.27 172.554 73.895
3.28 175.223 72.880
3.29 173.847 71.551
3.30 169.270 70.205
3.31 167.769 67.854
3.32 170.759 63.326
3.33 171.692 56.771
3.34 171.008 52.045
3.35 171.003 51.288
3.36 --undefined-- 50.876
3.37 --undefined-- 50.649
3.38 --undefined-- 51.600
3.39 125.156 52.766
3.40 131.754 53.268
3.41 131.423 53.157
3.42 129.930 52.042
3.43 --undefined-- 50.386
3.44 --undefined-- 48.981
3.45 --undefined-- 47.256
3.46 --undefined-- 45.474
3.47 --undefined-- 44.100
3.48 --undefined-- 42.855
3.49 --undefined-- 41.224
3.50 --undefined-- 39.216
3.51 --undefined-- 38.633
3.52 --undefined-- 40.196
3.53 --undefined-- 40.835
3.54 --undefined-- 39.618
3.55 --undefined-- 39.681
3.56 --undefined-- 45.259
3.57 --undefined-- 52.660
3.58 --undefined-- 61.358
3.59 --undefined-- 67.883
3.60 140.137 70.985
3.61 135.580 71.536
3.62 132.127 70.855
3.63 128.723 69.377
3.64 132.949 68.182
3.65 138.074 69.229
3.66 139.461 70.265
3.67 140.820 70.571
3.68 144.329 71.095
3.69 139.475 71.645
3.70 134.286 71.452
3.71 130.984 70.991
3.72 129.581 71.053
3.73 128.069 71.192
3.74 127.839 71.211
3.75 129.009 71.492
3.76 130.515 71.886
3.77 130.671 72.163
3.78 125.782 72.459
3.79 129.134 72.930
3.80 126.616 73.240
3.81 124.012 73.149
3.82 122.347 72.883
3.83 121.475 72.827
3.84 121.499 73.172
3.85 125.195 73.829
3.86 130.236 74.091
3.87 126.747 73.468
3.88 127.528 72.785
3.89 130.443 72.777
3.90 136.860 73.517
3.91 142.729 74.453
3.92 148.392 75.250
3.93 151.798 75.944
3.94 155.226 76.077
3.95 162.288 75.248
3.96 175.226 73.600
3.97 190.233 72.208
3.98 196.330 72.023
3.99 197.971 71.782
4.00 196.907 70.758
4.01 186.862 68.816
4.02 177.029 65.608
4.03 164.620 60.972
4.04 --undefined-- 55.661
4.05 --undefined-- 54.896
4.06 --undefined-- 62.123
4.07 173.739 68.695
4.08 167.704 72.191
4.09 159.792 73.192
4.10 153.570 72.447
4.11 151.744 71.047
4.12 153.092 70.334
4.13 157.739 70.515
4.14 162.780 71.092
4.15 170.054 71.473
4.16 177.659 71.480
4.17 188.833 71.675
4.18 196.352 72.124
4.19 203.206 72.393
4.20 209.565 72.499
4.21 214.051 72.206
4.22 215.900 71.200
4.23 213.880 68.755
4.24 188.366 63.976
4.25 190.851 58.218
4.26 204.032 55.198
4.27 203.380 53.416
4.28 204.598 50.976
4.29 --undefined-- 47.978
4.30 --undefined-- 49.687
4.31 --undefined-- 58.922
4.32 --undefined-- 67.014
4.33 185.253 71.649
4.34 173.038 73.515
4.35 160.885 73.822
4.36 150.001 73.539
4.37 142.913 73.115
4.38 138.546 72.659
4.39 136.312 72.127
4.40 134.094 71.852
4.41 133.458 72.167
4.42 133.143 72.699
4.43 132.878 73.111
4.44 133.321 73.431
4.45 135.769 73.848
4.46 140.617 74.403
4.47 146.419 75.041
4.48 149.238 75.687
4.49 151.830 76.090
4.50 156.093 75.943
4.51 160.849 75.255
4.52 167.682 74.363
4.53 167.572 73.776
4.54 167.779 73.518
4.55 170.199 73.251
4.56 170.580 72.887
4.57 167.673 72.736
4.58 164.527 72.161
4.59 160.105 70.159
4.60 140.244 66.435
4.61 133.501 63.136
4.62 125.314 62.546
4.63 127.094 64.499
4.64 133.034 67.211
4.65 133.202 68.873
4.66 127.062 69.260
4.67 118.203 68.530
4.68 112.095 67.093
4.69 103.565 65.332
4.70 100.789 63.484
4.71 99.694 61.404
4.72 98.063 58.893
4.73 97.713 56.575
4.74 102.074 53.959
4.75 102.335 50.418
4.76 --undefined-- 49.171
4.77 --undefined-- 51.767
4.78 --undefined-- 53.920
4.79 --undefined-- 54.841
4.80 --undefined-- 55.299
4.81 --undefined-- 56.243
4.82 --undefined-- 57.641
4.83 --undefined-- 62.936
4.84 --undefined-- 68.990
4.85 168.030 72.013
4.86 152.203 72.311
4.87 149.784 71.409
4.88 145.438 70.602
4.89 142.594 70.023
4.90 142.325 69.498
4.91 142.681 69.032
4.92 142.754 68.808
4.93 142.738 68.811
4.94 141.916 69.147
4.95 142.689 69.909
4.96 143.388 70.707
4.97 143.234 71.150
4.98 142.005 71.041
4.99 139.390 70.074
5.00 135.280 67.805
5.01 129.142 64.255
5.02 129.091 61.136
5.03 128.887 61.012
5.04 138.812 65.274
5.05 137.983 69.651
5.06 129.348 --undefined--
5.07 124.798 --undefined--
5.08 --undefined-- --undefined--
5.09 --undefined-- --undefined--
