Time Pitch Intensity
0.01 --undefined-- --undefined--
0.02 127.322 --undefined--
0.03 119.299 --undefined--
0.04 117.877 --undefined--
0.05 118.683 70.858
0.06 119.894 70.730
0.07 121.812 70.018
0.08 123.927 69.162
0.09 132.255 69.072
0.10 141.387 69.612
0.11 148.100 70.086
0.12 152.641 70.109
0.13 152.790 69.480
0.14 148.869 67.845
0.15 141.266 64.719
0.16 133.625 59.385
0.17 --undefined-- 51.845
0.18 --undefined-- 47.405
0.19 --undefined-- 47.034
0.20 --undefined-- 47.018
0.21 --undefined-- 47.823
0.22 --undefined-- 49.375
0.23 --undefined-- 55.783
0.24 --undefined-- 65.686
0.25 178.241 71.936
0.26 160.931 75.163
0.27 149.151 76.866
0.28 146.209 77.981
0.29 144.578 78.163
0.30 142.868 77.270
0.31 141.451 75.869
0.32 141.838 74.597
0.33 143.015 73.671
0.34 143.798 72.941
0.35 143.799 71.958
0.36 141.658 70.815
0.37 142.406 70.168
0.38 141.357 69.737
0.39 139.216 68.828
0.40 135.958 67.067
0.41 126.477 65.276
0.42 122.535 66.244
0.43 125.652 69.033
0.44 125.413 71.320
0.45 120.731 72.548
0.46 116.794 72.272
0.47 112.848 69.791
0.48 --undefined-- 64.923
0.49 --undefined-- 58.750
0.50 --undefined-- 53.810
0.51 --undefined-- 50.334
0.52 --undefined-- 46.319
0.53 --undefined-- 43.984
0.54 --undefined-- 44.649
0.55 --undefined-- 46.027
0.56 --undefined-- 49.891
0.57 --undefined-- 54.389
0.58 289.570 57.495
0.59 289.321 58.179
0.60 --undefined-- 57.090
0.61 --undefined-- 56.529
0.62 --undefined-- 56.207
0.63 --undefined-- 56.007
0.64 --undefined-- 59.084
0.65 138.174 63.021
0.66 117.817 65.573
0.67 114.605 67.205
0.68 114.420 68.312
0.69 115.107 68.998
0.70 116.673 69.659
0.71 117.447 70.240
0.72 116.263 70.017
0.73 121.115 69.067
0.74 128.503 68.260
0.75 132.429 67.402
0.76 134.075 65.813
0.77 130.957 63.040
0.78 122.599 58.937
0.79 --undefined-- 53.947
0.80 --undefined-- 52.345
0.81 --undefined-- 62.587
0.82 --undefined-- 70.586
0.83 150.817 75.136
0.84 143.768 76.813
0.85 135.975 76.477
0.86 133.024 75.366
0.87 132.572 74.048
0.88 134.097 72.410
0.89 140.405 71.134
0.90 144.135 70.728
0.91 146.524 70.536
0.92 147.548 70.010
0.93 145.450 68.733
0.94 140.376 66.495
0.95 133.995 63.378
0.96 130.097 59.716
0.97 130.520 57.207
0.98 135.832 63.500
0.99 155.775 70.372
1.00 143.106 74.511
1.01 137.343 76.417
1.02 131.604 76.897
1.03 122.624 76.858
1.04 119.352 76.904
1.05 116.317 76.640
1.06 114.545 75.708
1.07 114.167 74.325
1.08 113.545 72.539
1.09 110.731 70.200
1.10 116.268 68.433
1.11 119.166 68.369
1.12 120.965 68.944
1.13 121.150 69.546
1.14 121.859 70.459
1.15 123.918 72.021
1.16 121.405 73.551
1.17 120.778 74.332
1.18 119.915 74.450
1.19 119.486 74.305
1.20 119.239 74.118
1.21 119.094 73.966
1.22 119.699 73.856
1.23 120.853 73.728
1.24 122.576 73.384
1.25 123.442 72.540
1.26 123.283 70.964
1.27 120.360 68.945
1.28 122.668 67.358
1.29 121.900 66.108
1.30 120.971 64.588
1.31 118.204 62.486
1.32 106.225 59.339
1.33 --undefined-- 55.054
1.34 --undefined-- 49.392
1.35 --undefined-- 43.513
1.36 --undefined-- 40.185
1.37 --undefined-- 39.704
1.38 --undefined-- 42.731
1.39 --undefined-- 44.202
1.40 --undefined-- 42.731
1.41 --undefined-- 39.013
1.42 --undefined-- 36.046
1.43 --undefined-- 35.806
1.44 --undefined-- 35.600
1.45 --undefined-- 35.040
1.46 --undefined-- 34.282
1.47 --undefined-- 33.126
1.48 --undefined-- 33.903
1.49 --undefined-- 35.471
1.50 --undefined-- 35.654
1.51 --undefined-- 35.059
1.52 --undefined-- 35.306
1.53 --undefined-- 36.667
1.54 --undefined-- 37.496
1.55 --undefined-- 36.696
1.56 --undefined-- 36.036
1.57 --undefined-- 37.480
1.58 --undefined-- 38.459
1.59 --undefined-- 37.680
1.60 --undefined-- 35.955
1.61 --undefined-- 36.590
1.62 --undefined-- 38.704
1.63 --undefined-- 38.955
1.64 --undefined-- 37.603
1.65 --undefined-- 36.929
1.66 --undefined-- 37.325
1.67 --undefined-- 37.549
1.68 --undefined-- 38.843
1.69 --undefined-- 39.228
1.70 --undefined-- 38.154
1.71 --undefined-- 37.989
1.72 --undefined-- 40.121
1.73 --undefined-- 40.980
1.74 --undefined-- 39.213
1.75 --undefined-- 36.416
1.76 --undefined-- 35.437
1.77 --undefined-- 34.669
1.78 --undefined-- 34.888
1.79 --undefined-- 39.642
1.80 --undefined-- 46.219
1.81 --undefined-- 49.549
1.82 --undefined-- 49.115
1.83 --undefined-- 45.403
1.84 --undefined-- 41.253
1.85 --undefined-- 40.152
1.86 --undefined-- 40.751
1.87 --undefined-- 41.043
1.88 --undefined-- 40.084
1.89 --undefined-- 40.541
1.90 --undefined-- 42.209
1.91 --undefined-- 42.967
1.92 --undefined-- 42.822
1.93 --undefined-- 42.415
1.94 --undefined-- 42.059
1.95 --undefined-- 41.835
1.96 --undefined-- 41.448
1.97 --undefined-- 40.974
1.98 --undefined-- 40.939
1.99 --undefined-- 40.682
2.00 --undefined-- 40.009
2.01 --undefined-- 40.296
2.02 --undefined-- 42.256
2.03 --undefined-- 43.144
2.04 --undefined-- 42.572
2.05 --undefined-- 41.208
2.06 --undefined-- 39.890
2.07 --undefined-- 40.828
2.08 --undefined-- 44.844
2.09 --undefined-- 55.806
2.10 --undefined-- 65.897
2.11 --undefined-- 72.262
2.12 147.662 75.910
2.13 143.099 77.627
2.14 140.704 77.721
2.15 133.873 76.269
2.16 132.146 73.613
2.17 133.028 71.661
2.18 136.594 71.746
2.19 137.757 72.114
2.20 137.370 72.027
2.21 135.709 71.528
2.22 134.260 70.676
2.23 129.765 69.001
2.24 121.355 65.905
2.25 116.872 61.154
2.26 --undefined-- 54.751
2.27 --undefined-- 47.958
2.28 --undefined-- 45.218
2.29 --undefined-- 46.640
2.30 --undefined-- 48.754
2.31 --undefined-- 55.147
2.32 --undefined-- 63.125
2.33 135.130 68.212
2.34 119.789 71.008
2.35 117.827 72.586
2.36 116.340 73.567
2.37 117.522 74.054
2.38 120.238 74.208
2.39 127.360 74.437
2.40 134.552 75.204
2.41 142.060 76.544
2.42 150.444 77.878
2.43 156.182 78.551
2.44 157.648 78.225
2.45 153.313 76.966
2.46 148.926 75.475
2.47 141.382 73.904
2.48 130.061 71.741
2.49 118.077 69.285
2.50 114.744 68.043
2.51 117.999 69.795
2.52 137.667 72.709
2.53 142.631 74.757
2.54 142.454 75.603
2.55 141.977 75.365
2.56 141.142 74.294
2.57 140.607 72.826
2.58 144.371 72.224
2.59 144.734 72.353
2.60 144.203 72.329
2.61 145.320 72.123
2.62 146.847 72.042
2.63 151.309 73.024
2.64 153.510 74.688
2.65 154.655 75.721
2.66 155.266 75.936
2.67 154.628 75.816
2.68 153.970 76.055
2.69 154.009 76.664
2.70 154.357 77.126
2.71 154.548 77.150
2.72 153.933 77.283
2.73 159.508 77.982
2.74 157.146 78.284
2.75 148.204 78.042
2.76 146.554 77.743
2.77 145.133 76.682
2.78 142.973 74.203
2.79 139.150 70.110
2.80 --undefined-- 63.913
2.81 --undefined-- 56.131
2.82 --undefined-- 50.988
2.83 --undefined-- 49.234
2.84 --undefined-- 49.921
2.85 --undefined-- 56.226
2.86 --undefined-- 65.764
2.87 --undefined-- 72.085
2.88 161.417 75.674
2.89 157.855 77.529
2.90 155.332 78.240
2.91 152.951 78.235
2.92 152.347 78.002
2.93 152.345 77.435
2.94 151.660 75.811
2.95 146.546 72.988
2.96 144.896 70.647
2.97 145.760 69.915
2.98 145.988 69.810
2.99 144.764 70.051
3.00 142.548 70.688
3.01 141.626 71.777
3.02 137.810 72.593
3.03 129.110 72.502
3.04 123.653 71.908
3.05 119.310 71.311
3.06 116.505 70.536
3.07 114.793 69.511
3.08 114.769 68.424
3.09 114.335 67.056
3.10 111.807 64.903
3.11 103.441 61.627
3.12 --undefined-- 57.647
3.13 --undefined-- 56.080
3.14 --undefined-- 61.961
3.15 --undefined-- 68.566
3.16 131.784 72.589
3.17 127.996 74.139
3.18 125.139 73.122
3.19 --undefined-- 69.150
3.20 --undefined-- 62.076
3.21 --undefined-- 53.297
3.22 --undefined-- 46.276
3.23 --undefined-- 42.874
3.24 --undefined-- 41.781
3.25 --undefined-- 46.154
3.26 --undefined-- 57.272
3.27 --undefined-- 65.781
3.28 --undefined-- 71.119
3.29 127.761 73.924
3.30 121.710 75.175
3.31 117.120 75.803
3.32 115.062 75.705
3.33 112.206 74.323
3.34 107.886 71.357
3.35 99.273 66.898
3.36 93.896 61.585
3.37 --undefined-- 55.810
3.38 --undefined-- 49.681
3.39 --undefined-- 45.379
3.40 --undefined-- 43.954
3.41 --undefined-- 44.568
3.42 --undefined-- 46.925
3.43 --undefined-- 48.005
3.44 --undefined-- 47.923
3.45 --undefined-- 54.952
3.46 --undefined-- 62.256
3.47 --undefined-- 66.505
3.48 105.296 68.671
3.49 104.223 69.731
3.50 103.420 70.223
3.51 104.672 70.540
3.52 106.779 71.036
3.53 109.553 71.893
3.54 112.733 72.908
3.55 116.470 73.870
3.56 121.276 74.709
3.57 125.196 75.205
3.58 129.971 75.096
3.59 134.033 74.083
3.60 133.987 72.165
3.61 147.203 70.511
3.62 153.531 69.706
3.63 160.106 68.906
3.64 163.210 67.962
3.65 161.408 66.785
3.66 155.715 65.110
3.67 147.945 62.576
3.68 --undefined-- 58.694
3.69 --undefined-- 53.294
3.70 --undefined-- 47.270
3.71 --undefined-- 42.289
3.72 --undefined-- 38.335
3.73 --undefined-- 37.210
3.74 --undefined-- 38.083
3.75 --undefined-- 37.732
3.76 --undefined-- 36.702
3.77 --undefined-- 36.933
3.78 --undefined-- 37.725
3.79 --undefined-- 37.053
3.80 --undefined-- 35.658
3.81 --undefined-- 37.738
3.82 --undefined-- 43.855
3.83 --undefined-- 47.704
3.84 --undefined-- 47.592
3.85 --undefined-- 46.412
3.86 --undefined-- 48.365
3.87 --undefined-- 48.930
3.88 --undefined-- 48.252
3.89 --undefined-- 48.905
3.90 --undefined-- 50.954
3.91 --undefined-- 55.088
3.92 --undefined-- 62.421
3.93 148.204 68.274
3.94 136.104 71.431
3.95 133.132 72.745
3.96 128.993 73.128
3.97 128.175 72.850
3.98 125.771 72.395
3.99 124.667 72.552
4.00 124.218 72.692
4.01 123.783 72.310
4.02 122.766 71.649
4.03 121.606 70.942
4.04 120.092 70.491
4.05 119.812 71.082
4.06 123.174 72.845
4.07 122.472 74.102
4.08 119.038 73.691
4.09 113.429 71.215
4.10 98.281 66.492
4.11 95.486 60.161
4.12 --undefined-- 54.110
4.13 --undefined-- 49.519
4.14 --undefined-- 49.100
4.15 --undefined-- 50.376
4.16 --undefined-- 49.136
4.17 --undefined-- 44.543
4.18 --undefined-- 40.188
4.19 --undefined-- 42.362
4.20 --undefined-- 47.110
4.21 --undefined-- 51.702
4.22 --undefined-- 54.749
4.23 --undefined-- 56.522
4.24 --undefined-- 57.060
4.25 --undefined-- 56.807
4.26 --undefined-- 56.855
4.27 --undefined-- 56.915
4.28 --undefined-- 56.500
4.29 --undefined-- 61.645
4.30 180.565 67.984
4.31 171.313 71.360
4.32 157.214 72.313
4.33 155.267 72.169
4.34 154.230 71.307
4.35 149.114 69.478
4.36 149.625 68.164
4.37 151.773 67.943
4.38 152.676 67.718
4.39 151.299 67.237
4.40 149.470 66.870
4.41 146.482 67.012
4.42 144.504 67.681
4.43 142.638 68.824
4.44 141.518 70.644
4.45 140.297 72.792
4.46 126.107 74.009
4.47 125.345 74.154
4.48 123.528 73.937
4.49 120.757 73.648
4.50 118.954 73.354
4.51 118.039 73.124
4.52 117.207 72.846
4.53 116.239 72.425
4.54 115.615 71.668
4.55 114.529 70.186
4.56 110.230 68.299
4.57 113.138 67.348
4.58 113.959 67.119
4.59 113.660 66.937
4.60 112.708 66.646
4.61 110.937 66.286
4.62 109.241 65.892
4.63 108.627 65.484
4.64 109.173 65.434
4.65 106.964 66.722
4.66 107.287 68.610
4.67 106.887 69.742
4.68 105.315 69.851
4.69 101.810 69.456
4.70 101.509 69.430
4.71 101.668 69.579
4.72 100.595 69.330
4.73 100.144 68.723
4.74 100.931 68.283
4.75 100.875 68.235
4.76 100.243 67.868
4.77 97.154 66.549
4.78 102.433 65.053
4.79 103.842 64.412
4.80 104.674 64.164
4.81 105.645 63.934
4.82 105.708 63.466
4.83 104.572 62.420
4.84 104.331 60.883
4.85 106.210 58.965
4.86 --undefined-- 55.866
4.87 --undefined-- 51.316
4.88 --undefined-- 47.459
4.89 --undefined-- 44.179
4.90 --undefined-- 40.818
4.91 --undefined-- 36.635
4.92 --undefined-- 35.007
4.93 --undefined-- 36.373
4.94 --undefined-- 36.362
4.95 --undefined-- 36.521
4.96 --undefined-- 37.245
4.97 --undefined-- 37.155
4.98 --undefined-- 36.383
4.99 --undefined-- 35.090
5.00 --undefined-- 34.651
5.01 --undefined-- 34.919
5.02 --undefined-- 34.197
5.03 --undefined-- 34.531
5.04 --undefined-- 35.587
5.05 --undefined-- 35.250
5.06 --undefined-- 35.642
5.07 --undefined-- 36.407
5.08 --undefined-- 36.135
5.09 --undefined-- 36.510
5.10 --undefined-- 38.141
5.11 --undefined-- 39.673
5.12 --undefined-- 40.270
5.13 --undefined-- 39.177
5.14 --undefined-- 36.688
5.15 --undefined-- 34.734
5.16 --undefined-- 34.679
5.17 --undefined-- 35.079
5.18 --undefined-- 34.866
5.19 --undefined-- 35.792
5.20 --undefined-- 37.509
5.21 --undefined-- 38.238
5.22 --undefined-- 37.399
5.23 --undefined-- 35.964
5.24 --undefined-- 36.218
5.25 --undefined-- 36.192
5.26 --undefined-- 35.391
5.27 --undefined-- 35.321
5.28 --undefined-- 35.839
5.29 --undefined-- 36.591
5.30 --undefined-- 36.416
5.31 --undefined-- 35.848
5.32 --undefined-- 36.584
5.33 --undefined-- 37.922
5.34 --undefined-- 38.652
5.35 --undefined-- 38.398
5.36 --undefined-- 37.896
5.37 --undefined-- 36.535
5.38 --undefined-- 35.803
5.39 --undefined-- 37.402
5.40 --undefined-- 38.130
5.41 --undefined-- 37.372
5.42 --undefined-- 37.479
5.43 --undefined-- 38.714
5.44 --undefined-- 38.305
5.45 --undefined-- 35.439
5.46 --undefined-- 32.278
5.47 --undefined-- 32.581
5.48 --undefined-- 34.885
5.49 --undefined-- 37.067
5.50 --undefined-- 38.707
5.51 --undefined-- 39.771
5.52 --undefined-- 41.077
5.53 --undefined-- 42.848
5.54 --undefined-- 44.000
5.55 --undefined-- 44.259
5.56 --undefined-- 44.581
5.57 --undefined-- 45.082
5.58 --undefined-- 44.600
5.59 --undefined-- 44.307
5.60 --undefined-- 45.035
5.61 --undefined-- 45.569
5.62 --undefined-- 45.815
5.63 --undefined-- 45.874
5.64 --undefined-- 45.807
5.65 --undefined-- 45.751
5.66 --undefined-- 45.563
5.67 --undefined-- 44.957
5.68 --undefined-- 44.499
5.69 --undefined-- 44.384
5.70 --undefined-- 44.257
5.71 --undefined-- 44.188
5.72 --undefined-- 44.115
5.73 --undefined-- 43.625
5.74 --undefined-- 43.022
5.75 --undefined-- 42.631
5.76 --undefined-- 41.734
5.77 --undefined-- 40.122
5.78 --undefined-- 38.452
5.79 --undefined-- 36.578
5.80 --undefined-- 34.357
5.81 --undefined-- 34.472
5.82 --undefined-- 37.631
5.83 --undefined-- 41.744
5.84 --undefined-- 45.990
5.85 --undefined-- 50.023
5.86 --undefined-- 54.013
5.87 --undefined-- 60.314
5.88 --undefined-- 67.789
5.89 142.923 73.017
5.90 131.030 75.746
5.91 133.694 76.913
5.92 135.575 77.317
5.93 142.314 77.294
5.94 150.839 76.975
5.95 157.030 76.268
5.96 158.429 74.988
5.97 172.088 73.812
5.98 174.485 73.385
5.99 172.198 73.441
6.00 165.920 73.565
6.01 158.687 73.714
6.02 155.222 74.812
6.03 143.503 76.619
6.04 137.351 77.240
6.05 132.345 75.651
6.06 120.680 71.854
6.07 113.559 66.835
6.08 --undefined-- 61.570
6.09 --undefined-- 59.141
6.10 --undefined-- 60.639
6.11 --undefined-- 59.771
6.12 --undefined-- 55.235
6.13 --undefined-- 47.782
6.14 --undefined-- 43.311
6.15 --undefined-- 45.724
6.16 --undefined-- 50.917
6.17 --undefined-- 54.790
6.18 --undefined-- 56.377
6.19 --undefined-- 56.690
6.20 --undefined-- 56.773
6.21 --undefined-- 57.046
6.22 --undefined-- 60.017
6.23 148.118 66.103
6.24 128.074 70.488
6.25 119.356 72.673
6.26 115.289 73.293
6.27 112.434 72.873
6.28 108.867 71.926
6.29 105.725 71.135
6.30 105.277 70.783
6.31 104.652 70.705
6.32 105.017 70.723
6.33 105.941 70.528
6.34 105.340 69.614
6.35 102.072 67.850
6.36 105.453 66.681
6.37 106.490 66.536
6.38 107.214 66.436
6.39 107.622 65.974
6.40 105.868 64.960
6.41 110.197 63.688
6.42 --undefined-- 61.759
6.43 --undefined-- 57.775
6.44 --undefined-- 52.527
6.45 --undefined-- 48.227
6.46 --undefined-- 43.533
6.47 --undefined-- 37.845
6.48 --undefined-- 34.718
6.49 --undefined-- 33.283
6.50 --undefined-- 34.310
6.51 --undefined-- 35.750
6.52 --undefined-- 35.963
6.53 --undefined-- 35.160
6.54 --undefined-- 35.603
6.55 --undefined-- 37.830
6.56 --undefined-- 39.575
6.57 --undefined-- 39.551
6.58 --undefined-- 36.946
6.59 --undefined-- 34.164
6.60 --undefined-- 36.462
6.61 --undefined-- 39.083
6.62 --undefined-- 41.226
6.63 --undefined-- 42.324
6.64 --undefined-- 41.612
6.65 --undefined-- 40.667
6.66 --undefined-- 39.857
6.67 --undefined-- --undefined--
6.68 --undefined-- --undefined--
6.69 --undefined-- --undefined--
6.70 --undefined-- --undefined--
