Time Pitch Intensity
0.01 --undefined-- --undefined--
0.02 176.076 --undefined--
0.03 177.800 --undefined--
0.04 179.865 --undefined--
0.05 182.445 63.140
0.06 183.014 59.440
0.07 177.222 54.681
0.08 --undefined-- 50.277
0.09 --undefined-- 47.406
0.10 --undefined-- 46.789
0.11 --undefined-- 47.618
0.12 --undefined-- 50.283
0.13 --undefined-- 55.884
0.14 210.202 60.371
0.15 205.463 63.614
0.16 203.029 65.872
0.17 200.599 66.975
0.18 197.613 67.506
0.19 196.129 68.161
0.20 194.740 68.813
0.21 193.721 69.273
0.22 192.723 69.610
0.23 192.468 69.742
0.24 192.931 69.652
0.25 193.754 69.302
0.26 194.696 68.558
0.27 195.583 67.364
0.28 195.637 65.565
0.29 192.914 62.801
0.30 189.058 59.066
0.31 190.564 55.960
0.32 191.148 54.647
0.33 192.454 54.212
0.34 196.438 54.618
0.35 197.815 57.725
0.36 196.734 61.880
0.37 193.160 64.991
0.38 191.900 66.742
0.39 190.547 67.233
0.40 191.732 66.723
0.41 197.574 65.761
0.42 202.071 65.062
0.43 206.096 65.048
0.44 212.577 65.972
0.45 215.540 67.076
0.46 219.112 67.624
0.47 222.145 67.522
0.48 224.836 66.897
0.49 231.013 66.302
0.50 239.742 66.025
0.51 243.358 65.607
0.52 245.482 65.265
0.53 246.547 65.486
0.54 246.495 65.806
0.55 243.249 65.486
0.56 231.706 64.477
0.57 215.447 63.879
0.58 203.594 64.302
0.59 191.442 65.084
0.60 179.176 65.807
0.61 173.724 65.891
0.62 172.241 64.923
0.63 174.861 63.583
0.64 173.999 62.507
0.65 172.109 61.147
0.66 170.625 58.834
0.67 --undefined-- 54.863
0.68 --undefined-- 49.430
0.69 --undefined-- 45.877
0.70 --undefined-- 47.031
0.71 --undefined-- 48.551
0.72 --undefined-- 48.273
0.73 --undefined-- 48.342
0.74 --undefined-- 50.649
0.75 --undefined-- 51.346
0.76 --undefined-- 50.439
0.77 --undefined-- 51.853
0.78 223.749 54.518
0.79 223.601 56.912
0.80 233.107 59.269
0.81 243.327 61.728
0.82 243.298 64.099
0.83 239.043 65.815
0.84 237.538 66.429
0.85 237.476 65.848
0.86 239.455 64.204
0.87 241.438 61.324
0.88 239.605 57.208
0.89 242.623 52.905
0.90 --undefined-- 49.268
0.91 --undefined-- 46.907
0.92 --undefined-- 46.172
0.93 --undefined-- 46.017
0.94 --undefined-- 46.608
0.95 --undefined-- 47.079
0.96 --undefined-- 47.665
0.97 --undefined-- 50.046
0.98 --undefined-- 50.660
0.99 --undefined-- 48.841
1.00 --undefined-- 47.103
1.01 --undefined-- 45.809
1.02 --undefined-- 46.684
1.03 --undefined-- 50.360
1.04 --undefined-- 52.352
1.05 --undefined-- 51.330
1.06 --undefined-- 47.786
1.07 --undefined-- 45.864
1.08 --undefined-- 51.735
1.09 195.333 57.162
1.10 180.344 59.593
1.11 160.786 59.892
1.12 153.297 59.427
1.13 145.624 59.024
1.14 144.798 58.630
1.15 145.817 57.597
1.16 141.572 55.574
1.17 --undefined-- 54.130
1.18 --undefined-- 53.499
1.19 149.307 52.622
1.20 155.789 52.681
1.21 155.829 53.617
1.22 152.295 54.775
1.23 154.509 55.720
1.24 155.576 55.884
1.25 155.892 55.455
1.26 157.457 54.883
1.27 157.698 54.416
1.28 160.040 54.453
1.29 160.827 54.513
1.30 158.486 53.360
1.31 --undefined-- 51.166
1.32 --undefined-- 49.999
1.33 --undefined-- 50.851
1.34 --undefined-- 53.339
1.35 --undefined-- 54.743
1.36 --undefined-- 56.269
1.37 --undefined-- 59.768
1.38 --undefined-- 61.688
1.39 163.204 62.228
1.40 161.298 63.010
1.41 157.031 63.953
1.42 157.163 64.711
1.43 157.941 65.397
1.44 159.852 66.051
1.45 161.515 66.374
1.46 164.960 66.238
1.47 169.093 66.627
1.48 178.227 67.566
1.49 179.857 68.033
1.50 194.534 68.519
1.51 206.272 69.611
1.52 218.734 70.261
1.53 223.831 69.742
1.54 244.582 68.708
1.55 250.151 67.979
1.56 253.268 67.438
1.57 250.494 66.765
1.58 241.300 65.708
1.59 233.067 63.675
1.60 --undefined-- 60.189
1.61 --undefined-- 55.847
1.62 --undefined-- 52.835
1.63 --undefined-- 52.501
1.64 --undefined-- 50.908
1.65 --undefined-- 47.661
1.66 --undefined-- 45.939
1.67 --undefined-- 45.044
1.68 --undefined-- 47.318
1.69 --undefined-- 50.925
1.70 --undefined-- 52.620
1.71 --undefined-- 54.309
1.72 --undefined-- 56.238
1.73 --undefined-- 57.743
1.74 --undefined-- 58.968
1.75 228.510 59.830
1.76 230.444 60.799
1.77 235.900 61.867
1.78 243.188 62.569
1.79 249.622 62.990
1.80 254.927 63.277
1.81 257.124 62.988
1.82 253.392 61.179
1.83 243.334 57.729
1.84 --undefined-- 54.478
1.85 --undefined-- 52.823
1.86 --undefined-- 51.504
1.87 --undefined-- 54.025
1.88 --undefined-- 60.050
1.89 --undefined-- 64.654
1.90 --undefined-- 66.894
1.91 --undefined-- 67.011
1.92 --undefined-- 65.736
1.93 --undefined-- 64.593
1.94 --undefined-- 64.593
1.95 --undefined-- 65.023
1.96 --undefined-- 65.823
1.97 --undefined-- 66.724
1.98 --undefined-- 67.380
1.99 --undefined-- 67.525
2.00 189.345 67.357
2.01 189.625 66.667
2.02 198.437 64.944
2.03 209.667 62.850
2.04 234.362 62.588
2.05 241.285 63.303
2.06 244.956 63.388
2.07 245.355 62.089
2.08 242.686 58.649
2.09 --undefined-- 53.537
2.10 --undefined-- 51.625
2.11 285.838 57.319
2.12 263.845 62.681
2.13 242.712 65.078
2.14 226.579 65.190
2.15 219.404 64.624
2.16 215.438 64.370
2.17 212.863 64.321
2.18 211.130 64.483
2.19 209.577 64.952
2.20 209.266 65.539
2.21 210.085 65.764
2.22 212.497 65.189
2.23 216.892 64.122
2.24 218.485 64.477
2.25 223.724 65.917
2.26 227.665 66.365
2.27 228.574 66.339
2.28 231.706 67.569
2.29 234.167 69.176
2.30 236.106 69.841
2.31 240.219 69.558
2.32 247.262 69.197
2.33 255.111 69.659
2.34 264.664 70.354
2.35 274.961 70.473
2.36 282.683 69.729
2.37 293.652 68.066
2.38 151.781 66.087
2.39 154.460 64.368
2.40 152.446 62.859
2.41 149.374 60.692
2.42 148.278 56.836
2.43 --undefined-- 51.388
2.44 --undefined-- 48.236
2.45 --undefined-- 47.414
2.46 --undefined-- 47.034
2.47 --undefined-- 46.632
2.48 --undefined-- 47.071
2.49 --undefined-- 50.602
2.50 --undefined-- 55.598
2.51 --undefined-- 59.123
2.52 --undefined-- 60.369
2.53 --undefined-- 60.181
2.54 --undefined-- 60.610
2.55 --undefined-- 61.338
2.56 164.629 61.378
2.57 164.028 61.007
2.58 163.164 60.801
2.59 161.861 60.587
2.60 158.914 60.039
2.61 157.656 59.641
2.62 158.295 59.622
2.63 160.410 59.578
2.64 162.367 59.560
2.65 164.612 60.005
2.66 166.644 60.760
2.67 167.759 61.289
2.68 168.959 61.578
2.69 171.648 60.971
2.70 177.987 59.119
2.71 178.529 57.017
2.72 179.540 55.906
2.73 181.884 55.566
2.74 191.229 55.976
2.75 215.426 59.693
2.76 226.914 63.847
2.77 229.928 65.660
2.78 227.286 65.669
2.79 231.067 65.766
2.80 235.088 65.890
2.81 240.167 64.908
2.82 246.454 62.626
2.83 256.164 59.365
2.84 249.816 55.619
2.85 240.906 53.983
2.86 --undefined-- 55.010
2.87 --undefined-- 54.233
2.88 --undefined-- 51.160
2.89 --undefined-- 50.401
2.90 --undefined-- 50.894
2.91 --undefined-- 48.511
2.92 --undefined-- 45.505
2.93 --undefined-- 47.380
2.94 --undefined-- 50.045
2.95 --undefined-- 50.723
2.96 --undefined-- 49.065
2.97 --undefined-- 46.413
2.98 --undefined-- 47.081
2.99 --undefined-- 48.837
3.00 --undefined-- 48.586
3.01 --undefined-- 47.835
3.02 --undefined-- 47.608
3.03 --undefined-- 46.245
3.04 --undefined-- 45.026
3.05 --undefined-- 45.179
3.06 --undefined-- 45.483
3.07 --undefined-- 50.516
3.08 --undefined-- 56.766
3.09 --undefined-- 60.165
3.10 --undefined-- 61.134
3.11 --undefined-- 60.277
3.12 --undefined-- 57.944
3.13 --undefined-- 54.874
3.14 --undefined-- 53.146
3.15 --undefined-- 52.271
3.16 --undefined-- 49.997
3.17 --undefined-- 48.128
3.18 --undefined-- 48.950
3.19 --undefined-- 49.907
3.20 159.440 50.097
3.21 158.696 50.344
3.22 164.309 51.227
3.23 --undefined-- 53.071
3.24 --undefined-- 54.177
3.25 --undefined-- 53.331
3.26 --undefined-- 50.882
3.27 --undefined-- 47.816
3.28 --undefined-- 46.465
3.29 --undefined-- 49.045
3.30 --undefined-- 51.577
3.31 --undefined-- 52.306
3.32 --undefined-- 53.332
3.33 --undefined-- 54.955
3.34 --undefined-- 55.289
3.35 180.543 54.958
3.36 188.331 55.825
3.37 194.448 57.374
3.38 206.486 59.455
3.39 223.931 62.858
3.40 230.345 65.356
3.41 226.527 66.254
3.42 230.027 67.344
3.43 231.721 68.841
3.44 232.050 69.828
3.45 232.701 70.206
3.46 233.638 70.313
3.47 237.857 70.795
3.48 240.485 70.988
3.49 238.435 69.952
3.50 --undefined-- 67.249
3.51 --undefined-- 62.548
3.52 --undefined-- 57.077
3.53 --undefined-- 54.229
3.54 --undefined-- 53.601
3.55 --undefined-- 53.857
3.56 --undefined-- 53.194
3.57 --undefined-- 52.674
3.58 --undefined-- 52.880
3.59 --undefined-- 51.059
3.60 --undefined-- 48.193
3.61 --undefined-- 47.721
3.62 --undefined-- 47.031
3.63 --undefined-- 46.942
3.64 --undefined-- 49.597
3.65 --undefined-- 51.471
3.66 --undefined-- 52.070
3.67 --undefined-- 51.943
3.68 --undefined-- 52.441
3.69 --undefined-- 53.746
3.70 --undefined-- 53.816
3.71 --undefined-- 51.883
3.72 --undefined-- 47.746
3.73 --undefined-- 43.794
3.74 --undefined-- 45.338
3.75 --undefined-- 46.756
3.76 --undefined-- 45.596
3.77 --undefined-- 44.455
3.78 --undefined-- 45.027
3.79 --undefined-- 45.174
3.80 --undefined-- 45.606
3.81 --undefined-- 47.140
3.82 --undefined-- 49.310
3.83 --undefined-- 49.270
3.84 --undefined-- 46.366
3.85 --undefined-- 44.888
3.86 --undefined-- 47.045
3.87 --undefined-- 49.085
3.88 --undefined-- 49.671
3.89 --undefined-- 49.893
3.90 --undefined-- 53.005
3.91 --undefined-- 54.713
3.92 --undefined-- 54.060
3.93 --undefined-- 51.957
3.94 --undefined-- 49.419
3.95 --undefined-- 49.941
3.96 --undefined-- 51.713
3.97 --undefined-- 51.928
3.98 --undefined-- 50.027
3.99 --undefined-- 46.906
4.00 --undefined-- 46.265
4.01 --undefined-- 46.354
4.02 --undefined-- 45.722
4.03 --undefined-- 45.109
4.04 --undefined-- 45.765
4.05 --undefined-- 48.121
4.06 --undefined-- 49.900
4.07 --undefined-- 49.554
4.08 --undefined-- 48.076
4.09 --undefined-- 48.696
4.10 --undefined-- 52.908
4.11 297.187 60.128
4.12 278.357 66.032
4.13 278.969 69.378
4.14 280.280 70.838
4.15 283.279 71.396
4.16 289.289 72.235
4.17 295.458 73.780
4.18 299.739 74.855
4.19 152.647 74.735
4.20 154.833 73.955
4.21 157.095 73.198
4.22 159.263 72.547
4.23 162.214 71.748
4.24 165.255 71.089
4.25 166.574 71.070
4.26 165.166 71.732
4.27 160.604 72.820
4.28 158.624 73.507
4.29 158.221 72.701
4.30 155.498 69.650
4.31 144.114 63.800
4.32 --undefined-- 58.909
4.33 --undefined-- 60.509
4.34 276.870 63.142
4.35 253.253 65.267
4.36 240.037 66.598
4.37 231.910 67.133
4.38 229.800 66.444
4.39 231.086 64.280
4.40 226.082 61.017
4.41 203.629 57.638
4.42 194.617 56.102
4.43 --undefined-- 56.332
4.44 --undefined-- 58.269
4.45 240.135 62.644
4.46 232.842 66.632
4.47 231.940 68.646
4.48 228.183 68.848
4.49 228.933 68.479
4.50 232.990 68.658
4.51 237.959 69.062
4.52 243.856 68.985
4.53 248.790 68.264
4.54 253.136 67.946
4.55 258.647 68.964
4.56 260.281 69.998
4.57 255.610 70.114
4.58 248.343 69.678
4.59 240.723 68.950
4.60 233.133 67.496
4.61 229.745 64.594
4.62 --undefined-- 59.533
4.63 --undefined-- 53.619
4.64 --undefined-- 51.704
4.65 --undefined-- 52.592
4.66 --undefined-- 55.884
4.67 240.244 59.481
4.68 231.772 61.695
4.69 215.023 62.728
4.70 179.156 63.708
4.71 161.656 64.282
4.72 151.106 63.764
4.73 151.633 62.277
4.74 154.173 60.195
4.75 156.243 58.560
4.76 166.994 58.320
4.77 171.147 58.217
4.78 172.629 57.487
4.79 168.652 56.024
4.80 164.405 54.243
4.81 162.402 53.827
4.82 175.061 54.478
4.83 175.836 55.601
4.84 176.926 57.141
4.85 180.881 58.295
4.86 205.812 59.527
4.87 206.420 61.498
4.88 196.583 64.195
4.89 188.415 67.282
4.90 180.813 69.667
4.91 174.135 70.953
4.92 --undefined-- 71.056
4.93 --undefined-- 70.020
4.94 --undefined-- 68.020
4.95 --undefined-- 64.966
4.96 --undefined-- 61.501
4.97 --undefined-- 59.462
4.98 --undefined-- 59.098
4.99 --undefined-- 58.661
5.00 155.012 58.452
5.01 160.762 58.349
5.02 181.182 58.773
5.03 186.485 61.705
5.04 190.369 64.901
5.05 190.108 67.526
5.06 190.082 70.453
5.07 188.215 --undefined--
5.08 186.461 --undefined--
5.09 --undefined-- --undefined--
5.10 --undefined-- --undefined--
