Time Pitch Intensity
0.01 --undefined-- --undefined--
0.02 115.095 --undefined--
0.03 113.601 --undefined--
0.04 112.599 --undefined--
0.05 112.636 70.414
0.06 108.019 66.569
0.07 110.276 61.644
0.08 110.969 57.293
0.09 --undefined-- 52.397
0.10 --undefined-- 50.100
0.11 --undefined-- 52.118
0.12 --undefined-- 55.821
0.13 --undefined-- 59.429
0.14 --undefined-- 61.681
0.15 --undefined-- 63.706
0.16 --undefined-- 66.790
0.17 --undefined-- 70.618
0.18 --undefined-- 72.896
0.19 --undefined-- 72.516
0.20 --undefined-- 70.206
0.21 --undefined-- 69.429
0.22 --undefined-- 72.412
0.23 158.876 74.660
0.24 159.266 74.700
0.25 158.677 73.406
0.26 157.261 72.162
0.27 151.894 71.348
0.28 149.639 70.577
0.29 139.151 69.196
0.30 --undefined-- 66.321
0.31 --undefined-- 62.018
0.32 --undefined-- 58.117
0.33 --undefined-- 54.212
0.34 --undefined-- 49.702
0.35 --undefined-- 48.341
0.36 --undefined-- 52.155
0.37 112.078 57.169
0.38 126.187 60.826
0.39 133.712 63.135
0.40 134.074 64.510
0.41 131.275 65.662
0.42 126.848 67.409
0.43 125.126 69.651
0.44 123.249 71.547
0.45 123.443 72.818
0.46 123.424 73.539
0.47 123.492 73.978
0.48 124.302 74.353
0.49 126.493 74.716
0.50 128.624 75.042
0.51 129.839 75.261
0.52 125.573 75.103
0.53 124.122 74.639
0.54 121.374 74.281
0.55 119.955 74.086
0.56 118.752 73.743
0.57 117.528 73.174
0.58 117.810 72.936
0.59 117.088 72.947
0.60 115.601 72.011
0.61 112.974 69.044
0.62 100.441 63.688
0.63 118.708 57.816
0.64 --undefined-- 53.517
0.65 --undefined-- 48.657
0.66 --undefined-- 46.674
0.67 --undefined-- 47.064
0.68 --undefined-- 46.181
0.69 --undefined-- 44.017
0.70 --undefined-- 42.665
0.71 --undefined-- 42.717
0.72 --undefined-- 42.959
0.73 --undefined-- 47.858
0.74 --undefined-- 55.653
0.75 --undefined-- 60.250
0.76 --undefined-- 61.841
0.77 --undefined-- 61.328
0.78 --undefined-- 59.973
0.79 --undefined-- 60.417
0.80 --undefined-- 65.011
0.81 --undefined-- 68.922
0.82 110.556 70.354
0.83 107.537 70.192
0.84 104.479 69.548
0.85 99.944 68.817
0.86 98.348 68.146
0.87 97.884 67.591
0.88 98.160 67.259
0.89 98.318 67.103
0.90 98.178 66.943
0.91 98.271 66.800
0.92 98.553 66.856
0.93 99.567 67.270
0.94 100.405 67.799
0.95 101.684 68.150
0.96 102.064 68.366
0.97 103.854 68.697
0.98 104.860 69.174
0.99 105.533 69.658
1.00 106.071 70.042
1.01 106.483 70.202
1.02 106.277 70.107
1.03 105.873 69.711
1.04 104.712 68.712
1.05 102.827 66.887
1.06 102.150 64.827
1.07 105.935 63.511
1.08 106.953 62.271
1.09 110.676 59.848
1.10 --undefined-- 55.268
1.11 --undefined-- 48.290
1.12 --undefined-- 43.102
1.13 --undefined-- 46.043
1.14 --undefined-- 51.692
1.15 --undefined-- 60.192
1.16 --undefined-- 65.673
1.17 108.879 68.347
1.18 114.178 70.285
1.19 116.640 72.215
1.20 113.660 73.347
1.21 113.283 73.702
1.22 112.803 73.514
1.23 113.040 73.091
1.24 113.779 72.953
1.25 115.095 73.088
1.26 115.574 73.085
1.27 117.459 72.647
1.28 118.884 71.180
1.29 113.314 67.881
1.30 111.951 62.726
1.31 117.516 57.318
1.32 --undefined-- 52.038
1.33 --undefined-- 45.309
1.34 --undefined-- 45.160
1.35 --undefined-- 57.365
1.36 --undefined-- 66.875
1.37 164.383 72.506
1.38 161.169 74.785
1.39 145.860 74.836
1.40 141.240 74.179
1.41 138.296 73.743
1.42 135.091 73.422
1.43 128.918 72.404
1.44 124.520 69.731
1.45 120.868 64.647
1.46 --undefined-- 57.088
1.47 --undefined-- 51.247
1.48 --undefined-- 51.716
1.49 --undefined-- 52.529
1.50 --undefined-- 53.066
1.51 --undefined-- 54.562
1.52 --undefined-- 59.184
1.53 --undefined-- 66.630
1.54 --undefined-- 71.311
1.55 137.731 72.794
1.56 114.964 72.406
1.57 108.080 71.881
1.58 104.594 71.578
1.59 102.457 70.781
1.60 100.969 69.326
1.61 100.173 68.210
1.62 100.193 68.196
1.63 101.342 68.707
1.64 102.053 69.223
1.65 102.584 69.663
1.66 103.275 70.009
1.67 103.854 70.189
1.68 103.774 69.813
1.69 103.170 68.376
1.70 100.261 66.164
1.71 100.042 65.583
1.72 100.369 67.594
1.73 102.751 69.929
1.74 103.136 71.595
1.75 102.747 72.469
1.76 103.096 72.695
1.77 102.338 72.376
1.78 100.436 71.359
1.79 99.334 69.577
1.80 101.826 68.521
1.81 106.581 69.430
1.82 107.031 70.320
1.83 109.492 70.393
1.84 109.937 69.328
1.85 110.979 66.891
1.86 112.539 63.892
1.87 115.931 62.981
1.88 --undefined-- 67.716
1.89 --undefined-- 72.584
1.90 144.242 74.839
1.91 138.544 75.081
1.92 135.150 74.569
1.93 135.456 74.376
1.94 135.192 74.618
1.95 135.115 75.055
1.96 135.212 75.335
1.97 135.171 75.221
1.98 135.809 75.131
1.99 136.651 75.316
2.00 137.652 75.419
2.01 138.687 74.912
2.02 138.569 73.143
2.03 135.656 69.861
2.04 145.447 66.391
2.05 144.883 63.700
2.06 145.981 60.346
2.07 --undefined-- 57.720
2.08 --undefined-- 60.934
2.09 --undefined-- 64.991
2.10 --undefined-- 69.950
2.11 --undefined-- 74.543
2.12 189.900 76.555
2.13 184.751 76.413
2.14 175.049 75.258
2.15 166.983 73.545
2.16 164.901 72.352
2.17 165.790 72.941
2.18 165.279 74.074
2.19 165.675 75.004
2.20 166.991 75.669
2.21 168.472 76.175
2.22 170.054 76.590
2.23 171.194 76.917
2.24 172.107 77.139
2.25 173.282 77.188
2.26 172.713 76.702
2.27 170.715 75.016
2.28 167.308 71.423
2.29 157.776 65.684
2.30 156.638 59.189
2.31 --undefined-- 58.865
2.32 --undefined-- 67.580
2.33 184.006 73.486
2.34 183.015 75.636
2.35 170.837 74.964
2.36 165.967 73.351
2.37 160.841 72.184
2.38 156.968 71.045
2.39 159.108 70.799
2.40 158.312 71.622
2.41 157.681 72.521
2.42 155.804 73.118
2.43 151.836 73.331
2.44 147.414 73.591
2.45 144.705 74.374
2.46 139.229 75.043
2.47 132.246 75.079
2.48 127.412 74.938
2.49 122.412 74.789
2.50 118.924 74.229
2.51 115.641 72.540
2.52 110.137 68.872
2.53 112.750 63.715
2.54 118.992 60.520
2.55 127.528 58.168
2.56 --undefined-- 53.902
2.57 --undefined-- 48.101
2.58 --undefined-- 45.506
2.59 --undefined-- 45.027
2.60 --undefined-- 43.421
2.61 --undefined-- 44.085
2.62 --undefined-- 52.776
2.63 --undefined-- 62.019
2.64 --undefined-- 69.546
2.65 --undefined-- 73.620
2.66 --undefined-- 74.313
2.67 --undefined-- 72.610
2.68 123.827 70.059
2.69 113.155 67.864
2.70 114.691 66.944
2.71 97.782 67.128
2.72 97.692 67.841
2.73 97.414 68.546
2.74 96.852 68.745
2.75 102.371 68.503
2.76 111.425 69.074
2.77 114.457 70.550
2.78 116.733 71.999
2.79 118.751 73.304
2.80 119.414 74.360
2.81 120.117 74.991
2.82 121.306 75.237
2.83 120.471 75.192
2.84 119.325 74.877
2.85 119.444 74.440
2.86 120.539 74.304
2.87 121.639 74.531
2.88 122.380 74.801
2.89 123.428 74.997
2.90 124.516 75.096
2.91 125.914 75.153
2.92 125.916 75.028
2.93 123.894 74.371
2.94 121.580 72.543
2.95 119.619 68.669
2.96 119.182 62.118
2.97 --undefined-- 53.950
2.98 --undefined-- 51.147
2.99 --undefined-- 53.199
3.00 --undefined-- 59.022
3.01 --undefined-- 67.242
3.02 --undefined-- 72.569
3.03 --undefined-- 74.558
3.04 122.149 74.132
3.05 117.775 72.825
3.06 111.008 71.979
3.07 106.305 71.760
3.08 103.435 71.942
3.09 102.271 72.426
3.10 101.033 72.990
3.11 99.654 73.414
3.12 98.384 73.368
3.13 97.764 72.695
3.14 97.436 71.598
3.15 95.747 70.094
3.16 92.841 68.011
3.17 --undefined-- 65.102
3.18 --undefined-- 60.887
3.19 --undefined-- 54.623
3.20 --undefined-- 47.736
3.21 --undefined-- 48.993
3.22 --undefined-- 51.275
3.23 --undefined-- 52.339
3.24 --undefined-- 52.943
3.25 --undefined-- 53.189
3.26 --undefined-- 53.052
3.27 --undefined-- 53.218
3.28 --undefined-- 53.878
3.29 --undefined-- 54.597
3.30 --undefined-- 54.615
3.31 --undefined-- 53.969
3.32 --undefined-- 53.295
3.33 --undefined-- 53.429
3.34 --undefined-- 53.833
3.35 --undefined-- 53.335
3.36 --undefined-- 52.029
3.37 --undefined-- 50.581
3.38 --undefined-- 49.437
3.39 --undefined-- 50.497
3.40 --undefined-- 56.318
3.41 --undefined-- 59.952
3.42 --undefined-- 59.396
3.43 --undefined-- 54.431
3.44 --undefined-- 45.189
3.45 --undefined-- 39.811
3.46 --undefined-- 46.267
3.47 --undefined-- 59.967
3.48 --undefined-- 69.328
3.49 210.649 74.538
3.50 214.263 76.678
3.51 215.937 76.726
3.52 214.305 75.044
3.53 213.936 71.125
3.54 200.659 64.953
3.55 --undefined-- 60.456
3.56 86.223 59.635
3.57 85.730 61.927
3.58 177.139 67.775
3.59 173.797 72.785
3.60 165.067 75.547
3.61 157.683 76.207
3.62 144.904 75.319
3.63 117.719 73.772
3.64 107.476 71.973
3.65 99.467 70.093
3.66 96.665 68.970
3.67 95.740 68.544
3.68 95.210 68.211
3.69 93.687 68.058
3.70 93.320 67.950
3.71 93.533 67.189
3.72 93.997 66.110
3.73 99.801 66.376
3.74 102.537 67.562
3.75 104.277 68.555
3.76 107.116 69.404
3.77 109.409 70.304
3.78 109.104 70.809
3.79 108.466 70.030
3.80 108.400 67.475
3.81 108.414 63.682
3.82 110.642 59.368
3.83 111.322 54.396
3.84 --undefined-- 50.074
3.85 --undefined-- 48.688
3.86 --undefined-- 48.697
3.87 --undefined-- 49.383
3.88 --undefined-- 50.544
3.89 --undefined-- 50.921
3.90 --undefined-- 50.435
3.91 --undefined-- 49.830
3.92 --undefined-- 51.006
3.93 --undefined-- 59.573
3.94 203.685 69.097
3.95 205.821 74.767
3.96 204.229 77.353
3.97 204.934 78.054
3.98 203.111 78.011
3.99 200.581 77.857
4.00 199.317 77.795
4.01 198.789 77.770
4.02 198.477 77.688
4.03 198.441 77.366
4.04 194.810 76.568
4.05 189.416 75.678
4.06 184.368 75.352
4.07 176.211 75.094
4.08 166.855 74.545
4.09 156.997 74.204
4.10 151.600 74.876
4.11 140.783 75.468
4.12 125.690 74.921
4.13 117.326 73.620
4.14 110.033 71.961
4.15 105.612 70.182
4.16 101.281 68.561
4.17 97.964 67.365
4.18 95.752 66.667
4.19 95.546 66.376
4.20 93.446 65.901
4.21 93.651 65.230
4.22 95.023 65.017
4.23 96.239 65.138
4.24 97.097 65.267
4.25 98.032 65.411
4.26 99.559 65.816
4.27 101.135 66.362
4.28 102.278 66.345
4.29 102.720 65.358
4.30 103.825 63.359
4.31 108.150 60.169
4.32 103.600 57.006
4.33 121.552 58.502
4.34 130.637 64.657
4.35 --undefined-- 70.117
4.36 --undefined-- 72.685
4.37 121.417 72.849
4.38 122.558 71.536
4.39 114.338 69.666
4.40 113.991 67.460
4.41 --undefined-- 63.839
4.42 --undefined-- 58.396
4.43 --undefined-- 53.635
4.44 --undefined-- 54.003
4.45 --undefined-- 56.495
4.46 --undefined-- 59.128
4.47 125.661 62.987
4.48 140.924 68.098
4.49 145.534 72.161
4.50 149.998 74.609
4.51 154.594 75.894
4.52 162.452 76.384
4.53 166.252 76.252
4.54 167.034 75.951
4.55 170.440 75.697
4.56 174.572 75.517
4.57 177.278 75.706
4.58 176.801 75.887
4.59 176.212 75.483
4.60 172.920 74.264
4.61 171.615 72.224
4.62 157.555 68.983
4.63 170.186 64.156
4.64 173.893 58.311
4.65 176.202 54.861
4.66 174.054 54.005
4.67 168.345 53.555
4.68 --undefined-- 52.977
4.69 --undefined-- 52.890
4.70 --undefined-- 52.701
4.71 --undefined-- 52.661
4.72 --undefined-- 53.360
4.73 --undefined-- 53.843
4.74 --undefined-- 53.272
4.75 --undefined-- 52.186
4.76 --undefined-- 51.494
4.77 --undefined-- 51.078
4.78 --undefined-- 50.653
4.79 --undefined-- 50.310
4.80 --undefined-- 49.630
4.81 --undefined-- 47.803
4.82 --undefined-- 44.955
4.83 --undefined-- 43.281
4.84 --undefined-- 42.986
4.85 --undefined-- 42.450
4.86 --undefined-- 41.906
4.87 --undefined-- 43.138
4.88 --undefined-- 47.063
4.89 --undefined-- 56.613
4.90 --undefined-- 66.690
4.91 175.652 72.645
4.92 157.882 75.242
4.93 163.227 76.002
4.94 172.303 76.325
4.95 179.709 76.489
4.96 184.039 76.273
4.97 188.451 75.567
4.98 202.870 74.802
4.99 207.198 74.967
5.00 215.140 75.476
5.01 216.722 75.887
5.02 215.219 75.523
5.03 211.516 73.344
5.04 192.256 68.785
5.05 175.598 62.495
5.06 202.626 58.414
5.07 209.326 58.147
5.08 210.329 59.168
5.09 --undefined-- 59.998
5.10 --undefined-- 60.837
5.11 --undefined-- 62.860
5.12 --undefined-- 67.571
5.13 --undefined-- 72.337
5.14 --undefined-- 74.436
5.15 126.842 74.025
5.16 120.015 73.175
5.17 118.109 73.233
5.18 116.358 73.429
5.19 115.014 --undefined--
5.20 113.087 --undefined--
5.21 --undefined-- --undefined--
5.22 --undefined-- --undefined--
