Time Pitch Intensity
0.01 --undefined-- --undefined--
0.02 159.286 --undefined--
0.03 156.992 --undefined--
0.04 157.492 --undefined--
0.05 158.757 69.545
0.06 159.612 69.379
0.07 160.022 69.226
0.08 160.732 69.087
0.09 160.246 68.778
0.10 157.639 67.952
0.11 153.442 65.927
0.12 145.805 61.822
0.13 --undefined-- 55.176
0.14 --undefined-- 49.939
0.15 --undefined-- 52.693
0.16 --undefined-- 57.222
0.17 --undefined-- 60.057
0.18 --undefined-- 60.489
0.19 251.331 65.226
0.20 243.502 71.183
0.21 234.588 74.320
0.22 212.682 75.529
0.23 185.392 75.895
0.24 175.305 75.560
0.25 169.409 74.342
0.26 166.577 72.880
0.27 166.338 72.044
0.28 165.786 71.531
0.29 164.549 70.139
0.30 162.199 66.770
0.31 165.774 61.192
0.32 --undefined-- 54.284
0.33 --undefined-- 48.357
0.34 --undefined-- 48.850
0.35 --undefined-- 57.586
0.36 --undefined-- 65.653
0.37 181.701 70.754
0.38 172.073 73.188
0.39 169.261 73.374
0.40 154.267 72.157
0.41 149.722 70.949
0.42 149.301 70.224
0.43 149.011 69.473
0.44 149.098 68.919
0.45 149.133 68.598
0.46 150.116 68.152
0.47 150.566 67.400
0.48 148.696 66.453
0.49 145.246 65.399
0.50 142.583 64.064
0.51 143.062 62.237
0.52 153.965 59.464
0.53 159.747 54.961
0.54 --undefined-- 48.414
0.55 --undefined-- 42.683
0.56 --undefined-- 43.013
0.57 --undefined-- 44.277
0.58 --undefined-- 44.609
0.59 --undefined-- 45.383
0.60 --undefined-- 46.277
0.61 --undefined-- 46.276
0.62 --undefined-- 45.958
0.63 --undefined-- 45.395
0.64 --undefined-- 44.815
0.65 --undefined-- 44.541
0.66 --undefined-- 43.909
0.67 --undefined-- 43.001
0.68 --undefined-- 42.188
0.69 --undefined-- 41.144
0.70 --undefined-- 40.307
0.71 --undefined-- 40.234
0.72 --undefined-- 40.068
0.73 --undefined-- 39.428
0.74 --undefined-- 37.881
0.75 --undefined-- 35.068
0.76 --undefined-- 31.958
0.77 --undefined-- 29.476
0.78 --undefined-- 31.587
0.79 --undefined-- 36.972
0.80 --undefined-- 46.367
0.81 --undefined-- 53.166
0.82 --undefined-- 57.546
0.83 200.975 61.832
0.84 170.594 65.678
0.85 168.785 68.461
0.86 169.522 70.308
0.87 171.603 71.423
0.88 173.796 71.899
0.89 174.097 71.919
0.90 174.762 71.796
0.91 176.667 71.821
0.92 181.541 72.316
0.93 178.762 72.852
0.94 178.992 72.174
0.95 175.116 69.617
0.96 163.499 65.375
0.97 160.432 60.467
0.98 --undefined-- 58.217
0.99 --undefined-- 59.818
1.00 --undefined-- 61.747
1.01 186.821 62.887
1.02 186.602 63.732
1.03 163.968 64.600
1.04 146.206 65.149
1.05 146.056 65.348
1.06 146.983 65.276
1.07 133.799 65.013
1.08 129.569 64.799
1.09 128.606 64.837
1.10 131.968 65.047
1.11 132.893 65.379
1.12 133.769 65.831
1.13 138.042 66.118
1.14 141.713 65.984
1.15 146.286 65.679
1.16 152.172 65.555
1.17 158.352 65.765
1.18 163.083 66.276
1.19 168.235 66.664
1.20 173.520 66.860
1.21 175.887 67.426
1.22 177.970 68.527
1.23 181.597 69.657
1.24 183.330 70.455
1.25 184.688 70.774
1.26 186.292 70.631
1.27 188.097 70.094
1.28 188.674 69.264
1.29 186.245 68.243
1.30 182.269 67.692
1.31 179.497 68.769
1.32 174.346 70.585
1.33 169.469 71.691
1.34 165.789 71.780
1.35 163.897 71.199
1.36 162.298 70.435
1.37 161.872 69.852
1.38 162.062 69.685
1.39 163.567 69.616
1.40 166.035 69.322
1.41 169.628 68.922
1.42 173.180 68.632
1.43 174.945 68.624
1.44 173.977 68.918
1.45 172.788 69.406
1.46 173.117 69.926
1.47 173.141 70.163
1.48 171.555 69.630
1.49 165.706 67.823
1.50 162.557 64.109
1.51 --undefined-- 58.137
1.52 --undefined-- 52.120
1.53 --undefined-- 50.690
1.54 --undefined-- 50.555
1.55 --undefined-- 53.652
1.56 --undefined-- 61.970
1.57 236.556 68.894
1.58 221.265 72.696
1.59 219.091 74.234
1.60 216.245 74.431
1.61 212.200 74.075
1.62 208.839 73.801
1.63 207.539 73.953
1.64 206.312 74.321
1.65 205.895 74.573
1.66 205.227 74.474
1.67 204.586 73.813
1.68 204.181 72.752
1.69 202.962 71.633
1.70 201.678 70.372
1.71 198.286 68.786
1.72 191.134 66.690
1.73 189.818 63.401
1.74 197.289 58.067
1.75 --undefined-- 51.375
1.76 --undefined-- 49.154
1.77 --undefined-- 50.049
1.78 --undefined-- 55.107
1.79 --undefined-- 59.451
1.80 --undefined-- 62.072
1.81 192.575 65.545
1.82 191.613 68.304
1.83 170.424 69.317
1.84 160.815 68.988
1.85 156.677 67.607
1.86 148.790 65.604
1.87 144.498 64.605
1.88 148.698 65.022
1.89 152.824 65.707
1.90 158.559 66.575
1.91 165.285 67.485
1.92 169.759 68.289
1.93 170.209 68.942
1.94 173.162 69.482
1.95 177.593 70.146
1.96 182.732 71.047
1.97 187.730 71.836
1.98 192.855 72.087
1.99 201.568 71.965
2.00 206.765 72.076
2.01 207.586 72.352
2.02 209.203 72.254
2.03 212.510 71.929
2.04 212.808 71.995
2.05 205.991 72.452
2.06 195.693 73.154
2.07 186.363 73.986
2.08 177.258 74.620
2.09 170.282 74.927
2.10 166.259 75.076
2.11 164.213 75.074
2.12 163.719 74.728
2.13 162.919 73.981
2.14 160.833 72.987
2.15 159.046 72.089
2.16 158.140 71.443
2.17 156.790 70.864
2.18 155.750 70.010
2.19 157.236 68.880
2.20 159.014 67.728
2.21 158.544 66.363
2.22 155.159 64.363
2.23 154.195 61.711
2.24 167.354 58.277
2.25 --undefined-- 53.211
2.26 --undefined-- 46.950
2.27 --undefined-- 44.801
2.28 --undefined-- 43.845
2.29 --undefined-- 41.009
2.30 --undefined-- 41.128
2.31 --undefined-- 41.633
2.32 --undefined-- 38.466
2.33 --undefined-- 32.890
2.34 --undefined-- 31.934
2.35 --undefined-- 35.582
2.36 --undefined-- 39.174
2.37 --undefined-- 42.103
2.38 --undefined-- 45.825
2.39 --undefined-- 53.165
2.40 --undefined-- 61.925
2.41 183.503 67.375
2.42 178.375 69.576
2.43 169.669 69.340
2.44 148.865 67.734
2.45 146.565 66.055
2.46 145.781 65.222
2.47 150.240 65.154
2.48 160.675 65.132
2.49 161.592 64.431
2.50 161.661 62.211
2.51 --undefined-- 57.649
2.52 --undefined-- 50.765
2.53 --undefined-- 44.605
2.54 --undefined-- 41.693
2.55 --undefined-- 38.695
2.56 --undefined-- 33.474
2.57 --undefined-- 28.858
2.58 --undefined-- 29.056
2.59 --undefined-- 29.680
2.60 --undefined-- 34.455
2.61 --undefined-- 47.828
2.62 --undefined-- 58.608
2.63 --undefined-- 65.266
2.64 186.415 68.568
2.65 167.691 69.448
2.66 155.998 68.940
2.67 148.007 67.806
2.68 147.405 66.481
2.69 145.237 65.305
2.70 144.520 64.398
2.71 144.594 63.787
2.72 143.997 63.583
2.73 142.376 63.592
2.74 141.242 63.528
2.75 139.517 63.428
2.76 140.158 63.505
2.77 142.649 63.829
2.78 144.517 64.144
2.79 142.001 63.784
2.80 139.250 62.023
2.81 130.010 58.320
2.82 --undefined-- 52.896
2.83 --undefined-- 49.144
2.84 --undefined-- 48.637
2.85 --undefined-- 48.997
2.86 --undefined-- 49.405
2.87 --undefined-- 50.525
2.88 --undefined-- 53.197
2.89 --undefined-- 58.865
2.90 148.314 63.589
2.91 150.408 65.774
2.92 136.638 65.988
2.93 135.393 65.112
2.94 134.444 63.752
2.95 134.826 62.574
2.96 135.817 62.371
2.97 135.646 62.689
2.98 135.257 62.946
2.99 135.836 63.055
3.00 137.576 63.123
3.01 141.366 63.224
3.02 145.234 63.380
3.03 149.648 63.794
3.04 155.466 64.707
3.05 161.390 65.742
3.06 164.147 65.972
3.07 165.190 64.681
3.08 165.924 61.427
3.09 --undefined-- 55.882
3.10 --undefined-- 49.386
3.11 --undefined-- 46.814
3.12 --undefined-- 44.765
3.13 --undefined-- 46.068
3.14 --undefined-- 57.561
3.15 --undefined-- 66.314
3.16 --undefined-- 71.263
3.17 171.246 73.189
3.18 165.619 73.125
3.19 159.592 72.082
3.20 152.858 70.887
3.21 149.926 70.089
3.22 149.409 69.300
3.23 149.029 68.280
3.24 150.652 67.395
3.25 153.885 66.531
3.26 93.274 65.439
3.27 93.344 64.609
3.28 93.818 64.510
3.29 93.667 64.511
3.30 91.833 64.110
3.31 89.696 63.208
3.32 178.798 62.000
3.33 178.669 60.974
3.34 179.284 60.474
3.35 179.834 60.402
3.36 182.231 60.734
3.37 184.396 61.489
3.38 181.591 62.585
3.39 175.108 64.171
3.40 173.254 65.940
3.41 172.476 67.362
3.42 170.922 68.326
3.43 169.036 68.791
3.44 166.472 68.598
3.45 162.479 67.561
3.46 158.038 65.328
3.47 151.803 61.330
3.48 --undefined-- 55.241
3.49 --undefined-- 47.935
3.50 --undefined-- 42.557
3.51 --undefined-- 40.147
3.52 --undefined-- 38.102
3.53 --undefined-- 35.417
3.54 --undefined-- 32.957
3.55 --undefined-- 30.169
3.56 --undefined-- 28.731
3.57 --undefined-- 28.750
3.58 --undefined-- 28.323
3.59 --undefined-- 35.435
3.60 --undefined-- 51.206
3.61 --undefined-- 61.764
3.62 --undefined-- 68.221
3.63 176.700 71.939
3.64 172.911 73.830
3.65 167.975 74.223
3.66 164.818 73.629
3.67 165.633 72.984
3.68 168.295 72.369
3.69 169.282 71.353
3.70 169.523 70.010
3.71 171.147 68.690
3.72 171.139 67.537
3.73 170.821 66.191
3.74 167.911 64.059
3.75 159.276 60.804
3.76 132.823 56.709
3.77 167.183 52.880
3.78 --undefined-- 49.376
3.79 --undefined-- 45.595
3.80 --undefined-- 42.460
3.81 --undefined-- 39.068
3.82 --undefined-- 36.988
3.83 --undefined-- 35.532
3.84 --undefined-- 34.111
3.85 --undefined-- 34.595
3.86 --undefined-- 34.831
3.87 --undefined-- 33.320
3.88 --undefined-- 31.606
3.89 --undefined-- 31.640
3.90 --undefined-- 31.499
3.91 --undefined-- 31.629
3.92 --undefined-- 32.013
3.93 --undefined-- 30.691
3.94 --undefined-- 28.807
3.95 --undefined-- 27.860
3.96 --undefined-- 28.410
3.97 --undefined-- 28.927
3.98 --undefined-- 28.377
3.99 --undefined-- 27.857
4.00 --undefined-- 27.078
4.01 --undefined-- 25.898
4.02 --undefined-- 25.370
4.03 --undefined-- 24.683
4.04 --undefined-- 23.739
4.05 --undefined-- 23.566
4.06 --undefined-- 23.458
4.07 --undefined-- 23.395
4.08 --undefined-- 24.334
4.09 --undefined-- 25.547
4.10 --undefined-- 26.051
4.11 --undefined-- 26.226
4.12 --undefined-- 25.830
4.13 --undefined-- 25.427
4.14 --undefined-- 25.406
4.15 --undefined-- 23.892
4.16 --undefined-- 22.062
4.17 --undefined-- 22.523
4.18 --undefined-- 23.880
4.19 --undefined-- 24.100
4.20 --undefined-- 23.152
4.21 --undefined-- 22.106
4.22 --undefined-- 22.740
4.23 --undefined-- 24.040
4.24 --undefined-- 24.133
4.25 --undefined-- 24.739
4.26 --undefined-- 25.432
4.27 --undefined-- 24.915
4.28 --undefined-- 23.106
4.29 --undefined-- 22.744
4.30 --undefined-- 24.089
4.31 --undefined-- 24.494
4.32 --undefined-- 25.206
4.33 --undefined-- 26.074
4.34 --undefined-- 26.999
4.35 --undefined-- 27.887
4.36 --undefined-- 28.733
4.37 --undefined-- 31.415
4.38 --undefined-- 35.241
4.39 --undefined-- 47.969
4.40 --undefined-- 57.998
4.41 216.966 64.108
4.42 193.332 67.706
4.43 188.782 70.142
4.44 189.061 71.916
4.45 188.831 73.296
4.46 189.472 74.381
4.47 189.411 75.255
4.48 187.303 75.930
4.49 185.452 76.325
4.50 184.264 76.438
4.51 183.462 76.322
4.52 183.145 76.075
4.53 182.871 75.694
4.54 181.421 75.004
4.55 179.221 74.234
4.56 182.229 73.863
4.57 183.241 73.697
4.58 184.758 73.444
4.59 188.136 73.091
4.60 191.391 72.720
4.61 192.803 72.610
4.62 192.032 73.111
4.63 186.386 73.990
4.64 181.307 74.409
4.65 175.713 74.195
4.66 173.578 73.819
4.67 173.350 73.500
4.68 172.841 73.183
4.69 172.361 72.727
4.70 170.533 72.161
4.71 168.978 71.961
4.72 173.022 72.294
4.73 176.543 72.758
4.74 178.378 73.222
4.75 179.611 73.677
4.76 181.385 74.038
4.77 185.385 74.169
4.78 192.443 73.978
4.79 203.528 73.481
4.80 214.674 72.709
4.81 216.358 70.930
4.82 210.521 66.952
4.83 --undefined-- 59.922
4.84 --undefined-- 54.359
4.85 --undefined-- 58.932
4.86 --undefined-- 61.495
4.87 --undefined-- 63.772
4.88 157.511 69.174
4.89 159.025 73.157
4.90 160.212 74.951
4.91 163.733 75.904
4.92 169.412 76.626
4.93 173.213 76.916
4.94 175.523 76.670
4.95 177.479 76.152
4.96 178.976 75.617
4.97 179.257 74.931
4.98 178.199 73.950
4.99 176.957 72.752
5.00 176.254 71.311
5.01 175.009 69.572
5.02 171.593 68.525
5.03 171.544 68.862
5.04 169.962 69.434
5.05 167.187 69.639
5.06 163.709 68.976
5.07 159.873 66.637
5.08 157.849 61.818
5.09 --undefined-- 54.197
5.10 --undefined-- 51.138
5.11 --undefined-- 61.830
5.12 --undefined-- 69.356
5.13 298.399 73.832
5.14 276.789 76.300
5.15 263.941 77.005
5.16 254.120 76.445
5.17 247.435 75.716
5.18 244.614 75.559
5.19 243.812 75.544
5.20 243.314 75.144
5.21 242.603 74.443
5.22 241.225 73.565
5.23 237.572 72.320
5.24 230.670 70.289
5.25 217.328 66.737
5.26 200.310 61.623
5.27 229.975 56.952
5.28 236.221 56.230
5.29 239.862 62.232
5.30 232.245 67.768
5.31 221.865 70.890
5.32 209.123 72.075
5.33 199.835 72.373
5.34 197.002 72.234
5.35 197.550 71.614
5.36 203.152 70.848
5.37 213.781 70.435
5.38 225.259 70.420
5.39 233.506 70.572
5.40 239.660 70.874
5.41 245.310 71.198
5.42 246.947 71.318
5.43 245.789 70.563
5.44 242.612 68.608
5.45 241.113 65.531
5.46 238.912 61.064
5.47 --undefined-- 58.253
5.48 --undefined-- 65.274
5.49 249.492 71.145
5.50 239.321 74.016
5.51 228.005 74.682
5.52 216.702 74.355
5.53 209.326 74.106
5.54 203.554 74.159
5.55 199.554 74.323
5.56 195.853 74.377
5.57 191.819 73.949
5.58 189.100 72.566
5.59 186.120 70.094
5.60 180.901 67.115
5.61 179.072 65.106
5.62 182.579 64.656
5.63 185.054 65.170
5.64 186.196 66.378
5.65 184.264 68.291
5.66 181.792 70.159
5.67 179.009 71.271
5.68 175.352 71.530
5.69 170.850 71.098
5.70 166.671 69.811
5.71 162.322 66.801
5.72 --undefined-- 61.297
5.73 --undefined-- 54.323
5.74 --undefined-- 50.697
5.75 --undefined-- 48.674
5.76 --undefined-- 45.476
5.77 --undefined-- 50.190
5.78 --undefined-- 58.425
5.79 --undefined-- 64.326
5.80 169.476 67.699
5.81 160.797 68.749
5.82 152.994 68.262
5.83 146.529 67.321
5.84 145.654 66.518
5.85 145.869 65.793
5.86 146.625 65.422
5.87 148.659 65.634
5.88 154.223 65.946
5.89 157.066 65.766
5.90 159.082 64.778
5.91 158.696 62.700
5.92 156.439 59.277
5.93 150.466 54.643
5.94 --undefined-- 52.903
5.95 --undefined-- 56.587
5.96 --undefined-- 61.937
5.97 --undefined-- 67.273
5.98 170.544 70.395
5.99 169.537 71.433
6.00 162.666 71.432
6.01 159.940 71.321
6.02 158.745 70.912
6.03 158.479 70.178
6.04 161.065 69.414
6.05 162.577 68.018
6.06 165.299 65.362
6.07 164.158 --undefined--
6.08 163.054 --undefined--
6.09 --undefined-- --undefined--
6.10 --undefined-- --undefined--
