Time Pitch Intensity
0.01 --undefined-- --undefined--
0.02 --undefined-- --undefined--
0.03 --undefined-- --undefined--
0.04 --undefined-- --undefined--
0.05 --undefined-- 41.320
0.06 --undefined-- 44.104
0.07 --undefined-- 51.130
0.08 --undefined-- 61.220
0.09 --undefined-- 67.813
0.10 150.436 71.637
0.11 144.533 73.516
0.12 141.136 74.292
0.13 142.324 74.585
0.14 146.130 74.557
0.15 152.603 74.237
0.16 158.060 73.808
0.17 164.960 73.501
0.18 175.373 73.424
0.19 179.013 73.516
0.20 182.394 73.560
0.21 184.534 73.343
0.22 187.066 72.912
0.23 188.378 72.326
0.24 187.219 71.616
0.25 183.626 70.993
0.26 180.547 70.591
0.27 173.645 70.626
0.28 165.718 71.254
0.29 155.488 71.742
0.30 146.872 71.911
0.31 135.884 72.099
0.32 128.580 72.283
0.33 119.055 72.407
0.34 116.071 72.340
0.35 115.230 71.993
0.36 117.083 71.737
0.37 119.497 71.744
0.38 121.959 71.656
0.39 126.189 71.426
0.40 129.739 71.121
0.41 133.736 70.867
0.42 136.377 70.648
0.43 137.530 69.883
0.44 135.983 67.749
0.45 138.085 64.171
0.46 154.540 60.151
0.47 156.474 55.896
0.48 --undefined-- 50.620
0.49 --undefined-- 46.431
0.50 --undefined-- 48.813
0.51 --undefined-- 56.784
0.52 --undefined-- 64.005
0.53 159.706 68.075
0.54 146.730 69.820
0.55 144.685 70.426
0.56 142.604 70.435
0.57 140.228 70.174
0.58 139.488 70.097
0.59 140.252 70.284
0.60 141.816 70.548
0.61 144.081 70.481
0.62 144.128 69.338
0.63 142.402 66.486
0.64 162.697 62.598
0.65 168.801 59.178
0.66 158.876 54.900
0.67 --undefined-- 48.291
0.68 --undefined-- 42.717
0.69 --undefined-- 42.702
0.70 --undefined-- 51.893
0.71 --undefined-- 61.151
0.72 --undefined-- 66.509
0.73 187.574 68.996
0.74 176.222 70.018
0.75 172.963 70.511
0.76 169.353 70.745
0.77 166.930 70.825
0.78 165.512 70.688
0.79 165.206 70.397
0.80 166.551 70.075
0.81 174.338 69.598
0.82 180.565 68.206
0.83 176.803 65.277
0.84 177.896 61.124
0.85 173.480 56.049
0.86 --undefined-- 49.474
0.87 --undefined-- 42.181
0.88 --undefined-- 42.585
0.89 --undefined-- 52.661
0.90 --undefined-- 60.901
0.91 139.772 65.874
0.92 136.713 68.366
0.93 122.979 69.056
0.94 112.482 68.791
0.95 105.023 68.335
0.96 96.777 67.834
0.97 90.726 67.256
0.98 90.576 66.839
0.99 90.204 66.481
1.00 94.894 66.100
1.01 98.071 65.941
1.02 103.857 66.241
1.03 110.228 66.857
1.04 116.646 67.570
1.05 122.086 68.288
1.06 125.298 68.872
1.07 128.094 69.300
1.08 130.469 69.738
1.09 134.116 70.210
1.10 138.185 70.644
1.11 141.480 70.955
1.12 143.295 71.080
1.13 141.931 70.674
1.14 141.492 69.200
1.15 142.400 66.424
1.16 147.824 62.206
1.17 --undefined-- 56.044
1.18 --undefined-- 48.545
1.19 --undefined-- 44.950
1.20 --undefined-- 44.422
1.21 --undefined-- 44.553
1.22 --undefined-- 45.100
1.23 --undefined-- 45.178
1.24 --undefined-- 45.191
1.25 --undefined-- 45.931
1.26 --undefined-- 46.760
1.27 --undefined-- 47.283
1.28 --undefined-- 47.548
1.29 --undefined-- 47.439
1.30 --undefined-- 47.006
1.31 --undefined-- 46.584
1.32 --undefined-- 46.141
1.33 --undefined-- 45.116
1.34 --undefined-- 43.553
1.35 --undefined-- 42.848
1.36 --undefined-- 43.719
1.37 --undefined-- 44.322
1.38 --undefined-- 43.667
1.39 --undefined-- 42.011
1.40 --undefined-- 39.425
1.41 --undefined-- 35.929
1.42 --undefined-- 32.353
1.43 --undefined-- 33.238
1.44 --undefined-- 36.593
1.45 --undefined-- 38.253
1.46 --undefined-- 37.943
1.47 --undefined-- 36.937
1.48 --undefined-- 47.838
1.49 --undefined-- 58.999
1.50 130.239 65.719
1.51 129.441 69.297
1.52 126.874 71.002
1.53 124.874 71.691
1.54 124.375 71.985
1.55 123.811 72.077
1.56 122.482 71.989
1.57 121.475 71.864
1.58 120.920 71.759
1.59 120.250 71.614
1.60 119.658 71.357
1.61 119.155 71.102
1.62 119.080 70.949
1.63 118.998 70.903
1.64 120.166 71.104
1.65 121.867 71.272
1.66 122.509 71.103
1.67 122.487 70.788
1.68 122.658 70.682
1.69 126.800 71.096
1.70 127.283 71.624
1.71 123.761 71.279
1.72 120.655 69.347
1.73 107.417 65.579
1.74 103.724 61.195
1.75 115.776 57.610
1.76 121.879 53.451
1.77 --undefined-- 47.820
1.78 --undefined-- 42.359
1.79 --undefined-- 39.692
1.80 --undefined-- 39.485
1.81 --undefined-- 39.798
1.82 --undefined-- 39.546
1.83 --undefined-- 42.405
1.84 --undefined-- 46.087
1.85 --undefined-- 47.484
1.86 --undefined-- 50.721
1.87 --undefined-- 58.546
1.88 176.283 64.805
1.89 151.689 68.863
1.90 146.982 71.086
1.91 141.898 71.758
1.92 135.215 71.518
1.93 130.719 71.230
1.94 129.581 71.231
1.95 129.194 71.306
1.96 129.475 71.243
1.97 131.289 71.105
1.98 133.484 70.986
1.99 133.990 70.788
2.00 132.586 70.361
2.01 130.520 69.760
2.02 129.774 69.217
2.03 129.759 68.856
2.04 128.652 68.712
2.05 126.887 68.843
2.06 125.262 69.184
2.07 122.142 69.588
2.08 118.104 69.691
2.09 110.873 68.842
2.10 102.119 66.654
2.11 92.562 63.180
2.12 91.320 58.942
2.13 --undefined-- 54.535
2.14 --undefined-- 49.604
2.15 --undefined-- 44.443
2.16 --undefined-- 41.022
2.17 --undefined-- 38.565
2.18 --undefined-- 36.617
2.19 --undefined-- 35.865
2.20 --undefined-- 38.968
2.21 --undefined-- 42.990
2.22 --undefined-- 45.314
2.23 --undefined-- 47.849
2.24 --undefined-- 52.238
2.25 --undefined-- 59.308
2.26 173.861 64.920
2.27 161.476 68.485
2.28 159.024 70.591
2.29 157.322 71.655
2.30 158.688 72.077
2.31 158.749 72.332
2.32 157.773 72.685
2.33 157.299 72.885
2.34 153.762 72.326
2.35 149.567 71.057
2.36 151.292 69.840
2.37 151.904 68.746
2.38 145.067 67.518
2.39 140.237 66.405
2.40 140.553 65.940
2.41 146.398 66.318
2.42 152.156 67.121
2.43 144.643 67.796
2.44 139.257 67.874
2.45 128.720 67.308
2.46 119.597 66.799
2.47 112.211 66.681
2.48 105.910 66.678
2.49 100.530 66.753
2.50 96.718 66.636
2.51 94.520 66.273
2.52 94.406 65.936
2.53 96.118 65.824
2.54 100.543 66.102
2.55 105.550 66.766
2.56 110.489 67.704
2.57 114.896 68.688
2.58 118.714 69.441
2.59 121.849 69.854
2.60 124.406 70.230
2.61 128.640 70.994
2.62 132.359 71.970
2.63 133.802 72.565
2.64 135.627 72.676
2.65 136.390 72.353
2.66 136.874 71.586
2.67 138.313 70.398
2.68 140.167 68.604
2.69 143.380 65.619
2.70 --undefined-- 60.394
2.71 --undefined-- 52.358
2.72 --undefined-- 46.242
2.73 --undefined-- 45.295
2.74 --undefined-- 43.978
2.75 --undefined-- 41.530
2.76 --undefined-- 39.806
2.77 --undefined-- 40.034
2.78 --undefined-- 40.515
2.79 --undefined-- 40.712
2.80 --undefined-- 46.243
2.81 --undefined-- 58.159
2.82 --undefined-- 66.295
2.83 --undefined-- 70.801
2.84 193.590 72.614
2.85 188.761 72.878
2.86 186.273 72.734
2.87 183.757 72.582
2.88 181.281 72.202
2.89 179.547 71.244
2.90 181.052 69.460
2.91 187.735 67.266
2.92 190.001 65.344
2.93 184.664 63.305
2.94 177.471 60.281
2.95 178.403 55.815
2.96 --undefined-- 49.945
2.97 --undefined-- 44.611
2.98 --undefined-- 49.007
2.99 --undefined-- 58.449
3.00 --undefined-- 64.435
3.01 --undefined-- 67.399
3.02 --undefined-- 68.426
3.03 --undefined-- 68.720
3.04 107.421 68.887
3.05 103.574 68.782
3.06 101.485 68.825
3.07 101.505 69.279
3.08 103.848 69.739
3.09 109.157 70.094
3.10 112.464 70.213
3.11 117.536 69.978
3.12 124.019 69.326
3.13 132.928 68.592
3.14 139.685 68.752
3.15 142.324 69.557
3.16 144.337 69.964
3.17 146.536 69.814
3.18 148.593 69.326
3.19 151.165 68.636
3.20 153.681 67.908
3.21 152.711 67.323
3.22 149.661 66.776
3.23 146.006 66.163
3.24 140.807 65.752
3.25 135.642 65.751
3.26 131.303 65.768
3.27 127.174 65.515
3.28 124.027 64.985
3.29 121.047 64.117
3.30 118.028 62.773
3.31 115.450 60.521
3.32 112.610 56.710
3.33 --undefined-- 50.960
3.34 --undefined-- 44.285
3.35 --undefined-- 40.845
3.36 --undefined-- 41.119
3.37 --undefined-- 42.706
3.38 --undefined-- 44.935
3.39 --undefined-- 49.711
3.40 --undefined-- 58.225
3.41 --undefined-- 64.268
3.42 --undefined-- 66.848
3.43 --undefined-- 66.430
3.44 --undefined-- 63.683
3.45 --undefined-- 59.295
3.46 --undefined-- 53.749
3.47 --undefined-- 47.822
3.48 --undefined-- 41.453
3.49 --undefined-- 37.398
3.50 --undefined-- 38.671
3.51 --undefined-- 38.796
3.52 --undefined-- 36.739
3.53 --undefined-- 34.873
3.54 --undefined-- 36.041
3.55 --undefined-- 41.672
3.56 --undefined-- 47.039
3.57 --undefined-- 54.476
3.58 --undefined-- 62.044
3.59 117.820 66.733
3.60 115.628 68.969
3.61 110.720 69.794
3.62 101.056 69.851
3.63 101.243 69.407
3.64 90.938 68.554
3.65 77.704 66.662
3.66 77.238 63.448
3.67 --undefined-- 59.860
3.68 --undefined-- 57.014
3.69 --undefined-- 52.925
3.70 --undefined-- 45.860
3.71 --undefined-- 39.329
3.72 --undefined-- 37.450
3.73 --undefined-- 38.255
3.74 --undefined-- 38.933
3.75 --undefined-- 38.475
3.76 --undefined-- 36.553
3.77 --undefined-- 34.062
3.78 --undefined-- 43.992
3.79 --undefined-- 56.128
3.80 --undefined-- 63.307
3.81 155.435 67.126
3.82 172.293 69.189
3.83 179.946 70.644
3.84 184.020 71.742
3.85 197.816 72.332
3.86 200.067 72.289
3.87 201.408 71.578
3.88 202.594 70.014
3.89 202.466 67.442
3.90 199.618 64.372
3.91 197.974 61.725
3.92 193.888 59.749
3.93 194.368 58.946
3.94 192.876 60.620
3.95 193.962 64.283
3.96 190.769 67.145
3.97 185.603 68.684
3.98 174.127 69.569
3.99 163.208 70.155
4.00 155.846 70.382
4.01 150.058 70.118
4.02 144.711 69.271
4.03 139.164 67.563
4.04 129.419 64.903
4.05 132.444 61.470
4.06 138.951 57.213
4.07 --undefined-- 51.568
4.08 --undefined-- 46.288
4.09 --undefined-- 45.144
4.10 --undefined-- 45.388
4.11 --undefined-- 46.079
4.12 --undefined-- 46.897
4.13 --undefined-- 52.598
4.14 --undefined-- 61.223
4.15 171.715 66.556
4.16 161.175 69.144
4.17 152.166 70.121
4.18 143.650 70.471
4.19 137.575 70.318
4.20 132.997 69.707
4.21 130.671 68.920
4.22 128.827 67.593
4.23 122.113 64.925
4.24 122.996 61.144
4.25 146.461 57.900
4.26 153.451 54.502
4.27 --undefined-- 49.257
4.28 --undefined-- 45.500
4.29 --undefined-- 46.857
4.30 --undefined-- 49.157
4.31 --undefined-- 51.043
4.32 --undefined-- 50.206
4.33 --undefined-- 46.270
4.34 --undefined-- 41.238
4.35 --undefined-- 37.098
4.36 --undefined-- 36.036
4.37 --undefined-- 37.935
4.38 --undefined-- 39.104
4.39 --undefined-- 39.435
4.40 --undefined-- 38.654
4.41 --undefined-- 38.073
4.42 --undefined-- 50.597
4.43 --undefined-- 60.887
4.44 --undefined-- 66.423
4.45 155.676 68.759
4.46 165.904 69.259
4.47 173.041 69.033
4.48 176.046 68.232
4.49 176.317 65.985
4.50 173.171 61.174
4.51 --undefined-- 53.104
4.52 --undefined-- 45.218
4.53 --undefined-- 46.686
4.54 --undefined-- 47.601
4.55 --undefined-- 45.866
4.56 --undefined-- 44.442
4.57 --undefined-- 45.748
4.58 --undefined-- 47.801
4.59 --undefined-- 48.962
4.60 --undefined-- 48.272
4.61 --undefined-- 49.475
4.62 --undefined-- 57.044
4.63 --undefined-- 62.698
4.64 --undefined-- 65.728
4.65 113.340 66.717
4.66 112.713 66.321
4.67 109.777 65.692
4.68 100.078 65.431
4.69 91.952 65.029
4.70 91.362 64.407
4.71 100.533 63.745
4.72 89.882 63.317
4.73 82.113 62.648
4.74 91.995 61.914
4.75 86.244 61.966
4.76 82.680 62.204
4.77 81.706 62.201
4.78 86.045 62.185
4.79 88.951 61.495
4.80 --undefined-- 58.987
4.81 --undefined-- 53.555
4.82 --undefined-- 45.229
4.83 --undefined-- 40.343
4.84 --undefined-- 41.015
4.85 --undefined-- 42.271
4.86 --undefined-- 43.907
4.87 --undefined-- 45.983
4.88 --undefined-- 53.615
4.89 --undefined-- 60.817
4.90 133.864 64.585
4.91 116.151 65.938
4.92 108.549 65.981
4.93 105.223 65.716
4.94 103.005 65.749
4.95 96.561 66.030
4.96 92.253 66.352
4.97 90.131 66.410
4.98 90.343 66.362
4.99 95.522 66.656
5.00 99.628 67.444
5.01 106.958 68.332
5.02 113.293 69.248
5.03 117.822 70.133
5.04 121.861 70.536
5.05 124.619 70.545
5.06 126.840 70.575
5.07 127.340 70.722
5.08 127.251 70.941
5.09 126.735 71.110
5.10 122.308 70.966
5.11 116.911 70.158
5.12 110.040 68.806
5.13 103.986 67.582
5.14 96.728 66.502
5.15 88.156 65.195
5.16 74.903 63.315
5.17 --undefined-- 60.644
5.18 --undefined-- 57.251
5.19 --undefined-- 54.321
5.20 --undefined-- 52.429
5.21 --undefined-- 50.982
5.22 99.991 52.241
5.23 100.512 56.595
5.24 102.592 61.142
5.25 97.503 64.107
5.26 97.940 65.870
5.27 99.538 67.011
5.28 99.387 67.380
5.29 88.192 66.870
5.30 74.485 66.020
5.31 74.753 65.188
5.32 --undefined-- 63.885
5.33 --undefined-- 61.624
5.34 --undefined-- 58.296
5.35 --undefined-- 53.879
5.36 --undefined-- 48.033
5.37 --undefined-- 41.704
5.38 --undefined-- 40.524
5.39 --undefined-- 41.162
5.40 --undefined-- 41.506
5.41 --undefined-- 41.891
5.42 --undefined-- 42.988
5.43 --undefined-- 45.098
5.44 --undefined-- 46.552
5.45 --undefined-- 46.797
5.46 --undefined-- 46.822
5.47 --undefined-- 47.237
5.48 --undefined-- 47.647
5.49 --undefined-- 48.021
5.50 --undefined-- 48.100
5.51 --undefined-- 47.562
5.52 --undefined-- 46.424
5.53 --undefined-- 44.945
5.54 --undefined-- 43.595
5.55 --undefined-- 42.284
5.56 --undefined-- 40.643
5.57 --undefined-- 39.951
5.58 --undefined-- 40.441
5.59 --undefined-- 41.079
5.60 --undefined-- 41.918
5.61 --undefined-- 41.181
5.62 --undefined-- 37.224
5.63 --undefined-- 33.592
5.64 --undefined-- 36.600
5.65 --undefined-- 38.567
5.66 --undefined-- 38.429
5.67 --undefined-- 36.578
5.68 --undefined-- 33.650
5.69 --undefined-- 32.065
5.70 --undefined-- 34.607
5.71 --undefined-- 43.878
5.72 --undefined-- 56.614
5.73 --undefined-- 65.393
5.74 --undefined-- 70.599
5.75 142.587 73.040
5.76 138.762 73.455
5.77 134.401 72.906
5.78 131.305 72.610
5.79 132.071 72.569
5.80 136.582 72.725
5.81 137.461 72.871
5.82 131.400 72.678
5.83 118.561 72.186
5.84 86.803 70.761
5.85 86.891 67.570
5.86 --undefined-- 62.321
5.87 --undefined-- 54.310
5.88 --undefined-- 46.264
5.89 --undefined-- 43.934
5.90 --undefined-- 42.816
5.91 --undefined-- 42.032
5.92 --undefined-- 40.612
5.93 --undefined-- 38.189
5.94 --undefined-- 36.538
5.95 --undefined-- 41.548
5.96 --undefined-- --undefined--
5.97 --undefined-- --undefined--
5.98 --undefined-- --undefined--
5.99 --undefined-- --undefined--
