Time Pitch Intensity
0.01 --undefined-- --undefined--
0.02 130.092 --undefined--
0.03 125.605 --undefined--
0.04 123.409 --undefined--
0.05 121.713 77.761
0.06 116.994 77.287
0.07 109.774 76.792
0.08 108.996 76.178
0.09 103.408 75.053
0.10 96.793 73.416
0.11 99.870 71.613
0.12 92.540 69.720
0.13 86.078 67.387
0.14 118.199 64.650
0.15 116.649 60.734
0.16 --undefined-- 54.442
0.17 --undefined-- 48.885
0.18 --undefined-- 49.480
0.19 --undefined-- 50.319
0.20 --undefined-- 50.624
0.21 --undefined-- 51.190
0.22 --undefined-- 51.774
0.23 --undefined-- 52.021
0.24 --undefined-- 52.745
0.25 --undefined-- 53.247
0.26 --undefined-- 52.887
0.27 --undefined-- 52.700
0.28 --undefined-- 52.691
0.29 --undefined-- 52.703
0.30 --undefined-- 52.836
0.31 --undefined-- 52.574
0.32 --undefined-- 52.365
0.33 --undefined-- 52.604
0.34 --undefined-- 52.517
0.35 --undefined-- 52.230
0.36 --undefined-- 52.182
0.37 --undefined-- 50.869
0.38 --undefined-- 47.062
0.39 --undefined-- 42.418
0.40 --undefined-- 42.311
0.41 --undefined-- 53.796
0.42 --undefined-- 63.609
0.43 228.057 69.538
0.44 237.980 72.779
0.45 248.853 74.380
0.46 258.890 75.300
0.47 271.828 76.044
0.48 284.484 76.326
0.49 283.832 75.503
0.50 264.854 73.715
0.51 241.058 72.131
0.52 231.749 70.384
0.53 214.639 67.227
0.54 --undefined-- 65.681
0.55 --undefined-- 67.315
0.56 --undefined-- 67.707
0.57 --undefined-- 67.612
0.58 173.094 71.751
0.59 173.637 75.966
0.60 165.303 77.957
0.61 155.050 78.303
0.62 146.280 78.047
0.63 141.455 78.061
0.64 137.216 78.234
0.65 128.654 78.291
0.66 124.927 78.348
0.67 122.900 78.031
0.68 124.863 77.494
0.69 125.349 77.502
0.70 124.709 77.782
0.71 124.672 77.791
0.72 123.077 76.889
0.73 118.906 74.531
0.74 117.059 70.904
0.75 117.664 67.357
0.76 117.131 65.121
0.77 117.351 64.437
0.78 130.020 66.297
0.79 147.470 70.312
0.80 155.749 73.910
0.81 161.630 75.839
0.82 167.602 76.308
0.83 175.659 76.000
0.84 186.929 75.643
0.85 195.405 75.578
0.86 202.900 75.500
0.87 209.375 75.472
0.88 215.807 75.598
0.89 222.010 75.874
0.90 227.657 76.171
0.91 231.089 76.019
0.92 233.339 75.464
0.93 233.199 75.203
0.94 228.624 75.544
0.95 220.398 75.965
0.96 208.567 75.954
0.97 190.643 75.747
0.98 174.444 76.060
0.99 162.399 76.391
1.00 151.204 76.026
1.01 139.564 75.480
1.02 134.215 75.239
1.03 132.231 75.278
1.04 132.022 75.742
1.05 133.337 76.315
1.06 134.856 76.550
1.07 137.460 76.648
1.08 140.041 77.004
1.09 142.048 77.340
1.10 143.246 76.768
1.11 140.723 74.149
1.12 128.281 69.150
1.13 138.862 67.143
1.14 150.589 72.536
1.15 145.183 76.436
1.16 137.390 77.861
1.17 126.807 77.842
1.18 122.480 77.686
1.19 119.756 77.404
1.20 119.062 76.732
1.21 119.156 76.110
1.22 120.781 75.947
1.23 123.447 76.102
1.24 127.447 76.246
1.25 128.462 76.246
1.26 132.861 76.676
1.27 140.845 77.722
1.28 144.250 78.505
1.29 149.595 78.798
1.30 157.583 78.784
1.31 159.256 78.680
1.32 163.450 78.755
1.33 167.974 78.810
1.34 171.673 78.621
1.35 174.469 78.671
1.36 176.114 79.164
1.37 171.829 78.967
1.38 166.199 76.889
1.39 157.504 72.872
1.40 163.939 68.115
1.41 168.156 62.934
1.42 --undefined-- 61.674
1.43 146.137 67.945
1.44 140.564 72.633
1.45 124.855 75.064
1.46 120.579 76.000
1.47 114.985 76.169
1.48 110.103 75.769
1.49 105.645 74.832
1.50 102.083 73.187
1.51 98.768 70.717
1.52 97.151 67.675
1.53 98.537 64.657
1.54 101.592 62.036
1.55 100.855 62.107
1.56 114.031 66.335
1.57 116.802 70.329
1.58 115.137 72.846
1.59 108.749 73.915
1.60 106.744 74.014
1.61 106.603 73.905
1.62 108.303 73.778
1.63 109.029 73.286
1.64 112.270 72.058
1.65 114.618 69.622
1.66 103.392 65.284
1.67 --undefined-- 58.796
1.68 --undefined-- 51.909
1.69 --undefined-- 47.511
1.70 --undefined-- 43.942
1.71 --undefined-- 40.987
1.72 --undefined-- 39.679
1.73 --undefined-- 39.017
1.74 --undefined-- 41.552
1.75 --undefined-- 47.528
1.76 --undefined-- 51.497
1.77 --undefined-- 53.025
1.78 --undefined-- 52.788
1.79 --undefined-- 51.117
1.80 --undefined-- 49.052
1.81 --undefined-- 47.420
1.82 --undefined-- 46.166
1.83 --undefined-- 45.360
1.84 --undefined-- 45.145
1.85 --undefined-- 45.676
1.86 --undefined-- 46.849
1.87 --undefined-- 49.258
1.88 --undefined-- 60.338
1.89 --undefined-- 70.304
1.90 --undefined-- 75.942
1.91 180.228 78.500
1.92 183.297 79.471
1.93 185.051 79.942
1.94 186.962 80.202
1.95 188.789 80.372
1.96 190.574 80.531
1.97 192.488 80.692
1.98 194.131 80.803
1.99 194.964 80.892
2.00 195.627 81.023
2.01 196.016 80.956
2.02 197.343 80.222
2.03 198.065 78.320
2.04 191.385 74.646
2.05 181.500 68.692
2.06 198.482 61.143
2.07 199.425 56.100
2.08 --undefined-- 55.428
2.09 --undefined-- 56.753
2.10 --undefined-- 58.065
2.11 --undefined-- 58.701
2.12 --undefined-- 61.462
2.13 --undefined-- 70.278
2.14 205.223 76.820
2.15 198.157 79.928
2.16 188.205 80.645
2.17 184.231 80.319
2.18 181.654 79.705
2.19 179.729 78.801
2.20 177.793 77.295
2.21 175.789 74.250
2.22 178.122 68.578
2.23 177.517 60.217
2.24 --undefined-- 53.560
2.25 --undefined-- 51.144
2.26 --undefined-- 49.387
2.27 --undefined-- 47.516
2.28 --undefined-- 45.771
2.29 --undefined-- 44.945
2.30 --undefined-- 48.956
2.31 --undefined-- 54.293
2.32 --undefined-- 62.072
2.33 --undefined-- 70.039
2.34 --undefined-- 74.437
2.35 129.404 75.627
2.36 122.963 74.778
2.37 108.845 73.347
2.38 110.033 72.366
2.39 111.767 72.196
2.40 114.442 72.545
2.41 116.446 72.521
2.42 115.782 71.026
2.43 103.816 67.645
2.44 104.603 63.219
2.45 110.862 58.754
2.46 --undefined-- 54.095
2.47 --undefined-- 49.075
2.48 --undefined-- 44.908
2.49 --undefined-- 45.616
2.50 --undefined-- 46.349
2.51 --undefined-- 49.380
2.52 --undefined-- 55.525
2.53 --undefined-- 59.432
2.54 --undefined-- 60.967
2.55 --undefined-- 60.992
2.56 --undefined-- 60.571
2.57 --undefined-- 62.823
2.58 --undefined-- 68.565
2.59 --undefined-- 72.471
2.60 115.232 74.009
2.61 112.340 74.277
2.62 110.827 74.291
2.63 107.953 74.371
2.64 105.449 74.410
2.65 103.806 74.256
2.66 102.714 73.814
2.67 101.587 73.006
2.68 101.103 71.471
2.69 94.486 69.111
2.70 101.467 67.985
2.71 104.848 68.813
2.72 108.984 70.166
2.73 113.677 71.470
2.74 118.492 72.406
2.75 126.255 73.118
2.76 132.533 73.973
2.77 133.954 74.724
2.78 137.489 75.182
2.79 141.183 75.474
2.80 144.310 75.822
2.81 146.437 76.245
2.82 148.573 76.524
2.83 149.638 76.706
2.84 149.930 76.977
2.85 149.957 77.329
2.86 150.325 77.359
2.87 149.941 76.179
2.88 147.201 73.223
2.89 149.700 69.313
2.90 149.036 65.654
2.91 151.967 61.896
2.92 152.875 57.590
2.93 --undefined-- 53.615
2.94 --undefined-- 62.188
2.95 --undefined-- 71.409
2.96 180.983 76.333
2.97 171.668 78.075
2.98 164.236 78.160
2.99 160.420 78.108
3.00 157.645 77.875
3.01 153.228 76.686
3.02 149.753 74.803
3.03 148.920 73.033
3.04 150.826 72.071
3.05 155.345 72.451
3.06 154.065 73.352
3.07 153.533 73.898
3.08 154.160 74.149
3.09 154.763 74.552
3.10 153.947 75.091
3.11 152.121 75.383
3.12 149.201 75.029
3.13 145.065 73.634
3.14 138.409 70.926
3.15 130.100 67.477
3.16 129.853 66.248
3.17 130.297 67.862
3.18 130.804 70.164
3.19 126.890 72.668
3.20 121.812 74.665
3.21 117.112 75.818
3.22 114.180 76.326
3.23 113.298 76.508
3.24 112.949 76.545
3.25 113.236 76.282
3.26 113.042 75.112
3.27 111.374 72.795
3.28 122.091 71.062
3.29 127.944 71.259
3.30 131.681 71.767
3.31 133.765 71.973
3.32 133.819 71.686
3.33 132.047 70.693
3.34 131.682 69.277
3.35 132.736 69.924
3.36 157.628 74.290
3.37 152.052 77.488
3.38 147.546 78.427
3.39 142.014 77.888
3.40 137.671 77.150
3.41 135.715 76.850
3.42 132.930 76.753
3.43 129.961 76.883
3.44 126.778 77.185
3.45 123.746 77.406
3.46 121.823 77.171
3.47 116.770 76.152
3.48 112.418 75.051
3.49 110.863 74.694
3.50 110.356 74.755
3.51 110.618 74.922
3.52 110.277 74.978
3.53 110.634 74.599
3.54 110.292 73.344
3.55 106.082 70.745
3.56 104.958 66.757
3.57 109.147 61.924
3.58 --undefined-- 56.241
3.59 --undefined-- 50.402
3.60 --undefined-- 50.768
3.61 --undefined-- 59.056
3.62 --undefined-- 67.707
3.63 141.155 72.868
3.64 141.350 74.863
3.65 139.171 74.957
3.66 140.155 74.814
3.67 140.276 74.440
3.68 135.523 72.979
3.69 132.860 71.224
3.70 131.373 70.656
3.71 129.200 71.110
3.72 127.606 71.934
3.73 124.188 72.874
3.74 123.470 73.879
3.75 122.740 74.689
3.76 121.287 74.921
3.77 121.634 74.649
3.78 127.185 74.680
3.79 130.405 75.099
3.80 131.740 75.455
3.81 131.927 75.566
3.82 130.751 75.253
3.83 128.346 74.168
3.84 120.843 71.953
3.85 116.366 68.533
3.86 119.558 64.671
3.87 --undefined-- 63.820
3.88 --undefined-- 64.583
3.89 --undefined-- 65.656
3.90 119.787 69.457
3.91 118.914 73.319
3.92 115.732 75.632
3.93 111.696 76.535
3.94 107.858 76.639
3.95 107.276 76.649
3.96 107.615 76.741
3.97 108.456 76.516
3.98 108.717 75.592
3.99 109.329 74.626
4.00 117.900 75.414
4.01 122.560 76.984
4.02 123.054 77.878
4.03 122.924 77.740
4.04 120.787 76.283
4.05 116.919 73.097
4.06 113.511 68.350
4.07 116.748 63.815
4.08 117.002 60.751
4.09 118.539 59.329
4.10 123.749 62.260
4.11 120.027 67.292
4.12 115.682 71.303
4.13 112.132 73.746
4.14 108.841 74.806
4.15 105.458 74.492
4.16 102.282 73.001
4.17 99.425 71.229
4.18 99.666 70.474
4.19 99.186 70.454
4.20 97.968 70.264
4.21 95.633 69.374
4.22 92.847 67.395
4.23 91.950 64.353
4.24 --undefined-- 60.645
4.25 --undefined-- 56.378
4.26 --undefined-- 51.233
4.27 --undefined-- 49.691
4.28 --undefined-- 52.571
4.29 --undefined-- 53.990
4.30 --undefined-- 55.358
4.31 --undefined-- 62.049
4.32 --undefined-- 67.717
4.33 103.306 71.059
4.34 103.456 72.795
4.35 102.056 73.566
4.36 100.271 73.757
4.37 98.751 73.632
4.38 98.092 73.175
4.39 97.187 72.107
4.40 96.437 70.240
4.41 94.212 67.492
4.42 93.582 64.108
4.43 91.168 60.720
4.44 91.986 60.036
4.45 95.884 63.145
4.46 97.456 66.605
4.47 97.560 69.357
4.48 97.090 71.473
4.49 96.697 72.978
4.50 96.862 73.940
4.51 97.930 74.522
4.52 100.688 74.879
4.53 102.258 75.045
4.54 103.412 74.914
4.55 105.659 74.347
4.56 105.571 73.497
4.57 108.087 73.036
4.58 111.242 73.168
4.59 113.320 73.444
4.60 115.395 73.520
4.61 117.535 73.413
4.62 120.632 73.758
4.63 123.577 74.878
4.64 123.385 76.004
4.65 123.055 76.646
4.66 123.654 76.945
4.67 122.183 77.085
4.68 120.868 77.372
4.69 119.037 77.721
4.70 116.159 77.872
4.71 112.708 77.825
4.72 110.382 77.746
4.73 105.874 77.589
4.74 105.039 77.236
4.75 104.533 76.766
4.76 103.377 76.238
4.77 102.185 75.638
4.78 102.105 75.018
4.79 102.689 74.508
4.80 104.122 74.374
4.81 106.166 74.692
4.82 110.054 75.510
4.83 116.668 76.793
4.84 120.813 77.992
4.85 125.704 78.888
4.86 127.666 79.329
4.87 130.600 79.229
4.88 133.665 78.850
4.89 136.459 78.193
4.90 141.768 76.871
4.91 140.987 74.722
4.92 136.645 71.353
4.93 122.469 65.949
4.94 133.135 59.544
4.95 138.215 55.674
4.96 --undefined-- 54.028
4.97 --undefined-- 55.645
4.98 --undefined-- 59.097
4.99 --undefined-- 59.558
5.00 --undefined-- 57.129
5.01 --undefined-- 56.039
5.02 --undefined-- 56.669
5.03 --undefined-- 57.300
5.04 --undefined-- 58.677
5.05 193.252 60.235
5.06 191.742 60.761
5.07 190.575 59.973
5.08 184.014 58.753
5.09 184.211 58.008
5.10 176.886 57.977
5.11 164.983 59.006
5.12 162.775 60.545
5.13 153.508 61.880
5.14 139.651 --undefined--
5.15 120.679 --undefined--
5.16 --undefined-- --undefined--
5.17 --undefined-- --undefined--
