Time Pitch Intensity
0.01 --undefined-- --undefined--
0.02 118.687 --undefined--
0.03 118.871 --undefined--
0.04 118.054 --undefined--
0.05 --undefined-- 58.535
0.06 --undefined-- 66.380
0.07 --undefined-- 71.192
0.08 --undefined-- 73.009
0.09 --undefined-- 72.480
0.10 --undefined-- 70.125
0.11 --undefined-- 65.971
0.12 --undefined-- 60.101
0.13 --undefined-- 53.266
0.14 --undefined-- 48.210
0.15 --undefined-- 45.436
0.16 --undefined-- 43.823
0.17 --undefined-- 43.325
0.18 --undefined-- 47.046
0.19 --undefined-- 52.309
0.20 --undefined-- 57.809
0.21 --undefined-- 62.064
0.22 --undefined-- 65.973
0.23 --undefined-- 70.252
0.24 --undefined-- 72.507
0.25 104.257 72.271
0.26 95.739 70.592
0.27 92.356 68.376
0.28 93.503 66.850
0.29 96.846 67.007
0.30 101.549 67.722
0.31 106.072 68.929
0.32 112.782 70.700
0.33 119.765 72.439
0.34 128.001 73.837
0.35 135.620 75.011
0.36 140.768 76.064
0.37 144.966 76.872
0.38 149.347 77.352
0.39 152.142 77.557
0.40 153.811 77.474
0.41 153.793 76.801
0.42 151.832 75.173
0.43 149.009 72.539
0.44 146.952 68.907
0.45 152.701 64.238
0.46 158.678 58.894
0.47 150.500 54.345
0.48 --undefined-- 52.335
0.49 --undefined-- 61.556
0.50 --undefined-- 69.836
0.51 --undefined-- 74.429
0.52 123.863 76.257
0.53 120.496 76.391
0.54 115.353 75.716
0.55 112.337 75.488
0.56 111.167 75.796
0.57 109.283 75.768
0.58 108.429 75.233
0.59 107.598 74.264
0.60 106.910 73.214
0.61 105.804 72.220
0.62 104.549 71.415
0.63 104.684 71.088
0.64 104.975 71.307
0.65 105.981 72.065
0.66 106.972 73.080
0.67 107.075 73.771
0.68 106.364 73.246
0.69 87.426 70.609
0.70 92.032 65.894
0.71 92.069 61.382
0.72 --undefined-- 61.886
0.73 --undefined-- 67.458
0.74 --undefined-- 70.915
0.75 89.496 71.968
0.76 87.994 72.054
0.77 91.048 72.127
0.78 93.770 72.449
0.79 102.773 73.386
0.80 111.685 74.800
0.81 116.322 75.871
0.82 121.797 76.174
0.83 129.136 76.011
0.84 132.273 75.461
0.85 132.041 73.807
0.86 122.337 70.251
0.87 124.994 65.470
0.88 --undefined-- 66.411
0.89 146.034 72.062
0.90 137.242 75.131
0.91 129.126 75.324
0.92 120.274 73.486
0.93 106.034 71.036
0.94 105.508 69.479
0.95 100.893 69.160
0.96 95.635 69.269
0.97 91.424 69.043
0.98 88.607 68.432
0.99 85.801 67.705
1.00 89.011 67.669
1.01 88.466 68.132
1.02 87.695 68.561
1.03 87.884 69.056
1.04 88.015 69.366
1.05 89.961 68.835
1.06 90.027 67.017
1.07 89.488 64.108
1.08 89.154 61.567
1.09 89.430 60.149
1.10 106.614 58.010
1.11 102.221 53.852
1.12 --undefined-- 49.109
1.13 --undefined-- 47.964
1.14 --undefined-- 51.367
1.15 --undefined-- 56.465
1.16 --undefined-- 64.719
1.17 162.675 71.888
1.18 161.360 75.951
1.19 151.003 77.579
1.20 147.283 77.820
1.21 141.009 77.417
1.22 134.170 76.389
1.23 126.188 74.801
1.24 123.185 73.265
1.25 119.380 72.175
1.26 116.179 72.140
1.27 114.482 73.115
1.28 110.873 74.264
1.29 107.432 74.877
1.30 103.931 74.529
1.31 97.194 73.713
1.32 95.001 72.988
1.33 91.715 71.882
1.34 87.896 70.279
1.35 84.760 68.681
1.36 85.385 67.580
1.37 88.326 67.831
1.38 90.377 69.051
1.39 90.204 69.953
1.40 89.996 70.134
1.41 90.678 69.629
1.42 91.118 68.097
1.43 88.843 65.042
1.44 83.350 60.712
1.45 96.824 56.170
1.46 --undefined-- 51.487
1.47 --undefined-- 45.761
1.48 --undefined-- 49.592
1.49 --undefined-- 59.754
1.50 --undefined-- 66.786
1.51 --undefined-- 70.844
1.52 92.480 72.474
1.53 91.529 72.529
1.54 88.978 72.109
1.55 88.405 71.719
1.56 89.240 71.520
1.57 90.538 71.497
1.58 92.048 71.382
1.59 93.043 71.088
1.60 93.533 70.793
1.61 94.053 70.504
1.62 93.837 70.090
1.63 95.560 69.990
1.64 97.663 70.453
1.65 98.852 71.041
1.66 99.373 71.241
1.67 97.336 70.252
1.68 90.996 67.260
1.69 90.764 62.765
1.70 83.323 58.424
1.71 --undefined-- 57.367
1.72 --undefined-- 62.593
1.73 --undefined-- 67.096
1.74 --undefined-- 69.459
1.75 84.040 70.175
1.76 83.632 70.297
1.77 84.887 70.394
1.78 86.555 70.601
1.79 88.568 70.832
1.80 95.075 71.301
1.81 100.219 72.097
1.82 105.080 73.117
1.83 107.866 74.113
1.84 109.565 74.680
1.85 110.833 74.850
1.86 114.638 75.306
1.87 119.553 75.945
1.88 123.673 76.448
1.89 127.196 76.913
1.90 132.340 77.005
1.91 133.177 76.442
1.92 129.737 75.836
1.93 130.012 75.835
1.94 130.308 76.174
1.95 129.925 76.472
1.96 127.808 76.360
1.97 124.258 75.058
1.98 121.604 71.966
1.99 125.472 67.516
2.00 125.693 63.072
2.01 125.090 58.452
2.02 125.214 54.461
2.03 125.496 53.397
2.04 126.784 54.696
2.05 126.418 57.123
2.06 --undefined-- 58.865
2.07 --undefined-- 59.713
2.08 --undefined-- 59.820
2.09 --undefined-- 60.594
2.10 --undefined-- 64.834
2.11 111.617 68.612
2.12 98.275 70.165
2.13 94.954 70.182
2.14 92.467 69.386
2.15 87.686 67.651
2.16 82.326 65.260
2.17 87.508 64.674
2.18 88.511 65.703
2.19 88.271 66.527
2.20 89.472 67.088
2.21 90.539 67.453
2.22 91.198 67.510
2.23 91.524 67.484
2.24 88.409 67.540
2.25 86.201 67.372
2.26 78.868 66.791
2.27 77.024 65.708
2.28 77.152 64.680
2.29 77.574 64.828
2.30 78.545 65.608
2.31 84.502 66.333
2.32 94.466 66.624
2.33 96.996 66.846
2.34 102.655 67.926
2.35 106.191 69.414
2.36 108.479 70.616
2.37 111.507 71.572
2.38 113.632 72.404
2.39 116.502 73.035
2.40 119.387 73.323
2.41 119.763 73.206
2.42 119.457 72.541
2.43 119.275 70.822
2.44 111.183 67.848
2.45 105.831 64.213
2.46 104.057 60.108
2.47 103.324 56.654
2.48 106.979 54.280
2.49 --undefined-- 51.552
2.50 --undefined-- 49.691
2.51 --undefined-- 59.988
2.52 --undefined-- 69.180
2.53 --undefined-- 74.074
2.54 142.649 75.745
2.55 136.399 75.400
2.56 128.674 74.465
2.57 124.409 73.979
2.58 120.586 73.660
2.59 120.002 73.111
2.60 120.929 72.738
2.61 122.232 72.935
2.62 123.834 73.261
2.63 124.897 72.932
2.64 125.344 71.871
2.65 127.385 71.146
2.66 128.502 71.106
2.67 128.665 71.105
2.68 126.823 70.986
2.69 125.050 71.018
2.70 124.308 71.569
2.71 124.612 72.667
2.72 126.498 73.785
2.73 126.138 74.484
2.74 125.012 74.831
2.75 123.934 75.008
2.76 123.531 75.041
2.77 122.578 74.843
2.78 121.065 74.243
2.79 117.925 72.830
2.80 114.150 70.120
2.81 109.607 65.907
2.82 106.752 61.168
2.83 105.511 62.424
2.84 135.555 69.551
2.85 126.984 73.902
2.86 113.924 75.193
2.87 109.155 74.587
2.88 102.249 73.675
2.89 99.427 73.126
2.90 98.690 72.790
2.91 97.218 72.395
2.92 95.926 71.933
2.93 93.272 71.442
2.94 92.703 70.877
2.95 93.136 70.477
2.96 93.259 70.428
2.97 93.400 70.367
2.98 92.528 70.146
2.99 92.532 70.003
3.00 90.734 69.726
3.01 89.260 68.535
3.02 80.572 65.873
3.03 88.002 62.356
3.04 91.287 61.767
3.05 91.971 65.653
3.06 --undefined-- 69.642
3.07 104.284 71.892
3.08 105.804 72.801
3.09 104.431 73.201
3.10 103.671 73.315
3.11 102.884 73.040
3.12 101.209 72.817
3.13 98.721 72.754
3.14 96.997 72.595
3.15 93.913 72.177
3.16 93.069 70.920
3.17 94.527 68.089
3.18 92.279 63.452
3.19 109.134 57.646
3.20 --undefined-- 52.315
3.21 --undefined-- 50.846
3.22 --undefined-- 51.113
3.23 --undefined-- 48.983
3.24 --undefined-- 48.212
3.25 --undefined-- 52.726
3.26 --undefined-- 55.376
3.27 --undefined-- 54.846
3.28 --undefined-- 52.802
3.29 --undefined-- 51.381
3.30 --undefined-- 50.684
3.31 --undefined-- 50.910
3.32 --undefined-- 51.154
3.33 --undefined-- 51.168
3.34 --undefined-- 51.517
3.35 --undefined-- 52.252
3.36 --undefined-- 53.028
3.37 --undefined-- 53.670
3.38 --undefined-- 53.936
3.39 --undefined-- 54.323
3.40 --undefined-- 54.916
3.41 --undefined-- 54.780
3.42 --undefined-- 54.018
3.43 --undefined-- 53.851
3.44 --undefined-- 54.108
3.45 --undefined-- 54.892
3.46 --undefined-- 55.704
3.47 --undefined-- 53.956
3.48 --undefined-- 48.650
3.49 --undefined-- 43.193
3.50 --undefined-- 42.661
3.51 --undefined-- 50.678
3.52 --undefined-- 62.783
3.53 171.291 70.554
3.54 163.482 74.985
3.55 160.455 77.270
3.56 156.208 78.306
3.57 152.274 78.497
3.58 147.849 78.125
3.59 145.542 77.699
3.60 145.729 77.293
3.61 144.762 76.771
3.62 141.555 76.752
3.63 139.784 77.294
3.64 137.113 77.702
3.65 128.777 77.820
3.66 123.941 77.722
3.67 120.212 77.137
3.68 117.430 76.126
3.69 114.108 75.314
3.70 112.404 74.834
3.71 110.839 74.428
3.72 110.661 74.089
3.73 110.687 73.694
3.74 109.904 73.145
3.75 109.089 72.566
3.76 108.460 72.022
3.77 107.804 71.381
3.78 108.205 70.614
3.79 109.009 69.885
3.80 109.977 69.137
3.81 109.858 68.061
3.82 107.587 66.435
3.83 102.753 64.161
3.84 80.099 61.438
3.85 --undefined-- 58.954
3.86 --undefined-- 55.653
3.87 --undefined-- 51.095
3.88 --undefined-- 47.670
3.89 --undefined-- 44.319
3.90 --undefined-- 42.367
3.91 --undefined-- 41.562
3.92 --undefined-- 40.261
3.93 --undefined-- 42.233
3.94 --undefined-- 47.534
3.95 --undefined-- 52.849
3.96 --undefined-- 57.154
3.97 107.232 60.434
3.98 115.606 63.649
3.99 116.727 66.618
4.00 114.198 68.702
4.01 112.888 70.214
4.02 112.309 71.370
4.03 111.731 72.046
4.04 111.760 72.914
4.05 120.425 74.639
4.06 118.652 75.903
4.07 114.575 76.167
4.08 113.797 76.223
4.09 114.077 76.447
4.10 114.033 76.720
4.11 114.666 76.981
4.12 114.643 77.130
4.13 114.651 76.956
4.14 113.908 76.141
4.15 111.271 74.404
4.16 110.579 72.557
4.17 118.068 72.586
4.18 120.448 73.759
4.19 120.880 74.644
4.20 121.384 75.136
4.21 123.038 75.424
4.22 125.710 75.713
4.23 127.335 76.027
4.24 128.470 76.241
4.25 128.985 76.251
4.26 129.446 75.884
4.27 129.893 74.985
4.28 131.059 73.692
4.29 130.666 72.006
4.30 130.827 69.805
4.31 132.395 66.917
4.32 136.148 63.101
4.33 133.132 58.545
4.34 --undefined-- 63.350
4.35 191.049 71.314
4.36 188.356 75.511
4.37 184.924 76.875
4.38 182.583 76.628
4.39 179.084 75.925
4.40 176.417 75.495
4.41 174.584 75.477
4.42 175.245 75.883
4.43 176.781 76.353
4.44 177.227 76.477
4.45 177.291 76.220
4.46 175.117 75.443
4.47 173.280 74.474
4.48 176.296 74.370
4.49 176.939 75.053
4.50 176.775 75.796
4.51 177.604 76.398
4.52 178.570 76.767
4.53 176.975 76.823
4.54 174.276 76.493
4.55 170.546 75.611
4.56 165.990 73.810
4.57 160.248 70.809
4.58 155.000 66.854
4.59 151.155 67.022
4.60 162.564 72.738
4.61 160.552 76.256
4.62 154.726 77.084
4.63 142.876 76.448
4.64 136.866 75.630
4.65 132.733 74.872
4.66 130.940 74.611
4.67 129.923 74.407
4.68 127.785 72.626
4.69 120.402 68.560
4.70 127.011 63.861
4.71 129.749 61.152
4.72 128.568 58.382
4.73 131.629 55.094
4.74 --undefined-- 59.809
4.75 --undefined-- 68.644
4.76 165.738 73.960
4.77 155.417 75.975
4.78 145.131 75.839
4.79 139.778 75.022
4.80 136.881 74.373
4.81 134.788 73.768
4.82 134.171 72.335
4.83 132.772 69.305
4.84 136.314 64.521
4.85 134.931 58.700
4.86 133.634 55.312
4.87 151.041 53.063
4.88 --undefined-- 50.328
4.89 --undefined-- 53.786
4.90 --undefined-- 63.349
4.91 --undefined-- 69.409
4.92 123.294 72.086
4.93 112.914 72.513
4.94 108.199 71.935
4.95 102.875 71.328
4.96 100.508 70.984
4.97 99.846 70.686
4.98 99.493 70.318
4.99 99.749 70.069
5.00 100.578 70.004
5.01 101.451 70.069
5.02 101.859 70.377
5.03 104.496 70.646
5.04 106.299 70.519
5.05 107.159 70.103
5.06 107.947 69.223
5.07 108.161 67.559
5.08 107.212 65.296
5.09 108.874 62.896
5.10 107.396 59.615
5.11 105.626 54.989
5.12 --undefined-- 53.096
5.13 --undefined-- --undefined--
5.14 --undefined-- --undefined--
5.15 --undefined-- --undefined--
5.16 --undefined-- --undefined--
