Time Pitch Intensity
0.01 --undefined-- --undefined--
0.02 129.642 --undefined--
0.03 135.238 --undefined--
0.04 134.121 --undefined--
0.05 130.776 75.586
0.06 127.390 75.735
0.07 121.277 75.427
0.08 118.402 74.608
0.09 114.686 73.569
0.10 111.919 72.977
0.11 112.225 73.025
0.12 112.696 73.023
0.13 113.402 72.284
0.14 120.205 70.158
0.15 106.535 66.119
0.16 106.395 60.400
0.17 105.495 54.746
0.18 --undefined-- 50.794
0.19 --undefined-- 49.904
0.20 --undefined-- 51.261
0.21 --undefined-- 53.363
0.22 --undefined-- 55.918
0.23 --undefined-- 63.263
0.24 --undefined-- 71.474
0.25 154.159 76.266
0.26 153.601 78.383
0.27 150.111 79.063
0.28 146.339 79.246
0.29 143.492 79.080
0.30 140.043 78.437
0.31 133.904 77.489
0.32 127.458 76.493
0.33 119.469 75.501
0.34 121.584 74.083
0.35 115.322 71.626
0.36 115.089 69.774
0.37 128.727 71.248
0.38 131.205 73.570
0.39 132.042 74.960
0.40 130.239 75.551
0.41 129.083 75.749
0.42 129.223 76.099
0.43 130.228 76.684
0.44 129.728 77.475
0.45 127.836 78.102
0.46 126.303 78.248
0.47 127.218 78.240
0.48 127.968 78.476
0.49 128.089 78.506
0.50 127.175 77.439
0.51 123.550 74.512
0.52 121.905 69.800
0.53 124.000 64.756
0.54 124.774 60.494
0.55 --undefined-- 59.434
0.56 --undefined-- 62.035
0.57 --undefined-- 65.008
0.58 --undefined-- 66.542
0.59 --undefined-- 68.673
0.60 --undefined-- 73.467
0.61 119.180 76.564
0.62 117.463 77.307
0.63 106.205 76.578
0.64 103.246 75.471
0.65 101.459 74.738
0.66 98.310 74.255
0.67 97.139 73.617
0.68 96.862 72.874
0.69 96.530 72.254
0.70 95.611 71.491
0.71 94.070 70.137
0.72 92.617 68.126
0.73 91.965 66.027
0.74 92.742 64.553
0.75 93.305 64.298
0.76 95.390 65.849
0.77 97.859 68.142
0.78 99.590 69.944
0.79 99.510 70.930
0.80 100.097 71.405
0.81 100.822 71.717
0.82 101.517 71.908
0.83 103.086 71.917
0.84 102.641 71.704
0.85 101.631 71.268
0.86 99.603 70.263
0.87 95.444 68.199
0.88 92.683 65.200
0.89 --undefined-- 61.403
0.90 --undefined-- 58.711
0.91 89.536 61.837
0.92 89.471 65.491
0.93 89.287 67.860
0.94 88.338 69.143
0.95 88.033 69.538
0.96 88.272 69.180
0.97 88.992 68.518
0.98 97.294 68.346
0.99 107.335 69.131
1.00 114.868 70.336
1.01 119.311 71.296
1.02 122.051 71.947
1.03 124.363 72.642
1.04 126.996 73.639
1.05 128.733 74.721
1.06 130.214 75.703
1.07 132.382 76.496
1.08 134.293 77.136
1.09 134.890 77.575
1.10 135.703 77.785
1.11 136.455 77.803
1.12 135.708 77.505
1.13 131.392 76.782
1.14 127.557 75.575
1.15 126.529 73.371
1.16 128.879 69.221
1.17 127.002 62.471
1.18 --undefined-- 54.307
1.19 --undefined-- 49.437
1.20 --undefined-- 49.923
1.21 --undefined-- 52.212
1.22 --undefined-- 52.610
1.23 --undefined-- 51.647
1.24 --undefined-- 51.111
1.25 --undefined-- 51.788
1.26 --undefined-- 52.722
1.27 --undefined-- 53.497
1.28 --undefined-- 54.601
1.29 --undefined-- 55.674
1.30 --undefined-- 55.995
1.31 --undefined-- 55.718
1.32 --undefined-- 56.050
1.33 --undefined-- 56.350
1.34 --undefined-- 56.452
1.35 --undefined-- 57.139
1.36 --undefined-- 57.182
1.37 --undefined-- 56.713
1.38 --undefined-- 56.799
1.39 --undefined-- 56.695
1.40 --undefined-- 57.085
1.41 --undefined-- 58.161
1.42 --undefined-- 57.707
1.43 --undefined-- 55.375
1.44 --undefined-- 52.753
1.45 --undefined-- 50.404
1.46 --undefined-- 47.134
1.47 --undefined-- 44.882
1.48 --undefined-- 45.695
1.49 --undefined-- 56.021
1.50 --undefined-- 66.092
1.51 175.922 72.181
1.52 180.771 75.555
1.53 186.833 77.359
1.54 191.065 78.425
1.55 194.287 79.064
1.56 198.065 79.456
1.57 200.449 79.703
1.58 201.611 79.675
1.59 200.931 79.293
1.60 199.434 78.534
1.61 193.267 77.303
1.62 184.345 75.619
1.63 181.623 72.996
1.64 167.918 68.417
1.65 --undefined-- 63.579
1.66 --undefined-- 65.659
1.67 --undefined-- 68.436
1.68 --undefined-- 70.094
1.69 --undefined-- 73.936
1.70 153.350 78.478
1.71 156.266 80.747
1.72 157.002 81.159
1.73 157.011 81.038
1.74 155.605 80.969
1.75 151.260 80.619
1.76 149.141 80.139
1.77 152.887 79.983
1.78 154.218 79.856
1.79 152.254 79.227
1.80 147.050 77.493
1.81 143.151 74.175
1.82 143.491 70.202
1.83 151.403 71.285
1.84 155.545 75.551
1.85 156.262 78.440
1.86 155.732 79.611
1.87 149.171 79.635
1.88 145.269 79.406
1.89 143.858 79.002
1.90 142.500 77.770
1.91 138.587 75.044
1.92 134.876 70.518
1.93 140.650 65.237
1.94 145.281 61.172
1.95 --undefined-- 60.007
1.96 --undefined-- 60.417
1.97 --undefined-- 65.082
1.98 --undefined-- 71.964
1.99 --undefined-- 76.019
2.00 129.513 77.158
2.01 120.469 76.625
2.02 113.150 75.771
2.03 106.607 74.778
2.04 106.864 74.137
2.05 106.648 73.632
2.06 105.197 71.861
2.07 104.382 68.470
2.08 115.884 65.239
2.09 120.230 63.426
2.10 125.491 62.644
2.11 129.618 64.305
2.12 136.009 67.570
2.13 169.864 71.752
2.14 179.946 75.311
2.15 183.370 77.065
2.16 187.275 77.399
2.17 190.138 77.304
2.18 191.693 77.181
2.19 191.769 77.014
2.20 189.941 76.696
2.21 186.874 75.639
2.22 173.360 73.533
2.23 173.770 71.850
2.24 171.474 71.951
2.25 166.322 72.563
2.26 157.860 73.173
2.27 149.669 73.764
2.28 141.786 74.253
2.29 130.016 74.207
2.30 120.148 73.572
2.31 115.330 72.854
2.32 111.035 71.835
2.33 108.405 70.701
2.34 107.430 70.254
2.35 106.707 70.194
2.36 105.304 69.796
2.37 102.489 68.618
2.38 99.409 66.567
2.39 97.320 64.028
2.40 98.247 61.320
2.41 100.331 59.191
2.42 --undefined-- 64.066
2.43 --undefined-- 70.020
2.44 --undefined-- 72.561
2.45 110.438 72.557
2.46 110.078 72.395
2.47 110.919 72.659
2.48 112.561 72.233
2.49 112.520 71.048
2.50 111.461 69.647
2.51 109.983 68.672
2.52 110.253 68.493
2.53 110.791 68.926
2.54 111.266 69.465
2.55 112.352 69.843
2.56 113.431 70.082
2.57 114.000 70.271
2.58 115.061 70.395
2.59 115.936 70.464
2.60 116.187 70.796
2.61 116.279 71.961
2.62 116.397 73.462
2.63 113.648 74.130
2.64 111.821 73.825
2.65 111.371 73.318
2.66 114.718 73.184
2.67 115.831 73.316
2.68 118.094 73.500
2.69 122.761 73.739
2.70 127.402 74.145
2.71 134.693 74.843
2.72 140.051 75.747
2.73 147.993 76.655
2.74 152.515 77.434
2.75 157.539 78.079
2.76 162.606 78.686
2.77 166.761 79.145
2.78 176.120 79.331
2.79 180.000 79.284
2.80 180.251 79.134
2.81 178.438 78.915
2.82 178.127 78.696
2.83 178.271 78.408
2.84 177.873 77.874
2.85 176.939 76.882
2.86 177.510 75.089
2.87 180.177 73.022
2.88 181.447 72.071
2.89 183.005 72.517
2.90 193.906 74.678
2.91 202.509 77.006
2.92 201.809 77.895
2.93 201.059 77.477
2.94 201.061 76.557
2.95 197.892 75.555
2.96 199.860 75.087
2.97 199.992 75.349
2.98 196.753 75.868
2.99 189.871 76.643
3.00 181.457 77.272
3.01 172.621 77.347
3.02 162.394 77.160
3.03 151.875 77.045
3.04 145.669 76.752
3.05 138.847 76.170
3.06 132.525 75.279
3.07 126.461 74.302
3.08 123.174 73.536
3.09 119.175 72.457
3.10 114.624 71.123
3.11 113.996 70.273
3.12 111.336 69.780
3.13 109.422 69.595
3.14 108.746 69.632
3.15 108.534 69.748
3.16 110.198 70.049
3.17 110.967 70.390
3.18 111.382 70.556
3.19 112.080 70.534
3.20 112.963 70.461
3.21 113.648 70.481
3.22 114.634 70.652
3.23 115.665 70.889
3.24 116.629 71.127
3.25 117.879 71.370
3.26 119.144 71.625
3.27 120.156 71.829
3.28 120.107 71.656
3.29 118.462 70.715
3.30 117.527 69.223
3.31 117.642 67.430
3.32 116.130 64.836
3.33 --undefined-- 62.251
3.34 --undefined-- 61.488
3.35 --undefined-- 61.660
3.36 --undefined-- 62.339
3.37 --undefined-- 63.606
3.38 --undefined-- 64.902
3.39 --undefined-- 65.538
3.40 --undefined-- 67.509
3.41 --undefined-- 72.391
3.42 128.915 75.482
3.43 121.283 76.291
3.44 113.194 75.880
3.45 114.514 75.434
3.46 115.246 75.190
3.47 116.866 74.925
3.48 122.121 74.661
3.49 126.450 74.462
3.50 131.670 74.406
3.51 136.930 74.537
3.52 142.958 74.578
3.53 149.523 74.267
3.54 157.530 73.849
3.55 167.815 73.932
3.56 175.332 74.165
3.57 184.382 74.426
3.58 189.923 74.952
3.59 195.880 75.192
3.60 201.752 75.124
3.61 201.462 74.711
3.62 197.900 72.943
3.63 189.311 69.001
3.64 190.376 63.018
3.65 200.042 57.442
3.66 198.941 54.423
3.67 199.454 52.336
3.68 --undefined-- 53.634
3.69 --undefined-- 60.650
3.70 --undefined-- 69.420
3.71 218.545 75.055
3.72 216.056 77.639
3.73 212.836 78.188
3.74 211.102 77.861
3.75 210.683 77.362
3.76 209.712 76.522
3.77 208.585 75.428
3.78 210.986 75.140
3.79 210.572 75.584
3.80 208.931 75.800
3.81 205.766 75.197
3.82 198.005 73.203
3.83 181.220 69.458
3.84 187.895 64.561
3.85 206.729 60.667
3.86 207.424 64.442
3.87 --undefined-- 72.539
3.88 172.020 77.297
3.89 165.545 79.018
3.90 149.699 78.844
3.91 141.022 78.056
3.92 136.285 76.770
3.93 128.457 74.011
3.94 122.101 69.077
3.95 130.916 62.185
3.96 147.348 56.139
3.97 --undefined-- 52.671
3.98 --undefined-- 50.874
3.99 --undefined-- 51.774
4.00 --undefined-- 54.643
4.01 --undefined-- 63.697
4.02 --undefined-- 71.894
4.03 154.628 76.528
4.04 151.179 78.205
4.05 145.177 78.173
4.06 144.046 77.495
4.07 142.655 76.539
4.08 141.167 75.502
4.09 140.130 74.676
4.10 137.612 74.047
4.11 134.325 73.647
4.12 131.051 73.663
4.13 128.035 74.027
4.14 124.947 74.335
4.15 121.850 74.406
4.16 118.513 74.401
4.17 112.578 74.163
4.18 108.260 73.568
4.19 105.106 72.788
4.20 103.877 71.791
4.21 102.263 70.903
4.22 103.040 70.611
4.23 102.452 70.470
4.24 102.233 70.055
4.25 101.088 68.936
4.26 96.036 66.796
4.27 95.443 64.177
4.28 100.461 61.640
4.29 109.310 58.844
4.30 --undefined-- 54.898
4.31 --undefined-- 49.146
4.32 --undefined-- 54.909
4.33 --undefined-- 65.620
4.34 --undefined-- 72.106
4.35 132.086 75.460
4.36 124.174 76.581
4.37 121.046 76.776
4.38 120.822 76.845
4.39 120.701 77.025
4.40 121.892 77.387
4.41 122.351 77.781
4.42 123.711 77.999
4.43 123.887 77.687
4.44 123.026 76.191
4.45 119.116 72.954
4.46 123.831 68.663
4.47 130.909 65.712
4.48 129.549 63.287
4.49 128.658 60.079
4.50 125.061 58.998
4.51 --undefined-- 62.296
4.52 --undefined-- 69.158
4.53 177.862 74.797
4.54 172.929 77.637
4.55 172.527 78.523
4.56 172.493 78.483
4.57 172.926 78.063
4.58 172.882 77.182
4.59 171.352 75.466
4.60 171.803 73.313
4.61 174.775 72.556
4.62 177.834 72.976
4.63 179.033 73.234
4.64 178.184 73.028
4.65 177.202 72.648
4.66 175.984 72.512
4.67 174.899 72.932
4.68 173.463 73.792
4.69 174.820 73.993
4.70 170.742 72.533
4.71 157.538 69.674
4.72 156.960 69.280
4.73 163.299 73.095
4.74 176.245 76.748
4.75 183.634 78.954
4.76 185.417 79.853
4.77 184.127 79.759
4.78 180.886 79.203
4.79 179.004 78.980
4.80 172.024 79.315
4.81 167.927 79.351
4.82 158.476 78.638
4.83 145.793 77.505
4.84 138.408 76.501
4.85 127.377 75.571
4.86 117.467 74.306
4.87 104.550 72.618
4.88 96.046 70.301
4.89 89.358 66.551
4.90 --undefined-- 61.072
4.91 --undefined-- 54.760
4.92 --undefined-- 50.271
4.93 --undefined-- 49.046
4.94 --undefined-- 49.096
4.95 --undefined-- 48.429
4.96 --undefined-- 47.135
4.97 --undefined-- 46.956
4.98 --undefined-- 48.332
4.99 --undefined-- 49.823
5.00 --undefined-- 50.768
5.01 --undefined-- 51.924
5.02 --undefined-- 53.253
5.03 --undefined-- 54.069
5.04 --undefined-- --undefined--
5.05 --undefined-- --undefined--
5.06 --undefined-- --undefined--
5.07 --undefined-- --undefined--
