Time Pitch Intensity
0.01 --undefined-- --undefined--
0.02 167.986 --undefined--
0.03 169.162 --undefined--
0.04 170.249 --undefined--
0.05 171.307 65.033
0.06 171.746 64.458
0.07 170.648 63.900
0.08 170.000 64.098
0.09 169.801 64.586
0.10 168.898 64.673
0.11 168.964 64.937
0.12 168.663 65.509
0.13 168.127 66.196
0.14 167.582 67.322
0.15 166.498 68.675
0.16 165.378 69.662
0.17 163.917 69.959
0.18 162.142 69.653
0.19 161.092 69.540
0.20 161.404 69.519
0.21 162.034 69.047
0.22 163.089 68.422
0.23 163.199 67.836
0.24 162.456 67.474
0.25 162.178 67.324
0.26 161.889 66.888
0.27 162.361 66.128
0.28 163.658 65.411
0.29 167.846 64.648
0.30 169.902 63.642
0.31 170.659 62.965
0.32 182.371 63.605
0.33 186.221 65.117
0.34 188.275 66.324
0.35 192.397 66.518
0.36 199.877 65.939
0.37 207.327 65.699
0.38 210.040 66.430
0.39 211.398 67.415
0.40 213.104 68.115
0.41 216.065 68.341
0.42 218.363 68.125
0.43 219.616 67.848
0.44 219.829 67.697
0.45 219.091 67.654
0.46 217.665 67.708
0.47 216.219 67.518
0.48 214.175 66.704
0.49 209.051 65.043
0.50 199.085 62.176
0.51 188.963 58.227
0.52 --undefined-- 55.279
0.53 --undefined-- 55.010
0.54 --undefined-- 58.564
0.55 --undefined-- 62.144
0.56 --undefined-- 62.817
0.57 --undefined-- 61.860
0.58 218.320 62.878
0.59 205.486 64.271
0.60 199.184 65.079
0.61 196.189 65.771
0.62 192.836 66.624
0.63 190.444 67.524
0.64 189.644 67.913
0.65 190.295 67.876
0.66 193.308 67.823
0.67 198.912 67.802
0.68 208.039 68.023
0.69 217.290 68.739
0.70 228.357 69.404
0.71 243.253 69.432
0.72 258.993 68.552
0.73 283.684 67.278
0.74 154.282 66.744
0.75 166.663 66.839
0.76 170.796 66.291
0.77 167.301 63.794
0.78 164.639 59.197
0.79 170.823 55.826
0.80 --undefined-- 55.634
0.81 --undefined-- 54.409
0.82 --undefined-- 51.428
0.83 --undefined-- 49.552
0.84 --undefined-- 51.623
0.85 --undefined-- 59.088
0.86 166.190 64.519
0.87 160.407 67.149
0.88 158.836 68.081
0.89 158.014 68.258
0.90 156.738 68.259
0.91 155.376 68.481
0.92 155.328 68.761
0.93 155.863 68.762
0.94 155.990 68.052
0.95 154.215 65.832
0.96 151.105 61.309
0.97 --undefined-- 54.898
0.98 --undefined-- 52.420
0.99 --undefined-- 53.967
1.00 --undefined-- 55.141
1.01 --undefined-- 54.501
1.02 --undefined-- 54.120
1.03 --undefined-- 55.124
1.04 --undefined-- 58.655
1.05 282.836 63.168
1.06 271.733 65.849
1.07 262.251 66.936
1.08 255.568 67.396
1.09 252.270 67.562
1.10 249.229 67.868
1.11 248.909 68.552
1.12 248.777 68.846
1.13 248.083 68.622
1.14 247.242 68.300
1.15 246.115 68.016
1.16 244.274 67.792
1.17 243.115 67.394
1.18 239.278 65.781
1.19 236.506 62.216
1.20 243.178 58.344
1.21 250.780 58.102
1.22 248.842 57.669
1.23 245.947 54.505
1.24 --undefined-- 53.262
1.25 291.382 56.231
1.26 293.422 57.863
1.27 292.911 61.002
1.28 290.892 64.319
1.29 299.862 65.842
1.30 152.272 66.354
1.31 153.276 66.716
1.32 155.084 67.229
1.33 156.052 67.718
1.34 156.417 67.987
1.35 156.731 67.978
1.36 157.034 67.562
1.37 157.464 66.444
1.38 157.426 64.219
1.39 --undefined-- 61.294
1.40 --undefined-- 58.865
1.41 --undefined-- 57.703
1.42 --undefined-- 57.012
1.43 --undefined-- 57.288
1.44 --undefined-- 57.644
1.45 --undefined-- 57.999
1.46 --undefined-- 58.632
1.47 236.302 59.644
1.48 235.456 60.399
1.49 231.121 61.492
1.50 228.045 62.152
1.51 222.784 62.053
1.52 227.865 62.344
1.53 217.429 62.433
1.54 183.257 62.486
1.55 172.917 63.205
1.56 162.063 63.695
1.57 161.027 63.121
1.58 163.075 62.394
1.59 163.866 61.792
1.60 164.500 60.591
1.61 163.997 59.946
1.62 162.833 60.388
1.63 161.567 60.555
1.64 160.816 59.794
1.65 160.214 59.433
1.66 166.271 58.907
1.67 168.243 57.847
1.68 177.514 58.131
1.69 --undefined-- 60.126
1.70 --undefined-- 60.217
1.71 --undefined-- 57.089
1.72 --undefined-- 54.322
1.73 --undefined-- 56.722
1.74 216.078 59.175
1.75 207.137 60.777
1.76 199.854 62.639
1.77 195.625 65.019
1.78 194.770 66.864
1.79 193.611 67.534
1.80 192.631 67.031
1.81 192.522 65.417
1.82 191.932 62.378
1.83 192.275 57.579
1.84 192.384 52.943
1.85 192.726 52.054
1.86 --undefined-- 53.913
1.87 --undefined-- 55.258
1.88 --undefined-- 54.113
1.89 --undefined-- 52.036
1.90 --undefined-- 54.460
1.91 --undefined-- 57.468
1.92 205.426 59.896
1.93 193.285 61.583
1.94 181.127 62.288
1.95 174.955 62.478
1.96 176.121 62.780
1.97 172.234 62.724
1.98 169.001 62.427
1.99 167.392 62.556
2.00 168.145 62.981
2.01 162.284 63.174
2.02 160.255 63.065
2.03 158.317 62.930
2.04 158.957 63.061
2.05 159.978 63.424
2.06 163.158 63.684
2.07 163.798 63.563
2.08 166.728 63.485
2.09 167.656 63.900
2.10 167.691 64.436
2.11 167.694 64.739
2.12 167.438 64.862
2.13 168.291 65.051
2.14 169.191 65.164
2.15 170.044 65.316
2.16 170.550 66.085
2.17 168.163 67.490
2.18 167.425 69.064
2.19 165.842 70.266
2.20 163.741 70.885
2.21 164.451 71.042
2.22 169.093 70.774
2.23 174.164 69.730
2.24 178.683 67.575
2.25 180.120 64.351
2.26 174.553 60.144
2.27 175.074 55.853
2.28 --undefined-- 53.208
2.29 --undefined-- 51.048
2.30 --undefined-- 49.240
2.31 --undefined-- 49.401
2.32 --undefined-- 51.294
2.33 --undefined-- 52.020
2.34 --undefined-- 52.219
2.35 --undefined-- 54.640
2.36 --undefined-- 55.599
2.37 --undefined-- 53.429
2.38 --undefined-- 51.125
2.39 --undefined-- 53.102
2.40 --undefined-- 53.982
2.41 --undefined-- 53.341
2.42 --undefined-- 58.297
2.43 222.742 64.311
2.44 214.740 68.482
2.45 209.934 71.234
2.46 206.615 72.836
2.47 204.336 73.621
2.48 203.180 74.114
2.49 203.363 74.588
2.50 203.304 75.010
2.51 202.811 75.406
2.52 202.221 75.912
2.53 202.456 76.575
2.54 202.960 77.390
2.55 203.044 78.192
2.56 201.939 78.470
2.57 200.522 77.625
2.58 197.706 75.323
2.59 192.960 72.257
2.60 196.597 69.325
2.61 199.979 65.380
2.62 199.258 61.170
2.63 197.711 58.809
2.64 256.248 56.996
2.65 254.612 55.470
2.66 257.932 53.583
2.67 255.534 52.500
2.68 256.539 51.625
2.69 --undefined-- 51.562
2.70 --undefined-- 54.572
2.71 --undefined-- 56.369
2.72 --undefined-- 55.203
2.73 --undefined-- 52.540
2.74 --undefined-- 52.329
2.75 --undefined-- 52.872
2.76 --undefined-- 51.939
2.77 --undefined-- 49.515
2.78 --undefined-- 48.317
2.79 --undefined-- 47.968
2.80 --undefined-- 47.031
2.81 --undefined-- 47.857
2.82 --undefined-- 50.892
2.83 --undefined-- 53.339
2.84 --undefined-- 55.484
2.85 --undefined-- 56.125
2.86 --undefined-- 54.022
2.87 --undefined-- 53.539
2.88 279.766 59.854
2.89 253.484 64.222
2.90 252.728 66.532
2.91 255.546 67.752
2.92 258.947 68.157
2.93 261.665 67.410
2.94 259.646 65.126
2.95 240.046 61.528
2.96 243.289 57.245
2.97 --undefined-- 59.091
2.98 --undefined-- 66.218
2.99 174.819 70.220
3.00 174.865 71.382
3.01 178.559 71.138
3.02 182.515 71.311
3.03 184.875 72.162
3.04 187.816 72.762
3.05 189.787 73.047
3.06 189.664 73.144
3.07 188.298 72.824
3.08 186.203 72.173
3.09 182.893 71.359
3.10 179.234 70.258
3.11 174.601 68.873
3.12 166.368 68.296
3.13 159.156 69.198
3.14 293.817 70.365
3.15 279.587 71.473
3.16 268.969 71.766
3.17 257.823 71.209
3.18 251.023 70.395
3.19 244.368 69.406
3.20 239.003 68.735
3.21 234.837 67.869
3.22 231.138 65.545
3.23 200.055 61.964
3.24 198.659 58.327
3.25 189.108 55.215
3.26 --undefined-- 53.298
3.27 --undefined-- 55.447
3.28 212.341 60.821
3.29 201.281 64.700
3.30 192.443 67.021
3.31 190.596 68.199
3.32 192.031 68.520
3.33 195.630 68.436
3.34 199.951 68.285
3.35 205.017 68.005
3.36 211.862 67.839
3.37 218.247 67.802
3.38 225.273 67.455
3.39 233.052 67.047
3.40 239.247 66.978
3.41 246.497 66.909
3.42 251.723 66.719
3.43 256.320 66.752
3.44 262.049 66.833
3.45 269.171 66.575
3.46 275.192 66.313
3.47 280.610 66.394
3.48 285.549 66.596
3.49 289.026 66.771
3.50 292.605 67.174
3.51 295.157 68.040
3.52 294.597 68.745
3.53 293.714 68.978
3.54 292.162 68.927
3.55 288.534 68.817
3.56 283.424 68.726
3.57 277.956 68.422
3.58 272.295 67.625
3.59 264.061 66.525
3.60 252.243 65.859
3.61 237.021 66.140
3.62 224.520 66.758
3.63 202.195 67.047
3.64 190.154 67.025
3.65 175.155 66.527
3.66 165.465 65.538
3.67 161.552 64.546
3.68 160.536 63.136
3.69 158.245 61.591
3.70 158.048 61.448
3.71 162.745 61.951
3.72 164.140 62.462
3.73 166.098 63.179
3.74 167.528 63.369
3.75 167.154 63.000
3.76 166.508 62.702
3.77 166.163 62.490
3.78 165.093 62.161
3.79 164.300 61.360
3.80 163.184 59.978
3.81 160.313 58.922
3.82 156.625 59.744
3.83 160.098 61.812
3.84 161.123 63.692
3.85 161.067 64.622
3.86 161.040 64.831
3.87 160.865 64.891
3.88 161.050 64.855
3.89 161.181 64.536
3.90 161.387 63.857
3.91 162.062 63.359
3.92 162.325 62.946
3.93 162.478 62.346
3.94 163.057 62.166
3.95 170.023 62.715
3.96 173.588 63.514
3.97 179.403 64.367
3.98 186.850 65.431
3.99 191.473 66.159
4.00 199.206 65.907
4.01 211.079 65.432
4.02 220.339 66.166
4.03 222.821 67.444
4.04 226.210 68.375
4.05 228.663 68.966
4.06 230.631 69.420
4.07 230.932 69.641
4.08 230.502 69.510
4.09 229.611 69.287
4.10 228.840 68.873
4.11 228.676 67.948
4.12 226.773 66.588
4.13 224.676 65.205
4.14 220.329 63.956
4.15 214.031 62.850
4.16 213.380 61.781
4.17 213.288 60.644
4.18 208.504 59.514
4.19 205.267 58.547
4.20 204.968 58.360
4.21 205.362 60.028
4.22 186.121 62.034
4.23 178.521 63.467
4.24 171.539 64.620
4.25 165.786 65.562
4.26 172.110 66.238
4.27 182.977 66.842
4.28 184.565 67.564
4.29 186.324 67.738
4.30 190.664 66.569
4.31 198.642 63.913
4.32 200.838 61.261
4.33 198.492 60.655
4.34 195.925 61.071
4.35 194.044 61.758
4.36 190.278 62.817
4.37 187.203 63.842
4.38 183.609 64.662
4.39 180.482 65.361
4.40 179.489 65.864
4.41 178.282 66.249
4.42 176.364 66.527
4.43 174.830 66.352
4.44 173.130 65.489
4.45 170.138 64.252
4.46 170.364 63.429
4.47 171.271 63.093
4.48 174.590 62.974
4.49 177.770 63.158
4.50 178.668 63.360
4.51 178.214 62.912
4.52 178.253 61.095
4.53 180.753 57.624
4.54 --undefined-- 54.771
4.55 --undefined-- 56.266
4.56 --undefined-- 58.969
4.57 --undefined-- 60.169
4.58 --undefined-- 59.316
4.59 --undefined-- 57.837
4.60 --undefined-- 56.939
4.61 195.411 57.122
4.62 194.751 58.735
4.63 180.253 60.600
4.64 171.808 62.643
4.65 167.442 64.006
4.66 163.366 64.127
4.67 161.171 63.509
4.68 159.949 62.840
4.69 159.291 62.449
4.70 159.118 62.646
4.71 158.907 62.998
4.72 159.311 62.691
4.73 160.042 62.048
4.74 160.712 61.488
4.75 161.246 60.812
4.76 161.527 60.260
4.77 160.867 59.938
4.78 161.876 59.731
4.79 163.160 59.174
4.80 162.678 57.543
4.81 --undefined-- 54.776
4.82 --undefined-- 52.392
4.83 --undefined-- 51.101
4.84 --undefined-- 52.416
4.85 --undefined-- 54.949
4.86 --undefined-- 55.933
4.87 --undefined-- 56.468
4.88 --undefined-- 59.375
4.89 193.404 64.134
4.90 190.342 67.987
4.91 190.863 70.528
4.92 191.195 71.933
4.93 191.718 72.492
4.94 192.673 --undefined--
4.95 193.693 --undefined--
4.96 --undefined-- --undefined--
4.97 --undefined-- --undefined--
