Time Pitch Intensity
0.01 --undefined-- --undefined--
0.02 204.155 --undefined--
0.03 200.391 --undefined--
0.04 197.077 --undefined--
0.05 194.803 73.884
0.06 192.467 73.725
0.07 190.268 73.391
0.08 190.105 72.735
0.09 189.216 71.797
0.10 188.367 70.469
0.11 189.043 68.659
0.12 191.965 66.536
0.13 200.016 63.921
0.14 191.412 59.710
0.15 --undefined-- 52.782
0.16 --undefined-- 44.468
0.17 --undefined-- 42.839
0.18 --undefined-- 43.322
0.19 --undefined-- 42.955
0.20 --undefined-- 42.128
0.21 --undefined-- 41.112
0.22 --undefined-- 40.701
0.23 --undefined-- 40.787
0.24 --undefined-- 40.418
0.25 --undefined-- 40.369
0.26 --undefined-- 41.207
0.27 --undefined-- 41.582
0.28 --undefined-- 40.714
0.29 --undefined-- 39.471
0.30 --undefined-- 39.376
0.31 --undefined-- 40.096
0.32 --undefined-- 40.379
0.33 --undefined-- 40.120
0.34 --undefined-- 39.291
0.35 --undefined-- 38.041
0.36 --undefined-- 37.111
0.37 --undefined-- 35.759
0.38 --undefined-- 32.687
0.39 --undefined-- 30.315
0.40 --undefined-- 36.012
0.41 --undefined-- 43.322
0.42 --undefined-- 48.430
0.43 --undefined-- 52.077
0.44 --undefined-- 54.619
0.45 --undefined-- 56.181
0.46 --undefined-- 57.683
0.47 --undefined-- 58.911
0.48 --undefined-- 61.271
0.49 --undefined-- 66.118
0.50 178.263 70.257
0.51 172.027 73.129
0.52 172.589 75.026
0.53 175.505 76.103
0.54 182.251 76.602
0.55 189.911 76.577
0.56 201.536 76.264
0.57 226.640 76.423
0.58 243.229 76.943
0.59 256.673 76.997
0.60 266.899 76.138
0.61 273.708 74.513
0.62 283.953 73.175
0.63 291.133 72.607
0.64 293.541 72.264
0.65 294.174 71.984
0.66 291.796 71.946
0.67 285.558 72.495
0.68 275.376 73.327
0.69 265.470 73.442
0.70 249.905 72.589
0.71 232.218 71.429
0.72 211.217 70.597
0.73 193.491 70.240
0.74 179.282 69.905
0.75 158.997 69.139
0.76 139.260 68.068
0.77 127.589 66.697
0.78 128.300 64.660
0.79 130.251 62.221
0.80 --undefined-- 61.434
0.81 84.555 61.866
0.82 82.592 61.836
0.83 83.731 61.895
0.84 85.218 62.142
0.85 85.452 62.708
0.86 85.176 63.611
0.87 83.688 64.246
0.88 82.734 64.321
0.89 82.218 64.236
0.90 84.417 65.502
0.91 175.494 67.825
0.92 161.674 68.899
0.93 158.711 68.568
0.94 157.685 68.036
0.95 158.714 68.094
0.96 161.642 68.370
0.97 162.171 68.375
0.98 160.934 68.295
0.99 161.765 68.275
1.00 163.649 68.224
1.01 165.408 68.127
1.02 166.507 68.000
1.03 166.282 67.806
1.04 165.936 67.526
1.05 165.772 67.437
1.06 162.988 67.865
1.07 157.077 68.697
1.08 153.948 69.037
1.09 148.188 68.729
1.10 148.078 68.455
1.11 150.592 68.480
1.12 154.107 69.066
1.13 155.681 69.719
1.14 156.924 69.566
1.15 162.006 68.711
1.16 168.348 68.346
1.17 172.907 68.450
1.18 178.105 68.402
1.19 178.967 67.824
1.20 174.383 65.789
1.21 173.405 61.505
1.22 --undefined-- 54.807
1.23 --undefined-- 48.750
1.24 --undefined-- 50.374
1.25 --undefined-- 55.259
1.26 --undefined-- 59.258
1.27 --undefined-- 61.019
1.28 --undefined-- 61.671
1.29 259.171 66.341
1.30 259.602 72.466
1.31 266.248 76.129
1.32 262.139 77.470
1.33 250.574 77.110
1.34 236.548 75.269
1.35 226.456 71.829
1.36 215.456 66.879
1.37 203.627 61.763
1.38 204.536 59.693
1.39 211.623 60.029
1.40 219.956 61.590
1.41 218.940 63.371
1.42 209.879 64.672
1.43 199.619 65.627
1.44 191.517 66.432
1.45 185.828 67.428
1.46 181.964 68.856
1.47 175.774 70.280
1.48 170.229 71.233
1.49 165.316 71.525
1.50 163.034 71.113
1.51 162.100 70.071
1.52 161.324 68.450
1.53 159.445 66.784
1.54 170.977 66.869
1.55 178.781 68.083
1.56 180.307 69.094
1.57 178.152 69.894
1.58 180.340 70.547
1.59 185.911 71.070
1.60 192.599 71.283
1.61 200.114 71.127
1.62 205.674 70.931
1.63 207.855 70.897
1.64 214.173 70.883
1.65 225.402 71.198
1.66 234.663 72.064
1.67 238.471 72.911
1.68 240.952 73.464
1.69 240.528 73.899
1.70 239.565 74.155
1.71 239.630 74.251
1.72 240.153 74.303
1.73 241.093 74.329
1.74 241.899 74.390
1.75 242.040 74.509
1.76 241.889 74.502
1.77 240.619 73.880
1.78 234.971 72.502
1.79 229.752 71.391
1.80 228.644 70.930
1.81 227.493 70.539
1.82 225.405 70.191
1.83 221.838 69.953
1.84 216.493 69.843
1.85 209.342 69.811
1.86 200.777 69.478
1.87 187.547 68.478
1.88 173.425 67.211
1.89 162.935 66.864
1.90 156.981 67.335
1.91 154.721 67.689
1.92 157.235 68.223
1.93 162.217 68.865
1.94 169.412 69.127
1.95 178.567 68.774
1.96 192.520 68.420
1.97 194.267 68.769
1.98 190.374 69.301
1.99 182.823 69.720
2.00 176.594 69.691
2.01 174.136 68.871
2.02 171.993 67.419
2.03 171.980 65.437
2.04 176.483 62.942
2.05 179.019 61.820
2.06 192.848 65.672
2.07 187.856 69.903
2.08 184.009 72.124
2.09 173.399 72.589
2.10 164.004 71.759
2.11 156.133 69.953
2.12 152.359 67.728
2.13 148.143 65.792
2.14 147.575 63.292
2.15 148.484 58.869
2.16 --undefined-- 52.008
2.17 --undefined-- 44.593
2.18 --undefined-- 42.540
2.19 --undefined-- 41.391
2.20 --undefined-- 38.491
2.21 --undefined-- 34.196
2.22 --undefined-- 30.744
2.23 --undefined-- 36.285
2.24 --undefined-- 45.072
2.25 --undefined-- 50.482
2.26 --undefined-- 54.214
2.27 --undefined-- 60.719
2.28 193.933 66.408
2.29 186.276 69.506
2.30 184.400 70.723
2.31 177.724 70.841
2.32 172.494 70.481
2.33 167.939 70.350
2.34 166.599 70.447
2.35 165.444 70.490
2.36 165.243 70.402
2.37 165.528 70.142
2.38 165.659 69.637
2.39 166.485 68.962
2.40 167.798 68.344
2.41 166.019 67.423
2.42 161.055 65.263
2.43 159.771 61.135
2.44 161.787 55.843
2.45 161.574 52.515
2.46 166.662 50.905
2.47 166.677 49.277
2.48 --undefined-- 46.911
2.49 --undefined-- 44.887
2.50 --undefined-- 44.462
2.51 --undefined-- 45.439
2.52 --undefined-- 48.165
2.53 --undefined-- 54.335
2.54 --undefined-- 63.073
2.55 272.429 69.101
2.56 265.732 72.089
2.57 262.568 73.205
2.58 261.677 73.616
2.59 262.681 73.648
2.60 264.146 73.222
2.61 264.372 72.305
2.62 261.608 71.264
2.63 263.544 71.023
2.64 265.982 71.274
2.65 268.297 71.467
2.66 270.391 71.561
2.67 272.017 71.574
2.68 272.284 71.564
2.69 270.077 71.553
2.70 266.114 71.508
2.71 261.571 71.456
2.72 256.087 71.483
2.73 249.763 71.604
2.74 242.820 71.745
2.75 235.670 71.957
2.76 220.701 72.189
2.77 211.041 72.119
2.78 --undefined-- 71.736
2.79 --undefined-- 70.399
2.80 --undefined-- 67.412
2.81 --undefined-- 63.228
2.82 --undefined-- 59.276
2.83 --undefined-- 56.441
2.84 --undefined-- 53.784
2.85 --undefined-- 51.727
2.86 --undefined-- 51.781
2.87 --undefined-- 53.906
2.88 --undefined-- 56.481
2.89 141.291 57.935
2.90 150.728 57.429
2.91 151.098 54.883
2.92 --undefined-- 50.847
2.93 --undefined-- 46.924
2.94 --undefined-- 46.508
2.95 --undefined-- 48.012
2.96 --undefined-- 49.096
2.97 --undefined-- 50.040
2.98 --undefined-- 51.320
2.99 --undefined-- 55.386
3.00 --undefined-- 63.497
3.01 208.613 69.599
3.02 195.661 72.662
3.03 187.901 73.588
3.04 182.851 73.695
3.05 179.881 73.735
3.06 177.465 73.594
3.07 175.319 73.246
3.08 171.984 72.747
3.09 169.070 72.158
3.10 166.856 71.680
3.11 165.914 71.234
3.12 165.373 70.488
3.13 164.665 69.390
3.14 166.693 68.626
3.15 171.438 68.625
3.16 173.992 68.882
3.17 177.666 69.321
3.18 180.701 69.780
3.19 181.466 69.729
3.20 179.740 68.718
3.21 180.371 66.604
3.22 181.602 63.425
3.23 177.869 60.015
3.24 --undefined-- 63.655
3.25 211.351 69.758
3.26 199.674 73.453
3.27 192.841 75.156
3.28 188.560 75.656
3.29 185.047 75.420
3.30 182.813 74.724
3.31 180.959 74.046
3.32 178.606 73.700
3.33 176.546 73.420
3.34 175.117 73.030
3.35 174.794 72.733
3.36 174.795 72.624
3.37 175.585 72.485
3.38 177.682 72.163
3.39 179.587 71.626
3.40 180.586 70.812
3.41 179.089 69.870
3.42 180.605 69.042
3.43 185.827 67.940
3.44 189.270 65.856
3.45 178.145 62.216
3.46 168.702 56.810
3.47 --undefined-- 50.861
3.48 --undefined-- 47.218
3.49 --undefined-- 45.074
3.50 --undefined-- 42.737
3.51 --undefined-- 40.970
3.52 --undefined-- 40.554
3.53 --undefined-- 39.831
3.54 --undefined-- 39.045
3.55 --undefined-- 38.171
3.56 --undefined-- 36.867
3.57 --undefined-- 35.620
3.58 --undefined-- 36.189
3.59 --undefined-- 38.624
3.60 --undefined-- 40.456
3.61 --undefined-- 40.737
3.62 --undefined-- 40.562
3.63 --undefined-- 40.716
3.64 --undefined-- 40.669
3.65 --undefined-- 39.758
3.66 --undefined-- 38.268
3.67 --undefined-- 37.918
3.68 --undefined-- 40.090
3.69 --undefined-- 42.018
3.70 --undefined-- 41.192
3.71 --undefined-- 37.173
3.72 --undefined-- 33.155
3.73 --undefined-- 32.800
3.74 --undefined-- 35.902
3.75 --undefined-- 46.681
3.76 --undefined-- 57.524
3.77 --undefined-- 65.386
3.78 --undefined-- 69.970
3.79 177.414 71.649
3.80 170.189 71.062
3.81 153.947 69.353
3.82 149.081 68.261
3.83 153.116 68.583
3.84 157.815 69.163
3.85 159.596 69.257
3.86 157.114 69.174
3.87 160.281 69.520
3.88 164.047 70.067
3.89 165.640 70.334
3.90 169.004 70.175
3.91 173.307 69.535
3.92 175.166 68.748
3.93 173.939 67.868
3.94 168.181 66.600
3.95 163.614 66.011
3.96 --undefined-- 67.426
3.97 --undefined-- 68.982
3.98 --undefined-- 69.027
3.99 --undefined-- 68.422
4.00 194.664 68.820
4.01 195.580 69.893
4.02 193.279 70.946
4.03 188.584 71.745
4.04 183.160 72.116
4.05 175.108 72.230
4.06 168.622 72.316
4.07 156.400 72.020
4.08 148.170 70.907
4.09 145.321 69.130
4.10 144.169 67.295
4.11 146.066 65.623
4.12 153.184 63.876
4.13 169.794 62.256
4.14 168.099 60.214
4.15 168.179 57.175
4.16 --undefined-- 52.471
4.17 --undefined-- 45.901
4.18 --undefined-- 41.018
4.19 --undefined-- 39.403
4.20 --undefined-- 37.262
4.21 --undefined-- 36.608
4.22 --undefined-- 37.890
4.23 --undefined-- 39.095
4.24 --undefined-- 39.061
4.25 --undefined-- 37.348
4.26 --undefined-- 34.830
4.27 --undefined-- 32.998
4.28 --undefined-- 30.847
4.29 --undefined-- 29.502
4.30 --undefined-- 35.764
4.31 --undefined-- 44.270
4.32 --undefined-- 50.452
4.33 --undefined-- 55.058
4.34 --undefined-- 59.375
4.35 --undefined-- 63.872
4.36 --undefined-- 67.543
4.37 167.089 69.778
4.38 155.960 70.735
4.39 156.461 71.111
4.40 157.779 71.235
4.41 159.454 70.843
4.42 159.507 69.753
4.43 155.484 67.350
4.44 154.326 63.295
4.45 155.804 57.655
4.46 --undefined-- 51.465
4.47 --undefined-- 48.199
4.48 --undefined-- 47.184
4.49 --undefined-- 48.993
4.50 --undefined-- 56.345
4.51 --undefined-- 64.943
4.52 204.678 70.281
4.53 188.784 72.458
4.54 177.042 72.376
4.55 168.371 70.786
4.56 157.790 67.908
4.57 148.256 64.260
4.58 150.650 60.626
4.59 161.622 57.117
4.60 --undefined-- 52.324
4.61 --undefined-- 46.303
4.62 --undefined-- 41.415
4.63 --undefined-- 39.111
4.64 --undefined-- 37.270
4.65 --undefined-- 35.130
4.66 --undefined-- 41.817
4.67 --undefined-- 56.149
4.68 --undefined-- 66.581
4.69 253.632 72.727
4.70 240.206 75.608
4.71 234.900 76.156
4.72 230.553 75.217
4.73 227.952 73.425
4.74 226.525 71.251
4.75 223.638 69.052
4.76 220.132 66.944
4.77 223.283 64.228
4.78 206.923 60.106
4.79 --undefined-- 54.359
4.80 --undefined-- 47.677
4.81 --undefined-- 40.874
4.82 --undefined-- 35.913
4.83 --undefined-- 34.028
4.84 --undefined-- 32.428
4.85 --undefined-- 32.630
4.86 --undefined-- 43.089
4.87 --undefined-- 55.648
4.88 --undefined-- 64.021
4.89 --undefined-- 68.343
4.90 --undefined-- 68.961
4.91 --undefined-- 66.494
4.92 --undefined-- 62.475
4.93 --undefined-- 61.356
4.94 157.895 62.478
4.95 158.661 62.862
4.96 157.068 63.167
4.97 155.184 63.932
4.98 151.092 64.631
4.99 151.063 65.076
5.00 151.605 65.036
5.01 150.421 63.712
5.02 152.038 60.290
5.03 156.843 54.612
5.04 --undefined-- 48.810
5.05 --undefined-- 46.621
5.06 --undefined-- 47.944
5.07 --undefined-- 49.875
5.08 --undefined-- 50.713
5.09 --undefined-- 54.579
5.10 223.141 62.617
5.11 213.269 68.275
5.12 208.703 70.984
5.13 204.926 71.758
5.14 202.811 71.827
5.15 200.817 71.625
5.16 199.804 71.187
5.17 198.366 70.697
5.18 195.100 70.244
5.19 193.757 69.891
5.20 191.187 69.675
5.21 191.435 69.483
5.22 194.626 69.498
5.23 198.427 70.061
5.24 201.528 70.763
5.25 202.262 71.031
5.26 203.582 71.026
5.27 207.246 71.117
5.28 208.797 71.112
5.29 209.258 70.936
5.30 208.757 70.777
5.31 207.572 70.702
5.32 205.598 70.683
5.33 202.572 70.860
5.34 199.118 71.506
5.35 192.348 72.534
5.36 182.629 73.257
5.37 173.019 73.393
5.38 167.303 73.281
5.39 161.137 73.082
5.40 154.540 72.440
5.41 --undefined-- 71.340
5.42 --undefined-- 70.079
5.43 --undefined-- 68.342
5.44 --undefined-- 66.182
5.45 --undefined-- 64.106
5.46 --undefined-- 62.116
5.47 --undefined-- 60.493
5.48 152.304 60.225
5.49 152.015 60.879
5.50 157.112 62.097
5.51 161.037 63.436
5.52 164.464 64.069
5.53 167.018 63.557
5.54 172.614 62.475
5.55 178.281 61.612
5.56 181.410 61.002
5.57 179.680 60.604
5.58 179.095 60.313
5.59 180.544 60.367
5.60 188.554 61.486
5.61 189.948 63.804
5.62 187.025 66.300
5.63 188.005 68.190
5.64 186.552 69.556
5.65 184.217 70.472
5.66 182.115 70.984
5.67 179.268 71.237
5.68 176.734 71.285
5.69 174.929 71.084
5.70 173.727 70.716
5.71 173.308 70.308
5.72 173.100 69.977
5.73 173.015 69.672
5.74 172.313 69.130
5.75 171.842 68.124
5.76 172.942 66.498
5.77 179.750 64.036
5.78 180.193 60.188
5.79 --undefined-- 54.150
5.80 --undefined-- 46.956
5.81 --undefined-- --undefined--
5.82 --undefined-- --undefined--
5.83 --undefined-- --undefined--
5.84 --undefined-- --undefined--
