Time Pitch Intensity
0.01 --undefined-- --undefined--
0.02 255.293 --undefined--
0.03 252.792 --undefined--
0.04 252.195 --undefined--
0.05 252.178 70.982
0.06 253.796 72.069
0.07 254.990 72.609
0.08 254.376 72.753
0.09 251.838 72.729
0.10 248.857 72.894
0.11 247.909 73.249
0.12 247.107 73.434
0.13 245.190 73.596
0.14 241.852 73.731
0.15 239.099 73.400
0.16 235.311 72.193
0.17 231.651 69.541
0.18 231.213 65.264
0.19 233.080 61.347
0.20 235.371 60.114
0.21 236.403 60.360
0.22 237.467 63.924
0.23 223.447 67.994
0.24 191.833 69.919
0.25 175.954 70.171
0.26 165.525 69.831
0.27 159.138 69.580
0.28 159.356 69.708
0.29 162.177 69.764
0.30 164.721 69.267
0.31 166.636 68.482
0.32 172.192 67.983
0.33 178.741 68.117
0.34 185.831 68.534
0.35 192.645 68.609
0.36 195.740 67.625
0.37 191.625 64.919
0.38 184.253 60.367
0.39 --undefined-- 54.439
0.40 --undefined-- 47.683
0.41 --undefined-- 44.383
0.42 --undefined-- 43.958
0.43 --undefined-- 49.304
0.44 --undefined-- 59.910
0.45 250.590 67.307
0.46 242.584 71.468
0.47 238.848 73.142
0.48 233.322 73.271
0.49 227.993 72.960
0.50 223.742 72.683
0.51 220.062 72.164
0.52 218.004 70.495
0.53 212.160 66.997
0.54 203.268 62.172
0.55 205.886 57.288
0.56 215.901 52.659
0.57 220.088 50.689
0.58 226.959 50.046
0.59 --undefined-- 48.435
0.60 --undefined-- 47.077
0.61 --undefined-- 46.731
0.62 --undefined-- 45.856
0.63 --undefined-- 44.592
0.64 --undefined-- 42.995
0.65 --undefined-- 40.936
0.66 --undefined-- 39.948
0.67 --undefined-- 39.526
0.68 --undefined-- 39.416
0.69 --undefined-- 39.857
0.70 --undefined-- 40.090
0.71 --undefined-- 39.758
0.72 --undefined-- 39.226
0.73 --undefined-- 39.648
0.74 --undefined-- 40.602
0.75 --undefined-- 41.464
0.76 --undefined-- 42.041
0.77 --undefined-- 41.730
0.78 --undefined-- 41.056
0.79 --undefined-- 41.260
0.80 --undefined-- 42.131
0.81 --undefined-- 42.865
0.82 --undefined-- 43.303
0.83 --undefined-- 42.252
0.84 --undefined-- 40.263
0.85 --undefined-- 41.153
0.86 --undefined-- 50.976
0.87 --undefined-- 61.635
0.88 213.442 68.009
0.89 214.222 71.190
0.90 211.814 72.278
0.91 208.336 72.473
0.92 204.766 72.504
0.93 201.885 72.455
0.94 199.180 72.615
0.95 198.984 73.266
0.96 198.571 73.711
0.97 196.020 73.630
0.98 192.580 73.269
0.99 188.705 72.745
1.00 184.223 72.081
1.01 178.544 71.305
1.02 174.651 70.426
1.03 172.131 69.641
1.04 168.242 68.922
1.05 163.378 68.110
1.06 159.276 67.547
1.07 157.075 67.532
1.08 159.675 68.096
1.09 162.721 69.045
1.10 166.544 69.952
1.11 170.716 70.435
1.12 168.962 70.223
1.13 165.343 69.069
1.14 161.197 67.189
1.15 168.451 66.241
1.16 177.081 66.934
1.17 181.069 67.773
1.18 186.424 68.514
1.19 190.075 69.280
1.20 192.383 69.934
1.21 193.251 70.399
1.22 192.950 70.717
1.23 192.493 71.114
1.24 191.455 71.524
1.25 189.743 71.642
1.26 186.885 71.380
1.27 185.335 70.940
1.28 182.990 70.692
1.29 182.210 70.727
1.30 182.339 70.850
1.31 182.237 71.064
1.32 182.824 71.338
1.33 185.989 71.453
1.34 190.983 71.131
1.35 193.347 70.223
1.36 191.519 69.012
1.37 189.400 67.865
1.38 188.914 66.507
1.39 187.068 64.955
1.40 155.623 63.433
1.41 154.871 62.574
1.42 156.125 62.114
1.43 156.798 62.030
1.44 157.063 63.173
1.45 156.035 65.475
1.46 --undefined-- 68.283
1.47 237.751 70.639
1.48 253.780 71.756
1.49 258.430 71.520
1.50 267.422 70.236
1.51 273.004 67.770
1.52 295.997 63.560
1.53 148.931 58.521
1.54 145.990 55.534
1.55 145.581 54.679
1.56 145.016 54.573
1.57 144.327 55.254
1.58 145.533 55.881
1.59 145.258 56.594
1.60 144.653 58.067
1.61 141.942 60.451
1.62 --undefined-- 65.045
1.63 208.950 69.134
1.64 209.178 71.251
1.65 204.427 72.092
1.66 198.077 72.405
1.67 192.629 72.518
1.68 189.191 72.592
1.69 187.128 72.694
1.70 185.822 72.758
1.71 185.735 72.617
1.72 185.358 72.363
1.73 185.206 72.294
1.74 185.485 72.138
1.75 185.550 71.324
1.76 184.793 69.456
1.77 179.997 66.319
1.78 185.554 61.905
1.79 190.372 57.329
1.80 124.258 54.665
1.81 116.235 54.582
1.82 115.950 55.578
1.83 115.749 56.587
1.84 115.388 57.977
1.85 --undefined-- 60.291
1.86 --undefined-- 64.835
1.87 188.268 68.574
1.88 187.109 70.063
1.89 182.667 70.258
1.90 181.553 70.535
1.91 182.651 71.118
1.92 183.757 71.526
1.93 183.835 71.169
1.94 185.230 69.599
1.95 187.672 67.039
1.96 147.992 63.563
1.97 139.635 59.520
1.98 139.152 57.061
1.99 139.031 56.375
2.00 137.864 55.876
2.01 135.021 55.788
2.02 136.348 56.793
2.03 136.615 57.675
2.04 136.287 58.096
2.05 136.339 58.859
2.06 135.899 61.359
2.07 --undefined-- 66.017
2.08 235.055 69.518
2.09 232.667 71.191
2.10 230.092 71.905
2.11 228.097 72.129
2.12 227.475 72.033
2.13 227.490 71.609
2.14 227.481 71.037
2.15 225.652 70.772
2.16 224.484 70.859
2.17 223.524 71.035
2.18 223.760 71.053
2.19 224.374 71.008
2.20 224.598 70.933
2.21 224.617 70.863
2.22 223.984 70.871
2.23 222.652 70.838
2.24 221.118 70.742
2.25 219.650 70.525
2.26 217.269 70.199
2.27 212.478 69.843
2.28 206.368 69.058
2.29 --undefined-- 67.230
2.30 --undefined-- 64.214
2.31 --undefined-- 60.595
2.32 --undefined-- 55.775
2.33 --undefined-- 48.690
2.34 --undefined-- 43.510
2.35 --undefined-- 42.681
2.36 --undefined-- 41.888
2.37 --undefined-- 40.434
2.38 --undefined-- 39.451
2.39 --undefined-- 40.100
2.40 --undefined-- 41.307
2.41 --undefined-- 43.427
2.42 --undefined-- 44.028
2.43 --undefined-- 42.563
2.44 --undefined-- 42.208
2.45 --undefined-- 43.425
2.46 --undefined-- 44.201
2.47 --undefined-- 44.675
2.48 --undefined-- 44.865
2.49 --undefined-- 44.506
2.50 --undefined-- 44.006
2.51 --undefined-- 46.829
2.52 --undefined-- 52.430
2.53 130.377 56.388
2.54 131.087 58.694
2.55 131.820 60.338
2.56 132.068 61.378
2.57 131.811 61.448
2.58 131.515 60.639
2.59 132.822 59.510
2.60 134.603 58.913
2.61 136.013 58.755
2.62 143.258 58.133
2.63 144.080 57.418
2.64 144.604 57.492
2.65 144.643 58.064
2.66 --undefined-- 59.747
2.67 79.836 62.586
2.68 84.596 65.561
2.69 89.860 68.260
2.70 190.819 70.310
2.71 197.548 71.982
2.72 198.804 73.517
2.73 198.443 74.752
2.74 196.571 75.515
2.75 192.212 76.119
2.76 189.185 76.528
2.77 185.812 76.271
2.78 184.176 75.545
2.79 184.564 74.768
2.80 184.672 73.974
2.81 184.332 72.898
2.82 180.804 71.297
2.83 --undefined-- 69.061
2.84 --undefined-- 66.199
2.85 --undefined-- 63.286
2.86 --undefined-- 60.325
2.87 --undefined-- 56.280
2.88 --undefined-- 50.361
2.89 --undefined-- 43.222
2.90 --undefined-- 41.213
2.91 --undefined-- 41.556
2.92 --undefined-- 41.520
2.93 --undefined-- 41.014
2.94 --undefined-- 39.473
2.95 --undefined-- 38.700
2.96 --undefined-- 38.826
2.97 --undefined-- 38.235
2.98 --undefined-- 38.608
2.99 --undefined-- 39.122
3.00 --undefined-- 39.336
3.01 --undefined-- 46.773
3.02 --undefined-- 57.738
3.03 251.255 64.529
3.04 248.486 68.093
3.05 253.568 69.574
3.06 253.890 69.646
3.07 251.746 68.358
3.08 247.128 65.374
3.09 230.127 60.337
3.10 245.148 53.737
3.11 --undefined-- 47.872
3.12 --undefined-- 44.900
3.13 --undefined-- 43.538
3.14 --undefined-- 42.808
3.15 --undefined-- 41.825
3.16 --undefined-- 43.829
3.17 --undefined-- 48.083
3.18 --undefined-- 50.628
3.19 --undefined-- 56.733
3.20 215.814 63.369
3.21 209.837 67.216
3.22 205.049 69.060
3.23 200.997 69.865
3.24 196.358 70.236
3.25 192.537 70.482
3.26 190.238 70.619
3.27 188.708 70.592
3.28 187.676 70.526
3.29 187.974 70.471
3.30 189.000 70.250
3.31 188.669 69.812
3.32 187.653 69.274
3.33 187.034 68.490
3.34 185.023 66.968
3.35 179.514 64.112
3.36 177.799 59.185
3.37 --undefined-- 51.915
3.38 --undefined-- 46.986
3.39 --undefined-- 47.077
3.40 --undefined-- 47.306
3.41 --undefined-- 47.939
3.42 --undefined-- 49.187
3.43 --undefined-- 51.885
3.44 --undefined-- 59.505
3.45 207.242 65.306
3.46 195.909 67.991
3.47 189.017 68.743
3.48 186.166 68.939
3.49 183.681 69.117
3.50 180.761 69.267
3.51 177.579 69.563
3.52 177.721 70.261
3.53 178.806 70.974
3.54 177.407 71.325
3.55 176.256 71.432
3.56 176.379 71.346
3.57 175.611 71.230
3.58 176.021 71.397
3.59 177.108 71.508
3.60 177.566 71.082
3.61 175.913 70.330
3.62 175.895 69.959
3.63 176.277 69.945
3.64 175.273 69.750
3.65 174.404 69.760
3.66 172.552 70.146
3.67 172.047 70.472
3.68 168.284 70.247
3.69 162.393 69.784
3.70 158.433 69.763
3.71 156.640 69.949
3.72 154.587 69.888
3.73 153.624 69.835
3.74 153.386 69.949
3.75 153.404 69.793
3.76 153.782 69.214
3.77 154.232 69.026
3.78 155.290 69.322
3.79 156.150 69.386
3.80 157.856 69.302
3.81 159.947 69.415
3.82 161.956 69.872
3.83 164.499 70.099
3.84 166.852 69.851
3.85 169.150 69.846
3.86 171.881 70.106
3.87 176.138 70.001
3.88 180.557 69.784
3.89 183.116 69.627
3.90 188.775 69.712
3.91 194.437 70.083
3.92 199.007 70.108
3.93 200.243 69.433
3.94 194.828 67.833
3.95 187.944 65.057
3.96 93.175 61.244
3.97 97.727 57.067
3.98 124.830 53.738
3.99 128.741 54.144
4.00 127.407 56.001
4.01 121.957 56.921
4.02 114.782 56.944
4.03 110.531 56.710
4.04 106.426 56.364
4.05 104.812 55.545
4.06 101.661 54.220
4.07 101.065 53.435
4.08 99.103 53.492
4.09 96.417 53.158
4.10 90.565 52.019
4.11 91.302 51.716
4.12 93.148 52.851
4.13 94.899 54.211
4.14 98.327 54.647
4.15 105.707 54.279
4.16 110.754 54.779
4.17 113.643 55.931
4.18 114.901 56.556
4.19 113.175 56.796
4.20 115.717 57.230
4.21 115.869 57.677
4.22 114.802 57.838
4.23 114.345 57.883
4.24 116.364 58.184
4.25 117.338 58.536
4.26 117.321 58.549
4.27 119.907 58.215
4.28 118.179 57.744
4.29 116.571 56.919
4.30 115.894 55.776
4.31 114.961 55.166
4.32 111.609 55.709
4.33 115.551 56.982
4.34 115.526 58.131
4.35 114.405 58.825
4.36 114.369 59.485
4.37 112.062 60.966
4.38 202.903 64.024
4.39 199.734 67.806
4.40 202.021 70.135
4.41 202.626 71.328
4.42 202.878 72.715
4.43 196.924 74.031
4.44 192.850 74.460
4.45 189.495 74.424
4.46 187.102 74.305
4.47 185.303 74.077
4.48 184.227 74.026
4.49 183.961 73.829
4.50 184.072 73.454
4.51 182.299 73.078
4.52 176.832 72.157
4.53 173.340 70.381
4.54 --undefined-- 67.455
4.55 --undefined-- 63.316
4.56 --undefined-- 58.716
4.57 --undefined-- 54.366
4.58 --undefined-- 49.894
4.59 --undefined-- 46.211
4.60 --undefined-- 43.558
4.61 --undefined-- 42.607
4.62 --undefined-- 42.593
4.63 --undefined-- 41.159
4.64 --undefined-- 39.732
4.65 --undefined-- 40.588
4.66 --undefined-- 49.202
4.67 269.342 58.000
4.68 253.592 64.101
4.69 267.233 67.759
4.70 270.208 70.186
4.71 273.629 72.685
4.72 272.903 74.724
4.73 266.298 75.361
4.74 249.289 74.750
4.75 227.010 73.198
4.76 217.426 70.261
4.77 --undefined-- 65.394
4.78 --undefined-- 59.292
4.79 99.160 55.083
4.80 94.953 53.716
4.81 96.034 54.774
4.82 108.113 57.283
4.83 189.208 60.103
4.84 187.113 63.705
4.85 188.679 67.492
4.86 186.622 69.745
4.87 176.370 70.374
4.88 166.873 69.979
4.89 158.002 68.877
4.90 145.866 67.392
4.91 141.560 66.087
4.92 142.628 65.578
4.93 145.734 65.907
4.94 144.289 66.703
4.95 145.871 67.533
4.96 145.775 67.832
4.97 143.852 67.582
4.98 143.000 67.258
4.99 143.794 67.047
5.00 144.970 67.094
5.01 147.197 67.251
5.02 147.874 67.086
5.03 147.945 66.187
5.04 146.719 63.775
5.05 143.843 59.076
5.06 --undefined-- 51.560
5.07 --undefined-- 47.577
5.08 --undefined-- 55.268
5.09 --undefined-- 63.422
5.10 200.932 68.241
5.11 185.887 70.179
5.12 182.273 70.937
5.13 180.990 71.441
5.14 180.004 71.609
5.15 177.581 71.517
5.16 176.000 71.140
5.17 175.750 70.864
5.18 175.546 71.034
5.19 175.437 71.195
5.20 175.621 71.053
5.21 176.392 70.671
5.22 176.293 69.764
5.23 174.316 67.552
5.24 170.875 63.162
5.25 --undefined-- 56.011
5.26 --undefined-- 47.184
5.27 --undefined-- 42.524
5.28 --undefined-- 44.049
5.29 --undefined-- 52.231
5.30 --undefined-- 60.613
5.31 199.239 66.437
5.32 186.513 69.095
5.33 176.063 69.418
5.34 166.553 68.355
5.35 --undefined-- 66.079
5.36 --undefined-- 62.218
5.37 --undefined-- 56.938
5.38 --undefined-- 52.171
5.39 --undefined-- 49.871
5.40 --undefined-- 52.291
5.41 --undefined-- 55.615
5.42 --undefined-- 57.389
5.43 --undefined-- 57.758
5.44 --undefined-- 59.255
5.45 191.667 63.829
5.46 187.189 67.419
5.47 179.650 68.806
5.48 174.827 68.720
5.49 167.946 --undefined--
5.50 157.856 --undefined--
5.51 --undefined-- --undefined--
5.52 --undefined-- --undefined--
