Time Pitch Intensity
0.01 --undefined-- --undefined--
0.02 --undefined-- --undefined--
0.03 --undefined-- --undefined--
0.04 --undefined-- --undefined--
0.05 --undefined-- 49.348
0.06 --undefined-- 51.483
0.07 --undefined-- 52.469
0.08 --undefined-- 52.426
0.09 --undefined-- 52.568
0.10 --undefined-- 54.118
0.11 266.613 56.506
0.12 266.582 59.151
0.13 221.710 62.230
0.14 198.731 64.790
0.15 189.536 66.228
0.16 182.840 66.756
0.17 180.793 66.658
0.18 180.477 65.665
0.19 180.506 63.328
0.20 171.204 59.300
0.21 170.884 54.294
0.22 --undefined-- 50.956
0.23 --undefined-- 49.982
0.24 --undefined-- 53.381
0.25 --undefined-- 59.205
0.26 --undefined-- 61.685
0.27 --undefined-- 61.810
0.28 227.052 63.636
0.29 228.628 65.968
0.30 228.664 66.863
0.31 226.480 66.083
0.32 226.161 64.104
0.33 228.202 62.502
0.34 231.418 62.337
0.35 235.575 62.701
0.36 236.343 62.753
0.37 235.903 62.590
0.38 235.509 62.416
0.39 236.314 62.172
0.40 236.943 61.933
0.41 238.125 61.634
0.42 236.187 60.883
0.43 230.542 58.926
0.44 223.286 55.839
0.45 --undefined-- 55.477
0.46 --undefined-- 57.712
0.47 224.320 59.155
0.48 221.171 59.626
0.49 221.638 60.171
0.50 219.028 61.858
0.51 --undefined-- 64.002
0.52 --undefined-- 65.433
0.53 --undefined-- 65.726
0.54 --undefined-- 64.755
0.55 154.331 62.741
0.56 149.268 60.663
0.57 143.607 59.055
0.58 138.862 57.571
0.59 135.945 56.073
0.60 137.273 55.279
0.61 144.510 55.672
0.62 148.193 56.751
0.63 148.767 56.788
0.64 145.679 54.843
0.65 --undefined-- 52.359
0.66 --undefined-- 51.831
0.67 --undefined-- 51.404
0.68 --undefined-- 52.900
0.69 --undefined-- 55.832
0.70 --undefined-- 60.380
0.71 181.057 65.008
0.72 178.413 68.154
0.73 176.411 70.313
0.74 175.918 72.162
0.75 176.161 73.578
0.76 177.384 74.309
0.77 178.297 74.489
0.78 179.550 74.388
0.79 181.309 74.436
0.80 181.909 74.831
0.81 181.793 75.307
0.82 182.393 75.542
0.83 182.814 75.306
0.84 183.575 74.615
0.85 183.393 73.557
0.86 180.358 72.000
0.87 176.278 69.560
0.88 --undefined-- 65.828
0.89 --undefined-- 60.948
0.90 299.762 57.338
0.91 293.584 55.260
0.92 296.139 53.167
0.93 --undefined-- 50.429
0.94 --undefined-- 49.398
0.95 --undefined-- 49.083
0.96 --undefined-- 46.417
0.97 --undefined-- 44.739
0.98 --undefined-- 45.850
0.99 --undefined-- 44.978
1.00 --undefined-- 43.180
1.01 --undefined-- 45.420
1.02 --undefined-- 47.582
1.03 --undefined-- 48.175
1.04 --undefined-- 49.240
1.05 --undefined-- 50.414
1.06 --undefined-- 50.241
1.07 --undefined-- 48.785
1.08 --undefined-- 48.011
1.09 --undefined-- 47.527
1.10 --undefined-- 47.346
1.11 --undefined-- 48.416
1.12 --undefined-- 48.693
1.13 --undefined-- 48.789
1.14 --undefined-- 49.794
1.15 --undefined-- 50.880
1.16 --undefined-- 50.897
1.17 --undefined-- 49.961
1.18 --undefined-- 49.464
1.19 --undefined-- 49.757
1.20 --undefined-- 50.914
1.21 --undefined-- 52.208
1.22 --undefined-- 52.965
1.23 --undefined-- 53.943
1.24 --undefined-- 53.926
1.25 --undefined-- 52.161
1.26 --undefined-- 50.138
1.27 --undefined-- 49.365
1.28 --undefined-- 49.017
1.29 --undefined-- 48.781
1.30 --undefined-- 48.163
1.31 --undefined-- 45.948
1.32 --undefined-- 43.266
1.33 --undefined-- 42.907
1.34 --undefined-- 44.897
1.35 --undefined-- 46.941
1.36 --undefined-- 51.139
1.37 --undefined-- 56.351
1.38 --undefined-- 59.116
1.39 --undefined-- 59.587
1.40 --undefined-- 59.113
1.41 --undefined-- 59.400
1.42 --undefined-- 63.156
1.43 281.985 68.114
1.44 278.227 70.966
1.45 273.491 71.850
1.46 271.887 71.784
1.47 272.166 71.586
1.48 273.546 71.461
1.49 275.936 71.461
1.50 278.367 71.574
1.51 281.302 71.559
1.52 283.557 71.196
1.53 284.763 70.546
1.54 285.829 69.741
1.55 285.390 68.830
1.56 284.283 68.822
1.57 289.753 70.116
1.58 293.630 71.174
1.59 296.146 71.486
1.60 299.400 71.191
1.61 153.181 70.488
1.62 158.057 69.510
1.63 160.419 68.333
1.64 161.193 67.348
1.65 162.618 67.055
1.66 163.214 67.477
1.67 161.246 68.096
1.68 157.916 68.249
1.69 155.924 67.927
1.70 153.759 67.944
1.71 152.297 68.510
1.72 151.316 68.942
1.73 151.018 68.936
1.74 151.365 68.686
1.75 151.519 68.430
1.76 151.728 68.339
1.77 151.790 68.394
1.78 151.517 68.396
1.79 150.637 68.266
1.80 295.982 68.059
1.81 288.669 67.795
1.82 280.086 67.349
1.83 272.278 66.643
1.84 267.837 65.645
1.85 261.296 64.540
1.86 246.895 64.984
1.87 236.726 67.145
1.88 234.864 68.400
1.89 224.475 67.704
1.90 209.483 66.752
1.91 203.706 67.745
1.92 199.702 68.822
1.93 196.308 69.118
1.94 195.777 69.354
1.95 196.303 69.697
1.96 196.545 69.746
1.97 198.274 69.031
1.98 201.361 67.584
1.99 202.503 66.737
2.00 203.154 67.174
2.01 204.531 68.011
2.02 206.103 68.582
2.03 207.773 68.340
2.04 210.924 66.572
2.05 212.643 62.820
2.06 228.606 58.010
2.07 --undefined-- 54.214
2.08 --undefined-- 51.135
2.09 --undefined-- 48.813
2.10 --undefined-- 49.376
2.11 --undefined-- 52.641
2.12 --undefined-- 54.971
2.13 --undefined-- 56.431
2.14 --undefined-- 57.349
2.15 --undefined-- 60.096
2.16 165.566 65.173
2.17 169.143 68.266
2.18 173.545 69.070
2.19 178.215 68.741
2.20 179.223 68.453
2.21 178.854 68.361
2.22 177.571 68.054
2.23 175.566 67.790
2.24 178.356 68.173
2.25 180.612 68.680
2.26 181.243 68.768
2.27 181.079 68.437
2.28 181.307 67.900
2.29 181.983 67.533
2.30 182.334 67.351
2.31 182.182 67.207
2.32 181.214 67.111
2.33 179.675 67.183
2.34 178.994 67.350
2.35 178.622 67.486
2.36 178.184 67.650
2.37 177.518 67.871
2.38 176.592 68.055
2.39 175.369 68.141
2.40 175.080 68.037
2.41 175.941 67.612
2.42 174.973 67.144
2.43 173.111 67.238
2.44 172.167 67.820
2.45 171.982 68.210
2.46 173.587 68.126
2.47 178.922 67.588
2.48 179.816 66.185
2.49 172.994 63.288
2.50 159.109 58.413
2.51 --undefined-- 51.571
2.52 --undefined-- 46.516
2.53 --undefined-- 47.244
2.54 --undefined-- 49.378
2.55 --undefined-- 49.491
2.56 --undefined-- 48.356
2.57 --undefined-- 51.855
2.58 295.925 57.873
2.59 265.021 61.356
2.60 252.388 62.506
2.61 241.741 62.582
2.62 234.999 62.377
2.63 231.588 61.855
2.64 228.270 61.029
2.65 223.103 59.552
2.66 205.962 56.678
2.67 187.929 53.120
2.68 203.588 52.732
2.69 233.196 57.433
2.70 225.701 62.250
2.71 224.618 64.673
2.72 218.223 65.251
2.73 213.746 65.404
2.74 209.517 65.763
2.75 206.415 66.117
2.76 203.774 66.264
2.77 203.151 66.298
2.78 202.995 66.511
2.79 202.006 66.917
2.80 200.764 67.286
2.81 200.503 67.516
2.82 201.132 67.638
2.83 201.440 67.729
2.84 201.955 67.956
2.85 202.429 68.335
2.86 202.241 68.665
2.87 201.986 68.797
2.88 202.045 68.230
2.89 203.498 66.067
2.90 203.899 61.865
2.91 201.755 56.934
2.92 201.913 53.534
2.93 203.731 50.823
2.94 --undefined-- 48.761
2.95 --undefined-- 51.124
2.96 --undefined-- 54.275
2.97 --undefined-- 55.031
2.98 --undefined-- 53.353
2.99 --undefined-- 50.820
3.00 --undefined-- 48.989
3.01 --undefined-- 49.685
3.02 --undefined-- 53.629
3.03 --undefined-- 57.174
3.04 --undefined-- 59.346
3.05 288.527 62.507
3.06 292.078 66.144
3.07 291.586 68.334
3.08 291.834 69.468
3.09 291.260 70.075
3.10 290.228 70.198
3.11 291.995 69.872
3.12 293.442 69.277
3.13 292.992 68.449
3.14 292.653 67.563
3.15 295.997 67.455
3.16 --undefined-- 67.964
3.17 299.708 68.229
3.18 298.342 68.235
3.19 296.675 68.135
3.20 293.817 67.848
3.21 291.926 67.442
3.22 290.667 67.166
3.23 290.767 67.054
3.24 291.291 66.982
3.25 291.264 66.959
3.26 291.490 67.092
3.27 292.364 67.378
3.28 292.725 67.666
3.29 291.079 67.720
3.30 286.937 67.280
3.31 277.925 66.002
3.32 265.288 64.056
3.33 247.009 63.368
3.34 237.645 65.395
3.35 --undefined-- 67.572
3.36 --undefined-- 68.863
3.37 --undefined-- 68.983
3.38 --undefined-- 67.782
3.39 --undefined-- 65.132
3.40 --undefined-- 60.686
3.41 --undefined-- 55.014
3.42 --undefined-- 50.803
3.43 --undefined-- 48.766
3.44 --undefined-- 46.653
3.45 --undefined-- 47.081
3.46 --undefined-- 47.732
3.47 --undefined-- 49.282
3.48 --undefined-- 52.353
3.49 --undefined-- 54.786
3.50 153.566 57.509
3.51 152.647 60.667
3.52 215.194 64.226
3.53 218.304 67.129
3.54 223.585 68.768
3.55 227.870 69.618
3.56 230.336 70.290
3.57 230.233 70.853
3.58 228.700 71.007
3.59 225.953 70.800
3.60 222.205 70.805
3.61 219.860 71.028
3.62 217.520 70.863
3.63 215.510 70.144
3.64 212.099 69.146
3.65 207.605 68.692
3.66 204.253 68.615
3.67 199.766 67.714
3.68 195.100 66.342
3.69 192.305 65.545
3.70 191.417 65.044
3.71 193.798 64.492
3.72 198.338 64.353
3.73 201.016 64.850
3.74 205.737 65.438
3.75 215.493 66.106
3.76 226.897 66.746
3.77 233.538 66.717
3.78 236.801 65.961
3.79 241.069 65.866
3.80 245.084 66.276
3.81 249.774 66.117
3.82 254.769 65.472
3.83 260.403 64.366
3.84 259.904 62.051
3.85 259.104 57.733
3.86 267.960 52.777
3.87 --undefined-- 51.576
3.88 --undefined-- 50.321
3.89 --undefined-- 49.292
3.90 --undefined-- 49.906
3.91 --undefined-- 48.251
3.92 --undefined-- 45.568
3.93 --undefined-- 48.524
3.94 --undefined-- 51.549
3.95 --undefined-- 53.108
3.96 --undefined-- 55.032
3.97 --undefined-- 55.473
3.98 --undefined-- 54.309
3.99 --undefined-- 52.933
4.00 --undefined-- 51.172
4.01 --undefined-- 53.323
4.02 --undefined-- 56.832
4.03 --undefined-- 59.803
4.04 185.090 63.416
4.05 183.854 66.452
4.06 181.192 68.040
4.07 178.339 68.413
4.08 176.596 67.773
4.09 174.036 66.105
4.10 168.069 63.851
4.11 161.292 61.941
4.12 162.378 61.401
4.13 168.004 62.009
4.14 173.114 62.692
4.15 172.683 62.894
4.16 171.377 62.728
4.17 170.430 62.476
4.18 170.269 62.050
4.19 169.606 61.828
4.20 168.796 61.969
4.21 168.078 62.152
4.22 170.071 62.295
4.23 171.909 62.128
4.24 173.293 61.886
4.25 175.073 61.925
4.26 174.555 62.328
4.27 174.123 62.879
4.28 173.204 63.593
4.29 170.255 64.443
4.30 169.718 65.286
4.31 171.618 66.441
4.32 172.378 67.367
4.33 169.979 67.631
4.34 168.255 67.713
4.35 167.337 67.904
4.36 166.190 68.397
4.37 165.340 69.173
4.38 165.600 69.778
4.39 165.609 70.124
4.40 165.643 70.293
4.41 165.992 70.535
4.42 167.095 70.825
4.43 167.449 70.711
4.44 168.653 70.168
4.45 169.278 69.434
4.46 170.487 68.525
4.47 172.536 68.230
4.48 174.423 68.860
4.49 177.550 69.356
4.50 180.367 69.005
4.51 182.824 67.903
4.52 185.517 66.673
4.53 187.817 65.679
4.54 191.084 64.535
4.55 192.634 62.469
4.56 190.350 59.005
4.57 --undefined-- 55.404
4.58 --undefined-- 52.880
4.59 --undefined-- 53.620
4.60 --undefined-- 54.922
4.61 --undefined-- 53.056
4.62 --undefined-- 48.741
4.63 --undefined-- 51.174
4.64 --undefined-- 58.917
4.65 --undefined-- 63.940
4.66 --undefined-- 66.028
4.67 --undefined-- 65.786
4.68 160.788 64.358
4.69 159.406 63.457
4.70 160.474 63.201
4.71 163.511 62.528
4.72 166.216 61.619
4.73 168.019 61.184
4.74 168.231 61.122
4.75 167.732 61.168
4.76 167.500 61.324
4.77 166.717 61.556
4.78 165.427 61.941
4.79 165.007 62.304
4.80 164.611 62.522
4.81 164.131 62.802
4.82 163.759 63.118
4.83 164.132 63.086
4.84 165.155 62.682
4.85 166.822 62.444
4.86 168.430 62.548
4.87 173.321 62.904
4.88 168.148 63.311
4.89 167.429 63.425
4.90 167.153 62.876
4.91 168.894 61.265
4.92 175.756 58.857
4.93 176.272 57.408
4.94 185.531 60.218
4.95 199.154 64.456
4.96 201.509 66.828
4.97 199.522 67.388
4.98 196.085 68.007
4.99 189.911 68.891
5.00 183.572 68.976
5.01 --undefined-- 68.351
5.02 --undefined-- 66.915
5.03 --undefined-- 64.987
5.04 --undefined-- 63.063
5.05 --undefined-- 60.908
5.06 --undefined-- --undefined--
5.07 --undefined-- --undefined--
5.08 --undefined-- --undefined--
5.09 --undefined-- --undefined--
