Time Pitch Intensity
0.01 --undefined-- --undefined--
0.02 163.192 --undefined--
0.03 163.206 --undefined--
0.04 162.618 --undefined--
0.05 161.852 78.427
0.06 161.352 78.050
0.07 161.162 77.573
0.08 161.812 76.937
0.09 162.037 75.833
0.10 160.567 74.073
0.11 160.157 72.458
0.12 159.586 71.981
0.13 156.136 72.159
0.14 155.214 72.585
0.15 155.937 73.563
0.16 158.576 75.094
0.17 158.001 76.579
0.18 157.340 77.257
0.19 159.264 77.008
0.20 161.208 76.420
0.21 162.442 76.079
0.22 165.745 75.956
0.23 169.919 75.902
0.24 174.627 75.934
0.25 176.268 76.014
0.26 174.415 76.270
0.27 179.548 76.919
0.28 183.623 77.428
0.29 185.077 77.556
0.30 186.484 77.491
0.31 187.307 77.380
0.32 186.888 77.346
0.33 185.493 77.421
0.34 183.026 77.554
0.35 179.848 77.586
0.36 178.251 77.293
0.37 170.794 76.661
0.38 162.042 76.229
0.39 157.402 76.324
0.40 149.664 76.489
0.41 142.968 76.477
0.42 132.287 76.270
0.43 126.844 76.310
0.44 123.659 76.585
0.45 120.375 76.496
0.46 120.637 76.257
0.47 122.308 76.168
0.48 123.395 76.225
0.49 123.684 76.466
0.50 123.584 76.771
0.51 122.882 76.989
0.52 122.105 77.146
0.53 122.415 77.289
0.54 123.128 77.378
0.55 124.120 77.323
0.56 124.654 77.127
0.57 123.768 76.944
0.58 122.466 76.923
0.59 122.121 77.034
0.60 121.747 77.085
0.61 120.607 76.962
0.62 118.249 76.906
0.63 118.574 77.362
0.64 117.648 77.813
0.65 110.880 77.566
0.66 104.918 76.928
0.67 104.396 76.375
0.68 104.892 75.936
0.69 104.166 75.556
0.70 104.334 75.450
0.71 105.573 75.591
0.72 108.288 75.830
0.73 108.325 76.111
0.74 109.318 76.364
0.75 111.202 76.710
0.76 112.478 77.095
0.77 112.318 76.960
0.78 112.591 75.794
0.79 111.925 73.544
0.80 112.248 71.204
0.81 116.131 71.284
0.82 129.876 74.110
0.83 136.003 76.500
0.84 141.593 77.397
0.85 145.211 77.399
0.86 147.015 77.068
0.87 148.029 76.450
0.88 147.756 75.416
0.89 146.974 73.719
0.90 145.656 71.269
0.91 144.767 68.191
0.92 146.692 64.374
0.93 144.516 59.767
0.94 --undefined-- 55.994
0.95 --undefined-- 54.292
0.96 --undefined-- 53.913
0.97 --undefined-- 54.778
0.98 --undefined-- 55.350
0.99 --undefined-- 57.455
1.00 --undefined-- 66.349
1.01 --undefined-- 73.010
1.02 140.661 76.311
1.03 140.881 77.167
1.04 136.189 77.029
1.05 132.041 77.106
1.06 130.957 77.268
1.07 128.788 77.314
1.08 127.872 77.327
1.09 125.453 77.296
1.10 123.493 77.287
1.11 122.317 77.171
1.12 121.100 76.981
1.13 121.966 77.098
1.14 124.213 77.405
1.15 125.428 77.189
1.16 126.205 76.130
1.17 128.327 74.670
1.18 128.878 73.719
1.19 128.601 73.345
1.20 128.687 73.357
1.21 130.008 74.208
1.22 133.024 75.759
1.23 134.133 77.003
1.24 134.051 77.367
1.25 135.127 77.043
1.26 133.407 76.731
1.27 132.068 76.816
1.28 131.916 76.851
1.29 131.633 76.788
1.30 131.508 76.954
1.31 131.151 77.035
1.32 128.814 76.616
1.33 129.888 76.158
1.34 132.491 76.221
1.35 133.445 76.284
1.36 132.296 75.758
1.37 129.608 74.402
1.38 128.123 72.198
1.39 130.307 69.682
1.40 133.916 67.465
1.41 137.970 65.347
1.42 133.504 62.793
1.43 --undefined-- 61.541
1.44 --undefined-- 63.000
1.45 --undefined-- 69.097
1.46 --undefined-- 74.623
1.47 147.108 77.096
1.48 144.755 77.371
1.49 138.462 77.033
1.50 136.631 77.045
1.51 137.016 77.033
1.52 138.459 76.813
1.53 140.628 76.651
1.54 143.974 76.701
1.55 146.938 76.828
1.56 150.057 76.805
1.57 153.941 76.452
1.58 159.291 75.791
1.59 161.458 75.071
1.60 165.571 74.308
1.61 169.289 73.785
1.62 182.286 74.874
1.63 177.425 76.454
1.64 176.361 77.141
1.65 175.833 77.135
1.66 174.189 76.601
1.67 171.381 75.070
1.68 170.514 72.451
1.69 173.073 71.065
1.70 171.306 73.344
1.71 169.207 76.008
1.72 167.483 77.292
1.73 163.987 77.687
1.74 158.420 77.914
1.75 152.967 77.880
1.76 149.356 77.647
1.77 147.459 77.249
1.78 144.396 76.085
1.79 139.862 73.398
1.80 138.613 68.673
1.81 143.288 62.742
1.82 147.381 57.999
1.83 148.879 54.204
1.84 --undefined-- 51.015
1.85 --undefined-- 48.502
1.86 --undefined-- 47.126
1.87 --undefined-- 45.986
1.88 --undefined-- 44.356
1.89 --undefined-- 42.830
1.90 --undefined-- 41.512
1.91 --undefined-- 39.570
1.92 --undefined-- 37.049
1.93 --undefined-- 35.334
1.94 --undefined-- 35.527
1.95 --undefined-- 36.646
1.96 --undefined-- 48.225
1.97 --undefined-- 60.405
1.98 --undefined-- 68.034
1.99 --undefined-- 72.947
2.00 168.800 76.298
2.01 161.039 77.975
2.02 155.765 78.172
2.03 152.691 77.928
2.04 150.213 77.729
2.05 146.032 77.405
2.06 143.103 76.719
2.07 140.793 75.486
2.08 136.956 74.033
2.09 --undefined-- 72.910
2.10 --undefined-- 71.766
2.11 --undefined-- 69.065
2.12 --undefined-- 63.712
2.13 --undefined-- 57.211
2.14 --undefined-- 53.643
2.15 --undefined-- 51.338
2.16 --undefined-- 49.297
2.17 --undefined-- 48.142
2.18 --undefined-- 52.319
2.19 --undefined-- 60.699
2.20 142.348 67.311
2.21 139.600 71.649
2.22 129.714 74.137
2.23 124.031 75.334
2.24 117.422 75.798
2.25 112.954 75.861
2.26 106.941 75.537
2.27 105.645 75.006
2.28 101.550 74.478
2.29 99.886 73.976
2.30 99.996 73.571
2.31 101.412 73.315
2.32 100.266 73.479
2.33 105.683 74.022
2.34 105.446 74.471
2.35 106.652 74.763
2.36 107.870 75.012
2.37 108.683 75.315
2.38 109.335 75.511
2.39 110.381 75.204
2.40 110.735 74.020
2.41 110.431 72.590
2.42 124.066 73.655
2.43 130.584 76.090
2.44 131.514 77.308
2.45 131.492 77.468
2.46 132.629 77.491
2.47 133.939 77.340
2.48 132.773 76.217
2.49 127.382 73.345
2.50 122.846 68.219
2.51 132.293 61.048
2.52 133.533 55.364
2.53 133.272 53.872
2.54 131.115 52.075
2.55 --undefined-- 49.325
2.56 --undefined-- 51.795
2.57 --undefined-- 59.010
2.58 --undefined-- 62.360
2.59 --undefined-- 63.741
2.60 --undefined-- 67.941
2.61 127.954 71.893
2.62 125.931 74.253
2.63 123.384 75.638
2.64 121.703 76.497
2.65 121.034 77.074
2.66 120.795 77.504
2.67 120.644 77.753
2.68 120.854 77.550
2.69 117.583 76.770
2.70 117.227 76.108
2.71 118.623 76.158
2.72 119.042 76.391
2.73 120.559 76.635
2.74 122.524 76.826
2.75 124.297 76.698
2.76 125.917 76.072
2.77 127.516 74.984
2.78 133.206 74.030
2.79 137.557 73.608
2.80 137.003 72.450
2.81 133.729 69.633
2.82 128.687 65.784
2.83 144.308 62.704
2.84 153.167 62.223
2.85 150.355 66.413
2.86 169.637 72.688
2.87 172.195 76.229
2.88 165.483 77.105
2.89 160.144 76.978
2.90 158.028 77.249
2.91 156.623 77.615
2.92 155.878 77.697
2.93 155.489 77.504
2.94 154.400 77.201
2.95 153.401 76.901
2.96 152.788 76.424
2.97 153.039 75.730
2.98 154.700 75.288
2.99 156.462 75.317
3.00 156.966 75.429
3.01 157.259 75.432
3.02 157.293 75.452
3.03 156.940 75.567
3.04 156.538 75.806
3.05 157.048 76.145
3.06 157.618 76.348
3.07 157.075 76.286
3.08 156.273 76.134
3.09 156.976 76.192
3.10 160.002 76.502
3.11 154.993 76.865
3.12 153.101 77.213
3.13 151.971 77.436
3.14 150.990 77.487
3.15 150.524 77.321
3.16 150.060 77.013
3.17 148.825 76.652
3.18 146.376 76.301
3.19 146.559 75.887
3.20 151.273 74.652
3.21 153.189 71.561
3.22 --undefined-- 66.526
3.23 --undefined-- 62.129
3.24 --undefined-- 59.484
3.25 --undefined-- 56.037
3.26 --undefined-- 53.083
3.27 --undefined-- 53.151
3.28 --undefined-- 54.926
3.29 --undefined-- 56.187
3.30 --undefined-- 55.633
3.31 --undefined-- 54.540
3.32 --undefined-- 53.766
3.33 --undefined-- 52.671
3.34 160.045 54.429
3.35 178.658 62.409
3.36 150.380 68.602
3.37 136.992 72.049
3.38 130.037 73.768
3.39 127.741 74.730
3.40 126.119 75.420
3.41 124.795 75.986
3.42 124.151 76.535
3.43 124.167 76.984
3.44 123.918 77.199
3.45 124.087 77.361
3.46 124.233 77.593
3.47 124.399 77.801
3.48 124.660 77.920
3.49 124.359 77.982
3.50 124.409 78.078
3.51 124.861 78.161
3.52 124.899 77.944
3.53 123.740 77.010
3.54 121.302 74.712
3.55 111.964 70.416
3.56 93.335 64.482
3.57 119.262 60.648
3.58 118.106 63.189
3.59 117.535 67.075
3.60 117.717 68.782
3.61 --undefined-- 68.123
3.62 --undefined-- 66.265
3.63 --undefined-- 64.608
3.64 --undefined-- 67.539
3.65 180.419 73.679
3.66 182.472 76.897
3.67 175.919 77.174
3.68 171.224 76.459
3.69 162.625 76.150
3.70 161.520 74.545
3.71 163.341 70.543
3.72 165.583 65.357
3.73 164.429 61.254
3.74 168.184 58.225
3.75 166.595 55.698
3.76 --undefined-- 52.513
3.77 --undefined-- 54.883
3.78 --undefined-- 61.458
3.79 --undefined-- 66.326
3.80 --undefined-- 70.665
3.81 158.173 74.508
3.82 157.578 77.032
3.83 157.917 78.132
3.84 155.887 78.152
3.85 153.092 77.728
3.86 151.031 77.601
3.87 149.967 77.672
3.88 147.664 77.271
3.89 144.549 75.861
3.90 142.521 72.764
3.91 --undefined-- 67.155
3.92 --undefined-- 59.787
3.93 --undefined-- 56.669
3.94 --undefined-- 55.917
3.95 --undefined-- 56.397
3.96 --undefined-- 63.656
3.97 --undefined-- 71.238
3.98 130.475 75.429
3.99 126.147 76.972
4.00 118.248 77.111
4.01 112.421 76.922
4.02 109.578 76.933
4.03 108.324 76.875
4.04 108.696 76.502
4.05 109.650 75.976
4.06 110.069 75.422
4.07 110.688 75.034
4.08 110.902 74.985
4.09 111.769 75.165
4.10 112.961 75.472
4.11 114.135 75.985
4.12 114.490 76.624
4.13 113.750 77.215
4.14 112.825 77.574
4.15 112.476 77.273
4.16 112.157 76.069
4.17 114.650 73.997
4.18 111.892 70.991
4.19 107.747 67.649
4.20 109.961 64.530
4.21 --undefined-- 62.112
4.22 --undefined-- 61.229
4.23 --undefined-- 60.718
4.24 --undefined-- 60.204
4.25 --undefined-- 59.613
4.26 --undefined-- 59.014
4.27 --undefined-- 62.069
4.28 --undefined-- 68.008
4.29 --undefined-- 72.100
4.30 97.664 74.371
4.31 96.873 75.736
4.32 97.084 76.615
4.33 95.837 76.958
4.34 96.806 76.722
4.35 94.378 75.881
4.36 91.537 74.598
4.37 90.931 73.467
4.38 89.349 72.858
4.39 89.700 72.634
4.40 91.490 72.867
4.41 91.699 73.256
4.42 94.034 73.685
4.43 99.272 74.220
4.44 102.793 74.671
4.45 104.784 75.046
4.46 107.459 75.423
4.47 109.449 75.804
4.48 115.025 76.304
4.49 123.710 77.090
4.50 128.397 77.862
4.51 132.153 78.374
4.52 135.375 78.872
4.53 138.071 79.388
4.54 139.272 79.514
4.55 139.532 79.005
4.56 139.270 77.441
4.57 137.335 74.007
4.58 136.341 68.142
4.59 143.209 61.360
4.60 138.124 57.709
4.61 136.065 55.970
4.62 137.610 54.363
4.63 --undefined-- 61.638
4.64 --undefined-- 70.969
4.65 --undefined-- 76.188
4.66 162.771 78.105
4.67 153.376 77.917
4.68 141.071 77.223
4.69 137.671 76.950
4.70 136.280 76.800
4.71 135.506 76.875
4.72 134.806 77.242
4.73 134.201 77.459
4.74 133.415 77.458
4.75 131.437 77.446
4.76 128.395 77.517
4.77 126.155 77.663
4.78 124.099 77.707
4.79 122.571 77.825
4.80 122.623 78.092
4.81 122.585 78.244
4.82 122.665 78.218
4.83 122.661 77.835
4.84 121.945 76.787
4.85 120.877 74.554
4.86 119.382 70.825
4.87 114.754 66.255
4.88 119.714 63.046
4.89 124.507 61.702
4.90 145.845 62.892
4.91 133.364 66.947
4.92 127.358 71.494
4.93 122.118 74.949
4.94 115.978 76.702
4.95 111.295 77.185
4.96 110.245 77.198
4.97 109.566 77.067
4.98 109.919 76.826
4.99 109.507 76.741
5.00 111.874 76.840
5.01 112.127 76.527
5.02 108.060 75.866
5.03 105.662 75.346
5.04 104.214 74.047
5.05 94.933 71.209
5.06 89.929 67.154
5.07 --undefined-- --undefined--
5.08 --undefined-- --undefined--
5.09 --undefined-- --undefined--
5.10 --undefined-- --undefined--
