Time Pitch Intensity
0.01 --undefined-- --undefined--
0.02 113.242 --undefined--
0.03 113.469 --undefined--
0.04 113.494 --undefined--
0.05 113.008 67.179
0.06 113.504 69.555
0.07 114.199 71.505
0.08 114.335 72.291
0.09 113.775 71.419
0.10 113.097 68.357
0.11 --undefined-- 62.490
0.12 --undefined-- 53.191
0.13 --undefined-- 44.136
0.14 --undefined-- 52.336
0.15 --undefined-- 59.047
0.16 --undefined-- 61.749
0.17 --undefined-- 64.968
0.18 --undefined-- 69.828
0.19 --undefined-- 72.266
0.20 --undefined-- 71.922
0.21 --undefined-- 69.121
0.22 --undefined-- 64.785
0.23 --undefined-- 61.348
0.24 --undefined-- 59.188
0.25 --undefined-- 57.137
0.26 --undefined-- 57.208
0.27 --undefined-- 58.082
0.28 --undefined-- 59.035
0.29 --undefined-- 60.188
0.30 --undefined-- 61.451
0.31 --undefined-- 62.356
0.32 --undefined-- 63.266
0.33 --undefined-- 63.660
0.34 --undefined-- 63.143
0.35 --undefined-- 63.069
0.36 105.642 63.057
0.37 102.399 62.087
0.38 102.811 61.178
0.39 106.630 61.756
0.40 113.126 63.716
0.41 117.779 66.004
0.42 121.693 67.652
0.43 121.639 68.700
0.44 --undefined-- 70.075
0.45 --undefined-- 71.021
0.46 --undefined-- 71.415
0.47 --undefined-- 71.658
0.48 --undefined-- 70.773
0.49 --undefined-- 68.674
0.50 --undefined-- 68.013
0.51 --undefined-- 70.107
0.52 --undefined-- 71.011
0.53 108.662 69.911
0.54 103.894 67.545
0.55 99.581 64.815
0.56 97.958 62.253
0.57 91.625 59.598
0.58 88.603 56.938
0.59 --undefined-- 54.187
0.60 --undefined-- 49.412
0.61 --undefined-- 42.166
0.62 --undefined-- 42.492
0.63 --undefined-- 54.724
0.64 --undefined-- 63.489
0.65 --undefined-- 69.204
0.66 --undefined-- 72.435
0.67 --undefined-- 73.211
0.68 --undefined-- 72.105
0.69 85.183 70.704
0.70 85.698 69.687
0.71 85.394 68.355
0.72 83.790 66.527
0.73 82.535 64.301
0.74 81.863 61.567
0.75 --undefined-- 57.773
0.76 --undefined-- 52.743
0.77 --undefined-- 48.531
0.78 --undefined-- 47.029
0.79 --undefined-- 46.708
0.80 --undefined-- 47.011
0.81 --undefined-- 48.354
0.82 107.723 51.708
0.83 109.275 57.059
0.84 108.890 61.124
0.85 107.409 62.579
0.86 107.332 61.265
0.87 102.823 57.438
0.88 108.768 53.423
0.89 110.311 52.398
0.90 112.195 52.920
0.91 112.874 54.067
0.92 111.512 57.700
0.93 --undefined-- 63.896
0.94 --undefined-- 68.127
0.95 --undefined-- 69.713
0.96 --undefined-- 69.559
0.97 --undefined-- 68.582
0.98 --undefined-- 66.952
0.99 --undefined-- 64.870
1.00 --undefined-- 62.669
1.01 --undefined-- 59.971
1.02 --undefined-- 55.699
1.03 --undefined-- 48.895
1.04 --undefined-- 41.261
1.05 --undefined-- 39.358
1.06 --undefined-- 44.019
1.07 --undefined-- 49.491
1.08 --undefined-- 54.196
1.09 --undefined-- 59.019
1.10 --undefined-- 63.244
1.11 --undefined-- 67.946
1.12 --undefined-- 71.834
1.13 --undefined-- 73.399
1.14 --undefined-- 72.811
1.15 --undefined-- 70.396
1.16 --undefined-- 65.823
1.17 --undefined-- 58.158
1.18 --undefined-- 46.696
1.19 --undefined-- 39.361
1.20 --undefined-- 37.700
1.21 --undefined-- 35.952
1.22 --undefined-- 37.543
1.23 --undefined-- 44.369
1.24 --undefined-- 49.130
1.25 --undefined-- 49.728
1.26 --undefined-- 48.183
1.27 --undefined-- 53.487
1.28 --undefined-- 60.671
1.29 --undefined-- 65.175
1.30 --undefined-- 66.606
1.31 --undefined-- 66.820
1.32 --undefined-- 68.403
1.33 104.988 68.983
1.34 99.625 67.471
1.35 95.389 64.112
1.36 90.512 59.319
1.37 90.053 55.986
1.38 90.173 56.409
1.39 90.324 57.206
1.40 88.666 56.998
1.41 89.031 56.228
1.42 89.979 56.456
1.43 90.146 57.151
1.44 90.296 57.690
1.45 97.384 59.855
1.46 96.724 63.511
1.47 96.449 65.965
1.48 97.085 66.916
1.49 98.556 67.220
1.50 98.196 67.048
1.51 98.184 65.665
1.52 --undefined-- 62.776
1.53 --undefined-- 58.312
1.54 --undefined-- 51.676
1.55 --undefined-- 47.211
1.56 --undefined-- 53.575
1.57 --undefined-- 61.495
1.58 --undefined-- 66.228
1.59 --undefined-- 67.873
1.60 --undefined-- 68.614
1.61 --undefined-- 69.619
1.62 --undefined-- 69.311
1.63 --undefined-- 67.238
1.64 86.407 64.483
1.65 84.315 61.805
1.66 79.958 58.488
1.67 79.362 55.306
1.68 81.835 55.651
1.69 86.541 57.898
1.70 87.341 59.162
1.71 88.071 59.898
1.72 90.329 60.897
1.73 91.655 61.841
1.74 91.890 62.100
1.75 92.045 61.550
1.76 89.896 60.365
1.77 90.446 58.669
1.78 87.037 56.990
1.79 --undefined-- 58.646
1.80 --undefined-- 63.848
1.81 --undefined-- 67.769
1.82 --undefined-- 69.315
1.83 84.010 69.112
1.84 84.695 68.104
1.85 85.533 66.425
1.86 85.639 64.438
1.87 86.594 62.963
1.88 84.698 61.686
1.89 --undefined-- 59.458
1.90 --undefined-- 55.298
1.91 90.336 50.835
1.92 89.069 49.344
1.93 88.849 48.877
1.94 --undefined-- 50.508
1.95 --undefined-- 56.152
1.96 91.808 62.002
1.97 92.113 66.238
1.98 --undefined-- 68.585
1.99 86.580 69.094
2.00 76.410 68.581
2.01 --undefined-- 68.141
2.02 --undefined-- 66.912
2.03 --undefined-- 63.838
2.04 --undefined-- 60.160
2.05 --undefined-- 57.259
2.06 --undefined-- 54.083
2.07 --undefined-- 52.311
2.08 --undefined-- 51.429
2.09 --undefined-- 50.326
2.10 --undefined-- 49.995
2.11 --undefined-- 51.163
2.12 --undefined-- 51.419
2.13 --undefined-- 51.218
2.14 --undefined-- 53.432
2.15 --undefined-- 55.175
2.16 --undefined-- 54.515
2.17 --undefined-- 52.508
2.18 --undefined-- 51.021
2.19 --undefined-- 50.932
2.20 --undefined-- 54.281
2.21 --undefined-- 58.694
2.22 --undefined-- 61.221
2.23 --undefined-- 62.681
2.24 --undefined-- 63.791
2.25 --undefined-- 63.814
2.26 --undefined-- 62.607
2.27 --undefined-- 60.337
2.28 --undefined-- 56.009
2.29 --undefined-- 50.004
2.30 --undefined-- 47.740
2.31 --undefined-- 47.672
2.32 --undefined-- 47.912
2.33 --undefined-- 48.241
2.34 --undefined-- 48.471
2.35 --undefined-- 49.039
2.36 --undefined-- 50.067
2.37 102.329 52.155
2.38 103.137 56.126
2.39 --undefined-- 59.354
2.40 101.440 61.873
2.41 101.561 64.377
2.42 98.056 65.390
2.43 94.599 64.434
2.44 91.723 62.561
2.45 92.064 61.627
2.46 91.555 62.131
2.47 --undefined-- 63.769
2.48 --undefined-- 66.170
2.49 --undefined-- 67.938
2.50 --undefined-- 68.569
2.51 --undefined-- 67.585
2.52 --undefined-- 65.622
2.53 --undefined-- 63.814
2.54 --undefined-- 61.112
2.55 --undefined-- 58.508
2.56 --undefined-- 56.607
2.57 --undefined-- 54.589
2.58 --undefined-- 51.272
2.59 --undefined-- 44.956
2.60 --undefined-- 37.044
2.61 --undefined-- 33.985
2.62 --undefined-- 36.317
2.63 --undefined-- 39.045
2.64 --undefined-- 39.174
2.65 --undefined-- 39.014
2.66 --undefined-- 41.187
2.67 --undefined-- 42.821
2.68 --undefined-- 43.871
2.69 --undefined-- 44.937
2.70 --undefined-- 45.058
2.71 --undefined-- 43.795
2.72 --undefined-- 41.867
2.73 --undefined-- 40.369
2.74 --undefined-- 39.960
2.75 --undefined-- 40.735
2.76 --undefined-- 42.716
2.77 --undefined-- 44.368
2.78 --undefined-- 49.627
2.79 --undefined-- 58.550
2.80 --undefined-- 63.723
2.81 --undefined-- 64.718
2.82 --undefined-- 63.040
2.83 --undefined-- 65.851
2.84 --undefined-- 69.748
2.85 97.721 71.528
2.86 98.643 71.584
2.87 98.796 69.725
2.88 --undefined-- 65.345
2.89 102.109 58.877
2.90 106.646 56.377
2.91 110.422 57.098
2.92 111.023 57.900
2.93 113.817 58.734
2.94 117.621 60.059
2.95 119.964 61.563
2.96 121.640 62.765
2.97 122.552 63.405
2.98 125.466 63.511
2.99 130.869 64.129
3.00 130.933 65.650
3.01 131.071 66.920
3.02 131.380 67.434
3.03 132.129 67.830
3.04 133.004 67.952
3.05 134.286 67.673
3.06 136.989 67.943
3.07 136.097 68.395
3.08 134.647 68.559
3.09 134.706 68.726
3.10 134.510 68.863
3.11 133.410 68.801
3.12 132.731 68.963
3.13 132.186 69.185
3.14 132.411 68.814
3.15 132.938 68.480
3.16 132.946 68.479
3.17 132.597 68.044
3.18 131.713 66.536
3.19 122.926 63.477
3.20 118.013 58.780
3.21 --undefined-- 53.659
3.22 --undefined-- 49.578
3.23 --undefined-- 46.700
3.24 --undefined-- 44.058
3.25 --undefined-- 43.258
3.26 --undefined-- 46.506
3.27 --undefined-- 50.540
3.28 --undefined-- 54.776
3.29 --undefined-- 58.758
3.30 --undefined-- 61.268
3.31 --undefined-- 63.583
3.32 --undefined-- 68.564
3.33 --undefined-- 72.798
3.34 124.656 74.572
3.35 124.320 74.396
3.36 123.046 73.424
3.37 127.752 72.642
3.38 131.154 71.746
3.39 136.170 70.390
3.40 139.545 69.050
3.41 139.065 67.064
3.42 --undefined-- 62.756
3.43 --undefined-- 55.203
3.44 --undefined-- 52.943
3.45 --undefined-- 59.436
3.46 --undefined-- 65.067
3.47 --undefined-- 70.053
3.48 --undefined-- 72.852
3.49 --undefined-- 72.639
3.50 --undefined-- 69.259
3.51 --undefined-- 62.599
3.52 --undefined-- 52.522
3.53 --undefined-- 41.774
3.54 --undefined-- 38.658
3.55 --undefined-- 38.023
3.56 --undefined-- 38.910
3.57 --undefined-- 41.610
3.58 --undefined-- 51.415
3.59 --undefined-- 60.847
3.60 --undefined-- 67.262
3.61 --undefined-- 70.530
3.62 109.564 71.090
3.63 106.603 69.967
3.64 105.836 68.728
3.65 107.044 68.348
3.66 107.659 68.355
3.67 106.712 68.082
3.68 106.887 67.719
3.69 107.122 66.640
3.70 --undefined-- 63.586
3.71 --undefined-- 58.732
3.72 --undefined-- 59.915
3.73 --undefined-- 66.333
3.74 --undefined-- 70.289
3.75 --undefined-- 71.475
3.76 --undefined-- 71.419
3.77 --undefined-- 71.742
3.78 115.240 71.600
3.79 105.647 70.879
3.80 104.516 70.438
3.81 104.799 70.765
3.82 105.633 70.882
3.83 106.580 70.126
3.84 107.546 69.140
3.85 109.497 68.946
3.86 110.588 69.285
3.87 111.184 69.663
3.88 111.479 69.661
3.89 112.106 69.196
3.90 113.727 68.359
3.91 114.073 66.754
3.92 115.650 64.203
3.93 120.251 62.149
3.94 122.787 62.522
3.95 127.987 63.778
3.96 128.593 64.529
3.97 128.168 65.054
3.98 128.657 66.111
3.99 86.653 66.174
4.00 86.718 64.167
4.01 --undefined-- 60.566
4.02 --undefined-- 58.140
4.03 --undefined-- 59.237
4.04 --undefined-- 61.603
4.05 --undefined-- 65.176
4.06 --undefined-- 68.985
4.07 130.953 71.817
4.08 130.088 72.892
4.09 125.898 72.725
4.10 124.996 72.509
4.11 123.477 72.008
4.12 121.360 69.943
4.13 --undefined-- 65.535
4.14 --undefined-- 62.537
4.15 --undefined-- 67.552
4.16 124.439 71.246
4.17 124.218 72.163
4.18 123.889 70.257
4.19 123.290 65.518
4.20 124.583 59.087
4.21 124.356 56.474
4.22 123.934 56.160
4.23 122.370 55.458
4.24 121.942 54.817
4.25 120.855 54.860
4.26 --undefined-- 54.191
4.27 --undefined-- 51.317
4.28 --undefined-- 53.580
4.29 --undefined-- 64.118
4.30 --undefined-- 71.078
4.31 --undefined-- 74.420
4.32 --undefined-- 74.442
4.33 --undefined-- 71.945
4.34 --undefined-- 70.152
4.35 --undefined-- 71.561
4.36 125.496 72.833
4.37 123.519 73.637
4.38 122.621 74.262
4.39 121.298 74.221
4.40 120.040 73.437
4.41 119.410 72.579
4.42 119.205 71.978
4.43 119.535 71.610
4.44 119.691 71.660
4.45 119.834 71.856
4.46 119.639 71.315
4.47 118.192 69.134
4.48 111.325 64.943
4.49 109.577 58.814
4.50 --undefined-- 52.652
4.51 --undefined-- 51.478
4.52 --undefined-- 53.256
4.53 --undefined-- 54.269
4.54 --undefined-- 54.573
4.55 120.785 58.348
4.56 119.450 64.867
4.57 119.182 69.643
4.58 118.853 72.069
4.59 117.690 72.433
4.60 116.415 71.604
4.61 115.474 71.093
4.62 115.223 71.389
4.63 115.082 71.922
4.64 115.257 72.189
4.65 116.589 71.966
4.66 117.314 71.418
4.67 117.218 70.556
4.68 115.222 68.874
4.69 111.314 65.956
4.70 108.799 62.460
4.71 107.025 61.590
4.72 106.592 65.125
4.73 107.766 69.418
4.74 107.430 72.056
4.75 106.243 72.610
4.76 104.682 71.578
4.77 103.527 70.134
4.78 100.182 68.623
4.79 99.131 66.236
4.80 99.168 62.495
4.81 98.639 56.782
4.82 --undefined-- 48.814
4.83 --undefined-- 41.849
4.84 --undefined-- 49.971
4.85 --undefined-- 60.476
4.86 --undefined-- 66.537
4.87 --undefined-- 68.727
4.88 --undefined-- 68.165
4.89 --undefined-- 67.969
4.90 --undefined-- 70.134
4.91 108.177 71.407
4.92 107.743 71.390
4.93 108.493 71.032
4.94 109.251 70.124
4.95 108.948 68.091
4.96 112.560 65.874
4.97 114.083 64.237
4.98 113.677 63.374
4.99 --undefined-- 66.345
5.00 114.470 68.642
5.01 114.365 67.974
5.02 109.067 64.444
5.03 107.009 59.065
5.04 105.941 55.718
5.05 102.514 54.926
5.06 97.622 54.390
5.07 96.354 53.647
5.08 96.246 52.583
5.09 95.429 51.410
5.10 --undefined-- 50.270
5.11 --undefined-- 52.754
5.12 --undefined-- 59.527
5.13 99.853 64.750
5.14 101.470 67.657
5.15 100.536 68.563
5.16 101.195 68.370
5.17 101.364 67.734
5.18 100.267 66.710
5.19 98.696 64.718
5.20 --undefined-- 60.890
5.21 --undefined-- 56.904
5.22 --undefined-- 56.682
5.23 --undefined-- 57.551
5.24 --undefined-- 57.602
5.25 --undefined-- 57.483
5.26 --undefined-- 58.009
5.27 --undefined-- 58.628
5.28 --undefined-- 58.981
5.29 --undefined-- 59.577
5.30 --undefined-- 60.813
5.31 --undefined-- 63.624
5.32 --undefined-- --undefined--
5.33 --undefined-- --undefined--
5.34 --undefined-- --undefined--
5.35 --undefined-- --undefined--
