Time Pitch Intensity
0.01 --undefined-- --undefined--
0.02 97.524 --undefined--
0.03 99.287 --undefined--
0.04 101.220 --undefined--
0.05 103.026 69.547
0.06 104.737 69.658
0.07 106.085 70.033
0.08 106.858 70.613
0.09 106.776 71.080
0.10 106.254 71.417
0.11 105.723 71.644
0.12 105.504 71.688
0.13 105.758 71.540
0.14 105.799 71.272
0.15 105.745 70.724
0.16 105.267 69.604
0.17 104.173 67.956
0.18 105.769 66.291
0.19 100.762 64.298
0.20 100.860 61.527
0.21 106.685 58.506
0.22 106.861 55.300
0.23 106.017 52.690
0.24 --undefined-- 50.785
0.25 --undefined-- 49.441
0.26 --undefined-- 48.962
0.27 --undefined-- 48.626
0.28 --undefined-- 48.604
0.29 --undefined-- 49.787
0.30 --undefined-- 56.297
0.31 --undefined-- 64.459
0.32 122.352 69.914
0.33 117.690 72.786
0.34 113.706 73.957
0.35 112.437 74.246
0.36 112.573 74.208
0.37 113.230 73.947
0.38 115.435 73.544
0.39 120.605 73.551
0.40 125.850 74.149
0.41 131.938 75.132
0.42 138.736 76.117
0.43 144.167 76.843
0.44 149.936 77.462
0.45 156.058 77.952
0.46 162.491 78.217
0.47 168.148 78.303
0.48 172.386 77.987
0.49 177.593 77.287
0.50 177.223 76.799
0.51 176.651 76.482
0.52 175.112 76.200
0.53 173.139 76.373
0.54 170.105 76.228
0.55 167.118 74.685
0.56 163.242 71.634
0.57 166.368 67.434
0.58 168.484 61.888
0.59 171.670 57.692
0.60 170.161 57.680
0.61 167.077 57.286
0.62 166.018 56.023
0.63 --undefined-- 54.421
0.64 --undefined-- 53.245
0.65 --undefined-- 53.178
0.66 --undefined-- 53.588
0.67 --undefined-- 53.663
0.68 --undefined-- 53.481
0.69 --undefined-- 53.478
0.70 --undefined-- 53.293
0.71 --undefined-- 52.626
0.72 --undefined-- 52.016
0.73 --undefined-- 51.727
0.74 --undefined-- 51.136
0.75 --undefined-- 50.261
0.76 --undefined-- 50.148
0.77 --undefined-- 50.905
0.78 --undefined-- 50.419
0.79 --undefined-- 47.410
0.80 --undefined-- 44.342
0.81 --undefined-- 44.357
0.82 --undefined-- 44.992
0.83 --undefined-- 52.558
0.84 154.876 60.839
0.85 145.249 66.692
0.86 148.435 71.451
0.87 149.987 75.165
0.88 154.339 77.432
0.89 157.015 78.307
0.90 154.303 77.929
0.91 153.455 77.265
0.92 152.903 77.153
0.93 152.239 77.199
0.94 152.285 77.538
0.95 151.744 78.223
0.96 150.958 78.541
0.97 150.672 78.337
0.98 148.793 77.647
0.99 150.341 75.969
1.00 154.522 73.692
1.01 155.863 72.292
1.02 154.853 71.810
1.03 154.240 71.394
1.04 156.748 70.715
1.05 161.992 69.837
1.06 174.804 69.523
1.07 190.825 71.261
1.08 197.984 73.469
1.09 209.181 74.679
1.10 215.663 75.328
1.11 220.719 75.896
1.12 223.462 76.530
1.13 225.638 76.895
1.14 227.025 76.893
1.15 227.810 76.742
1.16 226.988 76.324
1.17 220.237 74.997
1.18 207.452 72.019
1.19 196.862 67.005
1.20 --undefined-- 61.064
1.21 --undefined-- 57.660
1.22 --undefined-- 56.756
1.23 --undefined-- 56.563
1.24 --undefined-- 56.164
1.25 --undefined-- 55.628
1.26 --undefined-- 56.085
1.27 --undefined-- 57.243
1.28 --undefined-- 58.414
1.29 --undefined-- 59.391
1.30 --undefined-- 59.725
1.31 --undefined-- 59.939
1.32 --undefined-- 61.619
1.33 --undefined-- 67.563
1.34 167.059 72.892
1.35 161.672 76.052
1.36 157.590 77.872
1.37 151.918 78.948
1.38 146.668 78.985
1.39 144.105 77.160
1.40 144.434 72.770
1.41 147.421 66.478
1.42 144.043 62.310
1.43 145.161 60.738
1.44 150.560 59.207
1.45 153.700 57.715
1.46 152.748 57.103
1.47 --undefined-- 56.991
1.48 --undefined-- 59.646
1.49 100.129 63.814
1.50 106.823 67.006
1.51 105.474 68.845
1.52 104.119 69.540
1.53 101.797 69.400
1.54 98.774 69.152
1.55 98.745 69.572
1.56 99.430 70.164
1.57 99.225 70.306
1.58 99.433 70.309
1.59 98.464 70.443
1.60 97.666 70.520
1.61 97.338 70.343
1.62 95.043 69.981
1.63 93.847 69.496
1.64 93.808 68.857
1.65 94.433 68.140
1.66 94.910 67.272
1.67 94.942 66.260
1.68 95.109 65.236
1.69 92.953 63.888
1.70 90.134 62.007
1.71 91.498 59.877
1.72 91.727 58.032
1.73 104.831 56.874
1.74 110.070 55.239
1.75 --undefined-- 51.687
1.76 --undefined-- 46.496
1.77 --undefined-- 43.298
1.78 --undefined-- 45.648
1.79 --undefined-- 51.585
1.80 --undefined-- 58.500
1.81 --undefined-- 66.313
1.82 --undefined-- 72.297
1.83 139.677 75.355
1.84 132.889 76.326
1.85 129.708 76.612
1.86 130.063 76.596
1.87 129.126 75.987
1.88 126.368 75.187
1.89 124.916 74.827
1.90 123.423 74.930
1.91 123.129 75.304
1.92 122.810 75.542
1.93 122.228 75.314
1.94 121.748 74.721
1.95 120.943 74.186
1.96 119.171 73.849
1.97 117.867 73.462
1.98 117.728 73.104
1.99 116.942 73.034
2.00 116.747 73.008
2.01 116.892 72.915
2.02 117.448 73.112
2.03 118.111 73.521
2.04 119.630 74.043
2.05 122.808 74.573
2.06 123.558 74.945
2.07 124.325 75.259
2.08 122.778 74.949
2.09 121.188 72.904
2.10 121.534 68.789
2.11 122.513 64.575
2.12 121.912 62.023
2.13 120.780 59.420
2.14 120.200 56.034
2.15 --undefined-- 52.171
2.16 --undefined-- 49.236
2.17 --undefined-- 48.887
2.18 --undefined-- 50.832
2.19 --undefined-- 54.246
2.20 --undefined-- 56.632
2.21 --undefined-- 57.556
2.22 --undefined-- 58.209
2.23 --undefined-- 58.855
2.24 --undefined-- 59.179
2.25 --undefined-- 62.951
2.26 --undefined-- 68.792
2.27 119.512 72.592
2.28 118.679 74.610
2.29 117.044 75.603
2.30 114.941 76.006
2.31 113.898 76.149
2.32 112.242 76.234
2.33 111.855 76.278
2.34 111.462 76.202
2.35 111.038 75.955
2.36 111.022 75.405
2.37 109.664 74.158
2.38 108.660 71.695
2.39 105.371 67.864
2.40 105.247 63.510
2.41 104.969 59.782
2.42 105.345 56.720
2.43 104.066 56.298
2.44 --undefined-- 58.731
2.45 --undefined-- 63.195
2.46 --undefined-- 69.818
2.47 --undefined-- 74.249
2.48 --undefined-- 75.551
2.49 --undefined-- 74.355
2.50 --undefined-- 72.214
2.51 --undefined-- 70.897
2.52 --undefined-- 70.151
2.53 --undefined-- 69.590
2.54 --undefined-- 70.407
2.55 --undefined-- 71.713
2.56 --undefined-- 71.620
2.57 --undefined-- 70.767
2.58 --undefined-- 70.947
2.59 --undefined-- 71.605
2.60 --undefined-- 72.633
2.61 --undefined-- 73.796
2.62 145.182 74.831
2.63 153.531 75.819
2.64 153.337 76.354
2.65 147.144 76.331
2.66 134.491 75.771
2.67 133.202 74.533
2.68 112.162 72.877
2.69 103.458 71.285
2.70 93.697 69.778
2.71 90.946 68.516
2.72 91.017 67.726
2.73 95.853 66.986
2.74 100.649 66.151
2.75 98.662 65.007
2.76 95.797 62.814
2.77 97.810 59.457
2.78 --undefined-- 57.402
2.79 --undefined-- 62.700
2.80 119.904 68.274
2.81 119.440 71.487
2.82 117.093 72.683
2.83 117.318 72.981
2.84 123.088 73.319
2.85 126.572 73.837
2.86 129.346 74.569
2.87 130.816 75.227
2.88 134.063 75.532
2.89 133.128 75.615
2.90 129.541 75.629
2.91 126.412 75.325
2.92 122.454 74.796
2.93 117.675 74.402
2.94 115.461 74.113
2.95 113.125 73.731
2.96 111.611 73.491
2.97 110.413 73.277
2.98 110.364 72.594
2.99 111.066 70.868
3.00 101.831 67.566
3.01 104.099 63.227
3.02 104.334 59.208
3.03 107.352 56.353
3.04 --undefined-- 57.761
3.05 --undefined-- 60.206
3.06 --undefined-- 62.795
3.07 --undefined-- 67.966
3.08 118.414 71.605
3.09 117.149 72.842
3.10 112.715 72.490
3.11 109.531 71.665
3.12 109.151 71.223
3.13 109.457 71.274
3.14 108.637 71.589
3.15 106.038 71.921
3.16 103.442 72.026
3.17 101.825 71.869
3.18 101.323 71.596
3.19 102.373 71.556
3.20 103.963 71.781
3.21 106.403 72.145
3.22 107.795 72.617
3.23 108.834 72.933
3.24 106.205 73.153
3.25 109.222 73.187
3.26 111.841 71.621
3.27 --undefined-- 67.044
3.28 --undefined-- 58.787
3.29 --undefined-- 55.604
3.30 --undefined-- 64.798
3.31 --undefined-- 71.786
3.32 --undefined-- 75.389
3.33 135.731 76.367
3.34 134.924 76.129
3.35 134.198 75.976
3.36 133.688 76.238
3.37 132.189 76.607
3.38 128.890 76.877
3.39 126.608 77.304
3.40 125.173 77.552
3.41 123.558 77.395
3.42 122.958 77.008
3.43 124.093 76.745
3.44 125.334 76.507
3.45 125.054 75.656
3.46 120.892 73.918
3.47 121.177 71.384
3.48 122.936 68.033
3.49 127.841 63.887
3.50 126.134 59.960
3.51 126.002 58.257
3.52 126.723 62.788
3.53 160.601 69.870
3.54 161.117 74.617
3.55 154.506 77.156
3.56 150.973 78.305
3.57 147.911 78.789
3.58 145.988 78.757
3.59 144.137 77.419
3.60 143.053 73.740
3.61 136.439 68.116
3.62 136.097 64.576
3.63 144.936 62.576
3.64 148.212 60.686
3.65 --undefined-- 61.508
3.66 113.333 64.436
3.67 107.489 66.938
3.68 101.035 68.284
3.69 97.410 69.087
3.70 95.411 70.106
3.71 95.704 71.496
3.72 96.508 72.501
3.73 98.285 72.888
3.74 100.474 72.916
3.75 104.353 72.483
3.76 105.983 71.553
3.77 109.563 71.514
3.78 117.051 72.648
3.79 118.663 73.488
3.80 120.760 73.863
3.81 121.279 73.876
3.82 118.779 73.210
3.83 115.464 72.476
3.84 125.992 73.686
3.85 133.597 75.685
3.86 141.365 76.644
3.87 135.059 76.396
3.88 130.489 75.453
3.89 129.680 75.051
3.90 130.238 74.946
3.91 124.621 74.000
3.92 123.463 73.080
3.93 125.669 73.597
3.94 126.165 74.903
3.95 126.569 76.041
3.96 128.660 76.600
3.97 126.263 76.570
3.98 122.759 75.981
3.99 119.181 75.064
4.00 114.737 74.229
4.01 112.495 73.575
4.02 104.477 73.038
4.03 101.432 72.784
4.04 103.422 72.728
4.05 101.674 72.532
4.06 101.289 71.849
4.07 100.711 71.187
4.08 100.304 71.153
4.09 100.604 71.367
4.10 102.356 71.826
4.11 102.639 72.091
4.12 103.866 71.926
4.13 104.166 71.886
4.14 104.774 72.301
4.15 106.535 73.089
4.16 109.504 74.104
4.17 113.115 75.007
4.18 121.044 75.643
4.19 125.546 75.879
4.20 128.839 75.630
4.21 131.878 75.261
4.22 132.235 74.915
4.23 131.207 74.063
4.24 129.966 72.183
4.25 130.448 69.090
4.26 131.153 65.353
4.27 131.718 61.277
4.28 130.755 58.538
4.29 --undefined-- 60.929
4.30 --undefined-- 62.209
4.31 --undefined-- 60.272
4.32 --undefined-- 57.679
4.33 --undefined-- 57.604
4.34 --undefined-- 57.841
4.35 --undefined-- 57.959
4.36 --undefined-- 57.505
4.37 --undefined-- 56.475
4.38 --undefined-- 55.960
4.39 --undefined-- 55.828
4.40 --undefined-- 55.392
4.41 --undefined-- 55.090
4.42 --undefined-- 55.466
4.43 --undefined-- 55.949
4.44 --undefined-- 56.133
4.45 --undefined-- 56.634
4.46 --undefined-- 57.562
4.47 --undefined-- 58.358
4.48 --undefined-- 58.659
4.49 --undefined-- 57.789
4.50 --undefined-- 55.222
4.51 --undefined-- 50.562
4.52 --undefined-- 44.576
4.53 --undefined-- 40.783
4.54 --undefined-- 46.097
4.55 --undefined-- 57.210
4.56 --undefined-- 67.184
4.57 --undefined-- 73.678
4.58 --undefined-- 76.739
4.59 191.256 77.331
4.60 204.789 77.018
4.61 208.647 76.120
4.62 209.757 74.627
4.63 209.023 74.513
4.64 228.300 75.850
4.65 244.962 77.693
4.66 250.448 78.888
4.67 248.276 79.041
4.68 238.302 78.948
4.69 229.214 78.615
4.70 214.681 77.476
4.71 198.627 75.973
4.72 179.284 74.828
4.73 176.612 73.861
4.74 176.611 72.883
4.75 172.867 72.566
4.76 175.617 73.947
4.77 176.025 76.024
4.78 171.189 77.121
4.79 168.192 77.043
4.80 163.190 76.025
4.81 159.115 73.903
4.82 161.115 70.897
4.83 161.773 67.498
4.84 159.826 63.665
4.85 160.347 59.469
4.86 163.227 60.329
4.87 164.392 68.711
4.88 --undefined-- 74.819
4.89 238.298 77.897
4.90 237.749 78.907
4.91 237.965 78.970
4.92 238.332 78.498
4.93 238.612 77.746
4.94 237.685 76.871
4.95 233.158 75.604
4.96 215.165 74.001
4.97 203.601 73.340
4.98 200.224 75.078
4.99 199.080 76.686
5.00 187.838 76.817
5.01 170.541 76.785
5.02 160.445 76.913
5.03 151.073 --undefined--
5.04 142.465 --undefined--
5.05 --undefined-- --undefined--
5.06 --undefined-- --undefined--
