Time Pitch Intensity
0.01 --undefined-- --undefined--
0.02 172.464 --undefined--
0.03 171.293 --undefined--
0.04 170.403 --undefined--
0.05 164.274 65.429
0.06 169.375 60.353
0.07 --undefined-- 53.258
0.08 --undefined-- 43.961
0.09 --undefined-- 37.389
0.10 --undefined-- 38.307
0.11 --undefined-- 41.217
0.12 --undefined-- 48.001
0.13 --undefined-- 58.563
0.14 --undefined-- 66.049
0.15 175.416 69.963
0.16 169.868 71.239
0.17 162.693 70.940
0.18 155.300 70.340
0.19 152.349 70.325
0.20 151.140 70.550
0.21 150.148 70.593
0.22 149.738 70.423
0.23 150.067 70.220
0.24 151.654 70.222
0.25 153.806 70.397
0.26 155.344 70.539
0.27 157.445 70.546
0.28 159.421 70.455
0.29 161.166 70.468
0.30 163.584 70.591
0.31 166.539 70.660
0.32 171.322 70.641
0.33 175.193 70.504
0.34 180.144 70.231
0.35 188.878 69.837
0.36 198.478 69.652
0.37 203.541 69.910
0.38 208.899 70.360
0.39 214.425 70.710
0.40 217.486 70.572
0.41 216.507 69.250
0.42 206.062 66.191
0.43 --undefined-- 62.261
0.44 --undefined-- 59.620
0.45 --undefined-- 56.872
0.46 --undefined-- 51.577
0.47 --undefined-- 43.905
0.48 --undefined-- 39.813
0.49 --undefined-- 38.917
0.50 --undefined-- 38.329
0.51 --undefined-- 38.881
0.52 --undefined-- 39.284
0.53 --undefined-- 37.717
0.54 --undefined-- 35.000
0.55 --undefined-- 34.887
0.56 --undefined-- 35.151
0.57 --undefined-- 33.619
0.58 --undefined-- 32.984
0.59 --undefined-- 34.901
0.60 --undefined-- 35.891
0.61 --undefined-- 35.453
0.62 --undefined-- 33.358
0.63 --undefined-- 31.093
0.64 --undefined-- 32.379
0.65 --undefined-- 34.471
0.66 --undefined-- 36.000
0.67 --undefined-- 36.902
0.68 --undefined-- 36.677
0.69 --undefined-- 34.823
0.70 --undefined-- 33.441
0.71 --undefined-- 33.308
0.72 --undefined-- 31.945
0.73 --undefined-- 30.516
0.74 --undefined-- 31.795
0.75 --undefined-- 34.265
0.76 --undefined-- 39.770
0.77 --undefined-- 51.322
0.78 --undefined-- 61.901
0.79 279.089 68.833
0.80 265.261 72.831
0.81 263.912 74.896
0.82 264.138 75.847
0.83 264.690 76.190
0.84 264.198 76.317
0.85 262.446 76.489
0.86 261.248 76.616
0.87 261.387 76.658
0.88 262.039 76.895
0.89 263.756 77.387
0.90 265.421 77.782
0.91 267.482 77.875
0.92 269.056 77.690
0.93 267.601 77.363
0.94 264.808 76.793
0.95 259.548 75.353
0.96 255.031 72.295
0.97 254.134 67.071
0.98 250.827 59.625
0.99 --undefined-- 51.489
1.00 --undefined-- 50.621
1.01 --undefined-- 60.001
1.02 294.697 67.418
1.03 272.440 71.937
1.04 262.379 74.442
1.05 256.326 75.638
1.06 252.400 76.162
1.07 249.958 76.488
1.08 248.948 76.633
1.09 249.422 76.599
1.10 250.186 76.580
1.11 249.820 76.619
1.12 249.715 76.788
1.13 251.701 77.166
1.14 253.391 77.669
1.15 254.702 78.182
1.16 255.586 78.630
1.17 255.748 78.986
1.18 255.159 79.231
1.19 254.452 79.377
1.20 253.865 79.428
1.21 253.280 79.322
1.22 252.357 78.929
1.23 249.468 78.074
1.24 242.474 76.470
1.25 230.811 73.668
1.26 213.214 69.341
1.27 --undefined-- 64.494
1.28 88.185 61.602
1.29 80.020 60.222
1.30 80.311 59.894
1.31 79.499 61.413
1.32 82.380 64.553
1.33 86.327 67.332
1.34 177.059 69.256
1.35 172.482 70.148
1.36 162.871 70.462
1.37 157.599 70.652
1.38 156.057 70.458
1.39 155.925 69.845
1.40 156.902 69.156
1.41 159.642 68.771
1.42 161.764 68.574
1.43 165.546 68.370
1.44 171.180 68.447
1.45 175.299 68.692
1.46 178.659 68.401
1.47 178.637 66.630
1.48 171.977 62.603
1.49 --undefined-- 55.900
1.50 --undefined-- 46.459
1.51 --undefined-- 39.073
1.52 --undefined-- 39.542
1.53 --undefined-- 41.155
1.54 --undefined-- 44.773
1.55 --undefined-- 49.941
1.56 --undefined-- 54.829
1.57 --undefined-- 58.167
1.58 --undefined-- 59.382
1.59 --undefined-- 58.101
1.60 --undefined-- 54.568
1.61 --undefined-- 54.829
1.62 --undefined-- 63.878
1.63 274.739 69.892
1.64 261.145 72.758
1.65 255.304 73.793
1.66 252.974 74.067
1.67 250.456 74.011
1.68 247.102 73.695
1.69 243.699 73.057
1.70 239.885 71.896
1.71 235.912 69.708
1.72 230.931 65.782
1.73 233.720 59.529
1.74 --undefined-- 50.835
1.75 --undefined-- 42.902
1.76 --undefined-- 46.358
1.77 --undefined-- 52.097
1.78 --undefined-- 53.811
1.79 --undefined-- 58.000
1.80 225.121 66.087
1.81 211.648 70.799
1.82 200.872 72.599
1.83 195.329 72.958
1.84 192.278 73.270
1.85 190.400 73.628
1.86 188.619 73.539
1.87 186.291 72.991
1.88 184.271 72.460
1.89 183.202 72.343
1.90 182.835 72.506
1.91 183.008 72.618
1.92 182.911 72.536
1.93 182.611 72.338
1.94 182.606 72.187
1.95 183.157 72.063
1.96 184.358 71.849
1.97 185.594 71.521
1.98 186.834 71.032
1.99 186.028 70.108
2.00 178.681 68.570
2.01 167.288 66.213
2.02 157.238 62.934
2.03 127.416 60.578
2.04 --undefined-- 60.231
2.05 --undefined-- 60.828
2.06 122.664 62.255
2.07 135.218 63.084
2.08 160.659 63.697
2.09 162.978 64.690
2.10 165.250 65.436
2.11 164.343 65.717
2.12 161.567 65.707
2.13 160.705 65.721
2.14 161.632 66.078
2.15 164.886 66.877
2.16 168.729 67.749
2.17 170.578 67.509
2.18 166.349 64.821
2.19 --undefined-- 58.841
2.20 --undefined-- 49.370
2.21 --undefined-- 39.081
2.22 --undefined-- 43.150
2.23 --undefined-- 56.419
2.24 --undefined-- 64.882
2.25 --undefined-- 69.254
2.26 166.393 70.648
2.27 163.483 70.338
2.28 161.421 69.502
2.29 159.790 68.930
2.30 158.501 69.173
2.31 156.411 69.831
2.32 152.778 69.885
2.33 --undefined-- 68.718
2.34 --undefined-- 66.459
2.35 --undefined-- 63.204
2.36 --undefined-- 59.288
2.37 --undefined-- 55.789
2.38 --undefined-- 55.650
2.39 --undefined-- 58.989
2.40 --undefined-- 61.666
2.41 --undefined-- 63.491
2.42 171.734 64.236
2.43 159.217 63.511
2.44 148.491 61.346
2.45 139.255 60.878
2.46 157.874 64.683
2.47 157.040 67.650
2.48 151.288 68.798
2.49 144.732 68.761
2.50 140.450 68.189
2.51 136.756 67.371
2.52 131.682 66.447
2.53 129.724 65.721
2.54 130.065 65.504
2.55 131.661 65.747
2.56 132.636 66.102
2.57 132.056 66.328
2.58 130.474 66.328
2.59 127.724 66.436
2.60 128.811 66.962
2.61 129.098 67.579
2.62 128.728 68.016
2.63 128.396 68.260
2.64 128.846 68.358
2.65 130.151 68.363
2.66 131.100 68.373
2.67 132.517 68.456
2.68 132.997 68.597
2.69 133.427 68.711
2.70 134.201 68.785
2.71 135.020 68.810
2.72 136.001 68.764
2.73 136.553 68.704
2.74 135.961 68.641
2.75 133.747 68.296
2.76 129.496 66.998
2.77 --undefined-- 64.090
2.78 --undefined-- 59.917
2.79 --undefined-- 56.688
2.80 --undefined-- 54.517
2.81 --undefined-- 50.927
2.82 --undefined-- 47.334
2.83 --undefined-- 44.447
2.84 --undefined-- 41.209
2.85 --undefined-- 39.579
2.86 --undefined-- 37.420
2.87 --undefined-- 35.714
2.88 --undefined-- 35.115
2.89 --undefined-- 32.806
2.90 --undefined-- 31.764
2.91 --undefined-- 34.878
2.92 --undefined-- 37.287
2.93 --undefined-- 36.743
2.94 --undefined-- 34.431
2.95 --undefined-- 34.752
2.96 --undefined-- 36.381
2.97 --undefined-- 37.064
2.98 --undefined-- 36.821
2.99 --undefined-- 35.428
3.00 --undefined-- 35.096
3.01 --undefined-- 44.963
3.02 --undefined-- 57.201
3.03 211.742 64.791
3.04 203.156 69.035
3.05 204.665 71.376
3.06 208.865 72.972
3.07 214.875 74.358
3.08 221.864 75.567
3.09 225.397 76.306
3.10 227.273 76.247
3.11 226.888 75.033
3.12 214.649 72.469
3.13 210.931 68.836
3.14 224.304 64.184
3.15 233.627 57.724
3.16 --undefined-- 52.857
3.17 --undefined-- 57.776
3.18 --undefined-- 66.170
3.19 --undefined-- 71.606
3.20 286.595 73.748
3.21 286.089 73.902
3.22 286.219 73.658
3.23 285.541 73.735
3.24 282.932 74.490
3.25 276.334 75.889
3.26 273.001 77.026
3.27 270.160 77.660
3.28 270.765 78.155
3.29 273.722 78.571
3.30 274.889 78.740
3.31 272.692 78.580
3.32 268.323 77.841
3.33 262.797 76.011
3.34 256.017 72.507
3.35 253.126 66.857
3.36 256.398 59.052
3.37 --undefined-- 52.337
3.38 --undefined-- 60.711
3.39 --undefined-- 68.179
3.40 212.262 71.847
3.41 196.502 72.872
3.42 182.247 72.828
3.43 175.563 72.885
3.44 171.539 73.012
3.45 168.365 72.937
3.46 166.196 72.573
3.47 164.070 72.042
3.48 161.874 71.680
3.49 161.746 71.609
3.50 162.499 71.715
3.51 162.949 71.818
3.52 163.302 71.782
3.53 164.377 71.443
3.54 166.758 70.405
3.55 167.403 68.191
3.56 163.791 64.634
3.57 168.202 59.975
3.58 --undefined-- 53.793
3.59 --undefined-- 45.023
3.60 --undefined-- 37.811
3.61 --undefined-- 37.364
3.62 --undefined-- 40.665
3.63 --undefined-- 47.498
3.64 --undefined-- 57.443
3.65 229.823 66.119
3.66 220.322 71.212
3.67 204.636 73.244
3.68 192.109 73.281
3.69 188.978 72.699
3.70 188.323 72.467
3.71 187.358 72.712
3.72 189.135 73.189
3.73 191.116 73.679
3.74 192.776 74.048
3.75 193.470 74.139
3.76 192.612 73.622
3.77 190.157 71.910
3.78 188.241 68.229
3.79 --undefined-- 61.768
3.80 --undefined-- 51.855
3.81 --undefined-- 42.574
3.82 --undefined-- 41.824
3.83 --undefined-- 44.035
3.84 --undefined-- 49.947
3.85 --undefined-- 59.910
3.86 --undefined-- 66.770
3.87 193.642 70.219
3.88 172.747 71.566
3.89 163.470 72.085
3.90 159.731 72.169
3.91 158.028 71.827
3.92 156.428 71.089
3.93 154.595 69.524
3.94 152.268 66.360
3.95 126.128 61.593
3.96 130.365 56.644
3.97 --undefined-- 51.277
3.98 --undefined-- 43.681
3.99 --undefined-- 35.051
4.00 --undefined-- 32.038
4.01 --undefined-- 32.991
4.02 --undefined-- 37.439
4.03 --undefined-- 41.985
4.04 --undefined-- 42.990
4.05 --undefined-- 40.234
4.06 --undefined-- 36.249
4.07 --undefined-- 35.547
4.08 --undefined-- 35.605
4.09 --undefined-- 40.885
4.10 --undefined-- 49.345
4.11 --undefined-- 53.610
4.12 --undefined-- 54.233
4.13 --undefined-- 53.033
4.14 --undefined-- 52.262
4.15 --undefined-- 52.211
4.16 --undefined-- 52.476
4.17 --undefined-- 52.791
4.18 --undefined-- 53.420
4.19 --undefined-- 53.692
4.20 --undefined-- 53.116
4.21 --undefined-- 54.212
4.22 186.530 60.128
4.23 187.332 65.207
4.24 177.984 67.725
4.25 166.921 68.482
4.26 159.500 68.447
4.27 155.773 68.224
4.28 154.418 68.049
4.29 153.878 67.723
4.30 152.482 66.771
4.31 146.206 65.253
4.32 151.547 64.620
4.33 152.990 65.058
4.34 153.743 65.646
4.35 154.324 66.104
4.36 155.267 66.380
4.37 155.570 66.539
4.38 157.034 66.768
4.39 157.180 67.149
4.40 154.938 67.304
4.41 152.586 67.090
4.42 150.628 66.632
4.43 149.229 66.111
4.44 148.999 65.784
4.45 150.071 65.715
4.46 151.126 65.848
4.47 151.702 66.087
4.48 152.213 66.321
4.49 151.700 66.444
4.50 148.900 66.539
4.51 151.323 66.726
4.52 151.062 66.883
4.53 151.301 66.992
4.54 150.980 67.065
4.55 150.766 67.084
4.56 150.427 67.067
4.57 150.193 67.021
4.58 150.678 66.893
4.59 149.107 66.749
4.60 146.308 66.827
4.61 144.588 67.044
4.62 142.415 67.242
4.63 139.920 67.363
4.64 137.539 67.311
4.65 134.475 67.127
4.66 125.527 67.184
4.67 120.190 67.604
4.68 116.712 67.607
4.69 112.050 66.834
4.70 108.985 65.882
4.71 107.065 65.179
4.72 101.446 64.223
4.73 96.003 62.821
4.74 90.562 61.827
4.75 --undefined-- 61.454
4.76 --undefined-- 61.053
4.77 --undefined-- 60.765
4.78 --undefined-- 58.796
4.79 --undefined-- 56.453
4.80 --undefined-- 56.646
4.81 --undefined-- 54.462
4.82 --undefined-- 48.164
4.83 --undefined-- 39.091
4.84 --undefined-- 36.730
4.85 --undefined-- 37.987
4.86 --undefined-- 36.612
4.87 --undefined-- 33.263
4.88 --undefined-- 31.990
4.89 --undefined-- 34.179
4.90 --undefined-- 35.889
4.91 --undefined-- 36.435
4.92 --undefined-- 35.911
4.93 --undefined-- 34.125
4.94 --undefined-- 31.999
4.95 --undefined-- 30.589
4.96 --undefined-- 30.993
4.97 --undefined-- 32.028
4.98 --undefined-- 30.919
4.99 --undefined-- 29.345
5.00 --undefined-- 30.186
5.01 --undefined-- 30.909
5.02 --undefined-- 30.318
5.03 --undefined-- 30.094
5.04 --undefined-- 31.134
5.05 --undefined-- 32.407
5.06 --undefined-- 33.725
5.07 --undefined-- 34.551
5.08 --undefined-- 34.195
5.09 --undefined-- 32.380
5.10 --undefined-- 31.798
5.11 --undefined-- 33.896
5.12 --undefined-- 35.372
5.13 --undefined-- 34.489
5.14 --undefined-- 33.169
5.15 --undefined-- 43.463
5.16 --undefined-- 56.372
5.17 --undefined-- 64.928
5.18 200.917 69.903
5.19 196.904 72.392
5.20 193.373 73.904
5.21 192.138 75.078
5.22 190.801 75.911
5.23 190.710 76.424
5.24 190.706 76.684
5.25 190.428 76.767
5.26 190.253 76.721
5.27 190.011 76.488
5.28 189.589 76.062
5.29 189.453 75.530
5.30 189.970 74.948
5.31 191.173 74.381
5.32 191.896 74.075
5.33 191.866 74.519
5.34 196.038 75.416
5.35 196.165 75.863
5.36 196.014 75.845
5.37 195.519 75.636
5.38 194.978 75.141
5.39 193.285 73.907
5.40 189.923 71.334
5.41 186.374 66.682
5.42 --undefined-- 59.280
5.43 --undefined-- 48.205
5.44 --undefined-- 43.336
5.45 --undefined-- 53.882
5.46 --undefined-- 63.587
5.47 206.427 69.459
5.48 200.760 72.412
5.49 194.862 73.551
5.50 190.772 73.756
5.51 189.015 73.653
5.52 188.193 73.387
5.53 186.468 72.368
5.54 183.315 70.398
5.55 186.095 69.467
5.56 188.358 70.753
5.57 188.718 72.023
5.58 189.020 72.583
5.59 188.711 72.744
5.60 188.011 72.800
5.61 184.103 72.894
5.62 181.750 73.022
5.63 180.083 73.225
5.64 178.091 73.436
5.65 176.725 73.537
5.66 175.805 73.441
5.67 175.463 73.164
5.68 175.431 72.869
5.69 175.813 72.722
5.70 176.707 72.658
5.71 177.626 72.456
5.72 178.840 71.877
5.73 181.179 70.707
5.74 184.589 69.048
5.75 188.277 67.489
5.76 186.289 65.829
5.77 185.755 62.892
5.78 189.464 57.634
5.79 --undefined-- 49.289
5.80 --undefined-- 42.969
5.81 --undefined-- 48.426
5.82 --undefined-- 52.273
5.83 --undefined-- 53.526
5.84 --undefined-- 53.802
5.85 --undefined-- 54.759
5.86 --undefined-- 54.957
5.87 --undefined-- 54.672
5.88 --undefined-- 61.030
5.89 194.692 67.606
5.90 190.596 70.927
5.91 181.801 71.840
5.92 163.112 71.502
5.93 152.159 70.862
5.94 147.049 --undefined--
5.95 145.433 --undefined--
5.96 --undefined-- --undefined--
5.97 --undefined-- --undefined--
