Time Pitch Intensity
0.01 --undefined-- --undefined--
0.02 169.322 --undefined--
0.03 170.253 --undefined--
0.04 169.316 --undefined--
0.05 170.718 50.218
0.06 --undefined-- 46.832
0.07 --undefined-- 44.728
0.08 --undefined-- 44.853
0.09 --undefined-- 45.017
0.10 --undefined-- 43.824
0.11 --undefined-- 41.359
0.12 --undefined-- 38.101
0.13 --undefined-- 38.250
0.14 --undefined-- 40.793
0.15 --undefined-- 41.758
0.16 --undefined-- 40.646
0.17 --undefined-- 38.192
0.18 --undefined-- 36.676
0.19 --undefined-- 38.808
0.20 --undefined-- 45.827
0.21 --undefined-- 55.206
0.22 --undefined-- 61.495
0.23 --undefined-- 67.073
0.24 222.178 72.118
0.25 206.441 74.753
0.26 200.092 75.702
0.27 197.501 76.093
0.28 194.674 75.758
0.29 191.375 74.651
0.30 188.451 73.803
0.31 186.670 73.613
0.32 185.518 73.621
0.33 185.166 73.691
0.34 185.930 73.663
0.35 187.332 73.555
0.36 188.540 73.516
0.37 190.001 73.410
0.38 191.344 73.158
0.39 192.176 73.032
0.40 192.782 72.801
0.41 192.006 71.586
0.42 190.375 68.616
0.43 189.270 63.487
0.44 --undefined-- 56.282
0.45 --undefined-- 50.883
0.46 --undefined-- 50.464
0.47 --undefined-- 52.085
0.48 --undefined-- 58.765
0.49 --undefined-- 65.187
0.50 --undefined-- 68.885
0.51 --undefined-- 70.969
0.52 149.044 72.629
0.53 149.940 73.854
0.54 157.027 74.242
0.55 162.684 73.960
0.56 170.756 73.319
0.57 193.445 72.770
0.58 211.717 72.562
0.59 229.311 71.319
0.60 237.984 67.538
0.61 247.393 60.615
0.62 235.185 53.820
0.63 --undefined-- 53.141
0.64 --undefined-- 55.337
0.65 --undefined-- 59.855
0.66 263.715 66.627
0.67 248.620 71.817
0.68 242.097 74.508
0.69 235.001 75.561
0.70 227.763 75.558
0.71 224.496 74.690
0.72 225.182 73.338
0.73 226.672 72.176
0.74 224.380 71.401
0.75 218.397 70.799
0.76 218.378 70.213
0.77 209.590 69.690
0.78 186.835 69.187
0.79 186.766 68.766
0.80 190.497 69.315
0.81 186.636 70.406
0.82 173.696 70.719
0.83 154.716 70.131
0.84 149.696 68.974
0.85 144.395 67.747
0.86 142.900 67.133
0.87 142.485 66.960
0.88 145.463 67.097
0.89 151.241 67.592
0.90 153.558 68.096
0.91 153.067 68.265
0.92 153.718 68.088
0.93 150.659 67.321
0.94 144.848 65.296
0.95 142.363 61.371
0.96 --undefined-- 58.445
0.97 --undefined-- 65.042
0.98 198.878 70.139
0.99 189.348 72.213
1.00 177.925 72.138
1.01 174.133 70.795
1.02 175.962 69.343
1.03 176.858 69.119
1.04 180.743 69.748
1.05 175.789 70.466
1.06 172.010 70.920
1.07 166.286 71.060
1.08 164.388 71.184
1.09 164.485 71.369
1.10 164.824 71.638
1.11 165.915 72.287
1.12 166.213 73.406
1.13 163.972 74.408
1.14 161.014 74.875
1.15 158.729 74.810
1.16 158.494 74.437
1.17 163.377 74.192
1.18 168.050 74.344
1.19 170.374 74.470
1.20 174.929 74.053
1.21 178.315 73.323
1.22 179.987 72.902
1.23 180.954 72.864
1.24 185.038 73.070
1.25 187.400 73.260
1.26 189.643 73.411
1.27 190.909 73.612
1.28 191.304 73.822
1.29 191.180 74.088
1.30 191.277 74.536
1.31 186.669 74.915
1.32 183.578 74.904
1.33 179.886 74.619
1.34 175.606 74.318
1.35 172.772 74.109
1.36 170.434 73.672
1.37 168.376 72.820
1.38 169.260 72.071
1.39 173.043 71.544
1.40 176.158 71.072
1.41 180.417 71.146
1.42 185.564 72.042
1.43 192.427 73.387
1.44 207.269 74.870
1.45 212.171 75.911
1.46 217.019 76.127
1.47 219.401 75.767
1.48 220.503 75.149
1.49 220.575 74.130
1.50 225.600 72.092
1.51 233.718 68.385
1.52 230.451 62.417
1.53 --undefined-- 54.800
1.54 --undefined-- 50.999
1.55 --undefined-- 51.547
1.56 --undefined-- 52.231
1.57 --undefined-- 52.360
1.58 --undefined-- 52.057
1.59 --undefined-- 51.812
1.60 --undefined-- 51.863
1.61 --undefined-- 52.100
1.62 --undefined-- 51.790
1.63 --undefined-- 50.827
1.64 --undefined-- 50.669
1.65 --undefined-- 51.403
1.66 --undefined-- 51.736
1.67 --undefined-- 51.349
1.68 --undefined-- 51.003
1.69 --undefined-- 51.297
1.70 --undefined-- 52.128
1.71 --undefined-- 53.341
1.72 --undefined-- 54.042
1.73 --undefined-- 53.762
1.74 --undefined-- 53.156
1.75 --undefined-- 52.504
1.76 --undefined-- 52.175
1.77 --undefined-- 52.046
1.78 --undefined-- 51.082
1.79 --undefined-- 50.050
1.80 --undefined-- 49.537
1.81 --undefined-- 48.562
1.82 --undefined-- 47.045
1.83 --undefined-- 45.203
1.84 --undefined-- 44.545
1.85 --undefined-- 44.631
1.86 --undefined-- 43.794
1.87 --undefined-- 44.391
1.88 --undefined-- 51.043
1.89 --undefined-- 57.860
1.90 252.152 63.471
1.91 240.471 67.820
1.92 239.339 70.602
1.93 245.840 72.431
1.94 255.568 74.194
1.95 261.170 75.788
1.96 265.055 76.472
1.97 268.148 76.419
1.98 271.165 76.345
1.99 273.708 76.429
2.00 275.160 76.506
2.01 276.184 76.516
2.02 276.945 76.471
2.03 277.760 76.367
2.04 278.939 76.129
2.05 280.729 75.665
2.06 282.572 75.068
2.07 283.059 74.559
2.08 283.593 74.145
2.09 284.197 73.751
2.10 285.230 73.392
2.11 285.895 73.104
2.12 286.376 72.903
2.13 286.879 72.763
2.14 286.806 72.549
2.15 284.595 72.218
2.16 281.558 72.072
2.17 280.563 72.187
2.18 277.423 72.256
2.19 273.720 71.619
2.20 262.323 69.472
2.21 237.260 65.700
2.22 231.193 60.673
2.23 257.362 54.808
2.24 --undefined-- 50.315
2.25 --undefined-- 48.183
2.26 --undefined-- 47.964
2.27 --undefined-- 48.989
2.28 --undefined-- 56.451
2.29 --undefined-- 66.297
2.30 155.488 72.652
2.31 153.373 75.840
2.32 151.917 76.639
2.33 299.723 76.061
2.34 297.633 75.296
2.35 297.284 74.879
2.36 296.928 74.624
2.37 295.655 74.375
2.38 293.924 74.204
2.39 291.643 73.980
2.40 289.969 73.514
2.41 288.200 72.942
2.42 287.133 72.559
2.43 288.426 72.469
2.44 289.881 72.456
2.45 290.043 72.240
2.46 288.983 71.718
2.47 289.236 71.148
2.48 288.470 70.823
2.49 287.941 70.805
2.50 287.960 71.099
2.51 291.504 71.965
2.52 296.127 73.344
2.53 296.083 74.350
2.54 295.571 74.688
2.55 295.463 74.773
2.56 295.212 74.844
2.57 293.487 74.573
2.58 287.960 73.173
2.59 275.906 70.064
2.60 262.124 65.330
2.61 251.308 59.404
2.62 --undefined-- 52.710
2.63 --undefined-- 49.723
2.64 --undefined-- 57.427
2.65 --undefined-- 66.492
2.66 248.688 71.861
2.67 234.494 74.331
2.68 218.353 75.346
2.69 206.661 75.953
2.70 197.754 76.218
2.71 189.637 76.194
2.72 183.585 75.947
2.73 179.470 75.337
2.74 176.956 74.683
2.75 173.497 74.556
2.76 170.514 74.471
2.77 168.790 74.137
2.78 167.931 74.148
2.79 166.107 74.415
2.80 162.115 74.635
2.81 161.739 74.824
2.82 164.064 74.955
2.83 167.265 75.070
2.84 171.007 74.933
2.85 175.545 74.395
2.86 180.612 73.966
2.87 184.190 74.058
2.88 185.845 74.264
2.89 185.117 74.062
2.90 183.628 73.476
2.91 183.968 72.985
2.92 183.106 72.796
2.93 181.171 72.842
2.94 179.010 73.061
2.95 177.385 73.354
2.96 175.273 73.621
2.97 172.410 73.942
2.98 169.624 74.293
2.99 167.544 74.522
3.00 166.571 74.656
3.01 160.767 74.620
3.02 155.351 74.302
3.03 151.710 73.757
3.04 148.141 73.102
3.05 145.804 72.554
3.06 144.028 72.259
3.07 141.940 71.920
3.08 139.888 71.415
3.09 138.980 70.869
3.10 140.571 70.379
3.11 142.260 70.090
3.12 143.830 69.822
3.13 145.740 69.366
3.14 147.976 69.129
3.15 150.515 69.161
3.16 153.913 69.041
3.17 157.178 68.905
3.18 160.100 68.897
3.19 163.567 68.844
3.20 167.489 68.865
3.21 170.747 68.792
3.22 175.063 68.602
3.23 178.896 68.760
3.24 180.707 69.209
3.25 181.141 69.217
3.26 180.931 68.086
3.27 183.451 65.116
3.28 184.545 59.747
3.29 --undefined-- 53.602
3.30 --undefined-- 57.810
3.31 --undefined-- 65.268
3.32 --undefined-- 71.088
3.33 196.432 74.246
3.34 192.931 75.313
3.35 186.947 75.532
3.36 179.671 75.627
3.37 174.161 75.752
3.38 170.111 75.829
3.39 167.942 75.676
3.40 166.201 75.296
3.41 166.450 74.656
3.42 167.668 73.750
3.43 168.681 72.758
3.44 168.468 71.801
3.45 168.202 70.942
3.46 167.099 69.824
3.47 163.292 67.836
3.48 162.163 64.617
3.49 167.365 60.341
3.50 156.965 55.497
3.51 --undefined-- 51.585
3.52 --undefined-- 50.153
3.53 --undefined-- 52.559
3.54 --undefined-- 57.477
3.55 --undefined-- 63.640
3.56 189.775 69.269
3.57 175.908 72.532
3.58 173.057 73.737
3.59 170.097 73.963
3.60 168.018 74.214
3.61 167.276 74.599
3.62 166.597 74.902
3.63 166.373 75.091
3.64 166.513 75.150
3.65 166.859 75.094
3.66 166.591 75.028
3.67 165.649 75.035
3.68 164.804 74.956
3.69 162.752 74.181
3.70 161.935 72.309
3.71 160.833 70.369
3.72 158.293 69.524
3.73 151.909 69.069
3.74 138.871 69.277
3.75 131.769 70.378
3.76 122.660 71.680
3.77 117.888 72.804
3.78 114.899 73.537
3.79 104.078 73.796
3.80 106.799 73.425
3.81 126.424 73.001
3.82 110.923 72.830
3.83 109.114 72.287
3.84 99.457 70.691
3.85 101.289 68.001
3.86 107.349 65.802
3.87 --undefined-- 65.286
3.88 --undefined-- 65.347
3.89 --undefined-- 65.702
3.90 145.947 66.372
3.91 149.006 66.659
3.92 149.019 65.748
3.93 157.150 63.346
3.94 152.077 59.212
3.95 163.762 56.589
3.96 --undefined-- 61.664
3.97 --undefined-- 67.846
3.98 183.565 72.148
3.99 182.486 74.313
4.00 181.098 75.081
4.01 180.764 75.319
4.02 180.862 75.398
4.03 181.178 75.378
4.04 182.163 75.296
4.05 184.564 74.980
4.06 189.571 74.397
4.07 196.774 73.728
4.08 207.806 72.869
4.09 215.496 71.493
4.10 220.743 69.446
4.11 220.210 67.144
4.12 217.587 65.248
4.13 218.943 64.284
4.14 208.296 64.146
4.15 210.895 64.709
4.16 221.867 66.243
4.17 226.175 68.269
4.18 227.375 70.295
4.19 222.656 71.787
4.20 217.231 72.675
4.21 212.293 73.155
4.22 208.398 73.295
4.23 207.945 72.981
4.24 207.714 72.440
4.25 206.695 72.186
4.26 206.752 72.178
4.27 206.361 72.127
4.28 205.262 71.916
4.29 203.607 71.465
4.30 201.368 70.734
4.31 198.748 69.473
4.32 196.585 67.223
4.33 196.608 63.493
4.34 200.815 59.226
4.35 --undefined-- 59.503
4.36 --undefined-- 61.734
4.37 232.260 65.413
4.38 210.941 70.454
4.39 209.295 74.100
4.40 210.090 75.718
4.41 208.560 75.820
4.42 205.793 75.277
4.43 204.242 74.716
4.44 203.124 74.066
4.45 202.603 72.932
4.46 201.602 71.755
4.47 203.620 71.476
4.48 205.485 71.699
4.49 205.983 71.805
4.50 205.935 71.732
4.51 205.907 71.494
4.52 205.896 71.080
4.53 206.388 70.482
4.54 206.814 69.646
4.55 206.355 68.367
4.56 208.128 66.240
4.57 212.825 62.832
4.58 --undefined-- 57.523
4.59 --undefined-- 51.738
4.60 --undefined-- 50.513
4.61 --undefined-- 51.026
4.62 --undefined-- 53.100
4.63 --undefined-- 57.458
4.64 --undefined-- 61.026
4.65 --undefined-- 62.240
4.66 --undefined-- 62.096
4.67 --undefined-- 61.810
4.68 --undefined-- 62.422
4.69 248.338 67.175
4.70 251.396 71.917
4.71 251.121 74.999
4.72 247.927 76.887
4.73 243.313 77.633
4.74 238.534 77.337
4.75 233.649 76.554
4.76 230.289 76.083
4.77 230.760 76.017
4.78 232.012 75.626
4.79 234.060 74.541
4.80 234.992 73.023
4.81 235.237 71.506
4.82 236.057 69.840
4.83 234.123 66.868
4.84 224.930 61.751
4.85 230.420 55.009
4.86 --undefined-- 49.802
4.87 --undefined-- 49.783
4.88 --undefined-- 57.316
4.89 --undefined-- 63.232
4.90 --undefined-- 65.955
4.91 --undefined-- 67.732
4.92 265.109 70.736
4.93 271.042 73.079
4.94 266.918 74.236
4.95 259.397 75.043
4.96 250.148 75.190
4.97 242.618 73.543
4.98 236.543 69.185
4.99 238.725 61.693
5.00 239.906 53.677
5.01 --undefined-- 50.245
5.02 --undefined-- 47.543
5.03 --undefined-- 45.245
5.04 --undefined-- 45.009
5.05 --undefined-- 44.894
5.06 --undefined-- 43.369
5.07 --undefined-- 41.771
5.08 --undefined-- 41.087
5.09 --undefined-- 40.726
5.10 --undefined-- 40.956
5.11 --undefined-- 41.092
5.12 --undefined-- 41.844
5.13 --undefined-- 44.266
5.14 --undefined-- 53.772
5.15 --undefined-- 64.116
5.16 --undefined-- 70.896
5.17 --undefined-- 74.242
5.18 --undefined-- 74.692
5.19 --undefined-- 72.808
5.20 --undefined-- 69.808
5.21 --undefined-- 66.749
5.22 --undefined-- 64.243
5.23 --undefined-- 63.833
5.24 --undefined-- 64.361
5.25 --undefined-- 65.124
5.26 --undefined-- --undefined--
5.27 --undefined-- --undefined--
5.28 --undefined-- --undefined--
5.29 --undefined-- --undefined--
