Time Pitch Intensity
0.01 --undefined-- --undefined--
0.02 115.472 --undefined--
0.03 119.697 --undefined--
0.04 119.239 --undefined--
0.05 119.867 67.395
0.06 125.224 66.403
0.07 128.611 66.007
0.08 132.132 66.663
0.09 137.169 68.605
0.10 136.931 70.804
0.11 135.659 72.022
0.12 131.112 72.094
0.13 125.306 71.166
0.14 129.046 69.565
0.15 130.412 68.188
0.16 128.332 67.320
0.17 127.616 66.490
0.18 125.319 65.998
0.19 122.997 66.145
0.20 120.462 66.666
0.21 113.628 67.139
0.22 103.715 67.357
0.23 96.467 67.007
0.24 91.721 66.077
0.25 89.405 65.086
0.26 88.692 64.059
0.27 88.261 62.887
0.28 86.762 61.909
0.29 87.351 61.549
0.30 88.315 61.895
0.31 88.806 62.067
0.32 88.282 61.033
0.33 86.901 58.586
0.34 --undefined-- 55.617
0.35 --undefined-- 53.149
0.36 --undefined-- 52.402
0.37 --undefined-- 55.337
0.38 --undefined-- 59.913
0.39 --undefined-- 64.997
0.40 103.879 68.311
0.41 105.963 70.046
0.42 110.754 71.215
0.43 114.311 72.341
0.44 119.034 73.308
0.45 124.824 74.090
0.46 127.014 74.827
0.47 126.715 75.300
0.48 125.668 75.335
0.49 127.386 75.231
0.50 127.443 75.209
0.51 125.794 75.227
0.52 123.551 75.568
0.53 123.617 76.094
0.54 119.520 76.494
0.55 119.147 77.253
0.56 120.489 78.278
0.57 123.247 78.932
0.58 128.486 79.115
0.59 136.179 79.361
0.60 147.260 80.029
0.61 159.838 80.462
0.62 167.579 79.964
0.63 172.737 78.698
0.64 176.485 76.904
0.65 177.720 74.370
0.66 177.013 70.557
0.67 --undefined-- 64.348
0.68 --undefined-- 55.067
0.69 --undefined-- 47.458
0.70 --undefined-- 45.790
0.71 --undefined-- 45.912
0.72 --undefined-- 47.465
0.73 --undefined-- 48.029
0.74 --undefined-- 48.151
0.75 --undefined-- 49.100
0.76 --undefined-- 49.902
0.77 --undefined-- 50.144
0.78 --undefined-- 50.089
0.79 --undefined-- 49.425
0.80 --undefined-- 49.206
0.81 --undefined-- 49.164
0.82 --undefined-- 48.427
0.83 --undefined-- 47.548
0.84 --undefined-- 46.793
0.85 --undefined-- 46.001
0.86 --undefined-- 45.887
0.87 --undefined-- 46.386
0.88 --undefined-- 46.783
0.89 --undefined-- 46.494
0.90 --undefined-- 45.683
0.91 --undefined-- 44.920
0.92 --undefined-- 44.159
0.93 --undefined-- 42.589
0.94 --undefined-- 40.548
0.95 --undefined-- 39.021
0.96 --undefined-- 40.697
0.97 --undefined-- 45.034
0.98 --undefined-- 51.025
0.99 --undefined-- 59.952
1.00 --undefined-- 66.724
1.01 --undefined-- 70.657
1.02 114.052 72.699
1.03 114.935 73.910
1.04 122.195 75.063
1.05 128.018 76.017
1.06 130.186 76.676
1.07 128.350 77.087
1.08 124.321 77.097
1.09 120.161 76.665
1.10 116.727 76.399
1.11 121.012 77.105
1.12 122.954 78.182
1.13 121.606 78.882
1.14 118.817 79.004
1.15 117.340 78.636
1.16 116.951 78.019
1.17 115.918 77.109
1.18 114.171 76.112
1.19 117.091 75.734
1.20 117.458 75.723
1.21 117.281 75.621
1.22 118.102 75.450
1.23 113.343 75.289
1.24 110.398 75.299
1.25 109.173 75.456
1.26 108.316 75.624
1.27 106.749 75.768
1.28 107.120 76.120
1.29 109.722 76.633
1.30 110.805 76.934
1.31 112.504 77.063
1.32 114.831 77.263
1.33 120.865 77.720
1.34 123.866 78.228
1.35 129.085 78.577
1.36 138.658 78.998
1.37 148.086 79.700
1.38 154.361 80.408
1.39 159.879 80.508
1.40 162.493 79.680
1.41 168.094 78.287
1.42 164.855 77.092
1.43 159.841 76.457
1.44 151.317 76.103
1.45 144.049 76.116
1.46 135.000 76.832
1.47 125.556 77.595
1.48 118.264 77.629
1.49 111.078 76.974
1.50 108.226 76.209
1.51 106.538 75.468
1.52 105.885 74.621
1.53 105.960 73.762
1.54 108.809 72.949
1.55 113.731 72.120
1.56 119.787 71.166
1.57 132.844 70.454
1.58 143.345 71.062
1.59 153.211 73.237
1.60 164.572 76.161
1.61 169.994 78.684
1.62 172.084 80.070
1.63 173.771 80.509
1.64 174.826 80.327
1.65 179.490 79.834
1.66 182.397 79.303
1.67 181.906 78.869
1.68 182.071 78.651
1.69 179.859 78.426
1.70 173.564 77.548
1.71 165.308 75.635
1.72 153.177 72.977
1.73 148.815 70.095
1.74 151.120 67.753
1.75 178.911 69.466
1.76 176.833 72.752
1.77 178.503 75.495
1.78 168.717 77.571
1.79 156.960 78.548
1.80 152.077 78.345
1.81 149.092 77.509
1.82 146.048 76.632
1.83 142.735 75.629
1.84 140.290 74.162
1.85 140.622 72.560
1.86 141.491 71.586
1.87 142.803 71.262
1.88 144.007 72.021
1.89 155.733 74.385
1.90 161.962 77.605
1.91 169.936 80.563
1.92 171.541 82.744
1.93 173.396 84.219
1.94 179.819 85.036
1.95 185.824 84.719
1.96 188.303 82.554
1.97 186.182 77.906
1.98 183.088 71.021
1.99 179.425 64.442
2.00 176.748 58.142
2.01 --undefined-- 51.886
2.02 --undefined-- 48.827
2.03 --undefined-- 49.030
2.04 --undefined-- 49.315
2.05 --undefined-- 48.738
2.06 --undefined-- 49.362
2.07 --undefined-- 52.154
2.08 --undefined-- 53.074
2.09 --undefined-- 51.103
2.10 --undefined-- 50.451
2.11 --undefined-- 54.876
2.12 --undefined-- 58.776
2.13 --undefined-- 60.385
2.14 --undefined-- 65.091
2.15 --undefined-- 72.038
2.16 114.340 76.101
2.17 107.657 77.802
2.18 107.898 78.284
2.19 108.153 78.261
2.20 112.614 77.962
2.21 116.875 77.252
2.22 116.009 75.474
2.23 111.034 71.988
2.24 112.268 67.028
2.25 --undefined-- 64.906
2.26 226.578 70.711
2.27 210.418 75.764
2.28 199.163 78.190
2.29 202.582 79.056
2.30 207.788 79.415
2.31 213.265 79.625
2.32 218.493 79.803
2.33 221.970 79.856
2.34 223.939 79.634
2.35 224.804 79.156
2.36 224.088 78.602
2.37 220.701 78.101
2.38 215.071 77.402
2.39 207.483 75.601
2.40 200.238 71.710
2.41 200.086 65.063
2.42 --undefined-- 56.252
2.43 --undefined-- 52.133
2.44 --undefined-- 51.964
2.45 --undefined-- 51.051
2.46 --undefined-- 51.939
2.47 288.290 55.955
2.48 295.437 58.447
2.49 288.785 63.940
2.50 270.763 72.593
2.51 245.237 78.101
2.52 225.212 80.657
2.53 208.799 81.208
2.54 202.470 80.641
2.55 198.120 79.645
2.56 197.361 78.873
2.57 197.080 78.444
2.58 198.556 78.115
2.59 200.218 77.896
2.60 201.383 77.799
2.61 201.626 77.834
2.62 202.450 78.139
2.63 204.197 78.798
2.64 205.508 78.984
2.65 206.733 78.021
2.66 211.206 77.314
2.67 211.813 77.732
2.68 211.502 78.180
2.69 211.249 78.455
2.70 210.352 78.594
2.71 208.733 78.573
2.72 205.687 78.298
2.73 201.302 77.688
2.74 195.452 76.566
2.75 186.381 74.656
2.76 174.607 72.021
2.77 162.203 69.554
2.78 --undefined-- 68.690
2.79 209.368 71.343
2.80 203.046 76.273
2.81 203.131 80.392
2.82 157.993 82.472
2.83 150.514 82.479
2.84 134.458 81.486
2.85 128.515 80.882
2.86 124.558 80.819
2.87 123.069 80.832
2.88 123.612 80.714
2.89 121.879 80.310
2.90 120.746 79.630
2.91 119.958 78.868
2.92 121.579 78.289
2.93 122.492 77.944
2.94 129.828 77.634
2.95 131.134 76.740
2.96 128.444 74.540
2.97 131.098 70.980
2.98 130.957 66.716
2.99 127.500 61.722
3.00 --undefined-- 54.990
3.01 --undefined-- 47.759
3.02 --undefined-- 43.698
3.03 --undefined-- 42.801
3.04 --undefined-- 47.834
3.05 --undefined-- 55.030
3.06 --undefined-- 61.239
3.07 --undefined-- 66.816
3.08 --undefined-- 73.094
3.09 185.376 78.227
3.10 171.918 81.051
3.11 157.317 81.797
3.12 131.850 80.848
3.13 127.508 79.163
3.14 129.081 78.351
3.15 129.389 78.485
3.16 127.429 78.643
3.17 124.467 78.583
3.18 123.226 78.342
3.19 123.620 77.988
3.20 125.323 77.641
3.21 127.240 77.395
3.22 128.342 77.304
3.23 129.743 77.279
3.24 131.651 77.220
3.25 132.131 77.161
3.26 132.051 77.088
3.27 132.046 76.929
3.28 132.596 76.722
3.29 132.432 76.517
3.30 132.716 76.303
3.31 132.888 76.102
3.32 133.651 75.962
3.33 134.586 75.906
3.34 135.260 75.977
3.35 134.655 76.174
3.36 134.126 76.414
3.37 133.278 76.591
3.38 132.395 76.676
3.39 132.248 76.833
3.40 134.644 77.276
3.41 136.761 77.941
3.42 136.771 78.446
3.43 135.922 78.654
3.44 136.106 78.859
3.45 136.271 79.125
3.46 135.248 79.285
3.47 134.703 79.232
3.48 135.605 79.001
3.49 135.456 78.787
3.50 135.511 78.680
3.51 135.687 78.636
3.52 135.510 78.632
3.53 134.444 78.609
3.54 132.889 78.415
3.55 130.554 77.832
3.56 126.081 76.508
3.57 122.375 74.192
3.58 124.002 71.202
3.59 124.466 68.444
3.60 122.992 65.976
3.61 125.205 62.468
3.62 --undefined-- 56.505
3.63 --undefined-- 48.322
3.64 --undefined-- 45.048
3.65 --undefined-- 45.502
3.66 --undefined-- 45.537
3.67 --undefined-- 45.284
3.68 --undefined-- 46.083
3.69 --undefined-- 47.057
3.70 --undefined-- 46.677
3.71 --undefined-- 47.754
3.72 --undefined-- 49.940
3.73 --undefined-- 50.127
3.74 --undefined-- 49.257
3.75 --undefined-- 50.369
3.76 --undefined-- 53.547
3.77 --undefined-- 56.125
3.78 --undefined-- 57.557
3.79 81.467 58.895
3.80 91.093 60.458
3.81 89.518 62.101
3.82 92.174 64.310
3.83 --undefined-- 68.070
3.84 --undefined-- 74.830
3.85 --undefined-- 80.028
3.86 --undefined-- 82.396
3.87 132.053 82.843
3.88 129.690 82.449
3.89 130.641 81.780
3.90 130.434 80.892
3.91 129.195 79.430
3.92 126.089 76.947
3.93 124.366 73.315
3.94 120.676 68.840
3.95 --undefined-- 63.376
3.96 --undefined-- 59.629
3.97 --undefined-- 66.738
3.98 --undefined-- 73.133
3.99 134.377 76.668
4.00 125.884 78.180
4.01 123.728 78.826
4.02 119.794 79.219
4.03 118.849 79.297
4.04 118.373 79.138
4.05 118.714 79.024
4.06 117.918 78.975
4.07 118.114 78.844
4.08 119.098 78.669
4.09 119.941 78.449
4.10 121.168 78.243
4.11 122.647 78.107
4.12 124.292 78.017
4.13 126.854 78.002
4.14 130.247 77.932
4.15 130.725 77.605
4.16 135.184 77.287
4.17 144.107 77.048
4.18 150.677 77.067
4.19 154.371 77.470
4.20 158.207 77.928
4.21 164.286 78.216
4.22 170.720 78.152
4.23 177.220 77.872
4.24 181.948 77.739
4.25 183.782 77.799
4.26 184.091 77.729
4.27 185.239 77.422
4.28 186.596 76.976
4.29 186.909 76.232
4.30 182.617 74.683
4.31 173.691 71.847
4.32 169.233 68.005
4.33 177.122 64.367
4.34 204.780 61.544
4.35 --undefined-- 57.417
4.36 --undefined-- 56.080
4.37 --undefined-- 64.397
4.38 --undefined-- 72.418
4.39 237.707 77.755
4.40 233.886 80.352
4.41 229.226 81.453
4.42 212.396 81.661
4.43 203.156 81.059
4.44 202.101 80.650
4.45 201.095 80.661
4.46 199.055 80.521
4.47 197.062 80.056
4.48 194.061 79.227
4.49 188.661 78.235
4.50 182.539 77.562
4.51 174.667 77.351
4.52 165.431 77.453
4.53 155.868 77.858
4.54 140.462 78.319
4.55 132.058 78.247
4.56 121.132 77.432
4.57 113.040 76.158
4.58 106.714 74.960
4.59 103.545 74.158
4.60 101.583 73.464
4.61 100.600 72.707
4.62 100.203 72.055
4.63 100.761 71.746
4.64 100.805 71.788
4.65 100.541 72.097
4.66 102.575 72.680
4.67 104.684 73.205
4.68 105.054 73.260
4.69 105.773 72.579
4.70 105.678 70.831
4.71 104.568 67.765
4.72 108.453 64.235
4.73 121.253 61.519
4.74 --undefined-- 57.984
4.75 --undefined-- 55.075
4.76 --undefined-- 59.052
4.77 --undefined-- 63.074
4.78 --undefined-- 65.471
4.79 --undefined-- 68.016
4.80 --undefined-- 69.264
4.81 --undefined-- 68.852
4.82 160.347 72.973
4.83 155.433 77.269
4.84 134.233 78.397
4.85 121.888 77.183
4.86 124.723 75.941
4.87 132.066 76.505
4.88 133.415 77.884
4.89 132.386 79.031
4.90 131.309 79.675
4.91 129.766 79.874
4.92 128.205 79.817
4.93 128.098 79.745
4.94 129.083 79.734
4.95 130.362 79.737
4.96 131.515 79.702
4.97 131.253 79.651
4.98 131.553 79.582
4.99 133.452 79.355
5.00 133.457 78.662
5.01 134.400 77.054
5.02 137.890 74.416
5.03 133.230 71.104
5.04 128.960 67.226
5.05 129.185 62.341
5.06 --undefined-- 55.938
5.07 --undefined-- 50.795
5.08 --undefined-- 50.292
5.09 --undefined-- 50.722
5.10 --undefined-- 50.653
5.11 --undefined-- 50.328
5.12 --undefined-- 50.680
5.13 --undefined-- 53.484
5.14 --undefined-- 58.091
5.15 --undefined-- 65.259
5.16 207.988 72.699
5.17 196.707 --undefined--
5.18 188.254 --undefined--
5.19 --undefined-- --undefined--
5.20 --undefined-- --undefined--
