Time Pitch Intensity
0.01 --undefined-- --undefined--
0.02 131.829 --undefined--
0.03 129.810 --undefined--
0.04 133.107 --undefined--
0.05 136.143 74.175
0.06 136.317 72.772
0.07 150.399 72.124
0.08 153.812 72.970
0.09 156.883 74.141
0.10 159.079 75.174
0.11 160.550 75.944
0.12 162.670 76.168
0.13 158.358 75.641
0.14 149.081 74.170
0.15 141.403 71.836
0.16 133.172 69.237
0.17 128.628 68.824
0.18 132.488 71.734
0.19 131.427 74.029
0.20 126.513 74.611
0.21 119.326 74.140
0.22 116.773 73.499
0.23 112.743 72.848
0.24 109.709 72.328
0.25 107.803 72.141
0.26 111.550 72.279
0.27 110.684 72.510
0.28 109.742 72.856
0.29 109.180 73.456
0.30 111.114 74.366
0.31 115.355 75.072
0.32 107.994 75.222
0.33 106.854 75.186
0.34 106.345 75.157
0.35 106.726 75.157
0.36 107.338 75.200
0.37 106.943 74.914
0.38 105.802 73.578
0.39 91.079 70.547
0.40 93.842 66.523
0.41 95.891 63.472
0.42 99.614 63.936
0.43 116.585 68.940
0.44 106.881 72.766
0.45 106.871 74.472
0.46 107.519 75.073
0.47 111.636 75.461
0.48 117.103 75.783
0.49 125.653 76.028
0.50 133.672 76.298
0.51 138.695 76.454
0.52 139.415 75.970
0.53 --undefined-- 73.993
0.54 --undefined-- 70.574
0.55 --undefined-- 67.798
0.56 --undefined-- 65.830
0.57 --undefined-- 62.188
0.58 --undefined-- 59.410
0.59 --undefined-- 65.890
0.60 --undefined-- 69.761
0.61 82.316 70.762
0.62 85.342 71.237
0.63 105.390 72.041
0.64 106.093 72.871
0.65 111.414 73.599
0.66 112.349 73.865
0.67 111.845 73.668
0.68 111.520 73.250
0.69 111.154 72.885
0.70 111.290 72.739
0.71 111.164 72.740
0.72 111.136 72.781
0.73 111.460 72.776
0.74 111.947 72.805
0.75 112.173 72.916
0.76 112.209 72.722
0.77 111.617 71.364
0.78 106.142 68.228
0.79 114.331 64.234
0.80 121.602 60.786
0.81 126.838 56.937
0.82 --undefined-- 54.185
0.83 --undefined-- 58.662
0.84 --undefined-- 67.442
0.85 --undefined-- 73.271
0.86 143.176 75.872
0.87 133.996 76.165
0.88 128.717 75.576
0.89 126.558 75.377
0.90 125.328 75.531
0.91 124.447 75.726
0.92 123.298 75.923
0.93 121.727 75.518
0.94 120.262 73.636
0.95 114.212 69.958
0.96 113.922 65.356
0.97 110.479 61.938
0.98 109.047 61.738
0.99 122.138 66.532
1.00 119.296 71.437
1.01 117.261 74.008
1.02 111.008 74.653
1.03 106.931 74.507
1.04 105.064 74.153
1.05 102.944 72.854
1.06 90.035 69.511
1.07 93.588 64.263
1.08 99.657 59.728
1.09 104.740 58.480
1.10 --undefined-- 65.039
1.11 --undefined-- 70.610
1.12 --undefined-- 73.078
1.13 106.631 73.197
1.14 92.556 71.652
1.15 92.911 68.910
1.16 91.974 64.984
1.17 91.990 59.586
1.18 --undefined-- 53.476
1.19 --undefined-- 48.250
1.20 --undefined-- 44.979
1.21 --undefined-- 44.371
1.22 --undefined-- 46.144
1.23 --undefined-- 50.447
1.24 --undefined-- 55.117
1.25 --undefined-- 58.827
1.26 --undefined-- 63.758
1.27 --undefined-- 69.027
1.28 --undefined-- 71.729
1.29 102.743 72.047
1.30 100.292 71.370
1.31 100.243 71.007
1.32 101.511 71.291
1.33 103.171 71.616
1.34 106.191 71.810
1.35 109.788 72.188
1.36 113.133 72.802
1.37 115.619 73.161
1.38 117.717 72.712
1.39 120.530 71.119
1.40 118.753 68.206
1.41 115.556 64.188
1.42 117.523 60.360
1.43 118.616 61.433
1.44 133.326 67.484
1.45 119.028 71.942
1.46 114.663 73.989
1.47 107.897 74.310
1.48 102.046 74.096
1.49 98.598 74.102
1.50 96.926 74.153
1.51 96.830 73.865
1.52 97.229 73.289
1.53 98.171 72.846
1.54 99.200 72.679
1.55 99.359 72.606
1.56 99.188 72.340
1.57 99.203 71.070
1.58 89.148 67.973
1.59 90.516 63.506
1.60 86.970 59.197
1.61 83.312 57.742
1.62 --undefined-- 63.474
1.63 101.012 68.321
1.64 98.924 70.733
1.65 86.304 71.334
1.66 94.371 71.170
1.67 92.086 71.308
1.68 93.314 71.815
1.69 98.149 72.451
1.70 101.618 73.269
1.71 107.224 73.952
1.72 110.422 74.477
1.73 116.166 75.178
1.74 120.071 75.963
1.75 123.069 76.310
1.76 129.946 76.224
1.77 132.840 76.041
1.78 137.213 75.686
1.79 139.171 74.931
1.80 139.538 73.407
1.81 135.093 70.567
1.82 125.000 66.030
1.83 131.729 59.875
1.84 132.104 54.266
1.85 133.166 52.551
1.86 --undefined-- 52.857
1.87 --undefined-- 53.473
1.88 --undefined-- 53.307
1.89 --undefined-- 53.057
1.90 --undefined-- 53.339
1.91 --undefined-- 54.434
1.92 --undefined-- 55.809
1.93 --undefined-- 56.602
1.94 --undefined-- 56.550
1.95 --undefined-- 55.437
1.96 --undefined-- 53.708
1.97 --undefined-- 52.574
1.98 --undefined-- 51.754
1.99 --undefined-- 50.817
2.00 --undefined-- 49.930
2.01 --undefined-- 49.383
2.02 --undefined-- 48.799
2.03 --undefined-- 47.991
2.04 --undefined-- 47.326
2.05 --undefined-- 46.697
2.06 --undefined-- 46.479
2.07 --undefined-- 46.333
2.08 --undefined-- 45.328
2.09 --undefined-- 45.341
2.10 --undefined-- 52.747
2.11 --undefined-- 59.516
2.12 --undefined-- 63.628
2.13 --undefined-- 67.274
2.14 --undefined-- 72.654
2.15 179.850 76.486
2.16 179.188 77.742
2.17 178.710 77.280
2.18 169.532 75.859
2.19 --undefined-- 74.222
2.20 --undefined-- 72.466
2.21 --undefined-- 69.759
2.22 161.022 66.631
2.23 --undefined-- 64.061
2.24 --undefined-- 63.033
2.25 --undefined-- 63.552
2.26 --undefined-- 64.443
2.27 --undefined-- 65.974
2.28 123.910 68.872
2.29 123.474 72.181
2.30 121.033 74.225
2.31 117.229 74.736
2.32 113.514 74.770
2.33 111.937 74.851
2.34 109.631 74.678
2.35 108.094 74.413
2.36 107.735 74.159
2.37 107.259 73.984
2.38 106.719 73.907
2.39 103.704 73.495
2.40 105.725 72.274
2.41 101.035 69.893
2.42 96.967 66.543
2.43 104.708 63.631
2.44 109.776 61.499
2.45 115.999 58.611
2.46 --undefined-- 54.518
2.47 --undefined-- 51.410
2.48 --undefined-- 51.670
2.49 --undefined-- 52.661
2.50 --undefined-- 52.228
2.51 --undefined-- 58.114
2.52 --undefined-- 67.512
2.53 202.717 73.093
2.54 200.211 75.517
2.55 198.925 75.962
2.56 198.621 75.550
2.57 198.302 75.029
2.58 199.700 74.908
2.59 200.241 74.923
2.60 198.685 74.928
2.61 202.352 75.374
2.62 202.320 76.178
2.63 201.769 76.986
2.64 200.912 77.510
2.65 199.293 77.771
2.66 198.437 78.034
2.67 197.614 78.343
2.68 196.326 78.485
2.69 194.899 78.224
2.70 191.586 77.229
2.71 185.221 75.034
2.72 177.154 71.139
2.73 162.465 65.406
2.74 170.354 59.400
2.75 --undefined-- 54.818
2.76 --undefined-- 51.581
2.77 --undefined-- 51.238
2.78 --undefined-- 50.937
2.79 --undefined-- 50.575
2.80 --undefined-- 50.742
2.81 --undefined-- 50.746
2.82 --undefined-- 50.563
2.83 --undefined-- 50.650
2.84 --undefined-- 52.593
2.85 --undefined-- 59.232
2.86 150.249 66.636
2.87 140.566 71.253
2.88 121.760 73.519
2.89 117.249 74.599
2.90 114.246 75.222
2.91 113.063 75.592
2.92 112.161 75.836
2.93 111.335 76.059
2.94 110.999 76.227
2.95 110.782 76.273
2.96 110.474 76.194
2.97 109.927 75.976
2.98 109.595 75.535
2.99 108.911 74.641
3.00 107.760 73.030
3.01 106.378 70.444
3.02 105.313 66.745
3.03 107.288 62.425
3.04 108.983 58.519
3.05 106.776 55.247
3.06 107.308 52.503
3.07 --undefined-- 49.731
3.08 --undefined-- 46.227
3.09 --undefined-- 44.027
3.10 --undefined-- 46.887
3.11 --undefined-- 49.392
3.12 --undefined-- 55.943
3.13 --undefined-- 65.031
3.14 131.169 70.907
3.15 126.550 74.116
3.16 122.759 75.708
3.17 121.707 76.494
3.18 120.748 76.817
3.19 119.972 76.872
3.20 119.538 76.835
3.21 119.028 76.702
3.22 118.559 76.419
3.23 117.900 75.844
3.24 114.273 74.826
3.25 112.779 74.061
3.26 118.028 74.112
3.27 120.056 74.491
3.28 122.316 74.995
3.29 121.936 75.565
3.30 122.153 76.014
3.31 124.355 76.048
3.32 118.118 75.659
3.33 114.835 75.173
3.34 113.011 74.783
3.35 112.646 74.668
3.36 111.946 74.799
3.37 110.931 74.853
3.38 107.560 74.470
3.39 101.709 73.453
3.40 96.048 71.789
3.41 92.394 69.925
3.42 --undefined-- 68.834
3.43 --undefined-- 68.127
3.44 --undefined-- 67.007
3.45 --undefined-- 65.722
3.46 86.803 64.090
3.47 79.941 62.378
3.48 91.039 59.949
3.49 98.771 56.323
3.50 105.898 53.522
3.51 --undefined-- 50.959
3.52 --undefined-- 47.600
3.53 --undefined-- 44.387
3.54 --undefined-- 42.019
3.55 --undefined-- 41.729
3.56 --undefined-- 41.819
3.57 --undefined-- 41.593
3.58 --undefined-- 41.696
3.59 --undefined-- 42.150
3.60 --undefined-- 43.755
3.61 --undefined-- 53.977
3.62 --undefined-- 64.243
3.63 --undefined-- 70.654
3.64 124.723 73.932
3.65 119.940 74.971
3.66 116.335 74.939
3.67 115.583 74.742
3.68 115.014 74.440
3.69 114.613 73.757
3.70 114.298 73.121
3.71 116.963 73.295
3.72 119.888 73.905
3.73 121.438 74.204
3.74 121.146 73.704
3.75 119.455 72.044
3.76 114.564 68.954
3.77 109.857 64.578
3.78 107.878 62.678
3.79 109.635 67.978
3.80 131.318 73.001
3.81 127.040 75.401
3.82 121.609 75.580
3.83 119.157 74.700
3.84 117.043 74.031
3.85 117.019 73.931
3.86 120.200 74.090
3.87 120.934 74.633
3.88 129.456 75.811
3.89 133.328 76.753
3.90 135.644 77.257
3.91 139.050 77.608
3.92 145.265 77.701
3.93 146.517 77.490
3.94 146.925 77.297
3.95 148.602 77.198
3.96 151.983 77.318
3.97 153.282 77.539
3.98 150.042 77.225
3.99 146.490 76.102
4.00 147.105 74.561
4.01 147.015 73.260
4.02 143.271 72.382
4.03 139.442 72.041
4.04 135.259 72.663
4.05 131.929 74.308
4.06 133.016 75.815
4.07 131.771 76.135
4.08 124.357 75.598
4.09 120.493 75.289
4.10 118.270 75.373
4.11 117.504 75.157
4.12 116.733 74.257
4.13 116.501 72.353
4.14 110.338 68.717
4.15 112.122 63.477
4.16 117.505 58.201
4.17 --undefined-- 53.603
4.18 --undefined-- 50.698
4.19 --undefined-- 51.742
4.20 --undefined-- 60.648
4.21 --undefined-- 67.821
4.22 --undefined-- 71.383
4.23 --undefined-- 72.042
4.24 --undefined-- 71.391
4.25 --undefined-- 71.161
4.26 105.855 70.590
4.27 109.533 69.968
4.28 112.268 70.288
4.29 116.660 70.992
4.30 122.319 71.687
4.31 129.262 72.571
4.32 135.407 73.596
4.33 136.435 74.009
4.34 135.294 73.175
4.35 133.061 70.764
4.36 129.425 67.183
4.37 131.078 66.538
4.38 145.307 71.007
4.39 146.203 74.621
4.40 142.710 75.862
4.41 135.047 75.443
4.42 128.522 74.972
4.43 124.790 75.221
4.44 122.343 75.268
4.45 121.154 73.774
4.46 101.055 69.774
4.47 101.697 64.315
4.48 100.703 64.585
4.49 113.906 69.882
4.50 115.014 73.638
4.51 109.731 74.864
4.52 104.719 74.397
4.53 102.629 73.608
4.54 103.249 73.224
4.55 102.216 73.027
4.56 102.819 72.796
4.57 102.749 72.655
4.58 100.724 72.589
4.59 100.740 72.543
4.60 101.939 72.429
4.61 100.661 71.911
4.62 100.237 70.760
4.63 82.129 68.925
4.64 --undefined-- 66.029
4.65 --undefined-- 62.218
4.66 --undefined-- 58.370
4.67 --undefined-- 52.769
4.68 --undefined-- 45.940
4.69 --undefined-- 44.301
4.70 --undefined-- 44.345
4.71 --undefined-- 46.089
4.72 --undefined-- 51.126
4.73 --undefined-- 61.336
4.74 --undefined-- 69.703
4.75 162.578 74.508
4.76 156.707 76.543
4.77 154.088 77.020
4.78 154.767 77.247
4.79 156.043 77.685
4.80 155.614 77.798
4.81 152.335 77.310
4.82 154.758 76.966
4.83 155.313 77.129
4.84 154.411 77.344
4.85 153.453 77.498
4.86 151.889 77.608
4.87 150.480 77.733
4.88 150.483 77.914
4.89 144.750 77.651
4.90 140.609 76.564
4.91 131.235 74.815
4.92 122.520 72.939
4.93 121.810 72.377
4.94 124.910 73.312
4.95 128.331 74.374
4.96 127.435 74.752
4.97 121.667 74.523
4.98 118.208 73.999
4.99 112.774 73.358
5.00 108.876 73.073
5.01 106.486 73.267
5.02 104.935 73.558
5.03 103.851 73.812
5.04 103.440 73.981
5.05 102.160 73.878
5.06 101.989 73.557
5.07 102.499 73.304
5.08 102.690 73.044
5.09 102.952 72.401
5.10 101.225 70.781
5.11 93.531 67.864
5.12 97.984 64.218
5.13 102.510 60.474
5.14 108.630 56.048
5.15 --undefined-- 50.918
5.16 --undefined-- 45.997
5.17 --undefined-- 42.856
5.18 --undefined-- 43.459
5.19 --undefined-- 51.992
5.20 --undefined-- 61.188
5.21 --undefined-- --undefined--
5.22 128.535 --undefined--
5.23 --undefined-- --undefined--
5.24 --undefined-- --undefined--
