Time Pitch Intensity
0.01 --undefined-- --undefined--
0.02 166.089 --undefined--
0.03 --undefined-- --undefined--
0.04 287.462 --undefined--
0.05 274.715 72.290
0.06 261.522 71.631
0.07 255.118 70.792
0.08 251.291 69.967
0.09 250.139 69.133
0.10 250.952 68.155
0.11 251.687 66.937
0.12 250.318 65.525
0.13 248.818 63.568
0.14 248.754 61.787
0.15 246.648 61.774
0.16 248.484 63.115
0.17 252.407 64.121
0.18 249.542 64.395
0.19 248.837 64.312
0.20 247.407 63.488
0.21 243.364 61.629
0.22 238.129 58.975
0.23 239.480 55.665
0.24 258.951 51.841
0.25 --undefined-- 47.474
0.26 --undefined-- 47.875
0.27 --undefined-- 54.663
0.28 284.114 60.446
0.29 267.785 64.928
0.30 257.976 68.500
0.31 254.732 70.900
0.32 251.797 72.307
0.33 250.131 73.202
0.34 253.159 73.671
0.35 254.995 73.723
0.36 250.795 73.673
0.37 248.627 73.202
0.38 248.110 71.618
0.39 249.816 68.949
0.40 251.036 65.845
0.41 249.458 62.425
0.42 248.466 58.580
0.43 250.598 54.928
0.44 249.954 51.457
0.45 250.766 50.091
0.46 252.880 54.017
0.47 295.369 58.881
0.48 --undefined-- 60.613
0.49 --undefined-- 58.569
0.50 --undefined-- 54.071
0.51 --undefined-- 53.244
0.52 --undefined-- 58.093
0.53 --undefined-- 64.169
0.54 164.331 68.200
0.55 164.799 70.036
0.56 160.841 70.745
0.57 156.922 71.231
0.58 154.348 71.625
0.59 153.612 71.680
0.60 153.499 71.432
0.61 153.104 71.496
0.62 152.294 71.913
0.63 152.003 71.958
0.64 151.939 71.280
0.65 --undefined-- 70.120
0.66 295.798 68.752
0.67 290.823 67.467
0.68 286.201 67.093
0.69 279.451 68.368
0.70 269.661 70.045
0.71 254.421 70.466
0.72 224.264 70.316
0.73 218.648 70.799
0.74 114.595 70.470
0.75 116.674 68.997
0.76 118.126 67.216
0.77 --undefined-- 65.233
0.78 --undefined-- 64.467
0.79 --undefined-- 65.549
0.80 86.284 66.351
0.81 86.646 65.889
0.82 108.197 64.345
0.83 107.791 62.203
0.84 107.921 60.547
0.85 108.397 60.261
0.86 108.883 60.975
0.87 241.461 64.406
0.88 243.637 68.163
0.89 247.764 70.266
0.90 249.981 70.608
0.91 252.431 69.553
0.92 258.068 67.768
0.93 261.702 66.181
0.94 265.679 65.436
0.95 270.108 64.987
0.96 275.359 64.397
0.97 275.829 63.565
0.98 275.871 62.052
0.99 273.660 60.124
1.00 270.411 58.665
1.01 275.803 58.180
1.02 282.049 58.139
1.03 297.866 57.490
1.04 155.819 54.962
1.05 --undefined-- 49.429
1.06 --undefined-- 40.770
1.07 --undefined-- 33.456
1.08 --undefined-- 29.143
1.09 --undefined-- 26.649
1.10 --undefined-- 26.360
1.11 --undefined-- 26.929
1.12 --undefined-- 27.245
1.13 --undefined-- 30.077
1.14 --undefined-- 40.396
1.15 --undefined-- 47.983
1.16 --undefined-- 52.590
1.17 115.332 55.302
1.18 118.197 56.477
1.19 176.009 56.357
1.20 178.786 55.870
1.21 180.758 56.248
1.22 178.460 59.091
1.23 173.451 63.863
1.24 171.073 67.326
1.25 171.042 68.909
1.26 173.443 69.610
1.27 176.539 70.374
1.28 177.693 71.094
1.29 178.885 71.453
1.30 181.080 71.373
1.31 183.488 70.851
1.32 186.594 69.719
1.33 192.626 68.167
1.34 199.743 66.950
1.35 204.717 66.801
1.36 215.729 67.938
1.37 224.613 69.809
1.38 232.268 71.092
1.39 239.567 71.291
1.40 238.232 70.866
1.41 238.450 70.423
1.42 242.730 70.077
1.43 245.325 69.624
1.44 248.596 68.643
1.45 253.123 66.595
1.46 257.955 63.067
1.47 273.440 57.861
1.48 --undefined-- 50.623
1.49 --undefined-- 40.794
1.50 --undefined-- 34.005
1.51 --undefined-- 39.702
1.52 --undefined-- 45.649
1.53 --undefined-- 49.182
1.54 172.818 50.840
1.55 170.504 51.547
1.56 170.114 52.400
1.57 --undefined-- 55.906
1.58 --undefined-- 59.531
1.59 --undefined-- 62.923
1.60 --undefined-- 67.584
1.61 --undefined-- 71.411
1.62 260.417 73.506
1.63 258.026 74.018
1.64 257.166 73.245
1.65 253.560 72.077
1.66 250.519 71.215
1.67 247.757 70.586
1.68 242.279 70.593
1.69 241.395 71.227
1.70 241.701 71.746
1.71 241.616 71.909
1.72 242.052 71.467
1.73 244.198 70.359
1.74 246.977 69.389
1.75 244.997 68.738
1.76 241.556 67.700
1.77 235.151 65.741
1.78 224.141 62.868
1.79 88.752 59.515
1.80 88.989 56.646
1.81 --undefined-- 55.843
1.82 --undefined-- 56.365
1.83 --undefined-- 56.401
1.84 --undefined-- 55.588
1.85 91.399 55.389
1.86 89.436 56.465
1.87 88.244 59.137
1.88 181.943 62.520
1.89 182.598 64.999
1.90 181.959 66.392
1.91 183.959 66.836
1.92 186.232 66.539
1.93 185.899 66.073
1.94 185.071 65.723
1.95 187.318 65.218
1.96 193.312 64.507
1.97 199.629 64.325
1.98 206.547 64.831
1.99 213.238 65.696
2.00 216.399 66.777
2.01 219.440 68.083
2.02 223.295 69.790
2.03 223.996 70.995
2.04 223.432 70.873
2.05 225.686 69.405
2.06 233.299 67.265
2.07 236.176 65.271
2.08 240.106 63.344
2.09 243.065 61.591
2.10 237.464 60.341
2.11 236.226 59.425
2.12 234.969 58.495
2.13 230.715 57.227
2.14 218.864 55.608
2.15 195.171 54.743
2.16 181.544 55.785
2.17 178.506 57.979
2.18 173.818 60.319
2.19 168.621 62.419
2.20 166.468 64.110
2.21 164.767 65.407
2.22 161.683 66.521
2.23 159.648 67.408
2.24 157.667 67.931
2.25 156.559 68.046
2.26 156.452 67.671
2.27 155.635 66.861
2.28 154.438 65.608
2.29 152.046 63.809
2.30 148.981 62.190
2.31 151.232 61.837
2.32 156.922 62.819
2.33 162.540 64.711
2.34 167.408 66.828
2.35 169.721 68.400
2.36 169.218 68.936
2.37 168.992 68.466
2.38 169.377 67.623
2.39 168.579 66.643
2.40 166.923 65.450
2.41 164.728 64.495
2.42 163.699 63.580
2.43 164.015 62.111
2.44 161.973 60.325
2.45 159.471 59.445
2.46 163.483 61.319
2.47 168.399 64.978
2.48 167.843 67.448
2.49 165.791 68.103
2.50 160.995 67.846
2.51 157.887 67.732
2.52 156.879 67.765
2.53 156.457 67.787
2.54 156.902 67.865
2.55 159.598 68.017
2.56 160.996 68.125
2.57 161.752 67.832
2.58 163.387 67.000
2.59 164.188 65.844
2.60 164.871 64.165
2.61 165.713 61.231
2.62 168.829 56.784
2.63 --undefined-- 53.037
2.64 --undefined-- 53.479
2.65 --undefined-- 55.654
2.66 --undefined-- 58.168
2.67 --undefined-- 59.752
2.68 --undefined-- 59.394
2.69 --undefined-- 56.964
2.70 --undefined-- 56.904
2.71 190.827 62.915
2.72 185.755 67.241
2.73 179.199 69.401
2.74 167.642 70.415
2.75 164.591 70.898
2.76 165.165 70.554
2.77 172.941 69.548
2.78 183.220 68.585
2.79 188.762 67.553
2.80 193.663 67.130
2.81 194.761 68.256
2.82 195.769 70.106
2.83 197.572 71.643
2.84 196.165 72.075
2.85 189.337 71.497
2.86 178.285 71.047
2.87 170.805 71.199
2.88 167.131 71.079
2.89 162.751 70.425
2.90 156.842 70.156
2.91 154.480 70.404
2.92 154.437 70.070
2.93 --undefined-- 68.782
2.94 169.437 67.096
2.95 171.216 65.491
2.96 173.856 64.244
2.97 178.519 63.845
2.98 183.160 64.824
2.99 185.265 67.354
3.00 185.841 69.937
3.01 187.746 71.221
3.02 190.268 71.258
3.03 191.990 70.408
3.04 195.056 68.682
3.05 198.533 65.961
3.06 199.865 62.355
3.07 203.543 58.506
3.08 212.779 55.160
3.09 212.597 51.736
3.10 --undefined-- 47.431
3.11 --undefined-- 42.226
3.12 --undefined-- 36.450
3.13 --undefined-- 30.899
3.14 --undefined-- 26.125
3.15 --undefined-- 25.491
3.16 --undefined-- 33.196
3.17 --undefined-- 41.729
3.18 --undefined-- 47.372
3.19 --undefined-- 51.185
3.20 --undefined-- 53.556
3.21 280.179 54.337
3.22 279.400 53.800
3.23 --undefined-- 52.662
3.24 --undefined-- 51.675
3.25 --undefined-- 52.750
3.26 77.477 54.077
3.27 77.603 53.682
3.28 --undefined-- 51.919
3.29 --undefined-- 50.231
3.30 --undefined-- 49.321
3.31 --undefined-- 48.195
3.32 --undefined-- 47.876
3.33 --undefined-- 48.241
3.34 --undefined-- 47.368
3.35 --undefined-- 44.556
3.36 --undefined-- 39.922
3.37 --undefined-- 34.496
3.38 --undefined-- 29.955
3.39 --undefined-- 27.772
3.40 --undefined-- 26.348
3.41 --undefined-- 25.553
3.42 --undefined-- 26.260
3.43 --undefined-- 26.793
3.44 --undefined-- 26.442
3.45 --undefined-- 26.158
3.46 --undefined-- 34.925
3.47 --undefined-- 47.337
3.48 --undefined-- 55.197
3.49 --undefined-- 61.594
3.50 --undefined-- 67.285
3.51 145.937 70.730
3.52 144.240 71.827
3.53 142.598 71.455
3.54 141.253 70.298
3.55 270.139 68.548
3.56 267.178 67.029
3.57 265.682 66.129
3.58 263.850 65.452
3.59 262.104 65.205
3.60 257.958 65.163
3.61 251.087 65.319
3.62 244.511 65.994
3.63 238.408 67.032
3.64 232.947 68.039
3.65 220.724 68.870
3.66 206.061 69.531
3.67 196.099 70.122
3.68 183.779 70.947
3.69 179.587 71.367
3.70 175.344 70.940
3.71 172.424 70.693
3.72 171.179 70.937
3.73 172.010 70.922
3.74 174.378 71.208
3.75 176.523 72.072
3.76 178.313 72.449
3.77 178.441 71.920
3.78 177.301 70.984
3.79 174.070 70.016
3.80 169.441 68.572
3.81 166.006 66.062
3.82 158.086 61.817
3.83 --undefined-- 55.645
3.84 --undefined-- 48.610
3.85 --undefined-- 41.755
3.86 --undefined-- 36.964
3.87 --undefined-- 36.079
3.88 --undefined-- 35.472
3.89 --undefined-- 33.511
3.90 --undefined-- 30.976
3.91 --undefined-- 28.606
3.92 --undefined-- 27.166
3.93 --undefined-- 26.983
3.94 --undefined-- 27.259
3.95 --undefined-- 27.247
3.96 --undefined-- 27.481
3.97 --undefined-- 37.718
3.98 --undefined-- 49.230
3.99 --undefined-- 56.840
4.00 --undefined-- 61.315
4.01 --undefined-- 62.487
4.02 --undefined-- 60.406
4.03 --undefined-- 56.781
4.04 --undefined-- 55.305
4.05 --undefined-- 55.670
4.06 --undefined-- 56.941
4.07 --undefined-- 58.242
4.08 --undefined-- 59.135
4.09 --undefined-- 60.250
4.10 287.683 62.870
4.11 289.840 66.458
4.12 287.347 69.422
4.13 285.929 70.891
4.14 285.851 71.257
4.15 282.245 71.159
4.16 276.241 70.364
4.17 274.295 68.827
4.18 274.731 67.862
4.19 274.650 68.388
4.20 273.964 69.269
4.21 271.891 69.795
4.22 269.092 70.073
4.23 268.438 69.865
4.24 267.914 69.250
4.25 263.627 68.666
4.26 259.075 68.122
4.27 257.988 67.575
4.28 257.422 67.545
4.29 257.553 67.931
4.30 257.247 68.060
4.31 253.667 67.549
4.32 250.933 66.104
4.33 253.078 63.373
4.34 249.666 59.670
4.35 259.259 55.614
4.36 --undefined-- 50.121
4.37 --undefined-- 43.474
4.38 --undefined-- 51.106
4.39 --undefined-- 60.570
4.40 --undefined-- 66.010
4.41 --undefined-- 68.209
4.42 182.105 68.351
4.43 178.896 67.326
4.44 170.023 66.251
4.45 162.786 65.896
4.46 160.290 65.655
4.47 158.393 65.267
4.48 156.560 65.164
4.49 154.705 65.680
4.50 154.724 66.385
4.51 157.797 66.576
4.52 164.159 66.255
4.53 166.702 66.135
4.54 171.781 65.691
4.55 179.316 63.289
4.56 181.318 58.043
4.57 --undefined-- 51.203
4.58 --undefined-- 53.673
4.59 --undefined-- 62.148
4.60 --undefined-- 67.508
4.61 226.068 70.033
4.62 233.841 71.222
4.63 231.506 71.833
4.64 227.476 71.624
4.65 220.520 70.208
4.66 207.749 68.028
4.67 --undefined-- 66.029
4.68 --undefined-- 63.687
4.69 --undefined-- 63.035
4.70 --undefined-- 64.220
4.71 --undefined-- 62.186
4.72 --undefined-- 56.052
4.73 --undefined-- 52.358
4.74 --undefined-- 54.586
4.75 --undefined-- 53.810
4.76 --undefined-- 52.139
4.77 --undefined-- 52.871
4.78 --undefined-- 52.989
4.79 --undefined-- 51.691
4.80 --undefined-- 51.391
4.81 --undefined-- 51.870
4.82 --undefined-- 51.006
4.83 --undefined-- 52.000
4.84 --undefined-- 57.092
4.85 --undefined-- 62.933
4.86 151.954 66.961
4.87 145.149 68.645
4.88 141.469 68.222
4.89 147.837 66.689
4.90 149.590 66.081
4.91 152.578 66.375
4.92 154.568 66.646
4.93 162.184 66.895
4.94 174.423 66.849
4.95 181.707 65.576
4.96 188.653 62.595
4.97 193.535 58.144
4.98 --undefined-- 55.070
4.99 --undefined-- 57.830
5.00 --undefined-- 60.644
5.01 --undefined-- 62.517
5.02 --undefined-- 63.898
5.03 --undefined-- 63.619
5.04 267.187 61.745
5.05 259.299 62.778
5.06 242.881 65.396
5.07 235.406 66.109
5.08 226.421 64.760
5.09 212.066 62.855
5.10 210.381 62.596
5.11 209.578 63.120
5.12 210.440 63.391
5.13 212.226 63.534
5.14 215.308 64.060
5.15 217.776 64.879
5.16 218.501 65.359
5.17 221.707 65.191
5.18 224.162 63.995
5.19 216.279 61.564
5.20 --undefined-- 60.304
5.21 --undefined-- 61.016
5.22 --undefined-- 61.129
5.23 --undefined-- 62.588
5.24 --undefined-- 65.363
5.25 --undefined-- 67.101
5.26 --undefined-- 67.882
5.27 --undefined-- 68.278
5.28 --undefined-- 67.955
5.29 --undefined-- 67.502
5.30 --undefined-- 68.171
5.31 --undefined-- 69.617
5.32 134.046 70.489
5.33 136.971 69.671
5.34 148.793 67.623
5.35 154.824 65.339
5.36 166.833 63.763
5.37 167.856 62.466
5.38 167.543 60.776
5.39 166.178 59.288
5.40 156.278 58.704
5.41 155.103 59.837
5.42 157.164 --undefined--
5.43 155.512 --undefined--
5.44 --undefined-- --undefined--
5.45 --undefined-- --undefined--
