Time Pitch Intensity
0.01 --undefined-- --undefined--
0.02 126.076 --undefined--
0.03 124.381 --undefined--
0.04 122.965 --undefined--
0.05 121.430 64.092
0.06 119.861 61.940
0.07 117.696 58.480
0.08 --undefined-- 53.455
0.09 --undefined-- 48.441
0.10 --undefined-- 46.346
0.11 --undefined-- 45.557
0.12 --undefined-- 45.279
0.13 --undefined-- 45.223
0.14 --undefined-- 45.408
0.15 --undefined-- 46.423
0.16 --undefined-- 48.766
0.17 --undefined-- 54.787
0.18 --undefined-- 60.950
0.19 77.108 65.408
0.20 120.322 68.157
0.21 117.765 69.081
0.22 116.314 69.052
0.23 --undefined-- 69.305
0.24 --undefined-- 69.677
0.25 --undefined-- 69.969
0.26 --undefined-- 70.056
0.27 160.909 69.636
0.28 161.827 69.077
0.29 165.717 69.124
0.30 170.220 69.648
0.31 174.365 70.461
0.32 176.575 71.288
0.33 175.216 71.528
0.34 172.413 70.684
0.35 169.303 68.480
0.36 165.358 64.788
0.37 159.483 60.198
0.38 170.583 58.638
0.39 163.800 61.994
0.40 147.829 65.122
0.41 143.690 67.113
0.42 139.429 68.177
0.43 137.415 67.883
0.44 142.677 66.882
0.45 146.072 66.182
0.46 --undefined-- 65.412
0.47 --undefined-- 64.537
0.48 --undefined-- 64.136
0.49 --undefined-- 63.576
0.50 --undefined-- 62.205
0.51 --undefined-- 61.014
0.52 --undefined-- 60.853
0.53 --undefined-- 60.245
0.54 --undefined-- 58.544
0.55 --undefined-- 55.090
0.56 --undefined-- 49.154
0.57 --undefined-- 44.076
0.58 --undefined-- 44.482
0.59 --undefined-- 52.687
0.60 --undefined-- 59.488
0.61 --undefined-- 62.227
0.62 --undefined-- 62.226
0.63 --undefined-- 61.633
0.64 --undefined-- 61.048
0.65 --undefined-- 60.212
0.66 --undefined-- 59.838
0.67 --undefined-- 62.103
0.68 --undefined-- 66.616
0.69 143.912 69.664
0.70 141.612 70.827
0.71 143.510 70.766
0.72 146.865 70.162
0.73 149.015 69.708
0.74 150.212 69.554
0.75 150.934 69.706
0.76 151.802 69.946
0.77 154.322 69.566
0.78 --undefined-- 68.359
0.79 --undefined-- 67.362
0.80 170.004 67.734
0.81 165.984 68.857
0.82 150.283 69.570
0.83 145.155 69.384
0.84 143.555 68.444
0.85 141.270 66.754
0.86 137.463 63.658
0.87 --undefined-- 58.125
0.88 --undefined-- 49.971
0.89 --undefined-- 43.990
0.90 --undefined-- 43.486
0.91 --undefined-- 43.299
0.92 --undefined-- 42.319
0.93 --undefined-- 41.417
0.94 --undefined-- 42.297
0.95 --undefined-- 44.334
0.96 --undefined-- 46.271
0.97 --undefined-- 48.017
0.98 --undefined-- 50.140
0.99 --undefined-- 51.967
1.00 --undefined-- 51.764
1.01 --undefined-- 49.137
1.02 --undefined-- 45.424
1.03 --undefined-- 42.622
1.04 --undefined-- 41.750
1.05 --undefined-- 46.654
1.06 --undefined-- 50.550
1.07 --undefined-- 50.763
1.08 --undefined-- 53.821
1.09 --undefined-- 61.785
1.10 --undefined-- 67.497
1.11 150.355 70.881
1.12 148.980 72.310
1.13 147.786 72.364
1.14 148.215 71.801
1.15 150.076 70.823
1.16 153.406 68.850
1.17 160.919 65.622
1.18 --undefined-- 62.705
1.19 --undefined-- 61.689
1.20 197.491 60.661
1.21 207.510 57.300
1.22 --undefined-- 50.685
1.23 --undefined-- 43.437
1.24 --undefined-- 42.831
1.25 --undefined-- 42.765
1.26 --undefined-- 41.244
1.27 --undefined-- 39.870
1.28 --undefined-- 41.204
1.29 --undefined-- 53.598
1.30 --undefined-- 63.051
1.31 --undefined-- 67.317
1.32 --undefined-- 67.445
1.33 --undefined-- 65.539
1.34 78.326 65.886
1.35 78.939 68.142
1.36 77.372 69.823
1.37 77.314 70.403
1.38 153.633 70.453
1.39 153.850 70.433
1.40 152.486 70.262
1.41 151.945 70.303
1.42 152.826 70.941
1.43 153.845 71.581
1.44 153.142 71.588
1.45 151.559 70.946
1.46 150.414 69.816
1.47 149.386 68.313
1.48 148.795 66.838
1.49 147.254 65.501
1.50 148.277 63.166
1.51 153.607 58.743
1.52 --undefined-- 52.334
1.53 --undefined-- 46.750
1.54 --undefined-- 49.844
1.55 --undefined-- 57.756
1.56 --undefined-- 63.106
1.57 83.175 65.871
1.58 83.702 67.305
1.59 83.345 68.226
1.60 83.278 68.771
1.61 82.856 68.626
1.62 82.172 67.633
1.63 81.529 65.963
1.64 81.229 63.437
1.65 83.433 59.627
1.66 --undefined-- 54.476
1.67 --undefined-- 50.481
1.68 --undefined-- 47.830
1.69 --undefined-- 44.563
1.70 --undefined-- 42.449
1.71 --undefined-- 41.018
1.72 --undefined-- 40.197
1.73 --undefined-- 39.203
1.74 --undefined-- 39.129
1.75 --undefined-- 45.192
1.76 --undefined-- 52.163
1.77 --undefined-- 56.824
1.78 --undefined-- 59.930
1.79 88.781 62.073
1.80 91.137 63.825
1.81 92.061 64.645
1.82 91.423 64.448
1.83 88.679 63.938
1.84 86.590 63.033
1.85 --undefined-- 61.877
1.86 --undefined-- 63.834
1.87 151.699 68.208
1.88 152.956 70.754
1.89 148.480 71.482
1.90 145.200 71.322
1.91 143.728 69.932
1.92 142.798 66.290
1.93 --undefined-- 60.436
1.94 164.039 57.300
1.95 162.705 57.568
1.96 164.091 57.080
1.97 163.657 55.863
1.98 165.157 55.578
1.99 --undefined-- 56.214
2.00 --undefined-- 55.258
2.01 --undefined-- 54.120
2.02 --undefined-- 55.822
2.03 --undefined-- 59.266
2.04 173.592 63.012
2.05 167.280 65.309
2.06 160.655 65.288
2.07 153.032 62.725
2.08 --undefined-- 58.379
2.09 79.572 56.845
2.10 --undefined-- 59.370
2.11 155.886 63.016
2.12 150.519 65.743
2.13 145.693 66.885
2.14 146.560 66.172
2.15 --undefined-- 63.162
2.16 --undefined-- 58.860
2.17 --undefined-- 56.990
2.18 --undefined-- 56.952
2.19 --undefined-- 56.745
2.20 --undefined-- 59.702
2.21 --undefined-- 65.067
2.22 --undefined-- 69.222
2.23 --undefined-- 71.063
2.24 --undefined-- 71.098
2.25 106.256 70.553
2.26 94.933 70.048
2.27 83.139 68.991
2.28 --undefined-- 67.642
2.29 --undefined-- 66.713
2.30 --undefined-- 64.942
2.31 --undefined-- 60.679
2.32 --undefined-- 52.957
2.33 --undefined-- 45.223
2.34 --undefined-- 44.316
2.35 --undefined-- 51.305
2.36 --undefined-- 61.485
2.37 --undefined-- 67.839
2.38 78.438 71.024
2.39 79.989 71.617
2.40 80.661 70.174
2.41 77.044 68.088
2.42 --undefined-- 65.726
2.43 --undefined-- 64.441
2.44 79.141 66.295
2.45 78.912 67.290
2.46 76.723 67.204
2.47 77.801 66.646
2.48 78.427 66.139
2.49 78.312 65.667
2.50 --undefined-- 65.359
2.51 153.582 65.188
2.52 150.987 65.079
2.53 148.088 65.283
2.54 145.539 66.079
2.55 145.487 67.529
2.56 143.596 68.511
2.57 141.640 68.454
2.58 140.443 67.766
2.59 140.923 67.366
2.60 140.330 67.799
2.61 139.203 68.423
2.62 137.547 68.602
2.63 137.252 68.458
2.64 136.878 68.664
2.65 137.302 69.758
2.66 138.219 70.828
2.67 131.415 70.713
2.68 133.742 69.512
2.69 134.579 68.037
2.70 134.979 66.616
2.71 131.298 65.294
2.72 127.461 63.448
2.73 124.329 61.153
2.74 118.420 59.423
2.75 --undefined-- 57.654
2.76 --undefined-- 54.667
2.77 --undefined-- 50.594
2.78 --undefined-- 50.046
2.79 --undefined-- 52.405
2.80 --undefined-- 56.725
2.81 --undefined-- 64.445
2.82 142.596 69.623
2.83 147.616 71.720
2.84 148.748 71.592
2.85 148.623 70.749
2.86 149.747 70.466
2.87 150.913 70.549
2.88 152.416 70.571
2.89 155.372 70.380
2.90 158.507 69.580
2.91 160.351 67.573
2.92 163.801 64.128
2.93 170.132 59.667
2.94 169.249 54.998
2.95 163.876 53.778
2.96 165.078 60.008
2.97 169.228 64.763
2.98 175.281 66.754
2.99 177.301 67.384
3.00 177.409 67.466
3.01 178.342 66.304
3.02 178.009 63.021
3.03 --undefined-- 57.383
3.04 --undefined-- 52.204
3.05 --undefined-- 52.994
3.06 --undefined-- 60.004
3.07 --undefined-- 67.096
3.08 171.772 71.206
3.09 165.108 72.423
3.10 148.875 71.599
3.11 141.136 70.380
3.12 137.808 69.018
3.13 134.388 66.428
3.14 --undefined-- 62.170
3.15 --undefined-- 56.145
3.16 --undefined-- 49.724
3.17 --undefined-- 46.694
3.18 --undefined-- 46.062
3.19 --undefined-- 47.183
3.20 --undefined-- 48.457
3.21 --undefined-- 51.815
3.22 --undefined-- 58.405
3.23 --undefined-- 62.575
3.24 --undefined-- 63.787
3.25 121.399 65.428
3.26 121.701 68.114
3.27 --undefined-- 69.056
3.28 --undefined-- 68.829
3.29 100.957 69.045
3.30 102.738 69.344
3.31 107.532 69.426
3.32 108.873 69.459
3.33 110.268 69.184
3.34 111.347 68.342
3.35 112.108 67.261
3.36 113.593 66.507
3.37 113.736 65.875
3.38 113.223 65.361
3.39 --undefined-- 65.654
3.40 --undefined-- 65.364
3.41 --undefined-- 65.250
3.42 --undefined-- 64.724
3.43 --undefined-- 62.066
3.44 --undefined-- 58.893
3.45 --undefined-- 56.040
3.46 --undefined-- 54.486
3.47 --undefined-- 54.212
3.48 --undefined-- 54.203
3.49 --undefined-- 55.553
3.50 --undefined-- 58.953
3.51 --undefined-- 63.348
3.52 --undefined-- 66.283
3.53 --undefined-- 67.015
3.54 --undefined-- 65.656
3.55 --undefined-- 62.957
3.56 124.268 61.144
3.57 125.486 60.717
3.58 126.251 61.116
3.59 130.382 64.805
3.60 132.382 69.309
3.61 130.907 71.530
3.62 131.212 71.199
3.63 131.346 68.441
3.64 --undefined-- 63.242
3.65 --undefined-- 55.467
3.66 --undefined-- 46.783
3.67 --undefined-- 50.819
3.68 --undefined-- 57.898
3.69 --undefined-- 61.306
3.70 --undefined-- 61.536
3.71 --undefined-- 60.228
3.72 --undefined-- 59.143
3.73 --undefined-- 59.489
3.74 222.186 63.935
3.75 210.578 68.212
3.76 194.554 69.573
3.77 182.337 68.153
3.78 181.774 64.514
3.79 183.085 59.165
3.80 --undefined-- 53.899
3.81 --undefined-- 52.633
3.82 --undefined-- 52.741
3.83 --undefined-- 51.959
3.84 --undefined-- 50.866
3.85 --undefined-- 50.109
3.86 --undefined-- 49.360
3.87 --undefined-- 49.905
3.88 --undefined-- 58.207
3.89 --undefined-- 65.999
3.90 --undefined-- 70.205
3.91 135.709 71.739
3.92 138.493 71.777
3.93 143.929 71.086
3.94 147.522 70.302
3.95 148.421 69.782
3.96 149.139 69.188
3.97 150.462 68.282
3.98 152.144 67.731
3.99 154.063 68.324
4.00 156.444 69.393
4.01 158.432 70.119
4.02 160.800 70.429
4.03 162.361 70.272
4.04 162.756 69.344
4.05 169.451 69.466
4.06 172.799 71.455
4.07 174.006 72.455
4.08 174.384 72.332
4.09 175.826 72.227
4.10 176.790 72.367
4.11 177.011 72.295
4.12 175.705 71.897
4.13 172.884 71.001
4.14 169.055 68.934
4.15 164.420 64.677
4.16 167.611 58.449
4.17 164.843 60.729
4.18 --undefined-- 66.465
4.19 --undefined-- 69.531
4.20 --undefined-- 69.985
4.21 --undefined-- 68.949
4.22 --undefined-- 68.284
4.23 --undefined-- 67.567
4.24 --undefined-- 66.010
4.25 --undefined-- 64.501
4.26 --undefined-- 63.134
4.27 --undefined-- 60.636
4.28 --undefined-- 57.162
4.29 --undefined-- 52.251
4.30 --undefined-- 46.572
4.31 --undefined-- 44.132
4.32 --undefined-- 43.181
4.33 --undefined-- 42.586
4.34 --undefined-- 43.696
4.35 --undefined-- 45.529
4.36 --undefined-- 48.040
4.37 --undefined-- 55.293
4.38 --undefined-- 62.633
4.39 --undefined-- 67.028
4.40 --undefined-- 68.958
4.41 --undefined-- 69.243
4.42 --undefined-- 68.358
4.43 --undefined-- 66.425
4.44 --undefined-- 63.968
4.45 --undefined-- 62.055
4.46 --undefined-- 60.510
4.47 --undefined-- 58.724
4.48 --undefined-- 57.047
4.49 --undefined-- 55.581
4.50 131.282 54.286
4.51 131.436 53.879
4.52 135.723 54.941
4.53 137.600 56.796
4.54 139.731 58.517
4.55 140.609 59.493
4.56 140.116 59.394
4.57 138.937 58.034
4.58 --undefined-- 55.418
4.59 --undefined-- 52.396
4.60 --undefined-- 49.958
4.61 --undefined-- 48.310
4.62 --undefined-- 47.683
4.63 --undefined-- 47.496
4.64 --undefined-- 47.351
4.65 --undefined-- 47.213
4.66 --undefined-- 47.364
4.67 --undefined-- 53.757
4.68 --undefined-- 62.789
4.69 --undefined-- 68.029
4.70 --undefined-- 69.894
4.71 180.720 69.624
4.72 177.710 68.972
4.73 176.022 68.646
4.74 174.769 67.953
4.75 173.175 66.167
4.76 175.588 63.062
4.77 179.499 59.557
4.78 179.559 56.907
4.79 177.479 53.869
4.80 --undefined-- 49.217
4.81 --undefined-- 45.215
4.82 --undefined-- 43.702
4.83 --undefined-- 43.261
4.84 --undefined-- 44.690
4.85 --undefined-- 47.775
4.86 --undefined-- 52.258
4.87 --undefined-- 59.643
4.88 --undefined-- 66.041
4.89 --undefined-- 69.670
4.90 --undefined-- 70.792
4.91 --undefined-- 69.934
4.92 76.723 68.151
4.93 77.635 66.719
4.94 --undefined-- 65.868
4.95 --undefined-- 64.707
4.96 --undefined-- 62.724
4.97 --undefined-- 60.892
4.98 --undefined-- 59.289
4.99 --undefined-- 58.941
5.00 --undefined-- 59.824
5.01 --undefined-- 60.685
5.02 --undefined-- 60.623
5.03 --undefined-- 60.458
5.04 --undefined-- 60.730
5.05 --undefined-- 61.694
5.06 --undefined-- 63.399
5.07 76.409 64.720
5.08 77.579 64.297
5.09 76.721 62.446
5.10 76.551 60.734
5.11 77.671 59.563
5.12 76.683 --undefined--
5.13 --undefined-- --undefined--
5.14 --undefined-- --undefined--
5.15 --undefined-- --undefined--
