Time Pitch Intensity
0.01 --undefined-- --undefined--
0.02 83.495 --undefined--
0.03 78.284 --undefined--
0.04 76.835 --undefined--
0.05 --undefined-- 52.636
0.06 --undefined-- 47.792
0.07 --undefined-- 46.980
0.08 --undefined-- 47.748
0.09 --undefined-- 48.230
0.10 --undefined-- 48.301
0.11 --undefined-- 48.215
0.12 --undefined-- 48.598
0.13 78.396 49.211
0.14 78.456 50.140
0.15 77.927 51.190
0.16 77.922 52.049
0.17 77.900 53.204
0.18 76.477 56.881
0.19 --undefined-- 63.288
0.20 --undefined-- 68.119
0.21 --undefined-- 70.770
0.22 --undefined-- 71.808
0.23 --undefined-- 71.747
0.24 --undefined-- 70.997
0.25 --undefined-- 70.466
0.26 --undefined-- 70.218
0.27 --undefined-- 69.921
0.28 --undefined-- 69.604
0.29 --undefined-- 69.204
0.30 --undefined-- 68.873
0.31 --undefined-- 68.662
0.32 --undefined-- 68.214
0.33 --undefined-- 67.616
0.34 75.904 67.359
0.35 77.284 67.426
0.36 78.846 67.115
0.37 80.649 66.187
0.38 83.981 64.849
0.39 86.209 63.019
0.40 87.991 60.606
0.41 89.631 57.628
0.42 90.040 53.968
0.43 --undefined-- 49.733
0.44 --undefined-- 46.803
0.45 --undefined-- 45.339
0.46 --undefined-- 44.269
0.47 --undefined-- 44.831
0.48 --undefined-- 46.395
0.49 --undefined-- 48.037
0.50 --undefined-- 49.661
0.51 100.257 51.342
0.52 100.035 52.875
0.53 99.494 54.482
0.54 99.517 56.661
0.55 99.698 59.327
0.56 99.818 61.931
0.57 99.644 64.008
0.58 99.419 65.236
0.59 99.435 65.588
0.60 98.150 65.255
0.61 96.225 64.635
0.62 95.049 64.066
0.63 92.361 63.139
0.64 91.434 61.740
0.65 89.171 62.078
0.66 96.544 66.352
0.67 93.677 70.113
0.68 90.012 71.639
0.69 84.739 71.624
0.70 79.699 71.323
0.71 77.467 71.191
0.72 75.041 70.929
0.73 86.858 70.734
0.74 84.514 70.378
0.75 83.189 69.479
0.76 78.815 67.924
0.77 79.627 65.643
0.78 79.508 62.831
0.79 78.095 59.489
0.80 78.393 55.745
0.81 --undefined-- 52.896
0.82 --undefined-- 50.370
0.83 --undefined-- 46.949
0.84 --undefined-- 43.459
0.85 --undefined-- 41.115
0.86 --undefined-- 40.224
0.87 --undefined-- 40.317
0.88 --undefined-- 39.572
0.89 --undefined-- 38.292
0.90 --undefined-- 37.576
0.91 --undefined-- 40.060
0.92 --undefined-- 48.105
0.93 --undefined-- 53.952
0.94 --undefined-- 56.501
0.95 --undefined-- 55.903
0.96 --undefined-- 57.046
0.97 --undefined-- 63.445
0.98 92.483 67.520
0.99 89.735 69.380
1.00 84.376 70.059
1.01 81.624 70.204
1.02 80.220 70.399
1.03 79.573 70.656
1.04 78.127 70.704
1.05 77.745 70.709
1.06 77.736 70.754
1.07 75.711 70.570
1.08 75.014 70.228
1.09 74.946 69.913
1.10 75.222 69.464
1.11 86.871 69.041
1.12 74.495 68.940
1.13 74.586 69.104
1.14 85.439 69.027
1.15 85.747 68.598
1.16 85.580 68.294
1.17 74.463 68.273
1.18 74.548 68.000
1.19 74.745 67.432
1.20 75.293 66.794
1.21 75.604 65.552
1.22 75.600 63.311
1.23 75.284 60.334
1.24 75.205 56.952
1.25 76.989 53.049
1.26 --undefined-- 48.164
1.27 --undefined-- 43.990
1.28 --undefined-- 42.823
1.29 --undefined-- 42.884
1.30 --undefined-- 43.200
1.31 --undefined-- 43.401
1.32 --undefined-- 43.662
1.33 --undefined-- 43.370
1.34 --undefined-- 42.760
1.35 --undefined-- 43.585
1.36 --undefined-- 48.268
1.37 --undefined-- 53.799
1.38 --undefined-- 57.055
1.39 --undefined-- 58.968
1.40 --undefined-- 61.551
1.41 --undefined-- 64.311
1.42 --undefined-- 65.982
1.43 --undefined-- 67.025
1.44 --undefined-- 68.379
1.45 --undefined-- 70.340
1.46 --undefined-- 71.543
1.47 --undefined-- 70.025
1.48 83.770 65.921
1.49 81.947 64.278
1.50 78.803 65.735
1.51 78.123 67.832
1.52 76.901 69.039
1.53 77.251 68.942
1.54 75.434 67.715
1.55 75.684 65.183
1.56 --undefined-- 60.990
1.57 --undefined-- 54.631
1.58 --undefined-- 45.801
1.59 --undefined-- 41.397
1.60 --undefined-- 43.456
1.61 --undefined-- 43.109
1.62 --undefined-- 42.974
1.63 --undefined-- 51.945
1.64 --undefined-- 60.104
1.65 90.700 66.090
1.66 91.632 70.164
1.67 91.904 72.456
1.68 91.933 72.988
1.69 92.339 71.623
1.70 91.524 68.538
1.71 91.861 64.670
1.72 94.965 62.270
1.73 96.101 61.795
1.74 97.057 61.186
1.75 98.183 60.148
1.76 99.444 58.490
1.77 101.290 56.173
1.78 102.427 55.208
1.79 103.624 55.849
1.80 104.187 57.841
1.81 106.165 61.215
1.82 105.860 64.128
1.83 106.465 66.240
1.84 107.134 67.940
1.85 109.524 69.721
1.86 111.450 71.324
1.87 111.958 72.256
1.88 112.509 72.551
1.89 114.310 72.277
1.90 117.217 71.130
1.91 121.259 68.726
1.92 123.440 64.566
1.93 --undefined-- 58.049
1.94 --undefined-- 49.270
1.95 --undefined-- 40.604
1.96 --undefined-- 36.186
1.97 --undefined-- 35.427
1.98 --undefined-- 35.012
1.99 --undefined-- 35.057
2.00 --undefined-- 36.209
2.01 --undefined-- 37.166
2.02 --undefined-- 37.808
2.03 --undefined-- 38.703
2.04 --undefined-- 38.922
2.05 --undefined-- 37.499
2.06 --undefined-- 36.392
2.07 --undefined-- 36.948
2.08 --undefined-- 37.334
2.09 --undefined-- 37.060
2.10 --undefined-- 35.885
2.11 --undefined-- 35.084
2.12 --undefined-- 35.953
2.13 --undefined-- 36.312
2.14 --undefined-- 35.786
2.15 --undefined-- 36.393
2.16 --undefined-- 40.170
2.17 --undefined-- 46.448
2.18 --undefined-- 52.514
2.19 150.586 58.348
2.20 149.572 63.840
2.21 148.853 68.216
2.22 147.313 71.117
2.23 145.916 72.673
2.24 144.985 73.212
2.25 142.938 72.986
2.26 140.263 72.234
2.27 132.990 71.310
2.28 124.671 70.407
2.29 117.713 69.085
2.30 110.094 67.481
2.31 104.465 66.725
2.32 98.047 65.661
2.33 92.171 63.135
2.34 87.309 59.458
2.35 86.676 54.814
2.36 --undefined-- 49.858
2.37 --undefined-- 45.290
2.38 --undefined-- 41.294
2.39 --undefined-- 39.908
2.40 --undefined-- 39.670
2.41 --undefined-- 37.796
2.42 --undefined-- 35.671
2.43 --undefined-- 40.536
2.44 --undefined-- 48.925
2.45 100.254 56.344
2.46 99.529 62.474
2.47 100.071 67.531
2.48 101.264 71.418
2.49 101.795 73.986
2.50 101.571 74.998
2.51 101.422 74.029
2.52 --undefined-- 70.542
2.53 --undefined-- 63.850
2.54 --undefined-- 54.197
2.55 --undefined-- 46.536
2.56 --undefined-- 40.347
2.57 --undefined-- 36.481
2.58 --undefined-- 34.681
2.59 --undefined-- 37.037
2.60 --undefined-- 38.443
2.61 --undefined-- 38.566
2.62 --undefined-- 39.553
2.63 --undefined-- 41.487
2.64 --undefined-- 45.973
2.65 --undefined-- 52.344
2.66 --undefined-- 58.224
2.67 --undefined-- 62.636
2.68 --undefined-- 65.004
2.69 --undefined-- 65.540
2.70 --undefined-- 65.081
2.71 --undefined-- 64.116
2.72 --undefined-- 62.718
2.73 --undefined-- 61.621
2.74 --undefined-- 61.251
2.75 --undefined-- 61.349
2.76 --undefined-- 61.179
2.77 --undefined-- 60.087
2.78 --undefined-- 57.913
2.79 --undefined-- 54.467
2.80 --undefined-- 51.995
2.81 --undefined-- 57.816
2.82 --undefined-- 62.613
2.83 --undefined-- 64.389
2.84 --undefined-- 67.236
2.85 --undefined-- 71.384
2.86 --undefined-- 73.549
2.87 97.887 73.933
2.88 100.615 73.086
2.89 101.468 71.621
2.90 101.954 70.556
2.91 102.813 70.149
2.92 103.981 69.992
2.93 104.523 69.437
2.94 103.558 67.597
2.95 102.883 64.073
2.96 107.325 59.956
2.97 108.395 58.215
2.98 108.164 58.157
2.99 108.095 58.065
3.00 107.961 57.668
3.01 107.644 57.043
3.02 106.876 55.925
3.03 --undefined-- 53.735
3.04 --undefined-- 51.522
3.05 --undefined-- 52.003
3.06 --undefined-- 53.571
3.07 --undefined-- 54.554
3.08 --undefined-- 54.909
3.09 --undefined-- 55.193
3.10 --undefined-- 56.038
3.11 --undefined-- 57.116
3.12 --undefined-- 57.362
3.13 --undefined-- 57.341
3.14 --undefined-- 62.713
3.15 --undefined-- 68.820
3.16 --undefined-- 72.057
3.17 --undefined-- 73.208
3.18 --undefined-- 73.346
3.19 91.245 72.779
3.20 88.232 71.690
3.21 86.558 70.876
3.22 86.106 70.566
3.23 85.294 70.281
3.24 84.665 69.799
3.25 84.308 69.053
3.26 84.067 67.915
3.27 83.434 66.171
3.28 82.260 63.734
3.29 82.472 60.757
3.30 82.803 57.926
3.31 82.727 55.252
3.32 --undefined-- 52.569
3.33 --undefined-- 52.097
3.34 86.474 54.229
3.35 84.167 57.846
3.36 83.577 62.193
3.37 80.748 66.212
3.38 75.504 69.059
3.39 --undefined-- 70.434
3.40 --undefined-- 70.252
3.41 --undefined-- 69.147
3.42 --undefined-- 67.895
3.43 --undefined-- 67.066
3.44 --undefined-- 66.869
3.45 75.269 66.998
3.46 75.043 66.911
3.47 74.806 66.669
3.48 74.907 66.608
3.49 87.637 66.309
3.50 87.256 65.050
3.51 85.598 62.179
3.52 --undefined-- 57.130
3.53 --undefined-- 50.445
3.54 --undefined-- 43.491
3.55 --undefined-- 38.956
3.56 --undefined-- 37.693
3.57 --undefined-- 37.262
3.58 --undefined-- 38.121
3.59 --undefined-- 38.547
3.60 --undefined-- 37.966
3.61 --undefined-- 40.239
3.62 --undefined-- 48.008
3.63 --undefined-- 54.856
3.64 91.013 59.818
3.65 90.404 63.207
3.66 89.899 65.899
3.67 92.045 68.411
3.68 93.039 69.965
3.69 94.868 69.842
3.70 95.530 67.893
3.71 96.590 64.429
3.72 105.416 61.486
3.73 104.378 60.918
3.74 102.024 61.694
3.75 --undefined-- 65.173
3.76 --undefined-- 69.277
3.77 --undefined-- 71.397
3.78 90.726 71.601
3.79 89.723 70.867
3.80 84.951 69.449
3.81 80.685 67.499
3.82 79.346 66.368
3.83 77.424 66.151
3.84 75.010 65.298
3.85 --undefined-- 64.126
3.86 --undefined-- 64.116
3.87 --undefined-- 65.805
3.88 --undefined-- 67.715
3.89 86.443 68.687
3.90 75.136 68.986
3.91 75.704 69.392
3.92 75.717 69.965
3.93 76.521 70.334
3.94 79.440 70.446
3.95 79.867 70.345
3.96 84.252 70.104
3.97 86.557 70.314
3.98 89.859 71.046
3.99 90.521 71.492
4.00 88.028 71.011
4.01 --undefined-- 69.144
4.02 --undefined-- 64.975
4.03 --undefined-- 57.355
4.04 --undefined-- 47.192
4.05 --undefined-- 40.087
4.06 --undefined-- 35.398
4.07 --undefined-- 36.862
4.08 --undefined-- 46.130
4.09 --undefined-- 54.567
4.10 --undefined-- 60.752
4.11 82.577 65.032
4.12 81.721 67.906
4.13 81.031 69.223
4.14 79.012 68.685
4.15 76.084 66.151
4.16 --undefined-- 61.641
4.17 --undefined-- 56.641
4.18 --undefined-- 52.089
4.19 --undefined-- 47.666
4.20 --undefined-- 44.495
4.21 --undefined-- 42.665
4.22 --undefined-- 42.428
4.23 --undefined-- 42.404
4.24 --undefined-- 44.226
4.25 --undefined-- 53.659
4.26 --undefined-- 61.987
4.27 88.792 67.005
4.28 88.277 69.337
4.29 85.555 69.553
4.30 80.970 68.191
4.31 79.656 65.722
4.32 78.092 63.323
4.33 77.946 61.608
4.34 76.637 59.531
4.35 --undefined-- 55.933
4.36 --undefined-- 50.412
4.37 --undefined-- 44.760
4.38 --undefined-- 43.320
4.39 --undefined-- 43.167
4.40 --undefined-- 44.796
4.41 --undefined-- 46.922
4.42 --undefined-- 47.336
4.43 --undefined-- 48.774
4.44 --undefined-- 56.801
4.45 --undefined-- 63.925
4.46 102.853 68.336
4.47 99.301 70.460
4.48 95.928 70.936
4.49 93.136 70.348
4.50 90.521 68.956
4.51 87.331 66.839
4.52 88.509 64.840
4.53 88.703 63.931
4.54 87.880 63.390
4.55 87.238 63.139
4.56 85.900 63.280
4.57 83.630 63.407
4.58 80.670 63.337
4.59 77.260 63.170
4.60 --undefined-- 62.855
4.61 --undefined-- 62.479
4.62 --undefined-- 62.435
4.63 77.651 62.733
4.64 79.176 63.179
4.65 79.640 63.642
4.66 84.510 64.077
4.67 88.605 63.550
4.68 89.011 61.111
4.69 --undefined-- 56.864
4.70 --undefined-- 52.388
4.71 --undefined-- 50.462
4.72 --undefined-- 50.794
4.73 --undefined-- 52.027
4.74 --undefined-- 56.462
4.75 --undefined-- 64.222
4.76 --undefined-- 69.712
4.77 --undefined-- 72.246
4.78 94.551 72.714
4.79 84.784 72.001
4.80 85.644 70.237
4.81 75.066 66.750
4.82 --undefined-- 61.549
4.83 --undefined-- 54.433
4.84 --undefined-- 45.670
4.85 --undefined-- 38.876
4.86 --undefined-- 35.746
4.87 --undefined-- 35.087
4.88 --undefined-- 35.550
4.89 --undefined-- 34.565
4.90 --undefined-- 33.781
4.91 --undefined-- 35.368
4.92 --undefined-- 36.622
4.93 --undefined-- 41.259
4.94 --undefined-- 49.596
4.95 90.487 56.856
4.96 80.949 62.392
4.97 --undefined-- 66.015
4.98 76.163 68.027
4.99 --undefined-- 68.783
5.00 --undefined-- 68.298
5.01 --undefined-- 66.683
5.02 76.136 65.429
5.03 75.922 65.139
5.04 --undefined-- 64.526
5.05 81.103 64.113
5.06 82.633 64.352
5.07 80.901 64.867
5.08 81.076 66.059
5.09 81.826 68.072
5.10 82.680 70.273
5.11 82.159 71.685
5.12 81.389 71.887
5.13 79.962 71.338
5.14 77.398 70.633
5.15 77.390 69.899
5.16 77.562 69.311
5.17 77.609 68.048
5.18 77.873 64.984
5.19 --undefined-- 60.104
5.20 --undefined-- 53.820
5.21 --undefined-- 48.039
5.22 --undefined-- 42.981
5.23 --undefined-- 39.289
5.24 --undefined-- 38.615
5.25 --undefined-- 42.556
5.26 --undefined-- 48.180
5.27 86.942 53.691
5.28 84.698 58.738
5.29 82.253 63.190
5.30 80.693 66.926
5.31 79.290 69.465
5.32 78.450 70.334
5.33 78.272 69.770
5.34 80.198 68.475
5.35 82.516 67.169
5.36 85.452 65.533
5.37 --undefined-- 62.173
5.38 --undefined-- 55.818
5.39 --undefined-- 46.217
5.40 --undefined-- 42.876
5.41 --undefined-- 48.563
5.42 --undefined-- 56.121
5.43 --undefined-- 61.861
5.44 102.235 66.007
5.45 101.630 68.780
5.46 99.161 69.828
5.47 96.600 69.523
5.48 94.230 68.910
5.49 92.293 68.999
5.50 88.553 69.471
5.51 82.627 69.571
5.52 78.582 69.157
5.53 --undefined-- 68.206
5.54 --undefined-- 66.932
5.55 --undefined-- 65.927
5.56 --undefined-- 64.723
5.57 --undefined-- 62.474
5.58 --undefined-- 59.269
5.59 --undefined-- 54.801
5.60 --undefined-- 50.200
5.61 --undefined-- 48.007
5.62 --undefined-- 46.112
5.63 --undefined-- 45.216
5.64 --undefined-- 44.712
5.65 --undefined-- 45.978
5.66 --undefined-- 51.036
5.67 --undefined-- --undefined--
5.68 --undefined-- --undefined--
5.69 --undefined-- --undefined--
5.70 --undefined-- --undefined--
