Time Pitch Intensity
0.01 --undefined-- --undefined--
0.02 255.360 --undefined--
0.03 257.036 --undefined--
0.04 --undefined-- --undefined--
0.05 --undefined-- 64.094
0.06 --undefined-- 65.991
0.07 --undefined-- 65.822
0.08 --undefined-- 64.068
0.09 --undefined-- 62.581
0.10 287.117 63.227
0.11 289.668 65.330
0.12 268.763 67.746
0.13 259.417 69.540
0.14 253.991 69.642
0.15 252.831 67.889
0.16 263.690 64.577
0.17 265.443 61.074
0.18 286.329 62.326
0.19 168.129 66.526
0.20 175.341 69.717
0.21 178.716 71.409
0.22 181.355 71.943
0.23 183.723 71.748
0.24 184.940 71.364
0.25 184.240 71.081
0.26 181.976 70.731
0.27 178.072 70.153
0.28 172.774 69.535
0.29 165.209 69.076
0.30 155.438 68.878
0.31 285.883 68.979
0.32 268.700 68.971
0.33 253.612 68.319
0.34 242.390 67.075
0.35 234.468 65.458
0.36 231.756 63.255
0.37 215.107 60.913
0.38 207.483 59.677
0.39 204.985 59.595
0.40 210.050 60.754
0.41 213.920 62.847
0.42 214.864 65.000
0.43 213.583 67.100
0.44 210.278 68.945
0.45 206.766 70.050
0.46 202.939 70.088
0.47 200.782 69.007
0.48 200.057 67.743
0.49 200.884 67.356
0.50 202.581 67.263
0.51 204.647 67.510
0.52 206.482 67.782
0.53 210.633 67.010
0.54 225.426 65.447
0.55 227.082 64.519
0.56 230.127 64.383
0.57 233.272 64.471
0.58 237.244 64.638
0.59 242.138 65.018
0.60 247.091 65.667
0.61 256.063 66.631
0.62 266.146 68.054
0.63 280.511 69.838
0.64 287.850 71.439
0.65 292.660 72.302
0.66 297.775 72.295
0.67 151.876 71.759
0.68 153.699 71.154
0.69 154.744 70.576
0.70 154.675 69.994
0.71 154.315 69.361
0.72 154.281 68.761
0.73 155.284 68.405
0.74 157.037 68.235
0.75 158.751 68.049
0.76 159.864 67.662
0.77 158.333 66.667
0.78 154.958 64.619
0.79 297.463 61.140
0.80 292.279 56.026
0.81 298.679 50.660
0.82 --undefined-- 50.761
0.83 --undefined-- 52.820
0.84 --undefined-- 52.943
0.85 --undefined-- 53.679
0.86 --undefined-- 54.235
0.87 --undefined-- 51.784
0.88 --undefined-- 47.193
0.89 --undefined-- 46.263
0.90 --undefined-- 50.099
0.91 --undefined-- 57.246
0.92 167.072 63.176
0.93 164.655 66.472
0.94 162.685 67.945
0.95 161.432 68.414
0.96 160.959 68.383
0.97 160.983 68.036
0.98 161.645 67.374
0.99 162.431 66.498
1.00 159.519 66.485
1.01 162.747 67.926
1.02 163.781 69.183
1.03 164.119 69.721
1.04 164.402 69.900
1.05 164.463 69.934
1.06 164.149 69.816
1.07 163.341 69.568
1.08 162.846 69.198
1.09 162.052 68.685
1.10 161.275 68.181
1.11 159.683 67.889
1.12 158.521 67.744
1.13 157.974 67.565
1.14 157.151 67.383
1.15 156.124 67.123
1.16 154.581 66.600
1.17 153.265 65.728
1.18 153.326 64.069
1.19 152.677 60.818
1.20 --undefined-- 56.879
1.21 --undefined-- 57.564
1.22 --undefined-- 60.716
1.23 260.270 63.222
1.24 240.563 64.438
1.25 226.968 65.084
1.26 218.561 65.867
1.27 211.664 66.711
1.28 205.109 67.412
1.29 201.588 67.889
1.30 197.930 68.094
1.31 195.427 68.216
1.32 195.366 68.040
1.33 196.022 67.433
1.34 196.720 66.790
1.35 196.310 66.280
1.36 195.555 65.736
1.37 194.932 65.091
1.38 194.161 64.501
1.39 194.265 64.195
1.40 194.603 64.187
1.41 194.864 64.231
1.42 195.046 63.863
1.43 191.471 62.411
1.44 183.906 59.434
1.45 195.005 55.547
1.46 195.359 52.356
1.47 --undefined-- 52.370
1.48 298.715 54.444
1.49 277.108 56.520
1.50 256.239 56.827
1.51 277.672 54.833
1.52 252.959 54.939
1.53 212.351 58.843
1.54 209.741 61.665
1.55 201.971 63.108
1.56 185.394 64.090
1.57 175.925 65.523
1.58 159.183 66.515
1.59 152.868 66.192
1.60 --undefined-- 64.717
1.61 --undefined-- 63.181
1.62 --undefined-- 62.730
1.63 --undefined-- 62.177
1.64 75.710 61.101
1.65 75.783 59.654
1.66 --undefined-- 56.954
1.67 --undefined-- 53.988
1.68 --undefined-- 53.611
1.69 --undefined-- 55.043
1.70 --undefined-- 56.208
1.71 --undefined-- 55.459
1.72 --undefined-- 54.665
1.73 241.943 57.795
1.74 240.866 60.949
1.75 239.776 62.552
1.76 243.850 63.369
1.77 247.188 63.932
1.78 246.929 64.341
1.79 248.459 64.620
1.80 253.567 64.694
1.81 256.848 64.863
1.82 259.377 65.773
1.83 261.031 66.823
1.84 259.792 66.290
1.85 254.752 64.467
1.86 258.677 64.160
1.87 267.439 63.883
1.88 268.868 61.913
1.89 268.967 58.931
1.90 282.750 59.726
1.91 282.119 64.113
1.92 271.083 66.572
1.93 257.931 67.315
1.94 245.795 67.095
1.95 238.725 66.421
1.96 236.105 66.112
1.97 235.906 66.456
1.98 238.070 66.697
1.99 243.495 66.141
2.00 246.736 64.716
2.01 241.853 63.105
2.02 231.483 62.000
2.03 220.066 61.771
2.04 215.946 62.750
2.05 213.774 63.860
2.06 198.126 64.472
2.07 186.923 65.260
2.08 180.079 65.795
2.09 167.562 65.519
2.10 167.765 64.832
2.11 175.175 64.220
2.12 177.551 63.648
2.13 180.631 62.046
2.14 173.916 58.396
2.15 --undefined-- 52.920
2.16 --undefined-- 48.943
2.17 --undefined-- 52.268
2.18 --undefined-- 58.167
2.19 213.545 61.911
2.20 212.373 63.991
2.21 212.052 64.985
2.22 214.378 65.077
2.23 218.938 64.684
2.24 222.636 64.161
2.25 228.014 63.522
2.26 232.634 63.045
2.27 236.347 62.527
2.28 237.490 61.896
2.29 242.352 62.340
2.30 247.054 63.090
2.31 243.314 62.840
2.32 237.411 61.454
2.33 229.576 58.381
2.34 --undefined-- 53.532
2.35 --undefined-- 49.994
2.36 --undefined-- 48.919
2.37 --undefined-- 49.421
2.38 --undefined-- 51.147
2.39 --undefined-- 53.163
2.40 --undefined-- 54.920
2.41 264.610 58.686
2.42 258.419 63.318
2.43 252.855 66.212
2.44 250.200 67.285
2.45 244.618 66.903
2.46 238.256 65.605
2.47 237.071 64.035
2.48 238.196 63.226
2.49 246.327 63.495
2.50 249.508 63.696
2.51 250.117 63.590
2.52 250.752 63.520
2.53 251.735 63.605
2.54 252.198 63.772
2.55 252.729 63.567
2.56 252.499 62.927
2.57 251.908 62.249
2.58 249.090 61.431
2.59 244.157 60.361
2.60 237.477 59.409
2.61 232.861 58.581
2.62 227.837 57.990
2.63 226.289 58.118
2.64 231.817 58.733
2.65 236.348 59.736
2.66 232.741 61.322
2.67 211.849 63.769
2.68 --undefined-- 66.514
2.69 --undefined-- 68.829
2.70 --undefined-- 70.078
2.71 --undefined-- 70.311
2.72 --undefined-- 70.505
2.73 --undefined-- 70.287
2.74 114.679 69.307
2.75 100.316 67.575
2.76 --undefined-- 65.479
2.77 --undefined-- 64.358
2.78 --undefined-- 63.201
2.79 --undefined-- 61.762
2.80 --undefined-- 62.063
2.81 --undefined-- 64.017
2.82 --undefined-- 66.480
2.83 --undefined-- 68.461
2.84 179.268 69.921
2.85 182.126 70.600
2.86 185.962 70.696
2.87 184.630 70.627
2.88 183.885 70.506
2.89 182.974 70.363
2.90 180.861 70.171
2.91 177.423 69.782
2.92 173.165 69.005
2.93 166.076 67.757
2.94 161.862 66.122
2.95 154.192 63.736
2.96 152.250 60.219
2.97 --undefined-- 55.577
2.98 --undefined-- 51.159
2.99 --undefined-- 50.021
3.00 --undefined-- 49.951
3.01 --undefined-- 50.578
3.02 --undefined-- 50.191
3.03 --undefined-- 49.070
3.04 --undefined-- 51.011
3.05 --undefined-- 52.580
3.06 --undefined-- 52.896
3.07 --undefined-- 52.832
3.08 --undefined-- 52.378
3.09 --undefined-- 50.717
3.10 --undefined-- 48.709
3.11 --undefined-- 49.539
3.12 --undefined-- 50.625
3.13 --undefined-- 50.451
3.14 --undefined-- 49.373
3.15 --undefined-- 47.964
3.16 --undefined-- 47.787
3.17 --undefined-- 49.325
3.18 --undefined-- 50.447
3.19 --undefined-- 51.134
3.20 --undefined-- 51.833
3.21 --undefined-- 51.650
3.22 --undefined-- 50.639
3.23 --undefined-- 49.092
3.24 --undefined-- 46.946
3.25 --undefined-- 46.400
3.26 --undefined-- 47.268
3.27 --undefined-- 46.550
3.28 --undefined-- 44.761
3.29 --undefined-- 44.727
3.30 --undefined-- 46.618
3.31 --undefined-- 47.696
3.32 --undefined-- 46.716
3.33 --undefined-- 46.122
3.34 --undefined-- 49.099
3.35 --undefined-- 56.135
3.36 267.071 63.271
3.37 267.159 68.693
3.38 258.895 72.089
3.39 258.797 73.666
3.40 260.454 73.898
3.41 263.274 73.311
3.42 266.602 72.137
3.43 268.292 70.002
3.44 268.648 66.454
3.45 262.899 61.746
3.46 261.678 58.618
3.47 267.469 58.260
3.48 274.081 57.863
3.49 287.932 59.175
3.50 290.004 60.876
3.51 --undefined-- 62.148
3.52 --undefined-- 63.354
3.53 --undefined-- 61.783
3.54 --undefined-- 56.229
3.55 --undefined-- 49.281
3.56 --undefined-- 49.688
3.57 286.894 53.763
3.58 --undefined-- 58.310
3.59 167.383 62.957
3.60 168.578 66.568
3.61 165.588 68.453
3.62 165.016 69.318
3.63 166.584 69.901
3.64 167.152 70.153
3.65 168.102 69.808
3.66 169.854 68.916
3.67 172.146 67.724
3.68 175.390 66.932
3.69 177.354 66.632
3.70 177.628 66.578
3.71 176.791 67.242
3.72 175.000 68.111
3.73 172.129 68.348
3.74 167.860 67.410
3.75 161.222 64.722
3.76 159.373 60.582
3.77 --undefined-- 58.311
3.78 --undefined-- 58.409
3.79 --undefined-- 57.730
3.80 266.564 58.398
3.81 239.788 61.370
3.82 235.658 63.209
3.83 224.796 63.911
3.84 213.692 63.611
3.85 211.194 62.209
3.86 200.988 59.829
3.87 189.031 56.669
3.88 174.996 53.046
3.89 --undefined-- 51.184
3.90 --undefined-- 54.597
3.91 --undefined-- 58.458
3.92 --undefined-- 60.962
3.93 185.950 63.780
3.94 180.777 66.323
3.95 175.490 67.454
3.96 172.239 67.598
3.97 171.758 67.878
3.98 173.180 68.181
3.99 178.351 67.739
4.00 183.240 66.294
4.01 187.449 63.896
4.02 186.525 60.516
4.03 185.017 56.318
4.04 182.446 52.467
4.05 --undefined-- 50.176
4.06 --undefined-- 53.024
4.07 235.836 58.543
4.08 221.890 62.015
4.09 215.522 63.416
4.10 209.557 64.159
4.11 206.414 64.883
4.12 203.463 65.173
4.13 199.684 64.846
4.14 194.688 64.313
4.15 192.376 64.008
4.16 189.299 63.572
4.17 182.197 62.372
4.18 178.658 59.419
4.19 186.583 54.710
4.20 --undefined-- 50.163
4.21 --undefined-- 49.032
4.22 --undefined-- 49.744
4.23 --undefined-- 50.035
4.24 --undefined-- 54.185
4.25 193.693 58.935
4.26 193.774 61.510
4.27 188.901 62.766
4.28 183.643 63.288
4.29 180.595 63.098
4.30 177.850 62.363
4.31 177.324 61.879
4.32 186.240 62.255
4.33 185.893 62.649
4.34 184.194 62.594
4.35 182.974 62.231
4.36 180.203 61.290
4.37 174.778 59.244
4.38 168.459 56.765
4.39 --undefined-- 56.333
4.40 --undefined-- 56.998
4.41 --undefined-- 58.852
4.42 172.151 61.874
4.43 168.153 64.146
4.44 164.082 65.390
4.45 162.773 65.905
4.46 160.953 65.808
4.47 159.333 65.491
4.48 159.595 65.173
4.49 162.226 65.035
4.50 165.253 65.201
4.51 167.475 65.331
4.52 168.759 65.304
4.53 170.491 65.094
4.54 172.827 63.899
4.55 170.699 60.946
4.56 --undefined-- 57.131
4.57 --undefined-- 54.566
4.58 --undefined-- 51.407
4.59 --undefined-- 48.645
4.60 --undefined-- 51.935
4.61 --undefined-- 56.220
4.62 --undefined-- 59.868
4.63 224.319 62.741
4.64 219.864 64.707
4.65 221.545 66.161
4.66 223.481 67.641
4.67 224.690 68.695
4.68 225.229 68.957
4.69 226.582 68.614
4.70 228.499 67.796
4.71 229.686 66.770
4.72 230.434 66.194
4.73 231.256 66.125
4.74 232.227 66.132
4.75 232.846 65.950
4.76 233.189 65.524
4.77 233.134 64.845
4.78 235.931 64.372
4.79 242.408 64.374
4.80 240.771 63.882
4.81 234.279 61.908
4.82 220.497 58.265
4.83 --undefined-- 55.826
4.84 --undefined-- 56.719
4.85 --undefined-- 57.424
4.86 --undefined-- 58.685
4.87 230.865 62.125
4.88 211.610 65.090
4.89 202.447 67.021
4.90 193.698 67.863
4.91 183.989 67.898
4.92 181.398 67.692
4.93 179.257 67.138
4.94 177.437 65.839
4.95 176.159 63.622
4.96 169.208 60.001
4.97 162.789 54.600
4.98 --undefined-- 48.924
4.99 --undefined-- --undefined--
5.00 --undefined-- --undefined--
5.01 --undefined-- --undefined--
5.02 --undefined-- --undefined--
