Time Pitch Intensity
0.01 --undefined-- --undefined--
0.02 208.891 --undefined--
0.03 203.253 --undefined--
0.04 196.816 --undefined--
0.05 188.604 78.634
0.06 178.647 77.435
0.07 168.889 76.226
0.08 159.535 75.149
0.09 151.459 74.307
0.10 143.842 73.383
0.11 137.638 72.021
0.12 132.398 70.358
0.13 129.405 68.974
0.14 127.348 68.089
0.15 122.793 66.940
0.16 124.288 65.100
0.17 121.085 62.164
0.18 --undefined-- 57.980
0.19 --undefined-- 53.831
0.20 --undefined-- 51.101
0.21 --undefined-- 49.386
0.22 --undefined-- 48.347
0.23 --undefined-- 47.149
0.24 --undefined-- 45.283
0.25 --undefined-- 43.682
0.26 --undefined-- 42.309
0.27 --undefined-- 40.450
0.28 --undefined-- 38.602
0.29 --undefined-- 37.312
0.30 --undefined-- 36.015
0.31 --undefined-- 35.102
0.32 --undefined-- 34.887
0.33 --undefined-- 35.434
0.34 --undefined-- 36.318
0.35 --undefined-- 36.622
0.36 --undefined-- 36.518
0.37 --undefined-- 43.101
0.38 --undefined-- 51.493
0.39 --undefined-- 56.333
0.40 --undefined-- 59.077
0.41 110.976 61.963
0.42 118.492 65.631
0.43 132.770 68.445
0.44 132.093 69.895
0.45 128.453 70.699
0.46 131.204 71.192
0.47 129.161 71.167
0.48 125.607 70.953
0.49 126.450 71.008
0.50 124.988 70.912
0.51 120.702 70.326
0.52 119.672 69.874
0.53 118.847 69.783
0.54 118.913 69.807
0.55 118.388 69.915
0.56 117.902 69.867
0.57 117.551 69.245
0.58 117.940 68.001
0.59 119.151 66.441
0.60 121.528 64.880
0.61 127.219 63.708
0.62 133.755 63.343
0.63 140.276 63.841
0.64 148.111 65.752
0.65 159.765 68.948
0.66 170.586 72.055
0.67 183.152 74.160
0.68 195.163 75.276
0.69 205.721 75.905
0.70 212.148 76.254
0.71 214.101 76.443
0.72 212.495 76.531
0.73 209.681 76.344
0.74 206.021 75.835
0.75 201.133 75.208
0.76 196.253 74.756
0.77 192.192 74.707
0.78 186.325 75.197
0.79 181.607 76.201
0.80 176.847 77.054
0.81 170.518 77.492
0.82 162.562 78.246
0.83 155.547 79.106
0.84 144.189 79.096
0.85 138.536 78.051
0.86 135.030 75.865
0.87 127.283 72.962
0.88 119.378 70.878
0.89 114.088 69.093
0.90 112.200 66.280
0.91 120.138 62.926
0.92 --undefined-- 59.209
0.93 --undefined-- 54.754
0.94 --undefined-- 50.261
0.95 --undefined-- 46.892
0.96 --undefined-- 46.569
0.97 --undefined-- 46.469
0.98 --undefined-- 46.450
0.99 --undefined-- 47.889
1.00 --undefined-- 49.709
1.01 --undefined-- 51.417
1.02 --undefined-- 52.582
1.03 --undefined-- 53.049
1.04 --undefined-- 52.512
1.05 --undefined-- 50.833
1.06 --undefined-- 49.135
1.07 --undefined-- 47.868
1.08 --undefined-- 45.974
1.09 --undefined-- 43.245
1.10 --undefined-- 40.155
1.11 --undefined-- 37.205
1.12 --undefined-- 36.579
1.13 --undefined-- 36.964
1.14 --undefined-- 36.505
1.15 --undefined-- 37.016
1.16 --undefined-- 37.948
1.17 --undefined-- 38.380
1.18 --undefined-- 37.789
1.19 --undefined-- 36.890
1.20 --undefined-- 37.077
1.21 --undefined-- 37.527
1.22 --undefined-- 38.024
1.23 --undefined-- 38.684
1.24 --undefined-- 38.258
1.25 --undefined-- 36.650
1.26 --undefined-- 35.744
1.27 --undefined-- 37.449
1.28 --undefined-- 40.375
1.29 --undefined-- 42.264
1.30 --undefined-- 48.076
1.31 --undefined-- 57.809
1.32 173.820 64.408
1.33 154.299 68.268
1.34 133.386 70.455
1.35 131.528 71.818
1.36 132.895 72.961
1.37 137.308 73.881
1.38 138.580 74.312
1.39 136.295 74.476
1.40 137.258 74.735
1.41 137.978 74.996
1.42 138.978 75.079
1.43 141.257 75.058
1.44 145.024 75.417
1.45 147.057 76.168
1.46 150.036 76.990
1.47 151.895 77.647
1.48 152.291 77.939
1.49 160.524 77.827
1.50 166.846 77.363
1.51 168.643 76.543
1.52 167.328 74.827
1.53 158.266 71.556
1.54 149.943 66.546
1.55 152.548 61.925
1.56 --undefined-- 64.519
1.57 --undefined-- 69.048
1.58 217.496 72.922
1.59 200.908 75.482
1.60 195.402 76.756
1.61 190.130 77.675
1.62 188.459 78.479
1.63 187.513 78.684
1.64 187.693 78.096
1.65 188.109 76.893
1.66 188.783 75.647
1.67 191.226 75.026
1.68 192.380 74.713
1.69 192.070 74.458
1.70 189.741 74.733
1.71 187.964 75.122
1.72 184.043 74.828
1.73 177.279 73.329
1.74 164.034 70.135
1.75 151.000 65.103
1.76 --undefined-- 58.933
1.77 --undefined-- 52.115
1.78 --undefined-- 49.974
1.79 --undefined-- 52.113
1.80 --undefined-- 53.888
1.81 --undefined-- 55.375
1.82 --undefined-- 56.091
1.83 --undefined-- 55.953
1.84 --undefined-- 60.955
1.85 227.765 68.504
1.86 209.912 73.307
1.87 194.820 75.966
1.88 187.572 77.138
1.89 183.098 77.389
1.90 181.715 77.274
1.91 179.329 76.613
1.92 173.277 75.008
1.93 158.290 72.616
1.94 147.824 69.562
1.95 143.883 65.222
1.96 --undefined-- 59.071
1.97 --undefined-- 51.886
1.98 --undefined-- 47.483
1.99 --undefined-- 49.223
2.00 --undefined-- 57.505
2.01 175.967 65.455
2.02 152.493 70.308
2.03 141.775 72.822
2.04 139.628 73.844
2.05 136.892 73.912
2.06 135.696 73.334
2.07 135.245 72.126
2.08 134.090 69.780
2.09 122.783 65.703
2.10 113.038 60.049
2.11 --undefined-- 53.443
2.12 --undefined-- 46.146
2.13 --undefined-- 46.079
2.14 --undefined-- 55.265
2.15 --undefined-- 64.596
2.16 --undefined-- 70.446
2.17 148.152 73.323
2.18 145.817 74.107
2.19 134.405 73.775
2.20 128.605 73.348
2.21 124.262 73.268
2.22 122.275 73.237
2.23 121.679 72.660
2.24 121.638 70.954
2.25 119.879 67.347
2.26 --undefined-- 61.028
2.27 --undefined-- 51.901
2.28 --undefined-- 43.831
2.29 --undefined-- 41.008
2.30 --undefined-- 41.620
2.31 --undefined-- 46.127
2.32 --undefined-- 51.514
2.33 --undefined-- 54.620
2.34 --undefined-- 54.871
2.35 --undefined-- 54.173
2.36 --undefined-- 59.406
2.37 137.852 64.471
2.38 128.572 66.791
2.39 121.700 67.140
2.40 114.554 66.885
2.41 111.895 66.801
2.42 107.428 66.749
2.43 110.021 66.845
2.44 113.066 67.107
2.45 116.585 67.367
2.46 119.038 67.289
2.47 117.266 66.449
2.48 113.320 64.844
2.49 111.944 62.550
2.50 --undefined-- 60.659
2.51 --undefined-- 64.059
2.52 140.779 68.173
2.53 139.691 70.476
2.54 134.081 71.634
2.55 133.901 72.334
2.56 133.941 72.517
2.57 133.553 72.283
2.58 134.325 71.961
2.59 134.468 71.448
2.60 135.989 70.455
2.61 139.032 68.733
2.62 136.481 65.402
2.63 138.240 60.404
2.64 --undefined-- 54.843
2.65 --undefined-- 47.930
2.66 --undefined-- 41.171
2.67 --undefined-- 38.848
2.68 --undefined-- 46.582
2.69 --undefined-- 57.278
2.70 --undefined-- 64.798
2.71 --undefined-- 69.297
2.72 143.554 71.356
2.73 144.910 72.149
2.74 142.600 72.752
2.75 141.112 73.375
2.76 140.275 73.704
2.77 139.848 73.523
2.78 139.581 72.959
2.79 139.131 72.250
2.80 139.151 71.629
2.81 140.179 71.235
2.82 141.712 70.867
2.83 143.172 69.724
2.84 142.778 66.571
2.85 132.448 60.679
2.86 --undefined-- 53.196
2.87 --undefined-- 47.984
2.88 --undefined-- 49.717
2.89 --undefined-- 58.735
2.90 203.723 66.824
2.91 187.613 71.731
2.92 179.141 74.185
2.93 173.856 75.188
2.94 170.167 75.692
2.95 168.237 76.031
2.96 167.807 75.950
2.97 168.659 75.520
2.98 171.850 75.030
2.99 175.183 74.322
3.00 176.255 73.432
3.01 174.319 72.794
3.02 172.240 72.129
3.03 170.943 70.444
3.04 163.453 66.849
3.05 148.841 61.392
3.06 145.902 55.337
3.07 --undefined-- 50.102
3.08 --undefined-- 50.465
3.09 --undefined-- 54.434
3.10 --undefined-- 57.491
3.11 --undefined-- 59.320
3.12 --undefined-- 60.179
3.13 --undefined-- 59.815
3.14 --undefined-- 58.168
3.15 --undefined-- 57.080
3.16 --undefined-- 62.047
3.17 151.476 67.053
3.18 133.450 69.271
3.19 122.091 69.480
3.20 116.357 68.944
3.21 112.126 68.619
3.22 107.010 68.689
3.23 109.067 69.044
3.24 110.431 69.387
3.25 110.572 69.515
3.26 112.111 69.506
3.27 114.294 69.441
3.28 116.938 69.278
3.29 117.090 68.620
3.30 114.350 66.731
3.31 --undefined-- 62.868
3.32 --undefined-- 56.524
3.33 --undefined-- 49.877
3.34 --undefined-- 54.822
3.35 --undefined-- 60.022
3.36 --undefined-- 63.827
3.37 172.851 68.712
3.38 147.755 73.071
3.39 144.181 76.099
3.40 143.180 77.875
3.41 142.072 78.355
3.42 139.971 77.845
3.43 137.692 77.139
3.44 134.969 76.377
3.45 133.637 75.006
3.46 --undefined-- 72.962
3.47 214.524 70.202
3.48 209.566 66.838
3.49 197.735 63.283
3.50 192.576 59.112
3.51 --undefined-- 53.073
3.52 --undefined-- 45.817
3.53 --undefined-- 51.557
3.54 164.244 58.994
3.55 157.954 63.989
3.56 141.845 67.257
3.57 140.379 69.070
3.58 133.445 69.551
3.59 128.827 69.268
3.60 122.657 68.781
3.61 117.345 68.104
3.62 115.292 67.317
3.63 112.002 66.404
3.64 107.649 65.961
3.65 111.173 66.967
3.66 113.855 68.368
3.67 116.448 69.111
3.68 118.166 69.236
3.69 121.235 69.017
3.70 120.558 68.299
3.71 119.921 66.835
3.72 115.997 64.437
3.73 110.203 60.956
3.74 102.355 56.519
3.75 --undefined-- 51.501
3.76 --undefined-- 47.560
3.77 --undefined-- 49.489
3.78 --undefined-- 57.990
3.79 --undefined-- 64.843
3.80 141.207 68.558
3.81 138.548 69.999
3.82 133.792 70.511
3.83 129.683 70.946
3.84 127.414 71.285
3.85 126.543 71.501
3.86 125.685 71.578
3.87 125.204 71.541
3.88 128.938 71.714
3.89 130.250 71.755
3.90 128.480 70.777
3.91 125.715 68.792
3.92 126.859 66.785
3.93 126.704 65.799
3.94 125.371 66.370
3.95 126.655 68.048
3.96 130.839 69.673
3.97 130.067 70.583
3.98 129.884 70.975
3.99 130.032 71.147
4.00 127.785 70.619
4.01 126.602 68.725
4.02 --undefined-- 64.785
4.03 --undefined-- 58.489
4.04 --undefined-- 51.211
4.05 --undefined-- 45.336
4.06 --undefined-- 44.912
4.07 --undefined-- 47.352
4.08 --undefined-- 50.715
4.09 --undefined-- 56.785
4.10 158.476 61.402
4.11 144.330 63.692
4.12 124.447 65.000
4.13 123.411 66.296
4.14 127.537 67.599
4.15 133.022 68.638
4.16 139.584 69.596
4.17 143.549 70.826
4.18 144.002 72.042
4.19 144.252 72.546
4.20 143.851 71.989
4.21 140.007 69.957
4.22 132.904 65.993
4.23 --undefined-- 60.433
4.24 --undefined-- 55.009
4.25 --undefined-- 49.386
4.26 --undefined-- 43.539
4.27 --undefined-- 44.892
4.28 --undefined-- 49.012
4.29 --undefined-- 54.037
4.30 --undefined-- 59.217
4.31 140.685 62.905
4.32 130.513 65.049
4.33 126.820 66.511
4.34 122.459 67.606
4.35 124.081 68.299
4.36 123.991 68.473
4.37 123.336 68.440
4.38 123.081 68.582
4.39 122.945 68.902
4.40 122.279 69.228
4.41 121.939 69.472
4.42 123.166 69.699
4.43 125.377 70.047
4.44 129.336 70.682
4.45 133.322 71.730
4.46 136.269 72.857
4.47 140.649 73.441
4.48 151.215 73.358
4.49 153.861 73.241
4.50 164.353 73.233
4.51 168.530 72.917
4.52 173.458 72.237
4.53 185.077 71.456
4.54 186.491 70.415
4.55 185.417 68.786
4.56 184.191 66.733
4.57 --undefined-- 64.514
4.58 290.991 61.428
4.59 287.879 56.987
4.60 --undefined-- 50.704
4.61 --undefined-- 43.541
4.62 --undefined-- 39.064
4.63 --undefined-- 38.825
4.64 --undefined-- 39.688
4.65 --undefined-- 38.713
4.66 --undefined-- 35.500
4.67 --undefined-- 33.869
4.68 --undefined-- 35.978
4.69 --undefined-- 36.810
4.70 --undefined-- 35.414
4.71 --undefined-- 34.105
4.72 --undefined-- 34.613
4.73 --undefined-- 36.253
4.74 --undefined-- 37.432
4.75 --undefined-- 36.836
4.76 --undefined-- 34.910
4.77 --undefined-- 33.695
4.78 --undefined-- 34.236
4.79 --undefined-- 35.256
4.80 --undefined-- 36.018
4.81 --undefined-- 36.457
4.82 --undefined-- 36.957
4.83 --undefined-- 37.229
4.84 --undefined-- 37.290
4.85 --undefined-- 37.106
4.86 --undefined-- 36.773
4.87 --undefined-- 36.953
4.88 --undefined-- 37.439
4.89 --undefined-- 37.383
4.90 --undefined-- 37.598
4.91 --undefined-- 37.795
4.92 --undefined-- 37.472
4.93 --undefined-- 37.087
4.94 --undefined-- 37.358
4.95 --undefined-- 38.860
4.96 --undefined-- 39.800
4.97 --undefined-- 38.913
4.98 --undefined-- 38.930
4.99 --undefined-- 42.397
5.00 --undefined-- 45.009
5.01 --undefined-- 47.036
5.02 --undefined-- 55.430
5.03 --undefined-- 61.880
5.04 --undefined-- 63.964
5.05 --undefined-- 63.007
5.06 --undefined-- 67.022
5.07 201.486 72.743
5.08 188.025 75.518
5.09 184.702 76.223
5.10 188.779 76.682
5.11 196.529 77.246
5.12 197.825 76.091
5.13 192.668 72.230
5.14 165.962 68.021
5.15 189.926 72.427
5.16 199.260 77.878
5.17 198.217 80.509
5.18 190.204 80.594
5.19 180.107 79.006
5.20 172.014 76.590
5.21 159.906 72.927
5.22 140.918 67.766
5.23 139.269 62.602
5.24 --undefined-- 59.116
5.25 --undefined-- 61.481
5.26 --undefined-- 65.061
5.27 --undefined-- 67.448
5.28 206.527 71.680
5.29 195.233 75.027
5.30 185.328 76.767
5.31 180.069 78.014
5.32 176.091 78.775
5.33 174.146 78.599
5.34 173.218 76.926
5.35 171.015 72.874
5.36 148.222 66.279
5.37 140.224 58.516
5.38 --undefined-- 51.369
5.39 --undefined-- 46.121
5.40 --undefined-- 43.935
5.41 --undefined-- 44.450
5.42 --undefined-- 48.220
5.43 --undefined-- 56.952
5.44 --undefined-- 66.929
5.45 253.431 73.668
5.46 232.402 77.524
5.47 223.225 79.135
5.48 215.830 78.689
5.49 209.075 76.016
5.50 --undefined-- 71.042
5.51 --undefined-- 64.225
5.52 --undefined-- 56.192
5.53 --undefined-- 56.135
5.54 239.540 62.007
5.55 217.416 65.634
5.56 176.718 68.417
5.57 167.731 69.736
5.58 158.231 69.132
5.59 136.510 68.032
5.60 135.964 68.233
5.61 140.168 69.776
5.62 149.259 71.472
5.63 145.318 72.262
5.64 138.067 71.987
5.65 131.543 70.992
5.66 122.847 --undefined--
5.67 116.994 --undefined--
5.68 --undefined-- --undefined--
5.69 --undefined-- --undefined--
