Time Pitch Intensity
0.01 --undefined-- --undefined--
0.02 178.080 --undefined--
0.03 181.913 --undefined--
0.04 183.405 --undefined--
0.05 179.834 75.315
0.06 172.475 74.007
0.07 163.738 72.118
0.08 163.583 71.498
0.09 162.874 71.044
0.10 159.535 69.507
0.11 155.592 67.664
0.12 166.987 68.305
0.13 179.343 70.800
0.14 184.218 73.521
0.15 183.964 75.193
0.16 182.710 75.321
0.17 181.251 74.546
0.18 179.779 74.076
0.19 178.029 73.795
0.20 175.020 72.884
0.21 171.492 71.337
0.22 169.266 69.425
0.23 164.440 67.100
0.24 151.782 64.672
0.25 170.934 62.328
0.26 171.328 59.350
0.27 --undefined-- 55.989
0.28 --undefined-- 59.639
0.29 --undefined-- 65.189
0.30 255.789 68.730
0.31 243.990 70.463
0.32 237.352 70.745
0.33 236.374 70.377
0.34 237.672 69.653
0.35 238.115 67.670
0.36 233.398 63.708
0.37 234.901 58.681
0.38 --undefined-- 55.836
0.39 --undefined-- 56.378
0.40 --undefined-- 59.622
0.41 --undefined-- 60.791
0.42 225.292 59.600
0.43 224.736 59.901
0.44 217.386 62.337
0.45 222.827 63.988
0.46 225.819 64.995
0.47 211.214 65.673
0.48 188.756 65.460
0.49 176.124 64.745
0.50 169.670 64.242
0.51 164.477 62.913
0.52 160.380 61.458
0.53 160.841 61.396
0.54 165.807 61.870
0.55 172.841 63.088
0.56 181.768 64.742
0.57 187.890 65.743
0.58 199.046 66.438
0.59 224.015 67.249
0.60 236.304 67.105
0.61 243.106 65.914
0.62 249.614 65.092
0.63 258.280 65.701
0.64 268.250 67.871
0.65 280.036 70.315
0.66 285.688 71.637
0.67 288.331 72.009
0.68 289.836 72.121
0.69 289.567 72.079
0.70 288.202 71.913
0.71 285.645 71.757
0.72 281.614 71.512
0.73 276.684 70.811
0.74 269.937 69.183
0.75 256.246 66.305
0.76 238.764 63.314
0.77 247.240 61.219
0.78 262.937 60.815
0.79 261.810 62.845
0.80 226.939 65.161
0.81 204.245 67.610
0.82 190.518 69.203
0.83 176.674 69.298
0.84 165.854 68.404
0.85 160.005 67.956
0.86 158.549 67.841
0.87 158.200 66.955
0.88 157.858 65.607
0.89 159.673 64.773
0.90 164.165 64.739
0.91 167.059 65.017
0.92 171.106 64.807
0.93 175.766 64.659
0.94 184.226 65.604
0.95 190.491 66.897
0.96 198.343 67.178
0.97 210.002 66.438
0.98 218.578 66.198
0.99 222.269 66.533
1.00 222.843 65.927
1.01 214.744 63.570
1.02 209.777 59.511
1.03 231.503 59.672
1.04 236.249 63.184
1.05 244.150 64.844
1.06 243.174 66.650
1.07 220.274 69.091
1.08 205.965 70.360
1.09 195.905 70.825
1.10 190.389 71.760
1.11 190.264 72.929
1.12 192.434 73.522
1.13 196.518 73.445
1.14 200.308 73.039
1.15 201.371 72.680
1.16 200.125 72.540
1.17 196.784 72.515
1.18 194.234 73.746
1.19 191.744 75.969
1.20 179.454 77.256
1.21 173.185 77.597
1.22 170.915 77.457
1.23 169.282 76.925
1.24 169.112 76.312
1.25 168.118 75.629
1.26 166.508 73.868
1.27 168.593 70.533
1.28 168.847 66.286
1.29 167.120 62.149
1.30 169.310 59.434
1.31 --undefined-- 58.391
1.32 --undefined-- 57.332
1.33 --undefined-- 56.626
1.34 --undefined-- 55.864
1.35 --undefined-- 54.491
1.36 --undefined-- 53.428
1.37 --undefined-- 53.304
1.38 --undefined-- 53.134
1.39 --undefined-- 53.984
1.40 --undefined-- 56.231
1.41 --undefined-- 57.952
1.42 --undefined-- 58.986
1.43 285.614 58.640
1.44 284.797 59.031
1.45 --undefined-- 60.778
1.46 --undefined-- 60.867
1.47 --undefined-- 58.669
1.48 --undefined-- 55.653
1.49 --undefined-- 56.542
1.50 --undefined-- 59.150
1.51 267.750 59.367
1.52 265.344 57.341
1.53 --undefined-- 55.450
1.54 --undefined-- 54.406
1.55 --undefined-- 54.257
1.56 --undefined-- 53.415
1.57 --undefined-- 53.925
1.58 --undefined-- 56.675
1.59 --undefined-- 57.673
1.60 --undefined-- 57.640
1.61 280.143 60.374
1.62 254.545 63.939
1.63 248.900 66.630
1.64 258.260 69.338
1.65 268.263 71.774
1.66 285.410 73.675
1.67 152.712 75.036
1.68 159.914 75.694
1.69 171.215 75.726
1.70 177.910 75.505
1.71 182.249 74.989
1.72 182.717 73.149
1.73 184.581 69.135
1.74 185.606 64.269
1.75 185.480 62.163
1.76 180.102 62.607
1.77 182.367 63.971
1.78 177.261 68.508
1.79 170.423 71.601
1.80 161.359 72.230
1.81 160.122 72.144
1.82 160.354 72.287
1.83 161.761 72.259
1.84 170.347 72.708
1.85 185.178 73.911
1.86 190.312 74.814
1.87 191.713 74.929
1.88 191.532 74.603
1.89 187.676 74.050
1.90 184.220 72.254
1.91 182.065 68.392
1.92 201.267 63.369
1.93 191.196 64.927
1.94 188.072 69.567
1.95 187.417 72.153
1.96 186.470 73.199
1.97 185.821 73.427
1.98 186.112 73.355
1.99 186.953 73.316
2.00 187.815 73.517
2.01 187.015 73.963
2.02 185.260 74.273
2.03 183.838 74.162
2.04 184.348 73.963
2.05 183.882 74.040
2.06 178.910 73.663
2.07 169.406 72.342
2.08 167.192 71.286
2.09 165.264 70.957
2.10 158.282 70.382
2.11 298.317 69.652
2.12 276.667 69.297
2.13 268.320 69.426
2.14 260.990 69.173
2.15 255.477 67.860
2.16 249.418 65.557
2.17 233.864 62.893
2.18 218.188 59.830
2.19 --undefined-- 55.699
2.20 --undefined-- 53.481
2.21 --undefined-- 53.371
2.22 --undefined-- 51.914
2.23 --undefined-- 49.408
2.24 --undefined-- 48.995
2.25 --undefined-- 49.712
2.26 --undefined-- 54.692
2.27 --undefined-- 61.767
2.28 231.807 66.377
2.29 233.538 69.093
2.30 232.162 70.898
2.31 229.675 72.092
2.32 226.833 72.739
2.33 225.038 73.013
2.34 223.824 73.002
2.35 224.079 72.716
2.36 226.510 72.109
2.37 231.392 71.174
2.38 235.617 69.925
2.39 238.960 68.446
2.40 244.114 66.931
2.41 246.135 65.760
2.42 245.150 64.853
2.43 241.404 63.574
2.44 233.792 61.571
2.45 226.207 59.429
2.46 235.905 58.341
2.47 234.904 59.946
2.48 --undefined-- 62.026
2.49 --undefined-- 62.120
2.50 --undefined-- 60.248
2.51 --undefined-- 58.822
2.52 --undefined-- 59.214
2.53 --undefined-- 60.794
2.54 --undefined-- 61.686
2.55 --undefined-- 60.825
2.56 --undefined-- 61.918
2.57 --undefined-- 64.449
2.58 211.679 66.116
2.59 200.408 67.445
2.60 196.834 68.521
2.61 197.928 69.238
2.62 201.310 70.152
2.63 206.719 71.476
2.64 209.383 72.427
2.65 209.431 72.727
2.66 214.413 72.838
2.67 223.410 72.874
2.68 235.267 72.378
2.69 245.870 70.954
2.70 256.364 69.178
2.71 267.369 67.647
2.72 277.321 65.550
2.73 276.982 62.007
2.74 260.655 57.305
2.75 --undefined-- 56.244
2.76 --undefined-- 58.510
2.77 --undefined-- 59.482
2.78 264.978 59.510
2.79 262.694 60.390
2.80 264.730 63.023
2.81 245.574 65.729
2.82 235.147 67.672
2.83 228.072 68.937
2.84 222.103 69.814
2.85 217.164 70.574
2.86 213.801 71.227
2.87 212.581 71.725
2.88 211.890 72.088
2.89 212.063 72.218
2.90 212.012 72.213
2.91 211.189 72.378
2.92 209.966 72.521
2.93 209.640 72.251
2.94 209.839 71.550
2.95 209.907 70.575
2.96 207.915 69.478
2.97 203.566 67.809
2.98 201.041 64.417
2.99 199.734 59.296
3.00 --undefined-- 57.130
3.01 --undefined-- 57.496
3.02 --undefined-- 57.111
3.03 --undefined-- 55.497
3.04 --undefined-- 53.441
3.05 --undefined-- 54.584
3.06 --undefined-- 58.325
3.07 --undefined-- 59.944
3.08 266.338 59.521
3.09 231.456 61.775
3.10 213.901 66.047
3.11 207.947 69.437
3.12 205.893 71.241
3.13 204.930 71.551
3.14 204.061 71.738
3.15 203.960 72.784
3.16 204.569 73.781
3.17 205.614 73.497
3.18 206.419 71.118
3.19 206.234 66.790
3.20 204.740 62.910
3.21 202.240 60.881
3.22 --undefined-- 59.562
3.23 --undefined-- 59.385
3.24 276.685 59.135
3.25 288.666 60.554
3.26 --undefined-- 61.912
3.27 --undefined-- 60.269
3.28 --undefined-- 55.448
3.29 --undefined-- 51.992
3.30 --undefined-- 55.746
3.31 --undefined-- 60.261
3.32 --undefined-- 63.299
3.33 263.999 66.332
3.34 255.007 69.484
3.35 254.399 71.882
3.36 255.847 73.417
3.37 257.490 74.173
3.38 260.722 74.251
3.39 264.919 73.691
3.40 270.209 73.129
3.41 272.394 73.294
3.42 273.603 73.268
3.43 273.665 72.808
3.44 272.304 72.481
3.45 270.005 72.374
3.46 263.513 72.692
3.47 252.663 73.069
3.48 --undefined-- 72.285
3.49 --undefined-- 70.148
3.50 --undefined-- 67.300
3.51 --undefined-- 63.719
3.52 --undefined-- 60.848
3.53 --undefined-- 58.293
3.54 --undefined-- 54.102
3.55 --undefined-- 52.809
3.56 --undefined-- 54.285
3.57 --undefined-- 57.580
3.58 --undefined-- 60.670
3.59 --undefined-- 61.099
3.60 --undefined-- 59.266
3.61 --undefined-- 56.994
3.62 --undefined-- 54.139
3.63 --undefined-- 51.288
3.64 --undefined-- 50.650
3.65 --undefined-- 50.228
3.66 --undefined-- 51.953
3.67 --undefined-- 53.726
3.68 --undefined-- 52.575
3.69 --undefined-- 50.398
3.70 --undefined-- 49.104
3.71 --undefined-- 47.959
3.72 --undefined-- 49.306
3.73 --undefined-- 53.027
3.74 --undefined-- 56.703
3.75 235.945 60.428
3.76 202.596 63.332
3.77 192.851 65.063
3.78 190.370 66.190
3.79 190.916 67.017
3.80 191.529 67.684
3.81 191.422 68.244
3.82 192.362 68.593
3.83 193.451 68.718
3.84 194.681 68.677
3.85 195.362 68.334
3.86 193.099 67.272
3.87 188.170 65.125
3.88 189.476 61.726
3.89 191.185 57.148
3.90 --undefined-- 52.553
3.91 --undefined-- 52.240
3.92 --undefined-- 55.519
3.93 --undefined-- 57.924
3.94 --undefined-- 61.689
3.95 220.571 65.737
3.96 212.134 67.665
3.97 209.017 67.966
3.98 209.978 67.889
3.99 213.778 67.881
4.00 218.833 67.855
4.01 223.761 67.886
4.02 227.395 67.924
4.03 228.425 67.759
4.04 227.204 67.538
4.05 224.074 67.629
4.06 217.064 68.162
4.07 206.893 69.013
4.08 200.964 69.641
4.09 200.820 69.584
4.10 207.343 69.345
4.11 220.457 70.014
4.12 222.329 70.456
4.13 224.868 69.875
4.14 230.685 69.353
4.15 235.313 69.005
4.16 241.042 67.863
4.17 246.507 65.613
4.18 247.451 61.957
4.19 242.782 57.438
4.20 --undefined-- 53.713
4.21 --undefined-- 50.346
4.22 --undefined-- 47.899
4.23 --undefined-- 48.333
4.24 --undefined-- 52.797
4.25 --undefined-- 57.945
4.26 --undefined-- 60.955
4.27 --undefined-- 62.859
4.28 216.512 65.596
4.29 206.312 68.349
4.30 201.480 70.204
4.31 197.049 71.221
4.32 194.043 71.854
4.33 192.452 72.451
4.34 192.834 72.732
4.35 193.691 72.413
4.36 194.802 71.641
4.37 195.518 70.696
4.38 194.805 69.732
4.39 192.846 68.903
4.40 190.426 68.423
4.41 192.626 68.021
4.42 191.162 67.420
4.43 189.664 66.882
4.44 187.077 66.673
4.45 184.146 66.456
4.46 179.598 66.096
4.47 174.680 65.761
4.48 170.159 65.210
4.49 170.017 64.448
4.50 150.282 64.355
4.51 147.469 64.873
4.52 143.999 65.124
4.53 142.525 65.423
4.54 142.748 65.849
4.55 143.111 66.011
4.56 145.015 66.013
4.57 147.725 65.854
4.58 150.070 66.006
4.59 153.052 66.592
4.60 154.739 66.833
4.61 158.770 66.053
4.62 165.815 65.221
4.63 170.363 65.452
4.64 180.537 66.448
4.65 186.550 67.923
4.66 191.670 68.705
4.67 198.793 68.273
4.68 206.877 67.103
4.69 210.778 65.412
4.70 205.832 62.519
4.71 --undefined-- 58.786
4.72 --undefined-- 57.471
4.73 --undefined-- 58.751
4.74 227.174 61.859
4.75 231.240 64.031
4.76 236.510 64.560
4.77 230.978 64.447
4.78 202.142 65.351
4.79 190.239 67.401
4.80 179.979 68.809
4.81 171.767 69.184
4.82 167.034 68.844
4.83 163.676 67.895
4.84 160.998 66.569
4.85 157.581 65.261
4.86 154.176 64.072
4.87 152.490 62.997
4.88 154.149 62.378
4.89 156.477 62.614
4.90 163.351 64.169
4.91 173.279 67.179
4.92 179.958 69.630
4.93 181.487 70.905
4.94 180.566 71.908
4.95 179.685 --undefined--
4.96 178.344 --undefined--
4.97 --undefined-- --undefined--
4.98 --undefined-- --undefined--
