Time Pitch Intensity
0.01 --undefined-- --undefined--
0.02 187.347 --undefined--
0.03 180.414 --undefined--
0.04 176.397 --undefined--
0.05 164.355 71.550
0.06 157.677 71.459
0.07 150.537 72.669
0.08 145.045 74.751
0.09 143.280 76.760
0.10 142.432 77.709
0.11 142.672 77.460
0.12 142.241 76.330
0.13 132.948 74.862
0.14 131.221 73.611
0.15 131.157 72.635
0.16 132.003 72.423
0.17 135.042 72.910
0.18 137.521 73.402
0.19 140.175 73.614
0.20 142.211 73.593
0.21 144.432 73.391
0.22 145.296 73.035
0.23 146.583 72.637
0.24 151.875 72.454
0.25 154.299 72.561
0.26 160.981 72.846
0.27 166.194 72.895
0.28 171.373 72.474
0.29 177.287 72.034
0.30 175.900 71.958
0.31 173.123 71.277
0.32 168.959 69.095
0.33 165.701 65.853
0.34 163.727 62.294
0.35 171.345 58.208
0.36 171.936 54.957
0.37 --undefined-- 56.076
0.38 --undefined-- 61.890
0.39 200.323 67.926
0.40 190.641 71.371
0.41 191.244 72.627
0.42 192.685 72.456
0.43 191.416 71.704
0.44 199.142 71.569
0.45 201.021 71.954
0.46 201.160 72.191
0.47 201.206 72.412
0.48 200.638 72.677
0.49 199.156 73.018
0.50 197.400 73.500
0.51 195.580 74.109
0.52 194.229 74.671
0.53 192.711 75.134
0.54 191.066 75.541
0.55 189.306 75.826
0.56 186.260 75.851
0.57 181.974 75.461
0.58 176.523 74.445
0.59 166.927 72.806
0.60 157.064 71.726
0.61 156.118 73.431
0.62 153.078 75.883
0.63 149.918 76.897
0.64 --undefined-- 76.148
0.65 --undefined-- 73.976
0.66 104.939 71.538
0.67 102.965 69.906
0.68 101.943 68.817
0.69 97.922 67.039
0.70 94.228 64.470
0.71 97.695 62.157
0.72 102.038 59.807
0.73 106.325 56.497
0.74 --undefined-- 52.143
0.75 --undefined-- 49.451
0.76 --undefined-- 48.871
0.77 --undefined-- 48.294
0.78 --undefined-- 46.861
0.79 --undefined-- 45.919
0.80 --undefined-- 51.219
0.81 --undefined-- 58.093
0.82 --undefined-- 66.242
0.83 146.965 72.192
0.84 133.214 75.238
0.85 124.830 76.420
0.86 124.358 76.662
0.87 122.124 76.031
0.88 118.027 74.926
0.89 115.762 73.998
0.90 114.586 73.175
0.91 113.240 72.484
0.92 113.219 72.316
0.93 112.671 72.496
0.94 112.468 72.705
0.95 112.852 72.742
0.96 113.115 72.710
0.97 113.193 72.825
0.98 114.013 73.052
0.99 113.597 73.267
1.00 113.250 73.115
1.01 112.721 71.819
1.02 102.168 68.548
1.03 108.611 63.591
1.04 107.961 58.639
1.05 --undefined-- 53.975
1.06 --undefined-- 52.308
1.07 --undefined-- 55.317
1.08 --undefined-- 60.414
1.09 --undefined-- 68.729
1.10 --undefined-- 74.628
1.11 153.486 77.379
1.12 150.515 77.685
1.13 144.012 76.413
1.14 133.336 74.839
1.15 124.030 74.106
1.16 119.150 73.944
1.17 114.073 73.087
1.18 105.632 70.709
1.19 100.020 66.443
1.20 97.782 60.615
1.21 103.637 56.211
1.22 --undefined-- 54.213
1.23 --undefined-- 51.990
1.24 --undefined-- 49.738
1.25 --undefined-- 49.083
1.26 --undefined-- 50.194
1.27 --undefined-- 52.594
1.28 --undefined-- 54.607
1.29 --undefined-- 55.132
1.30 --undefined-- 54.938
1.31 --undefined-- 55.146
1.32 --undefined-- 56.746
1.33 --undefined-- 59.694
1.34 --undefined-- 62.274
1.35 --undefined-- 63.817
1.36 --undefined-- 64.757
1.37 --undefined-- 65.306
1.38 --undefined-- 65.495
1.39 --undefined-- 64.873
1.40 --undefined-- 63.450
1.41 --undefined-- 63.178
1.42 --undefined-- 63.975
1.43 --undefined-- 64.199
1.44 --undefined-- 63.473
1.45 --undefined-- 63.871
1.46 --undefined-- 66.306
1.47 104.182 68.504
1.48 102.813 69.808
1.49 100.163 70.212
1.50 98.156 69.940
1.51 97.936 69.528
1.52 98.344 69.532
1.53 97.819 69.883
1.54 97.951 70.123
1.55 98.065 70.169
1.56 98.434 70.242
1.57 98.809 70.387
1.58 99.099 70.193
1.59 98.382 68.939
1.60 96.069 66.374
1.61 98.304 63.469
1.62 102.968 61.490
1.63 108.680 59.680
1.64 113.992 56.770
1.65 --undefined-- 52.615
1.66 --undefined-- 48.972
1.67 --undefined-- 51.599
1.68 --undefined-- 60.545
1.69 171.478 68.542
1.70 169.820 73.609
1.71 166.707 76.319
1.72 164.755 77.378
1.73 163.609 77.634
1.74 160.926 78.092
1.75 158.681 78.875
1.76 157.496 79.332
1.77 156.141 79.112
1.78 154.036 78.035
1.79 149.444 76.470
1.80 157.037 76.092
1.81 158.019 77.058
1.82 159.248 78.181
1.83 158.856 78.622
1.84 155.896 78.088
1.85 150.682 77.185
1.86 148.889 76.474
1.87 148.064 75.788
1.88 147.972 75.035
1.89 145.189 74.237
1.90 140.957 72.856
1.91 140.401 70.477
1.92 141.479 67.288
1.93 140.867 63.332
1.94 143.530 59.240
1.95 147.992 56.037
1.96 147.110 53.399
1.97 --undefined-- 50.709
1.98 --undefined-- 47.689
1.99 --undefined-- 46.230
2.00 --undefined-- 49.130
2.01 --undefined-- 53.550
2.02 --undefined-- 57.197
2.03 --undefined-- 63.680
2.04 --undefined-- 70.357
2.05 123.588 74.019
2.06 121.300 74.913
2.07 115.008 74.395
2.08 111.808 74.118
2.09 110.181 74.159
2.10 108.264 73.858
2.11 107.416 72.636
2.12 107.558 70.537
2.13 109.951 69.219
2.14 112.821 69.622
2.15 115.899 71.171
2.16 118.524 73.338
2.17 117.745 75.174
2.18 117.151 76.341
2.19 117.102 76.784
2.20 116.607 76.390
2.21 114.527 75.457
2.22 113.508 74.466
2.23 114.435 73.070
2.24 119.562 71.325
2.25 100.025 69.833
2.26 95.470 68.011
2.27 94.892 66.524
2.28 96.577 66.423
2.29 99.052 67.489
2.30 111.413 69.472
2.31 121.460 71.357
2.32 122.093 72.231
2.33 121.312 71.943
2.34 119.580 70.801
2.35 116.071 69.333
2.36 113.857 68.196
2.37 114.027 67.866
2.38 116.467 67.994
2.39 118.176 68.037
2.40 121.070 68.015
2.41 122.754 68.006
2.42 122.911 67.543
2.43 120.906 66.015
2.44 119.048 63.449
2.45 120.946 60.844
2.46 124.201 58.485
2.47 122.857 55.500
2.48 --undefined-- 58.463
2.49 --undefined-- 66.547
2.50 --undefined-- 71.229
2.51 --undefined-- 72.762
2.52 106.525 72.230
2.53 103.819 70.974
2.54 101.146 70.039
2.55 100.384 69.932
2.56 100.917 70.069
2.57 101.480 69.989
2.58 102.708 69.892
2.59 103.192 69.976
2.60 104.538 70.400
2.61 106.553 70.819
2.62 107.290 70.846
2.63 107.337 70.213
2.64 104.935 68.354
2.65 104.031 65.289
2.66 109.258 62.004
2.67 111.701 58.707
2.68 105.220 56.173
2.69 --undefined-- 59.254
2.70 --undefined-- 66.043
2.71 151.938 71.460
2.72 146.688 74.104
2.73 139.597 74.571
2.74 137.800 74.166
2.75 137.636 73.997
2.76 138.117 74.111
2.77 138.729 74.265
2.78 139.671 74.252
2.79 139.947 73.937
2.80 139.081 73.527
2.81 137.643 72.991
2.82 135.722 71.530
2.83 119.630 68.317
2.84 135.355 63.773
2.85 137.174 58.899
2.86 --undefined-- 53.268
2.87 --undefined-- 48.587
2.88 --undefined-- 48.512
2.89 --undefined-- 54.789
2.90 --undefined-- 59.714
2.91 --undefined-- 61.392
2.92 --undefined-- 61.246
2.93 --undefined-- 62.827
2.94 --undefined-- 66.390
2.95 121.888 68.698
2.96 112.694 69.190
2.97 99.057 68.971
2.98 95.982 69.060
2.99 99.283 69.274
3.00 99.485 69.539
3.01 97.419 69.600
3.02 96.965 69.104
3.03 98.945 68.001
3.04 95.438 66.355
3.05 95.487 64.669
3.06 98.111 63.099
3.07 99.088 61.077
3.08 102.581 58.470
3.09 --undefined-- 58.321
3.10 --undefined-- 64.486
3.11 --undefined-- 70.345
3.12 142.008 73.388
3.13 137.452 74.027
3.14 136.838 73.327
3.15 139.619 72.747
3.16 143.823 73.162
3.17 146.208 74.062
3.18 147.353 74.807
3.19 148.568 75.115
3.20 149.674 74.919
3.21 150.074 74.165
3.22 147.944 72.777
3.23 143.491 70.824
3.24 139.713 68.003
3.25 --undefined-- 63.808
3.26 --undefined-- 60.428
3.27 142.713 59.090
3.28 148.016 56.573
3.29 --undefined-- 52.292
3.30 --undefined-- 48.013
3.31 --undefined-- 50.437
3.32 --undefined-- 60.185
3.33 --undefined-- 67.009
3.34 --undefined-- 71.096
3.35 --undefined-- 72.967
3.36 124.715 72.931
3.37 119.285 71.607
3.38 117.409 69.578
3.39 117.020 67.144
3.40 117.244 64.502
3.41 119.577 63.259
3.42 121.323 64.578
3.43 122.396 66.614
3.44 123.720 68.415
3.45 124.068 69.745
3.46 123.531 70.506
3.47 123.198 70.816
3.48 123.462 70.966
3.49 124.300 71.124
3.50 124.859 71.200
3.51 124.930 71.313
3.52 125.156 71.644
3.53 125.280 72.051
3.54 125.265 72.440
3.55 124.852 72.626
3.56 123.197 72.091
3.57 120.305 70.307
3.58 116.671 67.411
3.59 --undefined-- 66.538
3.60 --undefined-- 67.859
3.61 --undefined-- 67.587
3.62 --undefined-- 65.426
3.63 --undefined-- 62.513
3.64 --undefined-- 61.220
3.65 --undefined-- 66.097
3.66 --undefined-- 70.905
3.67 --undefined-- 72.879
3.68 106.685 72.768
3.69 100.858 71.606
3.70 93.123 69.866
3.71 95.431 68.056
3.72 91.970 66.825
3.73 89.946 65.513
3.74 93.390 64.129
3.75 88.796 63.520
3.76 94.235 63.897
3.77 89.091 64.680
3.78 91.634 65.255
3.79 95.473 66.048
3.80 96.529 66.542
3.81 96.464 65.911
3.82 95.509 64.154
3.83 97.698 62.091
3.84 100.832 62.286
3.85 107.697 64.631
3.86 116.086 67.444
3.87 112.979 70.683
3.88 110.175 72.725
3.89 106.382 73.116
3.90 103.412 72.721
3.91 102.169 71.947
3.92 97.878 70.308
3.93 99.010 68.729
3.94 103.747 69.254
3.95 106.906 70.742
3.96 108.102 71.895
3.97 108.540 72.469
3.98 108.084 72.390
3.99 107.160 71.835
4.00 108.714 71.920
4.01 116.453 73.571
4.02 117.194 75.104
4.03 116.094 75.480
4.04 114.274 75.372
4.05 113.992 75.472
4.06 113.650 74.905
4.07 109.619 72.463
4.08 103.928 68.063
4.09 108.850 62.896
4.10 113.863 58.103
4.11 --undefined-- 53.247
4.12 --undefined-- 50.782
4.13 --undefined-- 53.132
4.14 --undefined-- 57.204
4.15 --undefined-- 64.464
4.16 153.419 71.228
4.17 137.885 75.081
4.18 132.826 76.643
4.19 130.612 76.774
4.20 128.032 76.455
4.21 127.262 76.254
4.22 126.332 76.081
4.23 125.034 75.466
4.24 120.806 73.775
4.25 116.555 71.149
4.26 118.961 70.478
4.27 124.203 73.188
4.28 121.156 75.487
4.29 115.621 76.148
4.30 112.581 75.928
4.31 110.622 75.671
4.32 110.167 75.492
4.33 110.664 75.316
4.34 111.136 75.139
4.35 111.127 74.824
4.36 111.397 73.951
4.37 111.251 71.918
4.38 106.576 68.547
4.39 103.800 64.358
4.40 105.869 62.066
4.41 124.965 65.570
4.42 118.759 69.560
4.43 108.003 71.561
4.44 103.853 71.888
4.45 101.107 71.205
4.46 98.821 70.270
4.47 104.385 70.560
4.48 109.752 71.754
4.49 112.796 72.720
4.50 114.121 73.132
4.51 114.719 72.987
4.52 114.505 72.868
4.53 114.840 73.187
4.54 112.844 72.958
4.55 107.741 72.112
4.56 99.466 71.353
4.57 96.876 70.070
4.58 97.779 68.479
4.59 --undefined-- 67.774
4.60 --undefined-- 67.603
4.61 --undefined-- 67.371
4.62 --undefined-- 67.324
4.63 --undefined-- 66.925
4.64 --undefined-- 66.198
4.65 --undefined-- 65.744
4.66 --undefined-- 65.450
4.67 --undefined-- 65.638
4.68 93.033 65.983
4.69 93.082 66.239
4.70 91.327 66.119
4.71 95.568 65.708
4.72 93.666 65.619
4.73 --undefined-- 65.813
4.74 --undefined-- 66.095
4.75 --undefined-- 65.813
4.76 --undefined-- 65.000
4.77 --undefined-- 63.968
4.78 123.097 62.510
4.79 115.315 60.433
4.80 103.454 57.695
4.81 --undefined-- 54.188
4.82 --undefined-- 50.003
4.83 --undefined-- 46.590
4.84 --undefined-- 43.896
4.85 --undefined-- 42.174
4.86 --undefined-- 40.511
4.87 --undefined-- 39.735
4.88 --undefined-- 40.679
4.89 --undefined-- 41.082
4.90 --undefined-- 40.278
4.91 --undefined-- 39.269
4.92 --undefined-- 39.026
4.93 --undefined-- 39.725
4.94 --undefined-- 41.313
4.95 --undefined-- 44.018
4.96 --undefined-- 45.422
4.97 --undefined-- 50.774
4.98 --undefined-- 61.813
4.99 --undefined-- 68.988
5.00 --undefined-- 73.292
5.01 --undefined-- 75.934
5.02 166.880 77.082
5.03 172.393 77.099
5.04 172.160 76.808
5.05 169.026 76.585
5.06 164.558 76.492
5.07 159.991 76.440
5.08 155.631 76.396
5.09 150.574 76.370
5.10 146.475 76.181
5.11 140.920 75.676
5.12 135.105 75.233
5.13 130.895 75.197
5.14 127.298 75.234
5.15 123.234 75.072
5.16 119.203 --undefined--
5.17 116.475 --undefined--
5.18 --undefined-- --undefined--
5.19 --undefined-- --undefined--
