Time Pitch Intensity
0.01 --undefined-- --undefined--
0.02 --undefined-- --undefined--
0.03 --undefined-- --undefined--
0.04 199.244 --undefined--
0.05 198.056 58.151
0.06 200.339 60.492
0.07 194.398 62.443
0.08 184.013 65.164
0.09 179.857 67.342
0.10 175.983 68.375
0.11 175.207 68.284
0.12 174.956 66.968
0.13 175.016 64.449
0.14 175.226 61.822
0.15 172.900 60.326
0.16 --undefined-- 60.044
0.17 --undefined-- 61.308
0.18 --undefined-- 62.392
0.19 --undefined-- 62.230
0.20 --undefined-- 60.237
0.21 --undefined-- 56.410
0.22 --undefined-- 53.260
0.23 --undefined-- 52.272
0.24 --undefined-- 52.346
0.25 --undefined-- 51.748
0.26 287.700 52.334
0.27 286.831 53.840
0.28 --undefined-- 52.399
0.29 --undefined-- 47.714
0.30 --undefined-- 43.843
0.31 --undefined-- 43.358
0.32 --undefined-- 43.330
0.33 --undefined-- 43.815
0.34 --undefined-- 45.670
0.35 --undefined-- 51.275
0.36 278.979 58.830
0.37 267.925 63.935
0.38 264.729 67.038
0.39 262.909 69.203
0.40 261.348 70.748
0.41 260.331 71.565
0.42 260.341 71.752
0.43 261.527 71.767
0.44 264.206 72.046
0.45 266.554 72.318
0.46 268.767 71.959
0.47 271.336 70.829
0.48 272.424 69.480
0.49 272.318 68.221
0.50 271.929 66.887
0.51 271.309 65.782
0.52 271.622 65.021
0.53 272.390 64.545
0.54 273.399 64.349
0.55 273.414 64.049
0.56 273.274 64.019
0.57 274.249 64.157
0.58 270.983 63.013
0.59 264.113 59.656
0.60 --undefined-- 54.542
0.61 --undefined-- 50.776
0.62 --undefined-- 51.657
0.63 --undefined-- 56.043
0.64 --undefined-- 58.949
0.65 --undefined-- 59.055
0.66 --undefined-- 56.146
0.67 --undefined-- 51.014
0.68 --undefined-- 48.620
0.69 --undefined-- 51.286
0.70 --undefined-- 54.158
0.71 --undefined-- 54.517
0.72 --undefined-- 52.298
0.73 --undefined-- 51.276
0.74 --undefined-- 55.330
0.75 175.487 59.953
0.76 180.840 63.054
0.77 180.862 64.766
0.78 180.050 65.444
0.79 178.849 65.437
0.80 177.668 65.190
0.81 177.706 65.027
0.82 178.444 64.921
0.83 179.037 64.867
0.84 178.737 64.782
0.85 178.227 64.498
0.86 178.366 64.165
0.87 177.962 63.933
0.88 178.248 63.529
0.89 177.787 62.604
0.90 176.967 60.832
0.91 171.604 57.784
0.92 167.541 53.573
0.93 --undefined-- 50.902
0.94 --undefined-- 50.514
0.95 --undefined-- 50.665
0.96 --undefined-- 49.689
0.97 --undefined-- 47.699
0.98 --undefined-- 50.686
0.99 --undefined-- 57.648
1.00 --undefined-- 61.688
1.01 --undefined-- 62.072
1.02 --undefined-- 60.976
1.03 184.883 62.710
1.04 178.639 64.237
1.05 162.373 64.610
1.06 157.829 65.012
1.07 155.986 65.647
1.08 154.822 66.152
1.09 154.438 66.296
1.10 154.803 65.851
1.11 157.002 65.406
1.12 159.890 65.671
1.13 164.993 66.155
1.14 170.082 66.369
1.15 176.770 66.484
1.16 185.288 67.130
1.17 192.068 67.901
1.18 201.094 67.646
1.19 215.937 66.173
1.20 232.400 64.669
1.21 239.095 63.779
1.22 240.112 62.095
1.23 223.211 58.676
1.24 213.036 53.802
1.25 --undefined-- 49.733
1.26 --undefined-- 47.575
1.27 --undefined-- 46.610
1.28 --undefined-- 46.971
1.29 --undefined-- 47.427
1.30 --undefined-- 45.960
1.31 --undefined-- 44.767
1.32 --undefined-- 48.567
1.33 --undefined-- 50.773
1.34 --undefined-- 49.999
1.35 --undefined-- 51.389
1.36 264.257 58.779
1.37 242.448 63.806
1.38 228.624 65.739
1.39 218.407 65.650
1.40 207.077 65.210
1.41 202.505 65.203
1.42 195.805 65.025
1.43 192.731 64.170
1.44 190.940 62.773
1.45 188.445 61.933
1.46 192.451 62.319
1.47 195.548 63.020
1.48 195.333 63.030
1.49 194.102 62.528
1.50 193.256 62.224
1.51 192.328 62.281
1.52 191.407 62.550
1.53 190.574 62.931
1.54 190.229 63.242
1.55 190.341 63.416
1.56 189.519 63.593
1.57 187.162 63.332
1.58 182.217 61.815
1.59 178.761 58.840
1.60 --undefined-- 57.867
1.61 --undefined-- 59.192
1.62 --undefined-- 59.128
1.63 171.682 60.686
1.64 166.701 63.299
1.65 162.241 64.566
1.66 155.089 64.628
1.67 150.033 64.204
1.68 150.696 63.921
1.69 152.310 63.967
1.70 152.285 63.981
1.71 151.440 63.594
1.72 151.509 63.040
1.73 154.058 62.790
1.74 158.138 62.743
1.75 161.054 62.613
1.76 163.925 62.685
1.77 168.306 63.370
1.78 172.242 64.213
1.79 175.793 64.404
1.80 181.077 63.768
1.81 182.558 62.236
1.82 180.558 59.522
1.83 181.348 55.702
1.84 --undefined-- 51.302
1.85 --undefined-- 49.692
1.86 --undefined-- 52.502
1.87 --undefined-- 54.653
1.88 --undefined-- 55.985
1.89 234.157 59.348
1.90 229.968 63.755
1.91 236.323 67.977
1.92 243.794 71.041
1.93 244.882 71.982
1.94 238.007 71.571
1.95 236.800 72.042
1.96 235.525 72.858
1.97 234.836 72.915
1.98 235.120 72.184
1.99 235.488 70.867
2.00 236.272 69.347
2.01 237.217 68.165
2.02 237.609 67.702
2.03 238.379 67.614
2.04 239.983 67.278
2.05 241.876 66.464
2.06 243.364 65.051
2.07 246.878 63.200
2.08 248.268 62.386
2.09 257.459 63.193
2.10 256.951 63.654
2.11 253.305 63.351
2.12 251.328 62.288
2.13 246.937 59.758
2.14 --undefined-- 55.492
2.15 --undefined-- 52.016
2.16 --undefined-- 55.521
2.17 --undefined-- 58.766
2.18 --undefined-- 59.711
2.19 --undefined-- 59.805
2.20 --undefined-- 60.739
2.21 193.050 63.052
2.22 187.637 65.522
2.23 183.064 66.951
2.24 179.290 67.346
2.25 179.160 67.206
2.26 179.827 66.764
2.27 179.139 65.931
2.28 177.908 64.590
2.29 176.414 62.536
2.30 174.482 59.626
2.31 167.569 56.350
2.32 --undefined-- 53.312
2.33 --undefined-- 50.262
2.34 --undefined-- 47.788
2.35 --undefined-- 47.147
2.36 --undefined-- 47.406
2.37 --undefined-- 50.632
2.38 --undefined-- 54.966
2.39 --undefined-- 57.336
2.40 --undefined-- 59.191
2.41 176.407 61.956
2.42 173.924 63.654
2.43 166.054 64.128
2.44 163.098 64.357
2.45 156.815 64.877
2.46 153.463 65.475
2.47 152.956 65.924
2.48 153.712 66.227
2.49 155.577 66.317
2.50 158.323 66.283
2.51 162.719 66.618
2.52 172.200 67.695
2.53 182.000 68.717
2.54 193.888 69.330
2.55 205.775 70.233
2.56 213.776 71.490
2.57 220.690 72.575
2.58 224.887 73.189
2.59 227.914 72.907
2.60 228.705 71.592
2.61 222.863 69.442
2.62 213.480 66.421
2.63 194.775 62.334
2.64 218.343 57.224
2.65 231.432 53.772
2.66 225.765 54.265
2.67 228.381 54.128
2.68 235.482 53.733
2.69 --undefined-- 54.839
2.70 --undefined-- 53.883
2.71 --undefined-- 50.005
2.72 --undefined-- 47.472
2.73 --undefined-- 47.495
2.74 --undefined-- 47.384
2.75 --undefined-- 47.347
2.76 --undefined-- 47.583
2.77 --undefined-- 48.225
2.78 --undefined-- 47.988
2.79 --undefined-- 48.649
2.80 --undefined-- 51.236
2.81 --undefined-- 52.627
2.82 --undefined-- 51.674
2.83 --undefined-- 49.238
2.84 --undefined-- 47.616
2.85 --undefined-- 48.457
2.86 --undefined-- 51.501
2.87 --undefined-- 53.528
2.88 --undefined-- 52.873
2.89 --undefined-- 51.752
2.90 --undefined-- 52.598
2.91 --undefined-- 51.518
2.92 --undefined-- 47.542
2.93 --undefined-- 44.379
2.94 --undefined-- 46.622
2.95 --undefined-- 49.747
2.96 --undefined-- 51.586
2.97 --undefined-- 52.341
2.98 --undefined-- 53.462
2.99 247.838 56.993
3.00 229.510 60.014
3.01 224.729 61.863
3.02 229.883 63.592
3.03 236.849 65.245
3.04 246.601 66.407
3.05 249.612 66.886
3.06 250.919 66.826
3.07 253.678 67.728
3.08 265.367 69.920
3.09 267.178 71.342
3.10 266.808 71.364
3.11 264.933 70.415
3.12 262.625 69.172
3.13 258.025 68.178
3.14 252.934 68.323
3.15 250.162 69.982
3.16 248.239 71.076
3.17 239.947 70.110
3.18 221.271 67.947
3.19 219.216 66.742
3.20 218.591 65.867
3.21 217.985 64.308
3.22 216.769 61.739
3.23 216.356 58.081
3.24 218.340 54.067
3.25 219.078 52.660
3.26 218.188 51.765
3.27 --undefined-- 49.356
3.28 --undefined-- 49.863
3.29 --undefined-- 52.044
3.30 --undefined-- 52.298
3.31 --undefined-- 50.390
3.32 --undefined-- 48.464
3.33 --undefined-- 46.859
3.34 --undefined-- 46.813
3.35 --undefined-- 53.880
3.36 285.181 60.023
3.37 271.456 63.014
3.38 265.823 63.816
3.39 265.611 63.857
3.40 266.589 63.793
3.41 266.839 63.612
3.42 265.445 63.492
3.43 265.841 63.995
3.44 270.600 64.824
3.45 271.636 65.263
3.46 272.031 65.411
3.47 272.777 65.621
3.48 272.921 65.741
3.49 271.977 65.467
3.50 269.919 64.486
3.51 266.570 62.021
3.52 267.525 57.343
3.53 --undefined-- 52.669
3.54 --undefined-- 51.979
3.55 --undefined-- 51.887
3.56 263.488 55.472
3.57 257.039 59.785
3.58 254.027 61.871
3.59 241.341 62.517
3.60 --undefined-- 63.560
3.61 --undefined-- 64.839
3.62 --undefined-- 65.188
3.63 --undefined-- 64.777
3.64 --undefined-- 64.585
3.65 --undefined-- 64.695
3.66 --undefined-- 64.108
3.67 --undefined-- 63.163
3.68 134.897 62.373
3.69 135.006 60.932
3.70 --undefined-- 57.889
3.71 --undefined-- 53.655
3.72 --undefined-- 53.044
3.73 --undefined-- 55.253
3.74 --undefined-- 55.920
3.75 --undefined-- 57.219
3.76 --undefined-- 58.838
3.77 --undefined-- 58.452
3.78 --undefined-- 57.299
3.79 246.421 58.920
3.80 247.333 61.199
3.81 245.086 62.846
3.82 243.796 64.719
3.83 236.687 66.684
3.84 229.786 67.837
3.85 229.066 68.056
3.86 234.106 68.173
3.87 241.213 68.410
3.88 247.678 67.758
3.89 252.942 65.983
3.90 253.836 63.547
3.91 252.631 61.088
3.92 251.303 59.179
3.93 251.870 58.410
3.94 252.366 59.418
3.95 260.244 60.940
3.96 257.418 63.136
3.97 252.233 66.037
3.98 248.532 68.322
3.99 244.578 69.245
4.00 242.243 69.321
4.01 244.064 69.350
4.02 246.569 69.410
4.03 248.048 69.102
4.04 248.841 68.193
4.05 247.704 67.114
4.06 245.089 66.245
4.07 244.370 64.519
4.08 245.875 60.724
4.09 248.562 54.548
4.10 --undefined-- 48.282
4.11 --undefined-- 46.656
4.12 --undefined-- 48.260
4.13 --undefined-- 48.891
4.14 --undefined-- 48.603
4.15 --undefined-- 49.561
4.16 --undefined-- 51.038
4.17 --undefined-- 51.589
4.18 --undefined-- 52.556
4.19 215.751 56.785
4.20 214.853 61.178
4.21 197.251 64.290
4.22 184.640 65.855
4.23 179.724 65.872
4.24 175.866 64.853
4.25 174.010 63.648
4.26 177.057 63.182
4.27 187.182 63.777
4.28 193.963 64.718
4.29 200.177 65.629
4.30 205.185 66.698
4.31 210.625 67.979
4.32 214.012 69.086
4.33 216.184 69.705
4.34 216.074 69.932
4.35 213.612 69.873
4.36 204.474 70.060
4.37 --undefined-- 70.731
4.38 --undefined-- 70.658
4.39 --undefined-- 68.722
4.40 --undefined-- 64.999
4.41 --undefined-- 60.682
4.42 --undefined-- 56.669
4.43 --undefined-- 53.307
4.44 --undefined-- 50.985
4.45 --undefined-- 49.597
4.46 --undefined-- 50.619
4.47 --undefined-- 53.337
4.48 --undefined-- 55.148
4.49 --undefined-- 54.936
4.50 289.480 53.094
4.51 290.213 52.159
4.52 288.053 53.385
4.53 289.351 54.045
4.54 294.345 53.394
4.55 --undefined-- 52.794
4.56 --undefined-- 51.919
4.57 --undefined-- 50.327
4.58 --undefined-- 50.219
4.59 --undefined-- 51.369
4.60 --undefined-- 52.622
4.61 290.937 54.696
4.62 291.620 55.883
4.63 --undefined-- 54.722
4.64 --undefined-- 51.244
4.65 --undefined-- 48.130
4.66 --undefined-- 48.569
4.67 --undefined-- 52.766
4.68 --undefined-- 58.238
4.69 --undefined-- 61.397
4.70 118.974 63.009
4.71 --undefined-- 64.569
4.72 253.954 66.029
4.73 261.721 66.946
4.74 263.833 66.837
4.75 263.060 65.223
4.76 243.044 62.637
4.77 240.470 60.966
4.78 260.854 62.207
4.79 285.826 66.030
4.80 150.675 69.368
4.81 152.638 71.096
4.82 153.929 71.380
4.83 155.444 71.061
4.84 157.508 70.663
4.85 159.295 70.167
4.86 160.832 69.471
4.87 161.158 68.693
4.88 160.724 68.117
4.89 160.431 67.737
4.90 161.149 67.328
4.91 163.596 66.621
4.92 165.440 65.544
4.93 160.846 64.405
4.94 155.834 63.349
4.95 151.454 62.436
4.96 150.273 62.351
4.97 149.385 62.670
4.98 149.409 63.193
4.99 151.689 64.011
5.00 153.338 64.990
5.01 154.851 --undefined--
5.02 151.930 --undefined--
5.03 --undefined-- --undefined--
5.04 --undefined-- --undefined--
