Time Pitch Intensity
0.01 --undefined-- --undefined--
0.02 129.426 --undefined--
0.03 133.989 --undefined--
0.04 139.191 --undefined--
0.05 144.196 65.883
0.06 150.697 65.375
0.07 156.546 65.259
0.08 160.908 65.764
0.09 163.937 66.395
0.10 166.585 66.861
0.11 167.816 67.095
0.12 168.756 66.959
0.13 169.868 66.573
0.14 170.659 65.975
0.15 170.321 64.938
0.16 167.316 63.327
0.17 --undefined-- 61.587
0.18 --undefined-- 60.312
0.19 --undefined-- 58.613
0.20 --undefined-- 55.497
0.21 --undefined-- 52.400
0.22 --undefined-- 51.944
0.23 --undefined-- 50.269
0.24 --undefined-- 45.068
0.25 --undefined-- 39.143
0.26 --undefined-- 37.190
0.27 --undefined-- 36.118
0.28 --undefined-- 36.732
0.29 --undefined-- 37.763
0.30 --undefined-- 38.135
0.31 --undefined-- 37.354
0.32 --undefined-- 35.909
0.33 --undefined-- 35.645
0.34 --undefined-- 35.206
0.35 --undefined-- 33.166
0.36 --undefined-- 31.431
0.37 --undefined-- 32.647
0.38 --undefined-- 33.317
0.39 --undefined-- 32.544
0.40 --undefined-- 31.939
0.41 --undefined-- 31.918
0.42 --undefined-- 32.184
0.43 --undefined-- 32.841
0.44 --undefined-- 32.534
0.45 --undefined-- 31.217
0.46 --undefined-- 30.303
0.47 --undefined-- 29.577
0.48 --undefined-- 31.148
0.49 --undefined-- 33.560
0.50 --undefined-- 33.920
0.51 --undefined-- 32.801
0.52 --undefined-- 32.468
0.53 --undefined-- 32.753
0.54 --undefined-- 36.066
0.55 --undefined-- 44.537
0.56 --undefined-- 57.175
0.57 215.792 65.816
0.58 208.724 70.317
0.59 200.441 71.727
0.60 197.954 71.736
0.61 196.657 71.962
0.62 193.202 72.317
0.63 191.710 71.944
0.64 182.851 70.063
0.65 182.663 66.980
0.66 174.394 64.373
0.67 162.973 62.949
0.68 152.615 62.654
0.69 147.214 64.309
0.70 140.929 67.631
0.71 140.150 70.485
0.72 133.736 72.141
0.73 126.918 72.722
0.74 127.523 71.992
0.75 127.521 69.629
0.76 126.103 65.760
0.77 128.550 62.602
0.78 135.544 62.327
0.79 140.716 62.631
0.80 145.786 62.907
0.81 149.974 63.014
0.82 153.848 62.775
0.83 155.791 62.460
0.84 155.017 62.464
0.85 152.900 62.503
0.86 150.841 62.243
0.87 147.720 62.198
0.88 144.950 63.149
0.89 144.076 64.253
0.90 142.453 65.165
0.91 141.195 66.324
0.92 140.153 67.903
0.93 139.947 69.680
0.94 140.544 71.393
0.95 140.420 72.789
0.96 138.720 73.722
0.97 134.574 73.903
0.98 131.577 73.124
0.99 128.765 71.817
1.00 130.115 70.336
1.01 131.661 68.430
1.02 132.452 65.781
1.03 135.799 63.738
1.04 138.550 63.184
1.05 139.138 62.601
1.06 136.217 60.853
1.07 132.955 57.973
1.08 138.011 56.676
1.09 141.315 58.512
1.10 142.828 60.697
1.11 144.325 62.475
1.12 146.684 64.153
1.13 150.295 66.243
1.14 153.779 68.993
1.15 155.335 71.958
1.16 153.558 74.139
1.17 150.013 74.820
1.18 147.404 73.894
1.19 146.031 71.670
1.20 144.740 68.060
1.21 145.622 62.939
1.22 143.757 58.030
1.23 --undefined-- 53.898
1.24 --undefined-- 49.443
1.25 --undefined-- 46.020
1.26 --undefined-- 45.794
1.27 --undefined-- 54.410
1.28 --undefined-- 62.081
1.29 --undefined-- 66.398
1.30 128.828 68.429
1.31 130.979 69.780
1.32 132.928 70.728
1.33 136.005 70.694
1.34 138.419 69.364
1.35 141.082 66.847
1.36 143.423 63.301
1.37 145.291 58.642
1.38 143.410 55.446
1.39 139.189 56.312
1.40 131.764 60.722
1.41 131.343 65.924
1.42 131.689 69.436
1.43 129.582 71.139
1.44 121.461 71.814
1.45 117.050 72.434
1.46 111.999 72.828
1.47 109.818 72.284
1.48 109.107 70.568
1.49 --undefined-- 67.431
1.50 --undefined-- 62.366
1.51 --undefined-- 55.946
1.52 --undefined-- 50.524
1.53 --undefined-- 47.492
1.54 --undefined-- 45.133
1.55 --undefined-- 42.246
1.56 --undefined-- 38.744
1.57 --undefined-- 36.601
1.58 --undefined-- 42.305
1.59 --undefined-- 49.770
1.60 --undefined-- 55.222
1.61 116.803 60.775
1.62 115.077 66.644
1.63 111.651 71.015
1.64 112.343 73.257
1.65 111.622 73.257
1.66 109.099 70.993
1.67 109.779 66.803
1.68 112.180 62.252
1.69 111.036 60.322
1.70 111.058 60.004
1.71 110.003 59.618
1.72 109.663 59.092
1.73 108.396 58.429
1.74 108.045 57.627
1.75 107.346 56.214
1.76 105.704 53.925
1.77 --undefined-- 50.740
1.78 --undefined-- 46.767
1.79 --undefined-- 44.666
1.80 --undefined-- 46.126
1.81 --undefined-- 48.067
1.82 --undefined-- 49.783
1.83 --undefined-- 50.517
1.84 --undefined-- 51.151
1.85 --undefined-- 58.402
1.86 --undefined-- 65.628
1.87 136.141 70.270
1.88 129.755 72.715
1.89 130.127 73.497
1.90 --undefined-- 73.288
1.91 --undefined-- 72.740
1.92 --undefined-- 71.837
1.93 --undefined-- 70.579
1.94 --undefined-- 69.096
1.95 123.089 67.836
1.96 121.322 66.905
1.97 119.952 65.598
1.98 119.146 64.026
1.99 118.943 62.824
2.00 118.609 62.146
2.01 117.924 62.263
2.02 117.336 62.973
2.03 115.680 64.060
2.04 114.039 64.523
2.05 111.335 63.362
2.06 109.727 61.347
2.07 108.864 60.775
2.08 108.133 61.152
2.09 107.111 61.707
2.10 107.684 63.202
2.11 --undefined-- 64.538
2.12 --undefined-- 65.455
2.13 292.966 65.456
2.14 288.471 63.390
2.15 277.661 61.116
2.16 268.499 59.291
2.17 242.018 58.127
2.18 --undefined-- 57.351
2.19 --undefined-- 56.624
2.20 --undefined-- 54.973
2.21 --undefined-- 53.033
2.22 --undefined-- 52.515
2.23 --undefined-- 51.718
2.24 --undefined-- 48.732
2.25 --undefined-- 43.891
2.26 --undefined-- 39.699
2.27 --undefined-- 36.681
2.28 --undefined-- 34.274
2.29 --undefined-- 35.003
2.30 --undefined-- 34.988
2.31 --undefined-- 33.465
2.32 --undefined-- 34.113
2.33 --undefined-- 35.423
2.34 --undefined-- 36.574
2.35 --undefined-- 38.654
2.36 --undefined-- 40.638
2.37 --undefined-- 42.951
2.38 --undefined-- 44.896
2.39 --undefined-- 45.672
2.40 --undefined-- 46.282
2.41 --undefined-- 46.867
2.42 --undefined-- 47.770
2.43 --undefined-- 50.701
2.44 129.251 53.781
2.45 130.972 55.168
2.46 131.687 54.515
2.47 --undefined-- 51.830
2.48 --undefined-- 47.278
2.49 --undefined-- 41.248
2.50 --undefined-- 36.934
2.51 --undefined-- 40.368
2.52 --undefined-- 47.737
2.53 --undefined-- 52.672
2.54 --undefined-- 54.421
2.55 --undefined-- 56.757
2.56 142.514 60.947
2.57 141.404 63.672
2.58 144.086 65.671
2.59 154.002 68.335
2.60 164.014 71.069
2.61 176.116 72.796
2.62 184.761 73.444
2.63 192.234 73.495
2.64 200.298 73.405
2.65 206.229 73.213
2.66 207.969 72.383
2.67 207.520 70.932
2.68 206.960 69.798
2.69 205.491 68.817
2.70 203.078 67.287
2.71 198.788 65.735
2.72 194.412 66.479
2.73 192.634 68.203
2.74 190.324 68.703
2.75 186.645 68.321
2.76 182.528 67.797
2.77 178.339 67.380
2.78 174.684 66.815
2.79 171.537 65.907
2.80 168.109 64.809
2.81 163.657 63.662
2.82 159.401 62.956
2.83 156.505 63.227
2.84 154.973 63.828
2.85 152.998 64.185
2.86 149.579 64.579
2.87 145.518 65.575
2.88 142.271 67.369
2.89 139.612 69.485
2.90 137.336 71.062
2.91 133.797 71.929
2.92 131.062 72.485
2.93 129.642 72.518
2.94 127.571 71.864
2.95 125.842 71.438
2.96 123.727 71.608
2.97 122.254 71.788
2.98 121.377 71.619
2.99 121.087 71.191
3.00 121.099 70.849
3.01 120.475 70.692
3.02 120.694 70.613
3.03 120.182 70.516
3.04 120.757 70.258
3.05 121.484 69.839
3.06 121.292 69.435
3.07 121.337 69.156
3.08 120.805 69.111
3.09 120.432 69.096
3.10 121.365 68.654
3.11 122.177 67.998
3.12 122.765 67.265
3.13 123.488 66.249
3.14 121.889 64.668
3.15 122.346 62.841
3.16 123.760 61.296
3.17 124.867 59.765
3.18 123.924 58.008
3.19 120.192 56.009
3.20 119.015 54.286
3.21 119.776 52.302
3.22 --undefined-- 49.044
3.23 --undefined-- 44.482
3.24 --undefined-- 41.014
3.25 --undefined-- 40.146
3.26 --undefined-- 40.842
3.27 --undefined-- 45.882
3.28 --undefined-- 52.778
3.29 --undefined-- 58.335
3.30 --undefined-- 62.752
3.31 --undefined-- 66.320
3.32 --undefined-- 69.112
3.33 117.653 70.981
3.34 114.721 71.846
3.35 113.957 72.020
3.36 114.122 72.049
3.37 114.667 71.708
3.38 115.917 70.684
3.39 115.824 69.272
3.40 116.424 67.485
3.41 117.937 65.452
3.42 120.110 64.213
3.43 121.932 63.727
3.44 124.802 63.444
3.45 128.239 63.228
3.46 130.982 63.157
3.47 133.619 63.289
3.48 136.023 63.338
3.49 137.646 63.074
3.50 140.613 62.511
3.51 143.696 61.926
3.52 144.515 61.558
3.53 144.711 61.006
3.54 145.559 60.259
3.55 146.368 59.537
3.56 148.370 58.665
3.57 149.557 57.233
3.58 150.061 54.792
3.59 --undefined-- 51.502
3.60 --undefined-- 49.258
3.61 --undefined-- 48.804
3.62 --undefined-- 49.148
3.63 --undefined-- 50.489
3.64 --undefined-- 52.186
3.65 171.198 54.571
3.66 173.651 56.656
3.67 176.574 57.798
3.68 178.535 60.197
3.69 183.859 65.315
3.70 189.735 69.307
3.71 191.337 71.145
3.72 190.923 71.453
3.73 188.979 70.122
3.74 187.715 66.169
3.75 --undefined-- 58.813
3.76 --undefined-- 49.342
3.77 --undefined-- 45.240
3.78 --undefined-- 43.470
3.79 --undefined-- 40.906
3.80 --undefined-- 38.158
3.81 --undefined-- 36.577
3.82 --undefined-- 36.522
3.83 --undefined-- 37.927
3.84 --undefined-- 44.682
3.85 --undefined-- 52.880
3.86 140.107 59.001
3.87 138.290 62.816
3.88 136.391 64.632
3.89 134.888 65.295
3.90 132.042 66.083
3.91 130.383 67.026
3.92 129.699 67.399
3.93 129.238 66.914
3.94 129.553 65.639
3.95 130.252 63.940
3.96 129.897 61.689
3.97 125.063 57.657
3.98 --undefined-- 50.761
3.99 --undefined-- 41.819
4.00 --undefined-- 36.750
4.01 --undefined-- 37.881
4.02 --undefined-- 43.155
4.03 --undefined-- 47.111
4.04 --undefined-- 49.267
4.05 --undefined-- 50.264
4.06 --undefined-- 53.936
4.07 --undefined-- 61.988
4.08 --undefined-- 67.836
4.09 --undefined-- 70.857
4.10 --undefined-- 71.782
4.11 113.800 71.519
4.12 114.314 70.141
4.13 114.728 67.463
4.14 114.428 63.761
4.15 --undefined-- 59.313
4.16 --undefined-- 53.476
4.17 --undefined-- 48.594
4.18 --undefined-- 48.642
4.19 132.184 50.194
4.20 135.184 51.941
4.21 145.993 53.485
4.22 150.393 55.007
4.23 155.156 56.314
4.24 158.685 57.219
4.25 161.185 57.989
4.26 162.248 58.541
4.27 162.650 58.138
4.28 160.982 55.797
4.29 --undefined-- 50.817
4.30 --undefined-- 43.615
4.31 --undefined-- 37.490
4.32 --undefined-- 42.765
4.33 --undefined-- 54.997
4.34 --undefined-- 63.610
4.35 --undefined-- 68.887
4.36 --undefined-- 71.167
4.37 --undefined-- 71.346
4.38 119.973 70.334
4.39 114.000 68.476
4.40 113.343 66.064
4.41 113.303 63.532
4.42 112.868 61.604
4.43 112.220 60.200
4.44 111.483 58.689
4.45 111.309 56.881
4.46 111.036 55.003
4.47 109.834 53.246
4.48 109.003 50.768
4.49 --undefined-- 47.373
4.50 --undefined-- 44.314
4.51 --undefined-- 43.033
4.52 --undefined-- 44.974
4.53 --undefined-- 50.717
4.54 --undefined-- 57.327
4.55 --undefined-- 61.706
4.56 117.249 64.544
4.57 114.376 66.409
4.58 114.655 67.308
4.59 114.662 67.339
4.60 114.151 67.141
4.61 112.900 66.966
4.62 112.412 66.172
4.63 110.568 64.010
4.64 --undefined-- 59.855
4.65 --undefined-- 53.782
4.66 --undefined-- 46.642
4.67 --undefined-- 41.215
4.68 --undefined-- 38.012
4.69 --undefined-- 37.289
4.70 --undefined-- 37.486
4.71 --undefined-- 38.134
4.72 --undefined-- 44.090
4.73 --undefined-- 50.987
4.74 --undefined-- 56.146
4.75 --undefined-- 59.874
4.76 152.303 62.114
4.77 157.963 62.842
4.78 164.277 62.285
4.79 165.326 60.651
4.80 163.994 58.076
4.81 163.653 54.914
4.82 165.599 54.423
4.83 170.695 58.365
4.84 176.366 63.453
4.85 179.087 67.964
4.86 179.219 71.242
4.87 177.011 73.378
4.88 173.222 74.352
4.89 167.309 74.120
4.90 162.371 72.216
4.91 --undefined-- 68.115
4.92 --undefined-- 62.343
4.93 --undefined-- 55.856
4.94 --undefined-- 50.027
4.95 --undefined-- 47.987
4.96 --undefined-- 47.895
4.97 --undefined-- 51.554
4.98 --undefined-- 59.229
4.99 --undefined-- 65.007
5.00 --undefined-- 68.333
5.01 --undefined-- 69.366
5.02 --undefined-- 68.195
5.03 119.892 65.233
5.04 115.460 61.758
5.05 114.665 59.636
5.06 113.382 58.453
5.07 111.830 57.402
5.08 113.491 56.964
5.09 112.751 57.200
5.10 112.880 57.301
5.11 112.332 56.572
5.12 111.632 55.220
5.13 110.472 53.949
5.14 109.868 53.220
5.15 108.596 52.939
5.16 111.347 52.034
5.17 --undefined-- 49.187
5.18 --undefined-- 44.206
5.19 --undefined-- 40.251
5.20 --undefined-- 37.664
5.21 --undefined-- 34.568
5.22 --undefined-- 31.802
5.23 --undefined-- 30.932
5.24 --undefined-- 31.245
5.25 --undefined-- 32.488
5.26 --undefined-- 33.763
5.27 --undefined-- 33.835
5.28 --undefined-- 32.439
5.29 --undefined-- 31.975
5.30 --undefined-- 33.411
5.31 --undefined-- 33.817
5.32 --undefined-- 33.006
5.33 --undefined-- 32.248
5.34 --undefined-- 33.421
5.35 --undefined-- 46.978
5.36 --undefined-- 59.713
5.37 --undefined-- 67.930
5.38 --undefined-- 72.659
5.39 141.361 75.232
5.40 137.442 76.371
5.41 133.186 76.504
5.42 130.500 76.009
5.43 130.551 74.814
5.44 131.183 73.062
5.45 128.439 71.576
5.46 117.334 70.458
5.47 116.809 68.884
5.48 --undefined-- 66.537
5.49 --undefined-- 63.230
5.50 --undefined-- 58.913
5.51 --undefined-- 53.542
5.52 --undefined-- 47.206
5.53 --undefined-- 44.035
5.54 --undefined-- 44.144
5.55 --undefined-- 45.685
5.56 --undefined-- 47.785
5.57 --undefined-- 49.378
5.58 --undefined-- 50.201
5.59 --undefined-- 50.993
5.60 --undefined-- 55.614
5.61 --undefined-- 62.203
5.62 --undefined-- 66.274
5.63 118.875 67.823
5.64 118.065 67.964
5.65 117.169 66.983
5.66 --undefined-- 64.193
5.67 --undefined-- 58.990
5.68 --undefined-- 50.647
5.69 --undefined-- 40.808
5.70 --undefined-- 36.719
5.71 --undefined-- 35.520
5.72 --undefined-- 35.574
5.73 --undefined-- 36.530
5.74 --undefined-- 36.944
5.75 --undefined-- 37.282
5.76 --undefined-- 37.013
5.77 --undefined-- 36.324
5.78 --undefined-- 37.182
5.79 --undefined-- 38.408
5.80 --undefined-- 39.357
5.81 --undefined-- 43.563
5.82 --undefined-- 50.581
5.83 110.517 55.551
5.84 110.148 57.593
5.85 108.095 56.817
5.86 105.587 53.340
5.87 --undefined-- 47.475
5.88 --undefined-- 40.700
5.89 --undefined-- 37.051
5.90 --undefined-- 41.799
5.91 --undefined-- 51.048
5.92 --undefined-- 57.384
5.93 114.078 61.428
5.94 112.530 63.527
5.95 108.471 64.312
5.96 108.033 64.765
5.97 106.752 64.863
5.98 105.971 64.094
5.99 104.561 61.780
6.00 --undefined-- 56.993
6.01 --undefined-- 49.000
6.02 --undefined-- 40.289
6.03 --undefined-- 36.899
6.04 --undefined-- 35.421
6.05 --undefined-- 34.859
6.06 --undefined-- 34.754
6.07 --undefined-- 35.672
6.08 --undefined-- 36.181
6.09 --undefined-- 37.345
6.10 --undefined-- 42.943
6.11 --undefined-- 52.498
6.12 --undefined-- 60.247
6.13 110.312 64.968
6.14 109.609 67.315
6.15 108.162 67.708
6.16 106.173 66.554
6.17 105.154 63.934
6.18 100.918 59.201
6.19 --undefined-- 51.796
6.20 --undefined-- 42.228
6.21 --undefined-- 36.060
6.22 --undefined-- 34.389
6.23 --undefined-- 35.360
6.24 --undefined-- 36.558
6.25 --undefined-- 37.508
6.26 --undefined-- 38.234
6.27 --undefined-- 38.029
6.28 --undefined-- 38.183
6.29 --undefined-- 38.505
6.30 --undefined-- 37.791
6.31 --undefined-- 37.527
6.32 --undefined-- 38.191
6.33 --undefined-- 38.014
6.34 --undefined-- 36.732
6.35 --undefined-- 36.146
6.36 --undefined-- 36.528
6.37 --undefined-- 36.526
6.38 --undefined-- 36.158
6.39 --undefined-- 35.502
6.40 --undefined-- 34.993
6.41 --undefined-- 34.176
6.42 --undefined-- --undefined--
6.43 --undefined-- --undefined--
6.44 --undefined-- --undefined--
6.45 --undefined-- --undefined--
