Time Pitch Intensity
0.01 --undefined-- --undefined--
0.02 160.172 --undefined--
0.03 163.371 --undefined--
0.04 165.599 --undefined--
0.05 166.987 57.356
0.06 167.668 58.112
0.07 168.863 59.086
0.08 168.610 59.668
0.09 169.079 60.250
0.10 168.570 60.901
0.11 166.465 61.761
0.12 161.057 63.025
0.13 160.928 64.155
0.14 161.606 64.566
0.15 160.930 64.591
0.16 160.878 64.730
0.17 161.956 65.163
0.18 163.215 65.938
0.19 164.865 66.605
0.20 168.730 66.763
0.21 172.278 66.494
0.22 176.968 66.635
0.23 181.263 67.328
0.24 188.593 67.502
0.25 193.982 66.595
0.26 198.399 65.013
0.27 212.330 63.756
0.28 217.075 63.213
0.29 216.024 62.775
0.30 211.447 61.678
0.31 209.750 59.992
0.32 --undefined-- 58.456
0.33 --undefined-- 56.486
0.34 --undefined-- 53.292
0.35 --undefined-- 49.356
0.36 --undefined-- 46.572
0.37 --undefined-- 45.827
0.38 --undefined-- 45.295
0.39 --undefined-- 43.993
0.40 --undefined-- 48.318
0.41 --undefined-- 57.035
0.42 --undefined-- 62.691
0.43 211.212 65.463
0.44 207.295 66.291
0.45 205.095 65.976
0.46 205.341 65.249
0.47 207.206 64.859
0.48 210.501 64.957
0.49 212.286 65.091
0.50 214.467 65.307
0.51 215.479 65.653
0.52 215.982 65.860
0.53 217.521 65.836
0.54 219.107 65.484
0.55 219.273 64.903
0.56 219.276 64.381
0.57 219.067 63.939
0.58 218.589 63.593
0.59 218.343 63.298
0.60 218.730 62.892
0.61 218.838 62.543
0.62 218.421 62.284
0.63 217.620 61.906
0.64 216.367 61.534
0.65 215.547 61.317
0.66 215.512 61.405
0.67 215.917 61.749
0.68 216.788 62.052
0.69 217.184 62.313
0.70 217.469 62.886
0.71 218.429 64.534
0.72 220.380 67.376
0.73 231.876 69.596
0.74 221.587 69.960
0.75 216.552 69.324
0.76 208.489 69.624
0.77 204.502 70.469
0.78 202.925 70.673
0.79 203.102 69.616
0.80 204.304 67.287
0.81 207.850 64.363
0.82 205.013 60.977
0.83 202.690 56.418
0.84 203.234 51.282
0.85 --undefined-- 47.529
0.86 --undefined-- 44.989
0.87 --undefined-- 44.060
0.88 --undefined-- 43.568
0.89 --undefined-- 42.295
0.90 --undefined-- 41.939
0.91 --undefined-- 42.623
0.92 --undefined-- 44.391
0.93 --undefined-- 47.351
0.94 --undefined-- 54.394
0.95 166.851 61.114
0.96 164.483 65.031
0.97 167.974 66.991
0.98 171.210 68.028
0.99 172.250 68.493
1.00 171.288 68.450
1.01 169.422 68.220
1.02 167.531 68.261
1.03 165.145 68.494
1.04 161.925 68.198
1.05 155.904 66.821
1.06 297.324 64.019
1.07 286.159 59.467
1.08 --undefined-- 53.396
1.09 --undefined-- 47.830
1.10 --undefined-- 45.519
1.11 --undefined-- 47.670
1.12 --undefined-- 50.150
1.13 --undefined-- 51.556
1.14 --undefined-- 51.290
1.15 --undefined-- 50.415
1.16 189.943 52.678
1.17 189.706 55.670
1.18 189.356 57.206
1.19 191.129 57.967
1.20 196.007 58.606
1.21 187.002 59.516
1.22 176.641 60.534
1.23 174.404 60.836
1.24 171.237 60.060
1.25 168.883 58.974
1.26 168.645 58.489
1.27 165.744 58.524
1.28 165.460 58.528
1.29 164.696 58.106
1.30 166.502 57.859
1.31 168.420 57.972
1.32 167.836 58.411
1.33 166.467 59.032
1.34 166.504 59.529
1.35 168.284 59.982
1.36 171.482 60.597
1.37 173.130 61.261
1.38 174.383 61.793
1.39 175.352 62.384
1.40 176.426 63.143
1.41 176.939 63.752
1.42 178.678 64.102
1.43 180.846 63.988
1.44 181.626 62.967
1.45 180.006 60.688
1.46 180.649 56.927
1.47 181.774 52.232
1.48 --undefined-- 50.492
1.49 --undefined-- 52.264
1.50 --undefined-- 52.821
1.51 --undefined-- 50.472
1.52 --undefined-- 46.767
1.53 --undefined-- 45.338
1.54 --undefined-- 46.277
1.55 --undefined-- 53.560
1.56 216.183 60.069
1.57 197.262 63.777
1.58 185.392 65.695
1.59 177.948 66.884
1.60 173.269 67.389
1.61 171.456 66.996
1.62 171.072 66.020
1.63 171.335 65.171
1.64 172.055 64.720
1.65 172.068 64.285
1.66 171.490 63.781
1.67 171.100 63.459
1.68 172.229 63.351
1.69 173.530 63.191
1.70 175.244 62.914
1.71 176.099 62.582
1.72 176.517 62.222
1.73 177.425 62.149
1.74 179.270 62.424
1.75 181.255 62.738
1.76 183.260 62.900
1.77 184.232 62.764
1.78 184.084 61.718
1.79 183.934 59.008
1.80 180.834 54.533
1.81 --undefined-- 50.983
1.82 --undefined-- 49.996
1.83 --undefined-- 47.572
1.84 --undefined-- 46.124
1.85 --undefined-- 51.486
1.86 --undefined-- 57.790
1.87 210.623 61.784
1.88 206.583 64.284
1.89 198.414 66.241
1.90 193.447 67.725
1.91 191.040 68.581
1.92 189.341 68.932
1.93 188.764 69.064
1.94 188.762 68.940
1.95 189.648 68.393
1.96 191.275 67.611
1.97 194.185 66.941
1.98 195.363 66.415
1.99 195.285 66.008
2.00 194.789 65.646
2.01 195.203 65.140
2.02 196.524 64.677
2.03 196.839 64.173
2.04 195.703 62.910
2.05 192.757 60.006
2.06 188.223 55.128
2.07 192.863 49.513
2.08 --undefined-- 44.968
2.09 --undefined-- 44.665
2.10 --undefined-- 46.164
2.11 --undefined-- 49.478
2.12 --undefined-- 55.237
2.13 --undefined-- 59.560
2.14 --undefined-- 61.918
2.15 --undefined-- 61.630
2.16 --undefined-- 58.436
2.17 --undefined-- 53.835
2.18 --undefined-- 52.484
2.19 178.627 54.954
2.20 178.674 58.614
2.21 180.805 61.909
2.22 187.557 64.206
2.23 192.469 65.357
2.24 196.832 65.417
2.25 201.479 64.809
2.26 203.890 63.965
2.27 202.384 62.705
2.28 199.141 60.907
2.29 196.440 58.838
2.30 193.063 56.798
2.31 183.249 55.352
2.32 183.134 54.728
2.33 187.183 54.651
2.34 192.293 55.641
2.35 195.657 57.117
2.36 201.040 58.521
2.37 189.684 60.230
2.38 177.858 61.817
2.39 172.573 62.656
2.40 168.287 62.921
2.41 164.975 62.972
2.42 162.520 62.586
2.43 163.260 61.499
2.44 166.377 60.009
2.45 169.609 58.727
2.46 171.004 57.438
2.47 170.077 55.072
2.48 --undefined-- 51.283
2.49 --undefined-- 48.638
2.50 --undefined-- 48.746
2.51 --undefined-- 49.034
2.52 --undefined-- 49.051
2.53 --undefined-- 48.103
2.54 --undefined-- 46.320
2.55 --undefined-- 43.338
2.56 --undefined-- 41.075
2.57 --undefined-- 40.795
2.58 --undefined-- 40.227
2.59 --undefined-- 43.782
2.60 --undefined-- 51.555
2.61 173.244 57.237
2.62 164.300 60.639
2.63 161.234 62.492
2.64 158.882 63.116
2.65 157.151 62.677
2.66 153.817 61.216
2.67 147.252 58.392
2.68 147.272 53.837
2.69 --undefined-- 48.576
2.70 --undefined-- 47.838
2.71 --undefined-- 53.607
2.72 --undefined-- 59.545
2.73 196.410 63.323
2.74 186.538 65.473
2.75 185.862 66.505
2.76 186.011 66.605
2.77 185.983 66.192
2.78 186.772 65.748
2.79 188.691 65.476
2.80 190.355 65.380
2.81 191.738 65.224
2.82 192.278 64.837
2.83 192.011 64.290
2.84 192.400 63.767
2.85 192.597 63.323
2.86 192.774 62.954
2.87 193.465 62.617
2.88 195.338 62.117
2.89 196.457 61.137
2.90 195.154 59.248
2.91 191.572 55.824
2.92 190.288 51.208
2.93 --undefined-- 49.562
2.94 --undefined-- 50.061
2.95 --undefined-- 49.009
2.96 --undefined-- 45.486
2.97 --undefined-- 42.617
2.98 --undefined-- 44.269
2.99 --undefined-- 47.420
3.00 --undefined-- 50.178
3.01 --undefined-- 52.210
3.02 270.477 56.437
3.03 272.135 61.389
3.04 259.486 64.131
3.05 257.763 65.160
3.06 257.773 65.518
3.07 258.222 65.685
3.08 259.580 65.814
3.09 260.373 65.940
3.10 260.126 66.084
3.11 258.438 66.227
3.12 256.927 66.220
3.13 255.270 65.575
3.14 251.291 63.440
3.15 243.716 59.018
3.16 --undefined-- 52.146
3.17 --undefined-- 46.309
3.18 --undefined-- 44.992
3.19 --undefined-- 48.800
3.20 --undefined-- 56.147
3.21 201.564 61.203
3.22 188.820 63.834
3.23 186.048 64.772
3.24 184.670 64.657
3.25 185.391 63.529
3.26 184.740 60.836
3.27 185.209 56.257
3.28 --undefined-- 51.047
3.29 --undefined-- 49.236
3.30 --undefined-- 49.211
3.31 --undefined-- 48.866
3.32 --undefined-- 52.089
3.33 --undefined-- 56.938
3.34 --undefined-- 59.255
3.35 --undefined-- 58.583
3.36 --undefined-- 56.131
3.37 --undefined-- 54.537
3.38 195.479 55.807
3.39 195.941 57.147
3.40 191.053 58.050
3.41 168.579 59.350
3.42 160.562 60.373
3.43 149.037 61.032
3.44 144.634 61.514
3.45 141.110 61.502
3.46 140.806 60.921
3.47 142.525 60.493
3.48 142.674 60.586
3.49 142.642 60.671
3.50 143.052 60.473
3.51 143.586 60.056
3.52 144.321 59.718
3.53 146.251 59.717
3.54 149.636 59.652
3.55 153.867 59.076
3.56 157.262 57.878
3.57 158.489 56.349
3.58 159.532 55.271
3.59 160.698 54.888
3.60 157.599 54.755
3.61 175.335 55.642
3.62 192.730 57.835
3.63 193.323 60.101
3.64 178.957 62.248
3.65 178.889 64.292
3.66 178.334 65.874
3.67 177.385 67.067
3.68 175.606 68.073
3.69 173.942 68.515
3.70 172.643 68.289
3.71 172.368 68.096
3.72 172.232 68.379
3.73 171.721 68.972
3.74 169.339 69.729
3.75 167.640 70.496
3.76 166.822 71.013
3.77 167.266 71.345
3.78 167.948 71.653
3.79 167.190 71.737
3.80 165.545 71.250
3.81 163.165 69.965
3.82 158.506 67.686
3.83 --undefined-- 64.386
3.84 --undefined-- 61.106
3.85 --undefined-- 58.121
3.86 --undefined-- 53.469
3.87 --undefined-- 49.660
3.88 --undefined-- 51.244
3.89 --undefined-- 51.781
3.90 --undefined-- 49.479
3.91 --undefined-- 46.143
3.92 --undefined-- 45.872
3.93 --undefined-- 48.688
3.94 --undefined-- 51.345
3.95 --undefined-- 52.324
3.96 --undefined-- 51.203
3.97 --undefined-- 49.650
3.98 --undefined-- 49.790
3.99 --undefined-- 49.750
4.00 --undefined-- 48.365
4.01 --undefined-- 45.922
4.02 --undefined-- 45.027
4.03 --undefined-- 45.982
4.04 --undefined-- 46.709
4.05 --undefined-- 46.732
4.06 --undefined-- 47.221
4.07 --undefined-- 47.406
4.08 --undefined-- 46.108
4.09 --undefined-- 45.455
4.10 --undefined-- 47.546
4.11 --undefined-- 49.273
4.12 --undefined-- 49.139
4.13 --undefined-- 47.854
4.14 --undefined-- 46.226
4.15 --undefined-- 44.108
4.16 --undefined-- 42.801
4.17 --undefined-- 45.665
4.18 --undefined-- 48.498
4.19 --undefined-- 50.054
4.20 --undefined-- 53.086
4.21 --undefined-- 60.591
4.22 154.729 66.388
4.23 154.077 69.617
4.24 158.387 71.041
4.25 166.100 71.391
4.26 173.651 71.232
4.27 178.522 70.598
4.28 181.220 69.079
4.29 180.311 66.205
4.30 --undefined-- 61.635
4.31 --undefined-- 57.578
4.32 --undefined-- 62.655
4.33 --undefined-- 67.564
4.34 --undefined-- 69.549
4.35 --undefined-- 69.845
4.36 --undefined-- 69.829
4.37 287.142 69.518
4.38 271.640 68.911
4.39 260.451 68.393
4.40 252.107 67.992
4.41 247.619 67.541
4.42 244.850 67.011
4.43 242.354 66.402
4.44 239.059 65.765
4.45 235.514 65.689
4.46 232.980 66.081
4.47 230.188 66.258
4.48 231.861 66.463
4.49 228.561 66.904
4.50 226.248 67.299
4.51 224.898 67.498
4.52 222.804 67.585
4.53 221.331 67.644
4.54 220.087 67.593
4.55 220.353 67.514
4.56 220.797 67.500
4.57 220.466 67.290
4.58 218.343 66.500
4.59 215.434 65.246
4.60 219.753 64.436
4.61 221.545 64.260
4.62 225.138 64.212
4.63 230.889 64.269
4.64 236.781 64.883
4.65 257.216 66.741
4.66 284.530 69.122
4.67 297.879 70.967
4.68 154.596 72.013
4.69 161.540 72.125
4.70 168.768 71.498
4.71 174.577 70.499
4.72 177.781 69.566
4.73 179.901 69.458
4.74 179.088 70.051
4.75 176.571 69.994
4.76 166.709 69.065
4.77 158.961 67.607
4.78 152.129 64.802
4.79 145.394 59.503
4.80 --undefined-- 53.088
4.81 --undefined-- 55.091
4.82 --undefined-- 61.448
4.83 258.264 65.423
4.84 239.888 67.832
4.85 225.664 69.837
4.86 224.062 71.120
4.87 225.848 71.562
4.88 230.079 71.341
4.89 240.095 70.501
4.90 246.793 69.393
4.91 252.865 69.006
4.92 256.100 69.597
4.93 260.547 70.355
4.94 261.457 70.555
4.95 256.928 69.950
4.96 245.794 69.388
4.97 233.390 69.694
4.98 --undefined-- 69.472
4.99 --undefined-- 67.782
5.00 --undefined-- 65.277
5.01 --undefined-- 62.591
5.02 --undefined-- 59.452
5.03 --undefined-- 56.945
5.04 --undefined-- 56.309
5.05 --undefined-- 57.903
5.06 --undefined-- 60.443
5.07 211.089 63.037
5.08 219.750 65.177
5.09 223.635 66.620
5.10 229.685 68.112
5.11 238.926 --undefined--
5.12 241.072 --undefined--
5.13 --undefined-- --undefined--
5.14 --undefined-- --undefined--
