Time Pitch Intensity
0.01 --undefined-- --undefined--
0.02 279.034 --undefined--
0.03 276.165 --undefined--
0.04 273.189 --undefined--
0.05 270.723 68.572
0.06 268.300 68.859
0.07 265.248 69.222
0.08 259.276 69.335
0.09 250.778 69.229
0.10 241.752 69.326
0.11 231.234 69.730
0.12 221.331 69.944
0.13 209.984 70.520
0.14 206.265 71.885
0.15 194.332 72.741
0.16 185.392 72.653
0.17 175.823 72.106
0.18 170.454 71.824
0.19 163.738 71.926
0.20 160.737 71.885
0.21 157.678 71.529
0.22 157.931 71.298
0.23 158.500 71.471
0.24 158.051 71.794
0.25 156.618 71.688
0.26 155.950 71.032
0.27 154.991 70.195
0.28 157.878 69.735
0.29 160.877 69.756
0.30 161.958 69.878
0.31 162.517 69.889
0.32 162.127 69.803
0.33 161.226 69.589
0.34 161.121 69.293
0.35 161.892 69.012
0.36 163.302 68.839
0.37 165.267 68.820
0.38 167.642 68.786
0.39 170.023 68.629
0.40 171.142 68.505
0.41 172.626 69.045
0.42 183.260 70.972
0.43 182.294 72.648
0.44 180.194 72.864
0.45 179.421 72.346
0.46 177.764 71.351
0.47 174.209 69.120
0.48 168.536 65.272
0.49 174.713 60.168
0.50 179.529 54.869
0.51 --undefined-- 50.953
0.52 --undefined-- 49.064
0.53 --undefined-- 47.338
0.54 --undefined-- 48.407
0.55 --undefined-- 51.270
0.56 --undefined-- 52.512
0.57 --undefined-- 52.273
0.58 --undefined-- 50.207
0.59 --undefined-- 46.527
0.60 --undefined-- 43.142
0.61 --undefined-- 41.231
0.62 --undefined-- 42.817
0.63 --undefined-- 49.210
0.64 --undefined-- 59.872
0.65 247.488 67.707
0.66 241.658 71.893
0.67 231.834 73.284
0.68 216.891 73.177
0.69 210.958 72.851
0.70 207.848 72.589
0.71 205.141 72.276
0.72 203.964 72.063
0.73 203.812 71.771
0.74 202.668 70.652
0.75 197.864 68.173
0.76 189.342 64.053
0.77 191.245 58.273
0.78 102.080 52.395
0.79 102.423 50.054
0.80 102.391 49.599
0.81 --undefined-- 49.000
0.82 --undefined-- 48.358
0.83 --undefined-- 47.841
0.84 --undefined-- 49.303
0.85 --undefined-- 57.253
0.86 203.342 64.649
0.87 189.145 69.056
0.88 183.997 71.229
0.89 180.753 72.114
0.90 176.764 72.341
0.91 172.988 72.310
0.92 169.616 72.151
0.93 167.403 71.580
0.94 164.452 69.912
0.95 161.134 66.322
0.96 167.658 60.390
0.97 168.423 54.134
0.98 169.037 50.464
0.99 --undefined-- 47.495
1.00 --undefined-- 48.058
1.01 --undefined-- 51.405
1.02 --undefined-- 57.756
1.03 191.143 65.098
1.04 169.504 69.521
1.05 170.102 71.491
1.06 170.984 72.014
1.07 170.070 71.735
1.08 168.113 70.775
1.09 165.815 69.595
1.10 169.890 69.014
1.11 176.803 69.028
1.12 183.909 69.516
1.13 187.977 70.357
1.14 192.652 71.040
1.15 201.935 71.707
1.16 207.036 72.551
1.17 210.052 72.939
1.18 211.639 72.694
1.19 212.942 72.291
1.20 214.661 72.114
1.21 216.491 72.270
1.22 219.281 72.414
1.23 222.604 71.920
1.24 233.860 70.681
1.25 247.694 69.439
1.26 251.242 68.477
1.27 248.495 67.564
1.28 245.866 67.016
1.29 243.633 67.289
1.30 238.877 68.323
1.31 230.155 69.612
1.32 217.091 70.584
1.33 201.488 71.128
1.34 187.721 71.316
1.35 174.234 71.182
1.36 168.393 71.106
1.37 164.690 71.101
1.38 162.431 71.161
1.39 161.633 71.554
1.40 159.819 71.920
1.41 156.130 72.069
1.42 154.812 72.306
1.43 153.915 72.372
1.44 154.192 72.275
1.45 155.699 72.221
1.46 158.117 72.178
1.47 160.465 71.935
1.48 163.048 71.309
1.49 164.280 70.224
1.50 163.481 68.513
1.51 161.389 66.103
1.52 159.998 62.784
1.53 --undefined-- 59.099
1.54 --undefined-- 57.120
1.55 --undefined-- 56.018
1.56 --undefined-- 54.401
1.57 --undefined-- 53.483
1.58 --undefined-- 53.603
1.59 --undefined-- 53.650
1.60 --undefined-- 52.707
1.61 --undefined-- 52.846
1.62 --undefined-- 60.156
1.63 221.041 66.723
1.64 210.958 70.301
1.65 206.689 71.785
1.66 204.291 72.257
1.67 202.286 72.318
1.68 200.769 72.209
1.69 200.683 72.143
1.70 201.541 72.103
1.71 202.530 72.071
1.72 202.906 71.963
1.73 202.350 71.594
1.74 202.340 71.110
1.75 204.043 70.804
1.76 205.825 70.606
1.77 206.218 70.206
1.78 204.571 69.379
1.79 202.763 67.985
1.80 199.713 65.553
1.81 196.048 61.571
1.82 --undefined-- 57.981
1.83 --undefined-- 57.550
1.84 --undefined-- 56.636
1.85 197.408 57.611
1.86 191.692 61.118
1.87 174.635 63.420
1.88 162.666 64.245
1.89 151.236 64.147
1.90 138.534 63.652
1.91 132.143 63.413
1.92 128.385 63.948
1.93 127.270 64.776
1.94 126.664 65.162
1.95 124.392 65.059
1.96 118.240 64.576
1.97 114.613 63.212
1.98 --undefined-- 60.247
1.99 --undefined-- 55.811
2.00 --undefined-- 51.229
2.01 --undefined-- 50.060
2.02 --undefined-- 51.542
2.03 --undefined-- 58.866
2.04 196.873 65.861
2.05 194.904 70.062
2.06 199.426 72.363
2.07 204.857 73.509
2.08 205.239 73.838
2.09 203.883 73.605
2.10 202.519 72.828
2.11 199.853 71.180
2.12 195.406 68.433
2.13 193.468 64.717
2.14 200.474 60.114
2.15 201.102 55.231
2.16 201.175 56.740
2.17 --undefined-- 62.257
2.18 --undefined-- 65.120
2.19 --undefined-- 65.410
2.20 --undefined-- 64.915
2.21 --undefined-- 63.746
2.22 --undefined-- 61.638
2.23 --undefined-- 63.328
2.24 228.039 68.371
2.25 215.124 71.717
2.26 207.561 73.437
2.27 201.456 74.227
2.28 197.250 74.461
2.29 194.269 74.365
2.30 192.722 74.093
2.31 191.126 73.670
2.32 188.962 73.038
2.33 185.594 72.306
2.34 176.961 71.863
2.35 165.655 71.548
2.36 152.162 70.058
2.37 --undefined-- 66.347
2.38 --undefined-- 59.944
2.39 --undefined-- 51.263
2.40 --undefined-- 45.993
2.41 --undefined-- 45.170
2.42 --undefined-- 45.144
2.43 --undefined-- 44.717
2.44 --undefined-- 45.165
2.45 --undefined-- 46.264
2.46 --undefined-- 47.115
2.47 --undefined-- 47.503
2.48 --undefined-- 47.440
2.49 --undefined-- 47.411
2.50 --undefined-- 47.517
2.51 --undefined-- 47.766
2.52 --undefined-- 48.001
2.53 --undefined-- 48.246
2.54 --undefined-- 48.495
2.55 --undefined-- 48.880
2.56 --undefined-- 49.434
2.57 --undefined-- 49.525
2.58 --undefined-- 49.288
2.59 --undefined-- 49.234
2.60 --undefined-- 49.067
2.61 --undefined-- 48.672
2.62 --undefined-- 48.124
2.63 --undefined-- 47.451
2.64 --undefined-- 47.068
2.65 --undefined-- 47.064
2.66 --undefined-- 47.273
2.67 --undefined-- 47.120
2.68 --undefined-- 46.071
2.69 --undefined-- 44.645
2.70 --undefined-- 43.812
2.71 --undefined-- 43.473
2.72 --undefined-- 43.108
2.73 --undefined-- 42.588
2.74 --undefined-- 41.020
2.75 --undefined-- 39.102
2.76 --undefined-- 39.045
2.77 --undefined-- 40.384
2.78 --undefined-- 43.489
2.79 --undefined-- 52.225
2.80 --undefined-- 61.397
2.81 278.740 68.270
2.82 275.921 72.306
2.83 277.154 73.854
2.84 284.525 73.895
2.85 292.691 73.600
2.86 297.014 73.544
2.87 151.029 73.617
2.88 152.153 73.335
2.89 151.930 72.180
2.90 150.230 70.372
2.91 149.655 69.194
2.92 150.598 69.470
2.93 150.579 70.359
2.94 298.521 71.391
2.95 289.882 72.675
2.96 279.984 73.454
2.97 264.477 73.507
2.98 241.535 73.552
2.99 224.922 73.681
3.00 215.225 73.421
3.01 208.413 72.916
3.02 202.911 72.565
3.03 199.400 72.171
3.04 197.674 71.550
3.05 196.902 71.070
3.06 196.700 70.981
3.07 197.762 70.898
3.08 201.560 70.367
3.09 209.665 69.427
3.10 218.760 68.231
3.11 220.999 67.008
3.12 217.878 66.722
3.13 216.721 67.436
3.14 218.173 68.179
3.15 214.882 68.729
3.16 208.726 69.313
3.17 196.414 70.339
3.18 185.484 71.740
3.19 174.403 72.710
3.20 165.382 72.619
3.21 161.185 71.045
3.22 156.981 67.540
3.23 151.952 61.929
3.24 161.425 55.752
3.25 163.239 51.678
3.26 --undefined-- 48.752
3.27 --undefined-- 47.001
3.28 --undefined-- 46.928
3.29 --undefined-- 47.706
3.30 --undefined-- 47.435
3.31 --undefined-- 46.568
3.32 --undefined-- 46.710
3.33 --undefined-- 47.822
3.34 --undefined-- 49.002
3.35 --undefined-- 49.919
3.36 --undefined-- 53.721
3.37 272.091 62.621
3.38 267.551 68.895
3.39 264.815 71.863
3.40 259.428 72.581
3.41 251.290 72.437
3.42 243.792 72.327
3.43 240.296 72.372
3.44 238.658 72.348
3.45 237.277 72.086
3.46 236.409 71.564
3.47 235.764 70.700
3.48 235.631 69.507
3.49 234.761 68.431
3.50 236.286 68.129
3.51 237.824 68.315
3.52 238.947 68.545
3.53 240.376 68.762
3.54 240.465 68.919
3.55 238.552 68.886
3.56 235.729 68.447
3.57 231.515 67.267
3.58 227.013 64.859
3.59 220.441 60.672
3.60 --undefined-- 54.933
3.61 --undefined-- 53.740
3.62 --undefined-- 58.047
3.63 229.585 63.247
3.64 218.174 66.667
3.65 204.005 68.080
3.66 191.483 68.383
3.67 178.024 67.804
3.68 167.985 66.273
3.69 157.439 64.963
3.70 158.284 64.875
3.71 158.353 65.639
3.72 156.446 66.675
3.73 154.466 67.689
3.74 148.291 69.008
3.75 140.520 70.104
3.76 136.775 70.520
3.77 135.387 70.617
3.78 135.979 70.843
3.79 136.951 71.043
3.80 138.128 71.067
3.81 138.953 70.843
3.82 142.452 70.282
3.83 143.732 69.640
3.84 146.947 68.720
3.85 147.320 66.572
3.86 151.203 62.950
3.87 183.283 58.887
3.88 --undefined-- 53.970
3.89 --undefined-- 47.464
3.90 --undefined-- 42.410
3.91 --undefined-- 40.856
3.92 --undefined-- 40.377
3.93 --undefined-- 43.087
3.94 --undefined-- 52.695
3.95 --undefined-- 60.930
3.96 --undefined-- 67.520
3.97 238.008 72.222
3.98 241.192 74.446
3.99 246.120 74.574
4.00 245.979 73.440
4.01 242.583 71.842
4.02 239.765 70.295
4.03 237.431 69.353
4.04 237.355 69.194
4.05 237.545 69.354
4.06 237.846 69.571
4.07 239.300 69.791
4.08 239.383 70.020
4.09 239.651 70.327
4.10 240.458 70.686
4.11 242.113 70.972
4.12 243.681 71.179
4.13 244.381 71.325
4.14 245.621 71.365
4.15 246.307 71.214
4.16 245.769 70.825
4.17 242.517 70.103
4.18 234.395 68.594
4.19 223.913 65.570
4.20 213.791 60.441
4.21 222.150 54.403
4.22 234.991 51.723
4.23 --undefined-- 53.386
4.24 --undefined-- 58.274
4.25 --undefined-- 65.353
4.26 226.947 70.430
4.27 223.264 72.719
4.28 214.042 73.080
4.29 205.384 72.717
4.30 199.005 72.224
4.31 193.680 71.341
4.32 188.917 69.930
4.33 185.571 68.442
4.34 183.322 67.514
4.35 182.054 67.328
4.36 181.769 67.845
4.37 181.702 68.556
4.38 181.950 68.957
4.39 182.927 69.110
4.40 186.002 69.415
4.41 191.881 70.137
4.42 197.774 71.120
4.43 206.812 72.235
4.44 210.056 72.904
4.45 212.191 72.924
4.46 214.851 72.858
4.47 216.267 73.005
4.48 216.991 72.873
4.49 216.562 71.765
4.50 215.728 69.365
4.51 219.608 65.771
4.52 217.873 60.807
4.53 215.684 54.119
4.54 --undefined-- 47.867
4.55 --undefined-- 44.989
4.56 --undefined-- 44.239
4.57 --undefined-- 45.136
4.58 --undefined-- 46.560
4.59 --undefined-- 47.558
4.60 --undefined-- 47.506
4.61 --undefined-- 47.239
4.62 --undefined-- 47.794
4.63 --undefined-- 48.024
4.64 --undefined-- 47.360
4.65 --undefined-- 46.610
4.66 --undefined-- 46.622
4.67 --undefined-- 46.660
4.68 --undefined-- 45.709
4.69 --undefined-- 44.035
4.70 --undefined-- 42.255
4.71 --undefined-- 40.398
4.72 --undefined-- 39.144
4.73 --undefined-- 38.176
4.74 --undefined-- 36.859
4.75 --undefined-- 37.311
4.76 --undefined-- 39.057
4.77 --undefined-- 39.284
4.78 --undefined-- 39.583
4.79 --undefined-- 48.612
4.80 --undefined-- 59.118
4.81 --undefined-- 66.791
4.82 236.785 71.226
4.83 232.827 73.225
4.84 230.816 73.808
4.85 230.169 73.989
4.86 231.494 74.174
4.87 232.289 74.328
4.88 232.173 74.424
4.89 232.363 74.449
4.90 232.975 74.326
4.91 233.413 74.029
4.92 233.158 73.626
4.93 233.049 73.153
4.94 233.160 72.619
4.95 234.304 71.986
4.96 235.524 71.216
4.97 236.633 70.407
4.98 236.983 69.712
4.99 237.321 68.914
5.00 235.251 67.228
5.01 219.295 64.044
5.02 208.782 60.531
5.03 215.364 57.736
5.04 219.550 53.251
5.05 --undefined-- 46.540
5.06 --undefined-- 41.409
5.07 --undefined-- 40.350
5.08 --undefined-- 46.618
5.09 --undefined-- 56.688
5.10 --undefined-- 64.526
5.11 276.383 69.135
5.12 269.943 71.165
5.13 268.109 71.744
5.14 270.823 71.957
5.15 275.323 72.217
5.16 277.441 72.531
5.17 278.252 72.626
5.18 278.813 72.351
5.19 279.013 71.818
5.20 279.105 71.332
5.21 278.917 70.838
5.22 278.143 69.990
5.23 278.381 68.777
5.24 280.046 67.852
5.25 280.402 67.710
5.26 281.588 68.020
5.27 282.864 --undefined--
5.28 283.038 --undefined--
5.29 --undefined-- --undefined--
5.30 --undefined-- --undefined--
