Time Pitch Intensity
0.01 --undefined-- --undefined--
0.02 142.390 --undefined--
0.03 143.353 --undefined--
0.04 146.582 --undefined--
0.05 150.163 78.374
0.06 154.411 79.709
0.07 162.362 79.752
0.08 177.393 79.454
0.09 198.997 79.883
0.10 204.313 80.411
0.11 209.054 79.712
0.12 221.943 77.865
0.13 216.327 75.799
0.14 207.016 73.022
0.15 197.644 68.720
0.16 187.284 62.592
0.17 --undefined-- 55.875
0.18 --undefined-- 53.549
0.19 --undefined-- 53.273
0.20 --undefined-- 55.742
0.21 --undefined-- 64.765
0.22 196.432 71.185
0.23 171.509 74.492
0.24 157.475 75.657
0.25 147.684 75.801
0.26 150.712 75.592
0.27 154.066 75.168
0.28 158.758 74.614
0.29 160.247 73.219
0.30 157.358 69.860
0.31 145.049 64.206
0.32 --undefined-- 57.766
0.33 --undefined-- 56.422
0.34 --undefined-- 60.521
0.35 --undefined-- 65.671
0.36 196.700 71.164
0.37 187.996 74.863
0.38 183.620 76.374
0.39 182.441 76.338
0.40 182.624 75.829
0.41 184.234 75.811
0.42 186.552 76.440
0.43 187.629 76.854
0.44 188.898 76.743
0.45 188.952 76.476
0.46 190.406 76.120
0.47 189.552 75.229
0.48 185.374 73.022
0.49 179.423 69.964
0.50 174.578 68.438
0.51 170.260 68.269
0.52 164.833 68.329
0.53 157.055 68.227
0.54 148.704 68.193
0.55 139.641 69.115
0.56 130.933 70.665
0.57 127.880 72.023
0.58 125.512 72.910
0.59 122.615 73.043
0.60 117.187 72.417
0.61 111.724 71.313
0.62 107.363 70.073
0.63 105.073 69.212
0.64 105.771 69.154
0.65 106.674 69.536
0.66 109.624 70.002
0.67 113.743 70.213
0.68 116.497 69.618
0.69 115.339 67.626
0.70 104.546 63.786
0.71 91.576 58.362
0.72 --undefined-- 54.593
0.73 --undefined-- 57.396
0.74 --undefined-- 59.936
0.75 --undefined-- 61.015
0.76 --undefined-- 61.950
0.77 --undefined-- 61.992
0.78 --undefined-- 61.209
0.79 --undefined-- 61.975
0.80 127.282 64.866
0.81 134.942 67.077
0.82 135.923 68.244
0.83 125.402 69.466
0.84 122.345 71.013
0.85 127.177 72.409
0.86 133.123 73.519
0.87 143.313 74.311
0.88 151.346 74.505
0.89 156.657 73.910
0.90 159.020 72.152
0.91 155.250 68.547
0.92 147.429 63.215
0.93 158.072 60.049
0.94 176.682 64.698
0.95 172.617 70.782
0.96 168.793 74.816
0.97 160.037 77.129
0.98 153.193 78.534
0.99 148.408 79.081
1.00 145.424 78.374
1.01 141.262 75.995
1.02 130.578 71.487
1.03 --undefined-- 64.667
1.04 --undefined-- 55.879
1.05 --undefined-- 47.455
1.06 --undefined-- 43.326
1.07 --undefined-- 40.602
1.08 --undefined-- 42.445
1.09 --undefined-- 50.302
1.10 --undefined-- 57.241
1.11 --undefined-- 63.476
1.12 --undefined-- 68.895
1.13 143.693 72.334
1.14 138.575 73.548
1.15 127.973 73.240
1.16 123.982 72.621
1.17 123.133 72.204
1.18 122.612 71.980
1.19 121.712 72.154
1.20 121.792 72.552
1.21 122.638 72.622
1.22 126.015 72.218
1.23 126.171 71.503
1.24 125.907 70.147
1.25 118.082 67.391
1.26 109.357 62.734
1.27 --undefined-- 56.328
1.28 --undefined-- 50.072
1.29 --undefined-- 52.544
1.30 --undefined-- 60.321
1.31 --undefined-- 67.156
1.32 --undefined-- 71.666
1.33 --undefined-- 73.757
1.34 118.554 74.153
1.35 118.116 73.604
1.36 118.167 72.929
1.37 121.344 72.745
1.38 121.643 72.752
1.39 120.382 72.458
1.40 118.614 72.083
1.41 117.644 71.883
1.42 114.514 71.714
1.43 116.532 71.692
1.44 116.963 71.706
1.45 119.940 71.298
1.46 124.419 70.510
1.47 125.319 69.327
1.48 125.367 67.515
1.49 127.481 65.957
1.50 137.099 66.902
1.51 149.982 69.732
1.52 157.922 72.514
1.53 163.119 75.030
1.54 164.169 77.116
1.55 163.843 78.025
1.56 163.636 77.738
1.57 163.585 77.068
1.58 163.012 76.236
1.59 162.588 75.162
1.60 160.922 74.697
1.61 160.843 74.632
1.62 161.226 73.966
1.63 159.186 72.389
1.64 147.977 69.848
1.65 139.099 68.187
1.66 140.144 70.217
1.67 139.786 72.289
1.68 135.651 72.304
1.69 122.112 70.352
1.70 113.611 66.825
1.71 104.013 61.843
1.72 --undefined-- 55.764
1.73 --undefined-- 50.010
1.74 --undefined-- 45.802
1.75 --undefined-- 42.755
1.76 --undefined-- 42.588
1.77 --undefined-- 43.911
1.78 --undefined-- 44.045
1.79 --undefined-- 44.583
1.80 --undefined-- 46.192
1.81 --undefined-- 48.411
1.82 --undefined-- 50.444
1.83 --undefined-- 56.304
1.84 181.069 63.858
1.85 173.060 68.987
1.86 169.564 71.888
1.87 166.997 73.560
1.88 163.798 74.801
1.89 160.267 75.586
1.90 154.765 75.703
1.91 152.199 75.835
1.92 148.118 76.178
1.93 142.400 75.658
1.94 132.549 73.989
1.95 118.738 72.142
1.96 122.427 71.616
1.97 125.215 72.125
1.98 129.682 73.019
1.99 130.009 73.785
2.00 130.360 74.326
2.01 127.136 74.733
2.02 124.754 74.934
2.03 122.146 75.104
2.04 119.724 75.242
2.05 118.354 75.190
2.06 117.848 75.043
2.07 117.809 74.918
2.08 117.752 74.599
2.09 118.512 73.964
2.10 122.047 72.982
2.11 121.859 71.430
2.12 120.795 69.131
2.13 105.236 65.787
2.14 105.214 61.588
2.15 --undefined-- 57.400
2.16 --undefined-- 51.441
2.17 --undefined-- 43.272
2.18 --undefined-- 39.850
2.19 --undefined-- 38.094
2.20 --undefined-- 34.818
2.21 --undefined-- 33.340
2.22 --undefined-- 35.876
2.23 --undefined-- 38.212
2.24 --undefined-- 39.214
2.25 --undefined-- 40.155
2.26 --undefined-- 41.103
2.27 --undefined-- 40.932
2.28 --undefined-- 40.015
2.29 --undefined-- 39.067
2.30 --undefined-- 38.137
2.31 --undefined-- 38.580
2.32 --undefined-- 40.142
2.33 --undefined-- 41.579
2.34 --undefined-- 42.431
2.35 --undefined-- 42.026
2.36 --undefined-- 41.022
2.37 --undefined-- 40.186
2.38 --undefined-- 39.953
2.39 --undefined-- 39.805
2.40 --undefined-- 38.836
2.41 --undefined-- 38.761
2.42 --undefined-- 40.181
2.43 --undefined-- 41.032
2.44 --undefined-- 41.555
2.45 --undefined-- 45.642
2.46 --undefined-- 56.653
2.47 --undefined-- 63.798
2.48 --undefined-- 67.269
2.49 --undefined-- 70.179
2.50 187.598 73.967
2.51 184.026 77.086
2.52 183.540 79.113
2.53 184.161 80.187
2.54 184.665 80.554
2.55 185.202 80.352
2.56 185.257 79.781
2.57 185.135 79.305
2.58 184.796 79.216
2.59 184.212 79.468
2.60 181.792 79.689
2.61 179.633 79.259
2.62 176.581 78.032
2.63 173.121 77.107
2.64 167.456 76.631
2.65 159.189 75.964
2.66 151.601 75.527
2.67 145.112 75.587
2.68 140.842 75.945
2.69 134.862 76.069
2.70 129.224 75.557
2.71 126.627 74.894
2.72 121.676 74.259
2.73 119.611 73.654
2.74 119.787 73.340
2.75 120.624 73.021
2.76 124.198 72.493
2.77 128.629 71.812
2.78 133.938 71.361
2.79 139.357 71.379
2.80 140.768 71.441
2.81 140.095 71.320
2.82 138.662 71.090
2.83 137.037 70.507
2.84 133.210 69.643
2.85 129.985 69.916
2.86 135.381 71.952
2.87 135.550 73.757
2.88 131.934 74.516
2.89 126.779 74.205
2.90 122.022 73.085
2.91 114.371 71.737
2.92 110.270 70.436
2.93 108.259 69.244
2.94 108.115 68.331
2.95 108.817 67.556
2.96 105.163 66.129
2.97 100.151 64.203
2.98 109.030 63.456
2.99 108.106 63.691
3.00 106.697 63.620
3.01 105.165 62.923
3.02 103.347 61.775
3.03 102.982 60.094
3.04 --undefined-- 57.189
3.05 --undefined-- 53.170
3.06 --undefined-- 48.861
3.07 --undefined-- 43.711
3.08 --undefined-- 37.962
3.09 --undefined-- 36.308
3.10 --undefined-- 37.665
3.11 --undefined-- 37.946
3.12 --undefined-- 37.596
3.13 --undefined-- 43.113
3.14 --undefined-- 48.986
3.15 --undefined-- 51.998
3.16 --undefined-- 53.390
3.17 --undefined-- 54.399
3.18 --undefined-- 54.832
3.19 --undefined-- 54.556
3.20 --undefined-- 55.617
3.21 --undefined-- 59.971
3.22 143.743 64.122
3.23 128.048 67.038
3.24 129.633 69.407
3.25 131.390 71.580
3.26 133.992 73.196
3.27 140.047 73.972
3.28 144.137 74.212
3.29 148.258 74.001
3.30 153.977 73.235
3.31 153.529 71.733
3.32 152.286 68.826
3.33 145.112 64.020
3.34 149.020 57.315
3.35 --undefined-- 49.474
3.36 --undefined-- 44.880
3.37 --undefined-- 48.193
3.38 --undefined-- 53.071
3.39 --undefined-- 56.933
3.40 --undefined-- 62.660
3.41 193.593 68.339
3.42 181.991 71.518
3.43 175.944 72.657
3.44 170.633 72.893
3.45 168.098 72.702
3.46 163.170 71.893
3.47 159.340 70.905
3.48 158.170 70.129
3.49 154.376 68.877
3.50 148.059 66.697
3.51 138.857 64.091
3.52 134.212 63.724
3.53 140.774 66.744
3.54 140.417 69.595
3.55 136.172 71.374
3.56 131.405 72.126
3.57 128.305 71.919
3.58 123.620 71.152
3.59 117.155 70.319
3.60 113.061 69.519
3.61 109.346 68.486
3.62 106.929 67.301
3.63 109.998 66.516
3.64 109.272 66.314
3.65 109.145 66.399
3.66 114.248 67.040
3.67 118.765 68.555
3.68 128.008 70.595
3.69 129.029 72.313
3.70 128.205 73.266
3.71 128.654 73.744
3.72 126.109 73.828
3.73 121.962 73.782
3.74 121.771 73.949
3.75 124.064 73.991
3.76 125.509 73.704
3.77 127.292 73.000
3.78 124.724 71.608
3.79 119.169 69.085
3.80 118.010 64.843
3.81 --undefined-- 58.347
3.82 --undefined-- 50.125
3.83 --undefined-- 45.694
3.84 --undefined-- 43.812
3.85 --undefined-- 41.047
3.86 --undefined-- 39.134
3.87 --undefined-- 38.076
3.88 --undefined-- 38.145
3.89 --undefined-- 38.674
3.90 --undefined-- 38.370
3.91 --undefined-- 38.119
3.92 --undefined-- 37.487
3.93 --undefined-- 36.631
3.94 --undefined-- 36.920
3.95 --undefined-- 37.328
3.96 --undefined-- 37.063
3.97 --undefined-- 37.556
3.98 --undefined-- 37.783
3.99 --undefined-- 37.773
4.00 --undefined-- 38.066
4.01 --undefined-- 38.424
4.02 --undefined-- 38.954
4.03 --undefined-- 40.138
4.04 --undefined-- 42.816
4.05 --undefined-- 46.210
4.06 --undefined-- 49.178
4.07 --undefined-- 51.829
4.08 --undefined-- 55.168
4.09 --undefined-- 59.820
4.10 151.547 64.564
4.11 144.058 68.168
4.12 144.435 70.761
4.13 145.221 72.515
4.14 144.797 73.613
4.15 144.039 74.171
4.16 143.920 74.462
4.17 143.949 74.719
4.18 144.351 74.996
4.19 144.860 75.137
4.20 144.914 74.787
4.21 144.130 73.383
4.22 141.118 70.209
4.23 135.728 64.851
4.24 132.147 59.234
4.25 --undefined-- 61.978
4.26 --undefined-- 68.694
4.27 --undefined-- 72.979
4.28 150.843 75.182
4.29 146.495 76.100
4.30 141.632 75.767
4.31 140.114 74.509
4.32 139.280 73.356
4.33 139.566 72.564
4.34 139.063 72.342
4.35 137.773 72.651
4.36 134.540 72.676
4.37 131.160 71.836
4.38 125.964 70.512
4.39 121.050 69.434
4.40 119.804 68.910
4.41 120.787 69.438
4.42 129.783 70.780
4.43 140.502 72.301
4.44 152.919 73.488
4.45 159.844 74.425
4.46 156.364 75.256
4.47 150.714 75.764
4.48 147.663 75.916
4.49 148.561 75.955
4.50 149.235 75.842
4.51 148.639 75.214
4.52 147.226 73.841
4.53 144.718 72.327
4.54 146.541 71.714
4.55 145.672 71.390
4.56 143.385 70.325
4.57 139.017 68.070
4.58 133.455 64.207
4.59 --undefined-- 58.726
4.60 --undefined-- 54.260
4.61 --undefined-- 59.278
4.62 --undefined-- 63.467
4.63 --undefined-- 65.375
4.64 --undefined-- 67.719
4.65 --undefined-- 69.538
4.66 115.465 69.968
4.67 114.762 69.570
4.68 114.506 68.825
4.69 118.440 68.399
4.70 124.341 68.263
4.71 132.550 68.189
4.72 138.949 68.691
4.73 142.650 69.512
4.74 146.014 70.156
4.75 149.636 70.472
4.76 150.784 69.971
4.77 148.358 68.343
4.78 145.665 65.781
4.79 141.592 62.062
4.80 143.345 56.665
4.81 --undefined-- 49.775
4.82 --undefined-- 49.912
4.83 --undefined-- 61.273
4.84 --undefined-- 69.577
4.85 --undefined-- 74.634
4.86 165.392 77.391
4.87 158.330 78.860
4.88 155.784 79.199
4.89 155.547 78.704
4.90 157.932 77.951
4.91 159.345 76.900
4.92 159.455 75.458
4.93 161.756 74.085
4.94 164.296 73.421
4.95 163.263 73.223
4.96 161.727 72.716
4.97 158.264 71.485
4.98 157.393 69.416
4.99 151.271 66.024
5.00 146.122 61.210
5.01 --undefined-- 60.534
5.02 --undefined-- 65.036
5.03 134.831 67.882
5.04 125.922 68.248
5.05 116.947 66.893
5.06 116.437 66.290
5.07 115.585 67.670
5.08 118.890 68.736
5.09 118.513 68.831
5.10 104.770 68.565
5.11 101.565 67.969
5.12 99.059 67.010
5.13 99.208 66.268
5.14 101.283 66.104
5.15 101.680 66.426
5.16 104.461 67.075
5.17 108.808 67.730
5.18 112.301 68.139
5.19 112.912 68.171
5.20 113.241 67.666
5.21 --undefined-- 66.686
5.22 --undefined-- 65.628
5.23 --undefined-- 64.554
5.24 --undefined-- 65.337
5.25 --undefined-- 67.912
5.26 --undefined-- 70.861
5.27 --undefined-- 73.214
5.28 143.634 75.027
5.29 143.668 76.380
5.30 142.253 77.356
5.31 141.423 77.872
5.32 140.729 77.815
5.33 139.493 77.551
5.34 139.125 77.380
5.35 139.101 77.154
5.36 140.508 76.732
5.37 143.250 76.216
5.38 145.071 75.667
5.39 146.163 74.738
5.40 147.087 73.000
5.41 146.819 70.221
5.42 145.432 67.195
5.43 148.538 65.690
5.44 148.181 65.086
5.45 144.757 --undefined--
5.46 140.731 --undefined--
5.47 --undefined-- --undefined--
5.48 --undefined-- --undefined--
