Time Pitch Intensity
0.01 --undefined-- --undefined--
0.02 166.827 --undefined--
0.03 165.062 --undefined--
0.04 164.869 --undefined--
0.05 164.622 61.684
0.06 164.706 62.485
0.07 166.045 63.417
0.08 166.883 65.255
0.09 166.680 66.634
0.10 162.437 67.260
0.11 160.562 67.857
0.12 158.719 68.080
0.13 157.195 67.946
0.14 155.332 67.843
0.15 154.321 68.011
0.16 154.186 68.005
0.17 154.376 67.022
0.18 153.798 65.832
0.19 153.637 65.894
0.20 154.523 66.964
0.21 155.318 68.620
0.22 155.171 70.302
0.23 155.694 71.039
0.24 156.717 70.319
0.25 157.490 68.556
0.26 158.656 66.697
0.27 160.989 65.582
0.28 161.963 65.638
0.29 161.506 66.635
0.30 161.031 67.374
0.31 160.657 67.766
0.32 160.273 68.246
0.33 161.076 68.034
0.34 161.068 66.485
0.35 160.900 63.820
0.36 160.723 61.627
0.37 160.105 61.162
0.38 159.752 61.549
0.39 160.137 61.973
0.40 162.853 62.976
0.41 163.218 64.414
0.42 162.226 65.339
0.43 161.578 65.801
0.44 160.183 66.480
0.45 159.450 67.634
0.46 159.669 68.452
0.47 159.983 68.339
0.48 159.482 66.987
0.49 159.113 64.877
0.50 159.118 63.644
0.51 159.389 62.860
0.52 159.344 62.198
0.53 159.976 62.866
0.54 161.386 64.301
0.55 161.860 64.760
0.56 161.637 63.864
0.57 161.222 62.772
0.58 160.116 62.843
0.59 162.338 63.175
0.60 163.482 62.895
0.61 163.063 62.634
0.62 163.408 62.951
0.63 164.885 63.899
0.64 166.098 64.905
0.65 166.853 65.268
0.66 166.641 65.008
0.67 165.022 65.014
0.68 159.373 65.347
0.69 153.329 64.706
0.70 157.475 63.165
0.71 158.510 63.881
0.72 158.611 65.223
0.73 161.659 65.921
0.74 164.387 67.404
0.75 164.905 69.288
0.76 164.566 70.313
0.77 164.243 70.048
0.78 163.063 68.888
0.79 161.724 67.764
0.80 161.225 67.281
0.81 160.369 66.817
0.82 160.074 65.635
0.83 160.734 64.117
0.84 161.287 63.663
0.85 161.862 63.731
0.86 161.987 63.984
0.87 161.748 64.857
0.88 160.611 65.676
0.89 161.591 65.619
0.90 163.768 64.443
0.91 163.788 63.236
0.92 163.881 63.171
0.93 164.348 63.140
0.94 165.056 62.175
0.95 165.316 61.404
0.96 166.231 61.746
0.97 168.367 62.243
0.98 173.272 62.876
0.99 177.659 64.284
1.00 180.539 65.798
1.01 181.929 66.480
1.02 183.800 66.608
1.03 184.266 67.295
1.04 183.649 68.694
1.05 184.012 69.968
1.06 184.823 70.920
1.07 185.291 71.592
1.08 185.465 71.975
1.09 185.590 71.940
1.10 185.324 71.230
1.11 185.622 69.982
1.12 186.509 68.571
1.13 186.440 67.461
1.14 185.163 66.965
1.15 185.827 66.437
1.16 184.825 65.329
1.17 181.723 63.298
1.18 178.196 59.785
1.19 --undefined-- 54.962
1.20 --undefined-- 52.380
1.21 --undefined-- 57.908
1.22 207.445 63.797
1.23 198.056 67.385
1.24 185.022 69.186
1.25 181.355 70.000
1.26 180.091 70.519
1.27 181.457 70.692
1.28 183.187 70.211
1.29 183.675 69.264
1.30 183.393 68.588
1.31 182.733 68.497
1.32 182.368 68.729
1.33 181.926 69.669
1.34 181.841 71.007
1.35 182.532 71.883
1.36 182.504 72.257
1.37 182.282 72.638
1.38 182.014 72.884
1.39 183.175 72.124
1.40 --undefined-- 69.710
1.41 --undefined-- 65.119
1.42 --undefined-- 57.895
1.43 --undefined-- 54.452
1.44 293.548 62.282
1.45 294.468 67.925
1.46 285.181 71.012
1.47 286.062 72.002
1.48 245.176 71.540
1.49 247.502 71.009
1.50 248.500 71.396
1.51 253.533 72.030
1.52 261.544 72.856
1.53 265.669 74.091
1.54 265.792 75.044
1.55 264.007 75.276
1.56 262.773 74.971
1.57 262.816 74.528
1.58 262.224 74.106
1.59 259.802 73.878
1.60 257.819 74.218
1.61 256.997 74.411
1.62 260.646 73.476
1.63 266.301 71.615
1.64 266.209 70.136
1.65 265.182 69.444
1.66 261.998 69.377
1.67 254.327 69.897
1.68 245.122 70.052
1.69 230.632 69.476
1.70 223.222 67.922
1.71 217.519 65.839
1.72 --undefined-- 64.565
1.73 --undefined-- 62.511
1.74 --undefined-- 58.434
1.75 --undefined-- 52.848
1.76 --undefined-- 50.006
1.77 --undefined-- 53.680
1.78 --undefined-- 57.308
1.79 --undefined-- 58.640
1.80 --undefined-- 57.939
1.81 --undefined-- 56.231
1.82 --undefined-- 53.903
1.83 --undefined-- 51.916
1.84 --undefined-- 54.533
1.85 --undefined-- 58.409
1.86 --undefined-- 59.656
1.87 --undefined-- 58.141
1.88 --undefined-- 55.104
1.89 --undefined-- 53.399
1.90 --undefined-- 53.600
1.91 --undefined-- 56.534
1.92 --undefined-- 60.242
1.93 --undefined-- 62.013
1.94 --undefined-- 62.560
1.95 --undefined-- 63.486
1.96 --undefined-- 64.908
1.97 --undefined-- 65.686
1.98 --undefined-- 64.973
1.99 288.077 62.503
2.00 285.463 58.421
2.01 --undefined-- 55.083
2.02 --undefined-- 54.988
2.03 --undefined-- 58.193
2.04 --undefined-- 62.113
2.05 --undefined-- 64.723
2.06 --undefined-- 66.468
2.07 --undefined-- 67.965
2.08 --undefined-- 69.092
2.09 --undefined-- 69.362
2.10 256.090 68.693
2.11 223.554 67.486
2.12 221.709 66.734
2.13 223.679 66.895
2.14 225.528 67.714
2.15 227.313 68.897
2.16 230.112 69.961
2.17 231.337 70.385
2.18 230.887 69.845
2.19 221.575 68.480
2.20 210.282 67.162
2.21 --undefined-- 66.466
2.22 --undefined-- 66.275
2.23 281.986 67.589
2.24 280.382 70.177
2.25 277.934 72.574
2.26 275.456 74.041
2.27 272.246 73.942
2.28 264.568 72.606
2.29 260.701 71.619
2.30 259.794 70.975
2.31 264.334 70.351
2.32 267.429 70.665
2.33 269.693 71.696
2.34 272.088 72.502
2.35 274.163 72.662
2.36 275.028 72.330
2.37 274.029 71.767
2.38 273.057 71.058
2.39 271.667 70.145
2.40 269.721 69.316
2.41 266.801 69.103
2.42 263.543 69.832
2.43 262.776 71.129
2.44 261.273 71.949
2.45 257.319 72.002
2.46 252.760 72.169
2.47 249.321 72.760
2.48 246.267 73.050
2.49 245.158 72.667
2.50 246.659 71.745
2.51 251.762 70.841
2.52 256.446 70.168
2.53 260.807 69.172
2.54 267.685 68.032
2.55 275.997 67.653
2.56 281.419 68.022
2.57 279.617 68.240
2.58 276.430 67.957
2.59 272.909 67.353
2.60 267.010 66.735
2.61 260.388 66.287
2.62 248.819 65.939
2.63 243.972 65.347
2.64 242.234 64.328
2.65 245.864 63.846
2.66 250.905 64.558
2.67 254.806 65.898
2.68 254.303 67.333
2.69 236.263 68.676
2.70 224.358 69.800
2.71 214.124 70.635
2.72 206.005 71.160
2.73 202.610 71.341
2.74 201.220 71.237
2.75 201.132 70.998
2.76 201.804 70.843
2.77 203.166 70.762
2.78 207.752 70.515
2.79 211.030 69.862
2.80 210.666 68.995
2.81 192.064 68.022
2.82 201.548 66.099
2.83 215.319 62.428
2.84 228.012 57.368
2.85 --undefined-- 56.195
2.86 --undefined-- 58.541
2.87 --undefined-- 61.049
2.88 215.311 64.463
2.89 191.068 67.027
2.90 185.638 68.620
2.91 176.628 69.650
2.92 174.831 70.479
2.93 173.561 70.833
2.94 173.252 70.536
2.95 172.683 69.981
2.96 172.732 69.405
2.97 173.474 68.635
2.98 174.191 67.721
2.99 174.456 67.017
3.00 175.030 66.402
3.01 175.515 65.284
3.02 175.388 63.788
3.03 179.585 63.186
3.04 183.535 63.443
3.05 185.125 63.412
3.06 185.877 62.522
3.07 184.680 60.498
3.08 180.258 58.700
3.09 214.202 60.315
3.10 217.615 62.364
3.11 220.724 62.882
3.12 219.739 62.749
3.13 198.537 63.102
3.14 187.894 64.151
3.15 169.460 65.628
3.16 161.024 67.024
3.17 157.910 67.709
3.18 155.467 67.822
3.19 154.603 67.679
3.20 154.148 67.379
3.21 153.722 66.909
3.22 153.016 66.509
3.23 153.112 66.529
3.24 153.578 66.630
3.25 155.300 66.490
3.26 158.255 66.221
3.27 161.237 66.092
3.28 164.232 66.000
3.29 163.520 65.777
3.30 170.655 65.219
3.31 177.024 64.899
3.32 181.125 65.680
3.33 187.923 67.042
3.34 195.038 68.310
3.35 200.517 69.788
3.36 205.339 71.424
3.37 205.146 72.681
3.38 202.031 73.806
3.39 200.948 74.960
3.40 199.891 75.583
3.41 198.211 75.698
3.42 195.601 75.717
3.43 191.739 75.280
3.44 185.603 73.840
3.45 175.764 71.506
3.46 --undefined-- 68.824
3.47 --undefined-- 66.765
3.48 --undefined-- 66.143
3.49 --undefined-- 65.784
3.50 --undefined-- 64.586
3.51 --undefined-- 62.647
3.52 --undefined-- 60.317
3.53 --undefined-- 57.360
3.54 --undefined-- 54.173
3.55 --undefined-- 56.131
3.56 --undefined-- 60.290
3.57 --undefined-- 63.314
3.58 --undefined-- 65.070
3.59 --undefined-- 65.763
3.60 --undefined-- 65.782
3.61 --undefined-- 65.232
3.62 --undefined-- 64.173
3.63 --undefined-- 62.351
3.64 --undefined-- 59.399
3.65 --undefined-- 55.257
3.66 --undefined-- 53.612
3.67 --undefined-- 57.311
3.68 --undefined-- 60.520
3.69 --undefined-- 62.033
3.70 --undefined-- 61.997
3.71 --undefined-- 61.407
3.72 --undefined-- 61.269
3.73 --undefined-- 61.189
3.74 --undefined-- 59.931
3.75 --undefined-- 57.437
3.76 --undefined-- 57.820
3.77 276.955 62.277
3.78 270.141 65.529
3.79 278.602 68.234
3.80 296.989 70.802
3.81 152.451 72.637
3.82 159.567 73.946
3.83 162.300 74.985
3.84 165.200 75.244
3.85 169.094 74.409
3.86 171.426 72.431
3.87 166.935 69.441
3.88 155.750 65.678
3.89 168.753 60.814
3.90 171.336 56.767
3.91 --undefined-- 57.282
3.92 --undefined-- 58.017
3.93 --undefined-- 57.699
3.94 --undefined-- 57.215
3.95 --undefined-- 56.497
3.96 --undefined-- 53.840
3.97 --undefined-- 49.394
3.98 --undefined-- 47.777
3.99 --undefined-- 50.512
4.00 --undefined-- 54.301
4.01 --undefined-- 56.417
4.02 --undefined-- 56.426
4.03 --undefined-- 55.500
4.04 --undefined-- 56.996
4.05 --undefined-- 59.325
4.06 --undefined-- 61.234
4.07 --undefined-- 63.785
4.08 194.575 66.228
4.09 188.984 67.650
4.10 180.885 67.884
4.11 174.761 67.622
4.12 171.587 67.470
4.13 170.573 67.262
4.14 172.365 67.241
4.15 175.364 67.881
4.16 177.744 68.769
4.17 180.444 69.096
4.18 187.407 68.801
4.19 195.342 68.529
4.20 202.338 68.360
4.21 210.487 68.293
4.22 216.670 68.473
4.23 227.139 68.840
4.24 234.777 69.070
4.25 243.550 69.131
4.26 260.194 70.255
4.27 267.289 72.051
4.28 266.498 72.782
4.29 269.652 72.496
4.30 273.343 71.869
4.31 273.012 71.512
4.32 269.599 71.717
4.33 266.098 72.043
4.34 264.608 71.728
4.35 261.512 70.369
4.36 252.099 68.591
4.37 245.401 67.415
4.38 235.246 66.862
4.39 221.258 66.125
4.40 215.523 64.817
4.41 200.082 62.729
4.42 188.716 59.485
4.43 190.290 54.835
4.44 --undefined-- 50.394
4.45 --undefined-- 53.078
4.46 --undefined-- 59.534
4.47 257.562 64.839
4.48 250.768 68.014
4.49 250.131 69.345
4.50 252.823 69.585
4.51 256.915 69.300
4.52 260.274 68.611
4.53 262.235 67.607
4.54 261.402 66.611
4.55 260.218 66.206
4.56 265.768 66.439
4.57 271.124 66.581
4.58 273.722 66.517
4.59 278.054 66.786
4.60 281.830 67.274
4.61 280.786 66.704
4.62 274.958 64.026
4.63 269.773 59.706
4.64 --undefined-- 56.353
4.65 --undefined-- 53.707
4.66 --undefined-- 51.706
4.67 --undefined-- 49.778
4.68 --undefined-- 49.475
4.69 --undefined-- 56.078
4.70 241.979 62.640
4.71 235.984 66.247
4.72 224.802 67.576
4.73 211.979 68.447
4.74 205.058 69.816
4.75 200.379 70.762
4.76 197.064 70.726
4.77 194.210 69.987
4.78 192.739 68.908
4.79 191.042 67.446
4.80 189.814 65.520
4.81 190.105 63.072
4.82 192.908 60.693
4.83 191.852 57.970
4.84 --undefined-- 54.800
4.85 --undefined-- 52.285
4.86 --undefined-- 51.422
4.87 --undefined-- 53.806
4.88 --undefined-- 57.250
4.89 --undefined-- 59.171
4.90 --undefined-- 59.753
4.91 --undefined-- 60.143
4.92 --undefined-- 60.481
4.93 --undefined-- 60.619
4.94 --undefined-- 60.734
4.95 --undefined-- 60.807
4.96 --undefined-- 59.838
4.97 --undefined-- 57.485
4.98 --undefined-- 58.633
4.99 --undefined-- --undefined--
5.00 196.782 --undefined--
5.01 --undefined-- --undefined--
5.02 --undefined-- --undefined--
