Time Pitch Intensity
0.01 --undefined-- --undefined--
0.02 113.468 --undefined--
0.03 113.420 --undefined--
0.04 113.956 --undefined--
0.05 114.932 76.103
0.06 115.489 75.784
0.07 116.018 75.435
0.08 117.607 75.141
0.09 118.475 74.769
0.10 119.034 74.110
0.11 116.400 73.302
0.12 115.573 72.798
0.13 115.664 72.746
0.14 114.759 72.883
0.15 113.721 73.041
0.16 113.564 73.076
0.17 113.949 73.033
0.18 113.624 73.179
0.19 113.289 73.482
0.20 113.489 73.767
0.21 113.962 73.876
0.22 114.361 73.862
0.23 114.204 73.853
0.24 113.067 73.958
0.25 112.578 74.137
0.26 112.280 74.018
0.27 112.291 73.624
0.28 110.022 72.934
0.29 109.422 71.363
0.30 --undefined-- 68.273
0.31 --undefined-- 64.186
0.32 --undefined-- 62.854
0.33 --undefined-- 66.168
0.34 124.346 70.070
0.35 123.566 72.506
0.36 123.310 73.417
0.37 123.186 73.384
0.38 123.256 72.876
0.39 128.452 72.465
0.40 138.052 72.750
0.41 144.066 73.462
0.42 151.182 74.098
0.43 158.679 74.631
0.44 166.217 75.019
0.45 170.087 74.734
0.46 167.792 73.428
0.47 163.073 71.376
0.48 157.600 68.732
0.49 149.386 65.847
0.50 148.120 67.504
0.51 159.334 71.794
0.52 154.396 74.369
0.53 134.994 75.343
0.54 128.499 75.700
0.55 121.574 75.849
0.56 113.270 75.837
0.57 106.128 75.538
0.58 101.369 74.663
0.59 98.338 73.554
0.60 97.619 72.881
0.61 98.492 72.801
0.62 100.372 72.978
0.63 101.697 72.791
0.64 104.956 72.920
0.65 117.057 74.587
0.66 121.636 76.269
0.67 128.308 77.123
0.68 133.546 77.323
0.69 137.793 77.217
0.70 138.361 76.985
0.71 140.810 76.788
0.72 143.154 76.745
0.73 147.280 76.880
0.74 150.547 77.315
0.75 153.059 78.087
0.76 154.488 78.864
0.77 155.262 79.323
0.78 156.177 79.507
0.79 157.959 79.741
0.80 160.462 80.178
0.81 160.409 80.242
0.82 160.459 79.341
0.83 159.003 77.292
0.84 155.323 73.864
0.85 148.633 68.761
0.86 151.798 62.372
0.87 160.086 57.479
0.88 159.002 56.184
0.89 159.718 55.480
0.90 159.082 54.266
0.91 --undefined-- 53.317
0.92 --undefined-- 53.158
0.93 --undefined-- 53.792
0.94 --undefined-- 57.715
0.95 --undefined-- 64.007
0.96 120.061 68.402
0.97 106.354 70.601
0.98 103.539 71.438
0.99 102.018 71.647
1.00 101.111 71.557
1.01 101.135 71.389
1.02 102.082 71.397
1.03 103.080 71.579
1.04 103.247 71.625
1.05 103.077 71.152
1.06 101.872 69.606
1.07 95.824 66.579
1.08 96.322 62.343
1.09 103.885 58.119
1.10 104.534 54.854
1.11 --undefined-- 59.389
1.12 --undefined-- 66.773
1.13 --undefined-- 71.256
1.14 118.692 73.222
1.15 114.499 73.584
1.16 111.147 73.318
1.17 109.293 73.046
1.18 108.477 73.049
1.19 108.634 73.262
1.20 109.287 73.377
1.21 109.659 73.363
1.22 110.072 73.385
1.23 110.184 73.385
1.24 110.687 73.361
1.25 110.900 73.437
1.26 111.352 73.584
1.27 112.333 73.729
1.28 112.377 73.837
1.29 112.461 73.853
1.30 112.771 73.763
1.31 112.553 73.609
1.32 111.310 73.235
1.33 111.793 71.950
1.34 98.781 69.087
1.35 108.533 65.629
1.36 111.358 62.753
1.37 114.349 59.101
1.38 --undefined-- 53.732
1.39 --undefined-- 47.737
1.40 --undefined-- 54.178
1.41 --undefined-- 64.424
1.42 145.902 71.172
1.43 133.083 74.843
1.44 125.889 76.262
1.45 123.720 76.361
1.46 121.359 76.074
1.47 119.970 75.808
1.48 117.821 75.408
1.49 116.173 74.974
1.50 115.629 74.602
1.51 115.635 74.255
1.52 115.839 74.036
1.53 116.430 73.982
1.54 116.991 73.834
1.55 116.759 72.772
1.56 111.652 69.817
1.57 116.692 64.953
1.58 126.533 60.665
1.59 137.196 64.346
1.60 148.500 71.092
1.61 145.835 75.378
1.62 145.281 77.180
1.63 140.523 77.202
1.64 134.175 76.870
1.65 130.979 77.221
1.66 127.279 77.685
1.67 123.368 77.575
1.68 119.027 76.750
1.69 114.427 75.058
1.70 110.100 72.019
1.71 101.641 67.103
1.72 105.499 60.382
1.73 --undefined-- 53.928
1.74 --undefined-- 51.179
1.75 --undefined-- 52.175
1.76 --undefined-- 56.270
1.77 --undefined-- 65.196
1.78 143.769 71.777
1.79 141.723 75.212
1.80 140.386 76.361
1.81 136.713 76.480
1.82 137.066 76.436
1.83 137.802 76.227
1.84 138.223 75.735
1.85 139.566 75.242
1.86 140.690 74.967
1.87 140.089 74.409
1.88 142.391 73.665
1.89 144.831 73.320
1.90 143.866 73.073
1.91 141.782 72.180
1.92 138.228 70.513
1.93 140.428 70.744
1.94 150.549 74.039
1.95 149.746 76.569
1.96 149.439 77.553
1.97 146.882 77.768
1.98 146.117 78.022
1.99 145.725 78.212
2.00 145.279 78.080
2.01 145.366 77.538
2.02 146.118 76.235
2.03 144.539 73.393
2.04 138.895 68.292
2.05 162.874 61.160
2.06 --undefined-- 54.270
2.07 --undefined-- 49.652
2.08 --undefined-- 48.111
2.09 --undefined-- 49.833
2.10 --undefined-- 52.043
2.11 --undefined-- 52.440
2.12 --undefined-- 51.163
2.13 --undefined-- 49.540
2.14 --undefined-- 48.652
2.15 --undefined-- 58.298
2.16 --undefined-- 67.046
2.17 --undefined-- 71.868
2.18 161.053 74.170
2.19 161.470 75.221
2.20 160.715 75.699
2.21 159.457 75.916
2.22 158.778 76.138
2.23 159.345 76.400
2.24 159.851 76.634
2.25 160.172 76.905
2.26 160.620 77.269
2.27 161.380 77.715
2.28 162.027 78.105
2.29 161.977 78.355
2.30 161.817 78.416
2.31 161.484 78.305
2.32 161.150 78.213
2.33 161.328 78.216
2.34 161.812 78.146
2.35 161.541 77.707
2.36 160.729 77.018
2.37 163.132 76.582
2.38 163.803 76.345
2.39 164.013 75.986
2.40 162.970 75.044
2.41 159.074 73.063
2.42 155.023 70.238
2.43 153.257 67.667
2.44 156.805 66.786
2.45 161.477 69.464
2.46 169.833 74.231
2.47 172.625 77.777
2.48 174.036 79.499
2.49 172.505 79.944
2.50 171.957 79.999
2.51 173.249 80.133
2.52 174.944 80.202
2.53 176.253 80.032
2.54 176.838 79.522
2.55 176.201 78.429
2.56 175.138 76.093
2.57 173.574 71.727
2.58 172.347 64.850
2.59 --undefined-- 56.129
2.60 --undefined-- 50.251
2.61 --undefined-- 47.535
2.62 --undefined-- 45.184
2.63 --undefined-- 44.334
2.64 --undefined-- 44.813
2.65 --undefined-- 46.472
2.66 --undefined-- 49.851
2.67 --undefined-- 53.872
2.68 --undefined-- 56.528
2.69 --undefined-- 56.865
2.70 --undefined-- 55.435
2.71 --undefined-- 54.197
2.72 --undefined-- 53.837
2.73 --undefined-- 53.784
2.74 --undefined-- 53.969
2.75 --undefined-- 54.001
2.76 --undefined-- 53.977
2.77 --undefined-- 53.877
2.78 --undefined-- 53.193
2.79 --undefined-- 52.367
2.80 --undefined-- 51.698
2.81 --undefined-- 50.614
2.82 --undefined-- 49.247
2.83 --undefined-- 47.836
2.84 --undefined-- 45.726
2.85 --undefined-- 44.414
2.86 --undefined-- 47.950
2.87 --undefined-- 51.493
2.88 --undefined-- 51.887
2.89 --undefined-- 48.792
2.90 --undefined-- 42.643
2.91 --undefined-- 36.366
2.92 --undefined-- 42.820
2.93 --undefined-- 53.807
2.94 --undefined-- 60.417
2.95 --undefined-- 64.539
2.96 --undefined-- 69.369
2.97 144.995 74.211
2.98 129.034 76.804
2.99 128.814 77.301
3.00 127.841 76.694
3.01 123.063 75.417
3.02 117.480 73.424
3.03 115.699 71.110
3.04 116.016 69.659
3.05 117.295 69.917
3.06 119.752 70.956
3.07 118.345 71.418
3.08 115.819 71.128
3.09 115.154 70.693
3.10 113.574 70.650
3.11 113.006 71.292
3.12 113.626 72.334
3.13 114.190 73.166
3.14 114.317 73.753
3.15 114.572 74.469
3.16 118.415 75.088
3.17 111.265 74.839
3.18 108.845 74.083
3.19 105.117 73.869
3.20 105.304 74.174
3.21 105.348 74.165
3.22 105.837 73.774
3.23 108.392 73.819
3.24 109.239 74.112
3.25 111.036 74.220
3.26 111.841 74.391
3.27 116.285 74.662
3.28 122.525 74.994
3.29 125.904 75.593
3.30 131.501 76.547
3.31 139.085 77.425
3.32 145.601 77.990
3.33 156.687 78.197
3.34 161.495 77.826
3.35 164.184 77.398
3.36 167.954 77.479
3.37 173.971 77.888
3.38 179.019 78.775
3.39 180.673 79.940
3.40 179.307 80.607
3.41 174.641 80.172
3.42 171.975 78.273
3.43 166.795 74.760
3.44 162.439 70.041
3.45 163.675 65.253
3.46 --undefined-- 62.218
3.47 --undefined-- 61.572
3.48 --undefined-- 61.391
3.49 --undefined-- 61.046
3.50 --undefined-- 61.206
3.51 --undefined-- 67.182
3.52 164.722 73.612
3.53 156.863 77.148
3.54 148.892 78.245
3.55 140.069 77.582
3.56 132.845 75.402
3.57 113.418 71.872
3.58 113.595 69.702
3.59 115.202 71.341
3.60 114.597 73.608
3.61 110.705 74.496
3.62 105.044 74.172
3.63 103.338 73.601
3.64 102.179 73.248
3.65 101.833 73.102
3.66 101.701 73.220
3.67 101.329 73.347
3.68 101.888 73.174
3.69 101.821 72.253
3.70 101.665 70.077
3.71 102.196 66.457
3.72 103.066 61.773
3.73 102.898 56.930
3.74 --undefined-- 54.404
3.75 --undefined-- 59.123
3.76 --undefined-- 65.892
3.77 --undefined-- 69.635
3.78 105.345 70.659
3.79 99.691 70.028
3.80 95.857 68.666
3.81 93.292 67.059
3.82 97.092 66.174
3.83 98.018 66.407
3.84 98.428 66.782
3.85 98.669 66.968
3.86 99.120 67.120
3.87 99.827 67.413
3.88 100.103 67.706
3.89 99.895 67.378
3.90 98.727 65.963
3.91 107.475 63.511
3.92 107.887 60.155
3.93 102.181 55.747
3.94 --undefined-- 51.130
3.95 --undefined-- 51.252
3.96 --undefined-- 62.184
3.97 --undefined-- 70.411
3.98 148.542 74.876
3.99 144.538 76.390
4.00 140.562 75.742
4.01 137.336 73.845
4.02 136.749 71.891
4.03 139.882 71.337
4.04 141.976 71.872
4.05 143.387 72.466
4.06 143.873 72.756
4.07 143.275 72.545
4.08 141.528 71.693
4.09 137.927 69.975
4.10 129.387 67.276
4.11 129.437 64.447
4.12 128.712 62.245
4.13 129.130 61.466
4.14 130.974 64.492
4.15 143.154 70.391
4.16 134.796 74.676
4.17 126.933 76.625
4.18 122.329 77.142
4.19 118.471 76.981
4.20 115.191 76.338
4.21 112.615 75.622
4.22 111.736 75.057
4.23 110.699 74.456
4.24 110.826 73.966
4.25 110.757 73.652
4.26 110.536 72.938
4.27 110.651 70.860
4.28 104.822 66.975
4.29 104.921 61.688
4.30 104.323 56.950
4.31 --undefined-- 54.763
4.32 --undefined-- 56.651
4.33 --undefined-- 65.666
4.34 --undefined-- 72.911
4.35 154.717 77.322
4.36 152.641 79.335
4.37 149.463 79.305
4.38 145.851 77.081
4.39 143.647 72.877
4.40 144.095 70.621
4.41 145.477 72.924
4.42 145.561 76.134
4.43 141.888 78.016
4.44 139.444 78.440
4.45 139.059 78.299
4.46 139.303 78.096
4.47 140.071 77.735
4.48 140.423 76.992
4.49 137.619 75.513
4.50 138.087 73.605
4.51 140.254 72.630
4.52 141.528 73.012
4.53 144.157 74.006
4.54 145.062 74.773
4.55 146.205 74.920
4.56 146.594 74.860
4.57 141.499 75.374
4.58 139.804 76.032
4.59 139.245 76.387
4.60 138.903 76.648
4.61 139.060 76.925
4.62 139.405 77.096
4.63 138.962 76.984
4.64 137.450 76.269
4.65 134.922 74.914
4.66 137.570 74.060
4.67 143.216 74.853
4.68 139.511 76.182
4.69 136.531 76.609
4.70 135.438 76.238
4.71 134.646 75.612
4.72 133.943 74.839
4.73 132.951 74.017
4.74 134.853 73.602
4.75 134.976 73.566
4.76 132.623 73.373
4.77 127.512 72.402
4.78 121.340 70.421
4.79 122.672 68.364
4.80 121.830 67.252
4.81 117.082 67.100
4.82 118.571 67.820
4.83 128.288 69.879
4.84 135.997 72.911
4.85 144.172 75.547
4.86 144.736 77.027
4.87 144.349 77.424
4.88 143.309 76.992
4.89 141.263 76.213
4.90 140.257 75.791
4.91 138.365 75.621
4.92 135.165 75.422
4.93 131.082 75.332
4.94 126.516 75.424
4.95 121.510 75.366
4.96 116.628 74.815
4.97 110.786 73.808
4.98 105.113 72.583
4.99 100.604 71.190
5.00 90.494 69.462
5.01 --undefined-- 67.576
5.02 --undefined-- 66.168
5.03 --undefined-- 65.064
5.04 --undefined-- 64.286
5.05 --undefined-- 62.612
5.06 --undefined-- 61.462
5.07 --undefined-- --undefined--
5.08 --undefined-- --undefined--
5.09 --undefined-- --undefined--
5.10 --undefined-- --undefined--
