Time Pitch Intensity
0.01 --undefined-- --undefined--
0.02 130.420 --undefined--
0.03 131.159 --undefined--
0.04 132.131 --undefined--
0.05 136.896 71.286
0.06 141.355 71.936
0.07 147.641 71.826
0.08 153.660 70.313
0.09 152.924 67.286
0.10 143.789 63.220
0.11 141.888 60.403
0.12 --undefined-- 62.985
0.13 --undefined-- 66.157
0.14 --undefined-- 66.208
0.15 --undefined-- 63.304
0.16 --undefined-- 62.641
0.17 197.044 68.697
0.18 196.402 73.226
0.19 195.451 76.079
0.20 197.349 78.176
0.21 198.950 79.352
0.22 200.175 79.567
0.23 202.539 79.139
0.24 204.794 78.074
0.25 204.346 76.091
0.26 200.198 72.756
0.27 --undefined-- 68.018
0.28 --undefined-- 63.104
0.29 135.410 59.684
0.30 127.275 59.200
0.31 116.192 60.325
0.32 --undefined-- 60.319
0.33 --undefined-- 57.874
0.34 --undefined-- 52.940
0.35 --undefined-- 46.032
0.36 --undefined-- 40.811
0.37 --undefined-- 40.905
0.38 --undefined-- 40.489
0.39 --undefined-- 38.993
0.40 --undefined-- 38.565
0.41 --undefined-- 38.480
0.42 --undefined-- 38.518
0.43 --undefined-- 39.004
0.44 --undefined-- 39.063
0.45 --undefined-- 38.534
0.46 --undefined-- 38.323
0.47 --undefined-- 38.366
0.48 --undefined-- 37.853
0.49 --undefined-- 36.920
0.50 --undefined-- 35.581
0.51 --undefined-- 34.897
0.52 --undefined-- 35.602
0.53 --undefined-- 36.185
0.54 --undefined-- 36.716
0.55 --undefined-- 37.072
0.56 --undefined-- 35.965
0.57 --undefined-- 33.891
0.58 --undefined-- 38.323
0.59 --undefined-- 52.740
0.60 --undefined-- 62.396
0.61 214.441 67.646
0.62 184.668 70.169
0.63 177.961 71.938
0.64 178.378 73.737
0.65 179.749 75.487
0.66 180.900 76.872
0.67 181.085 77.530
0.68 180.687 77.501
0.69 181.453 77.195
0.70 182.992 76.906
0.71 183.680 76.701
0.72 184.248 76.513
0.73 184.618 76.096
0.74 185.076 75.194
0.75 185.382 73.613
0.76 184.055 70.844
0.77 161.461 66.242
0.78 165.868 59.790
0.79 --undefined-- 52.279
0.80 --undefined-- 47.975
0.81 --undefined-- 50.900
0.82 --undefined-- 53.956
0.83 --undefined-- 56.763
0.84 --undefined-- 60.021
0.85 --undefined-- 66.531
0.86 210.722 72.067
0.87 186.502 74.943
0.88 172.018 76.179
0.89 167.874 76.437
0.90 167.327 75.620
0.91 170.715 74.031
0.92 164.146 72.761
0.93 168.258 73.068
0.94 170.149 74.080
0.95 166.721 74.642
0.96 156.889 74.979
0.97 149.217 75.725
0.98 145.491 76.246
0.99 144.345 75.815
1.00 145.008 74.839
1.01 147.885 74.243
1.02 142.827 73.800
1.03 133.572 72.654
1.04 127.259 70.598
1.05 118.404 68.366
1.06 106.385 67.471
1.07 116.016 67.815
1.08 107.795 68.024
1.09 110.491 67.736
1.10 112.574 67.352
1.11 112.847 67.232
1.12 111.973 67.205
1.13 112.277 67.030
1.14 113.231 66.553
1.15 112.178 65.401
1.16 109.380 63.018
1.17 --undefined-- 58.804
1.18 --undefined-- 52.354
1.19 --undefined-- 44.961
1.20 --undefined-- 40.742
1.21 --undefined-- 43.808
1.22 --undefined-- 53.633
1.23 --undefined-- 61.578
1.24 --undefined-- 66.429
1.25 --undefined-- 68.700
1.26 127.887 69.393
1.27 121.709 69.412
1.28 119.567 69.369
1.29 119.033 69.344
1.30 120.162 69.326
1.31 121.784 69.383
1.32 122.511 69.562
1.33 123.003 69.771
1.34 123.844 69.847
1.35 124.776 69.799
1.36 125.359 69.862
1.37 126.064 70.013
1.38 126.873 69.968
1.39 129.240 69.490
1.40 130.499 68.118
1.41 123.023 65.242
1.42 116.859 61.151
1.43 113.782 57.094
1.44 --undefined-- 53.298
1.45 --undefined-- 51.817
1.46 --undefined-- 53.865
1.47 --undefined-- 60.677
1.48 --undefined-- 67.086
1.49 155.874 70.810
1.50 149.128 72.413
1.51 143.213 72.463
1.52 138.286 72.009
1.53 138.716 72.257
1.54 140.301 72.911
1.55 139.838 73.235
1.56 139.785 73.269
1.57 141.191 73.175
1.58 142.531 72.714
1.59 141.759 71.568
1.60 140.090 69.640
1.61 137.582 66.540
1.62 131.800 61.520
1.63 --undefined-- 54.325
1.64 --undefined-- 46.738
1.65 --undefined-- 43.420
1.66 --undefined-- 46.634
1.67 --undefined-- 55.702
1.68 190.039 62.891
1.69 170.824 67.023
1.70 161.645 69.097
1.71 160.539 70.133
1.72 158.506 70.682
1.73 158.195 70.895
1.74 158.509 70.856
1.75 159.117 70.682
1.76 159.191 70.409
1.77 158.511 69.839
1.78 154.151 68.499
1.79 146.585 65.750
1.80 139.878 61.072
1.81 --undefined-- 54.609
1.82 --undefined-- 50.232
1.83 --undefined-- 51.130
1.84 --undefined-- 53.788
1.85 --undefined-- 61.851
1.86 196.964 68.299
1.87 178.450 71.734
1.88 164.036 73.345
1.89 161.182 74.203
1.90 158.829 74.565
1.91 157.491 74.531
1.92 156.827 74.370
1.93 156.155 73.940
1.94 153.955 73.246
1.95 159.639 72.698
1.96 162.511 72.204
1.97 164.624 71.601
1.98 167.235 70.732
1.99 167.432 69.429
2.00 165.176 67.611
2.01 161.703 65.408
2.02 164.761 63.187
2.03 --undefined-- 61.333
2.04 245.967 60.141
2.05 264.686 58.869
2.06 277.516 57.298
2.07 287.541 54.038
2.08 --undefined-- 48.121
2.09 --undefined-- 41.620
2.10 --undefined-- 38.047
2.11 --undefined-- 36.271
2.12 --undefined-- 35.679
2.13 --undefined-- 35.657
2.14 --undefined-- 35.794
2.15 --undefined-- 35.905
2.16 --undefined-- 34.516
2.17 --undefined-- 32.550
2.18 --undefined-- 32.541
2.19 --undefined-- 33.498
2.20 --undefined-- 35.377
2.21 --undefined-- 35.521
2.22 --undefined-- 33.707
2.23 --undefined-- 35.105
2.24 --undefined-- 37.327
2.25 --undefined-- 37.483
2.26 --undefined-- 36.583
2.27 --undefined-- 36.090
2.28 --undefined-- 35.490
2.29 --undefined-- 33.985
2.30 --undefined-- 33.933
2.31 --undefined-- 34.894
2.32 --undefined-- 33.840
2.33 --undefined-- 32.123
2.34 --undefined-- 33.487
2.35 --undefined-- 35.240
2.36 --undefined-- 35.460
2.37 --undefined-- 34.643
2.38 --undefined-- 33.975
2.39 --undefined-- 34.772
2.40 --undefined-- 35.555
2.41 --undefined-- 35.642
2.42 --undefined-- 35.037
2.43 --undefined-- 33.700
2.44 --undefined-- 32.194
2.45 --undefined-- 31.972
2.46 --undefined-- 33.789
2.47 --undefined-- 34.535
2.48 --undefined-- 33.839
2.49 --undefined-- 33.932
2.50 --undefined-- 34.854
2.51 --undefined-- 35.908
2.52 --undefined-- 36.606
2.53 --undefined-- 36.210
2.54 --undefined-- 35.787
2.55 --undefined-- 36.709
2.56 --undefined-- 38.729
2.57 --undefined-- 39.445
2.58 --undefined-- 38.115
2.59 --undefined-- 36.073
2.60 --undefined-- 34.891
2.61 --undefined-- 34.057
2.62 --undefined-- 34.015
2.63 --undefined-- 34.371
2.64 --undefined-- 35.621
2.65 --undefined-- 36.578
2.66 --undefined-- 36.252
2.67 --undefined-- 36.216
2.68 --undefined-- 36.509
2.69 --undefined-- 35.993
2.70 --undefined-- 36.086
2.71 --undefined-- 36.534
2.72 --undefined-- 36.361
2.73 --undefined-- 36.806
2.74 --undefined-- 37.613
2.75 --undefined-- 37.044
2.76 --undefined-- 36.751
2.77 --undefined-- 37.002
2.78 --undefined-- 37.260
2.79 --undefined-- 38.307
2.80 --undefined-- 39.562
2.81 --undefined-- 40.411
2.82 --undefined-- 41.230
2.83 --undefined-- 41.197
2.84 --undefined-- 39.702
2.85 --undefined-- 38.338
2.86 --undefined-- 38.447
2.87 --undefined-- 38.615
2.88 --undefined-- 47.634
2.89 --undefined-- 58.060
2.90 --undefined-- 64.701
2.91 79.351 69.302
2.92 139.373 72.466
2.93 140.871 74.261
2.94 142.076 74.939
2.95 144.084 74.508
2.96 145.825 73.099
2.97 144.464 70.807
2.98 136.403 66.993
2.99 --undefined-- 61.213
3.00 --undefined-- 57.814
3.01 --undefined-- 61.249
3.02 --undefined-- 66.970
3.03 137.382 71.084
3.04 143.919 73.147
3.05 153.217 74.172
3.06 157.450 74.854
3.07 158.675 75.099
3.08 159.181 74.857
3.09 161.932 74.397
3.10 168.309 74.145
3.11 184.138 74.675
3.12 186.111 75.011
3.13 184.816 73.669
3.14 170.038 70.074
3.15 160.797 64.237
3.16 --undefined-- 56.653
3.17 --undefined-- 50.194
3.18 --undefined-- 50.476
3.19 --undefined-- 60.607
3.20 270.754 69.223
3.21 241.355 74.472
3.22 220.200 77.162
3.23 212.918 78.009
3.24 207.996 78.111
3.25 206.700 78.278
3.26 206.916 78.170
3.27 207.787 77.417
3.28 209.037 76.019
3.29 209.175 74.281
3.30 208.733 73.198
3.31 209.080 72.942
3.32 208.738 72.707
3.33 209.360 72.471
3.34 212.433 72.324
3.35 212.615 72.624
3.36 210.785 73.641
3.37 208.661 74.836
3.38 207.489 75.507
3.39 205.576 75.426
3.40 204.426 75.183
3.41 205.310 75.227
3.42 205.506 75.053
3.43 203.212 73.765
3.44 197.398 70.454
3.45 186.632 64.740
3.46 193.548 57.433
3.47 --undefined-- 50.269
3.48 --undefined-- 47.938
3.49 --undefined-- 52.634
3.50 --undefined-- 62.325
3.51 --undefined-- 69.461
3.52 --undefined-- 73.240
3.53 149.842 74.460
3.54 137.934 74.048
3.55 132.187 72.982
3.56 128.349 72.046
3.57 123.293 71.679
3.58 127.623 71.730
3.59 128.825 71.477
3.60 127.140 70.837
3.61 124.240 69.859
3.62 120.597 68.191
3.63 116.316 65.248
3.64 107.536 60.695
3.65 91.778 55.754
3.66 --undefined-- 57.602
3.67 --undefined-- 64.861
3.68 147.372 70.163
3.69 140.051 73.064
3.70 135.361 74.295
3.71 131.822 74.670
3.72 129.818 74.507
3.73 127.578 73.864
3.74 125.807 73.010
3.75 125.767 72.042
3.76 126.461 70.165
3.77 116.876 66.576
3.78 115.888 62.100
3.79 111.251 58.379
3.80 --undefined-- 55.676
3.81 --undefined-- 59.952
3.82 --undefined-- 64.403
3.83 --undefined-- 66.630
3.84 140.376 69.511
3.85 135.783 72.228
3.86 131.807 73.613
3.87 129.408 74.080
3.88 128.515 74.245
3.89 128.254 74.424
3.90 128.233 74.693
3.91 127.842 74.791
3.92 127.026 74.481
3.93 126.327 73.802
3.94 126.557 73.134
3.95 126.912 72.895
3.96 127.942 72.740
3.97 130.480 71.922
3.98 131.298 70.199
3.99 130.084 68.131
4.00 --undefined-- 66.258
4.01 77.223 64.540
4.02 77.348 62.194
4.03 --undefined-- 58.077
4.04 --undefined-- 51.390
4.05 --undefined-- 43.620
4.06 --undefined-- 40.688
4.07 --undefined-- 40.200
4.08 --undefined-- 40.680
4.09 --undefined-- 41.962
4.10 --undefined-- 42.365
4.11 --undefined-- 40.901
4.12 --undefined-- 38.705
4.13 --undefined-- 37.178
4.14 --undefined-- 35.930
4.15 --undefined-- 35.697
4.16 --undefined-- 36.031
4.17 --undefined-- 36.246
4.18 --undefined-- 36.716
4.19 --undefined-- 36.999
4.20 --undefined-- 37.675
4.21 --undefined-- 39.149
4.22 --undefined-- 39.154
4.23 --undefined-- 38.184
4.24 --undefined-- 38.510
4.25 --undefined-- 37.761
4.26 --undefined-- 39.763
4.27 --undefined-- 48.795
4.28 --undefined-- 54.677
4.29 --undefined-- 56.440
4.30 --undefined-- 54.708
4.31 --undefined-- 51.212
4.32 --undefined-- 49.526
4.33 --undefined-- 54.061
4.34 --undefined-- 61.902
4.35 151.652 67.056
4.36 142.053 69.354
4.37 133.079 70.085
4.38 132.484 70.832
4.39 136.293 72.054
4.40 137.315 72.917
4.41 139.114 73.295
4.42 140.172 73.617
4.43 140.644 74.114
4.44 141.022 74.658
4.45 142.349 75.141
4.46 142.924 75.277
4.47 142.361 74.315
4.48 140.547 71.310
4.49 134.154 65.659
4.50 135.743 58.536
4.51 147.881 54.376
4.52 --undefined-- 53.217
4.53 --undefined-- 56.129
4.54 222.474 63.803
4.55 212.938 69.630
4.56 201.839 72.691
4.57 197.790 73.531
4.58 197.538 73.233
4.59 200.207 72.734
4.60 202.265 72.620
4.61 204.682 73.109
4.62 205.035 73.735
4.63 207.622 74.084
4.64 209.582 74.129
4.65 210.881 73.967
4.66 212.034 73.730
4.67 213.005 73.806
4.68 213.820 74.601
4.69 212.828 75.354
4.70 209.827 75.375
4.71 206.684 75.175
4.72 204.795 75.075
4.73 202.679 74.564
4.74 200.318 73.520
4.75 195.907 72.084
4.76 184.107 70.160
4.77 168.144 67.122
4.78 168.714 62.300
4.79 --undefined-- 57.095
4.80 --undefined-- 54.873
4.81 --undefined-- 53.940
4.82 --undefined-- 52.935
4.83 --undefined-- 53.324
4.84 --undefined-- 60.152
4.85 --undefined-- 67.330
4.86 143.510 71.277
4.87 140.678 72.922
4.88 135.882 73.571
4.89 133.804 74.057
4.90 131.527 74.235
4.91 129.758 74.057
4.92 129.243 73.810
4.93 128.039 73.636
4.94 127.061 73.500
4.95 126.613 73.249
4.96 126.893 72.888
4.97 127.154 72.552
4.98 127.566 72.282
4.99 128.260 71.952
5.00 127.847 71.365
5.01 128.009 70.621
5.02 128.455 69.932
5.03 127.818 69.297
5.04 126.518 68.552
5.05 125.467 67.550
5.06 124.626 66.196
5.07 107.114 64.512
5.08 156.799 62.098
5.09 153.819 57.834
5.10 --undefined-- 50.915
5.11 --undefined-- 45.049
5.12 --undefined-- 42.283
5.13 --undefined-- 40.120
5.14 --undefined-- 38.111
5.15 --undefined-- 35.695
5.16 --undefined-- 34.364
5.17 --undefined-- 33.832
5.18 --undefined-- 33.133
5.19 --undefined-- 33.573
5.20 --undefined-- 35.850
5.21 --undefined-- 39.252
5.22 --undefined-- 40.307
5.23 --undefined-- 39.828
5.24 --undefined-- 40.565
5.25 --undefined-- 43.519
5.26 --undefined-- 48.510
5.27 --undefined-- 53.371
5.28 120.698 58.585
5.29 141.231 63.008
5.30 138.101 65.787
5.31 137.467 67.561
5.32 137.759 68.973
5.33 134.247 69.931
5.34 133.616 70.168
5.35 133.886 69.841
5.36 138.304 69.553
5.37 138.544 69.984
5.38 139.479 71.205
5.39 145.070 72.655
5.40 148.124 73.554
5.41 149.360 73.534
5.42 149.347 72.718
5.43 149.365 71.755
5.44 152.388 71.508
5.45 156.132 71.794
5.46 157.910 71.923
5.47 156.532 71.660
5.48 153.259 70.750
5.49 146.914 68.281
5.50 130.462 63.240
5.51 --undefined-- 55.371
5.52 --undefined-- 47.265
5.53 --undefined-- 43.395
5.54 --undefined-- 47.773
5.55 --undefined-- 58.243
5.56 --undefined-- 66.451
5.57 --undefined-- 71.407
5.58 149.841 74.264
5.59 146.882 75.929
5.60 144.393 76.630
5.61 142.187 76.321
5.62 141.291 75.364
5.63 141.321 74.627
5.64 141.541 74.868
5.65 140.955 75.346
5.66 142.586 75.221
5.67 147.239 75.056
5.68 147.207 75.382
5.69 147.082 75.567
5.70 147.537 75.047
5.71 147.845 73.563
5.72 144.381 71.047
5.73 138.574 67.425
5.74 137.395 62.327
5.75 --undefined-- 55.687
5.76 --undefined-- 49.426
5.77 --undefined-- 46.451
5.78 --undefined-- 45.365
5.79 --undefined-- 43.750
5.80 --undefined-- 41.550
5.81 --undefined-- 40.111
5.82 --undefined-- 41.213
5.83 --undefined-- 44.445
5.84 --undefined-- 47.582
5.85 --undefined-- 53.342
5.86 231.916 61.744
5.87 215.227 67.466
5.88 189.852 70.834
5.89 182.745 72.893
5.90 180.901 73.922
5.91 180.481 74.261
5.92 180.794 74.250
5.93 181.281 74.028
5.94 181.434 73.596
5.95 180.642 72.668
5.96 176.747 70.598
5.97 166.815 66.840
5.98 157.455 62.004
5.99 159.673 56.730
6.00 --undefined-- 50.537
6.01 --undefined-- 44.736
6.02 --undefined-- 44.204
6.03 --undefined-- 47.941
6.04 --undefined-- 55.286
6.05 --undefined-- 63.906
6.06 --undefined-- 69.583
6.07 152.929 72.655
6.08 148.962 74.035
6.09 145.910 74.393
6.10 142.484 74.263
6.11 138.691 73.957
6.12 135.946 73.664
6.13 129.784 73.485
6.14 128.725 73.088
6.15 129.334 72.680
6.16 130.673 72.224
6.17 132.061 70.934
6.18 127.710 68.194
6.19 114.211 63.835
6.20 109.254 58.023
6.21 --undefined-- 51.563
6.22 --undefined-- 46.339
6.23 --undefined-- 44.207
6.24 --undefined-- 43.778
6.25 --undefined-- 45.604
6.26 --undefined-- 49.044
6.27 --undefined-- 56.524
6.28 --undefined-- 64.852
6.29 157.026 70.054
6.30 137.037 72.712
6.31 133.294 73.822
6.32 131.357 73.800
6.33 131.321 73.148
6.34 131.830 72.571
6.35 130.388 --undefined--
6.36 128.466 --undefined--
6.37 --undefined-- --undefined--
6.38 --undefined-- --undefined--
