Time Pitch Intensity
0.01 --undefined-- --undefined--
0.02 142.669 --undefined--
0.03 142.098 --undefined--
0.04 142.713 --undefined--
0.05 143.635 73.757
0.06 146.400 71.320
0.07 149.993 70.271
0.08 148.664 70.647
0.09 146.567 72.176
0.10 143.531 73.845
0.11 137.645 74.232
0.12 131.030 73.111
0.13 117.952 70.925
0.14 114.400 68.450
0.15 109.905 66.053
0.16 108.245 64.045
0.17 107.692 62.677
0.18 107.741 61.677
0.19 109.526 60.808
0.20 113.521 59.949
0.21 105.534 58.797
0.22 108.204 57.284
0.23 --undefined-- 54.967
0.24 --undefined-- 50.224
0.25 --undefined-- 43.984
0.26 --undefined-- 41.825
0.27 --undefined-- 40.930
0.28 --undefined-- 40.606
0.29 --undefined-- 40.543
0.30 --undefined-- 40.208
0.31 --undefined-- 45.007
0.32 --undefined-- 53.881
0.33 130.954 59.510
0.34 118.054 62.132
0.35 112.132 62.791
0.36 112.282 62.612
0.37 110.716 62.399
0.38 110.242 62.269
0.39 109.761 62.151
0.40 110.191 62.141
0.41 110.662 62.144
0.42 111.670 62.194
0.43 114.572 62.567
0.44 116.216 63.117
0.45 116.510 62.951
0.46 113.683 61.322
0.47 108.091 58.007
0.48 --undefined-- 53.397
0.49 --undefined-- 47.958
0.50 --undefined-- 43.840
0.51 --undefined-- 42.529
0.52 --undefined-- 43.661
0.53 --undefined-- 47.342
0.54 --undefined-- 51.607
0.55 --undefined-- 55.749
0.56 --undefined-- 61.755
0.57 156.440 67.201
0.58 153.216 70.801
0.59 153.591 73.042
0.60 153.610 74.347
0.61 153.288 75.026
0.62 154.074 75.430
0.63 155.074 75.730
0.64 155.936 75.691
0.65 155.935 74.663
0.66 153.398 71.756
0.67 139.513 66.268
0.68 --undefined-- 59.576
0.69 --undefined-- 58.696
0.70 --undefined-- 65.872
0.71 --undefined-- 71.882
0.72 149.214 75.274
0.73 143.222 76.287
0.74 133.128 75.405
0.75 127.781 74.106
0.76 125.430 73.703
0.77 124.614 73.683
0.78 123.067 73.277
0.79 120.565 72.405
0.80 118.817 71.576
0.81 118.559 70.881
0.82 119.858 69.788
0.83 119.454 67.688
0.84 115.346 64.429
0.85 110.880 60.667
0.86 103.173 58.421
0.87 112.551 62.786
0.88 135.932 68.618
0.89 139.103 72.519
0.90 137.433 74.367
0.91 132.396 74.885
0.92 130.063 74.892
0.93 128.299 74.841
0.94 127.166 74.766
0.95 124.967 74.446
0.96 122.084 73.841
0.97 121.716 73.190
0.98 120.874 72.583
0.99 118.736 71.495
1.00 117.347 69.606
1.01 --undefined-- 66.841
1.02 --undefined-- 61.760
1.03 --undefined-- 53.338
1.04 --undefined-- 46.476
1.05 --undefined-- 43.155
1.06 --undefined-- 40.137
1.07 --undefined-- 38.478
1.08 --undefined-- 37.803
1.09 --undefined-- 36.030
1.10 --undefined-- 35.274
1.11 --undefined-- 37.852
1.12 --undefined-- 38.928
1.13 --undefined-- 38.512
1.14 --undefined-- 38.957
1.15 --undefined-- 39.207
1.16 --undefined-- 38.662
1.17 --undefined-- 38.408
1.18 --undefined-- 38.552
1.19 --undefined-- 38.972
1.20 --undefined-- 38.675
1.21 --undefined-- 38.394
1.22 --undefined-- 39.524
1.23 --undefined-- 39.758
1.24 --undefined-- 37.649
1.25 --undefined-- 34.393
1.26 --undefined-- 33.327
1.27 --undefined-- 34.264
1.28 --undefined-- 35.228
1.29 --undefined-- 35.820
1.30 --undefined-- 36.832
1.31 --undefined-- 37.567
1.32 --undefined-- 37.097
1.33 --undefined-- 37.850
1.34 --undefined-- 40.969
1.35 --undefined-- 42.713
1.36 --undefined-- 42.336
1.37 --undefined-- 42.376
1.38 --undefined-- 43.454
1.39 --undefined-- 43.760
1.40 --undefined-- 43.578
1.41 --undefined-- 43.710
1.42 --undefined-- 44.383
1.43 --undefined-- 44.562
1.44 --undefined-- 44.542
1.45 --undefined-- 44.713
1.46 --undefined-- 44.822
1.47 --undefined-- 45.805
1.48 --undefined-- 47.055
1.49 --undefined-- 47.063
1.50 --undefined-- 46.558
1.51 --undefined-- 46.238
1.52 --undefined-- 45.532
1.53 --undefined-- 45.047
1.54 --undefined-- 44.885
1.55 --undefined-- 44.624
1.56 --undefined-- 43.957
1.57 --undefined-- 42.623
1.58 --undefined-- 41.110
1.59 --undefined-- 41.923
1.60 --undefined-- 44.505
1.61 --undefined-- 44.322
1.62 --undefined-- 41.395
1.63 --undefined-- 39.847
1.64 --undefined-- 39.513
1.65 --undefined-- 40.278
1.66 --undefined-- 50.849
1.67 --undefined-- 62.761
1.68 --undefined-- 71.549
1.69 205.196 77.026
1.70 200.461 79.635
1.71 193.468 79.648
1.72 183.046 77.044
1.73 --undefined-- 71.680
1.74 --undefined-- 63.717
1.75 --undefined-- 54.926
1.76 --undefined-- 49.232
1.77 --undefined-- 48.481
1.78 --undefined-- 57.796
1.79 --undefined-- 66.749
1.80 188.682 73.025
1.81 180.537 76.998
1.82 171.368 79.150
1.83 164.249 79.793
1.84 159.715 79.945
1.85 157.370 80.834
1.86 155.522 82.024
1.87 153.475 82.708
1.88 151.040 82.759
1.89 148.931 82.436
1.90 147.356 81.930
1.91 146.757 81.416
1.92 146.644 81.074
1.93 146.484 80.847
1.94 146.959 80.663
1.95 147.140 80.336
1.96 145.766 79.481
1.97 142.622 77.983
1.98 140.697 76.169
1.99 --undefined-- 74.120
2.00 --undefined-- 71.420
2.01 --undefined-- 67.071
2.02 --undefined-- 60.799
2.03 --undefined-- 52.643
2.04 --undefined-- 44.562
2.05 --undefined-- 42.238
2.06 --undefined-- 42.462
2.07 --undefined-- 42.135
2.08 --undefined-- 40.675
2.09 --undefined-- 39.647
2.10 --undefined-- 40.123
2.11 --undefined-- 40.061
2.12 --undefined-- 39.913
2.13 --undefined-- 41.593
2.14 --undefined-- 42.166
2.15 --undefined-- 39.861
2.16 --undefined-- 37.261
2.17 --undefined-- 36.294
2.18 --undefined-- 36.323
2.19 --undefined-- 37.671
2.20 --undefined-- 38.394
2.21 --undefined-- 38.659
2.22 --undefined-- 42.474
2.23 --undefined-- 53.279
2.24 --undefined-- 60.783
2.25 --undefined-- 64.190
2.26 --undefined-- 64.346
2.27 --undefined-- 62.869
2.28 --undefined-- 61.653
2.29 --undefined-- 60.862
2.30 --undefined-- 60.683
2.31 --undefined-- 60.560
2.32 --undefined-- 59.211
2.33 --undefined-- 58.596
2.34 --undefined-- 65.317
2.35 232.040 71.813
2.36 226.678 75.848
2.37 220.479 78.365
2.38 218.345 79.930
2.39 217.466 80.648
2.40 217.220 80.843
2.41 216.198 81.010
2.42 214.274 81.479
2.43 211.415 82.295
2.44 207.596 83.103
2.45 203.164 83.411
2.46 196.970 82.960
2.47 188.030 82.109
2.48 177.571 81.483
2.49 166.777 81.013
2.50 157.336 80.391
2.51 148.277 79.512
2.52 142.178 78.028
2.53 134.384 75.655
2.54 124.456 72.886
2.55 116.575 70.332
2.56 112.287 67.834
2.57 110.924 65.363
2.58 112.684 63.540
2.59 114.314 62.302
2.60 113.493 60.766
2.61 --undefined-- 57.930
2.62 --undefined-- 52.790
2.63 --undefined-- 47.707
2.64 --undefined-- 48.419
2.65 --undefined-- 49.571
2.66 --undefined-- 49.891
2.67 --undefined-- 49.130
2.68 --undefined-- 46.487
2.69 --undefined-- 43.218
2.70 --undefined-- 42.176
2.71 --undefined-- 40.749
2.72 --undefined-- 38.292
2.73 --undefined-- 38.037
2.74 --undefined-- 38.743
2.75 --undefined-- 39.086
2.76 --undefined-- 38.997
2.77 --undefined-- 37.976
2.78 --undefined-- 35.759
2.79 --undefined-- 33.702
2.80 --undefined-- 35.479
2.81 --undefined-- 38.804
2.82 --undefined-- 42.685
2.83 --undefined-- 46.994
2.84 --undefined-- 50.229
2.85 --undefined-- 52.629
2.86 --undefined-- 55.327
2.87 --undefined-- 59.049
2.88 --undefined-- 64.384
2.89 156.584 68.707
2.90 152.104 71.691
2.91 151.814 73.924
2.92 151.047 75.694
2.93 150.621 77.144
2.94 150.021 78.272
2.95 149.335 78.879
2.96 148.296 78.482
2.97 146.102 76.750
2.98 145.026 74.599
2.99 142.768 73.650
3.00 141.481 74.160
3.01 140.680 75.169
3.02 135.022 75.301
3.03 131.238 74.352
3.04 126.547 73.204
3.05 123.527 72.895
3.06 117.968 72.890
3.07 117.842 72.473
3.08 116.853 71.986
3.09 116.994 71.558
3.10 120.461 71.054
3.11 122.312 70.407
3.12 120.944 68.506
3.13 116.180 64.808
3.14 114.233 60.112
3.15 --undefined-- 54.724
3.16 --undefined-- 50.753
3.17 --undefined-- 51.373
3.18 --undefined-- 53.524
3.19 --undefined-- 56.412
3.20 --undefined-- 62.802
3.21 215.366 69.784
3.22 209.593 73.872
3.23 204.408 75.858
3.24 201.111 77.334
3.25 198.515 78.411
3.26 197.283 78.438
3.27 198.294 77.936
3.28 198.861 77.764
3.29 198.099 77.710
3.30 196.959 77.374
3.31 196.829 76.722
3.32 197.505 75.881
3.33 195.927 74.798
3.34 195.824 73.440
3.35 197.636 72.012
3.36 197.861 70.802
3.37 198.123 70.063
3.38 198.216 69.752
3.39 199.169 70.092
3.40 201.179 71.706
3.41 201.717 73.751
3.42 201.658 75.285
3.43 201.339 76.345
3.44 201.662 76.969
3.45 201.271 77.013
3.46 200.083 76.593
3.47 198.352 76.122
3.48 196.542 76.043
3.49 194.789 76.333
3.50 193.817 76.212
3.51 193.627 74.948
3.52 193.292 71.945
3.53 190.667 66.608
3.54 --undefined-- 58.821
3.55 --undefined-- 49.911
3.56 --undefined-- 42.448
3.57 --undefined-- 39.779
3.58 --undefined-- 41.540
3.59 --undefined-- 54.185
3.60 --undefined-- 64.603
3.61 --undefined-- 70.967
3.62 162.499 74.020
3.63 150.028 74.645
3.64 141.356 74.170
3.65 135.624 73.652
3.66 130.946 73.203
3.67 127.416 72.654
3.68 126.502 71.684
3.69 123.049 70.070
3.70 122.143 68.993
3.71 126.963 68.905
3.72 127.255 68.522
3.73 126.407 67.885
3.74 124.719 67.210
3.75 121.647 65.971
3.76 112.288 63.445
3.77 --undefined-- 59.109
3.78 --undefined-- 52.933
3.79 --undefined-- 48.093
3.80 --undefined-- 46.645
3.81 --undefined-- 45.913
3.82 --undefined-- 45.519
3.83 --undefined-- 44.384
3.84 --undefined-- 42.711
3.85 --undefined-- 42.111
3.86 --undefined-- 42.239
3.87 --undefined-- 42.892
3.88 --undefined-- 49.545
3.89 --undefined-- 57.435
3.90 133.063 62.312
3.91 120.229 64.838
3.92 121.481 66.061
3.93 121.395 66.719
3.94 120.822 67.192
3.95 120.768 67.700
3.96 120.861 68.197
3.97 121.627 68.277
3.98 117.957 67.113
3.99 110.594 63.940
4.00 --undefined-- 58.767
4.01 --undefined-- 53.456
4.02 --undefined-- 53.667
4.03 --undefined-- 57.430
4.04 --undefined-- 58.709
4.05 --undefined-- 58.369
4.06 --undefined-- 58.627
4.07 --undefined-- 60.211
4.08 112.912 62.438
4.09 127.867 64.269
4.10 123.775 65.080
4.11 118.188 65.051
4.12 113.223 64.530
4.13 110.267 63.703
4.14 104.255 62.665
4.15 102.003 61.863
4.16 102.880 61.264
4.17 103.585 60.588
4.18 104.536 59.934
4.19 103.805 59.240
4.20 101.499 58.430
4.21 96.656 57.445
4.22 93.876 55.887
4.23 --undefined-- 52.771
4.24 --undefined-- 48.426
4.25 --undefined-- 44.606
4.26 --undefined-- 40.798
4.27 --undefined-- 38.576
4.28 --undefined-- 36.426
4.29 --undefined-- 36.914
4.30 --undefined-- 39.724
4.31 --undefined-- 40.796
4.32 --undefined-- 39.117
4.33 --undefined-- 35.578
4.34 --undefined-- 34.035
4.35 --undefined-- 35.445
4.36 --undefined-- 38.000
4.37 --undefined-- 40.164
4.38 --undefined-- 40.438
4.39 --undefined-- 41.015
4.40 --undefined-- 42.994
4.41 --undefined-- 44.160
4.42 --undefined-- 45.274
4.43 --undefined-- 46.997
4.44 --undefined-- 48.225
4.45 --undefined-- 48.675
4.46 --undefined-- 48.752
4.47 --undefined-- 52.311
4.48 --undefined-- 62.455
4.49 --undefined-- 69.962
4.50 150.138 74.699
4.51 146.915 77.513
4.52 143.282 78.647
4.53 139.500 78.392
4.54 138.238 77.814
4.55 139.047 77.795
4.56 140.416 78.142
4.57 142.100 78.594
4.58 142.705 78.956
4.59 142.499 79.100
4.60 141.965 78.985
4.61 140.702 78.486
4.62 140.129 77.625
4.63 140.895 76.667
4.64 142.349 75.832
4.65 144.462 75.265
4.66 145.706 75.057
4.67 146.747 75.286
4.68 147.412 75.586
4.69 147.357 75.432
4.70 145.107 74.519
4.71 138.281 72.417
4.72 133.634 68.549
4.73 133.556 62.587
4.74 --undefined-- 55.109
4.75 --undefined-- 49.474
4.76 --undefined-- 48.955
4.77 --undefined-- 53.111
4.78 --undefined-- 62.495
4.79 --undefined-- 69.051
4.80 148.526 72.294
4.81 135.054 73.300
4.82 127.653 73.036
4.83 123.698 72.512
4.84 120.260 72.246
4.85 119.779 72.069
4.86 120.528 71.786
4.87 122.649 71.321
4.88 125.322 70.794
4.89 122.671 70.232
4.90 126.398 69.765
4.91 126.322 69.135
4.92 125.064 67.670
4.93 119.669 64.784
4.94 113.852 60.892
4.95 130.637 59.643
4.96 145.736 63.806
4.97 145.093 68.064
4.98 137.343 70.452
4.99 130.986 71.506
5.00 126.872 72.038
5.01 122.598 72.188
5.02 122.066 72.333
5.03 122.985 72.595
5.04 125.606 72.794
5.05 127.195 72.898
5.06 127.772 72.631
5.07 130.149 71.988
5.08 131.770 70.894
5.09 133.868 69.521
5.10 140.990 68.896
5.11 142.895 69.290
5.12 146.278 70.061
5.13 149.000 70.801
5.14 151.715 71.574
5.15 154.285 72.605
5.16 155.440 73.993
5.17 156.004 75.479
5.18 156.059 76.691
5.19 155.245 77.262
5.20 154.110 77.184
5.21 152.514 76.716
5.22 150.661 76.079
5.23 148.849 75.078
5.24 146.002 72.916
5.25 130.838 68.712
5.26 130.323 62.892
5.27 --undefined-- 57.820
5.28 --undefined-- 55.079
5.29 --undefined-- 56.309
5.30 --undefined-- 58.474
5.31 --undefined-- 60.376
5.32 --undefined-- 62.171
5.33 --undefined-- 63.247
5.34 --undefined-- 63.024
5.35 --undefined-- 62.235
5.36 --undefined-- 66.059
5.37 187.022 71.790
5.38 173.993 75.323
5.39 166.688 76.842
5.40 159.288 76.776
5.41 155.125 75.984
5.42 151.006 75.201
5.43 144.581 74.782
5.44 140.138 75.167
5.45 135.546 75.526
5.46 129.903 74.443
5.47 118.034 71.808
5.48 --undefined-- 68.709
5.49 --undefined-- 64.644
5.50 --undefined-- 57.958
5.51 --undefined-- 49.074
5.52 --undefined-- 43.970
5.53 --undefined-- 43.395
5.54 --undefined-- 43.066
5.55 --undefined-- 42.004
5.56 --undefined-- 40.969
5.57 --undefined-- 40.169
5.58 --undefined-- 39.037
5.59 --undefined-- 37.633
5.60 --undefined-- 36.619
5.61 --undefined-- 36.817
5.62 --undefined-- 38.543
5.63 --undefined-- 39.758
5.64 --undefined-- 39.868
5.65 --undefined-- 39.131
5.66 --undefined-- 38.170
5.67 --undefined-- 37.296
5.68 --undefined-- 35.839
5.69 --undefined-- 34.543
5.70 --undefined-- 35.278
5.71 --undefined-- 37.558
5.72 --undefined-- 38.755
5.73 --undefined-- 37.377
5.74 --undefined-- 36.519
5.75 --undefined-- 38.113
5.76 --undefined-- 38.497
5.77 --undefined-- 38.718
5.78 --undefined-- 40.003
5.79 --undefined-- 41.823
5.80 --undefined-- 42.220
5.81 --undefined-- 40.143
5.82 --undefined-- 36.898
5.83 --undefined-- 35.053
5.84 --undefined-- 34.505
5.85 --undefined-- 35.212
5.86 --undefined-- 36.070
5.87 --undefined-- 36.418
5.88 --undefined-- 36.249
5.89 --undefined-- 36.871
5.90 --undefined-- 38.229
5.91 --undefined-- 38.561
5.92 --undefined-- 37.633
5.93 --undefined-- 37.996
5.94 --undefined-- 38.497
5.95 --undefined-- 37.706
5.96 --undefined-- 36.435
5.97 --undefined-- 35.322
5.98 --undefined-- 36.432
5.99 --undefined-- 37.820
6.00 --undefined-- 37.166
6.01 --undefined-- 36.931
6.02 --undefined-- 41.822
6.03 --undefined-- 48.696
6.04 --undefined-- 55.652
6.05 --undefined-- 64.359
6.06 --undefined-- 71.105
6.07 190.672 75.458
6.08 188.994 77.981
6.09 188.115 79.064
6.10 189.021 78.912
6.11 189.067 77.531
6.12 184.950 74.627
6.13 164.367 69.865
6.14 --undefined-- 63.370
6.15 --undefined-- 57.157
6.16 --undefined-- 52.281
6.17 --undefined-- 47.616
6.18 --undefined-- 49.844
6.19 --undefined-- 57.402
6.20 --undefined-- 64.866
6.21 --undefined-- 70.922
6.22 154.518 75.090
6.23 149.071 77.429
6.24 145.189 78.538
6.25 141.912 79.358
6.26 141.382 80.389
6.27 139.902 80.958
6.28 138.668 80.749
6.29 139.346 80.291
6.30 140.730 80.071
6.31 144.228 80.342
6.32 148.724 81.047
6.33 153.912 --undefined--
6.34 160.182 --undefined--
6.35 --undefined-- --undefined--
6.36 --undefined-- --undefined--
