Time Pitch Intensity
0.01 --undefined-- --undefined--
0.02 --undefined-- --undefined--
0.03 83.327 --undefined--
0.04 87.628 --undefined--
0.05 87.245 58.786
0.06 83.959 60.879
0.07 83.683 61.836
0.08 82.677 61.959
0.09 80.551 61.228
0.10 80.054 59.419
0.11 80.536 56.821
0.12 80.467 54.500
0.13 79.773 53.262
0.14 78.986 52.506
0.15 79.027 53.529
0.16 80.241 57.081
0.17 80.274 60.282
0.18 --undefined-- 61.831
0.19 75.607 61.650
0.20 75.538 59.985
0.21 --undefined-- 57.531
0.22 --undefined-- 54.591
0.23 --undefined-- 50.520
0.24 --undefined-- 47.454
0.25 --undefined-- 48.681
0.26 --undefined-- 50.293
0.27 --undefined-- 50.423
0.28 --undefined-- 49.402
0.29 --undefined-- 48.238
0.30 --undefined-- 47.103
0.31 --undefined-- 47.159
0.32 --undefined-- 49.081
0.33 --undefined-- 49.610
0.34 --undefined-- 50.521
0.35 --undefined-- 52.265
0.36 --undefined-- 53.630
0.37 --undefined-- 54.963
0.38 --undefined-- 56.328
0.39 --undefined-- 57.119
0.40 --undefined-- 57.480
0.41 --undefined-- 57.688
0.42 --undefined-- 57.921
0.43 --undefined-- 58.388
0.44 --undefined-- 59.016
0.45 --undefined-- 61.415
0.46 --undefined-- 66.775
0.47 --undefined-- 70.337
0.48 98.738 71.043
0.49 97.710 69.466
0.50 --undefined-- 65.584
0.51 --undefined-- 58.421
0.52 --undefined-- 47.952
0.53 --undefined-- 39.610
0.54 --undefined-- 36.542
0.55 --undefined-- 35.455
0.56 --undefined-- 34.813
0.57 --undefined-- 34.676
0.58 --undefined-- 35.179
0.59 --undefined-- 35.265
0.60 --undefined-- 34.676
0.61 --undefined-- 34.408
0.62 --undefined-- 34.804
0.63 --undefined-- 34.602
0.64 --undefined-- 33.657
0.65 --undefined-- 34.484
0.66 --undefined-- 35.832
0.67 --undefined-- 35.729
0.68 --undefined-- 35.848
0.69 --undefined-- 36.710
0.70 --undefined-- 36.889
0.71 --undefined-- 43.646
0.72 --undefined-- 51.632
0.73 --undefined-- 55.749
0.74 --undefined-- 57.916
0.75 --undefined-- 59.523
0.76 --undefined-- 61.464
0.77 --undefined-- 66.593
0.78 --undefined-- 70.551
0.79 --undefined-- 71.460
0.80 --undefined-- 69.491
0.81 --undefined-- 64.535
0.82 --undefined-- 56.608
0.83 --undefined-- 52.550
0.84 82.182 53.690
0.85 79.563 53.714
0.86 79.878 52.963
0.87 80.296 52.050
0.88 78.122 51.151
0.89 78.138 51.567
0.90 76.994 53.129
0.91 75.785 53.927
0.92 75.744 53.773
0.93 75.886 53.087
0.94 76.063 52.184
0.95 77.480 51.412
0.96 77.795 50.630
0.97 --undefined-- 49.493
0.98 --undefined-- 47.911
0.99 --undefined-- 45.529
1.00 --undefined-- 50.884
1.01 --undefined-- 59.361
1.02 --undefined-- 63.867
1.03 --undefined-- 64.755
1.04 270.697 63.050
1.05 267.280 61.676
1.06 267.091 61.728
1.07 --undefined-- 60.771
1.08 --undefined-- 61.025
1.09 --undefined-- 63.594
1.10 --undefined-- 65.061
1.11 84.406 64.565
1.12 85.011 62.289
1.13 83.140 59.325
1.14 --undefined-- 56.179
1.15 --undefined-- 51.713
1.16 --undefined-- 45.338
1.17 --undefined-- 39.493
1.18 --undefined-- 40.024
1.19 --undefined-- 50.384
1.20 255.422 56.891
1.21 259.098 59.062
1.22 264.557 59.250
1.23 --undefined-- 63.444
1.24 --undefined-- 67.409
1.25 84.569 68.728
1.26 83.408 68.066
1.27 --undefined-- 65.543
1.28 --undefined-- 60.605
1.29 --undefined-- 56.911
1.30 --undefined-- 59.068
1.31 88.796 60.915
1.32 88.428 62.168
1.33 87.396 62.700
1.34 87.474 61.857
1.35 87.338 58.597
1.36 --undefined-- 53.502
1.37 --undefined-- 48.884
1.38 --undefined-- 44.375
1.39 --undefined-- 40.555
1.40 --undefined-- 37.235
1.41 --undefined-- 33.946
1.42 --undefined-- 32.707
1.43 --undefined-- 37.373
1.44 --undefined-- 46.380
1.45 --undefined-- 51.939
1.46 --undefined-- 54.898
1.47 --undefined-- 57.535
1.48 --undefined-- 59.831
1.49 --undefined-- 61.620
1.50 --undefined-- 63.201
1.51 --undefined-- 63.415
1.52 --undefined-- 62.187
1.53 --undefined-- 62.176
1.54 --undefined-- 63.340
1.55 99.673 63.924
1.56 98.511 64.688
1.57 95.672 65.283
1.58 94.594 65.361
1.59 92.289 65.539
1.60 88.290 65.623
1.61 86.833 65.613
1.62 83.348 65.806
1.63 81.344 66.282
1.64 78.549 66.085
1.65 --undefined-- 63.929
1.66 --undefined-- 59.521
1.67 --undefined-- 54.899
1.68 --undefined-- 53.522
1.69 --undefined-- 56.884
1.70 --undefined-- 59.232
1.71 76.818 60.383
1.72 76.492 61.050
1.73 76.446 61.560
1.74 --undefined-- 62.258
1.75 --undefined-- 62.361
1.76 --undefined-- 62.253
1.77 --undefined-- 61.924
1.78 --undefined-- 59.857
1.79 --undefined-- 56.327
1.80 --undefined-- 54.538
1.81 --undefined-- 54.729
1.82 74.801 56.551
1.83 --undefined-- 58.764
1.84 --undefined-- 61.191
1.85 --undefined-- 63.478
1.86 --undefined-- 64.096
1.87 --undefined-- 63.247
1.88 --undefined-- 65.090
1.89 --undefined-- 68.083
1.90 --undefined-- 68.313
1.91 281.904 65.892
1.92 281.561 63.481
1.93 282.107 61.431
1.94 284.922 57.273
1.95 --undefined-- 51.783
1.96 --undefined-- 47.474
1.97 --undefined-- 44.267
1.98 --undefined-- 42.028
1.99 --undefined-- 41.577
2.00 --undefined-- 42.334
2.01 --undefined-- 40.673
2.02 --undefined-- 37.052
2.03 --undefined-- 36.215
2.04 --undefined-- 37.343
2.05 --undefined-- 38.466
2.06 --undefined-- 39.438
2.07 --undefined-- 40.619
2.08 --undefined-- 41.504
2.09 --undefined-- 42.059
2.10 --undefined-- 42.973
2.11 --undefined-- 43.756
2.12 --undefined-- 43.974
2.13 --undefined-- 44.243
2.14 --undefined-- 45.387
2.15 --undefined-- 46.726
2.16 --undefined-- 46.999
2.17 --undefined-- 48.346
2.18 --undefined-- 53.501
2.19 --undefined-- 56.731
2.20 --undefined-- 56.855
2.21 --undefined-- 55.525
2.22 --undefined-- 54.610
2.23 --undefined-- 53.801
2.24 --undefined-- 53.209
2.25 --undefined-- 51.881
2.26 --undefined-- 49.325
2.27 --undefined-- 46.921
2.28 --undefined-- 44.368
2.29 --undefined-- 40.784
2.30 --undefined-- 38.231
2.31 --undefined-- 37.085
2.32 --undefined-- 35.517
2.33 --undefined-- 34.554
2.34 --undefined-- 33.296
2.35 --undefined-- 31.264
2.36 --undefined-- 30.826
2.37 --undefined-- 31.449
2.38 --undefined-- 37.794
2.39 --undefined-- 50.161
2.40 --undefined-- 57.738
2.41 --undefined-- 61.399
2.42 --undefined-- 63.112
2.43 --undefined-- 64.600
2.44 --undefined-- 66.663
2.45 --undefined-- 69.615
2.46 --undefined-- 71.834
2.47 102.573 72.432
2.48 101.609 72.002
2.49 97.346 71.551
2.50 93.902 71.439
2.51 89.776 71.158
2.52 87.345 70.347
2.53 86.400 69.606
2.54 85.395 69.049
2.55 83.596 67.937
2.56 83.350 66.335
2.57 82.916 64.780
2.58 81.545 63.052
2.59 79.763 61.081
2.60 78.355 60.103
2.61 76.802 59.713
2.62 76.450 58.883
2.63 77.009 57.957
2.64 78.051 57.721
2.65 79.719 58.893
2.66 82.512 61.679
2.67 80.065 64.569
2.68 79.736 67.178
2.69 78.179 69.576
2.70 79.217 71.362
2.71 79.905 71.609
2.72 79.667 70.416
2.73 81.211 69.350
2.74 81.745 69.153
2.75 80.184 69.245
2.76 79.937 69.872
2.77 78.469 70.630
2.78 --undefined-- 70.897
2.79 76.075 70.760
2.80 76.109 70.477
2.81 75.452 70.435
2.82 75.275 70.458
2.83 75.445 70.374
2.84 75.190 70.115
2.85 75.860 69.078
2.86 75.892 68.123
2.87 75.741 67.787
2.88 75.500 67.573
2.89 76.044 67.861
2.90 --undefined-- 67.914
2.91 --undefined-- 66.537
2.92 --undefined-- 65.137
2.93 --undefined-- 64.373
2.94 --undefined-- 62.363
2.95 --undefined-- 60.956
2.96 --undefined-- 61.481
2.97 --undefined-- 61.495
2.98 --undefined-- 60.800
2.99 --undefined-- 60.772
3.00 --undefined-- 62.251
3.01 --undefined-- 63.701
3.02 --undefined-- 64.594
3.03 87.239 66.039
3.04 84.465 67.854
3.05 83.326 69.072
3.06 82.364 69.551
3.07 80.228 69.318
3.08 80.214 68.569
3.09 79.890 67.847
3.10 79.704 67.490
3.11 79.564 67.144
3.12 79.826 66.568
3.13 79.464 65.757
3.14 79.264 65.336
3.15 78.758 65.445
3.16 78.308 65.046
3.17 76.828 64.443
3.18 76.394 64.534
3.19 76.584 64.445
3.20 76.116 64.010
3.21 76.150 63.412
3.22 76.291 62.454
3.23 75.908 61.718
3.24 75.905 61.093
3.25 79.223 59.754
3.26 79.247 56.795
3.27 79.194 52.889
3.28 --undefined-- 50.187
3.29 --undefined-- 48.120
3.30 --undefined-- 45.898
3.31 --undefined-- 43.662
3.32 --undefined-- 41.064
3.33 --undefined-- 37.696
3.34 --undefined-- 38.260
3.35 --undefined-- 44.007
3.36 --undefined-- 51.875
3.37 --undefined-- 58.361
3.38 --undefined-- 64.407
3.39 --undefined-- 70.466
3.40 --undefined-- 73.532
3.41 --undefined-- 73.302
3.42 77.164 71.421
3.43 79.442 70.440
3.44 81.570 70.142
3.45 81.977 70.458
3.46 82.714 71.363
3.47 85.468 71.992
3.48 87.382 71.903
3.49 --undefined-- 70.812
3.50 --undefined-- 68.330
3.51 --undefined-- 63.635
3.52 --undefined-- 56.858
3.53 85.605 54.780
3.54 82.476 55.363
3.55 81.036 55.667
3.56 78.930 59.485
3.57 --undefined-- 66.756
3.58 --undefined-- 71.750
3.59 --undefined-- 74.106
3.60 --undefined-- 74.636
3.61 --undefined-- 74.804
3.62 --undefined-- 75.419
3.63 --undefined-- 75.470
3.64 --undefined-- 74.917
3.65 --undefined-- 74.395
3.66 --undefined-- 73.885
3.67 --undefined-- 72.974
3.68 --undefined-- 71.388
3.69 --undefined-- 69.742
3.70 --undefined-- 68.637
3.71 --undefined-- 67.499
3.72 --undefined-- 64.502
3.73 --undefined-- 59.905
3.74 --undefined-- 58.632
3.75 --undefined-- 57.208
3.76 --undefined-- 52.735
3.77 --undefined-- 46.697
3.78 --undefined-- 42.744
3.79 --undefined-- 39.537
3.80 --undefined-- 37.493
3.81 --undefined-- 36.450
3.82 --undefined-- 36.118
3.83 --undefined-- 36.285
3.84 --undefined-- 37.233
3.85 --undefined-- 39.313
3.86 --undefined-- 40.457
3.87 --undefined-- 39.851
3.88 --undefined-- 38.934
3.89 --undefined-- 38.877
3.90 --undefined-- 38.480
3.91 --undefined-- 37.947
3.92 --undefined-- 36.966
3.93 --undefined-- 35.365
3.94 --undefined-- 35.322
3.95 --undefined-- 36.333
3.96 --undefined-- 35.951
3.97 --undefined-- 34.660
3.98 --undefined-- 34.557
3.99 --undefined-- 34.656
4.00 --undefined-- 34.135
4.01 --undefined-- 34.115
4.02 --undefined-- 34.884
4.03 --undefined-- 37.140
4.04 --undefined-- 41.429
4.05 --undefined-- 43.571
4.06 --undefined-- 42.063
4.07 --undefined-- 38.275
4.08 --undefined-- 41.529
4.09 --undefined-- 51.351
4.10 --undefined-- 56.658
4.11 --undefined-- 57.237
4.12 --undefined-- 56.168
4.13 --undefined-- 62.851
4.14 --undefined-- 68.808
4.15 --undefined-- 71.931
4.16 94.043 72.927
4.17 91.791 72.501
4.18 89.988 71.412
4.19 88.889 70.482
4.20 87.394 69.835
4.21 87.356 69.210
4.22 87.286 68.726
4.23 87.448 68.609
4.24 87.625 68.675
4.25 87.108 68.497
4.26 86.423 68.518
4.27 85.965 68.630
4.28 86.151 68.600
4.29 86.977 68.955
4.30 87.212 69.462
4.31 87.768 69.650
4.32 88.157 69.648
4.33 88.415 69.545
4.34 88.524 68.657
4.35 90.121 67.110
4.36 90.803 65.978
4.37 87.359 64.502
4.38 87.423 61.775
4.39 84.615 58.509
4.40 88.439 56.405
4.41 89.081 57.499
4.42 --undefined-- 59.609
4.43 --undefined-- 59.452
4.44 --undefined-- 59.433
4.45 --undefined-- 63.961
4.46 --undefined-- 67.592
4.47 --undefined-- 68.951
4.48 86.460 68.432
4.49 84.209 67.051
4.50 83.349 64.902
4.51 83.189 61.121
4.52 82.917 56.420
4.53 82.721 54.083
4.54 82.694 54.280
4.55 82.986 54.614
4.56 82.988 53.545
4.57 --undefined-- 50.869
4.58 --undefined-- 48.113
4.59 --undefined-- 45.790
4.60 --undefined-- 49.386
4.61 --undefined-- 57.633
4.62 --undefined-- 63.883
4.63 --undefined-- 68.172
4.64 93.363 70.082
4.65 93.375 69.715
4.66 91.215 67.856
4.67 91.132 65.429
4.68 91.727 63.252
4.69 89.431 60.785
4.70 87.578 58.056
4.71 87.827 57.538
4.72 93.583 60.061
4.73 95.044 63.811
4.74 94.819 66.748
4.75 88.214 68.159
4.76 86.417 68.695
4.77 --undefined-- 68.457
4.78 --undefined-- 66.605
4.79 --undefined-- 64.658
4.80 --undefined-- 65.161
4.81 --undefined-- 65.612
4.82 --undefined-- 64.211
4.83 --undefined-- 61.091
4.84 --undefined-- 56.700
4.85 --undefined-- 51.761
4.86 --undefined-- 49.004
4.87 --undefined-- 48.619
4.88 --undefined-- 49.122
4.89 --undefined-- 49.034
4.90 --undefined-- 47.618
4.91 --undefined-- 45.671
4.92 --undefined-- 44.270
4.93 --undefined-- 43.105
4.94 --undefined-- 42.637
4.95 --undefined-- 42.371
4.96 --undefined-- 42.298
4.97 --undefined-- 42.230
4.98 --undefined-- 41.780
4.99 --undefined-- 41.273
5.00 --undefined-- 40.791
5.01 --undefined-- 42.062
5.02 --undefined-- 47.126
5.03 --undefined-- 52.404
5.04 --undefined-- 56.393
5.05 --undefined-- 58.998
5.06 --undefined-- 60.113
5.07 --undefined-- 59.778
5.08 --undefined-- 58.928
5.09 --undefined-- 57.985
5.10 --undefined-- 57.945
5.11 --undefined-- 59.896
5.12 --undefined-- 62.230
5.13 --undefined-- 63.754
5.14 91.859 64.186
5.15 85.690 64.191
5.16 84.851 63.961
5.17 81.914 63.203
5.18 81.161 62.272
5.19 80.757 61.633
5.20 80.417 61.260
5.21 80.493 61.509
5.22 78.569 62.116
5.23 76.281 62.231
5.24 75.299 61.911
5.25 --undefined-- 61.918
5.26 --undefined-- 62.268
5.27 --undefined-- 62.591
5.28 --undefined-- 63.175
5.29 --undefined-- 63.253
5.30 --undefined-- 61.889
5.31 --undefined-- 61.147
5.32 --undefined-- 61.883
5.33 --undefined-- 60.579
5.34 --undefined-- 58.284
5.35 --undefined-- 57.969
5.36 --undefined-- 59.300
5.37 --undefined-- 60.639
5.38 --undefined-- 61.028
5.39 83.808 61.446
5.40 89.760 63.597
5.41 89.542 66.295
5.42 91.866 68.025
5.43 93.764 68.908
5.44 94.181 69.196
5.45 94.627 68.859
5.46 96.794 68.292
5.47 95.821 67.726
5.48 95.850 67.319
5.49 95.270 66.697
5.50 93.182 65.600
5.51 92.658 64.614
5.52 95.948 63.498
5.53 94.966 62.191
5.54 94.082 62.099
5.55 92.395 62.943
5.56 90.732 63.741
5.57 89.004 64.169
5.58 88.441 64.387
5.59 87.892 65.023
5.60 87.730 66.696
5.61 87.640 68.847
5.62 87.507 70.316
5.63 --undefined-- 69.760
5.64 --undefined-- 66.336
5.65 --undefined-- 61.796
5.66 --undefined-- 61.329
5.67 --undefined-- 63.194
5.68 --undefined-- 65.149
5.69 --undefined-- 66.760
5.70 --undefined-- 68.650
5.71 --undefined-- 70.911
5.72 --undefined-- 72.102
5.73 --undefined-- --undefined--
5.74 --undefined-- --undefined--
5.75 --undefined-- --undefined--
5.76 --undefined-- --undefined--
