Time Pitch Intensity
0.01 --undefined-- --undefined--
0.02 109.633 --undefined--
0.03 110.803 --undefined--
0.04 111.861 --undefined--
0.05 110.090 56.396
0.06 110.250 58.425
0.07 --undefined-- 62.340
0.08 --undefined-- 67.361
0.09 --undefined-- 70.903
0.10 --undefined-- 71.792
0.11 --undefined-- 70.857
0.12 --undefined-- 69.774
0.13 --undefined-- 68.658
0.14 --undefined-- 67.158
0.15 --undefined-- 65.706
0.16 113.608 66.787
0.17 113.097 67.815
0.18 104.986 67.387
0.19 101.604 66.819
0.20 100.651 67.330
0.21 100.873 68.140
0.22 97.912 68.418
0.23 96.123 68.160
0.24 95.480 67.675
0.25 95.056 67.066
0.26 94.376 66.145
0.27 93.097 64.821
0.28 92.119 63.195
0.29 91.124 61.156
0.30 88.993 58.285
0.31 91.377 55.110
0.32 89.799 52.906
0.33 92.391 51.953
0.34 91.733 51.780
0.35 91.454 51.915
0.36 92.096 52.058
0.37 92.494 52.142
0.38 95.396 52.370
0.39 96.447 52.829
0.40 98.156 53.393
0.41 97.749 53.839
0.42 96.779 54.229
0.43 96.883 54.480
0.44 99.915 54.258
0.45 101.719 54.031
0.46 100.589 53.991
0.47 99.465 53.900
0.48 93.766 53.999
0.49 --undefined-- 54.476
0.50 --undefined-- 54.227
0.51 --undefined-- 54.244
0.52 --undefined-- 56.192
0.53 --undefined-- 58.243
0.54 --undefined-- 59.823
0.55 --undefined-- 61.277
0.56 --undefined-- 61.850
0.57 --undefined-- 60.837
0.58 --undefined-- 59.620
0.59 --undefined-- 59.342
0.60 --undefined-- 59.453
0.61 --undefined-- 58.951
0.62 --undefined-- 59.542
0.63 --undefined-- 63.966
0.64 107.057 67.114
0.65 104.360 68.035
0.66 101.649 67.816
0.67 99.648 67.330
0.68 98.605 66.885
0.69 96.623 66.132
0.70 95.255 64.901
0.71 93.703 63.816
0.72 91.720 63.174
0.73 90.558 62.881
0.74 --undefined-- 64.236
0.75 --undefined-- 66.814
0.76 --undefined-- 67.177
0.77 --undefined-- 65.329
0.78 --undefined-- 64.883
0.79 --undefined-- 65.650
0.80 --undefined-- 66.322
0.81 --undefined-- 67.176
0.82 --undefined-- 67.282
0.83 --undefined-- 68.950
0.84 --undefined-- 71.024
0.85 96.162 70.701
0.86 94.385 68.627
0.87 92.719 66.350
0.88 92.074 64.704
0.89 93.395 63.204
0.90 93.601 61.147
0.91 95.820 59.144
0.92 97.398 58.115
0.93 98.327 57.839
0.94 102.156 58.373
0.95 107.971 59.970
0.96 109.252 61.368
0.97 110.668 61.221
0.98 --undefined-- 58.417
0.99 --undefined-- 52.015
1.00 --undefined-- 45.322
1.01 --undefined-- 51.764
1.02 --undefined-- 58.675
1.03 --undefined-- 63.581
1.04 --undefined-- 67.709
1.05 --undefined-- 70.924
1.06 --undefined-- 71.319
1.07 --undefined-- 68.432
1.08 --undefined-- 62.035
1.09 --undefined-- 51.449
1.10 --undefined-- 41.386
1.11 --undefined-- 42.230
1.12 --undefined-- 42.114
1.13 --undefined-- 38.946
1.14 --undefined-- 35.796
1.15 --undefined-- 35.083
1.16 --undefined-- 34.320
1.17 --undefined-- 33.934
1.18 --undefined-- 33.931
1.19 --undefined-- 32.868
1.20 --undefined-- 32.300
1.21 --undefined-- 34.604
1.22 --undefined-- 40.056
1.23 --undefined-- 50.343
1.24 --undefined-- 57.431
1.25 --undefined-- 62.441
1.26 --undefined-- 66.100
1.27 91.491 67.469
1.28 91.665 67.044
1.29 93.015 66.392
1.30 95.074 66.070
1.31 96.952 65.639
1.32 96.533 64.816
1.33 93.518 63.439
1.34 91.609 61.717
1.35 89.817 59.944
1.36 --undefined-- 57.855
1.37 --undefined-- 56.192
1.38 --undefined-- 58.409
1.39 --undefined-- 64.858
1.40 --undefined-- 69.534
1.41 --undefined-- 71.051
1.42 --undefined-- 69.685
1.43 --undefined-- 66.979
1.44 --undefined-- 67.455
1.45 --undefined-- 68.549
1.46 91.001 67.980
1.47 90.906 67.377
1.48 93.685 67.434
1.49 94.703 67.421
1.50 94.897 66.468
1.51 --undefined-- 63.567
1.52 --undefined-- 58.732
1.53 96.984 56.556
1.54 100.173 57.313
1.55 103.937 57.963
1.56 106.600 59.564
1.57 108.128 61.403
1.58 109.074 62.780
1.59 109.056 63.300
1.60 106.236 62.785
1.61 105.841 61.151
1.62 99.515 58.431
1.63 95.330 55.300
1.64 --undefined-- 54.714
1.65 --undefined-- 59.784
1.66 --undefined-- 64.254
1.67 --undefined-- 66.588
1.68 --undefined-- 67.241
1.69 --undefined-- 66.092
1.70 --undefined-- 63.170
1.71 --undefined-- 59.455
1.72 --undefined-- 54.658
1.73 --undefined-- 47.359
1.74 --undefined-- 43.153
1.75 --undefined-- 48.107
1.76 --undefined-- 52.223
1.77 --undefined-- 57.044
1.78 --undefined-- 61.162
1.79 --undefined-- 63.383
1.80 --undefined-- 66.838
1.81 --undefined-- 70.999
1.82 --undefined-- 72.987
1.83 --undefined-- 72.570
1.84 --undefined-- 70.129
1.85 --undefined-- 65.701
1.86 --undefined-- 58.678
1.87 --undefined-- 48.292
1.88 --undefined-- 40.415
1.89 --undefined-- 37.841
1.90 --undefined-- 39.789
1.91 --undefined-- 45.142
1.92 --undefined-- 47.531
1.93 --undefined-- 50.058
1.94 --undefined-- 57.258
1.95 106.446 62.122
1.96 104.129 64.243
1.97 101.613 64.678
1.98 100.151 64.479
1.99 98.131 64.168
2.00 94.366 63.776
2.01 90.414 63.743
2.02 89.566 65.379
2.03 89.927 68.284
2.04 --undefined-- 69.998
2.05 --undefined-- 69.884
2.06 --undefined-- 69.164
2.07 --undefined-- 68.511
2.08 --undefined-- 67.033
2.09 --undefined-- 64.643
2.10 --undefined-- 61.987
2.11 --undefined-- 59.209
2.12 --undefined-- 56.787
2.13 --undefined-- 55.637
2.14 --undefined-- 55.040
2.15 --undefined-- 55.270
2.16 94.929 56.189
2.17 94.305 56.584
2.18 93.956 56.643
2.19 91.735 57.094
2.20 92.264 57.018
2.21 92.686 56.665
2.22 --undefined-- 57.352
2.23 --undefined-- 58.729
2.24 --undefined-- 60.332
2.25 --undefined-- 61.655
2.26 --undefined-- 62.653
2.27 --undefined-- 63.452
2.28 --undefined-- 64.017
2.29 --undefined-- 64.751
2.30 --undefined-- 65.208
2.31 --undefined-- 64.740
2.32 --undefined-- 62.271
2.33 --undefined-- 56.653
2.34 --undefined-- 47.760
2.35 --undefined-- 41.869
2.36 --undefined-- 41.181
2.37 --undefined-- 39.243
2.38 --undefined-- 36.033
2.39 --undefined-- 32.636
2.40 --undefined-- 26.638
2.41 --undefined-- 15.783
2.42 --undefined-- 0.883
2.43 --undefined-- -1.153
2.44 --undefined-- -1.664
2.45 --undefined-- -2.277
2.46 --undefined-- -2.090
2.47 --undefined-- -1.727
2.48 --undefined-- -1.885
2.49 --undefined-- -2.149
2.50 --undefined-- -1.952
2.51 --undefined-- -2.081
2.52 --undefined-- -2.779
2.53 --undefined-- -2.874
2.54 --undefined-- -2.293
2.55 --undefined-- -2.354
2.56 --undefined-- -2.850
2.57 --undefined-- -2.692
2.58 --undefined-- -2.319
2.59 --undefined-- -1.752
2.60 --undefined-- 13.206
2.61 --undefined-- 26.775
2.62 --undefined-- 34.243
2.63 --undefined-- 37.438
2.64 --undefined-- 37.867
2.65 --undefined-- 38.104
2.66 --undefined-- 39.754
2.67 --undefined-- 44.245
2.68 --undefined-- 53.051
2.69 --undefined-- 59.886
2.70 --undefined-- 64.048
2.71 --undefined-- 67.607
2.72 107.590 70.764
2.73 107.380 71.804
2.74 107.072 69.921
2.75 106.576 64.869
2.76 106.445 58.926
2.77 113.862 59.028
2.78 115.501 61.651
2.79 118.419 63.557
2.80 118.875 64.286
2.81 120.628 64.128
2.82 121.183 63.358
2.83 121.345 62.341
2.84 124.565 61.980
2.85 122.049 62.226
2.86 126.393 62.420
2.87 127.096 62.775
2.88 133.406 63.562
2.89 133.848 64.609
2.90 134.126 65.569
2.91 134.588 66.320
2.92 134.457 66.815
2.93 134.044 66.935
2.94 134.171 66.561
2.95 132.654 65.566
2.96 132.219 63.590
2.97 126.558 60.282
2.98 120.253 55.707
2.99 --undefined-- 50.317
3.00 --undefined-- 44.697
3.01 --undefined-- 39.980
3.02 --undefined-- 37.254
3.03 --undefined-- 36.649
3.04 --undefined-- 38.712
3.05 --undefined-- 44.397
3.06 --undefined-- 51.114
3.07 --undefined-- 56.685
3.08 --undefined-- 61.767
3.09 --undefined-- 67.247
3.10 --undefined-- 71.931
3.11 --undefined-- 74.733
3.12 --undefined-- 75.749
3.13 --undefined-- 75.439
3.14 --undefined-- 74.090
3.15 137.107 71.413
3.16 137.380 67.212
3.17 144.972 64.088
3.18 143.762 63.533
3.19 140.951 63.476
3.20 140.568 63.407
3.21 139.195 62.933
3.22 135.151 62.278
3.23 135.098 61.765
3.24 138.872 61.244
3.25 139.251 60.414
3.26 135.116 58.976
3.27 132.667 56.725
3.28 129.870 53.236
3.29 --undefined-- 48.185
3.30 --undefined-- 43.088
3.31 --undefined-- 40.905
3.32 --undefined-- 42.033
3.33 --undefined-- 41.834
3.34 --undefined-- 39.269
3.35 --undefined-- 36.692
3.36 --undefined-- 39.496
3.37 --undefined-- 53.635
3.38 --undefined-- 63.982
3.39 --undefined-- 70.647
3.40 --undefined-- 74.627
3.41 152.099 76.429
3.42 150.626 76.327
3.43 145.834 75.023
3.44 144.096 73.961
3.45 144.928 73.518
3.46 145.667 73.060
3.47 147.271 72.603
3.48 149.697 72.146
3.49 152.796 71.182
3.50 155.781 69.015
3.51 157.341 65.057
3.52 159.816 59.514
3.53 153.297 54.263
3.54 --undefined-- 49.666
3.55 --undefined-- 48.633
3.56 --undefined-- 59.167
3.57 --undefined-- 66.736
3.58 --undefined-- 71.899
3.59 --undefined-- 75.152
3.60 --undefined-- 76.019
3.61 114.300 74.951
3.62 114.251 73.166
3.63 114.861 71.405
3.64 114.287 70.274
3.65 114.266 70.001
3.66 115.010 69.846
3.67 115.736 69.163
3.68 117.347 67.855
3.69 113.595 65.582
3.70 --undefined-- 61.649
3.71 --undefined-- 55.619
3.72 --undefined-- 47.492
3.73 --undefined-- 41.906
3.74 --undefined-- 47.457
3.75 --undefined-- 57.264
3.76 --undefined-- 65.548
3.77 --undefined-- 71.218
3.78 --undefined-- 74.107
3.79 137.793 74.934
3.80 136.930 74.869
3.81 136.488 75.021
3.82 137.263 75.446
3.83 137.714 75.302
3.84 139.206 74.519
3.85 140.627 73.969
3.86 141.166 74.012
3.87 142.435 73.882
3.88 143.032 73.499
3.89 143.937 73.161
3.90 145.285 73.021
3.91 146.208 73.203
3.92 146.223 73.559
3.93 145.866 73.899
3.94 145.389 74.126
3.95 144.421 74.089
3.96 142.911 73.700
3.97 141.204 73.131
3.98 140.450 72.653
3.99 139.757 72.377
4.00 139.493 72.204
4.01 139.509 71.793
4.02 137.182 70.207
4.03 --undefined-- 66.473
4.04 --undefined-- 60.326
4.05 --undefined-- 51.326
4.06 --undefined-- 41.305
4.07 --undefined-- 38.349
4.08 --undefined-- 37.228
4.09 --undefined-- 36.371
4.10 --undefined-- 36.481
4.11 --undefined-- 36.329
4.12 --undefined-- 35.929
4.13 --undefined-- 36.063
4.14 --undefined-- 35.862
4.15 --undefined-- 35.611
4.16 --undefined-- 36.284
4.17 --undefined-- 37.265
4.18 --undefined-- 42.220
4.19 --undefined-- 49.048
4.20 --undefined-- 54.439
4.21 --undefined-- 59.832
4.22 --undefined-- 65.999
4.23 --undefined-- 70.961
4.24 148.957 73.787
4.25 147.270 74.625
4.26 143.881 74.079
4.27 141.266 72.690
4.28 136.291 70.954
4.29 131.286 69.378
4.30 128.861 67.429
4.31 --undefined-- 63.915
4.32 --undefined-- 58.818
4.33 --undefined-- 55.756
4.34 --undefined-- 56.532
4.35 --undefined-- 58.696
4.36 --undefined-- 62.444
4.37 --undefined-- 65.645
4.38 --undefined-- 67.765
4.39 --undefined-- 71.402
4.40 --undefined-- 74.658
4.41 --undefined-- 75.585
4.42 --undefined-- 74.598
4.43 --undefined-- 72.390
4.44 --undefined-- 68.754
4.45 --undefined-- 62.503
4.46 --undefined-- 53.066
4.47 --undefined-- 47.871
4.48 --undefined-- 48.132
4.49 --undefined-- 49.217
4.50 --undefined-- 50.452
4.51 130.443 52.069
4.52 128.748 54.790
4.53 127.547 60.068
4.54 127.261 66.120
4.55 124.568 70.187
4.56 120.680 71.498
4.57 117.164 70.032
4.58 115.620 66.681
4.59 120.097 63.347
4.60 138.730 61.549
4.61 137.369 61.008
4.62 138.263 59.884
4.63 132.318 58.488
4.64 --undefined-- 58.169
4.65 --undefined-- 57.020
4.66 --undefined-- 54.354
4.67 --undefined-- 52.730
4.68 --undefined-- 52.426
4.69 107.934 54.409
4.70 107.604 58.102
4.71 110.994 61.073
4.72 110.881 63.709
4.73 113.133 66.043
4.74 112.923 67.407
4.75 120.171 67.690
4.76 122.616 66.871
4.77 122.760 64.501
4.78 118.647 59.879
4.79 --undefined-- 52.885
4.80 --undefined-- 46.256
4.81 --undefined-- 42.083
4.82 --undefined-- 47.805
4.83 --undefined-- 59.189
4.84 --undefined-- 66.566
4.85 --undefined-- 71.743
4.86 --undefined-- 74.824
4.87 --undefined-- 75.470
4.88 --undefined-- 74.052
4.89 105.032 71.828
4.90 104.609 70.322
4.91 104.626 69.913
4.92 101.220 69.863
4.93 99.946 69.695
4.94 99.042 69.365
4.95 98.689 69.026
4.96 100.064 68.703
4.97 104.140 68.190
4.98 106.372 67.341
4.99 106.796 65.810
5.00 111.871 64.414
5.01 113.294 65.389
5.02 117.151 69.309
5.03 128.097 72.440
5.04 122.226 73.635
5.05 123.411 73.832
5.06 124.474 73.780
5.07 124.733 73.626
5.08 125.131 73.475
5.09 126.292 73.242
5.10 126.747 72.648
5.11 126.686 70.985
5.12 126.264 67.275
5.13 --undefined-- 60.799
5.14 --undefined-- 52.584
5.15 --undefined-- 57.897
5.16 --undefined-- 62.680
5.17 --undefined-- 64.726
5.18 --undefined-- 67.168
5.19 131.364 69.682
5.20 128.755 71.013
5.21 128.700 71.618
5.22 120.400 71.999
5.23 119.848 71.826
5.24 118.195 71.328
5.25 118.899 71.237
5.26 120.366 71.671
5.27 120.816 72.333
5.28 121.326 72.932
5.29 121.459 73.402
5.30 120.886 73.414
5.31 120.148 72.479
5.32 119.930 70.340
5.33 --undefined-- 66.536
5.34 --undefined-- 60.451
5.35 --undefined-- 51.340
5.36 --undefined-- 42.455
5.37 --undefined-- 38.425
5.38 --undefined-- 36.619
5.39 --undefined-- 37.918
5.40 --undefined-- 50.569
5.41 --undefined-- 61.903
5.42 --undefined-- 68.500
5.43 --undefined-- 71.635
5.44 --undefined-- 72.373
5.45 122.746 71.995
5.46 122.284 71.216
5.47 123.808 70.456
5.48 125.358 70.174
5.49 126.107 70.363
5.50 127.100 70.669
5.51 128.131 70.555
5.52 127.717 69.662
5.53 127.328 67.822
5.54 126.734 64.738
5.55 124.048 59.908
5.56 --undefined-- 52.613
5.57 --undefined-- 44.567
5.58 --undefined-- 41.413
5.59 --undefined-- 40.716
5.60 --undefined-- 41.397
5.61 --undefined-- 52.928
5.62 --undefined-- 62.160
5.63 --undefined-- 66.452
5.64 --undefined-- 67.175
5.65 --undefined-- 67.022
5.66 --undefined-- 67.594
5.67 --undefined-- 67.056
5.68 --undefined-- 65.684
5.69 --undefined-- 66.338
5.70 131.272 69.528
5.71 132.595 72.028
5.72 132.856 72.885
5.73 132.601 72.419
5.74 131.507 71.720
5.75 130.820 71.387
5.76 130.338 70.679
5.77 129.552 69.233
5.78 128.623 67.226
5.79 127.885 64.371
5.80 125.098 60.348
5.81 130.456 57.017
5.82 126.036 56.837
5.83 124.778 61.740
5.84 --undefined-- 67.853
5.85 --undefined-- 71.479
5.86 --undefined-- 72.564
5.87 --undefined-- 71.784
5.88 --undefined-- 69.919
5.89 --undefined-- 67.861
5.90 --undefined-- --undefined--
5.91 --undefined-- --undefined--
5.92 --undefined-- --undefined--
5.93 --undefined-- --undefined--
