Time Pitch Intensity
0.01 --undefined-- --undefined--
0.02 255.301 --undefined--
0.03 259.625 --undefined--
0.04 261.323 --undefined--
0.05 259.156 63.913
0.06 253.635 64.952
0.07 245.492 65.527
0.08 227.756 65.010
0.09 220.339 62.934
0.10 228.008 59.828
0.11 103.846 58.465
0.12 101.658 59.193
0.13 99.043 60.302
0.14 187.991 61.755
0.15 181.443 63.122
0.16 173.264 63.931
0.17 170.480 64.651
0.18 170.312 65.032
0.19 172.213 64.708
0.20 172.918 63.968
0.21 173.048 63.263
0.22 173.133 62.878
0.23 172.523 62.596
0.24 170.854 62.034
0.25 167.903 61.264
0.26 170.670 60.703
0.27 170.743 60.267
0.28 169.944 59.784
0.29 169.640 59.337
0.30 171.468 59.147
0.31 173.061 58.848
0.32 167.121 57.367
0.33 155.262 54.534
0.34 --undefined-- 51.208
0.35 --undefined-- 49.048
0.36 --undefined-- 48.175
0.37 --undefined-- 48.756
0.38 --undefined-- 51.010
0.39 --undefined-- 53.134
0.40 --undefined-- 55.135
0.41 166.808 58.024
0.42 161.106 61.099
0.43 155.720 63.102
0.44 152.434 64.012
0.45 151.088 64.606
0.46 151.730 65.303
0.47 153.094 65.886
0.48 154.092 66.150
0.49 155.596 66.191
0.50 157.981 66.083
0.51 159.689 65.579
0.52 164.604 64.683
0.53 172.637 64.178
0.54 176.963 64.652
0.55 180.735 65.276
0.56 184.892 65.282
0.57 192.125 64.500
0.58 193.867 62.756
0.59 195.038 59.938
0.60 198.881 57.005
0.61 199.824 54.920
0.62 199.617 53.466
0.63 --undefined-- 54.379
0.64 --undefined-- 56.653
0.65 --undefined-- 59.442
0.66 --undefined-- 62.793
0.67 197.585 65.099
0.68 189.386 66.306
0.69 184.050 66.659
0.70 175.725 66.342
0.71 173.667 65.865
0.72 175.958 65.560
0.73 177.904 65.494
0.74 180.923 65.577
0.75 185.935 65.825
0.76 190.426 66.251
0.77 193.208 66.147
0.78 193.626 64.492
0.79 186.159 61.185
0.80 184.707 57.301
0.81 --undefined-- 52.440
0.82 --undefined-- 49.112
0.83 --undefined-- 54.404
0.84 --undefined-- 60.376
0.85 --undefined-- 64.414
0.86 201.220 66.434
0.87 188.552 67.359
0.88 181.977 67.724
0.89 177.722 67.825
0.90 175.292 68.046
0.91 174.505 68.036
0.92 175.177 67.758
0.93 174.843 67.352
0.94 175.274 66.699
0.95 176.287 66.126
0.96 177.097 65.751
0.97 178.135 65.209
0.98 179.031 64.279
0.99 180.231 62.771
1.00 179.887 60.437
1.01 176.179 58.136
1.02 171.691 57.511
1.03 170.357 57.982
1.04 --undefined-- 57.755
1.05 --undefined-- 55.774
1.06 --undefined-- 52.488
1.07 --undefined-- 51.700
1.08 --undefined-- 55.712
1.09 --undefined-- 59.198
1.10 --undefined-- 61.466
1.11 200.090 63.925
1.12 196.798 66.854
1.13 195.526 69.042
1.14 194.800 69.979
1.15 194.361 70.021
1.16 194.292 70.001
1.17 194.699 70.555
1.18 195.330 71.264
1.19 193.840 71.792
1.20 193.064 72.346
1.21 192.841 72.506
1.22 192.331 72.056
1.23 191.841 71.254
1.24 193.213 70.101
1.25 193.435 68.531
1.26 192.661 67.130
1.27 193.179 66.414
1.28 192.237 65.934
1.29 192.013 65.257
1.30 190.750 64.197
1.31 188.693 62.755
1.32 188.275 60.971
1.33 189.566 58.393
1.34 --undefined-- 54.739
1.35 --undefined-- 50.846
1.36 --undefined-- 47.268
1.37 --undefined-- 51.362
1.38 --undefined-- 57.094
1.39 --undefined-- 59.723
1.40 --undefined-- 59.770
1.41 --undefined-- 58.071
1.42 --undefined-- 56.044
1.43 --undefined-- 54.631
1.44 --undefined-- 52.770
1.45 293.699 53.132
1.46 --undefined-- 55.083
1.47 --undefined-- 55.850
1.48 --undefined-- 56.288
1.49 --undefined-- 57.517
1.50 --undefined-- 58.363
1.51 --undefined-- 57.475
1.52 --undefined-- 54.775
1.53 --undefined-- 50.710
1.54 --undefined-- 47.978
1.55 --undefined-- 48.361
1.56 --undefined-- 48.923
1.57 --undefined-- 50.422
1.58 --undefined-- 53.179
1.59 --undefined-- 54.301
1.60 --undefined-- 53.946
1.61 --undefined-- 53.458
1.62 --undefined-- 53.500
1.63 --undefined-- 53.752
1.64 --undefined-- 53.248
1.65 --undefined-- 52.008
1.66 --undefined-- 50.160
1.67 --undefined-- 48.113
1.68 --undefined-- 47.674
1.69 --undefined-- 49.306
1.70 --undefined-- 50.725
1.71 --undefined-- 52.888
1.72 --undefined-- 55.621
1.73 --undefined-- 56.958
1.74 --undefined-- 56.188
1.75 --undefined-- 53.632
1.76 --undefined-- 55.079
1.77 260.063 62.787
1.78 252.756 68.411
1.79 235.730 71.604
1.80 229.201 73.151
1.81 226.682 73.907
1.82 225.963 74.544
1.83 226.827 75.119
1.84 229.223 75.122
1.85 238.573 74.107
1.86 245.228 72.229
1.87 250.117 70.612
1.88 254.344 70.122
1.89 256.470 69.895
1.90 256.296 68.679
1.91 237.369 65.804
1.92 221.794 61.481
1.93 222.161 57.107
1.94 --undefined-- 55.069
1.95 --undefined-- 55.963
1.96 --undefined-- 58.361
1.97 --undefined-- 62.845
1.98 175.607 67.366
1.99 179.556 69.920
2.00 187.262 71.099
2.01 191.006 71.601
2.02 193.646 71.207
2.03 197.019 69.969
2.04 197.630 68.280
2.05 198.388 66.513
2.06 200.557 65.128
2.07 202.095 64.008
2.08 199.529 62.945
2.09 190.628 61.927
2.10 183.259 60.650
2.11 178.124 58.847
2.12 171.005 57.524
2.13 169.401 58.414
2.14 167.006 60.226
2.15 162.330 61.873
2.16 158.329 63.429
2.17 153.150 64.827
2.18 292.272 65.933
2.19 278.959 66.725
2.20 258.136 67.415
2.21 248.108 68.091
2.22 243.202 68.333
2.23 244.188 68.051
2.24 251.137 67.557
2.25 258.948 67.321
2.26 267.923 67.431
2.27 277.266 67.613
2.28 288.193 67.653
2.29 291.256 67.242
2.30 284.877 66.252
2.31 281.158 65.480
2.32 279.800 65.272
2.33 277.821 65.126
2.34 276.075 65.221
2.35 279.182 65.693
2.36 279.176 65.983
2.37 275.509 65.807
2.38 266.767 65.302
2.39 258.715 64.630
2.40 243.528 64.103
2.41 234.227 64.395
2.42 228.534 65.662
2.43 212.393 66.588
2.44 209.700 66.669
2.45 207.526 66.564
2.46 206.227 66.790
2.47 206.323 67.220
2.48 208.431 67.418
2.49 209.600 67.123
2.50 212.202 66.373
2.51 214.740 65.427
2.52 216.006 64.680
2.53 215.469 64.234
2.54 213.132 63.612
2.55 208.082 62.355
2.56 203.175 60.645
2.57 193.152 59.574
2.58 187.678 59.780
2.59 186.405 60.330
2.60 185.907 61.307
2.61 186.079 63.193
2.62 185.233 65.275
2.63 182.274 66.747
2.64 175.738 67.112
2.65 171.679 66.357
2.66 168.263 65.213
2.67 167.221 64.379
2.68 167.079 63.614
2.69 168.001 63.270
2.70 167.404 63.380
2.71 166.118 63.100
2.72 166.465 62.427
2.73 166.709 61.924
2.74 166.171 61.794
2.75 165.759 61.865
2.76 164.723 61.993
2.77 162.398 61.982
2.78 161.688 61.704
2.79 164.418 61.000
2.80 164.194 60.262
2.81 164.765 60.378
2.82 165.497 60.926
2.83 165.693 60.971
2.84 165.200 60.627
2.85 164.184 60.460
2.86 162.859 60.165
2.87 161.703 59.579
2.88 163.647 59.596
2.89 161.506 60.384
2.90 160.859 60.848
2.91 160.929 60.840
2.92 161.374 60.872
2.93 163.305 61.104
2.94 164.056 61.276
2.95 164.685 61.265
2.96 164.460 61.027
2.97 164.682 60.772
2.98 163.071 60.513
2.99 160.453 60.081
3.00 160.556 59.739
3.01 162.191 59.460
3.02 162.162 59.264
3.03 163.347 59.362
3.04 164.405 59.554
3.05 164.673 59.212
3.06 164.750 57.795
3.07 162.704 55.871
3.08 202.624 57.330
3.09 198.997 61.564
3.10 198.181 64.781
3.11 197.425 66.518
3.12 198.145 67.388
3.13 199.946 67.945
3.14 201.714 68.253
3.15 202.581 68.340
3.16 202.664 68.321
3.17 203.508 68.283
3.18 203.901 68.157
3.19 203.995 67.750
3.20 204.157 67.079
3.21 203.781 66.228
3.22 203.444 65.009
3.23 202.999 62.936
3.24 203.523 59.711
3.25 205.191 56.638
3.26 --undefined-- 55.642
3.27 --undefined-- 54.190
3.28 --undefined-- 50.386
3.29 --undefined-- 45.989
3.30 --undefined-- 44.466
3.31 --undefined-- 45.650
3.32 --undefined-- 49.432
3.33 --undefined-- 52.138
3.34 --undefined-- 51.889
3.35 --undefined-- 49.196
3.36 --undefined-- 52.423
3.37 281.049 59.382
3.38 269.793 63.643
3.39 263.821 65.475
3.40 262.132 65.906
3.41 263.733 65.911
3.42 266.155 66.108
3.43 269.198 66.563
3.44 272.114 66.978
3.45 272.960 67.114
3.46 272.983 67.104
3.47 273.177 67.335
3.48 272.945 67.821
3.49 273.052 67.968
3.50 274.145 67.532
3.51 274.692 67.196
3.52 275.272 67.528
3.53 276.109 67.909
3.54 276.225 67.986
3.55 276.281 67.979
3.56 276.039 67.863
3.57 274.366 67.489
3.58 272.408 66.772
3.59 270.985 65.311
3.60 266.799 62.408
3.61 255.143 58.343
3.62 --undefined-- 57.234
3.63 289.578 59.947
3.64 287.064 63.694
3.65 279.176 66.102
3.66 276.046 66.839
3.67 275.637 66.996
3.68 275.157 67.364
3.69 275.040 67.822
3.70 274.448 68.002
3.71 274.163 67.814
3.72 273.754 67.545
3.73 274.051 67.387
3.74 273.722 67.158
3.75 273.267 66.742
3.76 272.489 66.315
3.77 273.311 65.984
3.78 275.089 65.739
3.79 277.193 65.699
3.80 277.794 65.399
3.81 275.019 63.886
3.82 272.362 60.618
3.83 282.988 55.739
3.84 --undefined-- 50.661
3.85 --undefined-- 52.095
3.86 --undefined-- 55.544
3.87 --undefined-- 57.064
3.88 --undefined-- 57.844
3.89 --undefined-- 57.921
3.90 --undefined-- 56.942
3.91 --undefined-- 55.501
3.92 --undefined-- 55.278
3.93 --undefined-- 60.088
3.94 --undefined-- 65.258
3.95 296.703 67.936
3.96 292.103 68.469
3.97 287.702 67.747
3.98 282.628 66.589
3.99 277.890 65.585
4.00 273.851 65.437
4.01 275.764 66.014
4.02 275.512 66.419
4.03 275.435 66.239
4.04 274.291 64.906
4.05 272.235 61.437
4.06 284.638 56.146
4.07 288.856 56.149
4.08 286.230 59.753
4.09 269.859 62.766
4.10 265.179 64.249
4.11 260.611 64.609
4.12 249.533 64.381
4.13 230.374 63.690
4.14 209.184 62.836
4.15 195.055 62.053
4.16 182.060 61.359
4.17 174.534 60.899
4.18 168.690 60.137
4.19 164.877 58.997
4.20 161.781 58.392
4.21 161.269 58.882
4.22 160.143 60.137
4.23 157.808 61.226
4.24 156.711 61.864
4.25 157.046 62.360
4.26 157.226 62.716
4.27 157.783 62.790
4.28 158.481 62.737
4.29 159.492 62.691
4.30 159.806 62.571
4.31 159.663 62.247
4.32 159.202 61.803
4.33 158.714 61.471
4.34 159.012 61.138
4.35 159.006 60.593
4.36 158.051 60.119
4.37 155.807 59.927
4.38 159.594 60.035
4.39 158.948 60.537
4.40 157.781 61.438
4.41 155.533 62.234
4.42 155.262 62.531
4.43 155.712 62.755
4.44 151.253 63.254
4.45 151.081 63.410
4.46 150.073 62.668
4.47 149.228 61.430
4.48 152.588 61.002
4.49 157.610 61.970
4.50 160.208 63.596
4.51 161.925 65.418
4.52 165.128 67.019
4.53 168.588 68.193
4.54 173.071 69.336
4.55 178.570 70.200
4.56 183.316 69.973
4.57 191.580 68.936
4.58 194.432 68.041
4.59 196.423 67.370
4.60 197.330 67.191
4.61 197.542 68.022
4.62 196.542 69.191
4.63 191.453 69.882
4.64 186.187 69.694
4.65 179.621 68.365
4.66 169.480 66.088
4.67 156.152 63.580
4.68 150.742 62.016
4.69 149.305 62.426
4.70 150.036 63.798
4.71 150.512 64.508
4.72 151.288 64.183
4.73 152.062 63.297
4.74 153.129 62.478
4.75 153.859 62.074
4.76 154.182 61.894
4.77 154.844 61.769
4.78 158.592 61.579
4.79 160.836 60.998
4.80 162.170 59.904
4.81 166.750 57.974
4.82 178.625 54.808
4.83 171.035 51.431
4.84 --undefined-- 50.888
4.85 --undefined-- 53.989
4.86 --undefined-- 57.942
4.87 --undefined-- 60.168
4.88 --undefined-- 60.314
4.89 --undefined-- 58.992
4.90 --undefined-- 56.845
4.91 --undefined-- 56.927
4.92 243.564 62.102
4.93 247.990 66.303
4.94 252.505 68.523
4.95 258.230 69.770
4.96 258.957 --undefined--
4.97 257.201 --undefined--
4.98 --undefined-- --undefined--
4.99 --undefined-- --undefined--
