Time Pitch Intensity
0.01 --undefined-- --undefined--
0.02 --undefined-- --undefined--
0.03 --undefined-- --undefined--
0.04 --undefined-- --undefined--
0.05 --undefined-- 70.344
0.06 212.054 72.097
0.07 218.463 72.134
0.08 232.021 71.502
0.09 239.445 70.987
0.10 242.453 70.249
0.11 242.080 69.513
0.12 238.164 69.352
0.13 231.278 69.309
0.14 224.695 68.643
0.15 218.418 66.840
0.16 200.331 64.288
0.17 183.178 61.808
0.18 --undefined-- 58.402
0.19 --undefined-- 55.610
0.20 --undefined-- 59.238
0.21 --undefined-- 64.475
0.22 271.584 68.234
0.23 257.642 70.829
0.24 253.114 72.309
0.25 253.525 72.605
0.26 258.142 72.043
0.27 265.606 70.765
0.28 287.387 69.412
0.29 152.254 69.067
0.30 168.854 69.155
0.31 178.793 69.228
0.32 186.802 69.504
0.33 189.893 69.663
0.34 192.337 69.215
0.35 188.494 68.145
0.36 183.587 65.701
0.37 --undefined-- 60.793
0.38 --undefined-- 54.067
0.39 --undefined-- 52.041
0.40 --undefined-- 53.127
0.41 --undefined-- 52.949
0.42 --undefined-- 54.691
0.43 --undefined-- 61.382
0.44 237.494 65.885
0.45 232.797 67.461
0.46 222.862 67.263
0.47 217.527 66.925
0.48 216.407 67.370
0.49 216.305 67.826
0.50 217.060 67.739
0.51 225.288 67.354
0.52 228.485 66.899
0.53 223.449 66.431
0.54 222.983 66.103
0.55 223.701 65.919
0.56 223.714 65.778
0.57 224.148 65.693
0.58 224.226 65.533
0.59 222.094 65.499
0.60 223.042 65.737
0.61 220.460 65.846
0.62 218.452 65.763
0.63 217.925 65.586
0.64 218.816 65.478
0.65 219.122 65.614
0.66 218.994 65.788
0.67 219.667 65.815
0.68 220.245 65.993
0.69 214.892 66.338
0.70 211.991 66.639
0.71 209.776 66.933
0.72 208.251 66.935
0.73 208.437 66.557
0.74 208.606 66.009
0.75 208.904 65.487
0.76 209.580 65.244
0.77 210.744 65.337
0.78 212.091 65.517
0.79 213.495 65.588
0.80 213.998 65.651
0.81 214.871 65.555
0.82 214.928 65.147
0.83 211.545 64.595
0.84 207.377 64.056
0.85 203.468 63.682
0.86 198.063 63.861
0.87 192.397 64.668
0.88 187.343 65.660
0.89 181.257 66.516
0.90 177.140 67.137
0.91 172.948 67.419
0.92 169.962 67.323
0.93 169.884 67.071
0.94 171.640 66.728
0.95 173.452 66.347
0.96 174.820 65.991
0.97 175.326 65.234
0.98 177.376 64.762
0.99 184.321 65.264
1.00 185.728 65.352
1.01 186.971 64.112
1.02 186.491 61.386
1.03 --undefined-- 58.120
1.04 --undefined-- 56.578
1.05 --undefined-- 56.712
1.06 --undefined-- 55.543
1.07 --undefined-- 53.217
1.08 --undefined-- 55.847
1.09 253.114 61.073
1.10 231.725 63.957
1.11 222.392 64.907
1.12 218.076 65.030
1.13 215.656 64.926
1.14 214.073 64.140
1.15 211.084 61.641
1.16 --undefined-- 57.108
1.17 --undefined-- 52.606
1.18 --undefined-- 51.066
1.19 --undefined-- 50.393
1.20 --undefined-- 50.685
1.21 --undefined-- 52.424
1.22 --undefined-- 54.753
1.23 --undefined-- 59.927
1.24 190.737 65.160
1.25 189.536 68.061
1.26 185.410 69.026
1.27 185.105 69.044
1.28 191.316 68.858
1.29 202.214 68.464
1.30 220.740 67.928
1.31 238.273 67.600
1.32 255.201 67.293
1.33 266.941 66.971
1.34 267.312 66.562
1.35 279.054 67.552
1.36 296.996 69.775
1.37 152.750 70.916
1.38 151.508 70.753
1.39 284.858 70.421
1.40 266.800 70.059
1.41 251.356 68.278
1.42 --undefined-- 64.516
1.43 274.506 59.517
1.44 272.307 55.296
1.45 --undefined-- 54.380
1.46 --undefined-- 55.052
1.47 --undefined-- 54.934
1.48 --undefined-- 53.139
1.49 --undefined-- 51.495
1.50 --undefined-- 50.094
1.51 --undefined-- 49.703
1.52 --undefined-- 52.104
1.53 --undefined-- 54.474
1.54 --undefined-- 54.964
1.55 293.495 54.940
1.56 292.200 55.639
1.57 291.034 55.111
1.58 --undefined-- 54.267
1.59 --undefined-- 54.787
1.60 264.895 58.212
1.61 253.269 62.540
1.62 238.797 65.153
1.63 237.017 66.273
1.64 230.896 66.572
1.65 227.856 65.958
1.66 225.214 63.806
1.67 215.518 60.040
1.68 199.673 56.293
1.69 200.439 54.076
1.70 --undefined-- 53.012
1.71 --undefined-- 51.555
1.72 --undefined-- 50.908
1.73 --undefined-- 51.840
1.74 --undefined-- 51.601
1.75 247.548 54.120
1.76 245.603 59.087
1.77 --undefined-- 63.121
1.78 180.434 65.882
1.79 181.718 67.652
1.80 180.326 68.563
1.81 181.321 68.928
1.82 183.383 69.083
1.83 187.059 69.078
1.84 191.074 68.784
1.85 195.773 68.053
1.86 202.989 67.076
1.87 214.886 66.997
1.88 220.609 67.871
1.89 227.307 68.193
1.90 234.403 67.399
1.91 236.379 65.436
1.92 231.039 62.749
1.93 225.291 60.436
1.94 216.744 59.529
1.95 209.413 59.453
1.96 204.572 59.015
1.97 199.190 58.677
1.98 193.409 59.594
1.99 190.826 62.062
2.00 190.585 64.773
2.01 186.158 66.815
2.02 181.666 68.343
2.03 175.577 69.765
2.04 170.275 71.019
2.05 167.520 71.689
2.06 166.402 72.039
2.07 167.301 72.282
2.08 170.200 72.169
2.09 175.561 71.610
2.10 181.144 70.902
2.11 186.420 70.603
2.12 191.271 70.693
2.13 194.512 71.031
2.14 196.176 71.191
2.15 196.621 71.084
2.16 194.180 71.352
2.17 189.793 71.802
2.18 184.287 71.907
2.19 --undefined-- 71.954
2.20 --undefined-- 71.913
2.21 --undefined-- 71.055
2.22 --undefined-- 68.501
2.23 --undefined-- 63.776
2.24 --undefined-- 57.905
2.25 --undefined-- 53.325
2.26 --undefined-- 51.462
2.27 --undefined-- 51.712
2.28 --undefined-- 50.511
2.29 --undefined-- 49.127
2.30 --undefined-- 49.782
2.31 --undefined-- 50.127
2.32 --undefined-- 50.354
2.33 --undefined-- 50.041
2.34 --undefined-- 49.164
2.35 --undefined-- 49.481
2.36 --undefined-- 50.758
2.37 --undefined-- 51.288
2.38 --undefined-- 50.875
2.39 --undefined-- 50.824
2.40 --undefined-- 52.468
2.41 --undefined-- 53.012
2.42 --undefined-- 51.561
2.43 --undefined-- 49.381
2.44 --undefined-- 47.649
2.45 --undefined-- 48.154
2.46 --undefined-- 49.948
2.47 --undefined-- 50.745
2.48 --undefined-- 49.825
2.49 --undefined-- 48.347
2.50 --undefined-- 47.048
2.51 --undefined-- 48.003
2.52 --undefined-- 53.768
2.53 244.966 59.044
2.54 227.319 62.277
2.55 218.702 64.425
2.56 217.974 66.624
2.57 227.104 69.622
2.58 234.109 72.241
2.59 239.279 73.247
2.60 249.125 72.726
2.61 257.027 71.743
2.62 262.657 71.378
2.63 268.463 71.489
2.64 274.594 71.734
2.65 280.422 72.089
2.66 284.375 72.256
2.67 284.516 71.795
2.68 281.205 70.926
2.69 278.189 70.752
2.70 280.951 71.153
2.71 290.312 71.303
2.72 293.871 70.746
2.73 288.333 69.088
2.74 280.376 66.694
2.75 278.939 64.864
2.76 278.459 64.153
2.77 275.678 63.870
2.78 269.994 63.765
2.79 273.289 63.794
2.80 280.316 63.803
2.81 295.883 65.134
2.82 162.092 67.317
2.83 162.318 68.342
2.84 158.466 69.019
2.85 158.204 69.913
2.86 157.053 69.807
2.87 154.645 68.440
2.88 150.556 66.009
2.89 284.918 62.353
2.90 244.273 57.337
2.91 --undefined-- 52.595
2.92 --undefined-- 52.120
2.93 --undefined-- 52.987
2.94 --undefined-- 52.136
2.95 --undefined-- 49.706
2.96 --undefined-- 48.287
2.97 --undefined-- 50.007
2.98 --undefined-- 50.954
2.99 --undefined-- 52.401
3.00 --undefined-- 60.277
3.01 --undefined-- 66.221
3.02 159.312 69.590
3.03 158.979 71.946
3.04 158.508 73.745
3.05 157.187 74.393
3.06 156.284 73.824
3.07 157.187 72.515
3.08 157.617 70.621
3.09 156.254 67.765
3.10 153.108 63.475
3.11 --undefined-- 57.943
3.12 --undefined-- 54.232
3.13 --undefined-- 52.482
3.14 --undefined-- 52.278
3.15 --undefined-- 55.573
3.16 --undefined-- 57.243
3.17 --undefined-- 55.676
3.18 --undefined-- 52.603
3.19 --undefined-- 51.189
3.20 --undefined-- 49.631
3.21 --undefined-- 49.854
3.22 --undefined-- 50.304
3.23 --undefined-- 50.302
3.24 --undefined-- 52.332
3.25 --undefined-- 53.702
3.26 --undefined-- 53.881
3.27 --undefined-- 55.395
3.28 --undefined-- 60.398
3.29 159.646 65.139
3.30 156.229 67.811
3.31 154.198 68.791
3.32 152.382 68.834
3.33 151.764 68.811
3.34 151.757 68.889
3.35 151.768 68.745
3.36 152.017 68.378
3.37 152.918 68.063
3.38 153.100 68.093
3.39 153.273 68.222
3.40 153.674 68.157
3.41 154.267 67.976
3.42 154.746 67.875
3.43 154.646 67.930
3.44 154.482 68.090
3.45 154.884 68.214
3.46 156.705 68.320
3.47 159.192 68.373
3.48 160.218 67.981
3.49 159.757 66.666
3.50 158.718 63.874
3.51 --undefined-- 59.350
3.52 --undefined-- 55.626
3.53 --undefined-- 55.794
3.54 --undefined-- 55.589
3.55 --undefined-- 53.114
3.56 --undefined-- 49.572
3.57 --undefined-- 48.627
3.58 --undefined-- 48.734
3.59 --undefined-- 51.370
3.60 --undefined-- 58.804
3.61 178.739 64.883
3.62 180.418 68.388
3.63 180.131 70.343
3.64 180.961 71.709
3.65 181.527 72.518
3.66 182.722 72.631
3.67 184.541 72.075
3.68 186.300 71.109
3.69 187.615 70.308
3.70 188.027 69.868
3.71 186.906 69.270
3.72 182.928 68.234
3.73 188.186 68.139
3.74 183.224 69.543
3.75 170.955 70.551
3.76 155.286 70.453
3.77 288.439 68.953
3.78 249.810 66.182
3.79 --undefined-- 64.314
3.80 --undefined-- 63.444
3.81 --undefined-- 62.071
3.82 --undefined-- 60.228
3.83 --undefined-- 57.766
3.84 89.833 56.056
3.85 88.507 55.109
3.86 --undefined-- 54.949
3.87 --undefined-- 55.366
3.88 --undefined-- 55.603
3.89 --undefined-- 54.511
3.90 --undefined-- 50.899
3.91 --undefined-- 46.599
3.92 --undefined-- 46.829
3.93 --undefined-- 51.665
3.94 --undefined-- 55.948
3.95 --undefined-- 57.580
3.96 --undefined-- 57.213
3.97 --undefined-- 58.165
3.98 --undefined-- 61.391
3.99 182.745 63.631
4.00 177.898 64.483
4.01 175.502 64.556
4.02 175.292 64.827
4.03 175.414 65.625
4.04 175.076 66.196
4.05 175.938 66.264
4.06 179.119 66.287
4.07 183.032 66.662
4.08 186.430 66.915
4.09 191.283 66.699
4.10 196.008 65.825
4.11 201.964 63.880
4.12 205.503 61.076
4.13 197.110 58.143
4.14 194.905 54.558
4.15 196.596 51.480
4.16 --undefined-- 50.661
4.17 --undefined-- 53.374
4.18 --undefined-- 60.854
4.19 298.480 66.063
4.20 292.137 68.301
4.21 291.157 68.692
4.22 291.809 68.431
4.23 291.449 67.974
4.24 290.936 67.567
4.25 292.149 67.367
4.26 291.328 67.184
4.27 293.061 67.266
4.28 296.969 67.833
4.29 297.632 68.408
4.30 295.320 68.869
4.31 291.415 69.322
4.32 289.827 69.982
4.33 286.467 71.110
4.34 285.421 72.245
4.35 286.050 72.603
4.36 287.527 71.927
4.37 290.473 70.623
4.38 293.601 69.300
4.39 293.965 68.057
4.40 292.894 66.633
4.41 289.728 64.912
4.42 285.461 63.161
4.43 278.404 61.549
4.44 269.005 60.162
4.45 242.172 58.981
4.46 239.694 58.308
4.47 236.183 58.487
4.48 215.322 58.903
4.49 217.053 59.489
4.50 224.253 60.632
4.51 235.862 62.023
4.52 232.259 63.303
4.53 208.274 64.708
4.54 194.341 66.007
4.55 192.269 66.824
4.56 192.296 67.201
4.57 193.127 67.282
4.58 197.365 67.116
4.59 200.731 66.792
4.60 205.747 66.800
4.61 212.494 67.071
4.62 218.351 66.938
4.63 227.207 65.998
4.64 232.208 64.649
4.65 233.906 63.842
4.66 233.450 63.091
4.67 229.901 61.792
4.68 219.633 60.291
4.69 213.628 59.615
4.70 207.526 59.339
4.71 204.912 59.060
4.72 201.891 59.882
4.73 198.629 61.036
4.74 196.509 62.350
4.75 195.085 64.296
4.76 190.901 66.805
4.77 189.406 69.663
4.78 194.410 72.179
4.79 193.372 73.383
4.80 185.000 73.003
4.81 184.487 71.387
4.82 182.208 68.921
4.83 172.808 65.965
4.84 175.901 63.684
4.85 168.548 62.239
4.86 168.886 62.503
4.87 178.877 64.374
4.88 177.776 65.605
4.89 173.711 65.414
4.90 168.256 64.392
4.91 165.290 63.151
4.92 160.805 62.052
4.93 160.496 61.325
4.94 160.611 60.650
4.95 158.490 59.770
4.96 159.131 --undefined--
4.97 160.902 --undefined--
4.98 --undefined-- --undefined--
4.99 --undefined-- --undefined--
