Time Pitch Intensity
0.01 --undefined-- --undefined--
0.02 --undefined-- --undefined--
0.03 --undefined-- --undefined--
0.04 --undefined-- --undefined--
0.05 --undefined-- 56.523
0.06 --undefined-- 59.478
0.07 --undefined-- 61.924
0.08 187.927 64.606
0.09 186.631 66.846
0.10 186.097 67.581
0.11 185.716 66.345
0.12 184.671 63.199
0.13 168.271 58.767
0.14 167.963 54.811
0.15 --undefined-- 51.635
0.16 --undefined-- 47.782
0.17 --undefined-- 45.611
0.18 --undefined-- 47.264
0.19 --undefined-- 48.148
0.20 --undefined-- 48.904
0.21 --undefined-- 51.696
0.22 --undefined-- 56.601
0.23 --undefined-- 63.678
0.24 239.542 68.934
0.25 241.658 71.724
0.26 238.778 73.141
0.27 237.065 73.903
0.28 237.787 74.104
0.29 244.636 73.734
0.30 257.464 73.032
0.31 263.618 72.304
0.32 265.789 71.435
0.33 263.263 70.612
0.34 263.667 70.064
0.35 266.352 69.492
0.36 267.760 69.095
0.37 265.255 69.087
0.38 262.015 68.726
0.39 255.688 67.830
0.40 247.198 67.183
0.41 235.472 67.103
0.42 229.245 67.894
0.43 225.031 69.359
0.44 211.412 71.218
0.45 203.353 72.857
0.46 --undefined-- 73.446
0.47 --undefined-- 73.497
0.48 162.584 73.419
0.49 160.361 72.786
0.50 159.823 72.133
0.51 161.028 71.738
0.52 163.803 71.228
0.53 168.382 70.571
0.54 170.783 70.041
0.55 176.497 69.642
0.56 180.200 69.696
0.57 177.042 70.144
0.58 177.006 70.505
0.59 176.304 70.756
0.60 164.841 70.679
0.61 --undefined-- 69.941
0.62 --undefined-- 68.660
0.63 --undefined-- 66.817
0.64 --undefined-- 64.761
0.65 --undefined-- 62.080
0.66 --undefined-- 58.385
0.67 159.825 56.224
0.68 161.016 57.555
0.69 169.386 59.597
0.70 169.799 60.728
0.71 173.331 61.281
0.72 181.123 62.504
0.73 186.542 63.671
0.74 192.456 64.725
0.75 199.078 66.672
0.76 200.925 68.504
0.77 202.740 69.460
0.78 205.502 69.458
0.79 208.865 68.293
0.80 213.951 65.760
0.81 215.730 61.967
0.82 218.099 57.912
0.83 217.473 54.659
0.84 --undefined-- 51.321
0.85 --undefined-- 47.789
0.86 --undefined-- 47.825
0.87 --undefined-- 52.970
0.88 --undefined-- 59.595
0.89 198.473 64.586
0.90 195.093 67.544
0.91 180.557 69.105
0.92 170.214 69.688
0.93 168.167 69.354
0.94 166.730 68.238
0.95 166.620 66.834
0.96 166.323 66.303
0.97 164.218 66.868
0.98 164.049 67.497
0.99 165.926 67.667
1.00 164.428 67.572
1.01 161.201 67.726
1.02 160.871 68.036
1.03 161.155 68.011
1.04 159.822 67.487
1.05 155.932 66.507
1.06 153.351 65.361
1.07 152.272 64.565
1.08 152.255 63.993
1.09 153.782 63.560
1.10 153.725 63.716
1.11 153.626 64.122
1.12 153.468 64.055
1.13 153.374 63.344
1.14 153.036 62.489
1.15 149.815 61.588
1.16 145.981 60.761
1.17 147.210 61.385
1.18 --undefined-- 64.004
1.19 --undefined-- 66.796
1.20 --undefined-- 68.578
1.21 --undefined-- 69.246
1.22 109.229 69.753
1.23 109.966 70.358
1.24 --undefined-- 69.881
1.25 --undefined-- 68.635
1.26 101.262 67.778
1.27 101.532 66.609
1.28 96.987 65.190
1.29 97.411 64.180
1.30 96.705 62.993
1.31 --undefined-- 61.681
1.32 --undefined-- 59.828
1.33 --undefined-- 58.051
1.34 --undefined-- 56.737
1.35 --undefined-- 55.343
1.36 --undefined-- 54.483
1.37 --undefined-- 53.631
1.38 --undefined-- 50.841
1.39 --undefined-- 48.867
1.40 --undefined-- 48.723
1.41 --undefined-- 46.036
1.42 --undefined-- 39.621
1.43 --undefined-- 32.042
1.44 --undefined-- 28.385
1.45 --undefined-- 26.325
1.46 --undefined-- 25.951
1.47 --undefined-- 27.167
1.48 --undefined-- 36.523
1.49 --undefined-- 44.408
1.50 --undefined-- 48.678
1.51 --undefined-- 54.422
1.52 145.403 60.996
1.53 145.088 65.021
1.54 145.585 67.004
1.55 155.664 68.532
1.56 157.896 70.182
1.57 163.035 71.221
1.58 167.467 71.444
1.59 174.161 71.087
1.60 178.993 70.949
1.61 183.548 71.284
1.62 186.588 71.526
1.63 188.635 71.250
1.64 190.663 70.566
1.65 190.631 69.719
1.66 190.650 68.804
1.67 189.273 67.956
1.68 186.346 67.077
1.69 183.503 66.249
1.70 181.240 65.958
1.71 175.506 66.350
1.72 173.343 66.646
1.73 169.819 66.185
1.74 163.366 65.490
1.75 162.604 65.016
1.76 162.115 64.118
1.77 160.120 61.843
1.78 154.989 57.497
1.79 --undefined-- 50.691
1.80 --undefined-- 41.653
1.81 --undefined-- 34.038
1.82 --undefined-- 30.182
1.83 --undefined-- 29.868
1.84 --undefined-- 41.640
1.85 --undefined-- 53.418
1.86 --undefined-- 61.043
1.87 --undefined-- 65.096
1.88 --undefined-- 67.451
1.89 --undefined-- 69.845
1.90 --undefined-- 70.915
1.91 --undefined-- 70.207
1.92 --undefined-- 69.139
1.93 --undefined-- 67.411
1.94 --undefined-- 63.267
1.95 165.608 58.680
1.96 167.190 59.006
1.97 174.544 60.960
1.98 182.402 62.621
1.99 185.404 63.371
2.00 189.677 63.020
2.01 196.926 62.565
2.02 209.062 65.056
2.03 214.190 68.683
2.04 216.742 70.800
2.05 219.698 71.591
2.06 221.916 71.939
2.07 221.940 72.210
2.08 225.366 72.197
2.09 226.870 71.999
2.10 226.894 71.310
2.11 228.423 69.580
2.12 228.795 66.979
2.13 227.940 64.122
2.14 226.569 62.433
2.15 228.138 61.886
2.16 232.954 60.792
2.17 233.296 58.603
2.18 234.744 55.751
2.19 --undefined-- 57.911
2.20 --undefined-- 64.200
2.21 --undefined-- 67.553
2.22 --undefined-- 68.705
2.23 --undefined-- 70.020
2.24 174.301 71.981
2.25 166.963 73.083
2.26 162.636 72.915
2.27 160.378 72.234
2.28 160.783 71.907
2.29 165.745 71.637
2.30 170.982 70.990
2.31 178.636 70.353
2.32 181.518 70.011
2.33 184.925 69.256
2.34 190.170 67.978
2.35 196.671 67.188
2.36 202.121 67.316
2.37 209.100 67.394
2.38 215.217 66.434
2.39 220.985 63.871
2.40 228.502 59.877
2.41 232.368 55.266
2.42 --undefined-- 50.202
2.43 --undefined-- 47.263
2.44 --undefined-- 49.888
2.45 --undefined-- 52.811
2.46 --undefined-- 54.323
2.47 --undefined-- 55.104
2.48 --undefined-- 58.464
2.49 249.392 63.357
2.50 235.157 66.844
2.51 --undefined-- 68.843
2.52 --undefined-- 70.098
2.53 --undefined-- 70.747
2.54 --undefined-- 70.668
2.55 --undefined-- 70.342
2.56 --undefined-- 69.600
2.57 109.858 67.929
2.58 110.084 65.839
2.59 122.386 63.558
2.60 125.001 61.433
2.61 --undefined-- 59.824
2.62 --undefined-- 58.773
2.63 192.908 58.928
2.64 197.241 61.930
2.65 202.093 66.523
2.66 202.619 69.470
2.67 204.338 70.533
2.68 205.125 70.930
2.69 204.885 71.505
2.70 204.898 71.929
2.71 204.891 71.909
2.72 205.476 71.514
2.73 205.937 70.934
2.74 204.527 70.216
2.75 201.502 69.435
2.76 198.585 68.976
2.77 193.186 69.061
2.78 191.687 69.102
2.79 191.976 68.600
2.80 190.356 67.516
2.81 186.930 65.964
2.82 184.961 64.078
2.83 181.591 61.615
2.84 174.879 59.189
2.85 170.110 57.089
2.86 165.092 53.896
2.87 --undefined-- 48.467
2.88 --undefined-- 40.212
2.89 --undefined-- 33.252
2.90 --undefined-- 38.213
2.91 --undefined-- 48.724
2.92 --undefined-- 56.925
2.93 --undefined-- 62.665
2.94 158.268 66.630
2.95 153.410 69.420
2.96 151.131 71.219
2.97 150.965 71.783
2.98 150.910 70.974
2.99 151.597 68.687
3.00 155.467 64.792
3.01 156.152 59.299
3.02 --undefined-- 51.992
3.03 --undefined-- 42.239
3.04 --undefined-- 30.869
3.05 --undefined-- 34.958
3.06 --undefined-- 45.271
3.07 --undefined-- 53.479
3.08 --undefined-- 60.109
3.09 --undefined-- 64.912
3.10 196.090 67.719
3.11 199.496 68.406
3.12 202.663 67.117
3.13 202.622 64.047
3.14 202.890 59.405
3.15 --undefined-- 53.364
3.16 --undefined-- 46.000
3.17 --undefined-- 39.550
3.18 --undefined-- 41.920
3.19 --undefined-- 50.796
3.20 --undefined-- 57.751
3.21 194.831 63.484
3.22 184.755 67.498
3.23 180.898 69.454
3.24 176.669 69.825
3.25 171.773 69.448
3.26 170.025 68.684
3.27 169.682 67.020
3.28 168.133 63.871
3.29 165.040 59.072
3.30 --undefined-- 52.676
3.31 --undefined-- 44.707
3.32 --undefined-- 34.756
3.33 --undefined-- 27.397
3.34 --undefined-- 38.095
3.35 --undefined-- 49.878
3.36 --undefined-- 56.419
3.37 --undefined-- 59.705
3.38 --undefined-- 62.994
3.39 --undefined-- 66.345
3.40 --undefined-- 68.294
3.41 148.581 69.154
3.42 147.708 69.344
3.43 149.166 69.069
3.44 151.065 68.357
3.45 154.254 67.068
3.46 160.212 65.626
3.47 161.489 64.709
3.48 161.315 64.290
3.49 164.070 63.729
3.50 168.767 63.217
3.51 179.716 63.310
3.52 192.675 63.700
3.53 201.156 63.979
3.54 209.013 63.404
3.55 212.837 61.741
3.56 213.918 60.531
3.57 214.685 60.095
3.58 218.538 58.377
3.59 221.450 54.151
3.60 --undefined-- 46.759
3.61 --undefined-- 36.148
3.62 --undefined-- 32.021
3.63 --undefined-- 37.595
3.64 --undefined-- 42.078
3.65 --undefined-- 47.226
3.66 --undefined-- 54.928
3.67 157.650 60.766
3.68 156.452 64.033
3.69 149.168 65.374
3.70 148.522 65.617
3.71 149.678 65.218
3.72 151.375 64.181
3.73 151.481 62.866
3.74 150.995 62.121
3.75 158.744 62.319
3.76 159.041 63.584
3.77 161.907 65.830
3.78 164.681 68.201
3.79 165.944 69.713
3.80 166.105 70.176
3.81 166.505 70.227
3.82 166.798 69.827
3.83 167.979 68.114
3.84 172.581 64.942
3.85 170.907 60.827
3.86 --undefined-- 55.531
3.87 --undefined-- 48.247
3.88 --undefined-- 40.826
3.89 --undefined-- 48.346
3.90 --undefined-- 58.147
3.91 210.242 65.369
3.92 211.789 70.076
3.93 214.405 72.584
3.94 215.906 73.290
3.95 216.634 72.807
3.96 215.952 72.279
3.97 215.533 72.552
3.98 214.802 73.005
3.99 211.938 73.227
4.00 210.372 73.310
4.01 208.381 73.073
4.02 204.055 72.395
4.03 --undefined-- 71.076
4.04 91.101 68.836
4.05 91.106 65.423
4.06 --undefined-- 60.807
4.07 --undefined-- 53.992
4.08 --undefined-- 44.965
4.09 --undefined-- 40.057
4.10 --undefined-- 36.037
4.11 --undefined-- 31.771
4.12 --undefined-- 34.703
4.13 --undefined-- 40.349
4.14 --undefined-- 44.583
4.15 --undefined-- 47.327
4.16 --undefined-- 49.355
4.17 --undefined-- 51.153
4.18 --undefined-- 52.077
4.19 --undefined-- 52.013
4.20 --undefined-- 51.614
4.21 --undefined-- 51.346
4.22 --undefined-- 51.704
4.23 --undefined-- 52.330
4.24 --undefined-- 52.135
4.25 --undefined-- 51.377
4.26 --undefined-- 51.167
4.27 --undefined-- 51.664
4.28 --undefined-- 51.764
4.29 --undefined-- 52.496
4.30 --undefined-- 54.105
4.31 --undefined-- 54.518
4.32 --undefined-- 53.316
4.33 --undefined-- 51.714
4.34 --undefined-- 51.446
4.35 --undefined-- 51.750
4.36 --undefined-- 50.860
4.37 --undefined-- 48.510
4.38 --undefined-- 45.198
4.39 --undefined-- 40.661
4.40 --undefined-- 34.499
4.41 --undefined-- 27.939
4.42 --undefined-- 25.809
4.43 --undefined-- 26.154
4.44 --undefined-- 26.661
4.45 --undefined-- 26.658
4.46 --undefined-- 26.278
4.47 --undefined-- 26.073
4.48 --undefined-- 26.325
4.49 --undefined-- 28.990
4.50 --undefined-- 39.682
4.51 --undefined-- 48.522
4.52 --undefined-- 56.931
4.53 --undefined-- 65.381
4.54 --undefined-- 71.167
4.55 --undefined-- 74.309
4.56 173.125 75.104
4.57 177.540 73.906
4.58 180.618 72.378
4.59 181.058 71.733
4.60 180.395 70.918
4.61 177.864 69.731
4.62 174.269 70.014
4.63 173.625 71.751
4.64 172.501 73.046
4.65 169.272 73.654
4.66 165.816 73.979
4.67 156.953 73.550
4.68 298.247 71.759
4.69 276.503 69.037
4.70 248.447 67.179
4.71 238.064 66.830
4.72 236.074 66.026
4.73 235.067 63.471
4.74 258.379 59.131
4.75 --undefined-- 53.401
4.76 --undefined-- 47.180
4.77 --undefined-- 45.171
4.78 --undefined-- 47.399
4.79 --undefined-- 48.042
4.80 --undefined-- 47.155
4.81 --undefined-- 49.370
4.82 --undefined-- 57.407
4.83 --undefined-- 64.162
4.84 --undefined-- 68.197
4.85 --undefined-- 70.356
4.86 182.108 71.048
4.87 181.203 70.587
4.88 182.424 69.054
4.89 184.601 66.400
4.90 185.603 62.527
4.91 --undefined-- 56.621
4.92 --undefined-- 49.511
4.93 --undefined-- 45.659
4.94 --undefined-- 43.611
4.95 --undefined-- 42.047
4.96 --undefined-- 41.214
4.97 --undefined-- 41.118
4.98 --undefined-- 42.625
4.99 --undefined-- 44.875
5.00 --undefined-- 47.187
5.01 --undefined-- 49.476
5.02 --undefined-- 53.835
5.03 273.567 61.572
5.04 274.258 67.275
5.05 270.468 70.086
5.06 266.517 70.689
5.07 264.725 70.000
5.08 266.175 69.082
5.09 264.997 68.398
5.10 258.324 67.566
5.11 252.721 66.079
5.12 248.358 64.076
5.13 246.853 61.769
5.14 242.448 59.088
5.15 256.537 56.790
5.16 266.440 53.564
5.17 --undefined-- 48.216
5.18 --undefined-- 43.012
5.19 --undefined-- 43.372
5.20 --undefined-- 51.019
5.21 152.958 59.250
5.22 151.477 64.410
5.23 291.747 66.725
5.24 276.732 67.363
5.25 276.156 67.682
5.26 274.715 68.013
5.27 268.672 68.439
5.28 267.594 69.036
5.29 277.007 69.319
5.30 279.901 68.824
5.31 268.830 67.581
5.32 256.851 66.887
5.33 249.579 68.023
5.34 244.418 69.588
5.35 242.982 70.147
5.36 244.172 69.705
5.37 --undefined-- 69.009
5.38 --undefined-- 68.284
5.39 --undefined-- 67.824
5.40 --undefined-- 68.210
5.41 --undefined-- 68.936
5.42 158.452 69.544
5.43 155.760 69.610
5.44 155.583 69.539
5.45 160.717 69.111
5.46 168.316 67.949
5.47 174.734 66.900
5.48 179.258 66.648
5.49 184.398 66.991
5.50 186.856 --undefined--
5.51 187.269 --undefined--
5.52 --undefined-- --undefined--
5.53 --undefined-- --undefined--
