Time Pitch Intensity
0.01 --undefined-- --undefined--
0.02 110.637 --undefined--
0.03 110.424 --undefined--
0.04 109.161 --undefined--
0.05 --undefined-- 48.309
0.06 --undefined-- 43.383
0.07 --undefined-- 40.921
0.08 --undefined-- 43.025
0.09 --undefined-- 46.850
0.10 --undefined-- 51.691
0.11 --undefined-- 56.643
0.12 --undefined-- 59.903
0.13 --undefined-- 61.137
0.14 --undefined-- 62.186
0.15 --undefined-- 63.773
0.16 --undefined-- 63.817
0.17 98.293 62.469
0.18 99.130 61.976
0.19 95.674 61.730
0.20 96.177 60.892
0.21 93.330 60.309
0.22 92.934 61.352
0.23 93.237 64.064
0.24 --undefined-- 66.800
0.25 --undefined-- 68.515
0.26 --undefined-- 68.924
0.27 81.028 68.574
0.28 84.143 68.194
0.29 84.258 68.102
0.30 --undefined-- 67.704
0.31 --undefined-- 65.410
0.32 --undefined-- 62.066
0.33 --undefined-- 60.058
0.34 --undefined-- 57.900
0.35 --undefined-- 56.971
0.36 93.568 55.617
0.37 94.632 53.267
0.38 --undefined-- 50.405
0.39 --undefined-- 46.769
0.40 --undefined-- 43.042
0.41 --undefined-- 38.880
0.42 --undefined-- 35.475
0.43 --undefined-- 34.362
0.44 --undefined-- 40.985
0.45 --undefined-- 51.194
0.46 --undefined-- 58.308
0.47 --undefined-- 64.147
0.48 --undefined-- 68.139
0.49 85.394 69.858
0.50 85.450 69.924
0.51 81.664 69.221
0.52 83.991 68.328
0.53 75.229 67.468
0.54 76.317 66.700
0.55 84.359 65.801
0.56 81.420 64.441
0.57 97.170 63.761
0.58 --undefined-- 63.305
0.59 90.743 61.568
0.60 90.983 59.580
0.61 90.103 58.401
0.62 95.699 57.874
0.63 96.631 56.902
0.64 98.418 55.327
0.65 100.562 53.937
0.66 101.362 52.649
0.67 104.161 51.983
0.68 106.380 52.494
0.69 106.097 53.676
0.70 107.121 55.187
0.71 109.941 57.832
0.72 108.662 60.491
0.73 107.482 61.943
0.74 106.614 62.551
0.75 104.453 62.637
0.76 103.208 62.040
0.77 102.400 60.749
0.78 102.035 59.228
0.79 101.238 57.808
0.80 --undefined-- 55.521
0.81 --undefined-- 51.122
0.82 --undefined-- 44.535
0.83 --undefined-- 38.852
0.84 --undefined-- 38.090
0.85 --undefined-- 45.873
0.86 --undefined-- 54.186
0.87 --undefined-- 58.931
0.88 --undefined-- 60.782
0.89 --undefined-- 61.636
0.90 --undefined-- 63.893
0.91 108.892 66.313
0.92 108.091 67.127
0.93 106.505 66.563
0.94 103.924 65.579
0.95 102.799 64.451
0.96 96.454 62.434
0.97 --undefined-- 59.153
0.98 --undefined-- 55.978
0.99 --undefined-- 54.838
1.00 --undefined-- 54.467
1.01 --undefined-- 54.189
1.02 --undefined-- 54.566
1.03 --undefined-- 55.462
1.04 --undefined-- 55.986
1.05 --undefined-- 55.735
1.06 --undefined-- 55.134
1.07 --undefined-- 54.974
1.08 --undefined-- 55.003
1.09 --undefined-- 54.793
1.10 --undefined-- 54.545
1.11 --undefined-- 55.707
1.12 --undefined-- 58.683
1.13 106.741 60.950
1.14 106.385 62.027
1.15 104.967 62.416
1.16 105.430 62.548
1.17 105.618 63.178
1.18 105.826 64.516
1.19 105.542 65.534
1.20 102.524 65.584
1.21 102.050 65.446
1.22 102.447 66.221
1.23 102.480 67.287
1.24 101.871 67.892
1.25 100.059 67.782
1.26 99.607 66.902
1.27 97.855 65.021
1.28 --undefined-- 61.496
1.29 --undefined-- 55.363
1.30 --undefined-- 46.161
1.31 --undefined-- 39.572
1.32 --undefined-- 38.524
1.33 --undefined-- 40.600
1.34 --undefined-- 48.925
1.35 --undefined-- 56.168
1.36 --undefined-- 62.213
1.37 --undefined-- 66.071
1.38 --undefined-- 67.135
1.39 --undefined-- 66.751
1.40 --undefined-- 65.834
1.41 --undefined-- 64.200
1.42 --undefined-- 62.553
1.43 108.006 61.556
1.44 108.052 61.759
1.45 106.762 62.606
1.46 106.485 63.790
1.47 107.213 64.645
1.48 103.886 64.803
1.49 104.371 64.850
1.50 102.580 64.521
1.51 97.605 62.974
1.52 96.829 61.567
1.53 97.394 62.359
1.54 99.924 63.881
1.55 100.356 65.753
1.56 100.049 67.846
1.57 99.378 69.168
1.58 98.411 69.497
1.59 97.158 69.302
1.60 95.124 68.809
1.61 93.159 68.195
1.62 93.026 67.686
1.63 90.112 67.160
1.64 88.854 66.557
1.65 84.902 65.516
1.66 --undefined-- 64.158
1.67 --undefined-- 62.864
1.68 --undefined-- 60.267
1.69 --undefined-- 55.201
1.70 --undefined-- 50.362
1.71 --undefined-- 48.666
1.72 --undefined-- 46.424
1.73 --undefined-- 43.886
1.74 --undefined-- 40.883
1.75 --undefined-- 37.297
1.76 --undefined-- 35.927
1.77 --undefined-- 37.786
1.78 --undefined-- 40.944
1.79 --undefined-- 42.660
1.80 --undefined-- 43.677
1.81 --undefined-- 44.642
1.82 --undefined-- 44.882
1.83 --undefined-- 44.579
1.84 --undefined-- 43.720
1.85 --undefined-- 43.768
1.86 --undefined-- 45.849
1.87 --undefined-- 47.856
1.88 --undefined-- 48.627
1.89 --undefined-- 48.574
1.90 --undefined-- 48.726
1.91 --undefined-- 49.504
1.92 --undefined-- 50.243
1.93 --undefined-- 50.731
1.94 --undefined-- 51.190
1.95 --undefined-- 51.124
1.96 --undefined-- 50.713
1.97 --undefined-- 49.900
1.98 --undefined-- 48.850
1.99 --undefined-- 48.023
2.00 --undefined-- 46.846
2.01 --undefined-- 45.506
2.02 --undefined-- 44.333
2.03 --undefined-- 42.847
2.04 --undefined-- 42.504
2.05 --undefined-- 44.906
2.06 --undefined-- 46.180
2.07 --undefined-- 44.349
2.08 --undefined-- 41.446
2.09 --undefined-- 41.710
2.10 --undefined-- 42.524
2.11 --undefined-- 42.452
2.12 --undefined-- 42.488
2.13 --undefined-- 43.952
2.14 --undefined-- 49.094
2.15 --undefined-- 55.067
2.16 120.609 59.783
2.17 121.868 63.601
2.18 121.960 66.386
2.19 121.792 67.924
2.20 121.931 68.920
2.21 123.308 69.459
2.22 123.838 69.183
2.23 --undefined-- 67.948
2.24 --undefined-- 65.567
2.25 --undefined-- 62.772
2.26 --undefined-- 59.913
2.27 --undefined-- 58.109
2.28 --undefined-- 57.478
2.29 --undefined-- 57.780
2.30 --undefined-- 58.928
2.31 --undefined-- 60.389
2.32 --undefined-- 61.219
2.33 --undefined-- 61.180
2.34 --undefined-- 61.836
2.35 --undefined-- 62.993
2.36 101.434 63.137
2.37 100.501 62.571
2.38 100.039 62.049
2.39 99.783 61.374
2.40 98.382 59.599
2.41 --undefined-- 56.559
2.42 --undefined-- 54.739
2.43 --undefined-- 57.459
2.44 --undefined-- 62.278
2.45 104.453 65.895
2.46 108.822 67.941
2.47 108.587 69.244
2.48 110.935 70.338
2.49 111.139 70.863
2.50 112.091 70.614
2.51 112.823 69.675
2.52 106.923 67.477
2.53 105.504 63.086
2.54 --undefined-- 55.879
2.55 --undefined-- 46.411
2.56 --undefined-- 44.253
2.57 --undefined-- 50.117
2.58 --undefined-- 55.397
2.59 --undefined-- 58.405
2.60 --undefined-- 60.272
2.61 --undefined-- 63.602
2.62 --undefined-- 66.840
2.63 --undefined-- 68.112
2.64 --undefined-- 67.863
2.65 --undefined-- 67.440
2.66 --undefined-- 67.423
2.67 --undefined-- 67.466
2.68 --undefined-- 66.845
2.69 --undefined-- 65.073
2.70 --undefined-- 63.457
2.71 --undefined-- 61.985
2.72 --undefined-- 60.443
2.73 --undefined-- 60.465
2.74 --undefined-- 59.848
2.75 --undefined-- 59.146
2.76 --undefined-- 57.734
2.77 --undefined-- 56.834
2.78 --undefined-- 56.969
2.79 --undefined-- 57.254
2.80 --undefined-- 57.939
2.81 --undefined-- 57.618
2.82 --undefined-- 56.416
2.83 --undefined-- 53.595
2.84 --undefined-- 50.472
2.85 --undefined-- 50.308
2.86 --undefined-- 48.438
2.87 --undefined-- 43.053
2.88 --undefined-- 37.081
2.89 --undefined-- 35.523
2.90 --undefined-- 34.887
2.91 --undefined-- 34.519
2.92 --undefined-- 34.461
2.93 --undefined-- 34.650
2.94 --undefined-- 36.804
2.95 --undefined-- 40.238
2.96 --undefined-- 41.949
2.97 --undefined-- 42.088
2.98 --undefined-- 42.615
2.99 --undefined-- 45.761
3.00 --undefined-- 52.928
3.01 --undefined-- 58.772
3.02 --undefined-- 61.262
3.03 --undefined-- 61.397
3.04 --undefined-- 64.905
3.05 --undefined-- 69.513
3.06 --undefined-- 71.373
3.07 --undefined-- 70.677
3.08 --undefined-- 67.416
3.09 --undefined-- 61.503
3.10 --undefined-- 54.923
3.11 --undefined-- 50.899
3.12 --undefined-- 47.371
3.13 --undefined-- 42.025
3.14 --undefined-- 36.771
3.15 --undefined-- 36.296
3.16 --undefined-- 40.724
3.17 --undefined-- 47.571
3.18 --undefined-- 50.862
3.19 --undefined-- 52.796
3.20 --undefined-- 58.704
3.21 --undefined-- 62.439
3.22 --undefined-- 63.905
3.23 --undefined-- 66.460
3.24 --undefined-- 68.424
3.25 --undefined-- 67.513
3.26 --undefined-- 63.862
3.27 98.899 60.863
3.28 99.897 60.603
3.29 100.355 60.614
3.30 105.735 60.561
3.31 105.881 59.742
3.32 108.436 57.399
3.33 --undefined-- 53.346
3.34 --undefined-- 47.469
3.35 --undefined-- 41.848
3.36 --undefined-- 44.321
3.37 --undefined-- 52.987
3.38 --undefined-- 58.061
3.39 --undefined-- 60.821
3.40 --undefined-- 63.276
3.41 --undefined-- 64.927
3.42 --undefined-- 66.181
3.43 122.176 67.872
3.44 120.901 68.499
3.45 --undefined-- 66.903
3.46 --undefined-- 63.355
3.47 99.228 60.195
3.48 98.066 59.387
3.49 97.738 58.988
3.50 97.034 58.042
3.51 96.713 56.682
3.52 --undefined-- 54.448
3.53 --undefined-- 50.215
3.54 --undefined-- 43.264
3.55 --undefined-- 37.234
3.56 --undefined-- 45.680
3.57 --undefined-- 55.883
3.58 --undefined-- 62.194
3.59 --undefined-- 66.591
3.60 --undefined-- 69.455
3.61 87.670 70.294
3.62 87.809 69.187
3.63 79.345 67.024
3.64 79.117 66.208
3.65 --undefined-- 66.105
3.66 74.729 64.325
3.67 --undefined-- 60.965
3.68 --undefined-- 57.094
3.69 79.984 55.232
3.70 79.732 55.054
3.71 --undefined-- 54.473
3.72 --undefined-- 52.488
3.73 --undefined-- 48.790
3.74 --undefined-- 45.337
3.75 --undefined-- 44.161
3.76 --undefined-- 43.996
3.77 --undefined-- 44.490
3.78 --undefined-- 45.470
3.79 --undefined-- 46.894
3.80 --undefined-- 50.577
3.81 100.271 55.633
3.82 99.042 59.733
3.83 96.909 62.850
3.84 91.678 65.106
3.85 90.999 66.026
3.86 92.770 65.623
3.87 --undefined-- 63.573
3.88 --undefined-- 59.619
3.89 --undefined-- 56.921
3.90 --undefined-- 55.788
3.91 --undefined-- 52.307
3.92 --undefined-- 46.009
3.93 --undefined-- 40.570
3.94 --undefined-- 38.453
3.95 --undefined-- 36.922
3.96 --undefined-- 36.086
3.97 --undefined-- 36.441
3.98 --undefined-- 37.584
3.99 --undefined-- 38.239
4.00 --undefined-- 37.520
4.01 --undefined-- 35.875
4.02 --undefined-- 34.910
4.03 --undefined-- 36.898
4.04 --undefined-- 39.725
4.05 --undefined-- 41.032
4.06 --undefined-- 41.235
4.07 --undefined-- 41.429
4.08 --undefined-- 41.611
4.09 --undefined-- 41.389
4.10 --undefined-- 41.320
4.11 --undefined-- 41.433
4.12 --undefined-- 41.224
4.13 --undefined-- 40.826
4.14 --undefined-- 40.286
4.15 --undefined-- 40.301
4.16 --undefined-- 40.573
4.17 --undefined-- 40.901
4.18 --undefined-- 41.691
4.19 --undefined-- 43.061
4.20 --undefined-- 44.397
4.21 --undefined-- 45.357
4.22 --undefined-- 46.209
4.23 --undefined-- 47.060
4.24 --undefined-- 47.712
4.25 --undefined-- 48.347
4.26 --undefined-- 49.106
4.27 --undefined-- 49.504
4.28 --undefined-- 49.271
4.29 --undefined-- 48.813
4.30 --undefined-- 48.025
4.31 --undefined-- 46.977
4.32 --undefined-- 46.527
4.33 --undefined-- 46.852
4.34 --undefined-- 46.485
4.35 --undefined-- 44.924
4.36 --undefined-- 43.187
4.37 --undefined-- 43.567
4.38 --undefined-- 45.334
4.39 --undefined-- 46.058
4.40 --undefined-- 47.852
4.41 --undefined-- 48.641
4.42 --undefined-- 46.671
4.43 --undefined-- 44.242
4.44 --undefined-- 42.402
4.45 --undefined-- 46.751
4.46 --undefined-- 54.010
4.47 --undefined-- 57.767
4.48 --undefined-- 61.871
4.49 --undefined-- 67.203
4.50 --undefined-- 69.718
4.51 --undefined-- 68.570
4.52 --undefined-- 63.740
4.53 103.468 56.580
4.54 105.026 53.939
4.55 109.715 54.258
4.56 112.776 54.569
4.57 113.864 55.083
4.58 117.767 55.648
4.59 117.767 56.159
4.60 116.823 56.537
4.61 116.594 56.872
4.62 116.679 57.920
4.63 117.441 59.816
4.64 114.074 60.732
4.65 109.912 60.195
4.66 106.959 59.827
4.67 104.434 60.435
4.68 105.012 61.760
4.69 107.991 63.688
4.70 112.214 65.590
4.71 115.531 66.820
4.72 115.192 67.513
4.73 109.340 67.864
4.74 108.286 67.856
4.75 107.026 67.639
4.76 104.770 67.011
4.77 103.001 65.698
4.78 103.307 64.226
4.79 103.550 63.317
4.80 103.356 62.900
4.81 103.446 62.710
4.82 103.081 62.673
4.83 102.429 62.560
4.84 102.237 62.314
4.85 99.329 61.862
4.86 --undefined-- 60.456
4.87 --undefined-- 56.758
4.88 --undefined-- 49.943
4.89 --undefined-- 41.907
4.90 --undefined-- 38.530
4.91 --undefined-- 37.119
4.92 --undefined-- 38.075
4.93 --undefined-- 42.053
4.94 --undefined-- 46.595
4.95 --undefined-- 50.330
4.96 --undefined-- 52.668
4.97 --undefined-- 54.737
4.98 --undefined-- 57.097
4.99 --undefined-- 58.268
5.00 --undefined-- 58.497
5.01 --undefined-- 60.348
5.02 --undefined-- 63.344
5.03 --undefined-- 66.773
5.04 129.468 69.860
5.05 128.445 71.650
5.06 127.599 71.940
5.07 121.385 71.518
5.08 119.461 71.064
5.09 112.601 70.516
5.10 107.328 70.153
5.11 103.801 70.113
5.12 100.240 69.943
5.13 98.373 69.502
5.14 97.218 68.947
5.15 96.344 68.025
5.16 96.096 66.416
5.17 97.722 64.584
5.18 99.047 63.165
5.19 99.187 61.956
5.20 99.682 60.447
5.21 101.643 59.023
5.22 103.645 58.905
5.23 104.426 61.584
5.24 106.102 65.452
5.25 108.366 68.135
5.26 109.523 69.607
5.27 111.353 70.378
5.28 113.226 70.581
5.29 115.018 70.167
5.30 116.772 69.273
5.31 117.449 67.773
5.32 117.183 64.680
5.33 --undefined-- 58.943
5.34 --undefined-- 50.943
5.35 --undefined-- 44.671
5.36 --undefined-- 46.371
5.37 --undefined-- 52.289
5.38 --undefined-- 57.149
5.39 --undefined-- 61.567
5.40 --undefined-- 66.258
5.41 --undefined-- 69.269
5.42 --undefined-- 69.988
5.43 98.119 69.303
5.44 94.693 68.523
5.45 92.795 67.830
5.46 91.688 66.723
5.47 90.430 65.444
5.48 88.066 64.138
5.49 86.280 62.609
5.50 90.022 61.351
5.51 91.211 60.575
5.52 91.978 59.841
5.53 92.400 59.119
5.54 92.775 58.697
5.55 92.793 58.531
5.56 92.512 58.552
5.57 92.672 58.459
5.58 92.630 58.233
5.59 91.268 58.126
5.60 92.158 58.251
5.61 91.947 58.225
5.62 91.967 57.984
5.63 91.591 57.788
5.64 92.118 57.722
5.65 92.441 57.654
5.66 91.689 57.262
5.67 90.864 56.734
5.68 90.623 56.728
5.69 90.941 57.024
5.70 90.932 57.052
5.71 91.392 56.824
5.72 91.415 56.669
5.73 91.421 56.704
5.74 91.350 --undefined--
5.75 91.853 --undefined--
5.76 --undefined-- --undefined--
5.77 --undefined-- --undefined--
