Time Pitch Intensity
0.01 --undefined-- --undefined--
0.02 124.997 --undefined--
0.03 127.340 --undefined--
0.04 128.915 --undefined--
0.05 130.156 68.879
0.06 131.815 69.978
0.07 134.778 71.012
0.08 136.610 71.179
0.09 136.017 69.638
0.10 --undefined-- 65.807
0.11 --undefined-- 59.915
0.12 --undefined-- 54.543
0.13 --undefined-- 58.230
0.14 --undefined-- 64.764
0.15 208.575 70.440
0.16 181.189 74.456
0.17 168.383 77.025
0.18 167.661 78.722
0.19 171.240 79.520
0.20 178.842 79.397
0.21 189.702 78.412
0.22 202.275 76.909
0.23 214.976 75.247
0.24 220.025 72.843
0.25 219.427 68.749
0.26 207.627 62.933
0.27 210.420 56.459
0.28 --undefined-- 49.244
0.29 --undefined-- 44.122
0.30 --undefined-- 45.385
0.31 --undefined-- 51.656
0.32 --undefined-- 55.973
0.33 --undefined-- 57.197
0.34 --undefined-- 61.132
0.35 204.355 66.063
0.36 185.276 68.551
0.37 175.614 69.786
0.38 171.689 71.246
0.39 171.813 72.731
0.40 171.184 73.611
0.41 167.744 74.016
0.42 163.764 74.218
0.43 160.578 74.421
0.44 157.365 74.790
0.45 154.721 75.333
0.46 152.289 75.918
0.47 149.599 76.426
0.48 148.143 76.746
0.49 147.857 76.718
0.50 148.891 76.174
0.51 151.292 75.080
0.52 156.845 73.483
0.53 159.720 71.100
0.54 151.600 67.355
0.55 145.950 61.845
0.56 --undefined-- 54.690
0.57 --undefined-- 49.137
0.58 --undefined-- 50.637
0.59 --undefined-- 53.418
0.60 --undefined-- 60.358
0.61 245.387 68.025
0.62 214.840 72.750
0.63 203.079 74.736
0.64 196.323 74.520
0.65 195.266 73.287
0.66 197.315 72.566
0.67 199.090 72.772
0.68 196.858 73.052
0.69 193.986 72.886
0.70 188.949 72.005
0.71 181.935 70.123
0.72 173.083 66.980
0.73 162.519 63.814
0.74 196.001 66.270
0.75 183.992 70.212
0.76 169.229 72.622
0.77 162.182 74.026
0.78 153.492 74.932
0.79 149.475 75.556
0.80 146.857 75.579
0.81 145.411 74.666
0.82 142.550 72.498
0.83 139.903 68.460
0.84 --undefined-- 61.961
0.85 --undefined-- 53.824
0.86 --undefined-- 47.373
0.87 --undefined-- 43.827
0.88 --undefined-- 43.864
0.89 --undefined-- 49.466
0.90 --undefined-- 60.648
0.91 --undefined-- 68.629
0.92 --undefined-- 72.850
0.93 --undefined-- 74.182
0.94 --undefined-- 73.781
0.95 --undefined-- 72.466
0.96 --undefined-- 70.907
0.97 --undefined-- 69.098
0.98 --undefined-- 66.617
0.99 --undefined-- 65.306
1.00 --undefined-- 66.099
1.01 --undefined-- 67.821
1.02 133.450 69.645
1.03 131.104 70.756
1.04 128.442 71.147
1.05 125.330 71.290
1.06 122.079 71.125
1.07 122.227 70.456
1.08 122.168 69.908
1.09 123.504 69.804
1.10 127.229 69.542
1.11 125.494 68.366
1.12 120.379 65.816
1.13 112.957 61.577
1.14 --undefined-- 55.358
1.15 --undefined-- 48.279
1.16 --undefined-- 44.985
1.17 --undefined-- 44.626
1.18 --undefined-- 45.183
1.19 --undefined-- 49.184
1.20 --undefined-- 57.653
1.21 --undefined-- 65.530
1.22 191.409 70.326
1.23 171.771 72.633
1.24 165.969 73.803
1.25 163.887 74.616
1.26 162.597 74.997
1.27 162.279 74.705
1.28 164.424 73.724
1.29 166.901 72.606
1.30 169.407 71.769
1.31 168.930 71.326
1.32 167.028 71.108
1.33 164.832 70.820
1.34 164.907 70.508
1.35 166.448 70.311
1.36 166.503 69.740
1.37 163.332 67.705
1.38 148.533 63.550
1.39 152.683 57.612
1.40 --undefined-- 51.834
1.41 --undefined-- 57.854
1.42 --undefined-- 65.802
1.43 --undefined-- 70.354
1.44 --undefined-- 72.217
1.45 139.849 72.322
1.46 133.132 71.595
1.47 130.616 70.806
1.48 128.646 70.360
1.49 126.692 70.254
1.50 124.264 70.437
1.51 124.360 70.802
1.52 124.774 70.979
1.53 123.998 70.971
1.54 123.444 71.023
1.55 124.159 71.126
1.56 126.076 71.147
1.57 127.956 70.936
1.58 126.046 70.294
1.59 123.753 69.358
1.60 122.952 68.823
1.61 123.158 69.263
1.62 126.639 70.480
1.63 123.164 71.798
1.64 121.073 72.410
1.65 116.090 72.201
1.66 113.709 71.400
1.67 122.140 70.590
1.68 124.120 69.630
1.69 121.351 67.777
1.70 120.719 64.844
1.71 127.315 60.051
1.72 --undefined-- 52.746
1.73 --undefined-- 45.865
1.74 --undefined-- 43.709
1.75 --undefined-- 43.259
1.76 --undefined-- 43.367
1.77 --undefined-- 43.733
1.78 --undefined-- 43.901
1.79 --undefined-- 43.437
1.80 --undefined-- 43.718
1.81 --undefined-- 48.402
1.82 --undefined-- 57.463
1.83 --undefined-- 64.033
1.84 --undefined-- 67.450
1.85 135.144 68.562
1.86 125.695 68.330
1.87 120.763 67.738
1.88 119.340 66.642
1.89 121.594 64.058
1.90 --undefined-- 59.220
1.91 --undefined-- 51.583
1.92 --undefined-- 43.405
1.93 --undefined-- 41.756
1.94 --undefined-- 41.464
1.95 --undefined-- 40.053
1.96 --undefined-- 38.255
1.97 --undefined-- 39.897
1.98 --undefined-- 46.903
1.99 --undefined-- 55.901
2.00 166.895 63.219
2.01 151.682 67.995
2.02 143.487 70.607
2.03 136.359 71.918
2.04 133.608 72.457
2.05 132.090 72.305
2.06 131.376 71.617
2.07 128.977 70.578
2.08 126.726 69.499
2.09 125.318 69.068
2.10 123.433 69.503
2.11 121.826 70.415
2.12 120.679 71.171
2.13 118.376 71.103
2.14 116.502 70.099
2.15 116.245 68.782
2.16 117.915 68.074
2.17 120.168 68.040
2.18 123.007 68.422
2.19 124.415 69.291
2.20 124.235 70.414
2.21 125.073 71.357
2.22 127.699 71.959
2.23 131.935 72.221
2.24 135.953 72.157
2.25 142.779 71.916
2.26 147.364 71.565
2.27 153.324 71.032
2.28 159.476 70.218
2.29 166.238 69.211
2.30 173.313 68.129
2.31 177.332 66.611
2.32 183.907 64.183
2.33 --undefined-- 60.927
2.34 --undefined-- 57.633
2.35 --undefined-- 54.422
2.36 --undefined-- 50.895
2.37 --undefined-- 46.612
2.38 --undefined-- 41.150
2.39 --undefined-- 36.749
2.40 --undefined-- 36.306
2.41 --undefined-- 36.720
2.42 --undefined-- 36.446
2.43 --undefined-- 35.158
2.44 --undefined-- 33.549
2.45 --undefined-- 33.620
2.46 --undefined-- 34.650
2.47 --undefined-- 35.379
2.48 --undefined-- 36.445
2.49 --undefined-- 37.445
2.50 --undefined-- 37.804
2.51 --undefined-- 38.335
2.52 --undefined-- 38.278
2.53 --undefined-- 36.930
2.54 --undefined-- 37.059
2.55 --undefined-- 38.319
2.56 --undefined-- 37.370
2.57 --undefined-- 34.836
2.58 --undefined-- 34.816
2.59 --undefined-- 37.032
2.60 --undefined-- 46.454
2.61 --undefined-- 56.117
2.62 211.661 61.636
2.63 198.961 64.905
2.64 177.862 68.228
2.65 188.389 70.690
2.66 193.777 71.248
2.67 190.659 69.887
2.68 177.336 66.701
2.69 154.370 61.938
2.70 151.625 56.547
2.71 --undefined-- 54.682
2.72 --undefined-- 61.490
2.73 --undefined-- 68.354
2.74 162.611 73.000
2.75 156.054 75.691
2.76 149.581 77.087
2.77 146.511 77.477
2.78 144.377 76.884
2.79 142.221 75.814
2.80 137.520 74.811
2.81 136.347 73.257
2.82 131.697 70.542
2.83 127.847 67.304
2.84 123.621 64.659
2.85 119.904 63.301
2.86 118.859 63.420
2.87 118.931 64.650
2.88 122.957 66.481
2.89 126.564 68.419
2.90 129.259 70.194
2.91 132.915 71.541
2.92 127.702 72.248
2.93 126.894 72.379
2.94 125.977 72.270
2.95 125.613 72.118
2.96 119.911 71.899
2.97 118.323 71.880
2.98 122.169 71.890
2.99 121.926 71.465
3.00 120.244 70.324
3.01 116.180 68.006
3.02 106.759 64.233
3.03 --undefined-- 59.204
3.04 --undefined-- 53.913
3.05 --undefined-- 53.066
3.06 --undefined-- 56.465
3.07 --undefined-- 63.451
3.08 160.849 69.127
3.09 145.944 71.896
3.10 136.481 72.660
3.11 129.757 72.744
3.12 125.658 72.947
3.13 122.435 73.241
3.14 121.030 73.444
3.15 121.064 73.401
3.16 121.401 73.086
3.17 121.816 72.717
3.18 122.178 72.453
3.19 120.862 72.225
3.20 119.913 71.822
3.21 119.052 71.127
3.22 118.426 70.268
3.23 117.052 69.288
3.24 115.900 68.213
3.25 115.111 67.187
3.26 115.909 66.417
3.27 116.958 65.665
3.28 --undefined-- 64.267
3.29 --undefined-- 62.461
3.30 --undefined-- 60.467
3.31 --undefined-- 57.446
3.32 --undefined-- 51.744
3.33 --undefined-- 43.505
3.34 --undefined-- 38.898
3.35 --undefined-- 37.439
3.36 --undefined-- 36.845
3.37 --undefined-- 35.833
3.38 --undefined-- 34.519
3.39 --undefined-- 33.389
3.40 --undefined-- 32.847
3.41 --undefined-- 34.077
3.42 --undefined-- 36.470
3.43 --undefined-- 39.071
3.44 --undefined-- 40.708
3.45 --undefined-- 41.473
3.46 --undefined-- 41.343
3.47 --undefined-- 40.127
3.48 --undefined-- 39.844
3.49 --undefined-- 42.132
3.50 --undefined-- 43.835
3.51 --undefined-- 43.816
3.52 --undefined-- 43.090
3.53 --undefined-- 42.951
3.54 --undefined-- 45.600
3.55 --undefined-- 54.629
3.56 --undefined-- 62.628
3.57 82.782 68.326
3.58 79.653 72.208
3.59 79.327 74.596
3.60 79.996 75.648
3.61 161.624 75.201
3.62 161.949 73.068
3.63 170.850 70.509
3.64 170.356 69.665
3.65 167.887 70.961
3.66 163.890 73.029
3.67 157.092 73.774
3.68 146.858 72.866
3.69 133.339 70.931
3.70 132.576 68.861
3.71 120.867 67.890
3.72 118.571 67.802
3.73 114.752 67.556
3.74 112.974 67.092
3.75 112.815 66.495
3.76 113.699 65.497
3.77 108.447 63.401
3.78 --undefined-- 59.544
3.79 --undefined-- 53.731
3.80 --undefined-- 49.036
3.81 --undefined-- 51.454
3.82 --undefined-- 55.590
3.83 --undefined-- 58.461
3.84 --undefined-- 59.360
3.85 --undefined-- 58.426
3.86 --undefined-- 56.359
3.87 --undefined-- 59.368
3.88 142.281 64.886
3.89 142.978 67.851
3.90 137.548 68.713
3.91 126.970 68.521
3.92 123.223 68.089
3.93 120.801 67.734
3.94 119.594 67.530
3.95 119.954 67.557
3.96 121.727 67.712
3.97 122.041 68.022
3.98 122.484 68.612
3.99 122.306 69.085
4.00 122.253 69.008
4.01 121.356 68.196
4.02 117.618 66.587
4.03 114.630 63.963
4.04 114.337 60.206
4.05 --undefined-- 55.227
4.06 --undefined-- 49.622
4.07 --undefined-- 46.031
4.08 --undefined-- 45.333
4.09 --undefined-- 45.428
4.10 --undefined-- 45.568
4.11 --undefined-- 45.556
4.12 --undefined-- 46.165
4.13 --undefined-- 51.763
4.14 157.035 59.207
4.15 140.009 64.056
4.16 125.059 66.545
4.17 120.368 67.547
4.18 118.297 67.949
4.19 116.671 68.129
4.20 115.592 68.067
4.21 114.628 67.795
4.22 113.205 67.608
4.23 114.930 67.709
4.24 116.389 67.940
4.25 117.446 67.830
4.26 116.427 67.058
4.27 116.580 66.341
4.28 119.766 67.123
4.29 123.107 68.898
4.30 129.676 70.508
4.31 131.877 71.564
4.32 132.744 72.298
4.33 133.512 73.061
4.34 134.446 73.556
4.35 136.873 73.592
4.36 140.027 73.477
4.37 141.505 73.286
4.38 141.613 71.990
4.39 136.802 68.258
4.40 129.170 61.803
4.41 133.761 54.283
4.42 --undefined-- 48.188
4.43 --undefined-- 44.064
4.44 --undefined-- 44.516
4.45 --undefined-- 56.064
4.46 --undefined-- 64.776
4.47 177.061 69.990
4.48 158.344 73.387
4.49 150.394 75.996
4.50 146.476 77.640
4.51 145.592 78.121
4.52 144.099 77.548
4.53 141.585 76.253
4.54 140.751 74.933
4.55 139.935 73.854
4.56 137.232 72.448
4.57 131.685 70.179
4.58 119.294 66.652
4.59 108.980 62.002
4.60 102.801 56.069
4.61 --undefined-- 49.277
4.62 --undefined-- 46.184
4.63 --undefined-- 51.904
4.64 --undefined-- 61.184
4.65 --undefined-- 67.262
4.66 147.193 70.149
4.67 123.347 70.619
4.68 119.256 69.545
4.69 112.313 67.831
4.70 104.860 66.335
4.71 104.636 65.611
4.72 109.201 65.431
4.73 113.662 65.648
4.74 115.793 66.637
4.75 119.268 67.902
4.76 122.633 68.674
4.77 124.761 68.642
4.78 121.476 68.024
4.79 121.340 68.382
4.80 124.450 70.045
4.81 123.934 71.022
4.82 122.709 70.729
4.83 117.304 69.590
4.84 115.141 67.475
4.85 115.369 63.419
4.86 --undefined-- 57.005
4.87 --undefined-- 49.465
4.88 --undefined-- 45.220
4.89 --undefined-- 44.237
4.90 --undefined-- 44.481
4.91 --undefined-- 44.927
4.92 --undefined-- 45.561
4.93 --undefined-- 46.140
4.94 --undefined-- 46.737
4.95 --undefined-- 47.474
4.96 --undefined-- 47.676
4.97 --undefined-- 47.359
4.98 --undefined-- 46.792
4.99 --undefined-- 51.128
5.00 154.532 58.297
5.01 136.910 62.737
5.02 126.312 64.773
5.03 123.866 65.526
5.04 124.708 66.071
5.05 125.432 66.739
5.06 128.430 67.589
5.07 129.767 68.548
5.08 132.599 69.481
5.09 135.913 70.367
5.10 141.224 71.299
5.11 146.908 72.198
5.12 149.828 72.751
5.13 157.945 72.588
5.14 165.365 71.826
5.15 173.396 71.246
5.16 178.519 71.108
5.17 180.249 70.648
5.18 180.230 68.952
5.19 180.572 65.983
5.20 --undefined-- 62.469
5.21 --undefined-- 58.464
5.22 --undefined-- 53.575
5.23 --undefined-- 48.130
5.24 --undefined-- 42.626
5.25 --undefined-- 39.098
5.26 --undefined-- 37.468
5.27 --undefined-- 37.014
5.28 --undefined-- 36.878
5.29 --undefined-- 35.048
5.30 --undefined-- 32.751
5.31 --undefined-- 31.875
5.32 --undefined-- 32.487
5.33 --undefined-- 33.633
5.34 --undefined-- 34.249
5.35 --undefined-- 33.390
5.36 --undefined-- 32.355
5.37 --undefined-- 33.671
5.38 --undefined-- 35.604
5.39 --undefined-- 36.711
5.40 --undefined-- 36.641
5.41 --undefined-- 36.251
5.42 --undefined-- 35.834
5.43 --undefined-- 35.673
5.44 --undefined-- 36.302
5.45 --undefined-- 37.714
5.46 --undefined-- 37.908
5.47 --undefined-- 36.189
5.48 --undefined-- 34.305
5.49 --undefined-- 34.811
5.50 --undefined-- 36.278
5.51 --undefined-- 36.508
5.52 --undefined-- 35.561
5.53 --undefined-- 34.983
5.54 --undefined-- 35.565
5.55 --undefined-- 37.207
5.56 --undefined-- 37.862
5.57 --undefined-- 37.355
5.58 --undefined-- 36.894
5.59 --undefined-- 37.590
5.60 --undefined-- 38.598
5.61 --undefined-- 38.908
5.62 --undefined-- 38.568
5.63 --undefined-- 38.194
5.64 --undefined-- 38.410
5.65 --undefined-- 38.529
5.66 --undefined-- 38.493
5.67 --undefined-- 38.886
5.68 --undefined-- 39.310
5.69 --undefined-- 39.020
5.70 --undefined-- 38.415
5.71 --undefined-- 38.595
5.72 --undefined-- 39.396
5.73 --undefined-- 39.846
5.74 --undefined-- 39.654
5.75 --undefined-- 39.255
5.76 --undefined-- 39.341
5.77 --undefined-- 40.154
5.78 --undefined-- 40.621
5.79 --undefined-- 40.023
5.80 --undefined-- 39.145
5.81 --undefined-- 38.867
5.82 --undefined-- 38.597
5.83 --undefined-- 37.843
5.84 --undefined-- 37.529
5.85 --undefined-- 38.511
5.86 --undefined-- 38.722
5.87 --undefined-- 39.209
5.88 --undefined-- 40.003
5.89 --undefined-- 38.681
5.90 --undefined-- 36.476
5.91 --undefined-- 37.002
5.92 --undefined-- 38.336
5.93 --undefined-- 39.932
5.94 --undefined-- 49.342
5.95 --undefined-- 58.839
5.96 149.926 64.975
5.97 132.443 69.139
5.98 133.560 72.217
5.99 136.145 74.404
6.00 136.809 75.450
6.01 138.088 75.674
6.02 138.715 75.827
6.03 138.506 76.093
6.04 138.499 76.173
6.05 137.878 75.813
6.06 132.126 74.802
6.07 130.495 73.853
6.08 141.676 73.885
6.09 146.146 74.086
6.10 149.861 73.972
6.11 154.455 73.887
6.12 159.413 74.399
6.13 167.829 75.264
6.14 181.538 75.653
6.15 189.309 --undefined--
6.16 191.756 --undefined--
6.17 --undefined-- --undefined--
6.18 --undefined-- --undefined--
