Time Pitch Intensity
0.01 --undefined-- --undefined--
0.02 132.479 --undefined--
0.03 129.898 --undefined--
0.04 126.277 --undefined--
0.05 123.330 58.565
0.06 122.265 58.542
0.07 121.981 60.077
0.08 124.414 62.334
0.09 126.540 64.436
0.10 125.889 65.553
0.11 123.276 65.301
0.12 119.451 63.946
0.13 117.400 61.985
0.14 117.737 60.085
0.15 116.462 58.024
0.16 --undefined-- 54.223
0.17 --undefined-- 47.453
0.18 --undefined-- 38.635
0.19 --undefined-- 31.591
0.20 --undefined-- 28.650
0.21 --undefined-- 29.788
0.22 --undefined-- 38.826
0.23 --undefined-- 50.904
0.24 --undefined-- 57.947
0.25 --undefined-- 60.490
0.26 --undefined-- 59.298
0.27 --undefined-- 55.191
0.28 --undefined-- 50.817
0.29 --undefined-- 54.551
0.30 153.631 61.689
0.31 156.232 66.780
0.32 156.613 69.566
0.33 154.907 69.977
0.34 151.833 68.382
0.35 150.053 66.017
0.36 150.084 63.997
0.37 153.042 61.394
0.38 153.223 58.983
0.39 154.117 58.434
0.40 153.755 58.165
0.41 153.688 57.693
0.42 154.125 57.453
0.43 153.024 57.730
0.44 151.286 58.181
0.45 149.491 58.536
0.46 147.128 59.085
0.47 144.532 59.542
0.48 141.118 59.091
0.49 135.467 57.251
0.50 --undefined-- 53.588
0.51 --undefined-- 47.793
0.52 --undefined-- 48.064
0.53 --undefined-- 55.919
0.54 --undefined-- 61.869
0.55 --undefined-- 66.603
0.56 --undefined-- 69.141
0.57 --undefined-- 69.244
0.58 --undefined-- 67.411
0.59 96.735 64.679
0.60 --undefined-- 64.767
0.61 --undefined-- 67.847
0.62 --undefined-- 69.029
0.63 --undefined-- 68.679
0.64 --undefined-- 67.791
0.65 --undefined-- 65.828
0.66 --undefined-- 63.315
0.67 --undefined-- 61.601
0.68 --undefined-- 61.875
0.69 114.616 62.612
0.70 116.119 63.108
0.71 116.055 63.638
0.72 117.636 64.321
0.73 121.539 65.211
0.74 122.642 66.259
0.75 124.727 67.143
0.76 125.644 67.471
0.77 125.101 67.243
0.78 124.340 67.250
0.79 124.557 68.202
0.80 126.456 70.001
0.81 126.836 71.757
0.82 127.367 72.809
0.83 126.694 73.456
0.84 126.108 74.016
0.85 126.190 74.054
0.86 124.582 72.943
0.87 123.059 70.153
0.88 120.410 65.510
0.89 --undefined-- 59.352
0.90 --undefined-- 53.349
0.91 --undefined-- 49.665
0.92 --undefined-- 47.045
0.93 --undefined-- 43.606
0.94 --undefined-- 38.810
0.95 --undefined-- 34.341
0.96 --undefined-- 36.765
0.97 --undefined-- 40.373
0.98 --undefined-- 42.409
0.99 --undefined-- 43.261
1.00 --undefined-- 43.573
1.01 --undefined-- 44.945
1.02 --undefined-- 55.021
1.03 --undefined-- 64.866
1.04 149.231 70.621
1.05 141.975 73.508
1.06 138.850 74.850
1.07 140.241 75.670
1.08 141.254 76.231
1.09 141.392 76.525
1.10 140.782 76.635
1.11 140.554 76.643
1.12 140.427 76.565
1.13 139.810 76.409
1.14 138.929 76.195
1.15 137.440 75.865
1.16 135.853 75.436
1.17 134.128 74.964
1.18 132.704 74.389
1.19 130.826 73.673
1.20 127.585 72.830
1.21 126.678 71.725
1.22 125.181 70.226
1.23 118.627 68.808
1.24 107.988 68.944
1.25 108.944 70.796
1.26 --undefined-- 72.192
1.27 --undefined-- 72.126
1.28 --undefined-- 70.728
1.29 124.873 69.745
1.30 128.762 70.894
1.31 129.476 72.381
1.32 129.043 73.307
1.33 128.921 73.843
1.34 127.941 74.134
1.35 125.913 74.132
1.36 125.164 73.679
1.37 124.882 73.542
1.38 129.125 75.519
1.39 --undefined-- 77.903
1.40 --undefined-- 79.014
1.41 --undefined-- 78.830
1.42 137.350 77.651
1.43 135.657 76.044
1.44 136.546 75.348
1.45 138.213 75.313
1.46 140.354 74.966
1.47 139.316 74.119
1.48 133.339 72.940
1.49 121.463 72.082
1.50 121.437 71.527
1.51 119.600 71.051
1.52 117.247 70.748
1.53 116.406 70.841
1.54 117.034 71.566
1.55 121.322 72.293
1.56 122.895 72.313
1.57 122.018 71.794
1.58 121.535 71.044
1.59 111.704 70.300
1.60 107.145 69.710
1.61 106.318 69.128
1.62 104.452 68.553
1.63 101.930 68.137
1.64 100.575 67.951
1.65 97.858 68.075
1.66 98.122 69.438
1.67 99.307 71.999
1.68 160.998 74.018
1.69 156.809 74.812
1.70 153.481 74.829
1.71 151.747 74.196
1.72 150.320 72.549
1.73 --undefined-- 69.860
1.74 92.922 66.355
1.75 93.146 62.721
1.76 89.861 59.708
1.77 --undefined-- 57.076
1.78 --undefined-- 58.486
1.79 --undefined-- 63.818
1.80 --undefined-- 66.642
1.81 --undefined-- 66.427
1.82 --undefined-- 64.706
1.83 --undefined-- 66.155
1.84 --undefined-- 70.370
1.85 118.330 73.456
1.86 119.959 74.964
1.87 119.828 75.137
1.88 119.205 74.194
1.89 118.932 72.716
1.90 119.025 71.263
1.91 121.988 70.214
1.92 123.465 69.715
1.93 124.395 69.062
1.94 127.500 67.577
1.95 128.230 64.991
1.96 127.233 60.871
1.97 --undefined-- 54.610
1.98 --undefined-- 47.236
1.99 --undefined-- 42.227
2.00 --undefined-- 38.007
2.01 --undefined-- 38.988
2.02 --undefined-- 42.459
2.03 --undefined-- 43.938
2.04 --undefined-- 43.925
2.05 --undefined-- 43.201
2.06 --undefined-- 43.570
2.07 --undefined-- 45.631
2.08 --undefined-- 46.516
2.09 --undefined-- 45.247
2.10 --undefined-- 43.416
2.11 --undefined-- 41.843
2.12 --undefined-- 38.507
2.13 --undefined-- 35.900
2.14 --undefined-- 35.683
2.15 --undefined-- 34.639
2.16 --undefined-- 33.132
2.17 --undefined-- 30.238
2.18 --undefined-- 35.150
2.19 --undefined-- 46.127
2.20 --undefined-- 53.487
2.21 174.399 57.772
2.22 179.676 59.847
2.23 181.494 60.886
2.24 181.221 62.703
2.25 191.080 64.931
2.26 195.175 66.119
2.27 195.546 66.051
2.28 194.691 64.855
2.29 192.427 62.315
2.30 187.884 58.002
2.31 --undefined-- 52.143
2.32 --undefined-- 49.457
2.33 --undefined-- 53.534
2.34 --undefined-- 57.358
2.35 160.318 62.222
2.36 161.152 67.488
2.37 158.004 71.309
2.38 154.390 73.461
2.39 150.983 73.790
2.40 148.099 72.175
2.41 144.645 68.899
2.42 140.053 65.590
2.43 136.147 64.188
2.44 130.381 64.090
2.45 125.259 65.937
2.46 124.231 68.846
2.47 124.701 71.229
2.48 124.459 72.783
2.49 125.049 73.754
2.50 126.638 74.663
2.51 129.073 75.678
2.52 131.303 76.305
2.53 132.628 75.534
2.54 131.877 72.236
2.55 128.145 65.955
2.56 127.379 62.641
2.57 125.228 66.239
2.58 126.775 68.327
2.59 125.102 68.430
2.60 124.237 67.285
2.61 120.638 65.875
2.62 119.392 64.430
2.63 118.928 62.717
2.64 115.687 60.107
2.65 --undefined-- 56.230
2.66 --undefined-- 54.409
2.67 --undefined-- 55.001
2.68 --undefined-- 55.005
2.69 --undefined-- 54.171
2.70 --undefined-- 53.270
2.71 --undefined-- 55.713
2.72 112.207 60.242
2.73 112.998 63.223
2.74 115.989 64.446
2.75 118.367 64.430
2.76 121.530 63.817
2.77 123.281 62.997
2.78 123.513 61.759
2.79 123.899 59.864
2.80 122.860 57.702
2.81 121.252 57.082
2.82 119.430 60.659
2.83 118.915 66.106
2.84 119.805 70.723
2.85 120.948 74.020
2.86 119.637 75.995
2.87 116.661 76.624
2.88 112.769 75.828
2.89 109.610 73.330
2.90 107.731 68.598
2.91 --undefined-- 61.509
2.92 --undefined-- 55.341
2.93 --undefined-- 53.737
2.94 --undefined-- 52.840
2.95 --undefined-- 51.788
2.96 --undefined-- 55.530
2.97 --undefined-- 63.644
2.98 --undefined-- 69.050
2.99 118.465 71.866
3.00 117.421 73.255
3.01 117.162 73.795
3.02 118.581 73.848
3.03 118.575 73.156
3.04 --undefined-- 70.613
3.05 --undefined-- 65.262
3.06 --undefined-- 56.428
3.07 --undefined-- 45.590
3.08 --undefined-- 39.859
3.09 --undefined-- 36.470
3.10 --undefined-- 33.424
3.11 --undefined-- 32.082
3.12 --undefined-- 34.441
3.13 --undefined-- 37.428
3.14 --undefined-- 39.825
3.15 --undefined-- 41.756
3.16 --undefined-- 43.713
3.17 --undefined-- 45.781
3.18 --undefined-- 48.452
3.19 --undefined-- 51.300
3.20 --undefined-- 54.429
3.21 161.037 58.089
3.22 160.544 61.552
3.23 158.972 64.414
3.24 163.177 66.252
3.25 163.531 67.233
3.26 163.549 67.940
3.27 163.483 68.630
3.28 163.252 69.099
3.29 162.440 69.240
3.30 161.131 68.793
3.31 158.946 67.010
3.32 152.622 63.192
3.33 --undefined-- 56.923
3.34 --undefined-- 50.872
3.35 --undefined-- 59.218
3.36 --undefined-- 67.429
3.37 140.041 72.382
3.38 132.164 74.569
3.39 128.035 74.582
3.40 122.204 73.246
3.41 118.513 71.993
3.42 118.187 71.695
3.43 118.668 71.337
3.44 118.963 70.496
3.45 119.984 69.744
3.46 120.073 68.956
3.47 115.901 66.927
3.48 --undefined-- 62.542
3.49 --undefined-- 54.805
3.50 --undefined-- 43.446
3.51 --undefined-- 38.055
3.52 --undefined-- 44.671
3.53 --undefined-- 50.949
3.54 --undefined-- 57.962
3.55 --undefined-- 65.009
3.56 157.704 70.229
3.57 155.205 73.619
3.58 153.806 75.322
3.59 152.580 75.513
3.60 151.759 74.384
3.61 148.511 71.806
3.62 137.706 67.255
3.63 --undefined-- 60.127
3.64 --undefined-- 50.899
3.65 --undefined-- 45.498
3.66 --undefined-- 43.840
3.67 --undefined-- 41.773
3.68 --undefined-- 43.377
3.69 --undefined-- 54.839
3.70 --undefined-- 64.977
3.71 149.418 71.735
3.72 147.472 75.507
3.73 143.241 76.695
3.74 136.903 75.596
3.75 133.927 72.378
3.76 132.718 67.219
3.77 128.911 61.334
3.78 128.952 58.447
3.79 128.188 58.451
3.80 128.369 59.858
3.81 129.275 61.602
3.82 129.672 62.679
3.83 129.167 62.827
3.84 125.075 62.575
3.85 122.583 62.066
3.86 120.354 60.369
3.87 --undefined-- 56.679
3.88 --undefined-- 51.105
3.89 --undefined-- 45.736
3.90 --undefined-- 43.247
3.91 --undefined-- 42.468
3.92 --undefined-- 42.392
3.93 --undefined-- 43.505
3.94 --undefined-- 43.188
3.95 --undefined-- 43.024
3.96 --undefined-- 49.269
3.97 133.321 56.048
3.98 135.651 60.653
3.99 141.552 63.360
4.00 148.492 65.017
4.01 153.093 66.354
4.02 155.305 67.231
4.03 154.904 66.507
4.04 --undefined-- 63.144
4.05 --undefined-- 56.149
4.06 --undefined-- 45.994
4.07 --undefined-- 47.729
4.08 --undefined-- 54.822
4.09 --undefined-- 61.498
4.10 133.169 66.007
4.11 128.556 67.867
4.12 124.175 67.463
4.13 121.452 65.799
4.14 117.140 63.363
4.15 112.547 59.521
4.16 --undefined-- 53.807
4.17 --undefined-- 46.379
4.18 --undefined-- 37.893
4.19 --undefined-- 31.745
4.20 --undefined-- 30.138
4.21 --undefined-- 35.723
4.22 --undefined-- 46.348
4.23 --undefined-- 52.913
4.24 --undefined-- 54.820
4.25 --undefined-- 53.540
4.26 --undefined-- 56.476
4.27 115.518 61.758
4.28 116.986 65.059
4.29 118.260 66.662
4.30 118.053 67.144
4.31 116.612 66.837
4.32 114.333 65.417
4.33 113.148 62.066
4.34 --undefined-- 56.179
4.35 --undefined-- 49.641
4.36 --undefined-- 51.083
4.37 107.947 54.366
4.38 108.576 56.426
4.39 108.956 56.883
4.40 107.008 55.195
4.41 --undefined-- 51.082
4.42 --undefined-- 44.905
4.43 --undefined-- 37.969
4.44 --undefined-- 33.853
4.45 --undefined-- 35.158
4.46 --undefined-- 43.890
4.47 --undefined-- 51.325
4.48 112.654 55.750
4.49 109.420 58.106
4.50 110.372 59.516
4.51 111.434 60.184
4.52 111.933 60.136
4.53 112.763 59.570
4.54 112.721 58.098
4.55 115.736 56.406
4.56 118.177 56.307
4.57 119.208 56.801
4.58 119.731 57.222
4.59 119.462 57.692
4.60 118.422 58.296
4.61 119.045 59.346
4.62 114.272 61.704
4.63 114.841 64.441
4.64 114.129 66.360
4.65 114.215 67.556
4.66 114.774 68.537
4.67 114.982 69.243
4.68 114.528 69.434
4.69 114.642 68.978
4.70 115.483 67.991
4.71 116.090 66.583
4.72 116.117 64.559
4.73 116.008 62.167
4.74 115.069 60.322
4.75 115.238 58.769
4.76 113.285 57.543
4.77 --undefined-- 60.844
4.78 --undefined-- 65.617
4.79 --undefined-- 67.913
4.80 --undefined-- 68.802
4.81 --undefined-- 69.135
4.82 --undefined-- 68.995
4.83 --undefined-- 68.132
4.84 --undefined-- 66.544
4.85 --undefined-- 63.480
4.86 --undefined-- 59.223
4.87 --undefined-- 54.472
4.88 --undefined-- 50.011
4.89 --undefined-- 46.465
4.90 --undefined-- 48.410
4.91 --undefined-- 52.344
4.92 --undefined-- 54.704
4.93 --undefined-- 58.100
4.94 --undefined-- 63.492
4.95 --undefined-- 67.125
4.96 --undefined-- 68.732
4.97 --undefined-- 68.815
4.98 --undefined-- 66.556
4.99 --undefined-- 61.004
5.00 --undefined-- 55.628
5.01 --undefined-- 63.048
5.02 --undefined-- 69.577
5.03 --undefined-- 73.942
5.04 --undefined-- 76.422
5.05 123.241 77.621
5.06 122.194 78.015
5.07 121.276 77.558
5.08 121.260 76.698
5.09 121.249 75.622
5.10 120.558 73.769
5.11 119.871 70.790
5.12 119.669 66.562
5.13 122.403 63.543
5.14 127.329 65.641
5.15 131.692 68.743
5.16 134.615 71.624
5.17 137.814 74.522
5.18 138.564 76.510
5.19 138.362 77.043
5.20 138.769 76.921
5.21 138.653 76.542
5.22 137.676 74.994
5.23 135.596 71.350
5.24 133.998 66.595
5.25 129.971 65.723
5.26 129.783 69.216
5.27 129.002 71.678
5.28 128.130 72.118
5.29 127.333 70.743
5.30 127.102 67.812
5.31 --undefined-- 62.904
5.32 --undefined-- 55.309
5.33 --undefined-- 44.342
5.34 --undefined-- 36.338
5.35 --undefined-- 38.545
5.36 --undefined-- 41.358
5.37 --undefined-- 42.901
5.38 --undefined-- 43.307
5.39 --undefined-- 43.400
5.40 --undefined-- 50.313
5.41 --undefined-- 63.406
5.42 --undefined-- 71.948
5.43 177.021 76.892
5.44 176.091 78.874
5.45 170.269 78.833
5.46 165.598 78.071
5.47 165.430 77.594
5.48 165.733 77.190
5.49 166.444 76.678
5.50 167.146 75.915
5.51 167.412 74.315
5.52 166.912 71.537
5.53 168.200 68.547
5.54 169.779 66.514
5.55 168.544 64.706
5.56 166.668 63.177
5.57 163.396 62.073
5.58 159.433 60.633
5.59 154.245 58.246
5.60 --undefined-- 54.631
5.61 --undefined-- 50.521
5.62 --undefined-- 47.790
5.63 --undefined-- 48.606
5.64 --undefined-- 52.727
5.65 128.304 57.134
5.66 130.192 59.964
5.67 132.389 61.220
5.68 133.599 61.840
5.69 135.799 62.471
5.70 138.870 62.736
5.71 140.400 62.141
5.72 140.882 60.590
5.73 141.435 58.138
5.74 137.875 55.144
5.75 --undefined-- 52.665
5.76 --undefined-- 53.799
5.77 140.297 57.999
5.78 143.781 --undefined--
5.79 144.279 --undefined--
5.80 --undefined-- --undefined--
5.81 --undefined-- --undefined--
