Time Pitch Intensity
0.01 --undefined-- --undefined--
0.02 --undefined-- --undefined--
0.03 --undefined-- --undefined--
0.04 --undefined-- --undefined--
0.05 --undefined-- 43.880
0.06 --undefined-- 46.849
0.07 --undefined-- 49.381
0.08 --undefined-- 51.088
0.09 --undefined-- 53.495
0.10 --undefined-- 55.787
0.11 --undefined-- 57.866
0.12 --undefined-- 62.290
0.13 109.515 66.075
0.14 108.752 67.923
0.15 104.797 68.592
0.16 104.319 68.747
0.17 100.668 68.565
0.18 97.790 67.923
0.19 95.156 66.556
0.20 93.008 64.501
0.21 96.024 63.442
0.22 98.467 63.830
0.23 98.919 64.509
0.24 96.986 64.825
0.25 94.846 63.968
0.26 89.137 61.425
0.27 --undefined-- 57.982
0.28 --undefined-- 59.048
0.29 --undefined-- 61.753
0.30 --undefined-- 63.030
0.31 --undefined-- 64.599
0.32 --undefined-- 67.205
0.33 --undefined-- 68.717
0.34 104.319 68.772
0.35 103.091 68.348
0.36 102.053 67.939
0.37 101.215 67.433
0.38 100.011 67.031
0.39 99.650 67.169
0.40 98.798 67.571
0.41 97.233 67.631
0.42 96.347 66.476
0.43 --undefined-- 63.086
0.44 --undefined-- 57.290
0.45 --undefined-- 55.829
0.46 --undefined-- 60.884
0.47 --undefined-- 64.401
0.48 85.373 66.292
0.49 102.536 67.657
0.50 100.088 67.947
0.51 94.942 66.755
0.52 93.383 64.860
0.53 93.445 64.017
0.54 94.970 64.287
0.55 96.341 65.011
0.56 94.586 65.798
0.57 94.383 66.318
0.58 95.794 66.686
0.59 97.144 67.095
0.60 98.581 67.323
0.61 101.124 66.809
0.62 100.892 65.199
0.63 102.109 63.457
0.64 108.266 63.477
0.65 114.389 64.534
0.66 118.362 64.974
0.67 120.210 64.840
0.68 133.880 67.462
0.69 141.852 71.115
0.70 141.977 72.808
0.71 141.335 72.731
0.72 142.040 72.254
0.73 143.715 72.419
0.74 144.391 72.954
0.75 144.476 73.354
0.76 144.398 73.433
0.77 143.229 73.307
0.78 142.083 73.131
0.79 140.667 72.785
0.80 138.972 72.133
0.81 138.966 71.564
0.82 142.529 71.628
0.83 142.434 71.885
0.84 141.773 71.915
0.85 140.699 71.480
0.86 139.676 70.129
0.87 138.367 67.474
0.88 133.744 63.666
0.89 133.876 60.921
0.90 --undefined-- 62.444
0.91 --undefined-- 64.595
0.92 --undefined-- 65.719
0.93 --undefined-- 65.352
0.94 --undefined-- 64.237
0.95 --undefined-- 67.431
0.96 --undefined-- 71.152
0.97 121.539 72.183
0.98 121.629 71.974
0.99 119.290 71.940
1.00 114.057 71.238
1.01 104.542 69.899
1.02 99.369 69.375
1.03 95.778 69.188
1.04 94.154 68.166
1.05 93.970 66.559
1.06 98.981 65.296
1.07 --undefined-- 64.418
1.08 --undefined-- 62.444
1.09 --undefined-- 59.677
1.10 84.393 59.414
1.11 86.070 59.964
1.12 84.762 58.994
1.13 82.321 55.812
1.14 --undefined-- 49.949
1.15 --undefined-- 43.993
1.16 --undefined-- 45.358
1.17 --undefined-- 48.441
1.18 --undefined-- 49.185
1.19 --undefined-- 48.339
1.20 --undefined-- 48.375
1.21 --undefined-- 49.029
1.22 --undefined-- 49.047
1.23 --undefined-- 48.759
1.24 --undefined-- 48.650
1.25 --undefined-- 48.839
1.26 --undefined-- 49.527
1.27 --undefined-- 49.825
1.28 --undefined-- 49.595
1.29 --undefined-- 49.439
1.30 --undefined-- 49.355
1.31 --undefined-- 49.266
1.32 --undefined-- 48.805
1.33 --undefined-- 47.844
1.34 --undefined-- 46.621
1.35 --undefined-- 45.444
1.36 --undefined-- 44.349
1.37 --undefined-- 43.624
1.38 --undefined-- 42.869
1.39 --undefined-- 42.336
1.40 --undefined-- 42.074
1.41 --undefined-- 41.046
1.42 --undefined-- 42.429
1.43 --undefined-- 46.931
1.44 --undefined-- 51.007
1.45 --undefined-- 57.560
1.46 --undefined-- 66.109
1.47 --undefined-- 71.444
1.48 143.316 73.520
1.49 141.252 73.601
1.50 141.822 73.299
1.51 144.105 73.372
1.52 146.677 73.732
1.53 148.518 74.151
1.54 149.093 73.798
1.55 147.620 71.718
1.56 143.601 67.464
1.57 146.047 64.227
1.58 152.760 68.520
1.59 146.101 71.812
1.60 134.931 72.501
1.61 125.575 71.598
1.62 121.230 69.521
1.63 108.589 66.200
1.64 101.454 63.199
1.65 101.973 62.817
1.66 102.413 63.229
1.67 99.361 63.283
1.68 97.332 63.502
1.69 96.949 64.167
1.70 99.327 65.275
1.71 106.191 66.596
1.72 109.983 67.820
1.73 112.926 68.721
1.74 118.274 69.524
1.75 127.719 70.614
1.76 136.155 71.978
1.77 143.683 73.281
1.78 150.340 73.884
1.79 152.034 73.013
1.80 146.325 70.165
1.81 151.218 66.854
1.82 153.597 68.300
1.83 168.938 72.055
1.84 169.774 74.152
1.85 172.278 74.665
1.86 173.615 74.424
1.87 173.180 74.269
1.88 172.095 74.423
1.89 170.502 74.257
1.90 166.926 73.204
1.91 165.831 71.157
1.92 165.684 67.862
1.93 167.992 63.084
1.94 167.328 57.359
1.95 170.772 52.966
1.96 168.615 51.923
1.97 167.256 51.507
1.98 168.819 50.401
1.99 168.059 49.258
2.00 166.438 50.631
2.01 166.614 59.123
2.02 163.419 66.415
2.03 139.284 70.480
2.04 133.618 72.057
2.05 129.551 72.274
2.06 127.640 72.324
2.07 127.344 72.395
2.08 126.188 72.122
2.09 124.918 71.675
2.10 123.994 71.253
2.11 121.649 70.434
2.12 118.400 69.238
2.13 123.525 68.761
2.14 123.738 68.842
2.15 121.816 68.969
2.16 119.633 69.297
2.17 118.826 69.792
2.18 123.179 70.378
2.19 121.880 70.702
2.20 117.205 70.594
2.21 115.248 70.438
2.22 115.106 70.691
2.23 115.994 71.105
2.24 116.466 71.505
2.25 116.712 71.758
2.26 118.871 71.496
2.27 124.236 71.089
2.28 130.405 71.449
2.29 133.321 72.270
2.30 135.434 72.831
2.31 136.059 72.408
2.32 135.804 70.021
2.33 123.702 64.958
2.34 141.099 57.845
2.35 142.713 57.006
2.36 147.633 62.987
2.37 137.742 67.143
2.38 130.719 68.745
2.39 123.776 68.329
2.40 117.218 66.834
2.41 115.608 65.362
2.42 108.641 64.039
2.43 105.924 63.419
2.44 105.253 63.859
2.45 105.013 64.617
2.46 104.372 65.050
2.47 102.961 65.044
2.48 102.217 64.909
2.49 101.313 64.827
2.50 100.595 64.934
2.51 101.076 65.371
2.52 101.333 65.800
2.53 101.675 66.129
2.54 104.049 67.076
2.55 107.851 68.518
2.56 103.226 69.188
2.57 105.152 69.213
2.58 107.762 69.750
2.59 112.040 71.039
2.60 115.467 72.334
2.61 118.830 72.822
2.62 126.154 72.741
2.63 135.226 73.241
2.64 140.147 74.133
2.65 143.967 74.615
2.66 149.534 74.838
2.67 154.619 74.872
2.68 162.393 74.164
2.69 169.457 72.408
2.70 168.217 69.651
2.71 167.062 66.499
2.72 164.895 63.734
2.73 160.125 60.758
2.74 154.637 57.163
2.75 156.064 55.649
2.76 179.648 59.811
2.77 178.533 64.437
2.78 181.851 67.894
2.79 190.760 70.290
2.80 194.167 71.718
2.81 194.632 72.462
2.82 192.312 72.854
2.83 202.508 72.593
2.84 204.287 71.140
2.85 183.998 69.450
2.86 180.580 69.491
2.87 177.503 69.882
2.88 164.623 69.007
2.89 157.892 66.462
2.90 165.807 62.736
2.91 159.772 60.200
2.92 151.949 60.661
2.93 151.814 65.325
2.94 151.087 70.209
2.95 150.178 72.818
2.96 143.055 73.125
2.97 131.166 71.965
2.98 124.030 71.096
2.99 121.522 70.844
3.00 120.873 70.590
3.01 121.868 70.759
3.02 122.176 70.880
3.03 122.349 70.550
3.04 123.223 69.780
3.05 126.060 68.880
3.06 131.502 68.747
3.07 137.464 69.675
3.08 141.756 70.785
3.09 147.060 71.767
3.10 153.182 72.834
3.11 158.465 73.773
3.12 161.575 74.285
3.13 165.619 74.458
3.14 170.201 74.407
3.15 173.973 74.067
3.16 172.625 73.066
3.17 170.591 71.067
3.18 165.394 67.866
3.19 168.291 62.944
3.20 172.093 56.365
3.21 171.948 51.174
3.22 171.023 49.847
3.23 170.366 49.897
3.24 --undefined-- 49.490
3.25 --undefined-- 49.688
3.26 --undefined-- 50.162
3.27 --undefined-- 49.423
3.28 --undefined-- 48.282
3.29 --undefined-- 47.724
3.30 --undefined-- 47.417
3.31 --undefined-- 47.091
3.32 --undefined-- 46.531
3.33 --undefined-- 45.641
3.34 --undefined-- 44.982
3.35 --undefined-- 45.288
3.36 --undefined-- 45.182
3.37 --undefined-- 43.590
3.38 --undefined-- 40.424
3.39 --undefined-- 37.322
3.40 --undefined-- 36.238
3.41 --undefined-- 37.507
3.42 --undefined-- 39.161
3.43 --undefined-- 40.138
3.44 --undefined-- 42.109
3.45 --undefined-- 46.435
3.46 --undefined-- 55.479
3.47 --undefined-- 64.046
3.48 198.347 69.473
3.49 194.856 72.144
3.50 190.194 72.856
3.51 184.193 72.236
3.52 178.103 71.184
3.53 176.718 70.784
3.54 177.652 70.886
3.55 180.726 71.348
3.56 182.460 72.197
3.57 185.079 72.780
3.58 185.834 72.436
3.59 185.245 71.733
3.60 187.238 71.724
3.61 187.936 71.969
3.62 188.027 72.102
3.63 187.859 72.188
3.64 187.149 72.190
3.65 184.796 71.746
3.66 178.605 70.313
3.67 172.603 67.658
3.68 173.858 63.957
3.69 174.376 59.887
3.70 --undefined-- 56.853
3.71 --undefined-- 56.121
3.72 --undefined-- 57.385
3.73 --undefined-- 63.678
3.74 194.028 69.793
3.75 190.553 72.635
3.76 187.947 73.031
3.77 185.595 72.451
3.78 183.435 71.667
3.79 180.880 70.352
3.80 179.552 68.709
3.81 185.410 68.449
3.82 185.773 69.188
3.83 185.480 69.633
3.84 184.841 69.737
3.85 183.318 69.633
3.86 181.126 69.590
3.87 178.587 69.870
3.88 175.957 70.410
3.89 173.690 70.815
3.90 167.398 70.594
3.91 157.238 69.342
3.92 146.935 66.575
3.93 134.001 62.447
3.94 --undefined-- 58.808
3.95 --undefined-- 57.530
3.96 --undefined-- 57.916
3.97 126.253 60.881
3.98 122.375 65.050
3.99 124.439 68.042
4.00 119.535 69.358
4.01 117.301 69.511
4.02 109.167 69.093
4.03 104.679 68.199
4.04 101.623 66.689
4.05 97.124 64.008
4.06 96.040 59.856
4.07 99.339 55.419
4.08 101.154 51.851
4.09 101.408 48.251
4.10 --undefined-- 44.650
4.11 --undefined-- 42.136
4.12 --undefined-- 42.322
4.13 --undefined-- 47.259
4.14 --undefined-- 53.656
4.15 --undefined-- 57.342
4.16 --undefined-- 58.587
4.17 --undefined-- 58.238
4.18 --undefined-- 56.524
4.19 --undefined-- 57.123
4.20 --undefined-- 64.884
4.21 160.533 70.611
4.22 158.272 72.890
4.23 147.900 72.650
4.24 141.607 71.465
4.25 140.509 70.375
4.26 138.297 69.100
4.27 136.795 67.758
4.28 135.970 67.249
4.29 135.949 67.430
4.30 135.355 67.625
4.31 134.350 67.825
4.32 133.833 68.177
4.33 132.994 68.564
4.34 131.958 68.863
4.35 131.529 69.018
4.36 130.515 68.642
4.37 128.580 67.172
4.38 121.632 64.350
4.39 119.363 60.796
4.40 119.860 59.676
4.41 123.963 63.937
4.42 122.389 67.998
4.43 117.451 69.895
4.44 110.086 69.799
4.45 106.027 68.807
4.46 103.056 68.092
4.47 101.688 67.635
4.48 99.180 67.064
4.49 98.093 66.467
4.50 97.744 66.041
4.51 97.772 65.729
4.52 97.541 65.285
4.53 97.689 64.003
4.54 95.072 61.967
4.55 98.493 61.661
4.56 103.757 63.218
4.57 105.979 64.602
4.58 109.619 65.759
4.59 113.344 66.955
4.60 115.661 68.108
4.61 117.327 68.825
4.62 118.853 69.158
4.63 120.515 69.481
4.64 121.311 69.859
4.65 121.804 70.147
4.66 121.137 70.272
4.67 119.482 70.228
4.68 118.268 70.105
4.69 117.170 69.809
4.70 113.833 69.339
4.71 118.231 69.078
4.72 117.569 68.772
4.73 115.583 67.763
4.74 --undefined-- 65.550
4.75 --undefined-- 63.465
4.76 --undefined-- 64.946
4.77 --undefined-- 66.517
4.78 --undefined-- 65.540
4.79 --undefined-- 64.054
4.80 --undefined-- 67.904
4.81 125.274 71.210
4.82 122.321 71.982
4.83 115.875 71.363
4.84 111.743 70.253
4.85 105.280 69.113
4.86 104.040 67.969
4.87 91.624 66.310
4.88 92.002 64.651
4.89 85.401 63.332
4.90 --undefined-- 61.973
4.91 --undefined-- 60.578
4.92 --undefined-- 59.774
4.93 --undefined-- 58.311
4.94 --undefined-- 54.815
4.95 --undefined-- 49.020
4.96 --undefined-- 43.057
4.97 --undefined-- 41.424
4.98 --undefined-- 41.248
4.99 --undefined-- 41.564
5.00 --undefined-- 41.523
5.01 --undefined-- 41.333
5.02 --undefined-- 42.524
5.03 --undefined-- 43.124
5.04 --undefined-- 42.471
5.05 --undefined-- 41.428
5.06 --undefined-- 40.611
5.07 --undefined-- 40.510
5.08 --undefined-- 42.671
5.09 --undefined-- 46.837
5.10 --undefined-- 50.667
5.11 --undefined-- 52.450
5.12 --undefined-- 52.317
5.13 --undefined-- 51.788
5.14 --undefined-- 51.670
5.15 --undefined-- 51.693
5.16 --undefined-- 51.649
5.17 --undefined-- 51.493
5.18 --undefined-- 51.535
5.19 --undefined-- 51.338
5.20 --undefined-- 51.286
5.21 --undefined-- 51.624
5.22 --undefined-- 52.482
5.23 --undefined-- 53.169
5.24 --undefined-- 52.966
5.25 --undefined-- --undefined--
5.26 --undefined-- --undefined--
5.27 --undefined-- --undefined--
5.28 --undefined-- --undefined--
