Time Pitch Intensity
0.01 --undefined-- --undefined--
0.02 183.087 --undefined--
0.03 182.551 --undefined--
0.04 180.948 --undefined--
0.05 178.662 68.760
0.06 175.738 66.314
0.07 169.163 63.088
0.08 172.088 59.155
0.09 --undefined-- 54.368
0.10 --undefined-- 55.063
0.11 --undefined-- 62.946
0.12 --undefined-- 69.940
0.13 --undefined-- 74.194
0.14 200.569 75.695
0.15 196.116 75.855
0.16 193.413 76.048
0.17 191.138 76.335
0.18 188.230 76.463
0.19 186.055 76.397
0.20 184.308 76.232
0.21 182.788 76.104
0.22 181.354 76.068
0.23 179.979 76.139
0.24 179.046 76.113
0.25 178.716 75.986
0.26 179.189 75.886
0.27 178.919 75.637
0.28 176.827 75.063
0.29 173.759 73.780
0.30 --undefined-- 71.082
0.31 --undefined-- 66.619
0.32 --undefined-- 60.121
0.33 --undefined-- 52.623
0.34 --undefined-- 48.393
0.35 --undefined-- 45.414
0.36 --undefined-- 42.866
0.37 --undefined-- 42.563
0.38 --undefined-- 44.105
0.39 --undefined-- 45.989
0.40 --undefined-- 47.007
0.41 --undefined-- 47.389
0.42 --undefined-- 47.657
0.43 --undefined-- 47.754
0.44 --undefined-- 47.469
0.45 --undefined-- 46.993
0.46 --undefined-- 46.834
0.47 --undefined-- 47.352
0.48 --undefined-- 48.512
0.49 --undefined-- 50.159
0.50 --undefined-- 51.960
0.51 --undefined-- 52.985
0.52 --undefined-- 52.879
0.53 --undefined-- 52.644
0.54 --undefined-- 53.119
0.55 --undefined-- 53.271
0.56 --undefined-- 53.936
0.57 --undefined-- 55.395
0.58 --undefined-- 55.962
0.59 --undefined-- 55.477
0.60 --undefined-- 54.627
0.61 --undefined-- 53.947
0.62 --undefined-- 53.831
0.63 --undefined-- 53.862
0.64 --undefined-- 53.771
0.65 --undefined-- 53.496
0.66 --undefined-- 52.833
0.67 --undefined-- 51.547
0.68 --undefined-- 49.950
0.69 --undefined-- 48.160
0.70 --undefined-- 46.317
0.71 --undefined-- 45.913
0.72 --undefined-- 45.996
0.73 --undefined-- 45.136
0.74 --undefined-- 44.534
0.75 --undefined-- 48.392
0.76 --undefined-- 55.876
0.77 --undefined-- 64.093
0.78 200.329 70.627
0.79 203.781 74.490
0.80 207.597 75.883
0.81 209.675 75.271
0.82 214.313 74.059
0.83 227.196 73.864
0.84 233.833 74.087
0.85 238.525 74.224
0.86 241.734 74.266
0.87 242.839 74.170
0.88 242.317 73.631
0.89 242.145 72.442
0.90 243.612 70.513
0.91 246.561 67.705
0.92 243.619 65.738
0.93 243.961 68.504
0.94 237.095 73.344
0.95 233.669 76.424
0.96 226.509 77.333
0.97 216.006 76.952
0.98 209.698 76.537
0.99 207.158 76.371
1.00 206.304 75.922
1.01 206.067 74.836
1.02 205.820 72.920
1.03 209.895 70.974
1.04 214.733 70.263
1.05 217.411 70.738
1.06 217.480 72.608
1.07 217.125 74.514
1.08 215.534 75.531
1.09 212.515 75.851
1.10 208.969 75.872
1.11 205.328 75.700
1.12 200.490 75.249
1.13 196.857 74.497
1.14 193.384 73.260
1.15 183.709 70.905
1.16 174.380 67.099
1.17 166.387 62.775
1.18 175.041 59.845
1.19 191.994 58.843
1.20 --undefined-- 64.277
1.21 --undefined-- 70.925
1.22 184.526 74.404
1.23 178.608 75.523
1.24 172.993 75.972
1.25 168.360 76.318
1.26 165.545 76.340
1.27 166.383 76.129
1.28 172.541 76.009
1.29 175.708 76.028
1.30 179.003 75.536
1.31 183.660 74.248
1.32 186.873 72.496
1.33 192.178 70.614
1.34 203.828 69.703
1.35 211.215 70.112
1.36 216.904 70.516
1.37 223.558 70.563
1.38 230.808 70.433
1.39 234.145 69.876
1.40 238.022 68.753
1.41 237.419 67.095
1.42 232.317 64.292
1.43 221.597 60.072
1.44 221.481 57.140
1.45 --undefined-- 58.493
1.46 --undefined-- 61.564
1.47 --undefined-- 63.277
1.48 --undefined-- 62.608
1.49 --undefined-- 61.092
1.50 188.079 63.211
1.51 200.289 66.067
1.52 190.238 67.074
1.53 175.877 66.950
1.54 164.909 67.842
1.55 161.106 70.133
1.56 159.206 72.270
1.57 158.245 73.653
1.58 157.243 74.437
1.59 155.883 74.980
1.60 156.161 75.316
1.61 156.945 75.311
1.62 157.406 75.053
1.63 158.715 74.890
1.64 160.530 75.288
1.65 162.655 75.968
1.66 165.450 76.129
1.67 168.087 75.192
1.68 164.635 72.599
1.69 160.618 67.995
1.70 169.570 62.398
1.71 192.951 59.729
1.72 192.083 63.668
1.73 221.413 70.222
1.74 215.899 74.544
1.75 213.791 76.404
1.76 212.662 76.455
1.77 211.067 75.522
1.78 209.406 74.044
1.79 206.376 72.539
1.80 204.247 71.801
1.81 204.020 71.471
1.82 203.482 70.873
1.83 205.339 69.722
1.84 211.016 67.661
1.85 220.059 64.081
1.86 --undefined-- 58.610
1.87 --undefined-- 52.762
1.88 --undefined-- 50.358
1.89 --undefined-- 50.188
1.90 --undefined-- 50.975
1.91 --undefined-- 54.718
1.92 --undefined-- 63.077
1.93 227.392 69.633
1.94 219.330 73.306
1.95 215.227 74.904
1.96 207.522 75.019
1.97 196.365 74.195
1.98 191.873 73.583
1.99 191.547 73.555
2.00 189.827 73.580
2.01 188.338 73.517
2.02 187.812 73.669
2.03 188.407 74.369
2.04 184.139 75.140
2.05 181.248 75.553
2.06 179.668 75.700
2.07 178.291 75.733
2.08 177.382 75.706
2.09 177.082 75.123
2.10 176.186 73.152
2.11 173.203 69.443
2.12 176.990 64.582
2.13 178.958 59.772
2.14 --undefined-- 56.823
2.15 --undefined-- 56.763
2.16 --undefined-- 62.014
2.17 --undefined-- 69.051
2.18 216.755 73.563
2.19 211.698 75.623
2.20 203.751 76.228
2.21 193.651 76.228
2.22 186.834 75.860
2.23 181.761 75.132
2.24 --undefined-- 73.859
2.25 --undefined-- 71.960
2.26 --undefined-- 69.714
2.27 --undefined-- 67.557
2.28 --undefined-- 66.682
2.29 135.166 67.555
2.30 149.880 69.022
2.31 169.236 70.336
2.32 176.009 71.080
2.33 175.702 71.251
2.34 172.448 71.129
2.35 167.823 70.978
2.36 166.177 70.911
2.37 164.790 70.732
2.38 163.486 70.336
2.39 160.974 69.915
2.40 160.435 70.191
2.41 165.959 71.776
2.42 165.099 73.432
2.43 163.561 74.238
2.44 159.922 74.505
2.45 156.358 74.443
2.46 153.840 74.172
2.47 153.433 73.953
2.48 154.448 73.599
2.49 152.981 72.718
2.50 153.169 71.821
2.51 156.767 71.450
2.52 156.597 71.215
2.53 156.040 70.927
2.54 156.299 70.413
2.55 155.590 69.477
2.56 154.340 68.058
2.57 162.742 65.954
2.58 174.055 62.380
2.59 152.392 56.916
2.60 166.663 52.710
2.61 161.259 51.460
2.62 157.649 50.461
2.63 --undefined-- 49.234
2.64 --undefined-- 49.524
2.65 --undefined-- 51.433
2.66 --undefined-- 59.882
2.67 --undefined-- 69.215
2.68 --undefined-- 74.360
2.69 --undefined-- 75.988
2.70 --undefined-- 75.100
2.71 --undefined-- 72.860
2.72 159.965 70.527
2.73 158.464 69.101
2.74 158.309 68.961
2.75 160.309 69.836
2.76 162.499 71.189
2.77 164.815 72.648
2.78 166.157 73.972
2.79 168.121 74.933
2.80 169.139 75.596
2.81 170.743 76.107
2.82 171.680 76.478
2.83 172.916 76.427
2.84 175.204 76.106
2.85 176.042 76.122
2.86 175.304 76.175
2.87 174.419 75.706
2.88 174.784 74.946
2.89 174.556 74.586
2.90 173.546 74.619
2.91 172.542 74.296
2.92 171.233 73.104
2.93 167.605 71.054
2.94 166.573 69.220
2.95 167.297 68.730
2.96 166.669 69.048
2.97 166.923 70.315
2.98 166.181 72.154
2.99 162.964 73.368
3.00 157.401 73.528
3.01 153.810 73.029
3.02 150.301 72.518
3.03 148.961 71.896
3.04 147.595 70.842
3.05 147.641 69.930
3.06 152.241 69.804
3.07 154.890 69.999
3.08 157.591 70.337
3.09 158.456 70.803
3.10 158.786 70.988
3.11 158.157 70.652
3.12 154.965 69.702
3.13 151.572 67.869
3.14 151.495 65.008
3.15 153.876 61.558
3.16 184.838 58.624
3.17 --undefined-- 58.046
3.18 --undefined-- 65.156
3.19 191.747 71.658
3.20 185.490 74.882
3.21 177.669 75.829
3.22 174.706 75.933
3.23 172.500 75.941
3.24 171.038 75.839
3.25 170.113 75.687
3.26 169.811 75.726
3.27 169.569 76.006
3.28 169.546 76.322
3.29 169.009 76.463
3.30 168.761 76.301
3.31 168.341 75.851
3.32 167.177 75.128
3.33 165.186 74.157
3.34 163.447 72.960
3.35 162.266 71.476
3.36 161.443 69.733
3.37 160.177 68.167
3.38 159.867 67.670
3.39 162.228 68.601
3.40 163.698 70.629
3.41 167.231 72.952
3.42 168.894 74.526
3.43 167.952 75.084
3.44 166.502 75.212
3.45 165.242 75.229
3.46 164.623 75.043
3.47 163.568 74.746
3.48 162.784 74.636
3.49 161.244 74.588
3.50 159.971 74.244
3.51 159.478 73.702
3.52 159.306 73.300
3.53 159.261 73.061
3.54 159.852 72.953
3.55 160.659 72.968
3.56 161.715 73.036
3.57 163.020 73.154
3.58 163.549 73.094
3.59 165.198 72.944
3.60 170.333 73.114
3.61 180.153 73.668
3.62 189.979 74.406
3.63 206.334 75.243
3.64 223.737 76.025
3.65 230.361 76.314
3.66 236.667 76.150
3.67 241.856 75.730
3.68 247.010 74.796
3.69 253.801 73.078
3.70 258.404 70.082
3.71 256.385 65.389
3.72 244.825 59.405
3.73 --undefined-- 53.672
3.74 --undefined-- 50.888
3.75 --undefined-- 50.421
3.76 --undefined-- 50.519
3.77 --undefined-- 50.868
3.78 --undefined-- 50.842
3.79 --undefined-- 50.986
3.80 --undefined-- 52.114
3.81 --undefined-- 52.918
3.82 --undefined-- 53.020
3.83 --undefined-- 53.296
3.84 --undefined-- 53.804
3.85 --undefined-- 54.165
3.86 --undefined-- 54.167
3.87 --undefined-- 53.830
3.88 --undefined-- 53.076
3.89 --undefined-- 52.732
3.90 --undefined-- 52.636
3.91 --undefined-- 51.607
3.92 --undefined-- 50.319
3.93 --undefined-- 49.374
3.94 --undefined-- 48.096
3.95 --undefined-- 46.205
3.96 --undefined-- 44.412
3.97 --undefined-- 43.377
3.98 --undefined-- 42.640
3.99 --undefined-- 42.439
4.00 --undefined-- 42.733
4.01 --undefined-- 43.591
4.02 --undefined-- 45.123
4.03 --undefined-- 47.047
4.04 --undefined-- 49.139
4.05 --undefined-- 54.091
4.06 --undefined-- 63.839
4.07 297.953 71.367
4.08 296.811 75.500
4.09 294.948 77.159
4.10 296.064 77.510
4.11 297.525 77.470
4.12 299.748 77.273
4.13 150.935 76.853
4.14 150.367 75.722
4.15 147.139 74.020
4.16 146.628 72.946
4.17 146.219 72.739
4.18 146.792 72.846
4.19 146.811 72.828
4.20 146.085 72.402
4.21 144.524 71.455
4.22 142.420 70.024
4.23 140.284 68.087
4.24 139.327 65.516
4.25 141.841 63.491
4.26 145.614 64.618
4.27 148.646 67.637
4.28 154.339 70.616
4.29 162.819 73.217
4.30 169.735 75.255
4.31 175.720 76.430
4.32 183.755 76.665
4.33 195.690 76.457
4.34 208.068 76.335
4.35 205.806 75.810
4.36 196.320 73.655
4.37 185.063 68.994
4.38 --undefined-- 61.729
4.39 --undefined-- 55.679
4.40 --undefined-- 56.345
4.41 --undefined-- 59.491
4.42 --undefined-- 62.255
4.43 --undefined-- 67.846
4.44 248.480 73.311
4.45 242.813 75.968
4.46 224.921 76.388
4.47 197.081 76.311
4.48 182.662 77.071
4.49 169.263 77.996
4.50 163.162 78.097
4.51 162.656 77.134
4.52 165.931 75.629
4.53 166.401 74.190
4.54 162.807 72.234
4.55 160.184 69.058
4.56 156.844 64.959
4.57 157.112 61.463
4.58 163.126 58.704
4.59 160.968 58.869
4.60 189.069 64.905
4.61 191.509 70.072
4.62 190.751 73.066
4.63 --undefined-- 74.077
4.64 82.615 73.211
4.65 83.006 70.926
4.66 --undefined-- 68.643
4.67 --undefined-- 67.747
4.68 --undefined-- 68.628
4.69 --undefined-- 71.525
4.70 --undefined-- 74.321
4.71 --undefined-- 75.841
4.72 221.364 76.458
4.73 231.723 76.553
4.74 238.104 76.117
4.75 240.772 75.300
4.76 239.752 74.042
4.77 235.603 72.025
4.78 229.880 68.535
4.79 218.742 63.355
4.80 222.280 58.380
4.81 --undefined-- 54.198
4.82 --undefined-- 55.965
4.83 --undefined-- 64.612
4.84 212.855 70.570
4.85 206.784 74.022
4.86 201.137 75.310
4.87 189.279 75.244
4.88 181.741 75.010
4.89 177.737 75.056
4.90 176.326 74.876
4.91 176.281 74.131
4.92 176.808 72.661
4.93 180.482 70.399
4.94 179.888 67.974
4.95 171.522 66.223
4.96 171.016 65.537
4.97 168.757 65.664
4.98 166.641 66.414
4.99 164.403 68.264
5.00 166.867 70.979
5.01 173.923 73.488
5.02 182.329 75.246
5.03 191.001 76.024
5.04 196.680 75.885
5.05 202.621 75.239
5.06 212.508 74.483
5.07 219.015 73.979
5.08 225.067 73.107
5.09 241.568 71.676
5.10 240.517 70.715
5.11 235.731 70.486
5.12 231.712 70.549
5.13 227.642 --undefined--
5.14 223.739 --undefined--
5.15 --undefined-- --undefined--
5.16 --undefined-- --undefined--
