Time Pitch Intensity
0.01 --undefined-- --undefined--
0.02 177.030 --undefined--
0.03 177.766 --undefined--
0.04 178.117 --undefined--
0.05 178.140 69.800
0.06 176.868 69.561
0.07 173.955 69.106
0.08 175.935 68.627
0.09 177.114 67.846
0.10 177.801 67.002
0.11 171.290 66.347
0.12 167.340 66.186
0.13 165.466 66.930
0.14 164.568 67.360
0.15 163.789 66.929
0.16 163.199 66.141
0.17 164.042 65.653
0.18 165.652 65.403
0.19 167.363 65.235
0.20 169.455 65.251
0.21 172.052 65.280
0.22 174.107 64.710
0.23 175.707 62.376
0.24 --undefined-- 57.483
0.25 --undefined-- 52.652
0.26 --undefined-- 55.401
0.27 --undefined-- 62.022
0.28 --undefined-- 65.829
0.29 --undefined-- 66.404
0.30 --undefined-- 65.413
0.31 163.517 65.233
0.32 164.889 65.579
0.33 164.439 65.333
0.34 162.800 64.822
0.35 163.746 64.907
0.36 165.882 65.739
0.37 167.782 66.718
0.38 170.111 67.651
0.39 176.551 68.790
0.40 182.272 70.197
0.41 187.370 71.206
0.42 191.968 70.698
0.43 197.246 68.301
0.44 199.901 65.354
0.45 200.109 63.315
0.46 209.810 60.758
0.47 208.933 58.269
0.48 --undefined-- 56.997
0.49 --undefined-- 55.290
0.50 --undefined-- 53.712
0.51 --undefined-- 57.780
0.52 --undefined-- 64.216
0.53 204.004 68.735
0.54 196.969 71.681
0.55 189.187 73.532
0.56 187.921 74.210
0.57 187.864 73.665
0.58 185.618 72.153
0.59 184.064 70.457
0.60 184.537 69.633
0.61 185.322 69.654
0.62 186.793 69.597
0.63 186.787 68.656
0.64 184.572 66.614
0.65 184.590 63.553
0.66 --undefined-- 60.521
0.67 --undefined-- 59.895
0.68 207.637 62.661
0.69 209.973 65.697
0.70 218.374 67.527
0.71 222.600 68.962
0.72 225.749 70.482
0.73 229.002 71.462
0.74 233.801 71.706
0.75 236.078 71.708
0.76 236.839 71.851
0.77 236.574 72.346
0.78 234.320 73.318
0.79 231.250 74.284
0.80 226.101 74.769
0.81 220.603 74.353
0.82 219.106 72.761
0.83 216.813 70.644
0.84 211.377 69.106
0.85 203.876 67.906
0.86 192.679 67.260
0.87 191.712 67.028
0.88 188.086 66.204
0.89 --undefined-- 64.513
0.90 --undefined-- 63.666
0.91 --undefined-- 64.384
0.92 --undefined-- 63.941
0.93 --undefined-- 62.423
0.94 --undefined-- 63.390
0.95 --undefined-- 64.642
0.96 --undefined-- 64.179
0.97 --undefined-- 61.986
0.98 --undefined-- 60.432
0.99 --undefined-- 61.888
1.00 --undefined-- 62.596
1.01 --undefined-- 61.460
1.02 --undefined-- 58.332
1.03 --undefined-- 54.339
1.04 --undefined-- 56.326
1.05 --undefined-- 60.241
1.06 --undefined-- 61.342
1.07 --undefined-- 59.526
1.08 --undefined-- 56.882
1.09 --undefined-- 55.773
1.10 --undefined-- 54.173
1.11 --undefined-- 52.359
1.12 --undefined-- 52.401
1.13 --undefined-- 53.445
1.14 --undefined-- 54.050
1.15 --undefined-- 53.785
1.16 --undefined-- 54.126
1.17 --undefined-- 54.165
1.18 --undefined-- 51.979
1.19 --undefined-- 50.436
1.20 --undefined-- 53.953
1.21 --undefined-- 55.996
1.22 --undefined-- 56.606
1.23 --undefined-- 58.554
1.24 --undefined-- 60.176
1.25 --undefined-- 60.137
1.26 --undefined-- 58.520
1.27 --undefined-- 56.872
1.28 --undefined-- 58.750
1.29 --undefined-- 61.438
1.30 --undefined-- 62.564
1.31 --undefined-- 61.678
1.32 --undefined-- 60.422
1.33 --undefined-- 61.980
1.34 --undefined-- 63.140
1.35 --undefined-- 62.088
1.36 --undefined-- 59.463
1.37 298.230 58.676
1.38 293.150 61.549
1.39 280.527 63.095
1.40 278.883 61.813
1.41 279.642 58.072
1.42 --undefined-- 54.474
1.43 --undefined-- 53.370
1.44 --undefined-- 55.302
1.45 --undefined-- 58.706
1.46 --undefined-- 60.703
1.47 263.783 63.175
1.48 253.029 66.275
1.49 262.967 69.325
1.50 269.111 72.002
1.51 275.319 73.821
1.52 283.032 74.858
1.53 291.348 75.178
1.54 299.964 75.098
1.55 152.788 74.950
1.56 157.669 75.052
1.57 163.401 75.439
1.58 166.819 75.856
1.59 169.767 76.154
1.60 174.862 76.403
1.61 183.348 77.071
1.62 186.273 77.799
1.63 191.496 77.441
1.64 196.437 75.437
1.65 206.088 72.271
1.66 218.863 70.422
1.67 230.606 70.410
1.68 233.576 70.495
1.69 235.370 70.076
1.70 232.375 68.673
1.71 227.044 66.503
1.72 227.974 65.328
1.73 221.690 65.147
1.74 213.964 65.236
1.75 214.294 66.947
1.76 196.533 69.280
1.77 183.684 70.632
1.78 --undefined-- 70.539
1.79 294.794 70.015
1.80 278.774 70.293
1.81 251.422 70.531
1.82 232.988 69.969
1.83 215.018 69.297
1.84 205.934 69.136
1.85 204.079 68.654
1.86 207.088 67.860
1.87 211.643 67.534
1.88 216.583 67.576
1.89 225.548 67.881
1.90 232.624 68.977
1.91 238.017 70.237
1.92 241.084 70.420
1.93 242.439 69.591
1.94 245.750 69.248
1.95 249.161 69.849
1.96 252.901 70.595
1.97 256.441 71.058
1.98 259.833 70.837
1.99 263.986 69.614
2.00 265.752 67.212
2.01 260.206 63.554
2.02 258.840 59.634
2.03 255.835 57.283
2.04 254.334 55.650
2.05 253.488 54.645
2.06 248.667 56.523
2.07 249.313 60.630
2.08 238.920 63.787
2.09 243.376 65.359
2.10 248.177 66.085
2.11 228.845 66.784
2.12 206.205 67.952
2.13 194.919 68.920
2.14 189.049 69.092
2.15 187.035 69.083
2.16 186.993 69.397
2.17 187.991 70.009
2.18 190.153 70.457
2.19 193.068 70.111
2.20 198.038 68.971
2.21 207.222 67.908
2.22 217.322 67.583
2.23 222.873 66.989
2.24 223.991 65.397
2.25 247.735 64.882
2.26 287.640 67.290
2.27 151.736 69.626
2.28 158.786 70.986
2.29 168.823 72.184
2.30 176.328 73.553
2.31 180.672 74.845
2.32 182.967 76.224
2.33 184.626 77.468
2.34 185.730 78.225
2.35 185.751 78.649
2.36 184.732 78.952
2.37 183.862 79.031
2.38 183.237 78.741
2.39 182.696 78.012
2.40 182.810 76.511
2.41 183.685 73.557
2.42 188.105 68.696
2.43 187.504 62.817
2.44 186.344 58.333
2.45 181.070 57.692
2.46 --undefined-- 60.916
2.47 --undefined-- 62.667
2.48 --undefined-- 61.707
2.49 --undefined-- 60.795
2.50 --undefined-- 60.930
2.51 --undefined-- 60.851
2.52 --undefined-- 62.034
2.53 --undefined-- 64.153
2.54 259.916 64.761
2.55 269.427 64.401
2.56 284.429 66.275
2.57 297.844 68.168
2.58 288.126 68.472
2.59 269.229 67.841
2.60 261.045 67.239
2.61 256.264 67.793
2.62 254.034 69.107
2.63 252.671 69.809
2.64 251.849 69.809
2.65 251.610 69.764
2.66 251.996 69.909
2.67 252.077 70.167
2.68 250.747 70.538
2.69 249.546 70.757
2.70 249.784 70.695
2.71 250.055 70.553
2.72 249.419 70.202
2.73 249.196 69.060
2.74 250.770 67.316
2.75 248.540 67.012
2.76 246.702 67.187
2.77 252.111 65.392
2.78 --undefined-- 62.526
2.79 --undefined-- 63.522
2.80 216.158 65.587
2.81 202.386 66.036
2.82 195.447 64.799
2.83 167.538 64.764
2.84 159.642 67.752
2.85 152.210 70.082
2.86 151.808 71.268
2.87 152.986 72.018
2.88 154.374 73.046
2.89 153.787 73.732
2.90 151.077 73.615
2.91 150.209 73.028
2.92 149.701 71.864
2.93 150.299 70.519
2.94 152.034 69.792
2.95 154.032 69.673
2.96 157.134 70.015
2.97 160.193 70.535
2.98 161.564 70.850
2.99 162.075 71.002
3.00 161.875 71.116
3.01 161.350 71.100
3.02 160.494 70.839
3.03 158.655 70.247
3.04 155.927 69.158
3.05 153.583 67.163
3.06 --undefined-- 63.880
3.07 296.886 60.131
3.08 --undefined-- 57.132
3.09 --undefined-- 53.842
3.10 --undefined-- 53.058
3.11 --undefined-- 54.471
3.12 --undefined-- 54.359
3.13 --undefined-- 54.594
3.14 --undefined-- 55.604
3.15 --undefined-- 54.648
3.16 --undefined-- 54.073
3.17 --undefined-- 55.807
3.18 --undefined-- 58.071
3.19 --undefined-- 61.342
3.20 --undefined-- 63.460
3.21 --undefined-- 63.090
3.22 --undefined-- 61.279
3.23 255.400 63.023
3.24 225.828 66.209
3.25 218.040 68.520
3.26 215.028 70.053
3.27 214.071 71.145
3.28 213.755 71.659
3.29 210.826 71.236
3.30 209.413 70.853
3.31 211.327 71.412
3.32 213.485 71.899
3.33 215.659 71.409
3.34 219.251 69.535
3.35 223.438 66.105
3.36 215.538 61.515
3.37 217.851 57.969
3.38 216.058 55.901
3.39 214.671 54.987
3.40 --undefined-- 55.366
3.41 --undefined-- 54.923
3.42 --undefined-- 54.810
3.43 --undefined-- 57.449
3.44 --undefined-- 62.684
3.45 --undefined-- 65.456
3.46 --undefined-- 65.107
3.47 --undefined-- 62.478
3.48 --undefined-- 61.719
3.49 --undefined-- 64.091
3.50 --undefined-- 65.396
3.51 --undefined-- 65.098
3.52 288.583 64.772
3.53 262.534 66.225
3.54 258.398 68.195
3.55 258.044 69.272
3.56 259.126 69.405
3.57 260.635 69.035
3.58 261.872 68.556
3.59 262.296 68.228
3.60 262.209 68.099
3.61 261.594 68.025
3.62 260.762 67.995
3.63 260.622 68.106
3.64 261.061 68.435
3.65 262.153 68.821
3.66 263.174 68.840
3.67 263.609 68.393
3.68 262.620 67.730
3.69 258.513 66.679
3.70 255.442 64.453
3.71 258.877 61.134
3.72 261.586 61.455
3.73 258.314 64.505
3.74 264.610 66.289
3.75 200.365 67.654
3.76 186.578 68.669
3.77 180.466 68.595
3.78 179.931 67.585
3.79 175.828 66.384
3.80 173.635 65.869
3.81 173.266 66.314
3.82 174.405 66.753
3.83 177.448 66.772
3.84 183.017 67.261
3.85 186.874 67.930
3.86 188.189 67.197
3.87 187.468 64.129
3.88 188.316 58.817
3.89 --undefined-- 54.353
3.90 --undefined-- 56.822
3.91 214.180 60.192
3.92 202.912 61.678
3.93 203.049 62.210
3.94 203.707 62.539
3.95 205.367 63.376
3.96 188.687 65.874
3.97 177.967 68.093
3.98 172.959 68.833
3.99 172.714 68.583
4.00 174.449 68.148
4.01 177.291 68.426
4.02 181.570 69.539
4.03 184.475 70.707
4.04 187.085 71.368
4.05 188.636 70.997
4.06 187.815 69.025
4.07 188.794 65.775
4.08 187.925 63.205
4.09 --undefined-- 61.887
4.10 --undefined-- 60.967
4.11 --undefined-- 62.277
4.12 --undefined-- 63.715
4.13 205.194 65.750
4.14 202.813 68.648
4.15 192.153 71.015
4.16 187.029 72.385
4.17 184.519 72.626
4.18 184.397 72.214
4.19 185.624 71.859
4.20 185.576 72.005
4.21 181.549 72.709
4.22 175.985 72.851
4.23 175.260 71.584
4.24 173.666 69.606
4.25 182.651 68.684
4.26 180.206 68.588
4.27 178.452 68.161
4.28 178.534 67.055
4.29 --undefined-- 65.599
4.30 --undefined-- 63.674
4.31 --undefined-- 60.958
4.32 --undefined-- 58.665
4.33 188.604 57.090
4.34 192.549 55.441
4.35 --undefined-- 54.452
4.36 --undefined-- 54.153
4.37 --undefined-- 52.697
4.38 --undefined-- 51.048
4.39 --undefined-- 51.091
4.40 --undefined-- 50.933
4.41 --undefined-- 50.639
4.42 --undefined-- 51.638
4.43 --undefined-- 58.265
4.44 --undefined-- 64.456
4.45 223.797 68.026
4.46 223.677 69.614
4.47 220.539 70.130
4.48 219.750 70.488
4.49 220.587 70.905
4.50 222.758 71.034
4.51 225.676 70.877
4.52 228.417 70.720
4.53 230.434 70.530
4.54 231.864 70.015
4.55 233.832 69.213
4.56 235.394 68.286
4.57 237.151 67.278
4.58 240.159 66.319
4.59 243.575 65.835
4.60 245.885 65.766
4.61 248.131 65.666
4.62 246.782 64.619
4.63 240.686 61.993
4.64 --undefined-- 58.076
4.65 --undefined-- 54.952
4.66 --undefined-- 52.968
4.67 --undefined-- 51.760
4.68 --undefined-- 53.918
4.69 --undefined-- 55.299
4.70 --undefined-- 56.573
4.71 --undefined-- 61.158
4.72 --undefined-- 63.977
4.73 84.142 64.212
4.74 87.091 63.378
4.75 87.052 62.983
4.76 --undefined-- 62.453
4.77 --undefined-- 60.756
4.78 --undefined-- 57.428
4.79 --undefined-- 55.085
4.80 --undefined-- 56.817
4.81 --undefined-- 59.197
4.82 --undefined-- 61.867
4.83 --undefined-- 64.214
4.84 89.485 65.347
4.85 88.709 65.770
4.86 88.567 65.926
4.87 88.504 66.185
4.88 88.315 66.618
4.89 175.360 66.813
4.90 175.324 66.738
4.91 175.547 66.743
4.92 176.046 66.741
4.93 176.435 66.606
4.94 175.661 66.352
4.95 178.270 66.448
4.96 181.192 --undefined--
4.97 182.348 --undefined--
4.98 --undefined-- --undefined--
4.99 --undefined-- --undefined--
