Time Pitch Intensity
0.01 --undefined-- --undefined--
0.02 108.171 --undefined--
0.03 107.273 --undefined--
0.04 108.782 --undefined--
0.05 110.902 76.383
0.06 111.828 76.883
0.07 112.570 77.447
0.08 110.731 77.839
0.09 108.376 77.876
0.10 108.065 77.655
0.11 108.666 77.461
0.12 110.829 77.407
0.13 114.392 77.412
0.14 121.102 77.520
0.15 125.592 77.286
0.16 134.060 75.793
0.17 136.689 72.806
0.18 178.298 71.354
0.19 195.854 73.186
0.20 212.993 75.292
0.21 224.643 76.762
0.22 232.837 77.714
0.23 239.055 78.376
0.24 241.362 78.653
0.25 239.862 78.198
0.26 235.151 76.297
0.27 237.005 72.153
0.28 --undefined-- 66.193
0.29 --undefined-- 63.516
0.30 --undefined-- 64.732
0.31 --undefined-- 66.890
0.32 --undefined-- 68.559
0.33 --undefined-- 68.804
0.34 --undefined-- 70.573
0.35 --undefined-- 74.977
0.36 175.198 77.817
0.37 166.517 78.389
0.38 154.429 77.775
0.39 137.534 77.177
0.40 123.013 76.803
0.41 113.152 76.580
0.42 106.144 76.444
0.43 100.814 76.417
0.44 100.359 76.625
0.45 102.073 76.920
0.46 101.331 76.934
0.47 102.543 76.542
0.48 103.076 75.678
0.49 103.257 74.507
0.50 104.509 73.482
0.51 108.095 72.970
0.52 113.520 73.305
0.53 118.780 74.367
0.54 121.371 75.631
0.55 126.735 76.902
0.56 134.608 77.660
0.57 141.133 77.670
0.58 144.559 77.597
0.59 147.438 77.832
0.60 151.323 77.991
0.61 158.258 77.590
0.62 167.868 76.593
0.63 180.117 75.401
0.64 190.375 73.903
0.65 189.301 70.866
0.66 173.725 65.548
0.67 165.159 59.289
0.68 169.055 55.999
0.69 168.146 54.942
0.70 166.815 53.941
0.71 --undefined-- 55.372
0.72 --undefined-- 60.418
0.73 --undefined-- 65.269
0.74 --undefined-- 68.175
0.75 --undefined-- 69.074
0.76 --undefined-- 72.130
0.77 --undefined-- 75.977
0.78 --undefined-- 77.032
0.79 173.364 76.407
0.80 167.462 76.282
0.81 162.733 76.244
0.82 158.481 75.467
0.83 150.384 74.951
0.84 149.452 75.435
0.85 145.210 75.754
0.86 142.805 75.684
0.87 141.933 75.571
0.88 141.842 75.662
0.89 142.736 75.928
0.90 142.728 76.036
0.91 141.046 76.021
0.92 143.153 76.451
0.93 146.200 76.815
0.94 149.344 75.759
0.95 144.819 73.827
0.96 142.569 73.607
0.97 145.947 75.012
0.98 145.804 76.500
0.99 136.328 76.852
1.00 113.992 76.031
1.01 101.553 75.153
1.02 97.274 74.441
1.03 98.203 73.629
1.04 100.439 73.281
1.05 100.468 73.504
1.06 103.440 73.835
1.07 105.077 74.030
1.08 108.676 74.169
1.09 111.910 74.307
1.10 117.340 74.629
1.11 123.724 75.193
1.12 133.577 75.734
1.13 147.502 76.103
1.14 152.607 76.256
1.15 164.859 76.090
1.16 168.111 74.974
1.17 165.244 72.001
1.18 165.004 66.988
1.19 168.266 61.230
1.20 169.568 57.195
1.21 161.542 60.046
1.22 --undefined-- 67.896
1.23 --undefined-- 72.933
1.24 --undefined-- 75.822
1.25 162.606 77.455
1.26 157.694 77.998
1.27 144.688 77.729
1.28 138.567 77.133
1.29 135.407 76.305
1.30 133.875 74.641
1.31 --undefined-- 71.165
1.32 --undefined-- 65.171
1.33 --undefined-- 58.989
1.34 129.780 57.607
1.35 134.532 56.187
1.36 132.568 53.609
1.37 --undefined-- 50.873
1.38 --undefined-- 48.115
1.39 --undefined-- 48.783
1.40 --undefined-- 60.552
1.41 --undefined-- 69.892
1.42 --undefined-- 74.874
1.43 --undefined-- 76.368
1.44 128.951 75.377
1.45 122.027 73.001
1.46 110.300 69.386
1.47 --undefined-- 64.452
1.48 --undefined-- 60.046
1.49 130.771 56.809
1.50 126.987 53.695
1.51 --undefined-- 50.473
1.52 --undefined-- 47.072
1.53 --undefined-- 45.842
1.54 --undefined-- 46.288
1.55 --undefined-- 46.282
1.56 --undefined-- 46.076
1.57 --undefined-- 54.016
1.58 --undefined-- 62.715
1.59 --undefined-- 68.008
1.60 --undefined-- 72.064
1.61 182.906 75.376
1.62 168.469 76.794
1.63 163.283 76.569
1.64 159.151 74.911
1.65 149.888 71.179
1.66 162.843 65.320
1.67 165.886 59.330
1.68 167.591 54.980
1.69 166.569 52.743
1.70 159.700 52.103
1.71 159.220 51.513
1.72 --undefined-- 49.316
1.73 --undefined-- 46.226
1.74 --undefined-- 43.642
1.75 --undefined-- 40.621
1.76 --undefined-- 40.178
1.77 --undefined-- 41.750
1.78 --undefined-- 41.438
1.79 --undefined-- 39.307
1.80 --undefined-- 37.840
1.81 --undefined-- 37.715
1.82 --undefined-- 37.802
1.83 --undefined-- 38.353
1.84 --undefined-- 39.178
1.85 --undefined-- 39.276
1.86 --undefined-- 37.968
1.87 --undefined-- 37.155
1.88 --undefined-- 38.568
1.89 --undefined-- 39.979
1.90 --undefined-- 40.435
1.91 --undefined-- 42.313
1.92 --undefined-- 52.548
1.93 --undefined-- 61.315
1.94 --undefined-- 66.310
1.95 --undefined-- 69.569
1.96 --undefined-- 73.439
1.97 --undefined-- 76.336
1.98 119.150 77.363
1.99 113.501 77.243
2.00 108.617 76.923
2.01 105.830 76.768
2.02 104.643 76.741
2.03 103.030 76.820
2.04 101.789 76.809
2.05 99.685 76.543
2.06 96.828 76.481
2.07 100.703 77.075
2.08 105.800 77.521
2.09 106.986 77.338
2.10 108.580 76.803
2.11 111.055 76.243
2.12 114.812 75.835
2.13 119.937 75.595
2.14 126.157 75.475
2.15 129.917 75.355
2.16 135.980 75.393
2.17 141.001 75.796
2.18 143.834 76.151
2.19 147.184 76.252
2.20 152.306 76.401
2.21 156.716 76.647
2.22 161.524 76.848
2.23 165.147 77.050
2.24 169.585 77.257
2.25 173.579 77.458
2.26 176.485 77.644
2.27 177.694 77.763
2.28 176.146 77.393
2.29 172.951 75.718
2.30 173.532 71.844
2.31 180.865 65.432
2.32 --undefined-- 61.898
2.33 --undefined-- 64.544
2.34 --undefined-- 67.088
2.35 --undefined-- 68.631
2.36 --undefined-- 69.034
2.37 --undefined-- 69.948
2.38 --undefined-- 72.295
2.39 --undefined-- 74.350
2.40 --undefined-- 75.356
2.41 --undefined-- 75.562
2.42 --undefined-- 74.851
2.43 --undefined-- 73.259
2.44 --undefined-- 71.926
2.45 --undefined-- 71.478
2.46 93.313 71.285
2.47 92.030 71.303
2.48 91.608 72.368
2.49 91.456 73.684
2.50 90.958 74.085
2.51 90.241 73.974
2.52 92.177 73.947
2.53 92.120 74.033
2.54 95.296 74.310
2.55 97.374 74.751
2.56 99.386 75.026
2.57 102.988 74.758
2.58 104.562 73.666
2.59 101.222 71.650
2.60 105.889 68.903
2.61 116.585 65.271
2.62 122.567 60.326
2.63 122.312 55.721
2.64 --undefined-- 54.673
2.65 --undefined-- 56.617
2.66 --undefined-- 65.187
2.67 162.816 72.377
2.68 150.424 76.266
2.69 142.879 77.817
2.70 142.124 78.202
2.71 143.105 78.269
2.72 145.380 78.284
2.73 148.964 78.088
2.74 150.922 77.588
2.75 153.963 77.044
2.76 156.268 76.592
2.77 157.529 76.220
2.78 156.778 75.996
2.79 156.353 76.146
2.80 155.641 76.395
2.81 153.956 76.448
2.82 151.967 76.369
2.83 150.749 76.226
2.84 149.400 75.989
2.85 147.419 75.666
2.86 145.481 75.505
2.87 143.797 75.751
2.88 139.034 76.099
2.89 135.475 76.210
2.90 131.924 76.207
2.91 127.824 76.268
2.92 122.671 76.591
2.93 120.012 77.177
2.94 117.893 77.680
2.95 115.060 77.933
2.96 112.046 77.950
2.97 110.090 77.892
2.98 109.113 77.882
2.99 107.594 77.846
3.00 107.414 77.758
3.01 107.428 77.711
3.02 108.368 77.821
3.03 109.790 77.891
3.04 109.913 77.620
3.05 109.518 77.191
3.06 109.514 76.935
3.07 110.451 77.043
3.08 112.626 77.508
3.09 112.805 77.834
3.10 112.849 77.768
3.11 113.297 77.505
3.12 113.915 77.101
3.13 114.470 76.496
3.14 115.695 76.021
3.15 117.864 76.069
3.16 120.307 76.332
3.17 122.820 76.369
3.18 124.804 76.136
3.19 125.937 76.185
3.20 132.786 76.777
3.21 134.081 77.127
3.22 134.997 77.232
3.23 135.275 77.438
3.24 134.826 77.544
3.25 134.557 77.486
3.26 133.478 77.466
3.27 132.017 77.589
3.28 130.550 77.706
3.29 129.702 77.603
3.30 129.222 77.356
3.31 128.627 77.157
3.32 127.650 76.902
3.33 126.478 76.541
3.34 125.211 76.200
3.35 123.306 75.900
3.36 121.237 75.510
3.37 119.052 74.828
3.38 116.539 73.845
3.39 115.371 73.262
3.40 117.313 73.870
3.41 121.380 75.064
3.42 124.468 75.714
3.43 126.765 75.533
3.44 128.877 74.823
3.45 130.468 73.931
3.46 135.031 73.845
3.47 142.431 74.914
3.48 147.949 75.935
3.49 152.807 76.533
3.50 156.301 76.850
3.51 158.856 76.840
3.52 161.715 76.672
3.53 160.112 76.664
3.54 158.299 76.735
3.55 155.692 76.725
3.56 152.919 76.589
3.57 148.197 76.497
3.58 144.857 76.522
3.59 141.526 76.300
3.60 138.486 76.044
3.61 136.088 76.061
3.62 134.110 76.126
3.63 132.121 76.163
3.64 130.582 76.324
3.65 128.911 76.564
3.66 126.799 76.746
3.67 125.191 76.864
3.68 123.800 77.008
3.69 122.458 77.217
3.70 121.826 77.465
3.71 121.730 77.730
3.72 121.918 77.900
3.73 121.924 77.903
3.74 121.783 77.818
3.75 121.874 77.598
3.76 122.079 77.151
3.77 122.316 76.683
3.78 121.856 76.230
3.79 119.907 75.481
3.80 117.241 74.657
3.81 114.988 74.400
3.82 114.064 74.528
3.83 114.266 74.680
3.84 114.454 74.771
3.85 113.071 74.693
3.86 109.565 74.426
3.87 107.533 74.731
3.88 117.231 76.057
3.89 106.434 76.909
3.90 104.688 76.944
3.91 102.950 76.794
3.92 101.466 76.733
3.93 101.895 76.703
3.94 101.592 76.233
3.95 99.311 75.320
3.96 98.254 75.045
3.97 105.525 75.767
3.98 105.168 76.257
3.99 105.142 76.038
4.00 105.950 75.295
4.01 106.151 74.133
4.02 109.278 72.675
4.03 115.543 71.772
4.04 135.061 73.147
4.05 154.778 75.941
4.06 150.650 77.632
4.07 149.275 77.968
4.08 151.267 77.890
4.09 154.229 77.786
4.10 158.881 77.669
4.11 166.688 77.500
4.12 171.206 76.995
4.13 174.846 76.281
4.14 178.964 75.971
4.15 181.831 76.234
4.16 180.833 76.509
4.17 176.459 76.446
4.18 174.918 76.074
4.19 172.178 75.002
4.20 173.043 72.414
4.21 180.108 67.810
4.22 181.930 61.976
4.23 171.988 59.174
4.24 171.708 60.431
4.25 --undefined-- 64.646
4.26 --undefined-- 71.322
4.27 --undefined-- 75.499
4.28 154.126 76.780
4.29 143.872 76.538
4.30 137.279 76.165
4.31 134.542 75.686
4.32 132.669 74.820
4.33 127.059 74.199
4.34 126.343 74.532
4.35 127.118 74.968
4.36 126.270 75.005
4.37 126.001 74.996
4.38 125.397 75.035
4.39 124.437 75.077
4.40 122.821 75.016
4.41 121.339 74.461
4.42 119.930 73.191
4.43 117.547 71.091
4.44 113.112 68.004
4.45 106.768 64.028
4.46 109.783 60.241
4.47 113.372 57.760
4.48 120.875 55.856
4.49 121.432 54.486
4.50 120.282 53.489
4.51 --undefined-- 52.956
4.52 --undefined-- 54.248
4.53 --undefined-- 61.212
4.54 --undefined-- 69.472
4.55 138.014 74.295
4.56 129.992 76.178
4.57 124.179 76.336
4.58 122.747 76.160
4.59 123.749 76.052
4.60 125.921 75.763
4.61 126.908 74.724
4.62 126.811 72.577
4.63 130.477 70.054
4.64 141.280 68.412
4.65 147.645 67.092
4.66 146.684 65.863
4.67 --undefined-- 67.776
4.68 --undefined-- 71.786
4.69 --undefined-- 75.554
4.70 156.288 77.320
4.71 149.571 77.346
4.72 139.238 76.824
4.73 131.791 76.515
4.74 128.605 76.510
4.75 126.334 76.635
4.76 125.056 76.768
4.77 125.090 76.814
4.78 127.027 76.652
4.79 130.471 76.279
4.80 135.087 76.107
4.81 139.301 76.478
4.82 145.281 76.995
4.83 150.953 77.012
4.84 155.999 76.074
4.85 154.761 73.442
4.86 149.484 68.519
4.87 158.314 61.759
4.88 151.839 55.908
4.89 157.297 51.544
4.90 --undefined-- 50.811
4.91 --undefined-- 61.082
4.92 --undefined-- 69.965
4.93 --undefined-- 74.363
4.94 --undefined-- 75.536
4.95 145.006 76.221
4.96 141.002 77.277
4.97 136.075 77.783
4.98 131.927 77.734
4.99 127.781 77.479
5.00 123.959 77.572
5.01 121.260 77.969
5.02 119.906 78.014
5.03 119.513 77.557
5.04 118.672 76.491
5.05 117.043 74.121
5.06 103.440 69.855
5.07 120.494 65.358
5.08 122.861 61.920
5.09 123.119 58.784
5.10 119.543 56.378
5.11 119.188 54.592
5.12 120.766 54.006
5.13 121.210 55.233
5.14 --undefined-- 58.238
5.15 --undefined-- 61.449
5.16 --undefined-- 63.783
5.17 --undefined-- 64.463
5.18 --undefined-- 64.064
5.19 --undefined-- 66.632
5.20 --undefined-- --undefined--
5.21 144.406 --undefined--
5.22 --undefined-- --undefined--
5.23 --undefined-- --undefined--
