Time Pitch Intensity
0.01 --undefined-- --undefined--
0.02 184.597 --undefined--
0.03 184.672 --undefined--
0.04 183.554 --undefined--
0.05 181.094 72.997
0.06 177.367 69.899
0.07 --undefined-- 64.079
0.08 --undefined-- 54.931
0.09 --undefined-- 46.198
0.10 --undefined-- 43.719
0.11 --undefined-- 41.300
0.12 --undefined-- 37.690
0.13 --undefined-- 34.439
0.14 --undefined-- 33.621
0.15 --undefined-- 35.953
0.16 --undefined-- 38.369
0.17 --undefined-- 38.817
0.18 --undefined-- 37.880
0.19 --undefined-- 37.908
0.20 --undefined-- 39.137
0.21 --undefined-- 39.646
0.22 --undefined-- 41.101
0.23 --undefined-- 46.002
0.24 --undefined-- 52.044
0.25 163.383 58.321
0.26 163.311 62.774
0.27 145.092 65.038
0.28 142.627 66.654
0.29 140.420 68.437
0.30 138.689 69.757
0.31 136.954 70.375
0.32 134.682 70.319
0.33 132.040 69.844
0.34 130.333 69.536
0.35 129.804 69.574
0.36 128.602 69.534
0.37 127.471 69.180
0.38 126.751 68.606
0.39 126.944 68.032
0.40 127.622 67.660
0.41 128.042 67.595
0.42 128.479 67.608
0.43 127.686 67.604
0.44 128.237 67.734
0.45 128.772 67.745
0.46 129.105 67.460
0.47 128.978 66.775
0.48 129.578 66.125
0.49 132.939 66.281
0.50 178.100 66.134
0.51 180.781 65.172
0.52 264.546 63.675
0.53 262.924 61.396
0.54 267.504 57.867
0.55 --undefined-- 52.375
0.56 --undefined-- 46.369
0.57 --undefined-- 41.573
0.58 --undefined-- 38.502
0.59 --undefined-- 39.179
0.60 --undefined-- 41.854
0.61 --undefined-- 42.757
0.62 --undefined-- 41.035
0.63 --undefined-- 38.429
0.64 --undefined-- 37.062
0.65 --undefined-- 36.400
0.66 --undefined-- 35.894
0.67 --undefined-- 36.091
0.68 --undefined-- 36.858
0.69 --undefined-- 37.203
0.70 --undefined-- 36.975
0.71 --undefined-- 36.852
0.72 --undefined-- 40.817
0.73 --undefined-- 48.028
0.74 --undefined-- 53.837
0.75 153.982 58.326
0.76 155.304 62.069
0.77 156.561 65.081
0.78 157.373 67.264
0.79 159.223 68.437
0.80 160.939 69.056
0.81 162.656 69.596
0.82 163.779 69.574
0.83 162.773 68.337
0.84 161.936 65.119
0.85 --undefined-- 58.983
0.86 --undefined-- 49.612
0.87 --undefined-- 41.391
0.88 --undefined-- 37.349
0.89 --undefined-- 36.211
0.90 --undefined-- 36.020
0.91 --undefined-- 34.492
0.92 --undefined-- 33.458
0.93 --undefined-- 35.650
0.94 --undefined-- 50.175
0.95 --undefined-- 62.447
0.96 --undefined-- 70.150
0.97 --undefined-- 74.515
0.98 145.444 76.279
0.99 140.348 75.941
1.00 132.080 74.072
1.01 128.112 71.403
1.02 126.676 68.259
1.03 125.787 64.557
1.04 125.434 61.710
1.05 124.578 60.484
1.06 124.217 59.697
1.07 124.297 59.122
1.08 124.296 58.453
1.09 123.664 57.593
1.10 122.885 56.760
1.11 122.258 56.487
1.12 122.136 57.078
1.13 122.588 57.818
1.14 123.016 58.118
1.15 122.754 57.831
1.16 121.818 56.626
1.17 114.735 53.953
1.18 --undefined-- 49.928
1.19 --undefined-- 46.595
1.20 --undefined-- 46.597
1.21 --undefined-- 48.888
1.22 --undefined-- 51.533
1.23 106.202 53.212
1.24 104.928 53.941
1.25 103.629 54.343
1.26 102.993 54.355
1.27 102.225 53.670
1.28 102.288 52.803
1.29 102.873 53.052
1.30 103.638 54.055
1.31 104.026 54.937
1.32 107.258 55.610
1.33 107.301 55.669
1.34 107.491 54.924
1.35 108.388 54.148
1.36 108.864 54.024
1.37 110.109 54.151
1.38 109.765 53.987
1.39 108.620 53.154
1.40 --undefined-- 50.668
1.41 --undefined-- 45.805
1.42 --undefined-- 39.214
1.43 --undefined-- 35.797
1.44 --undefined-- 35.242
1.45 --undefined-- 35.963
1.46 --undefined-- 39.044
1.47 --undefined-- 45.179
1.48 --undefined-- 53.701
1.49 --undefined-- 59.573
1.50 --undefined-- 63.061
1.51 --undefined-- 64.379
1.52 --undefined-- 63.795
1.53 104.771 62.352
1.54 104.146 61.211
1.55 103.989 60.707
1.56 108.984 60.706
1.57 107.768 59.937
1.58 103.518 57.268
1.59 103.220 53.550
1.60 102.317 51.349
1.61 --undefined-- 50.181
1.62 --undefined-- 48.992
1.63 --undefined-- 47.560
1.64 --undefined-- 47.540
1.65 --undefined-- 50.275
1.66 106.714 54.042
1.67 110.546 56.781
1.68 112.121 57.781
1.69 112.759 57.311
1.70 114.327 55.789
1.71 115.609 52.678
1.72 --undefined-- 47.586
1.73 --undefined-- 45.213
1.74 --undefined-- 50.998
1.75 --undefined-- 57.101
1.76 --undefined-- 61.241
1.77 --undefined-- 63.359
1.78 --undefined-- 63.837
1.79 --undefined-- 62.616
1.80 --undefined-- 60.345
1.81 183.984 64.525
1.82 188.368 70.254
1.83 193.165 74.282
1.84 188.699 77.095
1.85 184.297 78.676
1.86 180.199 78.496
1.87 178.327 76.063
1.88 176.489 71.340
1.89 166.138 66.472
1.90 160.426 64.448
1.91 154.659 63.385
1.92 146.012 62.720
1.93 139.655 65.102
1.94 132.472 68.437
1.95 129.573 69.773
1.96 122.135 69.068
1.97 116.972 67.373
1.98 114.561 65.955
1.99 112.836 64.971
2.00 112.324 64.438
2.01 112.274 63.964
2.02 108.692 62.223
2.03 109.833 58.345
2.04 --undefined-- 52.429
2.05 --undefined-- 47.443
2.06 --undefined-- 46.374
2.07 --undefined-- 46.212
2.08 --undefined-- 45.645
2.09 --undefined-- 44.534
2.10 --undefined-- 47.649
2.11 --undefined-- 61.366
2.12 --undefined-- 71.019
2.13 --undefined-- 76.388
2.14 137.600 78.643
2.15 135.921 79.112
2.16 132.720 78.681
2.17 131.802 77.428
2.18 130.822 75.737
2.19 129.217 74.033
2.20 127.747 72.168
2.21 125.396 69.938
2.22 123.836 67.727
2.23 123.203 65.980
2.24 122.504 64.266
2.25 121.812 62.607
2.26 121.647 61.415
2.27 121.830 60.911
2.28 122.408 60.893
2.29 123.078 61.105
2.30 123.417 61.741
2.31 124.477 62.928
2.32 126.214 63.761
2.33 127.901 63.023
2.34 125.485 60.510
2.35 --undefined-- 59.173
2.36 --undefined-- 59.451
2.37 --undefined-- 57.556
2.38 --undefined-- 57.657
2.39 --undefined-- 63.113
2.40 --undefined-- 66.123
2.41 --undefined-- 65.823
2.42 --undefined-- 62.677
2.43 --undefined-- 57.542
2.44 --undefined-- 52.792
2.45 --undefined-- 51.126
2.46 --undefined-- 57.388
2.47 134.008 66.665
2.48 136.023 73.503
2.49 135.609 77.641
2.50 133.325 79.423
2.51 129.853 79.515
2.52 126.090 78.850
2.53 123.899 78.157
2.54 121.170 77.694
2.55 118.534 77.710
2.56 116.877 78.049
2.57 115.969 78.148
2.58 116.149 77.962
2.59 116.948 77.605
2.60 118.713 77.070
2.61 119.947 76.516
2.62 120.895 75.762
2.63 120.998 74.128
2.64 120.095 71.056
2.65 120.483 67.573
2.66 119.910 65.723
2.67 119.159 64.762
2.68 117.982 64.100
2.69 116.997 63.321
2.70 116.138 62.184
2.71 115.285 60.379
2.72 113.778 57.423
2.73 --undefined-- 53.960
2.74 --undefined-- 52.484
2.75 --undefined-- 52.473
2.76 --undefined-- 52.165
2.77 --undefined-- 51.560
2.78 --undefined-- 50.666
2.79 --undefined-- 49.488
2.80 --undefined-- 47.916
2.81 --undefined-- 46.016
2.82 --undefined-- 45.196
2.83 --undefined-- 44.571
2.84 --undefined-- 43.192
2.85 --undefined-- 40.903
2.86 --undefined-- 37.477
2.87 --undefined-- 35.761
2.88 --undefined-- 36.645
2.89 --undefined-- 36.538
2.90 --undefined-- 35.990
2.91 --undefined-- 38.004
2.92 --undefined-- 39.968
2.93 --undefined-- 40.688
2.94 --undefined-- 40.721
2.95 --undefined-- 41.400
2.96 --undefined-- 42.638
2.97 --undefined-- 42.911
2.98 --undefined-- 42.275
2.99 --undefined-- 42.072
3.00 --undefined-- 46.513
3.01 --undefined-- 53.926
3.02 --undefined-- 58.405
3.03 --undefined-- 60.610
3.04 --undefined-- 61.817
3.05 --undefined-- 61.633
3.06 --undefined-- 59.104
3.07 --undefined-- 53.545
3.08 --undefined-- 44.538
3.09 --undefined-- 35.781
3.10 --undefined-- 33.845
3.11 --undefined-- 34.597
3.12 --undefined-- 38.052
3.13 --undefined-- 44.266
3.14 --undefined-- 50.102
3.15 --undefined-- 57.097
3.16 154.162 62.894
3.17 151.862 66.367
3.18 150.042 68.001
3.19 149.569 68.375
3.20 149.943 67.882
3.21 150.219 66.906
3.22 149.976 65.818
3.23 149.597 64.977
3.24 148.711 64.616
3.25 147.649 63.951
3.26 146.290 61.923
3.27 143.540 57.891
3.28 --undefined-- 51.721
3.29 --undefined-- 44.806
3.30 --undefined-- 47.027
3.31 --undefined-- 54.211
3.32 --undefined-- 58.059
3.33 --undefined-- 58.522
3.34 --undefined-- 55.772
3.35 --undefined-- 51.138
3.36 --undefined-- 49.683
3.37 --undefined-- 54.173
3.38 120.021 59.976
3.39 120.875 64.375
3.40 120.289 67.412
3.41 120.068 69.197
3.42 116.050 69.676
3.43 116.136 68.928
3.44 --undefined-- 66.981
3.45 --undefined-- 64.209
3.46 --undefined-- 60.358
3.47 --undefined-- 53.897
3.48 --undefined-- 45.591
3.49 --undefined-- 39.504
3.50 --undefined-- 36.052
3.51 --undefined-- 33.542
3.52 --undefined-- 33.053
3.53 --undefined-- 33.004
3.54 --undefined-- 32.191
3.55 --undefined-- 32.420
3.56 --undefined-- 33.237
3.57 --undefined-- 33.389
3.58 --undefined-- 33.539
3.59 --undefined-- 34.383
3.60 --undefined-- 35.219
3.61 --undefined-- 35.400
3.62 --undefined-- 34.709
3.63 --undefined-- 33.276
3.64 --undefined-- 31.910
3.65 --undefined-- 31.581
3.66 --undefined-- 32.045
3.67 --undefined-- 32.549
3.68 --undefined-- 32.554
3.69 --undefined-- 32.862
3.70 --undefined-- 34.260
3.71 --undefined-- 35.223
3.72 --undefined-- 34.574
3.73 --undefined-- 33.075
3.74 --undefined-- 32.729
3.75 --undefined-- 33.563
3.76 --undefined-- 38.487
3.77 --undefined-- 51.066
3.78 --undefined-- 59.986
3.79 --undefined-- 65.175
3.80 --undefined-- 67.939
3.81 156.471 70.292
3.82 162.011 73.070
3.83 166.099 75.261
3.84 169.176 76.476
3.85 170.392 76.808
3.86 171.315 76.301
3.87 172.534 74.833
3.88 172.984 72.371
3.89 168.166 70.755
3.90 167.174 71.846
3.91 163.690 72.802
3.92 154.264 72.450
3.93 149.434 71.167
3.94 --undefined-- 69.185
3.95 --undefined-- 66.118
3.96 --undefined-- 61.260
3.97 --undefined-- 55.096
3.98 --undefined-- 49.426
3.99 --undefined-- 46.934
4.00 --undefined-- 50.079
4.01 --undefined-- 57.174
4.02 135.361 64.001
4.03 136.631 68.374
4.04 133.603 70.092
4.05 129.898 69.708
4.06 126.171 67.877
4.07 124.902 65.326
4.08 123.084 62.579
4.09 123.296 60.540
4.10 124.397 59.262
4.11 124.474 58.024
4.12 123.402 56.233
4.13 --undefined-- 53.668
4.14 --undefined-- 50.313
4.15 --undefined-- 46.757
4.16 --undefined-- 46.952
4.17 114.158 51.303
4.18 113.578 55.198
4.19 112.171 57.697
4.20 109.652 59.452
4.21 106.910 60.781
4.22 104.902 61.494
4.23 103.297 61.461
4.24 100.296 60.797
4.25 96.842 59.888
4.26 95.489 59.243
4.27 94.621 58.707
4.28 94.228 58.515
4.29 93.725 59.016
4.30 93.780 59.675
4.31 93.571 60.075
4.32 92.074 60.135
4.33 92.047 60.025
4.34 91.952 59.886
4.35 92.320 59.787
4.36 93.039 59.887
4.37 94.621 60.488
4.38 96.875 60.967
4.39 97.531 60.010
4.40 97.047 56.786
4.41 --undefined-- 50.749
4.42 --undefined-- 41.849
4.43 --undefined-- 34.536
4.44 --undefined-- 33.088
4.45 --undefined-- 32.582
4.46 --undefined-- 32.018
4.47 --undefined-- 31.129
4.48 --undefined-- 34.186
4.49 --undefined-- 39.261
4.50 --undefined-- 43.087
4.51 --undefined-- 46.680
4.52 --undefined-- 51.371
4.53 109.955 56.654
4.54 110.646 60.273
4.55 108.289 61.479
4.56 106.471 60.533
4.57 101.783 57.992
4.58 101.584 54.205
4.59 --undefined-- 49.323
4.60 --undefined-- 44.751
4.61 --undefined-- 43.098
4.62 --undefined-- 42.797
4.63 --undefined-- 43.376
4.64 --undefined-- 43.846
4.65 --undefined-- 44.249
4.66 --undefined-- 43.972
4.67 --undefined-- 43.322
4.68 --undefined-- 42.817
4.69 --undefined-- 42.458
4.70 --undefined-- 42.310
4.71 --undefined-- 42.706
4.72 --undefined-- 43.756
4.73 --undefined-- 45.044
4.74 --undefined-- 46.418
4.75 --undefined-- 47.210
4.76 --undefined-- 47.099
4.77 --undefined-- 46.946
4.78 --undefined-- 48.803
4.79 --undefined-- 54.059
4.80 109.869 58.489
4.81 112.434 61.385
4.82 112.342 63.218
4.83 111.436 63.763
4.84 110.674 62.388
4.85 109.395 58.487
4.86 --undefined-- 52.145
4.87 --undefined-- 44.867
4.88 --undefined-- 39.241
4.89 --undefined-- 34.941
4.90 --undefined-- 32.317
4.91 --undefined-- 31.301
4.92 --undefined-- 30.591
4.93 --undefined-- 30.294
4.94 --undefined-- 30.286
4.95 --undefined-- 32.370
4.96 --undefined-- 36.365
4.97 --undefined-- 39.171
4.98 --undefined-- 40.917
4.99 --undefined-- 42.140
5.00 --undefined-- 42.901
5.01 --undefined-- 43.667
5.02 --undefined-- 45.012
5.03 --undefined-- 46.603
5.04 --undefined-- 47.641
5.05 --undefined-- 48.243
5.06 --undefined-- 49.446
5.07 --undefined-- 52.634
5.08 --undefined-- 56.898
5.09 144.621 60.241
5.10 145.082 62.286
5.11 145.009 63.469
5.12 147.054 64.249
5.13 149.236 64.374
5.14 150.435 63.285
5.15 150.668 60.347
5.16 --undefined-- 55.003
5.17 --undefined-- 48.555
5.18 --undefined-- 44.909
5.19 --undefined-- 51.526
5.20 --undefined-- 60.528
5.21 --undefined-- 65.637
5.22 127.844 67.630
5.23 128.943 67.713
5.24 --undefined-- 66.605
5.25 --undefined-- 64.394
5.26 --undefined-- 61.727
5.27 --undefined-- 59.285
5.28 --undefined-- 56.017
5.29 --undefined-- 53.047
5.30 --undefined-- 51.880
5.31 --undefined-- 51.715
5.32 126.273 52.265
5.33 127.781 53.424
5.34 120.373 53.770
5.35 --undefined-- 52.165
5.36 --undefined-- 48.204
5.37 --undefined-- 43.842
5.38 --undefined-- 43.681
5.39 --undefined-- 45.629
5.40 --undefined-- 47.367
5.41 --undefined-- 48.445
5.42 --undefined-- 49.323
5.43 --undefined-- 53.541
5.44 --undefined-- 62.542
5.45 173.427 68.985
5.46 172.610 72.125
5.47 168.822 72.341
5.48 160.831 70.240
5.49 157.880 66.923
5.50 157.086 63.951
5.51 158.463 62.555
5.52 157.649 62.067
5.53 157.321 61.794
5.54 157.534 61.695
5.55 157.158 61.961
5.56 156.843 62.638
5.57 156.485 63.048
5.58 155.971 63.180
5.59 155.052 63.279
5.60 151.743 63.608
5.61 149.665 65.803
5.62 152.401 69.117
5.63 151.064 71.611
5.64 146.966 73.232
5.65 141.078 74.300
5.66 138.458 74.769
5.67 136.036 74.373
5.68 135.084 72.692
5.69 137.206 69.448
5.70 141.678 65.823
5.71 143.000 64.735
5.72 142.775 64.633
5.73 142.129 63.935
5.74 140.507 63.090
5.75 140.085 62.631
5.76 137.824 62.327
5.77 134.447 62.023
5.78 129.959 62.321
5.79 124.220 63.385
5.80 122.450 63.466
5.81 118.645 62.991
5.82 116.711 64.091
5.83 115.652 65.137
5.84 113.574 64.927
5.85 109.859 63.897
5.86 --undefined-- 62.095
5.87 --undefined-- 60.138
5.88 88.874 58.267
5.89 91.966 56.208
5.90 --undefined-- 53.914
5.91 --undefined-- 50.592
5.92 --undefined-- 47.709
5.93 --undefined-- 46.333
5.94 --undefined-- 45.860
5.95 --undefined-- 44.829
5.96 --undefined-- 45.126
5.97 --undefined-- 49.396
5.98 --undefined-- 54.340
5.99 --undefined-- 57.613
6.00 --undefined-- 59.773
6.01 --undefined-- 61.427
6.02 --undefined-- 61.948
6.03 --undefined-- 60.943
6.04 108.872 57.891
6.05 --undefined-- 52.777
6.06 --undefined-- 46.519
6.07 --undefined-- 41.930
6.08 --undefined-- 42.704
6.09 --undefined-- 49.224
6.10 --undefined-- 56.785
6.11 --undefined-- 61.720
6.12 --undefined-- 64.239
6.13 --undefined-- 65.303
6.14 --undefined-- 65.766
6.15 --undefined-- 66.109
6.16 --undefined-- 65.931
6.17 --undefined-- 64.092
6.18 --undefined-- 60.005
6.19 --undefined-- 56.946
6.20 --undefined-- 54.000
6.21 --undefined-- 47.951
6.22 --undefined-- 41.300
6.23 --undefined-- 38.808
6.24 --undefined-- 37.714
6.25 --undefined-- 37.602
6.26 --undefined-- 37.111
6.27 --undefined-- 36.525
6.28 --undefined-- 35.811
6.29 --undefined-- 34.561
6.30 --undefined-- 35.464
6.31 --undefined-- 37.888
6.32 --undefined-- 38.971
6.33 --undefined-- 38.518
6.34 --undefined-- 37.536
6.35 --undefined-- 36.323
6.36 --undefined-- 34.740
6.37 --undefined-- 34.848
6.38 --undefined-- 36.725
6.39 --undefined-- 38.164
6.40 --undefined-- 38.620
6.41 --undefined-- 38.313
6.42 --undefined-- 39.271
6.43 --undefined-- 41.582
6.44 --undefined-- 41.695
6.45 --undefined-- 38.987
6.46 --undefined-- 43.316
6.47 --undefined-- 53.323
6.48 --undefined-- 62.993
6.49 --undefined-- 70.762
6.50 160.316 75.586
6.51 160.290 --undefined--
6.52 173.626 --undefined--
6.53 --undefined-- --undefined--
6.54 --undefined-- --undefined--
