Time Pitch Intensity
0.01 --undefined-- --undefined--
0.02 216.021 --undefined--
0.03 210.384 --undefined--
0.04 211.941 --undefined--
0.05 --undefined-- 57.755
0.06 --undefined-- 58.625
0.07 --undefined-- 59.793
0.08 241.541 62.660
0.09 224.900 64.876
0.10 213.686 65.699
0.11 209.792 65.942
0.12 208.472 66.025
0.13 208.554 65.810
0.14 209.981 65.413
0.15 211.381 65.089
0.16 213.424 65.015
0.17 213.940 65.077
0.18 213.148 65.090
0.19 211.925 65.010
0.20 210.153 64.602
0.21 205.690 63.420
0.22 197.930 60.977
0.23 185.660 57.132
0.24 --undefined-- 53.964
0.25 --undefined-- 57.250
0.26 222.659 62.468
0.27 207.186 66.043
0.28 191.676 68.864
0.29 186.952 71.173
0.30 183.524 72.492
0.31 178.960 73.243
0.32 175.379 74.349
0.33 172.895 75.564
0.34 171.726 76.280
0.35 170.757 76.625
0.36 170.767 77.020
0.37 170.960 77.410
0.38 169.832 77.577
0.39 168.651 77.335
0.40 166.943 76.562
0.41 167.333 75.494
0.42 166.986 74.500
0.43 --undefined-- 73.406
0.44 --undefined-- 71.366
0.45 --undefined-- 67.812
0.46 --undefined-- 63.381
0.47 --undefined-- 59.249
0.48 --undefined-- 56.096
0.49 --undefined-- 54.449
0.50 --undefined-- 52.596
0.51 --undefined-- 49.291
0.52 --undefined-- 47.002
0.53 --undefined-- 46.654
0.54 --undefined-- 49.217
0.55 --undefined-- 52.404
0.56 --undefined-- 53.062
0.57 --undefined-- 53.440
0.58 --undefined-- 54.405
0.59 --undefined-- 53.262
0.60 --undefined-- 49.936
0.61 --undefined-- 45.885
0.62 --undefined-- 42.594
0.63 --undefined-- 40.645
0.64 --undefined-- 41.385
0.65 --undefined-- 44.233
0.66 --undefined-- 47.734
0.67 --undefined-- 50.749
0.68 --undefined-- 51.858
0.69 --undefined-- 50.580
0.70 --undefined-- 47.412
0.71 --undefined-- 45.152
0.72 --undefined-- 46.238
0.73 --undefined-- 46.783
0.74 --undefined-- 46.573
0.75 --undefined-- 47.648
0.76 --undefined-- 49.542
0.77 --undefined-- 49.446
0.78 --undefined-- 47.254
0.79 --undefined-- 48.492
0.80 --undefined-- 51.729
0.81 --undefined-- 52.102
0.82 --undefined-- 49.961
0.83 --undefined-- 49.842
0.84 --undefined-- 51.331
0.85 --undefined-- 51.224
0.86 --undefined-- 50.154
0.87 --undefined-- 50.232
0.88 --undefined-- 49.930
0.89 --undefined-- 49.141
0.90 --undefined-- 50.537
0.91 --undefined-- 52.390
0.92 --undefined-- 53.598
0.93 --undefined-- 55.194
0.94 --undefined-- 55.805
0.95 --undefined-- 54.713
0.96 --undefined-- 53.226
0.97 --undefined-- 52.039
0.98 --undefined-- 50.712
0.99 --undefined-- 51.340
1.00 --undefined-- 52.195
1.01 --undefined-- 52.149
1.02 --undefined-- 51.838
1.03 --undefined-- 53.240
1.04 --undefined-- 55.055
1.05 --undefined-- 54.115
1.06 --undefined-- 50.177
1.07 --undefined-- 47.055
1.08 --undefined-- 48.325
1.09 --undefined-- 49.448
1.10 --undefined-- 49.496
1.11 --undefined-- 50.469
1.12 --undefined-- 53.191
1.13 --undefined-- 53.737
1.14 --undefined-- 53.612
1.15 --undefined-- 59.869
1.16 253.746 66.197
1.17 250.700 69.623
1.18 250.206 70.854
1.19 252.964 71.119
1.20 255.074 71.020
1.21 254.901 70.309
1.22 253.296 69.552
1.23 257.722 69.755
1.24 256.408 70.075
1.25 254.338 70.000
1.26 249.802 69.783
1.27 245.769 69.785
1.28 238.116 70.277
1.29 225.550 70.991
1.30 215.544 71.300
1.31 203.645 71.224
1.32 192.924 71.231
1.33 186.069 71.197
1.34 179.316 70.511
1.35 175.275 69.016
1.36 173.164 66.892
1.37 170.199 64.837
1.38 166.680 64.016
1.39 167.065 64.218
1.40 165.674 64.462
1.41 164.026 63.760
1.42 161.773 61.823
1.43 159.082 59.943
1.44 160.693 59.165
1.45 160.072 59.372
1.46 160.777 60.624
1.47 162.389 62.602
1.48 167.598 64.753
1.49 170.752 66.377
1.50 174.075 67.837
1.51 176.241 69.322
1.52 174.171 70.582
1.53 173.693 72.045
1.54 174.884 73.447
1.55 177.079 74.406
1.56 178.767 74.855
1.57 180.441 74.866
1.58 182.597 74.852
1.59 184.932 75.088
1.60 188.737 75.031
1.61 195.560 74.727
1.62 200.584 74.488
1.63 204.915 74.219
1.64 206.516 73.901
1.65 205.755 73.658
1.66 201.961 73.534
1.67 195.247 73.304
1.68 186.823 72.845
1.69 175.734 72.073
1.70 167.892 70.968
1.71 158.977 69.212
1.72 157.111 66.330
1.73 156.997 62.289
1.74 --undefined-- 57.690
1.75 --undefined-- 54.124
1.76 --undefined-- 52.109
1.77 --undefined-- 50.389
1.78 --undefined-- 49.884
1.79 --undefined-- 49.458
1.80 --undefined-- 48.725
1.81 --undefined-- 49.505
1.82 --undefined-- 52.070
1.83 --undefined-- 54.510
1.84 --undefined-- 55.361
1.85 --undefined-- 54.523
1.86 --undefined-- 53.018
1.87 --undefined-- 51.644
1.88 --undefined-- 52.506
1.89 --undefined-- 55.882
1.90 --undefined-- 57.606
1.91 --undefined-- 57.139
1.92 --undefined-- 54.489
1.93 --undefined-- 50.478
1.94 --undefined-- 51.598
1.95 --undefined-- 54.921
1.96 --undefined-- 56.797
1.97 --undefined-- 56.815
1.98 --undefined-- 55.057
1.99 --undefined-- 51.980
2.00 --undefined-- 49.163
2.01 --undefined-- 51.265
2.02 --undefined-- 57.845
2.03 --undefined-- 65.492
2.04 --undefined-- 70.101
2.05 148.049 71.873
2.06 150.110 72.103
2.07 152.004 72.003
2.08 154.145 71.712
2.09 154.371 70.851
2.10 153.537 69.163
2.11 151.800 66.275
2.12 --undefined-- 61.762
2.13 --undefined-- 57.281
2.14 --undefined-- 55.208
2.15 --undefined-- 52.825
2.16 --undefined-- 49.160
2.17 --undefined-- 44.604
2.18 --undefined-- 44.300
2.19 --undefined-- 51.041
2.20 --undefined-- 56.693
2.21 --undefined-- 61.683
2.22 177.302 66.490
2.23 175.956 69.346
2.24 176.258 70.396
2.25 177.532 70.831
2.26 178.211 71.210
2.27 178.538 71.422
2.28 178.738 71.423
2.29 178.454 71.271
2.30 178.169 71.072
2.31 178.643 70.882
2.32 179.574 70.818
2.33 180.497 70.969
2.34 181.181 71.186
2.35 181.742 71.290
2.36 181.823 71.296
2.37 181.487 71.278
2.38 180.598 71.006
2.39 178.464 69.779
2.40 172.263 66.874
2.41 158.107 62.647
2.42 164.835 58.838
2.43 --undefined-- 55.839
2.44 --undefined-- 54.458
2.45 --undefined-- 55.238
2.46 --undefined-- 56.943
2.47 --undefined-- 57.975
2.48 --undefined-- 58.341
2.49 --undefined-- 58.318
2.50 --undefined-- 59.672
2.51 166.373 63.168
2.52 169.635 66.614
2.53 170.747 68.958
2.54 171.121 70.089
2.55 172.977 70.270
2.56 176.367 69.880
2.57 177.371 69.348
2.58 175.936 69.063
2.59 175.301 69.072
2.60 175.313 69.088
2.61 174.978 68.960
2.62 174.178 68.525
2.63 171.874 67.247
2.64 162.930 65.005
2.65 158.549 62.378
2.66 161.422 58.912
2.67 172.272 54.718
2.68 171.655 52.662
2.69 --undefined-- 51.773
2.70 --undefined-- 52.001
2.71 --undefined-- 55.157
2.72 294.474 60.325
2.73 282.205 64.209
2.74 254.144 66.470
2.75 243.828 67.807
2.76 234.009 68.168
2.77 225.839 67.085
2.78 209.832 64.849
2.79 198.382 63.532
2.80 198.914 64.391
2.81 207.713 66.111
2.82 211.402 67.334
2.83 209.125 67.748
2.84 207.765 67.788
2.85 208.285 67.934
2.86 208.857 68.239
2.87 208.604 68.409
2.88 209.229 67.812
2.89 218.644 66.504
2.90 213.817 65.403
2.91 209.548 64.563
2.92 202.290 64.228
2.93 198.754 65.795
2.94 197.298 68.479
2.95 193.629 70.248
2.96 188.169 70.442
2.97 178.853 69.476
2.98 175.733 68.125
2.99 166.040 67.204
3.00 161.188 66.796
3.01 157.428 66.257
3.02 155.929 65.669
3.03 156.182 65.259
3.04 156.614 64.788
3.05 156.211 64.110
3.06 155.457 63.648
3.07 155.413 63.570
3.08 156.998 63.525
3.09 158.745 63.385
3.10 160.553 63.112
3.11 163.346 62.699
3.12 166.350 62.114
3.13 168.831 61.512
3.14 170.726 60.560
3.15 170.463 58.301
3.16 176.372 55.234
3.17 178.111 53.855
3.18 --undefined-- 53.147
3.19 --undefined-- 51.391
3.20 --undefined-- 49.185
3.21 --undefined-- 48.964
3.22 --undefined-- 49.164
3.23 --undefined-- 51.019
3.24 --undefined-- 55.854
3.25 198.744 60.028
3.26 187.768 62.811
3.27 176.003 64.788
3.28 171.566 66.348
3.29 167.112 67.539
3.30 166.102 68.448
3.31 166.303 69.154
3.32 168.925 69.837
3.33 171.876 70.407
3.34 178.486 70.609
3.35 187.381 70.376
3.36 199.925 69.665
3.37 209.635 68.885
3.38 218.181 68.918
3.39 228.093 69.314
3.40 238.655 68.813
3.41 248.032 67.191
3.42 254.274 65.527
3.43 253.024 64.948
3.44 245.416 64.803
3.45 238.854 64.180
3.46 225.966 62.996
3.47 217.415 62.081
3.48 207.548 61.996
3.49 197.808 62.755
3.50 194.347 64.415
3.51 186.613 66.483
3.52 181.305 68.137
3.53 174.503 69.064
3.54 165.920 69.168
3.55 163.254 68.433
3.56 162.529 67.211
3.57 163.660 65.803
3.58 159.384 64.553
3.59 160.226 63.868
3.60 161.005 63.935
3.61 161.276 64.278
3.62 161.987 64.208
3.63 162.692 63.793
3.64 162.221 63.222
3.65 163.266 62.594
3.66 164.555 62.299
3.67 166.088 62.045
3.68 167.535 61.651
3.69 169.219 61.488
3.70 171.305 61.454
3.71 171.504 60.708
3.72 169.146 58.666
3.73 --undefined-- 55.864
3.74 --undefined-- 55.414
3.75 --undefined-- 58.288
3.76 --undefined-- 59.743
3.77 --undefined-- 61.238
3.78 204.764 64.103
3.79 198.552 65.873
3.80 193.847 66.522
3.81 190.657 66.746
3.82 187.989 66.761
3.83 186.131 66.578
3.84 186.899 66.317
3.85 188.610 66.015
3.86 191.120 65.516
3.87 193.283 64.608
3.88 195.752 63.252
3.89 195.989 61.156
3.90 192.852 57.812
3.91 191.434 53.801
3.92 --undefined-- 51.906
3.93 --undefined-- 57.363
3.94 --undefined-- 63.665
3.95 262.258 67.266
3.96 264.747 68.463
3.97 270.823 68.087
3.98 278.308 67.404
3.99 280.580 66.687
4.00 278.332 64.556
4.01 272.626 59.930
4.02 --undefined-- 53.646
4.03 --undefined-- 51.064
4.04 --undefined-- 49.808
4.05 --undefined-- 48.441
4.06 --undefined-- 48.469
4.07 --undefined-- 48.149
4.08 --undefined-- 46.917
4.09 --undefined-- 46.852
4.10 --undefined-- 48.817
4.11 --undefined-- 50.236
4.12 --undefined-- 54.112
4.13 --undefined-- 59.861
4.14 --undefined-- 63.511
4.15 --undefined-- 64.944
4.16 298.045 66.704
4.17 286.193 68.885
4.18 284.333 70.620
4.19 280.518 72.166
4.20 275.451 73.579
4.21 269.340 74.809
4.22 263.908 75.280
4.23 260.570 74.043
4.24 259.193 70.926
4.25 251.166 67.261
4.26 250.645 64.688
4.27 --undefined-- 62.393
4.28 --undefined-- 59.340
4.29 --undefined-- 55.973
4.30 --undefined-- 53.076
4.31 --undefined-- 50.939
4.32 --undefined-- 49.979
4.33 --undefined-- 47.684
4.34 --undefined-- 45.373
4.35 --undefined-- 45.867
4.36 --undefined-- 47.377
4.37 --undefined-- 50.043
4.38 --undefined-- 51.859
4.39 --undefined-- 52.799
4.40 --undefined-- 55.254
4.41 95.967 57.817
4.42 95.401 60.186
4.43 97.367 62.184
4.44 101.769 63.527
4.45 104.207 64.644
4.46 206.774 65.727
4.47 204.166 66.759
4.48 205.195 68.161
4.49 205.505 69.777
4.50 205.985 70.629
4.51 207.897 70.627
4.52 210.466 70.570
4.53 214.073 70.917
4.54 217.229 71.283
4.55 220.815 71.390
4.56 225.274 71.309
4.57 229.075 71.133
4.58 230.453 70.891
4.59 231.393 70.816
4.60 233.953 71.136
4.61 234.818 71.406
4.62 235.178 71.404
4.63 238.241 71.307
4.64 238.301 70.985
4.65 237.042 70.646
4.66 238.202 70.611
4.67 238.624 70.576
4.68 238.755 70.307
4.69 239.454 69.835
4.70 240.469 69.161
4.71 241.076 68.284
4.72 240.996 67.289
4.73 242.851 66.880
4.74 249.143 67.211
4.75 252.706 67.454
4.76 253.628 67.418
4.77 253.072 67.003
4.78 248.548 66.059
4.79 243.910 64.658
4.80 244.102 63.272
4.81 241.247 62.484
4.82 239.797 62.170
4.83 238.060 61.896
4.84 240.334 61.659
4.85 239.610 61.503
4.86 246.730 61.985
4.87 241.136 63.218
4.88 235.485 64.372
4.89 227.025 65.184
4.90 221.221 66.050
4.91 218.217 66.957
4.92 216.356 67.765
4.93 215.952 68.533
4.94 216.634 69.150
4.95 217.332 69.554
4.96 217.838 69.812
4.97 218.640 70.145
4.98 218.936 70.420
4.99 219.966 70.282
5.00 220.584 69.845
5.01 218.890 69.669
5.02 216.522 70.080
5.03 215.358 70.719
5.04 214.437 71.090
5.05 215.298 71.162
5.06 219.589 71.167
5.07 223.240 --undefined--
5.08 226.093 --undefined--
5.09 --undefined-- --undefined--
5.10 --undefined-- --undefined--
