Time Pitch Intensity
0.01 --undefined-- --undefined--
0.02 --undefined-- --undefined--
0.03 --undefined-- --undefined--
0.04 --undefined-- --undefined--
0.05 --undefined-- 49.091
0.06 --undefined-- 51.256
0.07 --undefined-- 53.115
0.08 194.619 54.822
0.09 198.014 57.031
0.10 200.328 60.012
0.11 203.035 63.232
0.12 205.357 66.413
0.13 207.566 69.338
0.14 208.508 71.653
0.15 208.096 72.930
0.16 207.190 73.083
0.17 205.213 72.617
0.18 203.245 72.345
0.19 199.848 72.155
0.20 196.116 70.817
0.21 192.547 67.079
0.22 --undefined-- 60.094
0.23 --undefined-- 50.223
0.24 --undefined-- 55.065
0.25 --undefined-- 61.133
0.26 --undefined-- 62.721
0.27 --undefined-- 60.518
0.28 --undefined-- 56.441
0.29 --undefined-- 54.847
0.30 --undefined-- 54.799
0.31 --undefined-- 53.427
0.32 --undefined-- 53.461
0.33 --undefined-- 60.006
0.34 123.151 66.014
0.35 123.619 69.494
0.36 121.450 70.812
0.37 116.551 70.754
0.38 112.599 69.780
0.39 113.633 67.680
0.40 113.957 64.881
0.41 112.365 62.412
0.42 109.688 59.232
0.43 107.109 54.861
0.44 --undefined-- 52.535
0.45 115.524 55.156
0.46 127.545 59.571
0.47 132.564 63.759
0.48 138.440 67.067
0.49 140.892 69.140
0.50 141.107 69.906
0.51 140.432 69.785
0.52 139.432 69.046
0.53 137.851 67.298
0.54 132.629 64.017
0.55 128.418 59.784
0.56 125.767 57.999
0.57 125.397 60.990
0.58 127.920 64.856
0.59 127.548 66.924
0.60 126.175 67.377
0.61 124.919 66.927
0.62 123.678 66.263
0.63 123.577 65.797
0.64 123.969 65.387
0.65 124.779 64.228
0.66 118.729 61.618
0.67 116.988 57.074
0.68 --undefined-- 50.487
0.69 --undefined-- 43.720
0.70 --undefined-- 40.507
0.71 --undefined-- 40.215
0.72 --undefined-- 42.034
0.73 --undefined-- 42.431
0.74 --undefined-- 40.305
0.75 --undefined-- 38.689
0.76 --undefined-- 47.275
0.77 --undefined-- 54.767
0.78 --undefined-- 57.865
0.79 --undefined-- 57.570
0.80 --undefined-- 60.515
0.81 149.584 66.901
0.82 147.079 71.020
0.83 144.535 72.807
0.84 141.478 72.883
0.85 141.129 71.918
0.86 142.878 70.496
0.87 148.469 68.875
0.88 152.038 67.422
0.89 152.489 66.828
0.90 151.601 66.492
0.91 149.853 65.596
0.92 147.417 63.719
0.93 140.117 60.691
0.94 136.851 57.084
0.95 --undefined-- 52.956
0.96 --undefined-- 47.892
0.97 --undefined-- 45.075
0.98 --undefined-- 46.831
0.99 --undefined-- 50.239
1.00 --undefined-- 52.981
1.01 --undefined-- 55.979
1.02 149.385 60.815
1.03 150.430 64.771
1.04 150.969 66.957
1.05 151.390 67.940
1.06 155.854 68.253
1.07 159.134 68.599
1.08 163.186 69.379
1.09 168.161 70.483
1.10 172.330 71.393
1.11 173.884 71.109
1.12 173.468 68.794
1.13 165.750 63.803
1.14 --undefined-- 55.587
1.15 --undefined-- 45.167
1.16 --undefined-- 41.113
1.17 --undefined-- 45.004
1.18 --undefined-- 52.522
1.19 --undefined-- 58.220
1.20 --undefined-- 62.054
1.21 --undefined-- 65.053
1.22 --undefined-- 66.782
1.23 --undefined-- 66.667
1.24 --undefined-- 64.803
1.25 --undefined-- 62.162
1.26 --undefined-- 59.896
1.27 --undefined-- 57.653
1.28 --undefined-- 57.050
1.29 163.723 61.428
1.30 157.926 64.918
1.31 155.664 66.283
1.32 148.311 66.448
1.33 143.851 65.939
1.34 140.469 64.420
1.35 134.766 61.466
1.36 --undefined-- 56.535
1.37 --undefined-- 49.544
1.38 --undefined-- 43.201
1.39 --undefined-- 41.598
1.40 --undefined-- 43.040
1.41 --undefined-- 50.658
1.42 --undefined-- 57.739
1.43 --undefined-- 61.143
1.44 --undefined-- 61.730
1.45 --undefined-- 60.789
1.46 --undefined-- 59.102
1.47 --undefined-- 58.891
1.48 --undefined-- 65.034
1.49 180.756 71.137
1.50 181.731 75.054
1.51 178.551 76.418
1.52 175.134 75.092
1.53 172.833 70.831
1.54 --undefined-- 63.286
1.55 --undefined-- 52.602
1.56 --undefined-- 46.203
1.57 --undefined-- 45.475
1.58 --undefined-- 44.693
1.59 --undefined-- 43.883
1.60 --undefined-- 42.589
1.61 --undefined-- 39.696
1.62 --undefined-- 37.004
1.63 --undefined-- 39.040
1.64 --undefined-- 45.617
1.65 --undefined-- 50.935
1.66 --undefined-- 54.027
1.67 --undefined-- 60.391
1.68 --undefined-- 67.659
1.69 --undefined-- 72.382
1.70 133.010 74.790
1.71 125.359 75.395
1.72 120.974 74.846
1.73 120.205 73.893
1.74 121.058 73.022
1.75 122.278 72.499
1.76 123.072 72.294
1.77 123.319 72.109
1.78 124.888 72.400
1.79 127.854 73.160
1.80 132.677 74.043
1.81 136.443 74.880
1.82 140.251 75.040
1.83 144.809 74.221
1.84 150.145 72.875
1.85 154.085 71.266
1.86 156.457 68.779
1.87 155.965 65.290
1.88 155.719 61.705
1.89 154.531 58.594
1.90 152.794 55.780
1.91 149.789 53.003
1.92 --undefined-- 49.875
1.93 --undefined-- 45.619
1.94 --undefined-- 41.022
1.95 --undefined-- 39.304
1.96 --undefined-- 39.226
1.97 --undefined-- 39.317
1.98 --undefined-- 39.835
1.99 --undefined-- 40.950
2.00 --undefined-- 41.151
2.01 --undefined-- 40.547
2.02 --undefined-- 39.291
2.03 --undefined-- 37.274
2.04 --undefined-- 36.710
2.05 --undefined-- 37.068
2.06 --undefined-- 36.902
2.07 --undefined-- 36.640
2.08 --undefined-- 36.208
2.09 --undefined-- 38.055
2.10 --undefined-- 44.775
2.11 --undefined-- 52.951
2.12 --undefined-- 58.171
2.13 106.931 61.384
2.14 106.641 64.690
2.15 106.960 68.575
2.16 108.572 71.326
2.17 --undefined-- 72.904
2.18 117.147 74.567
2.19 117.181 76.325
2.20 116.641 77.477
2.21 115.927 77.825
2.22 116.385 77.744
2.23 117.223 77.355
2.24 116.587 76.246
2.25 115.477 74.117
2.26 115.342 71.038
2.27 117.214 68.087
2.28 120.552 66.501
2.29 121.540 66.139
2.30 122.146 65.819
2.31 121.567 64.481
2.32 120.246 61.469
2.33 --undefined-- 56.318
2.34 --undefined-- 49.356
2.35 --undefined-- 44.086
2.36 --undefined-- 44.168
2.37 --undefined-- 45.618
2.38 --undefined-- 46.211
2.39 --undefined-- 47.241
2.40 --undefined-- 53.853
2.41 --undefined-- 62.081
2.42 --undefined-- 68.484
2.43 132.053 72.793
2.44 130.095 75.997
2.45 131.757 78.353
2.46 132.636 79.559
2.47 132.067 79.563
2.48 132.543 78.464
2.49 132.373 76.243
2.50 129.375 72.881
2.51 125.518 68.934
2.52 --undefined-- 64.686
2.53 --undefined-- 59.726
2.54 --undefined-- 55.139
2.55 --undefined-- 51.680
2.56 --undefined-- 48.941
2.57 --undefined-- 45.754
2.58 --undefined-- 42.237
2.59 --undefined-- 42.892
2.60 --undefined-- 44.234
2.61 --undefined-- 43.201
2.62 --undefined-- 42.394
2.63 --undefined-- 43.040
2.64 --undefined-- 43.085
2.65 --undefined-- 44.893
2.66 --undefined-- 50.645
2.67 --undefined-- 55.960
2.68 --undefined-- 60.017
2.69 --undefined-- 62.571
2.70 --undefined-- 63.277
2.71 --undefined-- 62.909
2.72 --undefined-- 62.739
2.73 --undefined-- 62.068
2.74 --undefined-- 60.905
2.75 --undefined-- 61.070
2.76 --undefined-- 61.520
2.77 --undefined-- 60.237
2.78 --undefined-- 56.379
2.79 --undefined-- 49.873
2.80 --undefined-- 42.230
2.81 --undefined-- 37.044
2.82 --undefined-- 36.475
2.83 --undefined-- 36.993
2.84 --undefined-- 38.354
2.85 --undefined-- 39.941
2.86 --undefined-- 39.914
2.87 --undefined-- 39.423
2.88 --undefined-- 43.716
2.89 --undefined-- 49.458
2.90 --undefined-- 52.968
2.91 --undefined-- 54.150
2.92 --undefined-- 53.790
2.93 --undefined-- 52.090
2.94 --undefined-- 49.947
2.95 --undefined-- 55.061
2.96 168.031 61.322
2.97 161.570 64.524
2.98 159.306 64.851
2.99 155.663 62.542
3.00 --undefined-- 57.608
3.01 --undefined-- 50.084
3.02 --undefined-- 41.062
3.03 --undefined-- 36.751
3.04 --undefined-- 46.588
3.05 --undefined-- 55.075
3.06 --undefined-- 58.867
3.07 --undefined-- 58.654
3.08 --undefined-- 55.697
3.09 --undefined-- 53.177
3.10 --undefined-- 58.527
3.11 187.027 65.657
3.12 191.274 69.950
3.13 189.078 71.744
3.14 187.127 71.433
3.15 185.884 69.116
3.16 183.057 64.762
3.17 --undefined-- 58.273
3.18 --undefined-- 49.897
3.19 --undefined-- 44.693
3.20 --undefined-- 42.749
3.21 --undefined-- 40.397
3.22 --undefined-- 38.477
3.23 --undefined-- 37.209
3.24 --undefined-- 36.587
3.25 --undefined-- 37.723
3.26 --undefined-- 46.544
3.27 --undefined-- 56.538
3.28 --undefined-- 62.868
3.29 --undefined-- 66.556
3.30 --undefined-- 68.787
3.31 119.528 70.206
3.32 122.060 70.467
3.33 123.460 69.580
3.34 119.559 68.094
3.35 120.447 66.234
3.36 116.629 63.852
3.37 114.604 60.012
3.38 --undefined-- 53.921
3.39 --undefined-- 46.186
3.40 --undefined-- 39.931
3.41 --undefined-- 38.299
3.42 --undefined-- 39.797
3.43 --undefined-- 41.183
3.44 --undefined-- 46.481
3.45 --undefined-- 53.875
3.46 109.714 58.663
3.47 108.598 60.902
3.48 107.944 61.583
3.49 107.327 61.836
3.50 106.248 61.913
3.51 106.620 61.722
3.52 106.625 61.311
3.53 105.845 60.578
3.54 104.663 59.862
3.55 104.488 59.779
3.56 103.521 59.953
3.57 102.973 60.044
3.58 103.082 60.148
3.59 103.072 60.517
3.60 101.790 60.943
3.61 100.757 61.141
3.62 --undefined-- 60.470
3.63 --undefined-- 60.052
3.64 --undefined-- 60.795
3.65 --undefined-- 61.711
3.66 --undefined-- 62.256
3.67 106.272 62.936
3.68 104.957 62.947
3.69 111.554 62.241
3.70 112.066 61.127
3.71 119.014 59.025
3.72 122.021 56.255
3.73 123.032 54.070
3.74 --undefined-- 53.954
3.75 138.106 56.820
3.76 140.917 61.830
3.77 146.381 67.480
3.78 151.242 72.270
3.79 154.247 75.374
3.80 154.168 76.671
3.81 153.423 76.893
3.82 152.350 77.149
3.83 152.592 77.822
3.84 152.593 78.528
3.85 152.292 78.795
3.86 151.877 78.612
3.87 152.181 78.512
3.88 153.399 78.559
3.89 154.891 78.157
3.90 156.531 76.908
3.91 157.200 74.701
3.92 156.723 71.062
3.93 154.646 65.408
3.94 --undefined-- 59.085
3.95 --undefined-- 54.595
3.96 --undefined-- 49.665
3.97 --undefined-- 44.225
3.98 --undefined-- 44.844
3.99 --undefined-- 48.385
4.00 --undefined-- 50.600
4.01 --undefined-- 50.106
4.02 --undefined-- 46.352
4.03 --undefined-- 40.664
4.04 --undefined-- 38.068
4.05 --undefined-- 37.242
4.06 --undefined-- 36.595
4.07 --undefined-- 35.752
4.08 --undefined-- 34.238
4.09 --undefined-- 32.750
4.10 --undefined-- 33.647
4.11 --undefined-- 40.668
4.12 --undefined-- 47.608
4.13 --undefined-- 53.712
4.14 --undefined-- 60.256
4.15 --undefined-- 65.172
4.16 --undefined-- 68.515
4.17 --undefined-- 70.489
4.18 --undefined-- 71.948
4.19 136.810 73.948
4.20 139.667 75.882
4.21 139.410 77.005
4.22 139.595 77.496
4.23 139.504 77.700
4.24 138.858 77.757
4.25 139.105 77.666
4.26 139.954 77.508
4.27 140.553 77.112
4.28 140.920 76.306
4.29 140.725 75.153
4.30 141.743 73.787
4.31 141.728 72.569
4.32 140.838 71.190
4.33 139.700 68.417
4.34 135.432 63.793
4.35 --undefined-- 57.420
4.36 --undefined-- 50.908
4.37 --undefined-- 48.422
4.38 --undefined-- 49.023
4.39 --undefined-- 50.796
4.40 --undefined-- 52.883
4.41 --undefined-- 53.967
4.42 --undefined-- 53.989
4.43 --undefined-- 54.064
4.44 --undefined-- 55.091
4.45 --undefined-- 56.670
4.46 --undefined-- 60.531
4.47 --undefined-- 65.731
4.48 --undefined-- 68.635
4.49 --undefined-- 69.029
4.50 --undefined-- 67.345
4.51 --undefined-- 64.946
4.52 --undefined-- 65.750
4.53 --undefined-- 68.444
4.54 --undefined-- 71.027
4.55 --undefined-- 73.415
4.56 190.837 74.639
4.57 201.530 74.684
4.58 213.069 74.613
4.59 218.243 74.481
4.60 221.190 73.983
4.61 220.847 73.613
4.62 219.581 73.683
4.63 219.406 73.954
4.64 219.149 73.669
4.65 216.743 72.524
4.66 210.890 71.429
4.67 205.067 71.449
4.68 200.990 71.323
4.69 199.518 70.023
4.70 196.470 68.181
4.71 192.733 67.322
4.72 188.457 67.368
4.73 183.581 67.219
4.74 174.987 66.212
4.75 165.180 64.233
4.76 153.556 62.763
4.77 141.227 64.428
4.78 138.386 66.467
4.79 --undefined-- 67.183
4.80 --undefined-- 66.812
4.81 --undefined-- 65.839
4.82 --undefined-- 64.539
4.83 --undefined-- 62.969
4.84 --undefined-- 61.125
4.85 --undefined-- 58.464
4.86 --undefined-- 54.874
4.87 --undefined-- 50.208
4.88 --undefined-- 47.777
4.89 --undefined-- 48.956
4.90 --undefined-- 50.135
4.91 --undefined-- 50.456
4.92 --undefined-- 52.038
4.93 --undefined-- 57.651
4.94 155.620 63.396
4.95 163.266 67.369
4.96 167.051 69.427
4.97 169.647 69.907
4.98 170.371 69.132
4.99 168.905 66.816
5.00 167.178 62.082
5.01 --undefined-- 54.119
5.02 --undefined-- 45.268
5.03 --undefined-- 44.963
5.04 --undefined-- 49.326
5.05 --undefined-- 52.203
5.06 --undefined-- 52.655
5.07 --undefined-- 53.126
5.08 --undefined-- 57.760
5.09 178.127 62.172
5.10 176.221 63.845
5.11 172.744 62.450
5.12 162.724 58.012
5.13 --undefined-- 50.616
5.14 --undefined-- 40.991
5.15 --undefined-- 34.545
5.16 --undefined-- 32.317
5.17 --undefined-- 36.759
5.18 --undefined-- 43.761
5.19 --undefined-- 50.429
5.20 --undefined-- 57.934
5.21 151.307 64.002
5.22 144.315 67.778
5.23 142.605 69.667
5.24 142.367 70.493
5.25 144.833 70.908
5.26 145.980 70.741
5.27 146.462 69.554
5.28 147.880 67.133
5.29 146.875 63.551
5.30 139.123 59.128
5.31 --undefined-- 53.860
5.32 --undefined-- 48.600
5.33 --undefined-- 44.898
5.34 --undefined-- 43.016
5.35 --undefined-- 43.046
5.36 --undefined-- 52.029
5.37 172.457 61.039
5.38 169.141 66.725
5.39 163.426 70.238
5.40 158.507 72.290
5.41 155.808 73.139
5.42 154.883 72.667
5.43 152.918 71.197
5.44 151.988 69.832
5.45 152.120 69.176
5.46 152.469 69.040
5.47 153.195 69.219
5.48 153.583 69.370
5.49 152.955 69.035
5.50 151.115 67.805
5.51 149.536 65.436
5.52 146.493 62.473
5.53 146.097 60.659
5.54 144.971 60.683
5.55 143.048 61.387
5.56 140.572 61.799
5.57 135.553 61.432
5.58 132.443 60.475
5.59 126.917 59.710
5.60 122.776 59.828
5.61 120.804 60.702
5.62 --undefined-- 61.613
5.63 --undefined-- 61.806
5.64 --undefined-- 61.840
5.65 --undefined-- 61.515
5.66 --undefined-- 59.038
5.67 --undefined-- 57.184
5.68 --undefined-- 56.865
5.69 --undefined-- 53.281
5.70 --undefined-- 44.962
5.71 --undefined-- 34.160
5.72 --undefined-- 32.944
5.73 --undefined-- 33.958
5.74 --undefined-- 33.491
5.75 --undefined-- 31.636
5.76 --undefined-- 30.927
5.77 --undefined-- 32.007
5.78 --undefined-- 34.317
5.79 --undefined-- 36.029
5.80 --undefined-- 35.926
5.81 --undefined-- 34.822
5.82 --undefined-- 34.030
5.83 --undefined-- 33.476
5.84 --undefined-- 33.274
5.85 --undefined-- 33.070
5.86 --undefined-- 32.619
5.87 --undefined-- 32.951
5.88 --undefined-- 33.070
5.89 --undefined-- 32.123
5.90 --undefined-- 30.535
5.91 --undefined-- 29.241
5.92 --undefined-- 30.591
5.93 --undefined-- 32.237
5.94 --undefined-- 32.139
5.95 --undefined-- 30.903
5.96 --undefined-- 29.518
5.97 --undefined-- 28.797
5.98 --undefined-- 27.809
5.99 --undefined-- 26.871
6.00 --undefined-- 28.542
6.01 --undefined-- 29.989
6.02 --undefined-- 29.043
6.03 --undefined-- 27.757
6.04 --undefined-- 27.677
6.05 --undefined-- 27.221
6.06 --undefined-- 27.341
6.07 --undefined-- 27.794
6.08 --undefined-- 27.345
6.09 --undefined-- 26.896
6.10 --undefined-- 27.950
6.11 --undefined-- 29.574
6.12 --undefined-- 29.776
6.13 --undefined-- 34.721
6.14 --undefined-- 48.478
6.15 --undefined-- 58.331
6.16 193.820 65.135
6.17 193.920 69.437
6.18 199.930 71.292
6.19 203.889 70.471
6.20 210.023 67.234
6.21 214.963 63.378
6.22 221.534 62.389
6.23 225.557 63.371
6.24 227.241 64.585
6.25 226.749 65.569
6.26 222.596 66.214
6.27 216.465 66.182
6.28 209.402 64.878
6.29 206.937 61.395
6.30 --undefined-- 54.711
6.31 --undefined-- 44.174
6.32 --undefined-- 33.339
6.33 --undefined-- 36.806
6.34 --undefined-- 52.791
6.35 --undefined-- 64.401
6.36 --undefined-- 71.272
6.37 --undefined-- 74.625
6.38 --undefined-- 75.468
6.39 --undefined-- 74.999
6.40 139.971 --undefined--
6.41 142.542 --undefined--
6.42 --undefined-- --undefined--
6.43 --undefined-- --undefined--
