Time Pitch Intensity
0.01 --undefined-- --undefined--
0.02 113.252 --undefined--
0.03 112.236 --undefined--
0.04 111.452 --undefined--
0.05 111.227 70.344
0.06 110.781 70.446
0.07 110.171 70.455
0.08 109.232 70.170
0.09 108.421 68.924
0.10 102.178 66.783
0.11 107.240 65.964
0.12 107.528 66.432
0.13 106.019 66.783
0.14 103.984 66.827
0.15 101.754 66.783
0.16 101.595 66.978
0.17 101.187 67.380
0.18 98.030 67.823
0.19 97.714 68.195
0.20 96.479 68.075
0.21 93.367 67.220
0.22 94.386 66.376
0.23 95.602 66.150
0.24 95.945 66.057
0.25 96.712 65.907
0.26 97.179 65.836
0.27 97.164 65.552
0.28 96.106 64.371
0.29 93.136 61.743
0.30 90.603 57.607
0.31 --undefined-- 53.407
0.32 --undefined-- 51.418
0.33 --undefined-- 50.888
0.34 --undefined-- 52.211
0.35 --undefined-- 54.264
0.36 --undefined-- 55.540
0.37 --undefined-- 58.598
0.38 --undefined-- 63.472
0.39 108.822 67.005
0.40 112.524 69.422
0.41 117.149 71.218
0.42 121.827 72.411
0.43 127.096 73.186
0.44 131.002 73.747
0.45 134.154 73.934
0.46 135.237 73.548
0.47 135.520 72.450
0.48 138.926 70.201
0.49 138.600 66.098
0.50 --undefined-- 60.626
0.51 --undefined-- 57.474
0.52 --undefined-- 57.006
0.53 --undefined-- 57.456
0.54 --undefined-- 58.387
0.55 --undefined-- 58.996
0.56 --undefined-- 62.642
0.57 --undefined-- 68.993
0.58 152.691 72.370
0.59 146.332 72.813
0.60 134.479 72.256
0.61 126.312 72.571
0.62 121.734 72.992
0.63 118.488 72.869
0.64 116.032 72.358
0.65 114.714 71.944
0.66 114.555 71.665
0.67 113.603 71.125
0.68 113.228 70.274
0.69 112.895 68.759
0.70 109.999 65.969
0.71 118.550 62.394
0.72 127.959 59.543
0.73 136.127 57.014
0.74 --undefined-- 56.358
0.75 --undefined-- 59.230
0.76 125.660 65.406
0.77 117.217 69.634
0.78 112.336 71.071
0.79 119.797 70.727
0.80 119.650 69.687
0.81 118.077 68.776
0.82 109.345 68.590
0.83 102.809 68.641
0.84 100.647 68.394
0.85 99.122 68.071
0.86 96.957 67.967
0.87 94.949 67.953
0.88 91.926 67.480
0.89 89.764 65.922
0.90 90.494 63.189
0.91 89.365 60.013
0.92 --undefined-- 57.074
0.93 --undefined-- 53.525
0.94 --undefined-- 48.799
0.95 --undefined-- 46.602
0.96 --undefined-- 46.521
0.97 --undefined-- 47.125
0.98 --undefined-- 47.755
0.99 --undefined-- 47.299
1.00 --undefined-- 46.775
1.01 --undefined-- 46.791
1.02 --undefined-- 47.054
1.03 --undefined-- 47.514
1.04 --undefined-- 48.147
1.05 --undefined-- 49.049
1.06 --undefined-- 49.519
1.07 --undefined-- 49.088
1.08 --undefined-- 48.448
1.09 --undefined-- 48.311
1.10 --undefined-- 48.485
1.11 --undefined-- 48.575
1.12 --undefined-- 48.397
1.13 --undefined-- 47.514
1.14 --undefined-- 45.868
1.15 --undefined-- 44.605
1.16 --undefined-- 43.873
1.17 --undefined-- 42.734
1.18 --undefined-- 41.328
1.19 --undefined-- 39.761
1.20 --undefined-- 38.754
1.21 --undefined-- 39.383
1.22 --undefined-- 41.719
1.23 --undefined-- 46.496
1.24 --undefined-- 52.336
1.25 --undefined-- 61.072
1.26 --undefined-- 69.019
1.27 --undefined-- 73.579
1.28 163.563 75.600
1.29 165.349 76.369
1.30 166.117 76.559
1.31 164.918 75.634
1.32 161.868 72.749
1.33 163.385 68.954
1.34 162.862 68.529
1.35 163.983 69.839
1.36 162.188 70.749
1.37 159.191 71.571
1.38 156.603 72.503
1.39 156.047 73.406
1.40 153.484 74.015
1.41 148.153 74.122
1.42 148.588 73.969
1.43 149.074 73.757
1.44 150.417 73.370
1.45 151.104 72.738
1.46 153.137 72.454
1.47 155.558 72.799
1.48 155.694 73.283
1.49 154.495 73.739
1.50 153.144 74.368
1.51 151.727 74.812
1.52 149.890 74.360
1.53 144.967 72.658
1.54 136.215 70.194
1.55 134.305 68.996
1.56 134.831 69.733
1.57 135.732 70.662
1.58 134.076 70.861
1.59 129.651 70.301
1.60 126.450 69.339
1.61 116.176 67.919
1.62 108.430 66.156
1.63 107.225 65.431
1.64 106.720 65.978
1.65 107.415 66.700
1.66 108.517 67.318
1.67 110.924 67.865
1.68 113.737 67.892
1.69 114.204 66.767
1.70 112.935 64.075
1.71 113.443 60.053
1.72 117.398 58.970
1.73 146.419 65.415
1.74 145.151 70.206
1.75 138.430 71.922
1.76 129.986 71.686
1.77 129.109 71.138
1.78 128.891 70.348
1.79 126.479 68.710
1.80 129.926 67.964
1.81 133.014 69.553
1.82 132.391 70.991
1.83 132.372 71.687
1.84 132.161 71.934
1.85 131.741 71.617
1.86 130.808 70.193
1.87 129.739 67.024
1.88 --undefined-- 61.944
1.89 --undefined-- 57.537
1.90 --undefined-- 56.915
1.91 --undefined-- 57.218
1.92 --undefined-- 60.355
1.93 --undefined-- 66.336
1.94 126.074 69.898
1.95 119.898 70.782
1.96 109.976 70.009
1.97 108.730 68.612
1.98 105.252 67.469
1.99 108.790 67.238
2.00 108.049 67.397
2.01 107.692 67.495
2.02 107.346 67.588
2.03 107.491 67.706
2.04 107.827 67.900
2.05 108.773 68.182
2.06 111.003 68.236
2.07 111.560 67.314
2.08 109.907 64.716
2.09 108.301 60.259
2.10 105.905 54.884
2.11 110.205 51.745
2.12 --undefined-- 57.731
2.13 --undefined-- 65.854
2.14 --undefined-- 70.477
2.15 150.547 71.962
2.16 143.667 71.620
2.17 141.962 71.289
2.18 139.268 71.173
2.19 137.993 70.789
2.20 136.965 70.111
2.21 137.819 69.220
2.22 140.027 68.613
2.23 141.217 68.496
2.24 144.787 68.967
2.25 147.668 69.889
2.26 150.986 70.896
2.27 154.410 71.897
2.28 157.270 72.787
2.29 159.491 73.410
2.30 161.421 73.742
2.31 164.709 73.857
2.32 164.783 73.888
2.33 164.924 73.889
2.34 165.404 73.815
2.35 166.309 73.664
2.36 166.647 73.653
2.37 165.506 73.910
2.38 163.730 74.264
2.39 161.719 74.446
2.40 158.349 74.228
2.41 152.087 73.745
2.42 145.267 73.244
2.43 139.350 72.499
2.44 132.635 71.368
2.45 128.007 70.597
2.46 126.082 70.116
2.47 121.621 68.462
2.48 114.224 64.983
2.49 111.838 60.050
2.50 --undefined-- 54.277
2.51 --undefined-- 49.198
2.52 --undefined-- 47.101
2.53 --undefined-- 45.911
2.54 --undefined-- 44.399
2.55 --undefined-- 45.341
2.56 --undefined-- 56.960
2.57 --undefined-- 66.149
2.58 176.354 71.417
2.59 162.861 73.814
2.60 159.911 74.583
2.61 158.361 74.717
2.62 156.185 74.524
2.63 154.062 74.059
2.64 153.575 73.276
2.65 156.510 72.076
2.66 156.253 70.730
2.67 150.432 69.933
2.68 146.129 69.715
2.69 138.822 69.681
2.70 130.763 70.641
2.71 127.134 72.333
2.72 124.304 73.166
2.73 121.845 72.768
2.74 117.873 71.881
2.75 114.310 71.187
2.76 109.444 70.360
2.77 107.112 69.055
2.78 102.200 66.455
2.79 92.025 62.784
2.80 91.575 61.137
2.81 89.732 61.162
2.82 93.936 62.322
2.83 96.862 64.203
2.84 96.239 65.616
2.85 96.525 66.789
2.86 99.750 67.964
2.87 100.579 68.705
2.88 100.865 68.642
2.89 100.569 67.818
2.90 99.562 66.664
2.91 99.404 65.632
2.92 100.214 65.065
2.93 101.246 64.987
2.94 103.847 65.670
2.95 109.600 67.860
2.96 115.119 70.630
2.97 116.866 72.232
2.98 116.529 72.301
2.99 114.759 71.482
3.00 113.291 70.104
3.01 107.281 67.370
3.02 97.584 62.752
3.03 106.412 57.046
3.04 98.940 51.375
3.05 --undefined-- 47.229
3.06 --undefined-- 45.527
3.07 --undefined-- 46.259
3.08 --undefined-- 47.581
3.09 --undefined-- 47.630
3.10 --undefined-- 53.770
3.11 --undefined-- 64.078
3.12 --undefined-- 70.355
3.13 166.472 73.120
3.14 165.187 73.244
3.15 160.118 71.260
3.16 153.705 67.226
3.17 158.013 61.874
3.18 161.002 57.723
3.19 159.475 54.472
3.20 161.933 51.237
3.21 158.234 48.937
3.22 162.340 47.581
3.23 --undefined-- 47.408
3.24 --undefined-- 46.636
3.25 --undefined-- 45.785
3.26 --undefined-- 50.748
3.27 --undefined-- 58.330
3.28 --undefined-- 66.534
3.29 --undefined-- 71.839
3.30 --undefined-- 73.787
3.31 --undefined-- 73.153
3.32 127.598 71.327
3.33 124.934 69.616
3.34 112.107 68.490
3.35 107.204 67.799
3.36 105.581 67.461
3.37 107.735 67.614
3.38 109.827 67.812
3.39 110.057 67.838
3.40 --undefined-- 67.151
3.41 --undefined-- 65.035
3.42 --undefined-- 61.001
3.43 --undefined-- 55.524
3.44 --undefined-- 51.320
3.45 --undefined-- 49.239
3.46 --undefined-- 48.684
3.47 --undefined-- 47.582
3.48 --undefined-- 45.808
3.49 --undefined-- 46.235
3.50 --undefined-- 47.267
3.51 --undefined-- 47.520
3.52 --undefined-- 47.318
3.53 --undefined-- 47.073
3.54 --undefined-- 46.782
3.55 --undefined-- 46.484
3.56 --undefined-- 46.022
3.57 --undefined-- 45.577
3.58 --undefined-- 45.621
3.59 --undefined-- 46.088
3.60 --undefined-- 47.176
3.61 --undefined-- 49.094
3.62 --undefined-- 49.982
3.63 --undefined-- 48.968
3.64 --undefined-- 47.196
3.65 --undefined-- 44.699
3.66 --undefined-- 40.782
3.67 --undefined-- 38.303
3.68 --undefined-- 38.606
3.69 --undefined-- 42.492
3.70 --undefined-- 55.716
3.71 --undefined-- 65.601
3.72 140.928 71.386
3.73 138.375 73.873
3.74 138.922 74.171
3.75 142.772 74.074
3.76 152.139 74.839
3.77 157.156 75.502
3.78 158.074 74.470
3.79 162.932 71.374
3.80 194.914 68.745
3.81 207.765 69.081
3.82 223.269 69.946
3.83 230.579 71.053
3.84 230.228 72.203
3.85 229.311 72.585
3.86 227.015 72.183
3.87 221.078 71.819
3.88 210.707 72.395
3.89 198.190 73.324
3.90 187.385 73.681
3.91 178.038 73.126
3.92 165.938 71.640
3.93 155.600 70.347
3.94 150.777 70.491
3.95 151.626 71.999
3.96 154.668 73.846
3.97 155.008 74.636
3.98 151.413 74.073
3.99 145.518 72.776
4.00 143.253 71.418
4.01 144.864 70.476
4.02 151.063 70.566
4.03 157.685 71.430
4.04 165.983 72.233
4.05 170.177 72.277
4.06 176.459 71.759
4.07 187.558 71.724
4.08 191.277 71.904
4.09 195.763 71.822
4.10 198.003 71.935
4.11 196.433 72.143
4.12 193.547 71.464
4.13 188.932 69.466
4.14 184.236 65.863
4.15 183.848 60.519
4.16 192.204 55.049
4.17 --undefined-- 54.195
4.18 --undefined-- 55.663
4.19 --undefined-- 56.793
4.20 --undefined-- 56.936
4.21 --undefined-- 57.901
4.22 --undefined-- 63.334
4.23 139.193 68.343
4.24 135.816 71.343
4.25 130.974 72.854
4.26 128.827 73.458
4.27 127.544 73.405
4.28 126.397 72.702
4.29 125.747 71.320
4.30 122.370 69.833
4.31 124.636 69.580
4.32 123.246 69.327
4.33 114.193 67.723
4.34 112.112 66.640
4.35 115.197 67.312
4.36 117.084 67.856
4.37 120.982 68.251
4.38 121.773 68.719
4.39 117.970 68.363
4.40 111.583 67.014
4.41 107.917 65.038
4.42 104.040 62.350
4.43 103.170 58.739
4.44 103.778 54.808
4.45 97.664 50.633
4.46 --undefined-- 46.111
4.47 --undefined-- 44.840
4.48 --undefined-- 49.678
4.49 --undefined-- 54.327
4.50 --undefined-- 56.757
4.51 --undefined-- 57.646
4.52 --undefined-- 57.420
4.53 --undefined-- 58.825
4.54 --undefined-- 66.205
4.55 172.458 71.357
4.56 162.278 73.382
4.57 157.562 73.329
4.58 154.621 72.702
4.59 153.571 72.362
4.60 153.995 72.378
4.61 155.216 72.619
4.62 156.404 72.932
4.63 157.136 73.200
4.64 156.326 73.490
4.65 155.613 73.749
4.66 153.311 73.766
4.67 149.856 73.414
4.68 146.627 72.333
4.69 144.335 70.065
4.70 140.303 66.877
4.71 136.999 67.026
4.72 132.580 70.018
4.73 125.922 71.291
4.74 110.812 70.888
4.75 111.471 69.945
4.76 104.556 68.938
4.77 101.464 67.900
4.78 98.135 67.484
4.79 99.613 68.109
4.80 114.899 69.310
4.81 115.491 70.073
4.82 113.698 69.972
4.83 110.893 69.109
4.84 108.308 67.732
4.85 106.755 66.345
4.86 107.367 65.072
4.87 107.277 63.331
4.88 105.428 61.251
4.89 106.105 59.786
4.90 106.621 59.570
4.91 106.825 59.951
4.92 106.823 60.343
4.93 106.268 60.535
4.94 105.610 61.177
4.95 106.203 63.344
4.96 108.368 66.350
4.97 111.160 68.871
4.98 111.675 70.391
4.99 111.812 71.176
5.00 111.319 71.606
5.01 110.816 71.856
5.02 110.022 72.088
5.03 108.865 72.360
5.04 108.407 72.507
5.05 108.458 72.345
5.06 108.018 71.579
5.07 105.757 69.573
5.08 96.542 65.671
5.09 92.442 --undefined--
5.10 91.486 --undefined--
5.11 --undefined-- --undefined--
5.12 --undefined-- --undefined--
