Time Pitch Intensity
0.01 --undefined-- --undefined--
0.02 137.838 --undefined--
0.03 139.533 --undefined--
0.04 133.119 --undefined--
0.05 131.641 79.428
0.06 128.109 79.637
0.07 126.693 79.378
0.08 126.366 78.839
0.09 126.427 78.014
0.10 126.243 76.849
0.11 130.611 75.732
0.12 133.145 74.795
0.13 133.807 73.477
0.14 136.696 71.544
0.15 144.293 69.361
0.16 152.934 67.537
0.17 172.891 67.137
0.18 193.035 69.390
0.19 223.869 73.734
0.20 232.198 77.634
0.21 228.826 79.911
0.22 226.363 80.777
0.23 226.875 80.923
0.24 229.648 80.945
0.25 232.531 80.940
0.26 234.968 80.824
0.27 237.394 80.588
0.28 239.213 80.261
0.29 239.983 79.880
0.30 238.025 79.323
0.31 230.113 78.383
0.32 222.824 77.008
0.33 217.107 74.978
0.34 213.019 71.866
0.35 210.853 67.432
0.36 --undefined-- 62.144
0.37 --undefined-- 58.388
0.38 --undefined-- 62.192
0.39 255.078 70.077
0.40 233.000 75.073
0.41 213.225 77.259
0.42 201.978 77.769
0.43 185.996 77.608
0.44 175.085 77.381
0.45 172.310 77.561
0.46 170.708 77.803
0.47 168.951 77.834
0.48 167.320 77.711
0.49 165.554 77.514
0.50 162.309 77.187
0.51 157.558 76.553
0.52 152.595 75.316
0.53 147.196 73.078
0.54 143.217 69.729
0.55 148.266 65.257
0.56 --undefined-- 58.847
0.57 --undefined-- 50.515
0.58 --undefined-- 46.027
0.59 --undefined-- 46.329
0.60 --undefined-- 48.445
0.61 --undefined-- 53.224
0.62 --undefined-- 60.279
0.63 --undefined-- 67.330
0.64 164.397 72.053
0.65 158.420 75.162
0.66 149.260 77.198
0.67 142.522 78.265
0.68 143.895 78.796
0.69 147.774 79.399
0.70 152.329 80.474
0.71 158.021 81.963
0.72 163.565 83.443
0.73 169.041 84.564
0.74 174.246 85.004
0.75 178.430 84.180
0.76 180.442 81.408
0.77 173.622 76.577
0.78 171.050 71.388
0.79 188.798 67.800
0.80 191.770 65.212
0.81 189.029 64.916
0.82 184.594 67.872
0.83 200.476 71.809
0.84 191.211 74.659
0.85 192.437 76.787
0.86 194.898 78.615
0.87 192.121 79.771
0.88 188.694 79.941
0.89 190.343 79.426
0.90 189.556 78.776
0.91 192.086 78.244
0.92 191.869 77.666
0.93 188.015 76.882
0.94 183.288 76.185
0.95 177.509 76.057
0.96 172.522 76.782
0.97 159.424 77.730
0.98 150.179 78.062
0.99 140.572 77.635
1.00 122.451 76.846
1.01 112.048 76.152
1.02 109.456 75.543
1.03 105.549 74.954
1.04 102.587 74.334
1.05 99.446 73.621
1.06 98.002 72.873
1.07 99.542 71.970
1.08 98.480 70.078
1.09 93.667 66.436
1.10 99.527 61.241
1.11 --undefined-- 54.973
1.12 --undefined-- 49.212
1.13 --undefined-- 45.196
1.14 --undefined-- 41.138
1.15 --undefined-- 40.722
1.16 --undefined-- 42.885
1.17 --undefined-- 47.240
1.18 --undefined-- 56.158
1.19 --undefined-- 61.675
1.20 --undefined-- 62.824
1.21 --undefined-- 60.034
1.22 --undefined-- 57.699
1.23 --undefined-- 60.640
1.24 --undefined-- 66.988
1.25 189.421 73.842
1.26 189.668 77.996
1.27 185.396 79.888
1.28 185.785 80.691
1.29 188.214 81.269
1.30 190.169 81.598
1.31 190.773 81.270
1.32 191.540 79.968
1.33 192.175 77.501
1.34 180.029 73.713
1.35 169.787 69.511
1.36 178.098 66.785
1.37 206.227 67.543
1.38 228.580 70.948
1.39 241.093 73.472
1.40 241.710 74.161
1.41 243.178 73.261
1.42 230.605 71.160
1.43 228.626 68.974
1.44 239.575 68.241
1.45 221.927 67.704
1.46 197.038 67.348
1.47 184.848 69.481
1.48 185.427 72.855
1.49 176.838 75.060
1.50 170.405 76.020
1.51 170.372 76.163
1.52 171.947 75.921
1.53 172.596 75.788
1.54 172.929 75.671
1.55 171.651 75.400
1.56 172.737 75.365
1.57 175.356 75.460
1.58 173.981 75.469
1.59 171.609 75.477
1.60 168.556 75.510
1.61 165.141 75.667
1.62 161.509 75.993
1.63 157.946 76.585
1.64 151.767 77.076
1.65 149.514 77.145
1.66 144.625 76.958
1.67 140.691 76.644
1.68 140.131 76.235
1.69 138.424 75.603
1.70 134.761 74.617
1.71 129.959 73.460
1.72 123.797 72.700
1.73 123.580 72.498
1.74 125.153 72.788
1.75 120.879 73.309
1.76 110.175 73.529
1.77 105.488 73.389
1.78 100.261 73.060
1.79 98.425 72.773
1.80 96.870 72.537
1.81 96.218 72.194
1.82 96.780 71.798
1.83 96.511 71.553
1.84 97.860 71.688
1.85 98.517 72.003
1.86 99.335 72.057
1.87 99.941 71.482
1.88 100.249 70.013
1.89 102.121 67.601
1.90 102.239 64.207
1.91 99.684 59.574
1.92 --undefined-- 53.998
1.93 --undefined-- 50.172
1.94 --undefined-- 49.106
1.95 --undefined-- 48.622
1.96 --undefined-- 48.438
1.97 --undefined-- 49.919
1.98 --undefined-- 54.015
1.99 --undefined-- 62.973
2.00 170.903 70.740
2.01 144.824 75.219
2.02 135.467 77.162
2.03 125.733 77.621
2.04 125.287 77.495
2.05 124.630 77.476
2.06 124.670 77.620
2.07 124.069 77.788
2.08 123.124 77.962
2.09 123.077 78.067
2.10 123.942 78.009
2.11 124.296 77.857
2.12 124.120 77.782
2.13 124.117 77.833
2.14 123.706 77.906
2.15 123.288 77.846
2.16 121.894 77.431
2.17 121.160 76.322
2.18 118.303 74.417
2.19 123.711 72.981
2.20 123.184 73.300
2.21 119.805 74.097
2.22 118.064 74.479
2.23 116.301 74.661
2.24 114.694 75.316
2.25 114.527 76.143
2.26 112.497 76.423
2.27 109.899 76.197
2.28 108.546 75.635
2.29 106.727 74.749
2.30 105.851 73.669
2.31 102.114 72.621
2.32 100.968 71.739
2.33 98.474 70.972
2.34 98.274 70.413
2.35 97.554 70.136
2.36 97.071 70.190
2.37 98.024 70.547
2.38 99.041 70.815
2.39 99.674 70.563
2.40 101.041 69.389
2.41 104.832 66.988
2.42 117.260 63.708
2.43 120.295 60.689
2.44 --undefined-- 58.401
2.45 --undefined-- 56.120
2.46 --undefined-- 53.501
2.47 --undefined-- 51.695
2.48 --undefined-- 51.551
2.49 --undefined-- 52.178
2.50 --undefined-- 53.307
2.51 --undefined-- 55.825
2.52 --undefined-- 62.997
2.53 157.428 69.805
2.54 145.694 73.543
2.55 134.595 74.918
2.56 131.512 75.062
2.57 130.898 74.741
2.58 130.843 74.167
2.59 129.156 72.987
2.60 122.288 70.654
2.61 111.828 66.871
2.62 109.266 61.727
2.63 --undefined-- 56.861
2.64 --undefined-- 57.866
2.65 --undefined-- 63.434
2.66 --undefined-- 68.806
2.67 123.469 71.777
2.68 114.392 72.906
2.69 111.503 73.284
2.70 111.476 73.460
2.71 109.983 73.413
2.72 111.236 73.275
2.73 111.291 73.148
2.74 112.064 73.059
2.75 111.866 73.012
2.76 112.395 73.201
2.77 113.002 73.722
2.78 114.192 74.351
2.79 115.428 74.896
2.80 115.733 75.060
2.81 117.359 74.743
2.82 118.381 74.346
2.83 123.117 74.485
2.84 130.250 74.982
2.85 136.073 75.391
2.86 142.630 75.616
2.87 149.576 75.874
2.88 152.807 76.415
2.89 156.264 76.919
2.90 160.230 77.138
2.91 162.554 77.037
2.92 163.570 76.606
2.93 163.367 75.828
2.94 161.638 74.497
2.95 157.692 72.444
2.96 152.785 70.018
2.97 150.429 67.878
2.98 156.898 65.808
2.99 165.927 62.823
3.00 --undefined-- 58.056
3.01 --undefined-- 51.409
3.02 --undefined-- 44.886
3.03 --undefined-- 41.439
3.04 --undefined-- 39.336
3.05 --undefined-- 43.095
3.06 --undefined-- 54.687
3.07 --undefined-- 63.248
3.08 222.857 70.565
3.09 224.532 76.418
3.10 215.069 79.949
3.11 208.876 81.653
3.12 196.317 82.021
3.13 190.806 80.938
3.14 193.896 79.367
3.15 194.344 78.699
3.16 195.067 78.388
3.17 195.523 77.948
3.18 194.896 77.420
3.19 194.298 76.955
3.20 193.371 76.489
3.21 192.367 76.011
3.22 191.840 75.705
3.23 191.425 75.563
3.24 191.073 75.515
3.25 190.797 75.563
3.26 189.889 75.563
3.27 188.411 75.377
3.28 186.304 75.013
3.29 183.344 74.492
3.30 178.524 73.699
3.31 171.799 72.334
3.32 161.589 69.986
3.33 145.266 66.728
3.34 136.944 64.233
3.35 146.325 64.302
3.36 --undefined-- 67.745
3.37 --undefined-- 72.386
3.38 --undefined-- 75.121
3.39 121.054 75.734
3.40 117.864 75.251
3.41 115.298 74.910
3.42 114.483 74.903
3.43 113.038 74.737
3.44 112.778 74.395
3.45 113.694 74.101
3.46 114.053 73.858
3.47 115.037 73.607
3.48 116.452 73.340
3.49 118.335 72.993
3.50 118.582 72.374
3.51 118.024 71.478
3.52 119.463 70.612
3.53 120.768 70.164
3.54 122.471 70.517
3.55 123.055 71.764
3.56 128.263 73.487
3.57 132.519 75.060
3.58 135.566 76.252
3.59 139.370 77.093
3.60 141.502 77.763
3.61 146.672 78.468
3.62 149.162 79.129
3.63 151.064 79.534
3.64 153.066 79.691
3.65 155.003 79.697
3.66 157.015 79.714
3.67 158.817 79.948
3.68 159.786 80.264
3.69 160.899 80.301
3.70 161.007 79.679
3.71 157.372 77.847
3.72 151.861 74.608
3.73 148.120 70.671
3.74 146.605 66.394
3.75 154.018 61.235
3.76 --undefined-- 54.854
3.77 --undefined-- 47.702
3.78 --undefined-- 43.930
3.79 --undefined-- 44.103
3.80 --undefined-- 46.787
3.81 --undefined-- 51.615
3.82 --undefined-- 62.755
3.83 218.391 72.104
3.84 210.677 77.621
3.85 197.630 80.185
3.86 182.557 80.859
3.87 178.805 80.831
3.88 180.690 80.751
3.89 182.441 80.554
3.90 182.926 80.186
3.91 182.482 79.696
3.92 179.519 79.143
3.93 174.060 78.240
3.94 165.004 76.116
3.95 144.285 71.927
3.96 --undefined-- 65.207
3.97 --undefined-- 57.116
3.98 --undefined-- 52.944
3.99 --undefined-- 51.614
4.00 --undefined-- 51.793
4.01 --undefined-- 52.004
4.02 --undefined-- 52.134
4.03 --undefined-- 51.534
4.04 --undefined-- 49.988
4.05 --undefined-- 49.303
4.06 --undefined-- 49.919
4.07 --undefined-- 49.925
4.08 --undefined-- 49.232
4.09 --undefined-- 48.160
4.10 --undefined-- 46.671
4.11 --undefined-- 45.323
4.12 --undefined-- 46.197
4.13 --undefined-- 48.392
4.14 --undefined-- 52.791
4.15 --undefined-- 61.813
4.16 --undefined-- 68.952
4.17 --undefined-- 73.214
4.18 118.239 75.374
4.19 112.256 76.085
4.20 112.408 76.125
4.21 115.003 76.134
4.22 115.912 76.234
4.23 116.985 76.207
4.24 118.414 75.933
4.25 118.218 75.542
4.26 118.198 75.609
4.27 118.640 76.210
4.28 117.148 76.626
4.29 115.809 76.726
4.30 114.998 76.822
4.31 114.408 76.835
4.32 115.098 76.493
4.33 117.414 75.819
4.34 119.214 74.903
4.35 119.784 73.494
4.36 117.558 71.390
4.37 115.156 68.192
4.38 94.637 63.471
4.39 94.146 57.798
4.40 --undefined-- 54.928
4.41 --undefined-- 54.960
4.42 --undefined-- 57.058
4.43 --undefined-- 61.264
4.44 --undefined-- 68.968
4.45 209.072 75.140
4.46 192.770 78.166
4.47 182.425 78.891
4.48 173.320 78.616
4.49 171.504 78.239
4.50 170.813 77.937
4.51 172.256 77.718
4.52 173.573 77.679
4.53 174.260 77.779
4.54 175.787 77.901
4.55 175.891 77.998
4.56 175.101 77.854
4.57 172.065 77.279
4.58 172.736 76.567
4.59 171.580 75.916
4.60 168.165 75.278
4.61 165.084 74.784
4.62 162.292 74.339
4.63 160.548 73.694
4.64 156.918 72.524
4.65 152.981 70.831
4.66 151.938 69.103
4.67 146.848 68.214
4.68 146.455 69.067
4.69 146.365 72.116
4.70 139.932 75.308
4.71 121.518 77.062
4.72 119.089 77.536
4.73 115.891 77.076
4.74 115.562 75.881
4.75 115.761 74.399
4.76 116.411 73.393
4.77 116.985 73.071
4.78 118.496 72.776
4.79 120.394 71.915
4.80 123.973 70.811
4.81 129.093 70.640
4.82 131.325 71.846
4.83 132.611 73.802
4.84 133.053 75.519
4.85 132.106 76.500
4.86 130.117 76.761
4.87 129.021 76.310
4.88 127.180 74.706
4.89 121.470 71.595
4.90 129.226 67.971
4.91 114.827 65.151
4.92 135.634 63.460
4.93 139.298 65.707
4.94 152.111 70.887
4.95 152.627 74.882
4.96 136.605 76.969
4.97 127.695 77.708
4.98 123.276 77.930
4.99 121.442 77.435
5.00 116.222 75.992
5.01 119.942 75.362
5.02 119.070 75.905
5.03 116.760 76.437
5.04 114.936 --undefined--
5.05 113.784 --undefined--
5.06 --undefined-- --undefined--
5.07 --undefined-- --undefined--
