Time Pitch Intensity
0.01 --undefined-- --undefined--
0.02 197.842 --undefined--
0.03 196.218 --undefined--
0.04 192.048 --undefined--
0.05 188.954 68.291
0.06 186.260 68.257
0.07 184.602 68.315
0.08 183.146 68.199
0.09 182.606 68.001
0.10 181.602 67.820
0.11 180.362 67.526
0.12 178.097 67.272
0.13 177.813 67.847
0.14 176.575 69.743
0.15 172.901 71.949
0.16 168.670 73.405
0.17 166.641 73.831
0.18 165.145 73.351
0.19 166.702 72.243
0.20 170.503 70.699
0.21 177.678 68.998
0.22 169.243 68.217
0.23 165.500 68.512
0.24 160.870 68.493
0.25 162.000 67.660
0.26 163.617 66.225
0.27 164.418 65.669
0.28 164.456 65.870
0.29 164.663 64.901
0.30 164.573 62.171
0.31 166.119 58.353
0.32 169.623 56.694
0.33 --undefined-- 59.855
0.34 --undefined-- 61.346
0.35 --undefined-- 59.934
0.36 --undefined-- 58.252
0.37 --undefined-- 57.675
0.38 289.195 56.235
0.39 292.204 55.296
0.40 242.101 54.157
0.41 244.025 54.201
0.42 284.211 56.079
0.43 263.684 60.271
0.44 289.087 63.790
0.45 290.655 64.106
0.46 291.219 61.682
0.47 287.113 60.363
0.48 --undefined-- 61.023
0.49 --undefined-- 60.316
0.50 --undefined-- 58.592
0.51 --undefined-- 56.603
0.52 --undefined-- 55.649
0.53 --undefined-- 55.740
0.54 --undefined-- 54.911
0.55 --undefined-- 52.680
0.56 --undefined-- 50.084
0.57 --undefined-- 50.459
0.58 --undefined-- 52.181
0.59 --undefined-- 53.246
0.60 --undefined-- 53.143
0.61 --undefined-- 57.927
0.62 --undefined-- 65.615
0.63 167.827 70.271
0.64 169.769 72.311
0.65 173.004 73.002
0.66 176.948 73.407
0.67 179.100 74.091
0.68 179.014 74.982
0.69 177.946 75.433
0.70 174.694 75.315
0.71 172.361 75.164
0.72 171.139 75.010
0.73 167.566 74.713
0.74 163.777 74.908
0.75 161.477 75.325
0.76 158.665 74.714
0.77 299.691 72.858
0.78 280.783 71.138
0.79 260.868 70.159
0.80 243.999 69.745
0.81 232.415 70.142
0.82 225.645 70.504
0.83 218.185 70.350
0.84 213.349 69.947
0.85 210.613 69.555
0.86 209.442 69.206
0.87 207.459 68.753
0.88 202.252 68.199
0.89 201.326 67.803
0.90 205.560 67.901
0.91 201.998 69.130
0.92 197.530 70.911
0.93 194.487 72.373
0.94 192.586 73.244
0.95 192.007 73.373
0.96 187.761 73.046
0.97 185.917 72.590
0.98 186.430 72.228
0.99 188.591 72.131
1.00 193.437 72.111
1.01 197.907 72.006
1.02 201.724 71.687
1.03 207.508 70.721
1.04 220.979 69.157
1.05 235.939 68.252
1.06 246.859 68.713
1.07 256.281 69.066
1.08 265.786 68.181
1.09 271.957 66.612
1.10 272.093 66.445
1.11 278.426 67.804
1.12 281.267 68.919
1.13 281.515 69.042
1.14 280.560 68.480
1.15 277.809 68.114
1.16 273.097 68.021
1.17 264.872 67.985
1.18 254.896 68.663
1.19 241.764 70.016
1.20 229.682 70.594
1.21 219.793 69.979
1.22 213.022 68.987
1.23 209.902 68.525
1.24 202.682 68.470
1.25 194.130 68.259
1.26 187.454 68.071
1.27 182.823 67.926
1.28 179.563 67.731
1.29 179.202 67.801
1.30 178.368 68.030
1.31 178.391 68.305
1.32 179.518 68.759
1.33 180.999 69.478
1.34 184.750 70.637
1.35 190.742 71.495
1.36 198.132 70.974
1.37 223.873 69.450
1.38 229.775 68.850
1.39 239.215 68.975
1.40 251.106 68.803
1.41 282.443 69.464
1.42 284.403 70.612
1.43 293.101 71.134
1.44 153.496 71.282
1.45 158.998 71.352
1.46 163.205 71.466
1.47 164.045 71.673
1.48 163.222 71.507
1.49 161.655 71.105
1.50 158.948 71.189
1.51 154.921 71.482
1.52 150.579 71.476
1.53 289.629 71.359
1.54 282.752 71.571
1.55 279.868 71.702
1.56 279.954 71.006
1.57 280.635 69.385
1.58 279.479 67.511
1.59 276.787 65.912
1.60 255.881 64.974
1.61 249.826 64.488
1.62 244.847 63.567
1.63 247.895 62.502
1.64 250.226 62.552
1.65 258.899 63.598
1.66 268.443 64.750
1.67 284.712 66.066
1.68 288.631 67.273
1.69 283.672 68.399
1.70 280.727 70.076
1.71 279.054 71.977
1.72 276.082 73.134
1.73 272.389 73.206
1.74 268.144 72.610
1.75 266.539 71.871
1.76 267.425 70.966
1.77 268.213 69.838
1.78 268.486 69.005
1.79 268.183 68.304
1.80 269.098 67.344
1.81 271.018 66.662
1.82 271.250 66.628
1.83 272.328 67.111
1.84 272.477 67.465
1.85 268.513 66.707
1.86 265.235 64.217
1.87 266.735 60.775
1.88 --undefined-- 60.378
1.89 --undefined-- 61.884
1.90 --undefined-- 63.148
1.91 --undefined-- 63.142
1.92 276.656 62.270
1.93 272.267 64.345
1.94 265.988 66.541
1.95 265.214 67.268
1.96 248.986 67.674
1.97 240.855 68.285
1.98 235.763 69.005
1.99 233.500 70.023
2.00 233.855 71.173
2.01 235.524 71.721
2.02 240.446 70.910
2.03 252.403 68.627
2.04 254.895 65.868
2.05 247.898 62.853
2.06 232.923 58.427
2.07 --undefined-- 53.808
2.08 --undefined-- 54.095
2.09 --undefined-- 54.927
2.10 --undefined-- 54.363
2.11 --undefined-- 56.286
2.12 --undefined-- 59.628
2.13 253.047 63.236
2.14 234.617 65.938
2.15 224.941 67.516
2.16 219.455 68.635
2.17 217.750 69.477
2.18 218.457 69.864
2.19 225.008 69.838
2.20 238.063 69.909
2.21 252.212 70.043
2.22 264.717 69.901
2.23 280.813 69.368
2.24 --undefined-- 68.468
2.25 --undefined-- 66.866
2.26 --undefined-- 64.318
2.27 --undefined-- 61.628
2.28 --undefined-- 59.583
2.29 --undefined-- 59.472
2.30 --undefined-- 58.781
2.31 --undefined-- 55.717
2.32 --undefined-- 53.182
2.33 --undefined-- 54.361
2.34 --undefined-- 54.945
2.35 --undefined-- 55.436
2.36 --undefined-- 57.601
2.37 234.909 61.876
2.38 239.005 67.393
2.39 230.556 71.083
2.40 210.485 73.160
2.41 203.256 74.086
2.42 196.287 74.143
2.43 190.682 74.121
2.44 188.512 73.877
2.45 186.126 72.970
2.46 185.878 71.998
2.47 186.857 71.316
2.48 186.101 70.631
2.49 184.036 70.239
2.50 181.513 70.692
2.51 180.791 71.647
2.52 181.304 72.316
2.53 181.701 72.220
2.54 182.464 71.636
2.55 185.573 70.998
2.56 187.332 70.484
2.57 188.377 70.428
2.58 189.535 70.676
2.59 190.247 71.247
2.60 189.198 71.576
2.61 191.152 70.758
2.62 192.601 69.065
2.63 189.972 67.857
2.64 186.571 67.055
2.65 182.634 65.694
2.66 178.397 64.375
2.67 175.858 64.172
2.68 173.500 64.491
2.69 171.189 65.581
2.70 169.370 66.761
2.71 167.514 67.004
2.72 165.949 67.215
2.73 166.397 67.519
2.74 166.942 67.285
2.75 166.578 66.916
2.76 164.859 66.904
2.77 163.145 66.470
2.78 161.676 64.890
2.79 164.310 63.404
2.80 165.236 63.423
2.81 165.218 63.520
2.82 165.434 63.605
2.83 165.842 64.734
2.84 166.925 65.118
2.85 167.588 64.013
2.86 169.271 62.458
2.87 --undefined-- 60.355
2.88 --undefined-- 60.202
2.89 --undefined-- 63.221
2.90 222.238 65.594
2.91 208.755 66.961
2.92 206.041 67.881
2.93 206.621 68.487
2.94 206.216 68.705
2.95 205.035 68.669
2.96 204.412 68.507
2.97 204.101 68.279
2.98 204.618 67.965
2.99 206.172 67.609
3.00 209.360 67.114
3.01 210.852 65.927
3.02 209.846 63.215
3.03 207.971 58.773
3.04 206.636 54.314
3.05 --undefined-- 53.127
3.06 --undefined-- 54.160
3.07 --undefined-- 56.168
3.08 --undefined-- 58.680
3.09 --undefined-- 59.859
3.10 --undefined-- 60.668
3.11 --undefined-- 61.924
3.12 --undefined-- 63.643
3.13 196.862 66.263
3.14 192.881 68.543
3.15 188.123 69.373
3.16 190.498 68.984
3.17 195.984 68.371
3.18 211.392 67.897
3.19 222.721 67.301
3.20 240.469 66.602
3.21 248.934 66.584
3.22 261.598 67.448
3.23 270.816 68.353
3.24 276.746 69.185
3.25 272.818 70.656
3.26 261.894 71.817
3.27 --undefined-- 71.178
3.28 --undefined-- 68.764
3.29 --undefined-- 65.519
3.30 --undefined-- 62.128
3.31 --undefined-- 58.651
3.32 --undefined-- 55.566
3.33 --undefined-- 56.620
3.34 --undefined-- 59.756
3.35 --undefined-- 60.306
3.36 --undefined-- 58.419
3.37 --undefined-- 58.400
3.38 --undefined-- 60.763
3.39 --undefined-- 62.800
3.40 --undefined-- 64.132
3.41 200.384 66.236
3.42 199.201 69.061
3.43 196.166 70.494
3.44 193.865 70.501
3.45 190.581 70.405
3.46 187.769 70.455
3.47 185.044 69.907
3.48 181.726 68.769
3.49 179.561 67.486
3.50 179.996 66.473
3.51 180.964 65.897
3.52 182.671 65.711
3.53 183.269 66.152
3.54 184.280 66.765
3.55 186.197 66.578
3.56 187.507 65.848
3.57 187.584 65.156
3.58 185.863 63.935
3.59 181.254 62.057
3.60 166.413 61.396
3.61 --undefined-- 63.797
3.62 202.756 67.170
3.63 190.920 69.227
3.64 185.547 69.829
3.65 180.903 69.781
3.66 183.432 69.472
3.67 194.877 68.703
3.68 196.652 67.512
3.69 201.905 66.569
3.70 222.003 66.689
3.71 229.434 67.159
3.72 233.635 66.741
3.73 237.003 65.036
3.74 234.543 62.611
3.75 --undefined-- 60.159
3.76 --undefined-- 56.795
3.77 --undefined-- 53.594
3.78 --undefined-- 53.699
3.79 --undefined-- 55.833
3.80 --undefined-- 60.013
3.81 --undefined-- 65.019
3.82 --undefined-- 67.468
3.83 --undefined-- 66.646
3.84 --undefined-- 63.762
3.85 --undefined-- 63.050
3.86 165.190 64.909
3.87 164.928 65.943
3.88 162.350 65.382
3.89 162.079 64.224
3.90 167.634 63.809
3.91 167.658 64.031
3.92 170.451 65.049
3.93 175.405 66.244
3.94 182.964 66.667
3.95 188.002 66.684
3.96 195.600 66.704
3.97 210.756 66.401
3.98 223.722 66.619
3.99 230.039 67.339
4.00 237.951 67.593
4.01 247.095 67.681
4.02 250.406 67.662
4.03 249.880 66.245
4.04 243.547 62.897
4.05 --undefined-- 58.868
4.06 --undefined-- 56.105
4.07 --undefined-- 57.076
4.08 --undefined-- 60.158
4.09 --undefined-- 62.337
4.10 232.914 63.899
4.11 222.440 64.345
4.12 220.083 63.739
4.13 216.151 63.872
4.14 214.350 65.128
4.15 211.436 65.910
4.16 225.594 66.619
4.17 191.867 67.272
4.18 --undefined-- 67.805
4.19 --undefined-- 68.678
4.20 --undefined-- 68.847
4.21 --undefined-- 68.510
4.22 --undefined-- 68.057
4.23 --undefined-- 67.438
4.24 157.873 67.518
4.25 156.989 67.996
4.26 153.933 67.876
4.27 153.087 66.814
4.28 --undefined-- 64.830
4.29 --undefined-- 63.234
4.30 --undefined-- 63.250
4.31 --undefined-- 63.208
4.32 --undefined-- 61.695
4.33 --undefined-- 59.870
4.34 --undefined-- 58.388
4.35 --undefined-- 55.795
4.36 --undefined-- 55.627
4.37 --undefined-- 58.208
4.38 --undefined-- 60.789
4.39 --undefined-- 62.998
4.40 --undefined-- 64.382
4.41 179.127 65.137
4.42 179.248 65.966
4.43 178.071 66.707
4.44 176.438 66.409
4.45 175.609 65.285
4.46 176.679 64.835
4.47 177.423 65.172
4.48 179.322 65.804
4.49 181.019 66.770
4.50 181.987 67.704
4.51 181.391 67.970
4.52 179.905 66.924
4.53 179.152 63.976
4.54 181.019 59.798
4.55 197.900 60.098
4.56 181.764 62.261
4.57 --undefined-- 62.216
4.58 --undefined-- 59.898
4.59 --undefined-- 57.119
4.60 --undefined-- 59.517
4.61 --undefined-- 62.705
4.62 --undefined-- 64.203
4.63 --undefined-- 63.898
4.64 235.526 62.869
4.65 220.224 64.762
4.66 220.363 67.403
4.67 220.761 68.356
4.68 204.375 67.226
4.69 189.519 64.066
4.70 180.813 60.839
4.71 190.347 61.373
4.72 189.460 62.475
4.73 228.863 63.342
4.74 229.600 66.541
4.75 225.807 70.059
4.76 214.216 71.940
4.77 209.947 72.094
4.78 207.745 70.953
4.79 206.587 69.400
4.80 207.153 68.488
4.81 208.225 68.111
4.82 207.573 67.966
4.83 206.061 67.799
4.84 204.404 67.358
4.85 202.947 66.725
4.86 202.451 66.404
4.87 201.431 66.597
4.88 201.068 66.753
4.89 200.471 66.561
4.90 199.378 66.338
4.91 196.648 66.436
4.92 192.238 --undefined--
4.93 188.782 --undefined--
4.94 --undefined-- --undefined--
4.95 --undefined-- --undefined--
