Time Pitch Intensity
0.01 --undefined-- --undefined--
0.02 158.406 --undefined--
0.03 154.006 --undefined--
0.04 150.543 --undefined--
0.05 149.785 65.971
0.06 150.843 66.085
0.07 151.806 66.450
0.08 152.856 66.828
0.09 153.761 67.049
0.10 154.869 67.160
0.11 156.574 67.327
0.12 157.213 67.587
0.13 156.828 67.820
0.14 155.556 67.910
0.15 154.719 67.650
0.16 157.650 66.460
0.17 158.096 63.621
0.18 148.732 59.086
0.19 136.927 54.740
0.20 --undefined-- 53.515
0.21 --undefined-- 53.345
0.22 --undefined-- 53.140
0.23 --undefined-- 56.502
0.24 172.604 62.599
0.25 172.037 66.550
0.26 160.864 68.513
0.27 153.827 69.414
0.28 149.563 69.792
0.29 147.752 69.770
0.30 146.924 69.424
0.31 147.423 68.849
0.32 148.602 68.202
0.33 149.842 67.574
0.34 150.323 66.563
0.35 149.709 64.547
0.36 148.261 61.558
0.37 150.858 58.071
0.38 152.207 53.583
0.39 --undefined-- 47.070
0.40 --undefined-- 42.760
0.41 --undefined-- 49.450
0.42 --undefined-- 57.249
0.43 --undefined-- 63.753
0.44 170.076 67.238
0.45 170.847 68.316
0.46 170.744 68.377
0.47 168.984 68.234
0.48 166.224 67.777
0.49 159.719 66.588
0.50 140.445 65.046
0.51 147.462 64.320
0.52 151.787 65.034
0.53 167.176 66.808
0.54 191.718 68.630
0.55 192.619 70.074
0.56 200.823 71.164
0.57 205.206 72.056
0.58 208.503 72.729
0.59 211.775 73.212
0.60 213.964 73.511
0.61 213.979 73.558
0.62 212.767 73.380
0.63 211.478 73.087
0.64 210.679 72.876
0.65 209.873 73.104
0.66 209.494 74.218
0.67 214.663 75.528
0.68 214.576 76.101
0.69 214.399 76.122
0.70 213.835 75.657
0.71 211.595 74.163
0.72 209.409 70.929
0.73 215.700 65.354
0.74 216.135 58.856
0.75 204.883 59.465
0.76 --undefined-- 61.851
0.77 --undefined-- 63.028
0.78 --undefined-- 63.065
0.79 --undefined-- 61.945
0.80 --undefined-- 60.730
0.81 --undefined-- 60.791
0.82 --undefined-- 60.651
0.83 --undefined-- 59.317
0.84 --undefined-- 58.359
0.85 --undefined-- 60.145
0.86 192.753 64.894
0.87 179.107 68.061
0.88 161.218 68.973
0.89 146.410 68.843
0.90 136.220 68.774
0.91 135.441 68.798
0.92 135.564 68.610
0.93 136.367 68.321
0.94 137.029 68.002
0.95 137.056 67.559
0.96 136.807 66.943
0.97 135.359 66.346
0.98 131.047 66.650
0.99 131.128 67.786
1.00 134.513 68.540
1.01 136.819 68.706
1.02 137.145 68.579
1.03 135.524 68.252
1.04 132.628 67.683
1.05 130.745 66.820
1.06 --undefined-- 65.197
1.07 --undefined-- 61.435
1.08 --undefined-- 53.951
1.09 --undefined-- 42.232
1.10 --undefined-- 35.838
1.11 --undefined-- 35.554
1.12 --undefined-- 37.334
1.13 --undefined-- 39.313
1.14 --undefined-- 39.256
1.15 --undefined-- 38.592
1.16 --undefined-- 39.440
1.17 --undefined-- 40.328
1.18 --undefined-- 39.510
1.19 --undefined-- 37.672
1.20 --undefined-- 36.437
1.21 --undefined-- 35.817
1.22 --undefined-- 36.097
1.23 --undefined-- 36.163
1.24 --undefined-- 35.208
1.25 --undefined-- 33.467
1.26 --undefined-- 31.241
1.27 --undefined-- 29.943
1.28 --undefined-- 31.412
1.29 --undefined-- 34.794
1.30 --undefined-- 36.383
1.31 --undefined-- 35.506
1.32 --undefined-- 36.804
1.33 --undefined-- 48.743
1.34 --undefined-- 57.360
1.35 181.813 61.883
1.36 166.230 63.881
1.37 165.535 65.183
1.38 167.088 66.600
1.39 167.278 67.917
1.40 166.839 69.022
1.41 167.135 69.935
1.42 166.540 70.624
1.43 165.029 71.125
1.44 162.627 71.490
1.45 160.472 71.718
1.46 159.455 71.804
1.47 158.709 71.786
1.48 157.978 71.687
1.49 157.192 71.483
1.50 156.280 71.211
1.51 155.361 70.829
1.52 155.179 70.163
1.53 154.173 69.060
1.54 146.215 67.504
1.55 138.570 65.558
1.56 --undefined-- 62.892
1.57 --undefined-- 58.860
1.58 --undefined-- 53.194
1.59 --undefined-- 47.479
1.60 --undefined-- 42.696
1.61 --undefined-- 37.179
1.62 --undefined-- 32.383
1.63 --undefined-- 34.350
1.64 --undefined-- 41.397
1.65 --undefined-- 48.945
1.66 --undefined-- 56.295
1.67 133.149 60.844
1.68 142.095 63.243
1.69 157.069 64.862
1.70 149.091 66.329
1.71 153.295 67.639
1.72 151.354 68.433
1.73 148.773 68.749
1.74 147.303 68.880
1.75 146.895 68.879
1.76 147.085 68.731
1.77 147.526 68.483
1.78 147.789 68.150
1.79 147.615 67.754
1.80 147.646 67.196
1.81 146.529 66.301
1.82 144.136 64.974
1.83 139.810 63.252
1.84 139.792 61.658
1.85 141.844 60.925
1.86 142.669 61.195
1.87 142.436 61.811
1.88 142.820 62.426
1.89 144.964 63.198
1.90 147.439 64.396
1.91 150.336 66.061
1.92 153.664 67.708
1.93 155.677 68.896
1.94 155.989 69.650
1.95 157.121 70.158
1.96 157.114 70.392
1.97 157.166 70.459
1.98 157.195 70.417
1.99 157.609 70.099
2.00 160.936 69.541
2.01 164.088 69.156
2.02 165.897 69.193
2.03 167.806 69.502
2.04 170.020 69.919
2.05 172.533 70.375
2.06 176.415 70.832
2.07 180.206 71.198
2.08 182.844 71.338
2.09 185.057 71.037
2.10 187.355 69.959
2.11 187.826 67.587
2.12 176.361 63.525
2.13 185.759 58.451
2.14 --undefined-- 52.913
2.15 --undefined-- 44.974
2.16 --undefined-- 36.220
2.17 --undefined-- 35.182
2.18 --undefined-- 35.055
2.19 --undefined-- 35.686
2.20 --undefined-- 46.449
2.21 --undefined-- 57.575
2.22 194.243 64.429
2.23 183.212 67.943
2.24 179.319 69.383
2.25 176.229 69.964
2.26 173.232 70.237
2.27 170.534 70.354
2.28 167.849 70.302
2.29 165.627 70.027
2.30 164.666 69.597
2.31 163.801 69.146
2.32 163.109 68.838
2.33 162.454 68.669
2.34 161.741 68.531
2.35 161.115 68.415
2.36 161.145 68.321
2.37 160.936 68.230
2.38 161.074 68.115
2.39 162.404 67.885
2.40 164.356 67.318
2.41 164.208 66.347
2.42 163.018 64.962
2.43 144.919 63.207
2.44 --undefined-- 61.407
2.45 --undefined-- 58.695
2.46 --undefined-- 53.699
2.47 --undefined-- 46.093
2.48 --undefined-- 45.307
2.49 --undefined-- 50.047
2.50 --undefined-- 54.225
2.51 --undefined-- 58.973
2.52 --undefined-- 62.173
2.53 157.810 63.998
2.54 159.280 65.426
2.55 159.246 66.292
2.56 159.756 66.518
2.57 157.534 66.369
2.58 155.966 66.184
2.59 153.813 66.587
2.60 152.293 67.315
2.61 150.614 67.494
2.62 149.156 67.094
2.63 147.796 66.477
2.64 147.368 65.943
2.65 148.142 65.656
2.66 149.297 65.583
2.67 149.651 65.542
2.68 150.490 65.518
2.69 152.067 65.607
2.70 153.364 65.798
2.71 154.098 66.005
2.72 152.865 66.013
2.73 151.661 65.458
2.74 150.668 63.849
2.75 143.317 61.137
2.76 141.847 58.246
2.77 145.998 57.190
2.78 148.749 58.918
2.79 158.416 61.904
2.80 169.927 64.954
2.81 180.022 67.377
2.82 177.363 68.831
2.83 171.475 69.502
2.84 168.895 69.726
2.85 167.247 69.671
2.86 165.696 69.354
2.87 164.978 68.904
2.88 165.131 68.608
2.89 165.648 68.510
2.90 166.598 68.070
2.91 166.120 66.317
2.92 162.112 62.358
2.93 --undefined-- 55.763
2.94 --undefined-- 46.802
2.95 --undefined-- 39.470
2.96 --undefined-- 41.846
2.97 --undefined-- 44.909
2.98 --undefined-- 46.550
2.99 --undefined-- 49.549
3.00 --undefined-- 58.176
3.01 --undefined-- 64.314
3.02 164.698 67.234
3.03 160.742 67.990
3.04 154.333 67.732
3.05 149.649 67.397
3.06 148.408 67.325
3.07 148.625 67.348
3.08 148.412 67.285
3.09 148.251 67.104
3.10 147.993 67.032
3.11 147.552 67.195
3.12 147.656 67.388
3.13 148.755 67.484
3.14 149.662 67.491
3.15 149.405 67.344
3.16 149.154 66.907
3.17 148.028 66.117
3.18 144.748 65.005
3.19 140.426 63.544
3.20 141.767 61.528
3.21 --undefined-- 58.931
3.22 --undefined-- 56.865
3.23 --undefined-- 54.596
3.24 --undefined-- 50.517
3.25 --undefined-- 47.503
3.26 --undefined-- 46.065
3.27 --undefined-- 46.057
3.28 --undefined-- 45.176
3.29 --undefined-- 49.900
3.30 --undefined-- 58.645
3.31 --undefined-- 63.788
3.32 160.241 66.435
3.33 161.129 67.664
3.34 161.734 68.114
3.35 160.778 68.405
3.36 158.913 68.653
3.37 155.891 68.497
3.38 152.126 68.058
3.39 149.007 67.524
3.40 145.396 66.852
3.41 142.096 66.215
3.42 140.524 65.671
3.43 140.020 65.386
3.44 141.391 65.546
3.45 142.685 65.895
3.46 144.417 66.129
3.47 145.783 66.164
3.48 147.011 66.145
3.49 148.153 66.149
3.50 146.811 66.011
3.51 145.115 65.471
3.52 143.433 64.536
3.53 141.225 63.670
3.54 140.983 63.543
3.55 142.556 64.218
3.56 143.647 64.992
3.57 143.676 65.256
3.58 140.756 65.042
3.59 137.941 64.662
3.60 134.958 63.876
3.61 131.368 62.483
3.62 127.762 60.652
3.63 122.571 58.379
3.64 120.882 55.868
3.65 122.739 54.285
3.66 128.930 56.063
3.67 134.904 59.213
3.68 135.912 61.446
3.69 133.041 62.821
3.70 131.876 63.786
3.71 133.819 64.570
3.72 134.675 64.933
3.73 133.936 64.281
3.74 130.122 62.009
3.75 123.965 57.578
3.76 --undefined-- 50.654
3.77 --undefined-- 45.955
3.78 --undefined-- 50.816
3.79 --undefined-- 58.334
3.80 --undefined-- 63.736
3.81 161.313 66.262
3.82 160.591 66.889
3.83 159.171 66.714
3.84 158.696 66.594
3.85 158.334 66.741
3.86 157.843 66.946
3.87 156.857 67.160
3.88 156.408 67.473
3.89 156.124 67.721
3.90 155.936 67.786
3.91 155.508 67.642
3.92 154.783 67.256
3.93 154.082 66.709
3.94 153.191 66.140
3.95 151.329 65.629
3.96 148.691 64.972
3.97 145.649 63.606
3.98 141.614 61.506
3.99 146.128 60.651
4.00 154.146 62.299
4.01 154.868 64.128
4.02 152.710 65.004
4.03 149.052 65.022
4.04 140.866 64.936
4.05 137.107 65.256
4.06 133.349 65.819
4.07 129.423 66.241
4.08 127.955 66.323
4.09 127.435 66.305
4.10 126.274 66.622
4.11 127.216 67.136
4.12 127.845 67.470
4.13 128.621 67.578
4.14 130.466 67.400
4.15 132.215 66.804
4.16 133.238 65.765
4.17 133.003 64.358
4.18 130.974 62.323
4.19 128.029 59.500
4.20 126.902 56.893
4.21 137.041 57.623
4.22 148.009 61.384
4.23 152.512 64.947
4.24 155.401 67.272
4.25 155.071 68.314
4.26 154.700 68.527
4.27 154.813 68.459
4.28 155.515 68.414
4.29 156.028 68.459
4.30 156.311 68.567
4.31 156.837 68.744
4.32 156.897 68.623
4.33 155.758 67.333
4.34 126.881 64.387
4.35 131.775 60.423
4.36 130.503 56.697
4.37 137.728 52.522
4.38 --undefined-- 47.163
4.39 --undefined-- 40.080
4.40 --undefined-- 33.280
4.41 --undefined-- 30.874
4.42 --undefined-- 31.779
4.43 --undefined-- 32.823
4.44 --undefined-- 33.161
4.45 --undefined-- 32.857
4.46 --undefined-- 32.233
4.47 --undefined-- 32.092
4.48 --undefined-- 31.772
4.49 --undefined-- 30.913
4.50 --undefined-- 31.369
4.51 --undefined-- 32.346
4.52 --undefined-- 34.467
4.53 --undefined-- 35.971
4.54 --undefined-- 34.509
4.55 --undefined-- 32.697
4.56 --undefined-- 34.173
4.57 --undefined-- 35.695
4.58 --undefined-- 35.719
4.59 --undefined-- 36.242
4.60 --undefined-- 37.428
4.61 --undefined-- 38.661
4.62 --undefined-- 39.621
4.63 --undefined-- 38.815
4.64 --undefined-- 37.744
4.65 --undefined-- 37.905
4.66 --undefined-- 37.125
4.67 --undefined-- 35.030
4.68 --undefined-- 31.731
4.69 --undefined-- 28.892
4.70 --undefined-- 28.249
4.71 --undefined-- 31.760
4.72 --undefined-- 35.792
4.73 --undefined-- 36.946
4.74 --undefined-- 35.550
4.75 --undefined-- 34.231
4.76 --undefined-- 36.124
4.77 --undefined-- 36.904
4.78 --undefined-- 35.236
4.79 --undefined-- 34.158
4.80 --undefined-- 34.499
4.81 --undefined-- 33.115
4.82 --undefined-- 32.494
4.83 --undefined-- 34.507
4.84 --undefined-- 34.976
4.85 --undefined-- 33.332
4.86 --undefined-- 32.378
4.87 --undefined-- 32.688
4.88 --undefined-- 31.806
4.89 --undefined-- 33.014
4.90 --undefined-- 35.489
4.91 --undefined-- 35.339
4.92 --undefined-- 32.271
4.93 --undefined-- 29.510
4.94 --undefined-- 29.702
4.95 --undefined-- 29.164
4.96 --undefined-- 28.945
4.97 --undefined-- 30.706
4.98 --undefined-- 31.178
4.99 --undefined-- 29.538
5.00 --undefined-- 29.524
5.01 --undefined-- 32.588
5.02 --undefined-- 34.454
5.03 --undefined-- 34.245
5.04 --undefined-- 33.013
5.05 --undefined-- 32.713
5.06 --undefined-- 32.619
5.07 --undefined-- 32.373
5.08 --undefined-- 32.737
5.09 --undefined-- 32.718
5.10 --undefined-- 31.967
5.11 --undefined-- 31.239
5.12 --undefined-- 32.112
5.13 --undefined-- 32.743
5.14 --undefined-- 41.235
5.15 --undefined-- 53.882
5.16 189.092 61.817
5.17 179.796 66.327
5.18 177.095 69.011
5.19 179.320 70.870
5.20 181.433 72.427
5.21 183.462 73.734
5.22 184.103 74.564
5.23 182.354 74.717
5.24 177.891 74.362
5.25 175.565 74.222
5.26 176.374 74.471
5.27 176.023 74.797
5.28 176.398 75.100
5.29 176.633 75.233
5.30 176.546 75.221
5.31 172.299 75.281
5.32 170.563 75.356
5.33 169.012 75.135
5.34 167.719 74.646
5.35 166.826 74.007
5.36 166.438 73.170
5.37 165.105 72.197
5.38 164.446 71.735
5.39 167.387 71.522
5.40 166.078 71.034
5.41 166.282 70.486
5.42 166.008 69.746
5.43 164.420 68.358
5.44 163.339 65.970
5.45 165.557 62.106
5.46 170.041 56.255
5.47 --undefined-- 54.909
5.48 --undefined-- 63.677
5.49 188.778 69.357
5.50 177.953 72.120
5.51 174.482 73.128
5.52 173.635 73.359
5.53 173.490 73.245
5.54 173.912 72.961
5.55 173.908 72.581
5.56 173.523 72.145
5.57 173.513 71.772
5.58 174.310 71.270
5.59 174.245 69.798
5.60 170.662 66.246
5.61 181.627 60.270
5.62 --undefined-- 52.542
5.63 --undefined-- 50.584
5.64 --undefined-- 55.663
5.65 --undefined-- 63.317
5.66 --undefined-- 69.406
5.67 185.580 72.551
5.68 179.497 73.803
5.69 175.293 74.177
5.70 171.097 74.430
5.71 168.828 74.868
5.72 166.893 75.206
5.73 165.975 75.193
5.74 165.611 74.722
5.75 165.672 74.038
5.76 166.810 73.485
5.77 168.745 73.107
5.78 172.059 72.837
5.79 176.594 72.676
5.80 180.448 72.495
5.81 184.270 72.212
5.82 187.796 72.587
5.83 197.325 73.741
5.84 199.386 74.588
5.85 201.802 75.098
5.86 203.610 75.486
5.87 204.259 75.726
5.88 203.538 75.761
5.89 201.591 75.572
5.90 199.181 75.103
5.91 194.757 74.157
5.92 186.676 72.939
5.93 180.892 72.307
5.94 174.956 72.236
5.95 168.816 71.970
5.96 162.003 71.193
5.97 155.646 70.208
5.98 152.472 69.918
5.99 151.637 70.344
6.00 152.260 70.506
6.01 152.775 69.813
6.02 155.279 68.845
6.03 156.973 68.203
6.04 157.029 68.131
6.05 162.797 69.219
6.06 160.884 70.713
6.07 160.316 71.553
6.08 160.590 71.611
6.09 160.391 71.148
6.10 160.079 --undefined--
6.11 160.006 --undefined--
6.12 --undefined-- --undefined--
6.13 --undefined-- --undefined--
