Time Pitch Intensity
0.01 --undefined-- --undefined--
0.02 145.787 --undefined--
0.03 144.841 --undefined--
0.04 142.907 --undefined--
0.05 141.776 66.007
0.06 141.618 64.415
0.07 141.774 62.460
0.08 142.685 60.527
0.09 142.647 58.873
0.10 142.644 57.575
0.11 142.682 56.887
0.12 142.701 56.827
0.13 142.735 57.288
0.14 142.599 57.897
0.15 142.078 58.264
0.16 140.623 57.716
0.17 --undefined-- 55.646
0.18 --undefined-- 52.220
0.19 --undefined-- 51.009
0.20 --undefined-- 55.637
0.21 --undefined-- 61.809
0.22 --undefined-- 67.182
0.23 285.275 70.733
0.24 287.461 72.072
0.25 288.862 70.834
0.26 --undefined-- 66.853
0.27 --undefined-- 61.801
0.28 --undefined-- 60.776
0.29 --undefined-- 63.807
0.30 151.330 66.892
0.31 145.075 68.104
0.32 136.201 67.960
0.33 134.348 67.726
0.34 134.608 67.559
0.35 135.107 67.118
0.36 135.189 66.105
0.37 133.665 64.200
0.38 132.028 61.157
0.39 136.755 58.538
0.40 137.594 58.083
0.41 138.180 58.019
0.42 138.547 57.712
0.43 139.188 57.479
0.44 138.742 57.719
0.45 138.965 58.251
0.46 138.969 58.613
0.47 138.628 58.833
0.48 138.421 59.098
0.49 137.839 59.447
0.50 137.182 59.919
0.51 137.587 61.115
0.52 137.973 63.227
0.53 136.704 65.233
0.54 136.756 66.382
0.55 136.337 66.787
0.56 135.734 67.211
0.57 136.188 68.442
0.58 136.067 70.140
0.59 134.488 70.978
0.60 133.383 70.657
0.61 132.307 70.094
0.62 131.798 70.028
0.63 132.158 70.068
0.64 132.388 69.912
0.65 132.678 69.665
0.66 132.932 69.407
0.67 132.867 69.177
0.68 132.130 69.266
0.69 131.171 69.618
0.70 131.136 69.876
0.71 131.739 69.948
0.72 133.482 69.897
0.73 134.468 69.736
0.74 135.022 69.650
0.75 134.742 69.888
0.76 134.838 70.273
0.77 134.775 70.601
0.78 134.862 70.819
0.79 134.638 70.875
0.80 134.875 71.033
0.81 135.458 71.090
0.82 135.252 70.806
0.83 133.827 70.315
0.84 131.867 69.601
0.85 128.161 68.800
0.86 --undefined-- 67.760
0.87 292.413 66.050
0.88 291.229 64.543
0.89 290.238 64.169
0.90 288.717 62.225
0.91 --undefined-- 57.141
0.92 --undefined-- 49.894
0.93 --undefined-- 49.505
0.94 --undefined-- 53.906
0.95 --undefined-- 55.168
0.96 --undefined-- 57.164
0.97 --undefined-- 63.911
0.98 --undefined-- 69.212
0.99 --undefined-- 72.057
1.00 --undefined-- 72.567
1.01 --undefined-- 71.189
1.02 --undefined-- 69.643
1.03 --undefined-- 68.809
1.04 --undefined-- 67.574
1.05 --undefined-- 67.221
1.06 --undefined-- 67.605
1.07 --undefined-- 67.911
1.08 221.644 68.421
1.09 218.265 69.016
1.10 215.845 69.793
1.11 216.014 69.739
1.12 216.440 69.473
1.13 216.948 68.970
1.14 217.493 67.792
1.15 215.508 67.064
1.16 212.605 67.168
1.17 213.073 66.963
1.18 208.645 66.602
1.19 206.511 66.676
1.20 --undefined-- 66.912
1.21 --undefined-- 67.146
1.22 --undefined-- 67.354
1.23 --undefined-- 66.723
1.24 --undefined-- 63.961
1.25 94.545 62.398
1.26 94.895 62.584
1.27 94.996 62.272
1.28 94.889 60.969
1.29 94.913 58.291
1.30 --undefined-- 53.864
1.31 --undefined-- 48.950
1.32 --undefined-- 47.541
1.33 --undefined-- 47.385
1.34 --undefined-- 46.731
1.35 --undefined-- 45.950
1.36 --undefined-- 45.901
1.37 --undefined-- 48.022
1.38 --undefined-- 54.518
1.39 94.969 61.270
1.40 93.849 65.867
1.41 93.974 68.521
1.42 94.157 69.793
1.43 94.291 70.230
1.44 95.096 70.202
1.45 95.207 70.174
1.46 94.116 70.174
1.47 93.671 70.076
1.48 95.747 70.043
1.49 96.215 69.875
1.50 96.508 69.313
1.51 96.624 68.500
1.52 94.436 68.169
1.53 94.360 68.279
1.54 95.380 68.055
1.55 96.615 67.891
1.56 96.476 68.129
1.57 97.814 68.722
1.58 99.224 69.432
1.59 100.128 69.852
1.60 100.195 69.927
1.61 100.004 69.834
1.62 100.138 69.571
1.63 100.431 69.080
1.64 100.886 68.546
1.65 101.314 68.420
1.66 101.624 68.604
1.67 101.988 68.577
1.68 101.897 68.541
1.69 101.374 68.745
1.70 101.771 69.067
1.71 102.472 69.375
1.72 102.521 69.266
1.73 103.619 68.388
1.74 104.402 66.641
1.75 --undefined-- 63.749
1.76 --undefined-- 60.826
1.77 --undefined-- 60.443
1.78 --undefined-- 62.488
1.79 --undefined-- 66.000
1.80 85.212 69.085
1.81 95.891 70.677
1.82 108.845 70.981
1.83 --undefined-- 71.191
1.84 298.603 71.139
1.85 295.516 69.875
1.86 294.965 67.197
1.87 --undefined-- 64.859
1.88 --undefined-- 65.567
1.89 --undefined-- 67.623
1.90 94.054 69.308
1.91 93.607 70.061
1.92 92.764 69.985
1.93 92.628 69.999
1.94 93.468 70.420
1.95 93.183 70.378
1.96 92.941 69.828
1.97 92.630 69.111
1.98 91.507 68.300
1.99 92.242 67.330
2.00 108.593 65.558
2.01 103.222 63.252
2.02 --undefined-- 61.703
2.03 --undefined-- 60.125
2.04 --undefined-- 59.416
2.05 --undefined-- 59.301
2.06 --undefined-- 59.543
2.07 --undefined-- 59.960
2.08 --undefined-- 60.362
2.09 --undefined-- 60.448
2.10 --undefined-- 60.739
2.11 --undefined-- 61.297
2.12 --undefined-- 61.256
2.13 --undefined-- 60.477
2.14 --undefined-- 60.492
2.15 177.656 61.169
2.16 178.877 61.569
2.17 181.368 62.068
2.18 181.420 62.901
2.19 181.589 63.997
2.20 181.630 65.173
2.21 181.277 65.634
2.22 --undefined-- 65.724
2.23 --undefined-- 65.258
2.24 --undefined-- 63.384
2.25 --undefined-- 60.983
2.26 --undefined-- 60.913
2.27 --undefined-- 64.462
2.28 --undefined-- 68.736
2.29 --undefined-- 71.170
2.30 --undefined-- 71.292
2.31 --undefined-- 71.052
2.32 91.415 70.443
2.33 95.425 68.799
2.34 97.892 67.557
2.35 103.384 67.258
2.36 91.589 67.318
2.37 91.493 68.119
2.38 91.171 68.524
2.39 91.046 68.397
2.40 90.435 68.274
2.41 87.332 68.667
2.42 88.197 68.973
2.43 89.599 68.498
2.44 91.761 67.860
2.45 103.956 67.449
2.46 103.718 67.566
2.47 102.852 68.049
2.48 102.260 68.265
2.49 101.357 67.535
2.50 89.385 67.239
2.51 89.113 67.219
2.52 88.084 67.692
2.53 88.861 68.220
2.54 88.865 68.398
2.55 88.523 67.583
2.56 88.888 67.017
2.57 89.444 66.996
2.58 102.106 67.172
2.59 102.248 67.669
2.60 104.264 68.495
2.61 103.726 68.467
2.62 --undefined-- 68.200
2.63 --undefined-- 68.131
2.64 --undefined-- 67.828
2.65 --undefined-- 67.539
2.66 104.797 67.340
2.67 105.118 67.280
2.68 89.107 66.899
2.69 89.783 67.252
2.70 89.320 67.336
2.71 87.389 66.783
2.72 87.821 66.050
2.73 88.098 65.983
2.74 87.735 65.199
2.75 101.919 63.287
2.76 --undefined-- 59.943
2.77 --undefined-- 54.180
2.78 --undefined-- 47.669
2.79 --undefined-- 44.420
2.80 --undefined-- 42.886
2.81 --undefined-- 40.834
2.82 --undefined-- 40.147
2.83 --undefined-- 40.950
2.84 --undefined-- 40.973
2.85 --undefined-- 39.507
2.86 --undefined-- 38.418
2.87 --undefined-- 39.316
2.88 --undefined-- 40.399
2.89 --undefined-- 41.339
2.90 --undefined-- 41.800
2.91 --undefined-- 48.347
2.92 --undefined-- 58.760
2.93 --undefined-- 66.194
2.94 --undefined-- 70.508
2.95 --undefined-- 72.155
2.96 116.201 72.137
2.97 118.207 71.631
2.98 121.541 71.314
2.99 123.814 71.150
3.00 127.121 70.772
3.01 128.665 70.262
3.02 129.360 69.877
3.03 128.579 69.510
3.04 125.187 69.125
3.05 120.599 68.576
3.06 --undefined-- 66.983
3.07 --undefined-- 63.851
3.08 --undefined-- 59.668
3.09 --undefined-- 55.684
3.10 --undefined-- 52.798
3.11 --undefined-- 50.931
3.12 --undefined-- 48.893
3.13 --undefined-- 46.079
3.14 --undefined-- 44.045
3.15 --undefined-- 43.436
3.16 --undefined-- 41.974
3.17 --undefined-- 40.978
3.18 --undefined-- 47.838
3.19 --undefined-- 56.491
3.20 --undefined-- 62.193
3.21 --undefined-- 65.598
3.22 --undefined-- 67.457
3.23 --undefined-- 68.862
3.24 --undefined-- 69.377
3.25 --undefined-- 67.429
3.26 --undefined-- 62.127
3.27 --undefined-- 53.218
3.28 --undefined-- 44.433
3.29 --undefined-- 41.473
3.30 --undefined-- 40.925
3.31 --undefined-- 41.204
3.32 --undefined-- 42.520
3.33 --undefined-- 46.593
3.34 --undefined-- 51.283
3.35 --undefined-- 54.802
3.36 --undefined-- 59.183
3.37 --undefined-- 63.529
3.38 --undefined-- 65.886
3.39 --undefined-- 66.884
3.40 260.442 67.323
3.41 258.881 67.282
3.42 260.446 67.311
3.43 260.781 67.241
3.44 --undefined-- 67.157
3.45 110.441 67.558
3.46 105.339 67.574
3.47 98.043 67.283
3.48 97.914 66.979
3.49 97.514 66.128
3.50 94.849 64.144
3.51 94.220 61.184
3.52 100.216 59.598
3.53 102.727 59.653
3.54 105.967 60.170
3.55 109.114 61.242
3.56 111.125 62.282
3.57 111.695 62.563
3.58 111.079 61.734
3.59 107.803 59.626
3.60 --undefined-- 57.526
3.61 --undefined-- 60.723
3.62 --undefined-- 65.766
3.63 122.345 69.403
3.64 119.562 71.038
3.65 118.121 71.138
3.66 117.505 70.542
3.67 113.979 69.414
3.68 113.199 67.044
3.69 105.575 63.090
3.70 107.288 59.995
3.71 106.898 59.748
3.72 105.845 60.078
3.73 105.511 60.253
3.74 101.964 61.004
3.75 103.021 62.659
3.76 97.710 64.831
3.77 96.066 67.853
3.78 --undefined-- 69.946
3.79 --undefined-- 69.773
3.80 --undefined-- 67.203
3.81 --undefined-- 64.111
3.82 --undefined-- 63.550
3.83 --undefined-- 66.260
3.84 --undefined-- 68.815
3.85 --undefined-- 68.655
3.86 --undefined-- 65.868
3.87 --undefined-- 61.324
3.88 --undefined-- 57.263
3.89 --undefined-- 54.108
3.90 --undefined-- 50.052
3.91 --undefined-- 46.440
3.92 --undefined-- 45.045
3.93 --undefined-- 44.163
3.94 --undefined-- 43.136
3.95 --undefined-- 42.718
3.96 --undefined-- 43.057
3.97 --undefined-- 44.881
3.98 --undefined-- 47.224
3.99 --undefined-- 48.867
4.00 --undefined-- 58.979
4.01 228.705 68.817
4.02 208.059 74.888
4.03 220.586 78.026
4.04 --undefined-- 79.205
4.05 144.805 79.884
4.06 145.889 80.901
4.07 147.908 81.963
4.08 149.025 82.807
4.09 148.227 83.328
4.10 146.869 83.585
4.11 148.925 83.764
4.12 151.633 83.945
4.13 153.010 83.995
4.14 153.989 83.834
4.15 154.299 83.515
4.16 153.514 83.101
4.17 151.087 82.662
4.18 148.217 82.159
4.19 145.092 81.594
4.20 142.584 81.125
4.21 142.058 80.885
4.22 141.679 80.824
4.23 141.396 80.915
4.24 140.654 81.088
4.25 139.415 81.261
4.26 138.482 81.375
4.27 136.892 81.499
4.28 135.482 81.691
4.29 133.981 81.863
4.30 132.233 81.937
4.31 130.292 81.920
4.32 128.009 81.891
4.33 125.526 81.862
4.34 122.495 81.764
4.35 119.296 81.631
4.36 116.983 81.527
4.37 115.441 81.340
4.38 113.909 81.049
4.39 112.991 80.795
4.40 112.683 80.602
4.41 112.359 80.285
4.42 112.267 79.937
4.43 112.386 79.566
4.44 111.549 78.987
4.45 110.057 78.306
4.46 109.428 77.689
4.47 109.163 76.996
4.48 106.695 76.101
4.49 104.668 75.250
4.50 102.975 74.415
4.51 102.027 73.336
4.52 99.326 72.111
4.53 94.338 71.150
4.54 91.501 70.455
4.55 89.293 69.544
4.56 89.342 68.416
4.57 90.366 67.095
4.58 93.039 65.448
4.59 99.862 64.367
4.60 97.384 63.683
4.61 97.254 62.516
4.62 97.040 61.280
4.63 129.612 61.418
4.64 124.696 62.467
4.65 119.728 62.677
4.66 --undefined-- 61.562
4.67 --undefined-- 59.355
4.68 --undefined-- 55.595
4.69 --undefined-- 50.618
4.70 --undefined-- 48.256
4.71 --undefined-- 47.381
4.72 --undefined-- 46.969
4.73 --undefined-- 47.048
4.74 --undefined-- 47.056
4.75 --undefined-- 46.001
4.76 --undefined-- 43.885
4.77 --undefined-- 41.224
4.78 --undefined-- 38.293
4.79 --undefined-- 37.294
4.80 --undefined-- 39.278
4.81 --undefined-- 50.309
4.82 --undefined-- 60.386
4.83 --undefined-- 66.526
4.84 110.066 69.548
4.85 100.170 70.354
4.86 99.039 69.821
4.87 96.207 68.675
4.88 94.984 66.638
4.89 --undefined-- 62.746
4.90 --undefined-- 56.600
4.91 --undefined-- 49.543
4.92 --undefined-- 47.452
4.93 --undefined-- 52.672
4.94 --undefined-- 60.778
4.95 --undefined-- 66.408
4.96 110.555 69.514
4.97 112.394 71.247
4.98 117.621 72.475
4.99 120.566 73.317
5.00 122.125 73.551
5.01 123.629 73.163
5.02 122.850 72.664
5.03 121.303 72.027
5.04 118.147 70.587
5.05 113.176 67.992
5.06 106.867 64.354
5.07 105.052 60.764
5.08 --undefined-- 58.553
5.09 --undefined-- 57.735
5.10 --undefined-- 56.516
5.11 --undefined-- 55.074
5.12 --undefined-- 56.372
5.13 --undefined-- 59.867
5.14 --undefined-- 62.924
5.15 --undefined-- 64.319
5.16 --undefined-- 64.564
5.17 --undefined-- 63.876
5.18 --undefined-- 61.820
5.19 --undefined-- 58.575
5.20 --undefined-- 55.587
5.21 88.764 54.496
5.22 88.799 53.672
5.23 --undefined-- 52.891
5.24 --undefined-- --undefined--
5.25 --undefined-- --undefined--
5.26 --undefined-- --undefined--
5.27 --undefined-- --undefined--
