Time Pitch Intensity
0.01 --undefined-- --undefined--
0.02 111.658 --undefined--
0.03 110.531 --undefined--
0.04 109.365 --undefined--
0.05 108.033 67.079
0.06 107.208 66.563
0.07 106.348 65.728
0.08 105.820 64.669
0.09 106.601 63.487
0.10 107.422 62.100
0.11 107.326 60.867
0.12 107.083 60.221
0.13 106.519 60.233
0.14 106.629 60.879
0.15 106.962 62.040
0.16 107.424 63.424
0.17 107.158 64.863
0.18 107.353 66.109
0.19 107.271 66.703
0.20 106.714 66.322
0.21 106.513 65.010
0.22 106.742 63.346
0.23 105.859 62.131
0.24 104.427 62.825
0.25 106.976 65.992
0.26 109.331 68.429
0.27 104.611 69.209
0.28 104.272 68.837
0.29 104.530 68.077
0.30 104.125 67.508
0.31 103.665 67.257
0.32 103.206 67.291
0.33 102.472 67.499
0.34 101.784 67.623
0.35 100.862 67.543
0.36 100.275 67.416
0.37 99.575 67.335
0.38 98.422 66.927
0.39 96.573 65.926
0.40 93.322 64.282
0.41 91.734 61.552
0.42 --undefined-- 57.646
0.43 --undefined-- 54.550
0.44 --undefined-- 54.531
0.45 --undefined-- 54.943
0.46 --undefined-- 55.157
0.47 89.714 57.732
0.48 90.179 61.586
0.49 89.615 64.211
0.50 88.712 65.115
0.51 86.599 64.716
0.52 83.930 63.822
0.53 81.284 62.787
0.54 79.480 61.346
0.55 77.431 59.634
0.56 75.158 58.199
0.57 77.528 57.167
0.58 78.143 56.531
0.59 78.358 56.730
0.60 76.586 57.644
0.61 77.009 58.568
0.62 76.710 58.772
0.63 77.155 58.055
0.64 77.382 56.987
0.65 77.225 55.743
0.66 79.458 55.247
0.67 79.621 55.865
0.68 79.692 56.193
0.69 80.940 56.737
0.70 83.444 58.096
0.71 83.126 59.838
0.72 85.908 61.942
0.73 87.598 64.041
0.74 87.240 65.421
0.75 85.246 66.117
0.76 86.788 66.271
0.77 83.955 65.628
0.78 83.166 64.887
0.79 81.506 64.873
0.80 80.527 64.594
0.81 80.571 64.018
0.82 81.456 63.928
0.83 79.566 63.712
0.84 79.742 63.134
0.85 79.799 62.952
0.86 79.146 62.756
0.87 79.289 62.424
0.88 79.304 62.247
0.89 80.135 62.459
0.90 80.391 62.699
0.91 80.171 62.675
0.92 81.391 63.036
0.93 80.411 63.381
0.94 78.792 63.072
0.95 77.588 62.433
0.96 --undefined-- 61.833
0.97 --undefined-- 61.051
0.98 --undefined-- 59.622
0.99 --undefined-- 57.811
1.00 --undefined-- 55.136
1.01 --undefined-- 52.351
1.02 --undefined-- 51.963
1.03 --undefined-- 53.869
1.04 --undefined-- 56.645
1.05 --undefined-- 60.528
1.06 85.974 63.947
1.07 86.741 65.849
1.08 87.968 66.285
1.09 89.786 65.703
1.10 92.691 64.942
1.11 93.796 64.562
1.12 95.296 64.804
1.13 95.727 65.360
1.14 92.044 64.891
1.15 90.505 62.405
1.16 92.692 59.094
1.17 97.296 60.318
1.18 103.380 64.312
1.19 104.311 67.722
1.20 109.059 70.004
1.21 110.595 71.046
1.22 112.022 71.157
1.23 113.598 70.956
1.24 113.256 70.753
1.25 111.281 70.398
1.26 108.593 69.765
1.27 106.436 68.941
1.28 104.395 68.090
1.29 102.239 67.465
1.30 99.281 66.569
1.31 99.041 64.384
1.32 --undefined-- 60.730
1.33 --undefined-- 56.633
1.34 --undefined-- 54.774
1.35 --undefined-- 55.386
1.36 --undefined-- 55.829
1.37 --undefined-- 56.028
1.38 --undefined-- 56.460
1.39 --undefined-- 56.866
1.40 --undefined-- 60.438
1.41 --undefined-- 65.983
1.42 --undefined-- 69.208
1.43 --undefined-- 70.302
1.44 117.195 70.285
1.45 116.339 69.652
1.46 113.799 68.676
1.47 112.084 67.650
1.48 109.266 65.953
1.49 --undefined-- 62.584
1.50 --undefined-- 57.052
1.51 --undefined-- 51.700
1.52 --undefined-- 49.373
1.53 --undefined-- 47.270
1.54 --undefined-- 45.064
1.55 --undefined-- 43.021
1.56 --undefined-- 41.125
1.57 --undefined-- 40.370
1.58 --undefined-- 40.275
1.59 --undefined-- 39.599
1.60 --undefined-- 37.878
1.61 --undefined-- 36.375
1.62 --undefined-- 35.789
1.63 --undefined-- 35.503
1.64 --undefined-- 35.955
1.65 --undefined-- 36.297
1.66 --undefined-- 35.997
1.67 --undefined-- 35.942
1.68 --undefined-- 36.891
1.69 --undefined-- 37.732
1.70 --undefined-- 37.651
1.71 --undefined-- 37.638
1.72 --undefined-- 38.568
1.73 --undefined-- 40.085
1.74 --undefined-- 43.399
1.75 --undefined-- 46.688
1.76 --undefined-- 47.121
1.77 --undefined-- 45.281
1.78 --undefined-- 44.658
1.79 --undefined-- 46.055
1.80 --undefined-- 47.451
1.81 --undefined-- 48.489
1.82 --undefined-- 49.535
1.83 --undefined-- 50.287
1.84 --undefined-- 50.369
1.85 --undefined-- 50.147
1.86 --undefined-- 49.443
1.87 --undefined-- 48.904
1.88 --undefined-- 48.408
1.89 --undefined-- 47.530
1.90 --undefined-- 47.454
1.91 --undefined-- 48.128
1.92 --undefined-- 48.463
1.93 --undefined-- 48.643
1.94 --undefined-- 49.684
1.95 --undefined-- 50.666
1.96 --undefined-- 50.477
1.97 --undefined-- 50.034
1.98 --undefined-- 50.261
1.99 --undefined-- 50.591
2.00 --undefined-- 50.387
2.01 --undefined-- 49.926
2.02 --undefined-- 49.570
2.03 --undefined-- 48.897
2.04 --undefined-- 48.312
2.05 --undefined-- 47.865
2.06 --undefined-- 47.230
2.07 --undefined-- 46.843
2.08 --undefined-- 46.991
2.09 --undefined-- 47.243
2.10 --undefined-- 47.607
2.11 --undefined-- 47.496
2.12 --undefined-- 46.571
2.13 --undefined-- 46.416
2.14 --undefined-- 47.314
2.15 --undefined-- 48.384
2.16 --undefined-- 49.150
2.17 --undefined-- 48.637
2.18 --undefined-- 47.034
2.19 --undefined-- 46.207
2.20 --undefined-- 45.926
2.21 --undefined-- 44.794
2.22 --undefined-- 42.563
2.23 --undefined-- 40.028
2.24 --undefined-- 38.436
2.25 --undefined-- 37.751
2.26 --undefined-- 38.069
2.27 --undefined-- 38.384
2.28 --undefined-- 37.936
2.29 --undefined-- 37.546
2.30 --undefined-- 37.325
2.31 --undefined-- 36.915
2.32 --undefined-- 36.564
2.33 --undefined-- 36.898
2.34 --undefined-- 37.463
2.35 --undefined-- 38.669
2.36 --undefined-- 45.568
2.37 --undefined-- 52.811
2.38 --undefined-- 59.901
2.39 --undefined-- 65.069
2.40 --undefined-- 67.302
2.41 --undefined-- 67.413
2.42 --undefined-- 66.358
2.43 --undefined-- 64.340
2.44 --undefined-- 62.472
2.45 --undefined-- 61.721
2.46 --undefined-- 60.981
2.47 --undefined-- 61.431
2.48 --undefined-- 65.545
2.49 117.782 69.172
2.50 116.884 71.062
2.51 --undefined-- 72.193
2.52 123.567 72.574
2.53 122.419 72.139
2.54 119.284 71.414
2.55 116.267 70.438
2.56 113.793 69.061
2.57 112.614 67.274
2.58 113.570 65.572
2.59 114.223 64.592
2.60 114.876 64.109
2.61 114.308 63.560
2.62 113.821 62.716
2.63 113.597 62.036
2.64 113.605 61.882
2.65 113.504 61.939
2.66 113.478 62.004
2.67 113.698 62.127
2.68 113.382 62.363
2.69 112.168 62.769
2.70 110.163 62.902
2.71 106.665 62.036
2.72 102.351 59.613
2.73 102.301 55.450
2.74 103.403 50.232
2.75 --undefined-- 49.562
2.76 --undefined-- 57.027
2.77 --undefined-- 62.013
2.78 --undefined-- 64.515
2.79 --undefined-- 67.703
2.80 --undefined-- 71.033
2.81 128.506 72.711
2.82 125.719 73.224
2.83 124.390 73.173
2.84 124.928 72.921
2.85 127.935 72.956
2.86 133.097 72.993
2.87 139.098 72.388
2.88 143.889 71.128
2.89 148.462 69.752
2.90 150.639 68.518
2.91 150.071 66.561
2.92 148.254 62.565
2.93 --undefined-- 55.425
2.94 --undefined-- 46.218
2.95 --undefined-- 42.972
2.96 --undefined-- 45.522
2.97 --undefined-- 52.988
2.98 --undefined-- 57.736
2.99 --undefined-- 60.705
3.00 --undefined-- 65.585
3.01 --undefined-- 69.285
3.02 184.990 70.243
3.03 175.521 69.367
3.04 170.695 67.868
3.05 167.717 66.482
3.06 167.988 65.965
3.07 167.769 66.329
3.08 163.327 66.683
3.09 154.990 66.601
3.10 147.679 67.461
3.11 142.016 69.579
3.12 138.004 70.966
3.13 132.402 71.319
3.14 125.609 71.477
3.15 120.553 71.703
3.16 116.581 71.446
3.17 104.016 70.905
3.18 101.267 70.581
3.19 97.651 70.255
3.20 93.754 69.598
3.21 93.819 68.771
3.22 94.048 67.895
3.23 94.375 66.807
3.24 93.665 65.441
3.25 95.130 63.865
3.26 96.776 62.265
3.27 98.428 61.044
3.28 99.265 60.630
3.29 100.807 60.850
3.30 101.942 61.231
3.31 102.470 61.731
3.32 102.675 62.382
3.33 102.292 62.984
3.34 101.820 63.393
3.35 103.359 63.607
3.36 105.341 63.660
3.37 107.476 63.834
3.38 108.701 63.963
3.39 108.787 63.352
3.40 108.107 61.414
3.41 100.266 57.698
3.42 99.158 52.179
3.43 --undefined-- 46.634
3.44 --undefined-- 43.163
3.45 --undefined-- 40.079
3.46 --undefined-- 43.979
3.47 --undefined-- 53.483
3.48 --undefined-- 58.957
3.49 --undefined-- 60.480
3.50 --undefined-- 59.020
3.51 115.252 60.517
3.52 109.009 64.828
3.53 105.492 67.417
3.54 105.131 68.480
3.55 105.046 68.656
3.56 107.386 68.458
3.57 113.189 67.959
3.58 116.072 66.829
3.59 116.831 64.681
3.60 118.766 61.993
3.61 132.002 60.754
3.62 135.219 60.715
3.63 138.704 61.038
3.64 141.329 61.460
3.65 142.384 61.382
3.66 142.586 60.268
3.67 141.125 57.755
3.68 139.404 53.665
3.69 --undefined-- 48.287
3.70 --undefined-- 43.199
3.71 --undefined-- 49.397
3.72 --undefined-- 59.479
3.73 --undefined-- 64.339
3.74 --undefined-- 64.645
3.75 --undefined-- 62.616
3.76 125.504 65.587
3.77 100.729 69.047
3.78 100.371 70.386
3.79 98.539 70.301
3.80 98.562 69.469
3.81 99.141 68.311
3.82 100.739 67.400
3.83 103.966 67.387
3.84 107.347 67.286
3.85 112.625 66.560
3.86 119.073 66.628
3.87 121.333 67.130
3.88 126.696 66.332
3.89 129.711 63.447
3.90 --undefined-- 58.094
3.91 --undefined-- 50.351
3.92 --undefined-- 43.647
3.93 --undefined-- 39.788
3.94 --undefined-- 37.116
3.95 --undefined-- 36.838
3.96 --undefined-- 40.101
3.97 --undefined-- 53.353
3.98 --undefined-- 64.055
3.99 --undefined-- 69.969
4.00 --undefined-- 72.146
4.01 --undefined-- 71.689
4.02 101.086 70.138
4.03 102.366 68.861
4.04 89.646 67.846
4.05 89.044 66.711
4.06 90.488 65.391
4.07 93.693 63.838
4.08 93.424 61.758
4.09 92.906 58.709
4.10 92.274 54.791
4.11 92.323 52.074
4.12 92.780 51.320
4.13 93.237 50.967
4.14 93.550 50.500
4.15 93.354 50.272
4.16 93.244 50.190
4.17 91.846 49.871
4.18 93.229 49.524
4.19 92.285 49.132
4.20 92.149 48.438
4.21 91.907 47.369
4.22 --undefined-- 45.928
4.23 --undefined-- 44.098
4.24 --undefined-- 41.556
4.25 --undefined-- 38.585
4.26 --undefined-- 36.497
4.27 --undefined-- 35.682
4.28 --undefined-- 35.770
4.29 --undefined-- 36.188
4.30 --undefined-- 37.684
4.31 --undefined-- 42.603
4.32 --undefined-- 46.865
4.33 --undefined-- 50.317
4.34 --undefined-- 53.426
4.35 --undefined-- 55.170
4.36 --undefined-- 55.826
4.37 --undefined-- 55.769
4.38 --undefined-- 55.683
4.39 --undefined-- 57.949
4.40 --undefined-- 60.319
4.41 --undefined-- 61.049
4.42 --undefined-- 60.647
4.43 --undefined-- 58.851
4.44 --undefined-- 54.495
4.45 --undefined-- 47.768
4.46 --undefined-- 43.557
4.47 --undefined-- 44.775
4.48 --undefined-- 46.634
4.49 --undefined-- 47.445
4.50 --undefined-- 47.979
4.51 --undefined-- 47.543
4.52 --undefined-- 47.278
4.53 --undefined-- 49.250
4.54 --undefined-- 51.910
4.55 --undefined-- 53.628
4.56 101.078 54.634
4.57 100.289 55.357
4.58 100.088 57.873
4.59 --undefined-- 63.775
4.60 --undefined-- 68.203
4.61 --undefined-- 69.643
4.62 94.387 68.778
4.63 92.628 66.911
4.64 89.768 64.369
4.65 --undefined-- 60.292
4.66 --undefined-- 54.180
4.67 --undefined-- 47.247
4.68 --undefined-- 41.727
4.69 --undefined-- 38.408
4.70 --undefined-- 37.449
4.71 --undefined-- 36.933
4.72 --undefined-- 37.463
4.73 --undefined-- 43.559
4.74 --undefined-- 48.994
4.75 --undefined-- 50.453
4.76 --undefined-- 47.950
4.77 --undefined-- 42.435
4.78 --undefined-- 39.166
4.79 --undefined-- 40.403
4.80 --undefined-- 41.808
4.81 --undefined-- 44.550
4.82 --undefined-- 49.286
4.83 --undefined-- 51.034
4.84 --undefined-- 48.833
4.85 --undefined-- 43.064
4.86 --undefined-- 38.192
4.87 --undefined-- 38.350
4.88 --undefined-- 43.095
4.89 --undefined-- 48.209
4.90 --undefined-- 50.730
4.91 --undefined-- 53.246
4.92 --undefined-- 56.162
4.93 --undefined-- 57.591
4.94 --undefined-- 57.391
4.95 --undefined-- 56.025
4.96 --undefined-- 55.254
4.97 --undefined-- 58.438
4.98 --undefined-- 62.472
4.99 132.234 64.878
5.00 132.163 66.048
5.01 134.333 66.665
5.02 134.563 66.679
5.03 134.183 65.835
5.04 131.310 64.148
5.05 130.535 62.390
5.06 129.314 61.590
5.07 127.693 61.628
5.08 125.360 61.931
5.09 124.130 62.247
5.10 122.847 62.349
5.11 120.517 62.231
5.12 118.191 62.113
5.13 116.898 62.170
5.14 115.838 62.552
5.15 114.084 63.704
5.16 112.482 66.129
5.17 108.998 68.094
5.18 106.061 68.697
5.19 102.383 68.581
5.20 99.225 68.347
5.21 95.866 68.129
5.22 91.977 67.967
5.23 90.075 68.017
5.24 89.547 68.107
5.25 89.794 68.112
5.26 88.950 68.119
5.27 86.673 68.183
5.28 84.742 68.060
5.29 82.902 67.551
5.30 82.149 66.758
5.31 82.917 65.996
5.32 86.264 65.822
5.33 88.067 65.890
5.34 90.368 65.715
5.35 92.297 65.257
5.36 93.742 64.579
5.37 94.466 63.035
5.38 95.401 59.573
5.39 99.951 55.146
5.40 102.114 58.494
5.41 111.302 64.370
5.42 111.449 67.559
5.43 110.419 68.454
5.44 109.281 68.227
5.45 109.749 67.684
5.46 114.776 67.048
5.47 116.837 67.020
5.48 117.684 67.416
5.49 116.799 67.107
5.50 115.681 65.082
5.51 112.524 60.838
5.52 112.285 54.467
5.53 --undefined-- 49.167
5.54 --undefined-- 51.252
5.55 --undefined-- 54.150
5.56 --undefined-- 55.790
5.57 --undefined-- --undefined--
5.58 --undefined-- --undefined--
5.59 --undefined-- --undefined--
5.60 --undefined-- --undefined--
