Time Pitch Intensity
0.01 --undefined-- --undefined--
0.02 99.650 --undefined--
0.03 101.635 --undefined--
0.04 105.439 --undefined--
0.05 108.763 67.341
0.06 112.478 67.579
0.07 116.382 67.908
0.08 119.392 67.683
0.09 121.956 66.802
0.10 123.295 65.474
0.11 124.693 64.065
0.12 125.395 62.684
0.13 119.751 60.573
0.14 121.288 57.472
0.15 121.987 55.073
0.16 119.870 54.736
0.17 113.251 55.618
0.18 109.969 57.198
0.19 108.564 58.697
0.20 107.557 60.041
0.21 106.958 61.739
0.22 107.068 63.536
0.23 107.272 65.043
0.24 108.776 66.448
0.25 108.920 67.593
0.26 110.134 68.219
0.27 111.127 68.346
0.28 111.571 67.695
0.29 111.480 65.634
0.30 111.743 61.938
0.31 116.407 59.408
0.32 118.304 60.027
0.33 120.853 60.781
0.34 122.278 61.618
0.35 126.952 63.824
0.36 129.347 67.160
0.37 129.096 69.429
0.38 129.125 70.178
0.39 128.948 70.052
0.40 129.201 69.619
0.41 130.477 69.190
0.42 131.168 68.885
0.43 131.611 68.527
0.44 131.811 68.105
0.45 130.937 67.879
0.46 130.430 67.851
0.47 129.852 67.831
0.48 128.442 67.479
0.49 126.964 66.754
0.50 126.593 65.829
0.51 120.341 64.234
0.52 120.114 61.238
0.53 119.493 56.929
0.54 113.956 53.373
0.55 107.315 53.741
0.56 104.733 58.184
0.57 105.351 62.223
0.58 105.311 63.933
0.59 104.310 63.715
0.60 98.448 62.041
0.61 --undefined-- 58.341
0.62 --undefined-- 51.553
0.63 --undefined-- 43.080
0.64 --undefined-- 39.706
0.65 --undefined-- 37.341
0.66 --undefined-- 36.426
0.67 --undefined-- 37.183
0.68 --undefined-- 37.672
0.69 --undefined-- 38.332
0.70 --undefined-- 44.603
0.71 --undefined-- 52.196
0.72 --undefined-- 59.662
0.73 --undefined-- 65.725
0.74 114.253 69.003
0.75 115.225 69.964
0.76 115.508 69.694
0.77 116.372 69.076
0.78 118.023 68.538
0.79 119.354 68.241
0.80 120.039 68.199
0.81 120.450 68.503
0.82 120.429 68.884
0.83 120.404 68.903
0.84 120.261 68.489
0.85 120.227 67.902
0.86 120.343 67.381
0.87 120.329 67.224
0.88 120.920 68.218
0.89 121.479 69.800
0.90 120.777 70.295
0.91 119.575 69.882
0.92 118.508 69.705
0.93 117.226 69.718
0.94 115.506 69.689
0.95 114.441 69.634
0.96 113.338 69.329
0.97 111.923 68.616
0.98 110.126 67.300
0.99 109.117 65.720
1.00 104.585 64.743
1.01 103.410 63.637
1.02 102.428 61.598
1.03 105.020 59.550
1.04 103.719 58.888
1.05 100.918 59.567
1.06 100.679 61.549
1.07 103.293 64.581
1.08 100.219 67.198
1.09 100.176 68.673
1.10 98.836 69.190
1.11 93.109 68.859
1.12 90.893 67.887
1.13 87.379 67.266
1.14 86.193 67.475
1.15 88.706 67.834
1.16 90.360 68.072
1.17 91.132 68.318
1.18 91.134 68.472
1.19 92.116 68.332
1.20 93.187 68.033
1.21 93.312 67.564
1.22 94.040 66.762
1.23 95.501 65.995
1.24 97.124 65.707
1.25 98.899 65.709
1.26 99.903 65.581
1.27 100.756 65.233
1.28 101.598 64.922
1.29 102.357 64.972
1.30 103.042 65.405
1.31 103.534 65.939
1.32 103.795 66.289
1.33 103.255 66.207
1.34 102.821 65.622
1.35 102.139 64.446
1.36 100.789 62.297
1.37 97.532 58.798
1.38 94.952 54.382
1.39 --undefined-- 51.762
1.40 --undefined-- 56.240
1.41 --undefined-- 62.731
1.42 --undefined-- 66.699
1.43 83.600 67.591
1.44 85.944 66.837
1.45 --undefined-- 66.021
1.46 79.253 64.902
1.47 77.610 63.334
1.48 75.450 61.405
1.49 74.947 59.510
1.50 74.833 57.852
1.51 74.986 56.423
1.52 76.306 54.859
1.53 76.862 53.261
1.54 77.130 52.066
1.55 78.508 51.505
1.56 78.559 51.049
1.57 79.391 50.811
1.58 81.609 51.306
1.59 82.524 51.603
1.60 82.647 51.246
1.61 83.176 50.809
1.62 83.354 50.041
1.63 83.407 48.754
1.64 --undefined-- 47.075
1.65 --undefined-- 45.398
1.66 --undefined-- 43.782
1.67 --undefined-- 41.300
1.68 --undefined-- 39.041
1.69 --undefined-- 38.412
1.70 --undefined-- 40.323
1.71 --undefined-- 46.067
1.72 --undefined-- 49.307
1.73 --undefined-- 48.995
1.74 --undefined-- 48.720
1.75 --undefined-- 51.044
1.76 --undefined-- 53.620
1.77 --undefined-- 56.309
1.78 --undefined-- 57.840
1.79 --undefined-- 57.695
1.80 --undefined-- 57.555
1.81 --undefined-- 59.599
1.82 96.257 61.496
1.83 95.986 62.143
1.84 93.962 61.800
1.85 93.089 60.944
1.86 92.670 60.202
1.87 91.937 59.846
1.88 91.056 59.724
1.89 90.744 59.804
1.90 90.910 59.842
1.91 91.241 59.838
1.92 91.820 60.320
1.93 92.521 61.098
1.94 92.499 61.534
1.95 92.553 61.299
1.96 92.968 60.838
1.97 93.721 60.947
1.98 94.063 61.493
1.99 92.081 61.670
2.00 92.619 61.264
2.01 92.796 60.333
2.02 92.767 58.467
2.03 --undefined-- 54.869
2.04 --undefined-- 48.969
2.05 --undefined-- 43.805
2.06 --undefined-- 44.783
2.07 --undefined-- 47.228
2.08 --undefined-- 49.906
2.09 --undefined-- 51.195
2.10 79.430 51.048
2.11 79.825 50.597
2.12 76.634 50.082
2.13 77.542 49.471
2.14 76.603 49.408
2.15 77.059 49.630
2.16 77.088 49.607
2.17 78.216 49.361
2.18 77.856 49.203
2.19 79.705 49.371
2.20 80.055 49.696
2.21 80.160 49.837
2.22 79.695 49.799
2.23 78.794 49.602
2.24 78.710 49.357
2.25 78.401 49.495
2.26 78.387 49.767
2.27 78.914 50.210
2.28 79.608 51.956
2.29 --undefined-- 53.381
2.30 --undefined-- 52.230
2.31 --undefined-- 48.652
2.32 --undefined-- 44.467
2.33 --undefined-- 42.623
2.34 --undefined-- 50.642
2.35 --undefined-- 56.700
2.36 --undefined-- 58.368
2.37 --undefined-- 56.399
2.38 --undefined-- 53.233
2.39 --undefined-- 51.917
2.40 --undefined-- 51.728
2.41 --undefined-- 53.650
2.42 --undefined-- 59.255
2.43 --undefined-- 63.721
2.44 --undefined-- 65.348
2.45 --undefined-- 65.111
2.46 85.432 64.542
2.47 83.901 63.639
2.48 83.088 61.831
2.49 82.158 59.085
2.50 80.560 55.944
2.51 80.553 54.069
2.52 80.491 53.175
2.53 80.129 52.532
2.54 79.882 52.197
2.55 80.292 51.817
2.56 81.170 51.496
2.57 81.471 51.836
2.58 82.210 52.649
2.59 81.692 52.650
2.60 82.357 51.553
2.61 82.166 49.693
2.62 --undefined-- 46.524
2.63 --undefined-- 42.252
2.64 --undefined-- 41.502
2.65 --undefined-- 48.434
2.66 --undefined-- 55.084
2.67 --undefined-- 60.458
2.68 --undefined-- 63.381
2.69 --undefined-- 63.384
2.70 --undefined-- 64.441
2.71 --undefined-- 68.817
2.72 --undefined-- 70.993
2.73 132.966 70.657
2.74 135.702 69.303
2.75 134.549 67.704
2.76 131.945 65.603
2.77 131.739 63.421
2.78 132.288 61.771
2.79 132.235 60.634
2.80 130.763 60.004
2.81 129.372 59.840
2.82 127.672 59.878
2.83 126.129 59.830
2.84 124.060 59.594
2.85 121.157 59.325
2.86 116.467 59.218
2.87 115.274 59.095
2.88 111.443 58.656
2.89 107.060 58.194
2.90 102.891 57.942
2.91 98.653 57.778
2.92 95.552 58.040
2.93 --undefined-- 61.318
2.94 --undefined-- 65.360
2.95 85.149 66.878
2.96 76.431 66.279
2.97 76.834 64.677
2.98 77.221 62.801
2.99 77.892 61.050
3.00 75.782 58.713
3.01 75.575 54.357
3.02 75.886 49.416
3.03 75.884 48.501
3.04 74.542 49.131
3.05 74.957 49.433
3.06 75.222 48.828
3.07 --undefined-- 47.552
3.08 --undefined-- 46.979
3.09 --undefined-- 48.626
3.10 --undefined-- 49.938
3.11 --undefined-- 50.361
3.12 --undefined-- 50.784
3.13 --undefined-- 51.397
3.14 --undefined-- 51.622
3.15 --undefined-- 51.997
3.16 --undefined-- 52.691
3.17 --undefined-- 53.194
3.18 --undefined-- 59.302
3.19 --undefined-- 65.633
3.20 101.295 68.951
3.21 99.519 69.786
3.22 96.906 68.568
3.23 94.382 65.625
3.24 95.576 61.814
3.25 --undefined-- 58.961
3.26 --undefined-- 57.765
3.27 --undefined-- 55.065
3.28 --undefined-- 51.903
3.29 --undefined-- 51.783
3.30 --undefined-- 52.176
3.31 --undefined-- 51.874
3.32 --undefined-- 52.118
3.33 --undefined-- 52.799
3.34 --undefined-- 53.615
3.35 --undefined-- 54.807
3.36 --undefined-- 56.475
3.37 --undefined-- 57.870
3.38 --undefined-- 58.633
3.39 --undefined-- 59.946
3.40 --undefined-- 63.438
3.41 --undefined-- 66.403
3.42 94.163 67.090
3.43 91.048 66.354
3.44 87.197 65.541
3.45 85.606 65.282
3.46 84.558 64.947
3.47 82.435 64.601
3.48 81.365 65.030
3.49 81.840 65.167
3.50 83.771 64.194
3.51 86.608 62.736
3.52 87.350 63.206
3.53 86.443 65.185
3.54 85.601 66.237
3.55 84.782 66.213
3.56 83.930 65.038
3.57 85.931 62.965
3.58 88.346 61.096
3.59 89.061 59.808
3.60 88.908 58.378
3.61 88.266 56.191
3.62 88.888 53.171
3.63 --undefined-- 49.488
3.64 --undefined-- 46.256
3.65 --undefined-- 44.659
3.66 --undefined-- 44.614
3.67 --undefined-- 49.568
3.68 --undefined-- 57.455
3.69 --undefined-- 63.346
3.70 --undefined-- 66.730
3.71 101.538 67.943
3.72 100.930 68.147
3.73 98.435 68.060
3.74 95.800 67.133
3.75 92.057 65.875
3.76 --undefined-- 66.286
3.77 --undefined-- 66.665
3.78 --undefined-- 64.327
3.79 --undefined-- 60.728
3.80 91.568 61.225
3.81 92.112 63.556
3.82 93.092 65.843
3.83 93.765 67.753
3.84 89.858 68.374
3.85 88.288 67.709
3.86 84.025 66.625
3.87 82.052 65.482
3.88 80.368 63.817
3.89 --undefined-- 60.962
3.90 --undefined-- 56.445
3.91 --undefined-- 50.676
3.92 --undefined-- 48.271
3.93 --undefined-- 51.932
3.94 --undefined-- 52.728
3.95 --undefined-- 51.258
3.96 --undefined-- 53.472
3.97 --undefined-- 57.372
3.98 --undefined-- 59.450
3.99 --undefined-- 59.853
4.00 --undefined-- 59.465
4.01 --undefined-- 58.927
4.02 --undefined-- 58.327
4.03 --undefined-- 57.708
4.04 --undefined-- 58.418
4.05 --undefined-- 64.250
4.06 --undefined-- 69.635
4.07 134.127 71.940
4.08 131.282 72.132
4.09 128.355 71.754
4.10 124.472 71.636
4.11 122.428 71.361
4.12 120.723 70.633
4.13 118.552 69.811
4.14 117.419 69.162
4.15 117.096 69.006
4.16 116.502 69.097
4.17 116.451 68.943
4.18 117.952 68.704
4.19 119.231 68.602
4.20 120.563 68.357
4.21 121.584 67.643
4.22 121.506 66.408
4.23 121.051 64.790
4.24 119.803 62.780
4.25 119.533 60.169
4.26 119.884 57.488
4.27 119.549 56.163
4.28 119.191 55.990
4.29 119.687 56.013
4.30 121.253 56.101
4.31 121.396 56.377
4.32 121.812 56.976
4.33 122.677 59.159
4.34 122.974 62.975
4.35 120.141 65.966
4.36 122.372 67.512
4.37 122.334 68.103
4.38 122.635 68.086
4.39 123.707 67.803
4.40 124.682 67.479
4.41 124.893 67.084
4.42 124.732 66.394
4.43 124.103 64.945
4.44 121.356 62.252
4.45 --undefined-- 57.926
4.46 --undefined-- 52.032
4.47 --undefined-- 45.880
4.48 --undefined-- 40.975
4.49 --undefined-- 37.773
4.50 --undefined-- 37.720
4.51 --undefined-- 40.246
4.52 --undefined-- 44.127
4.53 --undefined-- 47.080
4.54 --undefined-- 48.697
4.55 --undefined-- 49.699
4.56 --undefined-- 50.162
4.57 --undefined-- 49.957
4.58 --undefined-- 49.883
4.59 --undefined-- 50.110
4.60 --undefined-- 50.386
4.61 --undefined-- 50.733
4.62 --undefined-- 51.003
4.63 --undefined-- 51.348
4.64 --undefined-- 51.489
4.65 --undefined-- 51.552
4.66 --undefined-- 52.191
4.67 --undefined-- 52.681
4.68 --undefined-- 52.810
4.69 --undefined-- 52.585
4.70 --undefined-- 51.503
4.71 --undefined-- 50.527
4.72 --undefined-- 50.417
4.73 --undefined-- 50.762
4.74 --undefined-- 50.728
4.75 --undefined-- 49.966
4.76 --undefined-- 49.124
4.77 --undefined-- 48.576
4.78 --undefined-- 47.801
4.79 --undefined-- 46.435
4.80 --undefined-- 45.512
4.81 --undefined-- 45.237
4.82 --undefined-- 44.931
4.83 --undefined-- 44.453
4.84 --undefined-- 44.074
4.85 --undefined-- 43.546
4.86 --undefined-- 42.093
4.87 --undefined-- 39.830
4.88 --undefined-- 38.818
4.89 --undefined-- 42.172
4.90 --undefined-- 47.626
4.91 --undefined-- 51.351
4.92 --undefined-- 52.866
4.93 --undefined-- 56.762
4.94 --undefined-- 62.522
4.95 99.406 66.004
4.96 99.091 67.224
4.97 94.324 66.769
4.98 90.155 65.694
4.99 87.929 65.131
5.00 85.711 64.755
5.01 85.419 63.622
5.02 --undefined-- 60.462
5.03 --undefined-- 54.135
5.04 --undefined-- 45.738
5.05 --undefined-- 41.081
5.06 --undefined-- 39.799
5.07 --undefined-- 46.915
5.08 --undefined-- 53.333
5.09 --undefined-- 55.706
5.10 --undefined-- 55.726
5.11 --undefined-- 58.732
5.12 106.468 62.780
5.13 104.895 65.156
5.14 104.806 66.335
5.15 103.810 66.634
5.16 103.923 66.292
5.17 103.852 65.722
5.18 103.349 64.877
5.19 106.502 64.084
5.20 107.976 63.796
5.21 111.821 --undefined--
5.22 113.635 --undefined--
5.23 --undefined-- --undefined--
5.24 --undefined-- --undefined--
