Time Pitch Intensity
0.01 --undefined-- --undefined--
0.02 137.810 --undefined--
0.03 141.352 --undefined--
0.04 145.008 --undefined--
0.05 149.502 72.921
0.06 154.919 73.193
0.07 165.068 73.143
0.08 175.358 73.292
0.09 185.308 73.567
0.10 186.884 73.340
0.11 182.684 71.890
0.12 172.432 68.750
0.13 151.535 63.542
0.14 --undefined-- 56.328
0.15 --undefined-- 48.799
0.16 --undefined-- 45.039
0.17 --undefined-- 43.728
0.18 --undefined-- 43.608
0.19 --undefined-- 45.581
0.20 --undefined-- 54.100
0.21 --undefined-- 62.313
0.22 141.261 67.253
0.23 134.527 69.578
0.24 128.627 69.976
0.25 120.582 69.575
0.26 120.410 69.295
0.27 119.772 69.052
0.28 118.372 68.814
0.29 118.308 68.682
0.30 118.493 68.173
0.31 116.540 66.157
0.32 101.513 61.734
0.33 --undefined-- 55.842
0.34 --undefined-- 50.820
0.35 --undefined-- 45.555
0.36 --undefined-- 40.957
0.37 --undefined-- 39.944
0.38 --undefined-- 48.323
0.39 --undefined-- 59.587
0.40 --undefined-- 66.729
0.41 161.221 70.431
0.42 146.822 71.429
0.43 139.315 70.947
0.44 138.809 70.275
0.45 133.923 69.685
0.46 129.704 69.892
0.47 137.803 71.131
0.48 142.333 72.029
0.49 143.054 72.320
0.50 144.279 72.222
0.51 145.049 71.839
0.52 146.012 71.215
0.53 145.213 70.231
0.54 141.997 68.379
0.55 138.109 64.843
0.56 --undefined-- 59.077
0.57 --undefined-- 54.815
0.58 --undefined-- 56.165
0.59 --undefined-- 58.537
0.60 209.256 65.081
0.61 195.336 69.976
0.62 168.656 72.052
0.63 159.890 72.421
0.64 154.661 72.052
0.65 145.836 71.605
0.66 143.848 71.638
0.67 147.130 71.887
0.68 147.667 71.899
0.69 147.367 71.518
0.70 144.915 70.586
0.71 141.020 68.751
0.72 136.910 65.685
0.73 140.763 62.936
0.74 171.613 65.854
0.75 160.592 70.093
0.76 159.370 73.041
0.77 155.518 74.774
0.78 151.786 75.938
0.79 150.051 76.917
0.80 148.188 77.415
0.81 146.261 77.002
0.82 143.861 75.352
0.83 142.473 72.457
0.84 134.215 68.130
0.85 --undefined-- 61.506
0.86 --undefined-- 52.547
0.87 --undefined-- 45.732
0.88 --undefined-- 43.490
0.89 --undefined-- 42.718
0.90 --undefined-- 42.407
0.91 --undefined-- 42.739
0.92 --undefined-- 49.355
0.93 --undefined-- 58.389
0.94 --undefined-- 64.416
0.95 --undefined-- 67.210
0.96 --undefined-- 67.360
0.97 101.034 65.878
0.98 99.449 63.985
0.99 96.234 63.261
1.00 101.236 65.030
1.01 103.033 67.269
1.02 105.345 68.975
1.03 112.551 70.352
1.04 121.922 71.061
1.05 129.932 70.958
1.06 136.239 71.119
1.07 149.489 72.030
1.08 162.948 72.551
1.09 172.524 72.553
1.10 179.998 72.620
1.11 183.426 72.552
1.12 181.870 71.575
1.13 174.278 68.967
1.14 162.109 64.296
1.15 --undefined-- 57.588
1.16 --undefined-- 50.930
1.17 --undefined-- 53.604
1.18 --undefined-- 59.285
1.19 200.085 65.163
1.20 177.848 69.065
1.21 156.936 70.671
1.22 149.841 71.122
1.23 142.693 71.683
1.24 139.308 72.729
1.25 141.347 73.702
1.26 141.730 74.163
1.27 140.519 74.135
1.28 140.478 73.817
1.29 140.401 73.192
1.30 139.802 71.928
1.31 137.504 69.502
1.32 130.648 65.402
1.33 121.768 59.484
1.34 --undefined-- 52.425
1.35 --undefined-- 50.576
1.36 --undefined-- 59.545
1.37 207.231 67.071
1.38 183.769 71.327
1.39 172.197 73.207
1.40 166.676 73.700
1.41 164.111 73.270
1.42 161.246 72.252
1.43 160.253 71.611
1.44 162.802 71.688
1.45 161.985 71.997
1.46 161.023 72.318
1.47 161.159 72.488
1.48 160.784 72.253
1.49 158.565 71.205
1.50 152.304 68.802
1.51 144.488 64.662
1.52 141.808 58.599
1.53 --undefined-- 51.679
1.54 --undefined-- 51.481
1.55 --undefined-- 59.774
1.56 --undefined-- 65.757
1.57 --undefined-- 68.777
1.58 143.890 69.692
1.59 138.615 69.171
1.60 131.590 68.582
1.61 129.342 69.603
1.62 131.439 70.856
1.63 131.365 71.286
1.64 129.076 70.919
1.65 125.911 69.884
1.66 121.171 68.095
1.67 112.329 65.205
1.68 --undefined-- 61.083
1.69 --undefined-- 57.198
1.70 --undefined-- 57.979
1.71 --undefined-- 59.375
1.72 --undefined-- 59.383
1.73 133.847 63.343
1.74 139.844 67.629
1.75 136.969 69.899
1.76 134.409 70.772
1.77 132.585 70.810
1.78 127.807 70.549
1.79 124.971 70.514
1.80 121.723 70.579
1.81 119.438 70.403
1.82 119.257 70.175
1.83 120.044 70.128
1.84 120.366 69.763
1.85 120.512 68.533
1.86 122.199 66.687
1.87 --undefined-- 64.527
1.88 --undefined-- 61.754
1.89 --undefined-- 58.417
1.90 --undefined-- 53.933
1.91 --undefined-- 47.134
1.92 --undefined-- 41.127
1.93 --undefined-- 39.519
1.94 --undefined-- 37.914
1.95 --undefined-- 37.181
1.96 --undefined-- 37.149
1.97 --undefined-- 36.548
1.98 --undefined-- 35.941
1.99 --undefined-- 35.859
2.00 --undefined-- 36.072
2.01 --undefined-- 36.106
2.02 --undefined-- 34.667
2.03 --undefined-- 34.290
2.04 --undefined-- 35.887
2.05 --undefined-- 40.102
2.06 --undefined-- 51.466
2.07 --undefined-- 59.848
2.08 160.422 65.488
2.09 150.121 69.298
2.10 150.590 71.704
2.11 151.691 73.045
2.12 151.735 73.707
2.13 150.706 73.913
2.14 150.545 73.727
2.15 153.233 73.418
2.16 154.753 73.232
2.17 155.135 73.096
2.18 155.663 72.904
2.19 155.919 72.665
2.20 155.521 72.428
2.21 154.310 72.036
2.22 150.747 70.974
2.23 145.449 68.448
2.24 140.372 63.660
2.25 --undefined-- 56.580
2.26 --undefined-- 57.029
2.27 --undefined-- 63.342
2.28 --undefined-- 68.636
2.29 --undefined-- 73.402
2.30 148.316 76.813
2.31 146.222 78.649
2.32 144.278 79.133
2.33 142.904 78.703
2.34 141.817 77.896
2.35 141.808 77.272
2.36 142.452 76.855
2.37 143.483 75.980
2.38 145.050 74.815
2.39 144.497 73.243
2.40 141.540 69.656
2.41 125.164 63.153
2.42 --undefined-- 55.469
2.43 --undefined-- 49.803
2.44 --undefined-- 45.318
2.45 --undefined-- 47.703
2.46 --undefined-- 58.525
2.47 --undefined-- 65.986
2.48 --undefined-- 69.719
2.49 121.414 70.640
2.50 116.364 70.013
2.51 116.155 69.060
2.52 113.291 68.208
2.53 112.904 67.551
2.54 113.951 67.238
2.55 114.681 67.328
2.56 115.051 67.604
2.57 114.582 67.667
2.58 113.135 67.063
2.59 111.100 65.265
2.60 105.035 61.855
2.61 94.617 56.823
2.62 --undefined-- 51.009
2.63 --undefined-- 46.296
2.64 --undefined-- 44.365
2.65 --undefined-- 44.721
2.66 --undefined-- 49.878
2.67 --undefined-- 58.952
2.68 --undefined-- 64.982
2.69 136.995 67.888
2.70 128.630 68.591
2.71 125.726 68.367
2.72 122.515 68.339
2.73 119.215 68.569
2.74 119.238 68.711
2.75 119.371 68.792
2.76 126.752 68.886
2.77 125.867 68.508
2.78 122.601 66.988
2.79 118.141 64.188
2.80 114.941 60.666
2.81 111.447 56.562
2.82 --undefined-- 52.874
2.83 --undefined-- 54.366
2.84 --undefined-- 56.709
2.85 --undefined-- 56.923
2.86 --undefined-- 55.335
2.87 --undefined-- 53.702
2.88 --undefined-- 55.404
2.89 --undefined-- 60.983
2.90 140.632 64.854
2.91 126.530 66.076
2.92 123.957 65.620
2.93 122.252 64.957
2.94 118.483 64.656
2.95 114.511 64.201
2.96 112.526 63.565
2.97 111.896 63.074
2.98 112.374 62.897
2.99 111.521 62.945
3.00 112.646 63.189
3.01 113.950 63.596
3.02 114.711 64.006
3.03 115.358 64.192
3.04 114.489 64.104
3.05 113.600 63.952
3.06 113.108 63.740
3.07 114.362 63.329
3.08 --undefined-- 62.699
3.09 --undefined-- 61.707
3.10 --undefined-- 59.811
3.11 --undefined-- 57.618
3.12 --undefined-- 55.193
3.13 --undefined-- 52.025
3.14 --undefined-- 47.751
3.15 --undefined-- 42.545
3.16 --undefined-- 36.873
3.17 --undefined-- 33.379
3.18 --undefined-- 35.370
3.19 --undefined-- 36.861
3.20 --undefined-- 36.948
3.21 --undefined-- 36.399
3.22 --undefined-- 35.209
3.23 --undefined-- 35.221
3.24 --undefined-- 35.761
3.25 --undefined-- 34.788
3.26 --undefined-- 33.142
3.27 --undefined-- 33.857
3.28 --undefined-- 35.377
3.29 --undefined-- 35.741
3.30 --undefined-- 35.413
3.31 --undefined-- 34.184
3.32 --undefined-- 32.632
3.33 --undefined-- 33.011
3.34 --undefined-- 35.888
3.35 --undefined-- 37.966
3.36 --undefined-- 38.381
3.37 --undefined-- 38.627
3.38 --undefined-- 37.913
3.39 --undefined-- 35.956
3.40 --undefined-- 35.710
3.41 --undefined-- 36.689
3.42 --undefined-- 36.584
3.43 --undefined-- 35.081
3.44 --undefined-- 33.795
3.45 --undefined-- 34.585
3.46 --undefined-- 35.358
3.47 --undefined-- 35.000
3.48 --undefined-- 34.240
3.49 --undefined-- 33.677
3.50 --undefined-- 33.636
3.51 --undefined-- 33.461
3.52 --undefined-- 33.718
3.53 --undefined-- 34.708
3.54 --undefined-- 34.703
3.55 --undefined-- 33.644
3.56 --undefined-- 33.164
3.57 --undefined-- 34.078
3.58 --undefined-- 35.081
3.59 --undefined-- 35.292
3.60 --undefined-- 34.762
3.61 --undefined-- 34.513
3.62 --undefined-- 34.639
3.63 --undefined-- 35.373
3.64 --undefined-- 37.350
3.65 --undefined-- 37.963
3.66 --undefined-- 36.456
3.67 --undefined-- 35.711
3.68 --undefined-- 36.881
3.69 --undefined-- 37.654
3.70 --undefined-- 37.427
3.71 --undefined-- 35.790
3.72 --undefined-- 34.139
3.73 --undefined-- 35.803
3.74 --undefined-- 37.965
3.75 --undefined-- 38.060
3.76 --undefined-- 36.641
3.77 --undefined-- 34.503
3.78 --undefined-- 33.862
3.79 --undefined-- 35.284
3.80 --undefined-- 36.685
3.81 --undefined-- 37.885
3.82 --undefined-- 38.765
3.83 --undefined-- 39.239
3.84 --undefined-- 39.542
3.85 --undefined-- 39.652
3.86 --undefined-- 40.001
3.87 --undefined-- 40.635
3.88 --undefined-- 40.839
3.89 --undefined-- 40.519
3.90 --undefined-- 40.104
3.91 --undefined-- 39.632
3.92 --undefined-- 39.553
3.93 --undefined-- 39.747
3.94 --undefined-- 39.578
3.95 --undefined-- 39.366
3.96 --undefined-- 38.724
3.97 --undefined-- 37.241
3.98 --undefined-- 36.049
3.99 --undefined-- 35.908
4.00 --undefined-- 35.938
4.01 --undefined-- 35.985
4.02 --undefined-- 35.232
4.03 --undefined-- 33.247
4.04 --undefined-- 32.144
4.05 --undefined-- 32.144
4.06 --undefined-- 32.615
4.07 --undefined-- 33.479
4.08 --undefined-- 34.429
4.09 --undefined-- 37.315
4.10 --undefined-- 42.087
4.11 --undefined-- 47.276
4.12 --undefined-- 51.464
4.13 --undefined-- 54.034
4.14 --undefined-- 55.843
4.15 --undefined-- 60.243
4.16 237.568 68.530
4.17 231.008 74.515
4.18 219.033 77.375
4.19 216.119 77.334
4.20 223.218 76.522
4.21 231.765 78.259
4.22 235.428 80.068
4.23 240.233 80.287
4.24 241.846 78.450
4.25 236.636 74.067
4.26 225.098 67.285
4.27 231.817 60.336
4.28 --undefined-- 60.764
4.29 --undefined-- 67.639
4.30 195.266 73.218
4.31 187.263 76.496
4.32 171.109 77.883
4.33 159.733 78.192
4.34 151.564 77.506
4.35 146.168 75.781
4.36 137.147 73.161
4.37 129.034 69.105
4.38 116.875 63.394
4.39 102.409 57.959
4.40 97.904 54.343
4.41 --undefined-- 50.243
4.42 --undefined-- 52.351
4.43 --undefined-- 59.090
4.44 --undefined-- 64.567
4.45 157.310 68.904
4.46 152.748 71.652
4.47 148.285 73.166
4.48 145.947 74.155
4.49 145.444 75.095
4.50 145.417 76.086
4.51 145.461 76.802
4.52 146.528 77.153
4.53 147.214 77.412
4.54 146.958 77.508
4.55 146.800 77.100
4.56 147.569 76.373
4.57 145.366 75.200
4.58 139.816 72.697
4.59 133.693 68.338
4.60 117.829 61.882
4.61 --undefined-- 54.399
4.62 --undefined-- 49.320
4.63 --undefined-- 51.307
4.64 --undefined-- 60.378
4.65 --undefined-- 67.324
4.66 148.373 71.392
4.67 143.564 73.412
4.68 137.992 74.105
4.69 132.956 74.194
4.70 128.470 74.349
4.71 124.737 74.282
4.72 124.009 73.803
4.73 124.542 73.277
4.74 125.326 73.057
4.75 125.611 72.954
4.76 125.145 72.702
4.77 124.486 72.412
4.78 123.680 71.989
4.79 124.284 71.142
4.80 126.254 69.990
4.81 126.576 68.951
4.82 127.767 68.430
4.83 127.747 67.982
4.84 --undefined-- 66.691
4.85 103.995 64.263
4.86 102.961 60.376
4.87 --undefined-- 54.852
4.88 --undefined-- 48.276
4.89 --undefined-- 42.554
4.90 --undefined-- 39.957
4.91 --undefined-- 38.806
4.92 --undefined-- 37.835
4.93 --undefined-- 35.397
4.94 --undefined-- 34.411
4.95 --undefined-- 36.000
4.96 --undefined-- 37.335
4.97 --undefined-- 42.128
4.98 --undefined-- 53.795
4.99 197.569 62.016
5.00 185.569 66.504
5.01 169.552 68.640
5.02 172.519 70.036
5.03 179.689 71.306
5.04 184.095 72.155
5.05 186.819 72.751
5.06 187.662 73.440
5.07 188.466 73.987
5.08 187.238 74.064
5.09 183.130 73.696
5.10 178.874 72.697
5.11 174.603 70.276
5.12 149.657 65.664
5.13 145.981 59.283
5.14 --undefined-- 52.547
5.15 --undefined-- 46.033
5.16 --undefined-- 43.915
5.17 --undefined-- 52.387
5.18 --undefined-- 60.592
5.19 --undefined-- 66.599
5.20 145.317 70.700
5.21 141.179 73.103
5.22 136.128 74.220
5.23 132.085 74.589
5.24 129.339 74.362
5.25 125.143 73.039
5.26 117.416 69.852
5.27 107.078 64.476
5.28 104.160 58.247
5.29 --undefined-- 53.093
5.30 --undefined-- 48.005
5.31 --undefined-- 42.450
5.32 --undefined-- 39.182
5.33 --undefined-- 46.811
5.34 --undefined-- 57.684
5.35 --undefined-- 65.217
5.36 141.176 69.508
5.37 130.570 71.632
5.38 127.536 72.553
5.39 125.233 72.940
5.40 122.268 72.952
5.41 119.878 72.497
5.42 120.608 71.515
5.43 120.338 70.384
5.44 120.816 69.851
5.45 122.476 69.388
5.46 122.259 67.797
5.47 116.508 64.693
5.48 115.140 60.982
5.49 109.679 56.916
5.50 --undefined-- 51.988
5.51 --undefined-- 52.029
5.52 --undefined-- 59.044
5.53 --undefined-- 63.119
5.54 --undefined-- 65.853
5.55 141.384 69.123
5.56 131.575 71.217
5.57 128.161 71.690
5.58 126.724 71.635
5.59 125.842 71.771
5.60 125.354 72.022
5.61 124.754 72.357
5.62 123.892 72.843
5.63 122.989 73.309
5.64 122.793 73.178
5.65 124.065 72.130
5.66 126.883 71.165
5.67 127.490 71.228
5.68 127.920 71.652
5.69 128.920 71.889
5.70 129.692 71.726
5.71 130.330 71.078
5.72 130.666 70.211
5.73 128.941 69.005
5.74 --undefined-- 66.405
5.75 --undefined-- 61.787
5.76 --undefined-- 55.210
5.77 --undefined-- 47.137
5.78 --undefined-- 41.248
5.79 --undefined-- 38.388
5.80 --undefined-- 36.362
5.81 --undefined-- 36.011
5.82 --undefined-- 37.278
5.83 --undefined-- 37.915
5.84 --undefined-- 37.561
5.85 --undefined-- 37.182
5.86 --undefined-- 36.881
5.87 --undefined-- 35.822
5.88 --undefined-- 34.444
5.89 --undefined-- 34.247
5.90 --undefined-- 34.685
5.91 --undefined-- 34.249
5.92 --undefined-- 34.794
5.93 --undefined-- 36.983
5.94 --undefined-- 38.222
5.95 --undefined-- 37.205
5.96 --undefined-- 34.571
5.97 --undefined-- 33.648
5.98 --undefined-- 34.185
5.99 --undefined-- 33.321
6.00 --undefined-- 32.537
6.01 --undefined-- 39.414
6.02 --undefined-- 50.453
6.03 189.161 57.767
6.04 175.031 61.565
6.05 149.705 63.565
6.06 146.546 67.548
6.07 150.163 72.364
6.08 148.552 75.396
6.09 148.027 76.627
6.10 146.362 76.404
6.11 144.819 74.524
6.12 138.946 70.457
6.13 --undefined-- 64.292
6.14 --undefined-- 57.684
6.15 --undefined-- 51.920
6.16 --undefined-- 46.515
6.17 --undefined-- 44.066
6.18 --undefined-- 50.120
6.19 --undefined-- 58.653
6.20 --undefined-- 63.229
6.21 --undefined-- 64.538
6.22 164.845 66.606
6.23 145.002 69.933
6.24 137.500 71.799
6.25 131.628 72.333
6.26 130.348 72.155
6.27 133.595 72.006
6.28 137.208 72.715
6.29 141.176 73.471
6.30 151.432 73.900
6.31 153.673 74.203
6.32 154.498 73.392
6.33 151.132 70.542
6.34 142.445 65.858
6.35 141.768 61.028
6.36 --undefined-- 59.793
6.37 --undefined-- 61.582
6.38 --undefined-- 61.749
6.39 --undefined-- 60.080
6.40 --undefined-- 57.977
6.41 --undefined-- 60.447
6.42 188.499 67.034
6.43 187.145 71.547
6.44 184.257 73.933
6.45 183.940 75.208
6.46 184.566 75.888
6.47 183.969 76.168
6.48 184.088 76.139
6.49 185.390 --undefined--
6.50 187.051 --undefined--
6.51 --undefined-- --undefined--
6.52 --undefined-- --undefined--
