Time Pitch Intensity
0.01 --undefined-- --undefined--
0.02 147.749 --undefined--
0.03 151.470 --undefined--
0.04 165.837 --undefined--
0.05 183.107 70.773
0.06 194.395 72.176
0.07 202.233 72.149
0.08 203.717 71.618
0.09 205.739 72.033
0.10 207.534 72.325
0.11 207.496 72.038
0.12 207.278 71.985
0.13 206.496 72.398
0.14 205.025 72.703
0.15 202.015 72.268
0.16 204.961 70.998
0.17 207.068 69.367
0.18 191.460 67.493
0.19 184.678 65.305
0.20 186.593 62.113
0.21 184.011 57.540
0.22 193.923 54.263
0.23 194.583 57.815
0.24 189.151 66.014
0.25 167.016 71.165
0.26 158.965 73.544
0.27 154.755 74.156
0.28 150.699 73.791
0.29 151.044 73.228
0.30 154.520 73.403
0.31 160.630 74.214
0.32 166.866 74.805
0.33 171.167 74.512
0.34 170.324 72.967
0.35 165.644 69.928
0.36 165.854 65.867
0.37 170.282 61.323
0.38 169.783 56.268
0.39 171.580 53.456
0.40 171.134 59.671
0.41 171.070 66.907
0.42 166.193 70.729
0.43 154.662 71.749
0.44 148.273 71.316
0.45 145.573 70.944
0.46 143.573 70.836
0.47 142.733 70.512
0.48 141.685 69.490
0.49 138.443 67.229
0.50 137.727 63.648
0.51 141.032 59.169
0.52 141.098 54.855
0.53 140.371 57.345
0.54 154.774 64.465
0.55 150.905 69.085
0.56 142.221 70.895
0.57 136.083 70.816
0.58 130.945 70.255
0.59 128.909 69.679
0.60 127.408 68.576
0.61 129.924 67.386
0.62 132.701 67.439
0.63 133.660 68.652
0.64 135.205 70.037
0.65 137.076 71.049
0.66 139.019 71.554
0.67 140.725 71.426
0.68 144.386 70.106
0.69 149.526 66.725
0.70 154.744 60.929
0.71 136.051 56.115
0.72 135.991 55.802
0.73 --undefined-- 56.324
0.74 --undefined-- 58.551
0.75 --undefined-- 64.103
0.76 --undefined-- 69.936
0.77 149.966 72.742
0.78 147.407 72.722
0.79 137.992 71.621
0.80 134.486 71.187
0.81 132.328 70.836
0.82 129.183 69.800
0.83 128.996 68.523
0.84 131.662 68.674
0.85 132.867 69.727
0.86 133.898 70.419
0.87 134.725 70.643
0.88 135.135 70.456
0.89 135.518 69.596
0.90 137.418 67.499
0.91 135.244 63.538
0.92 135.495 58.021
0.93 137.852 54.982
0.94 --undefined-- 56.651
0.95 --undefined-- 64.276
0.96 --undefined-- 70.283
0.97 168.499 73.088
0.98 166.827 73.679
0.99 161.636 72.829
1.00 155.899 70.319
1.01 --undefined-- 65.675
1.02 --undefined-- 60.119
1.03 --undefined-- 57.016
1.04 --undefined-- 57.980
1.05 --undefined-- 64.207
1.06 131.558 69.213
1.07 136.137 71.813
1.08 134.514 72.623
1.09 129.913 72.481
1.10 126.198 71.653
1.11 117.856 70.203
1.12 110.449 68.809
1.13 103.757 67.726
1.14 98.939 66.737
1.15 101.354 65.925
1.16 --undefined-- 65.348
1.17 --undefined-- 63.942
1.18 --undefined-- 60.890
1.19 103.504 56.736
1.20 104.795 52.008
1.21 --undefined-- 51.057
1.22 --undefined-- 60.174
1.23 --undefined-- 65.517
1.24 --undefined-- 66.379
1.25 110.827 63.625
1.26 112.209 59.629
1.27 111.611 57.856
1.28 123.880 61.544
1.29 131.624 67.348
1.30 127.742 71.097
1.31 126.597 72.328
1.32 118.615 71.653
1.33 116.160 70.877
1.34 114.708 71.095
1.35 114.094 71.490
1.36 113.277 71.416
1.37 115.415 70.573
1.38 117.083 69.308
1.39 117.194 68.564
1.40 117.863 68.943
1.41 116.649 70.082
1.42 116.212 71.447
1.43 117.955 72.400
1.44 117.203 72.220
1.45 114.330 71.673
1.46 114.272 71.667
1.47 113.529 71.457
1.48 113.083 70.994
1.49 113.372 70.791
1.50 113.886 70.937
1.51 114.684 71.184
1.52 116.237 71.519
1.53 117.649 71.985
1.54 119.166 72.392
1.55 120.856 72.587
1.56 123.208 72.581
1.57 127.688 72.793
1.58 134.431 73.447
1.59 139.183 74.192
1.60 143.627 74.790
1.61 148.575 75.221
1.62 156.764 75.385
1.63 159.559 75.045
1.64 159.805 74.689
1.65 160.620 74.707
1.66 161.588 74.700
1.67 163.022 74.642
1.68 164.558 74.633
1.69 165.078 74.809
1.70 162.913 75.095
1.71 159.356 74.761
1.72 154.484 73.135
1.73 146.954 70.164
1.74 148.234 66.999
1.75 149.717 65.052
1.76 142.800 64.350
1.77 142.084 67.471
1.78 143.078 70.877
1.79 138.945 72.251
1.80 133.716 71.813
1.81 127.291 70.748
1.82 123.333 70.218
1.83 119.843 70.112
1.84 118.479 70.137
1.85 118.553 70.183
1.86 119.488 70.849
1.87 119.096 71.729
1.88 119.976 71.913
1.89 123.313 71.552
1.90 125.057 71.600
1.91 125.683 72.021
1.92 125.526 72.311
1.93 125.597 72.510
1.94 125.127 72.566
1.95 123.760 72.108
1.96 122.342 70.626
1.97 118.968 67.638
1.98 118.202 63.173
1.99 121.361 57.936
2.00 123.874 52.831
2.01 --undefined-- 53.526
2.02 --undefined-- 57.911
2.03 --undefined-- 61.085
2.04 --undefined-- 65.935
2.05 --undefined-- 70.355
2.06 139.705 72.141
2.07 136.758 72.285
2.08 138.031 72.508
2.09 140.319 72.860
2.10 144.801 73.182
2.11 151.722 73.918
2.12 158.147 74.584
2.13 164.280 74.628
2.14 168.687 74.142
2.15 170.114 72.993
2.16 174.375 70.884
2.17 174.997 68.539
2.18 172.358 67.220
2.19 170.568 67.710
2.20 170.773 70.610
2.21 171.183 73.425
2.22 164.631 74.688
2.23 158.783 74.748
2.24 153.358 73.984
2.25 139.223 72.787
2.26 132.482 72.475
2.27 128.613 72.747
2.28 125.541 72.425
2.29 123.086 71.687
2.30 121.103 71.099
2.31 120.112 70.047
2.32 116.587 67.826
2.33 120.493 66.118
2.34 123.494 65.986
2.35 125.723 66.250
2.36 125.567 66.668
2.37 126.151 67.171
2.38 126.222 67.462
2.39 126.259 67.709
2.40 131.181 67.764
2.41 130.147 66.415
2.42 124.189 62.849
2.43 121.164 57.302
2.44 130.078 52.156
2.45 131.121 49.872
2.46 --undefined-- 49.308
2.47 --undefined-- 56.073
2.48 --undefined-- 65.655
2.49 --undefined-- 71.429
2.50 156.753 74.039
2.51 155.093 74.603
2.52 150.600 74.024
2.53 148.517 72.790
2.54 145.206 71.547
2.55 144.760 71.025
2.56 144.323 71.006
2.57 143.712 71.125
2.58 143.861 71.336
2.59 142.959 71.495
2.60 142.595 71.645
2.61 143.023 71.839
2.62 142.878 71.826
2.63 141.695 71.285
2.64 140.364 69.920
2.65 138.781 67.423
2.66 133.230 63.662
2.67 130.761 59.383
2.68 132.993 56.134
2.69 133.966 52.994
2.70 --undefined-- 49.603
2.71 --undefined-- 54.163
2.72 143.746 60.805
2.73 134.407 65.777
2.74 133.417 69.498
2.75 135.142 72.052
2.76 138.761 73.646
2.77 143.716 74.698
2.78 149.284 75.592
2.79 154.191 76.226
2.80 160.039 76.121
2.81 167.719 75.256
2.82 172.787 73.729
2.83 174.330 71.082
2.84 167.745 67.225
2.85 166.766 63.783
2.86 166.268 61.496
2.87 171.537 58.715
2.88 163.557 56.590
2.89 164.029 57.730
2.90 163.745 61.876
2.91 --undefined-- 68.196
2.92 151.033 72.034
2.93 147.218 72.915
2.94 133.344 72.079
2.95 129.689 71.107
2.96 129.482 70.310
2.97 135.848 70.276
2.98 144.490 71.209
2.99 150.956 72.182
3.00 155.803 72.954
3.01 161.998 73.439
3.02 170.083 73.481
3.03 177.199 72.995
3.04 180.618 72.168
3.05 177.005 71.058
3.06 169.315 69.250
3.07 162.851 66.706
3.08 161.974 63.931
3.09 155.627 62.827
3.10 155.609 66.495
3.11 158.512 70.889
3.12 153.487 73.078
3.13 147.901 73.039
3.14 133.608 71.795
3.15 128.786 71.154
3.16 126.148 71.466
3.17 124.938 71.783
3.18 123.338 72.077
3.19 122.541 72.556
3.20 121.651 72.687
3.21 120.576 71.785
3.22 119.675 69.739
3.23 117.374 68.107
3.24 116.276 68.375
3.25 116.075 69.113
3.26 117.528 69.813
3.27 119.090 70.182
3.28 121.875 69.883
3.29 123.620 69.288
3.30 126.003 69.151
3.31 128.174 69.383
3.32 132.286 69.839
3.33 139.694 70.376
3.34 145.804 70.432
3.35 155.678 70.439
3.36 162.876 71.009
3.37 167.575 71.359
3.38 172.144 71.113
3.39 177.722 70.771
3.40 180.367 70.661
3.41 180.355 70.104
3.42 176.482 68.506
3.43 171.373 66.035
3.44 167.848 63.594
3.45 168.713 61.591
3.46 168.744 59.116
3.47 171.427 55.147
3.48 --undefined-- 49.804
3.49 --undefined-- 45.478
3.50 --undefined-- 43.677
3.51 --undefined-- 42.311
3.52 --undefined-- 41.792
3.53 --undefined-- 42.810
3.54 --undefined-- 48.992
3.55 --undefined-- 57.574
3.56 --undefined-- 64.613
3.57 201.411 69.470
3.58 190.639 71.806
3.59 186.783 71.980
3.60 185.295 70.793
3.61 186.342 69.332
3.62 188.017 68.139
3.63 183.119 67.196
3.64 185.999 67.342
3.65 191.352 68.381
3.66 190.836 69.325
3.67 190.848 70.195
3.68 191.161 71.021
3.69 191.150 71.717
3.70 191.024 72.263
3.71 190.864 72.693
3.72 190.903 73.034
3.73 190.736 73.309
3.74 190.769 73.540
3.75 190.514 73.695
3.76 189.859 73.779
3.77 189.148 73.813
3.78 188.228 73.760
3.79 186.471 73.454
3.80 182.767 72.561
3.81 176.940 70.732
3.82 168.398 67.774
3.83 159.568 64.077
3.84 162.296 60.219
3.85 179.741 57.391
3.86 180.187 62.815
3.87 166.942 69.293
3.88 158.684 72.927
3.89 152.764 74.015
3.90 144.634 73.371
3.91 136.945 72.587
3.92 133.347 72.613
3.93 131.322 72.709
3.94 128.964 72.158
3.95 126.908 70.262
3.96 126.578 66.442
3.97 127.718 61.155
3.98 125.499 56.324
3.99 132.376 53.089
4.00 --undefined-- 51.639
4.01 --undefined-- 55.879
4.02 --undefined-- 65.046
4.03 171.192 71.016
4.04 172.301 73.681
4.05 172.185 74.255
4.06 170.098 73.798
4.07 169.414 72.697
4.08 169.163 71.287
4.09 170.588 70.784
4.10 169.481 71.249
4.11 170.026 71.865
4.12 168.438 72.387
4.13 162.865 72.494
4.14 155.615 71.539
4.15 146.631 69.122
4.16 134.549 66.029
4.17 130.444 66.293
4.18 125.814 69.203
4.19 121.025 70.822
4.20 105.723 70.655
4.21 99.108 69.431
4.22 93.947 68.371
4.23 91.785 67.901
4.24 90.371 67.412
4.25 90.757 66.814
4.26 93.417 66.495
4.27 98.486 66.888
4.28 104.061 68.199
4.29 110.769 70.097
4.30 119.314 71.756
4.31 128.153 72.574
4.32 138.352 72.727
4.33 144.594 72.863
4.34 155.875 73.368
4.35 161.511 73.980
4.36 166.429 74.151
4.37 166.054 73.584
4.38 161.249 72.049
4.39 154.841 69.103
4.40 --undefined-- 64.563
4.41 --undefined-- 60.372
4.42 90.469 59.469
4.43 88.133 59.390
4.44 90.155 59.568
4.45 99.784 60.503
4.46 108.431 61.888
4.47 112.781 63.466
4.48 113.180 64.993
4.49 111.401 66.191
4.50 110.705 67.222
4.51 111.566 68.408
4.52 105.613 69.356
4.53 104.794 69.688
4.54 104.151 69.478
4.55 102.511 68.922
4.56 102.123 68.158
4.57 101.928 67.497
4.58 102.043 67.135
4.59 102.708 67.046
4.60 103.693 67.130
4.61 104.503 67.182
4.62 105.866 67.086
4.63 106.654 66.808
4.64 106.692 66.060
4.65 105.774 64.342
4.66 102.466 61.551
4.67 104.529 58.964
4.68 108.880 57.439
4.69 112.542 57.675
4.70 --undefined-- 62.480
4.71 --undefined-- 67.534
4.72 130.526 70.443
4.73 127.753 71.420
4.74 125.836 71.456
4.75 126.579 71.597
4.76 128.153 72.106
4.77 129.350 72.740
4.78 129.380 73.051
4.79 129.406 72.887
4.80 130.699 72.636
4.81 131.364 72.731
4.82 132.329 73.052
4.83 132.511 73.114
4.84 131.342 72.383
4.85 127.838 70.057
4.86 127.316 66.062
4.87 131.926 62.284
4.88 128.636 59.508
4.89 125.717 55.839
4.90 127.439 50.993
4.91 --undefined-- 47.069
4.92 --undefined-- 47.125
4.93 --undefined-- 49.782
4.94 --undefined-- 54.085
4.95 --undefined-- 57.643
4.96 --undefined-- --undefined--
4.97 --undefined-- --undefined--
4.98 --undefined-- --undefined--
4.99 --undefined-- --undefined--
