Time Pitch Intensity
0.01 --undefined-- --undefined--
0.02 110.457 --undefined--
0.03 116.991 --undefined--
0.04 113.916 --undefined--
0.05 107.795 76.153
0.06 103.817 75.463
0.07 100.311 74.350
0.08 97.379 72.981
0.09 94.505 71.383
0.10 90.562 69.742
0.11 92.352 68.621
0.12 93.543 67.968
0.13 83.976 66.841
0.14 91.252 65.834
0.15 89.345 65.791
0.16 93.110 66.667
0.17 96.181 68.251
0.18 101.083 70.038
0.19 107.812 71.838
0.20 114.402 73.562
0.21 121.263 75.178
0.22 121.573 76.449
0.23 122.086 77.322
0.24 123.399 77.908
0.25 124.535 78.234
0.26 124.126 78.230
0.27 121.986 77.862
0.28 121.350 77.248
0.29 117.291 76.376
0.30 109.669 75.280
0.31 105.600 73.784
0.32 102.987 71.505
0.33 98.959 68.214
0.34 102.610 63.660
0.35 --undefined-- 57.542
0.36 --undefined-- 50.941
0.37 --undefined-- 49.233
0.38 --undefined-- 50.188
0.39 --undefined-- 50.728
0.40 --undefined-- 51.147
0.41 --undefined-- 52.159
0.42 --undefined-- 53.285
0.43 --undefined-- 54.072
0.44 --undefined-- 54.172
0.45 --undefined-- 53.506
0.46 --undefined-- 53.566
0.47 --undefined-- 54.385
0.48 --undefined-- 54.752
0.49 --undefined-- 55.066
0.50 --undefined-- 55.556
0.51 --undefined-- 55.553
0.52 --undefined-- 54.770
0.53 --undefined-- 54.526
0.54 --undefined-- 54.809
0.55 --undefined-- 54.698
0.56 --undefined-- 54.428
0.57 --undefined-- 55.106
0.58 --undefined-- 56.770
0.59 --undefined-- 57.922
0.60 --undefined-- 57.984
0.61 --undefined-- 56.774
0.62 --undefined-- 53.931
0.63 --undefined-- 49.043
0.64 --undefined-- 43.520
0.65 --undefined-- 43.118
0.66 --undefined-- 54.046
0.67 --undefined-- 63.591
0.68 117.553 69.717
0.69 130.594 73.390
0.70 133.297 75.214
0.71 135.727 75.985
0.72 139.824 76.646
0.73 141.560 77.352
0.74 142.988 77.858
0.75 143.423 78.299
0.76 142.729 78.603
0.77 141.893 78.574
0.78 140.234 77.818
0.79 --undefined-- 75.324
0.80 --undefined-- 70.615
0.81 --undefined-- 66.171
0.82 --undefined-- 64.337
0.83 --undefined-- 62.616
0.84 --undefined-- 61.992
0.85 --undefined-- 61.783
0.86 --undefined-- 61.028
0.87 --undefined-- 60.388
0.88 --undefined-- 60.279
0.89 --undefined-- 62.962
0.90 --undefined-- 66.575
0.91 108.444 68.448
0.92 103.557 68.397
0.93 96.540 67.347
0.94 96.227 67.277
0.95 97.620 68.539
0.96 98.987 69.739
0.97 100.664 70.119
0.98 102.246 70.058
0.99 106.709 70.548
1.00 111.446 71.655
1.01 115.517 72.960
1.02 121.601 74.160
1.03 130.948 75.308
1.04 139.676 76.735
1.05 146.965 78.124
1.06 153.117 79.122
1.07 160.847 79.603
1.08 169.755 79.442
1.09 180.280 78.532
1.10 193.655 76.814
1.11 184.204 73.955
1.12 168.941 69.755
1.13 169.632 65.082
1.14 169.959 62.072
1.15 --undefined-- 68.502
1.16 204.691 74.684
1.17 197.229 77.729
1.18 190.097 78.230
1.19 177.026 76.909
1.20 169.444 74.117
1.21 168.311 69.560
1.22 --undefined-- 63.350
1.23 --undefined-- 58.712
1.24 --undefined-- 56.891
1.25 --undefined-- 56.405
1.26 97.689 57.869
1.27 93.428 58.169
1.28 93.562 56.505
1.29 --undefined-- 54.063
1.30 --undefined-- 54.655
1.31 113.839 57.479
1.32 112.638 59.751
1.33 111.080 61.457
1.34 110.758 62.927
1.35 109.654 64.347
1.36 109.562 66.141
1.37 108.668 68.450
1.38 107.835 70.730
1.39 107.778 72.541
1.40 108.541 73.830
1.41 110.764 74.757
1.42 115.090 75.435
1.43 119.844 75.849
1.44 125.583 76.160
1.45 131.111 76.465
1.46 133.882 76.227
1.47 133.517 75.158
1.48 140.135 75.189
1.49 143.060 76.470
1.50 143.457 76.956
1.51 144.265 76.906
1.52 143.571 76.944
1.53 143.962 76.915
1.54 144.199 76.876
1.55 145.450 77.199
1.56 146.638 77.591
1.57 146.842 77.579
1.58 147.166 77.136
1.59 145.324 75.972
1.60 141.483 73.108
1.61 145.767 67.928
1.62 147.203 61.079
1.63 146.966 54.878
1.64 149.552 52.959
1.65 --undefined-- 53.472
1.66 --undefined-- 55.310
1.67 --undefined-- 58.170
1.68 --undefined-- 60.441
1.69 --undefined-- 61.823
1.70 --undefined-- 67.216
1.71 162.777 73.316
1.72 154.317 76.784
1.73 147.587 78.218
1.74 144.369 78.692
1.75 143.265 78.758
1.76 141.065 78.150
1.77 138.948 76.463
1.78 135.364 73.789
1.79 132.855 70.620
1.80 134.081 66.891
1.81 --undefined-- 62.871
1.82 --undefined-- 61.755
1.83 --undefined-- 65.678
1.84 --undefined-- 72.476
1.85 191.516 77.048
1.86 189.630 78.782
1.87 186.091 78.906
1.88 184.102 78.753
1.89 182.518 78.325
1.90 181.535 77.308
1.91 181.488 76.111
1.92 180.819 75.568
1.93 180.317 75.612
1.94 179.273 75.731
1.95 178.018 75.599
1.96 177.577 75.342
1.97 176.963 75.210
1.98 173.291 75.023
1.99 167.438 74.438
2.00 160.520 73.529
2.01 156.001 73.617
2.02 160.981 75.358
2.03 160.986 77.274
2.04 161.392 78.557
2.05 162.114 79.461
2.06 163.676 80.161
2.07 164.469 80.515
2.08 164.538 80.345
2.09 163.133 79.742
2.10 158.331 79.387
2.11 158.986 79.187
2.12 159.964 78.446
2.13 157.697 77.876
2.14 152.662 78.406
2.15 147.048 79.304
2.16 140.773 79.618
2.17 134.159 79.276
2.18 129.521 79.143
2.19 128.531 79.109
2.20 123.352 78.173
2.21 115.097 76.691
2.22 111.161 75.643
2.23 108.640 74.822
2.24 108.128 74.189
2.25 108.414 73.843
2.26 109.058 73.612
2.27 111.415 73.474
2.28 115.120 73.262
2.29 118.311 72.747
2.30 122.868 72.212
2.31 127.560 72.317
2.32 129.900 72.759
2.33 130.427 72.986
2.34 129.604 73.030
2.35 126.782 73.118
2.36 122.828 73.335
2.37 119.423 73.878
2.38 119.071 74.863
2.39 116.421 75.344
2.40 106.877 74.890
2.41 105.040 74.150
2.42 102.451 73.381
2.43 101.810 72.391
2.44 98.574 71.200
2.45 98.201 70.133
2.46 100.058 69.851
2.47 100.487 70.036
2.48 100.209 70.072
2.49 99.655 69.884
2.50 99.332 69.356
2.51 98.319 68.145
2.52 95.177 65.997
2.53 94.248 62.972
2.54 96.324 59.123
2.55 --undefined-- 54.666
2.56 --undefined-- 55.073
2.57 --undefined-- 62.482
2.58 --undefined-- 68.712
2.59 114.279 72.364
2.60 111.920 74.177
2.61 112.876 75.255
2.62 115.737 76.083
2.63 117.784 76.442
2.64 124.734 76.172
2.65 129.692 75.349
2.66 139.626 74.861
2.67 149.244 75.432
2.68 154.983 76.188
2.69 159.146 76.721
2.70 161.360 77.092
2.71 161.761 77.029
2.72 159.781 76.087
2.73 156.776 74.636
2.74 155.350 74.351
2.75 150.275 75.922
2.76 147.674 78.433
2.77 142.373 80.211
2.78 133.953 80.506
2.79 125.308 79.854
2.80 120.501 78.976
2.81 111.499 78.008
2.82 106.713 77.264
2.83 102.852 76.348
2.84 96.073 74.728
2.85 91.014 72.785
2.86 87.849 70.388
2.87 80.138 66.919
2.88 85.927 63.580
2.89 89.940 61.455
2.90 103.069 58.756
2.91 --undefined-- 55.013
2.92 --undefined-- 51.527
2.93 --undefined-- 51.002
2.94 --undefined-- 51.609
2.95 --undefined-- 52.593
2.96 --undefined-- 53.916
2.97 --undefined-- 54.414
2.98 --undefined-- 53.949
2.99 --undefined-- 53.314
3.00 --undefined-- 52.682
3.01 --undefined-- 52.183
3.02 --undefined-- 51.768
3.03 --undefined-- 51.170
3.04 --undefined-- 50.054
3.05 --undefined-- 48.236
3.06 --undefined-- 46.456
3.07 --undefined-- 45.527
3.08 --undefined-- 44.816
3.09 --undefined-- 43.510
3.10 --undefined-- 41.868
3.11 --undefined-- 40.116
3.12 --undefined-- 38.246
3.13 --undefined-- 37.229
3.14 --undefined-- 38.188
3.15 --undefined-- 39.793
3.16 --undefined-- 40.695
3.17 --undefined-- 42.510
3.18 --undefined-- 47.608
3.19 --undefined-- 52.962
3.20 --undefined-- 58.725
3.21 --undefined-- 64.301
3.22 --undefined-- 68.169
3.23 --undefined-- 71.350
3.24 198.971 75.688
3.25 194.629 78.936
3.26 190.535 80.167
3.27 183.053 80.503
3.28 177.371 80.932
3.29 173.127 81.346
3.30 170.198 81.879
3.31 169.129 82.358
3.32 167.845 82.133
3.33 169.958 80.969
3.34 177.306 79.124
3.35 179.683 77.738
3.36 179.131 77.243
3.37 178.584 76.781
3.38 177.785 76.328
3.39 176.041 76.217
3.40 174.060 76.254
3.41 172.335 75.865
3.42 169.737 74.571
3.43 159.868 72.489
3.44 157.485 70.254
3.45 153.712 67.767
3.46 148.632 64.726
3.47 152.497 62.187
3.48 152.344 61.989
3.49 --undefined-- 62.897
3.50 --undefined-- 63.605
3.51 221.541 69.028
3.52 222.733 74.001
3.53 221.661 76.339
3.54 220.495 77.008
3.55 217.789 76.685
3.56 214.262 75.234
3.57 202.311 72.398
3.58 189.780 69.481
3.59 191.596 69.327
3.60 195.457 70.625
3.61 198.508 71.626
3.62 199.371 72.100
3.63 200.220 72.271
3.64 200.017 72.335
3.65 198.119 72.463
3.66 196.701 72.592
3.67 192.986 72.087
3.68 181.464 70.297
3.69 170.458 66.880
3.70 159.879 61.642
3.71 --undefined-- 54.943
3.72 --undefined-- 48.766
3.73 --undefined-- 47.854
3.74 --undefined-- 58.531
3.75 --undefined-- 67.904
3.76 147.893 73.619
3.77 140.491 76.318
3.78 129.603 76.891
3.79 119.716 76.656
3.80 117.469 76.553
3.81 115.467 76.508
3.82 113.361 76.544
3.83 112.187 76.573
3.84 111.632 76.430
3.85 111.318 76.238
3.86 110.400 75.942
3.87 109.554 75.344
3.88 107.772 73.974
3.89 104.286 71.255
3.90 101.722 67.333
3.91 109.840 63.443
3.92 113.005 59.859
3.93 --undefined-- 55.595
3.94 --undefined-- 50.591
3.95 --undefined-- 46.685
3.96 --undefined-- 45.386
3.97 --undefined-- 46.282
3.98 --undefined-- 49.461
3.99 --undefined-- 56.013
4.00 --undefined-- 65.338
4.01 --undefined-- 72.093
4.02 187.108 75.954
4.03 184.711 77.641
4.04 176.659 77.396
4.05 167.691 75.025
4.06 152.712 70.365
4.07 159.211 64.677
4.08 158.016 59.981
4.09 161.043 55.959
4.10 --undefined-- 53.057
4.11 --undefined-- 51.358
4.12 --undefined-- 49.817
4.13 --undefined-- 49.593
4.14 --undefined-- 48.731
4.15 --undefined-- 45.052
4.16 --undefined-- 40.892
4.17 --undefined-- 38.489
4.18 --undefined-- 39.783
4.19 --undefined-- 52.541
4.20 --undefined-- 62.880
4.21 --undefined-- 69.605
4.22 --undefined-- 73.256
4.23 --undefined-- 74.284
4.24 105.511 73.188
4.25 94.423 71.083
4.26 91.463 69.589
4.27 87.488 68.810
4.28 84.082 68.186
4.29 82.940 67.982
4.30 99.313 68.479
4.31 97.345 69.290
4.32 93.367 69.942
4.33 94.314 70.503
4.34 98.732 71.125
4.35 99.785 71.644
4.36 100.439 71.575
4.37 99.828 70.742
4.38 97.555 69.409
4.39 97.522 68.297
4.40 97.758 68.190
4.41 98.155 68.948
4.42 98.132 69.833
4.43 98.060 70.428
4.44 98.360 70.691
4.45 99.107 70.779
4.46 100.385 70.944
4.47 104.032 71.404
4.48 106.957 72.124
4.49 107.817 72.984
4.50 108.464 73.865
4.51 107.471 74.153
4.52 103.313 73.058
4.53 94.024 70.073
4.54 96.311 65.231
4.55 --undefined-- 58.995
4.56 --undefined-- 53.117
4.57 --undefined-- 50.636
4.58 --undefined-- 50.894
4.59 --undefined-- 52.208
4.60 --undefined-- 52.797
4.61 --undefined-- 52.762
4.62 --undefined-- 52.105
4.63 --undefined-- 50.725
4.64 --undefined-- 49.451
4.65 --undefined-- 49.122
4.66 --undefined-- 49.222
4.67 --undefined-- 49.473
4.68 --undefined-- 49.961
4.69 --undefined-- 50.400
4.70 --undefined-- 50.775
4.71 --undefined-- 51.211
4.72 --undefined-- 51.590
4.73 --undefined-- 52.228
4.74 --undefined-- 53.522
4.75 --undefined-- 57.231
4.76 --undefined-- 63.084
4.77 118.413 67.466
4.78 113.522 70.034
4.79 109.457 71.371
4.80 106.965 71.987
4.81 105.018 72.312
4.82 103.193 72.602
4.83 102.538 72.899
4.84 102.099 73.227
4.85 102.212 73.684
4.86 102.153 74.200
4.87 102.780 74.706
4.88 103.167 75.133
4.89 105.048 75.481
4.90 104.601 75.648
4.91 104.325 75.496
4.92 104.077 74.971
4.93 103.745 73.948
4.94 101.543 72.297
4.95 99.057 70.021
4.96 98.288 67.390
4.97 97.942 64.767
4.98 99.614 62.349
4.99 105.509 59.715
5.00 106.041 56.205
5.01 --undefined-- 52.039
5.02 --undefined-- 50.321
5.03 --undefined-- 53.235
5.04 --undefined-- 57.634
5.05 --undefined-- 63.232
5.06 102.758 67.765
5.07 104.331 70.766
5.08 104.090 72.755
5.09 104.328 73.959
5.10 104.439 74.635
5.11 103.840 74.956
5.12 104.270 75.167
5.13 106.319 75.402
5.14 107.056 75.534
5.15 108.097 75.146
5.16 108.366 73.807
5.17 107.177 72.526
5.18 115.570 73.046
5.19 118.798 --undefined--
5.20 123.131 --undefined--
5.21 --undefined-- --undefined--
5.22 --undefined-- --undefined--
