Time Pitch Intensity
0.01 --undefined-- --undefined--
0.02 203.756 --undefined--
0.03 202.328 --undefined--
0.04 201.086 --undefined--
0.05 198.447 65.888
0.06 194.725 66.258
0.07 190.548 66.469
0.08 184.635 65.865
0.09 173.372 64.534
0.10 157.651 63.243
0.11 155.545 62.964
0.12 158.073 62.702
0.13 157.478 61.684
0.14 155.197 60.648
0.15 152.682 59.979
0.16 151.136 59.586
0.17 151.235 59.581
0.18 151.087 59.610
0.19 151.382 59.483
0.20 154.834 59.329
0.21 157.743 59.002
0.22 160.621 58.114
0.23 158.529 56.260
0.24 147.831 54.229
0.25 --undefined-- 52.841
0.26 --undefined-- 50.247
0.27 --undefined-- 46.445
0.28 --undefined-- 45.197
0.29 --undefined-- 46.925
0.30 --undefined-- 53.612
0.31 --undefined-- 60.066
0.32 200.845 63.705
0.33 199.391 65.473
0.34 191.240 66.610
0.35 189.767 67.320
0.36 187.611 67.491
0.37 188.863 67.365
0.38 190.896 67.137
0.39 192.332 66.820
0.40 194.152 66.420
0.41 194.696 66.074
0.42 194.842 65.861
0.43 195.153 65.622
0.44 195.163 65.174
0.45 194.857 64.285
0.46 193.616 62.573
0.47 190.911 59.357
0.48 192.586 54.489
0.49 --undefined-- 50.745
0.50 --undefined-- 50.146
0.51 --undefined-- 49.976
0.52 --undefined-- 48.729
0.53 --undefined-- 46.642
0.54 --undefined-- 44.755
0.55 --undefined-- 44.674
0.56 --undefined-- 46.004
0.57 --undefined-- 47.245
0.58 --undefined-- 50.128
0.59 --undefined-- 56.094
0.60 180.785 61.765
0.61 184.283 65.254
0.62 183.544 66.843
0.63 182.161 67.175
0.64 181.034 66.694
0.65 179.242 65.674
0.66 181.703 64.856
0.67 181.987 64.804
0.68 181.908 64.916
0.69 182.855 64.886
0.70 183.711 64.938
0.71 183.747 65.330
0.72 184.402 66.042
0.73 178.796 66.938
0.74 177.759 67.406
0.75 176.881 67.214
0.76 176.594 66.868
0.77 176.470 66.637
0.78 176.172 66.254
0.79 175.065 65.401
0.80 172.894 64.156
0.81 172.739 63.171
0.82 174.653 62.906
0.83 175.810 63.064
0.84 175.321 63.131
0.85 175.144 63.090
0.86 175.761 63.152
0.87 177.528 63.512
0.88 179.682 63.850
0.89 182.078 63.889
0.90 183.837 63.481
0.91 184.286 61.940
0.92 185.199 58.904
0.93 --undefined-- 56.334
0.94 --undefined-- 56.313
0.95 203.923 57.829
0.96 206.546 59.421
0.97 207.553 60.054
0.98 212.938 60.470
0.99 217.844 61.256
1.00 224.110 62.236
1.01 197.403 63.484
1.02 182.005 64.882
1.03 176.475 65.843
1.04 171.551 65.968
1.05 168.798 65.426
1.06 166.379 64.749
1.07 164.421 64.192
1.08 161.923 63.892
1.09 161.765 63.709
1.10 162.976 63.695
1.11 164.248 64.610
1.12 164.875 65.609
1.13 166.555 65.843
1.14 168.077 65.857
1.15 168.220 66.200
1.16 167.587 66.283
1.17 166.840 65.228
1.18 171.716 62.532
1.19 167.318 58.728
1.20 167.151 56.360
1.21 169.140 55.919
1.22 --undefined-- 54.746
1.23 --undefined-- 54.182
1.24 --undefined-- 55.512
1.25 --undefined-- 55.544
1.26 --undefined-- 54.659
1.27 194.708 55.699
1.28 198.765 57.542
1.29 202.959 59.529
1.30 203.131 62.922
1.31 217.181 66.328
1.32 218.647 67.919
1.33 205.957 67.835
1.34 207.929 67.256
1.35 203.561 66.799
1.36 201.745 67.037
1.37 202.115 67.759
1.38 204.907 68.203
1.39 211.190 68.374
1.40 215.430 68.525
1.41 220.005 68.452
1.42 225.495 68.136
1.43 232.527 68.479
1.44 238.447 69.513
1.45 244.529 69.816
1.46 251.605 68.810
1.47 258.935 67.172
1.48 263.254 65.634
1.49 268.668 64.480
1.50 274.567 64.375
1.51 281.181 64.889
1.52 284.055 64.837
1.53 279.143 63.326
1.54 274.047 60.115
1.55 263.266 56.888
1.56 275.775 57.001
1.57 --undefined-- 56.645
1.58 --undefined-- 54.748
1.59 --undefined-- 53.616
1.60 --undefined-- 53.247
1.61 --undefined-- 53.555
1.62 --undefined-- 54.149
1.63 --undefined-- 59.972
1.64 172.813 65.994
1.65 171.300 68.859
1.66 172.052 69.344
1.67 173.849 68.927
1.68 176.257 68.682
1.69 177.392 68.903
1.70 178.014 69.511
1.71 178.810 69.971
1.72 179.330 70.064
1.73 179.119 69.964
1.74 178.945 69.878
1.75 179.043 69.856
1.76 178.981 69.882
1.77 179.003 69.995
1.78 179.103 70.220
1.79 179.147 70.391
1.80 178.556 70.375
1.81 177.778 70.255
1.82 176.255 70.070
1.83 174.956 69.706
1.84 172.404 69.111
1.85 170.578 68.463
1.86 166.989 68.063
1.87 162.546 68.263
1.88 159.152 68.776
1.89 154.315 68.496
1.90 289.273 67.294
1.91 276.171 65.941
1.92 256.977 64.690
1.93 240.179 64.292
1.94 227.357 65.020
1.95 215.511 66.435
1.96 204.988 67.952
1.97 197.769 68.938
1.98 187.749 69.573
1.99 179.554 69.957
2.00 174.238 69.641
2.01 171.386 68.640
2.02 170.052 67.703
2.03 170.456 67.255
2.04 170.735 67.069
2.05 171.554 67.281
2.06 172.527 67.402
2.07 176.891 67.047
2.08 178.076 66.838
2.09 177.626 67.000
2.10 176.001 66.859
2.11 174.972 66.294
2.12 175.207 65.849
2.13 175.610 66.030
2.14 175.789 66.432
2.15 175.869 66.426
2.16 176.294 66.189
2.17 176.200 65.822
2.18 176.657 64.999
2.19 177.612 64.127
2.20 186.320 64.298
2.21 191.806 64.583
2.22 199.150 63.786
2.23 208.928 62.552
2.24 215.065 62.135
2.25 219.268 62.189
2.26 225.897 61.769
2.27 224.950 60.802
2.28 224.629 59.970
2.29 226.172 59.820
2.30 229.962 60.431
2.31 238.061 61.342
2.32 256.607 62.646
2.33 255.791 64.123
2.34 222.834 65.186
2.35 217.520 65.643
2.36 215.945 65.762
2.37 217.980 65.896
2.38 220.843 65.886
2.39 224.202 65.500
2.40 228.908 64.792
2.41 229.706 64.233
2.42 234.060 64.204
2.43 233.928 63.719
2.44 230.821 61.635
2.45 222.573 58.339
2.46 --undefined-- 57.032
2.47 --undefined-- 57.581
2.48 293.479 61.333
2.49 236.820 65.098
2.50 222.920 66.814
2.51 211.064 67.228
2.52 203.860 67.043
2.53 198.415 66.822
2.54 196.041 66.732
2.55 195.451 66.831
2.56 195.550 67.144
2.57 194.544 67.505
2.58 193.147 67.925
2.59 192.461 68.338
2.60 191.857 68.583
2.61 190.327 68.508
2.62 187.192 68.135
2.63 185.065 67.395
2.64 185.774 66.594
2.65 184.547 66.257
2.66 182.392 66.321
2.67 180.278 66.197
2.68 177.288 65.391
2.69 173.803 64.049
2.70 167.976 62.608
2.71 164.655 61.774
2.72 158.948 61.437
2.73 154.641 60.700
2.74 146.206 60.239
2.75 --undefined-- 61.392
2.76 --undefined-- 61.819
2.77 153.418 60.531
2.78 154.408 58.985
2.79 143.019 58.258
2.80 138.013 58.042
2.81 137.751 57.773
2.82 137.412 57.706
2.83 137.385 58.529
2.84 142.690 59.415
2.85 146.202 60.475
2.86 149.918 61.142
2.87 147.480 61.327
2.88 150.693 61.419
2.89 150.630 61.052
2.90 149.619 59.692
2.91 148.299 57.134
2.92 --undefined-- 54.438
2.93 --undefined-- 53.232
2.94 --undefined-- 54.178
2.95 --undefined-- 54.673
2.96 --undefined-- 55.420
2.97 --undefined-- 57.356
2.98 180.409 58.531
2.99 179.042 58.432
3.00 159.955 57.976
3.01 168.400 58.772
3.02 168.196 60.239
3.03 169.153 61.330
3.04 173.764 61.987
3.05 183.627 63.006
3.06 188.067 64.158
3.07 192.841 64.594
3.08 199.671 64.290
3.09 207.974 63.839
3.10 215.061 63.461
3.11 216.195 62.446
3.12 214.054 60.745
3.13 221.418 61.073
3.14 237.391 63.749
3.15 235.726 65.834
3.16 229.486 66.514
3.17 223.651 66.445
3.18 218.327 66.496
3.19 209.989 66.681
3.20 204.743 66.461
3.21 202.174 65.847
3.22 199.729 65.139
3.23 190.136 63.700
3.24 186.047 60.622
3.25 191.502 56.104
3.26 --undefined-- 53.950
3.27 --undefined-- 53.750
3.28 --undefined-- 53.004
3.29 --undefined-- 52.115
3.30 --undefined-- 51.913
3.31 --undefined-- 52.139
3.32 --undefined-- 50.226
3.33 --undefined-- 50.991
3.34 --undefined-- 58.031
3.35 207.054 63.431
3.36 199.166 66.449
3.37 195.973 67.623
3.38 193.039 68.269
3.39 190.519 69.523
3.40 187.745 70.781
3.41 186.680 71.222
3.42 186.751 70.238
3.43 186.034 67.354
3.44 183.827 62.732
3.45 186.576 58.084
3.46 186.670 55.968
3.47 --undefined-- 55.055
3.48 --undefined-- 53.615
3.49 --undefined-- 52.780
3.50 --undefined-- 52.485
3.51 --undefined-- 50.985
3.52 --undefined-- 51.332
3.53 --undefined-- 52.920
3.54 --undefined-- 52.696
3.55 --undefined-- 53.321
3.56 --undefined-- 54.481
3.57 --undefined-- 53.043
3.58 --undefined-- 48.881
3.59 --undefined-- 45.899
3.60 --undefined-- 46.033
3.61 --undefined-- 48.044
3.62 --undefined-- 51.913
3.63 --undefined-- 53.301
3.64 --undefined-- 51.404
3.65 --undefined-- 48.822
3.66 --undefined-- 53.225
3.67 214.161 58.908
3.68 206.745 62.616
3.69 198.943 64.790
3.70 191.969 66.164
3.71 187.995 66.904
3.72 183.417 66.982
3.73 181.362 66.699
3.74 181.412 66.283
3.75 183.357 66.162
3.76 183.505 66.486
3.77 182.875 66.700
3.78 181.996 66.608
3.79 180.429 66.370
3.80 179.682 66.113
3.81 179.534 66.006
3.82 179.706 65.666
3.83 180.486 64.099
3.84 --undefined-- 60.264
3.85 --undefined-- 54.079
3.86 --undefined-- 48.912
3.87 --undefined-- 47.343
3.88 --undefined-- 47.153
3.89 --undefined-- 48.664
3.90 --undefined-- 51.972
3.91 --undefined-- 55.109
3.92 --undefined-- 56.821
3.93 --undefined-- 58.271
3.94 --undefined-- 58.424
3.95 --undefined-- 56.282
3.96 --undefined-- 54.337
3.97 192.132 55.852
3.98 203.779 58.629
3.99 205.898 60.887
4.00 193.274 62.205
4.01 179.669 62.490
4.02 171.814 61.533
4.03 163.378 60.019
4.04 162.073 59.278
4.05 160.080 59.093
4.06 156.521 58.803
4.07 153.195 58.632
4.08 152.033 58.620
4.09 149.270 58.507
4.10 148.478 58.591
4.11 147.759 58.825
4.12 148.579 59.148
4.13 149.056 59.523
4.14 149.283 59.461
4.15 148.415 59.163
4.16 148.908 58.933
4.17 147.830 58.479
4.18 151.044 57.609
4.19 159.421 56.419
4.20 162.902 54.650
4.21 153.299 53.040
4.22 --undefined-- 53.170
4.23 --undefined-- 53.449
4.24 --undefined-- 52.740
4.25 --undefined-- 53.871
4.26 --undefined-- 56.531
4.27 197.923 59.200
4.28 205.006 62.110
4.29 204.635 65.639
4.30 197.440 69.088
4.31 192.755 71.475
4.32 184.754 72.536
4.33 178.443 72.718
4.34 176.280 72.718
4.35 --undefined-- 72.449
4.36 --undefined-- 70.964
4.37 --undefined-- 67.898
4.38 --undefined-- 64.023
4.39 --undefined-- 60.560
4.40 --undefined-- 57.476
4.41 --undefined-- 54.587
4.42 --undefined-- 51.622
4.43 --undefined-- 50.965
4.44 --undefined-- 53.064
4.45 --undefined-- 53.991
4.46 --undefined-- 53.163
4.47 --undefined-- 50.363
4.48 --undefined-- 47.368
4.49 --undefined-- 48.718
4.50 --undefined-- 53.166
4.51 --undefined-- 55.573
4.52 --undefined-- 54.850
4.53 --undefined-- 51.705
4.54 --undefined-- 49.275
4.55 --undefined-- 49.469
4.56 --undefined-- 48.980
4.57 --undefined-- 48.513
4.58 --undefined-- 49.550
4.59 --undefined-- 50.536
4.60 --undefined-- 50.545
4.61 --undefined-- 48.899
4.62 --undefined-- 47.625
4.63 --undefined-- 49.164
4.64 --undefined-- 50.906
4.65 --undefined-- 51.999
4.66 --undefined-- 51.876
4.67 --undefined-- 50.381
4.68 --undefined-- 50.545
4.69 --undefined-- 52.112
4.70 --undefined-- 51.385
4.71 --undefined-- 50.062
4.72 --undefined-- 50.281
4.73 --undefined-- 48.572
4.74 --undefined-- 45.781
4.75 --undefined-- 45.132
4.76 --undefined-- 46.529
4.77 --undefined-- 48.451
4.78 --undefined-- 49.301
4.79 --undefined-- 49.273
4.80 --undefined-- 53.290
4.81 --undefined-- 62.189
4.82 292.574 68.010
4.83 283.945 71.068
4.84 280.511 72.460
4.85 277.999 72.980
4.86 277.177 72.681
4.87 278.604 71.571
4.88 279.756 70.250
4.89 279.323 69.486
4.90 278.355 69.908
4.91 278.529 70.669
4.92 278.790 70.942
4.93 279.688 71.035
4.94 280.854 71.108
4.95 282.996 71.152
4.96 284.912 --undefined--
4.97 285.854 --undefined--
4.98 --undefined-- --undefined--
4.99 --undefined-- --undefined--
