Time Pitch Intensity
0.01 --undefined-- --undefined--
0.02 --undefined-- --undefined--
0.03 --undefined-- --undefined--
0.04 --undefined-- --undefined--
0.05 --undefined-- 58.041
0.06 --undefined-- 55.898
0.07 --undefined-- 52.832
0.08 --undefined-- 50.621
0.09 --undefined-- 49.340
0.10 --undefined-- 48.715
0.11 --undefined-- 49.229
0.12 --undefined-- 50.592
0.13 --undefined-- 51.261
0.14 --undefined-- 50.362
0.15 --undefined-- 48.115
0.16 --undefined-- 44.941
0.17 --undefined-- 41.241
0.18 --undefined-- 36.593
0.19 --undefined-- 31.462
0.20 --undefined-- 28.577
0.21 --undefined-- 31.239
0.22 --undefined-- 38.725
0.23 --undefined-- 45.701
0.24 --undefined-- 52.678
0.25 --undefined-- 59.737
0.26 --undefined-- 63.975
0.27 --undefined-- 64.548
0.28 --undefined-- 62.744
0.29 --undefined-- 63.982
0.30 --undefined-- 68.104
0.31 --undefined-- 71.131
0.32 189.672 72.774
0.33 186.413 73.217
0.34 186.177 72.696
0.35 186.254 71.923
0.36 185.932 71.473
0.37 185.798 70.780
0.38 184.132 69.308
0.39 181.603 67.336
0.40 180.600 65.379
0.41 180.046 63.916
0.42 181.635 62.587
0.43 185.783 61.288
0.44 189.355 60.663
0.45 186.008 60.705
0.46 184.398 60.419
0.47 186.858 58.721
0.48 186.750 55.053
0.49 --undefined-- 50.058
0.50 --undefined-- 50.632
0.51 --undefined-- 53.433
0.52 --undefined-- 56.019
0.53 --undefined-- 62.766
0.54 225.884 68.285
0.55 224.473 71.266
0.56 205.550 72.785
0.57 195.336 73.564
0.58 192.379 73.317
0.59 190.224 72.377
0.60 189.388 71.629
0.61 190.094 70.891
0.62 191.246 69.996
0.63 190.671 68.902
0.64 189.356 66.955
0.65 188.623 64.478
0.66 187.521 62.943
0.67 188.848 62.371
0.68 193.100 61.676
0.69 191.331 61.409
0.70 186.653 62.090
0.71 184.433 62.931
0.72 179.855 63.582
0.73 176.266 63.629
0.74 173.347 62.313
0.75 164.195 59.756
0.76 153.733 58.290
0.77 159.980 60.108
0.78 158.199 62.842
0.79 158.174 65.055
0.80 160.038 66.139
0.81 160.563 66.401
0.82 160.315 66.435
0.83 161.216 66.079
0.84 162.732 65.467
0.85 166.304 65.504
0.86 168.615 65.738
0.87 168.926 65.678
0.88 171.883 65.948
0.89 174.634 66.322
0.90 176.722 66.563
0.91 177.937 66.878
0.92 177.224 67.060
0.93 181.903 66.413
0.94 191.598 65.072
0.95 196.726 64.332
0.96 197.064 64.456
0.97 201.167 64.638
0.98 206.064 64.428
0.99 208.109 63.689
1.00 204.544 62.889
1.01 198.506 62.610
1.02 193.789 62.820
1.03 195.702 64.738
1.04 204.087 68.514
1.05 204.415 71.793
1.06 195.158 73.736
1.07 192.618 74.007
1.08 170.610 73.052
1.09 168.305 72.345
1.10 133.118 72.089
1.11 133.233 71.235
1.12 --undefined-- 69.499
1.13 --undefined-- 67.389
1.14 --undefined-- 63.482
1.15 --undefined-- 55.742
1.16 --undefined-- 45.410
1.17 --undefined-- 40.577
1.18 --undefined-- 37.092
1.19 --undefined-- 34.149
1.20 --undefined-- 31.399
1.21 --undefined-- 28.580
1.22 --undefined-- 26.466
1.23 --undefined-- 25.317
1.24 --undefined-- 24.528
1.25 --undefined-- 22.897
1.26 --undefined-- 21.786
1.27 --undefined-- 23.009
1.28 --undefined-- 23.768
1.29 --undefined-- 23.423
1.30 --undefined-- 23.421
1.31 --undefined-- 24.047
1.32 --undefined-- 28.957
1.33 --undefined-- 42.162
1.34 --undefined-- 51.486
1.35 --undefined-- 57.031
1.36 --undefined-- 59.918
1.37 158.396 60.783
1.38 159.927 60.374
1.39 161.973 59.905
1.40 160.480 59.819
1.41 160.677 60.168
1.42 161.005 60.373
1.43 159.513 60.620
1.44 156.721 62.685
1.45 156.925 64.782
1.46 159.176 65.817
1.47 159.918 66.396
1.48 160.394 66.957
1.49 160.601 67.496
1.50 162.059 67.932
1.51 163.837 68.055
1.52 164.122 67.969
1.53 163.950 67.966
1.54 165.063 68.405
1.55 166.029 69.508
1.56 166.803 70.696
1.57 167.388 71.286
1.58 168.818 71.395
1.59 169.429 71.062
1.60 167.653 70.133
1.61 166.907 68.426
1.62 177.275 65.369
1.63 196.287 61.559
1.64 197.951 59.796
1.65 197.029 59.055
1.66 199.262 58.164
1.67 204.228 57.835
1.68 202.645 57.525
1.69 199.864 56.987
1.70 199.683 56.390
1.71 198.618 55.772
1.72 195.522 55.490
1.73 194.123 55.221
1.74 192.398 54.395
1.75 188.989 52.786
1.76 188.864 50.504
1.77 --undefined-- 51.154
1.78 208.180 57.712
1.79 212.983 63.765
1.80 215.363 67.603
1.81 212.522 69.864
1.82 201.837 70.997
1.83 198.277 70.718
1.84 --undefined-- 69.322
1.85 --undefined-- 67.644
1.86 --undefined-- 66.115
1.87 --undefined-- 65.416
1.88 --undefined-- 64.997
1.89 --undefined-- 64.461
1.90 --undefined-- 63.233
1.91 --undefined-- 60.623
1.92 --undefined-- 57.765
1.93 104.012 57.362
1.94 98.579 57.311
1.95 95.023 56.573
1.96 98.320 56.431
1.97 101.933 57.298
1.98 108.359 58.346
1.99 112.438 59.007
2.00 118.184 59.349
2.01 --undefined-- 60.057
2.02 159.133 61.440
2.03 157.349 62.649
2.04 156.611 63.687
2.05 159.841 65.650
2.06 162.029 69.052
2.07 164.066 71.825
2.08 165.253 72.759
2.09 166.026 72.169
2.10 165.337 70.975
2.11 163.834 69.835
2.12 163.219 68.535
2.13 162.751 67.018
2.14 162.872 64.540
2.15 164.161 60.983
2.16 --undefined-- 57.582
2.17 --undefined-- 55.230
2.18 --undefined-- 53.878
2.19 --undefined-- 52.628
2.20 --undefined-- 50.212
2.21 --undefined-- 46.210
2.22 --undefined-- 40.448
2.23 --undefined-- 33.009
2.24 --undefined-- 27.377
2.25 --undefined-- 26.017
2.26 --undefined-- 26.182
2.27 --undefined-- 26.495
2.28 --undefined-- 26.807
2.29 --undefined-- 27.300
2.30 --undefined-- 27.486
2.31 --undefined-- 30.138
2.32 --undefined-- 41.545
2.33 --undefined-- 49.388
2.34 --undefined-- 53.091
2.35 --undefined-- 53.664
2.36 --undefined-- 52.628
2.37 --undefined-- 51.617
2.38 --undefined-- 49.737
2.39 --undefined-- 46.518
2.40 --undefined-- 43.203
2.41 --undefined-- 39.934
2.42 --undefined-- 36.647
2.43 --undefined-- 33.521
2.44 --undefined-- 30.754
2.45 --undefined-- 28.278
2.46 --undefined-- 26.651
2.47 --undefined-- 26.297
2.48 --undefined-- 26.235
2.49 --undefined-- 25.645
2.50 --undefined-- 25.624
2.51 --undefined-- 26.271
2.52 --undefined-- 30.889
2.53 --undefined-- 46.364
2.54 --undefined-- 58.145
2.55 --undefined-- 65.423
2.56 190.656 69.103
2.57 187.606 70.187
2.58 187.175 70.048
2.59 187.670 69.835
2.60 195.717 69.671
2.61 206.912 69.429
2.62 218.212 69.603
2.63 229.168 70.210
2.64 234.512 70.263
2.65 240.786 69.759
2.66 239.315 69.054
2.67 234.966 67.914
2.68 232.620 66.112
2.69 226.919 64.307
2.70 221.364 63.340
2.71 216.754 62.575
2.72 214.919 61.858
2.73 209.845 61.676
2.74 206.976 61.804
2.75 205.169 61.916
2.76 202.602 61.844
2.77 199.555 61.375
2.78 186.738 60.771
2.79 183.470 60.527
2.80 180.382 60.628
2.81 175.295 62.084
2.82 174.634 64.751
2.83 173.784 67.149
2.84 168.718 68.720
2.85 163.580 69.247
2.86 158.196 68.755
2.87 155.628 67.796
2.88 76.941 66.711
2.89 76.528 65.070
2.90 75.900 63.200
2.91 75.227 61.802
2.92 74.799 61.100
2.93 74.749 60.671
2.94 74.880 60.330
2.95 75.788 60.022
2.96 156.296 59.972
2.97 157.554 60.504
2.98 159.078 61.036
2.99 156.426 60.760
3.00 149.638 58.630
3.01 --undefined-- 55.147
3.02 --undefined-- 57.247
3.03 --undefined-- 60.625
3.04 --undefined-- 61.837
3.05 163.065 65.793
3.06 165.264 70.007
3.07 164.676 71.985
3.08 159.017 72.279
3.09 156.377 72.048
3.10 154.406 71.909
3.11 154.554 71.649
3.12 158.686 71.195
3.13 163.541 70.558
3.14 163.863 69.767
3.15 162.897 69.372
3.16 160.581 69.790
3.17 159.830 70.644
3.18 159.744 70.964
3.19 160.057 70.363
3.20 160.508 69.295
3.21 160.471 68.136
3.22 161.082 66.452
3.23 162.949 63.918
3.24 168.983 60.727
3.25 169.757 57.146
3.26 --undefined-- 52.879
3.27 --undefined-- 48.676
3.28 --undefined-- 47.518
3.29 --undefined-- 49.220
3.30 101.681 52.130
3.31 98.853 54.184
3.32 99.146 54.278
3.33 --undefined-- 52.520
3.34 --undefined-- 50.961
3.35 --undefined-- 50.535
3.36 --undefined-- 50.241
3.37 --undefined-- 51.165
3.38 --undefined-- 53.689
3.39 --undefined-- 55.155
3.40 --undefined-- 56.466
3.41 --undefined-- 61.717
3.42 --undefined-- 66.820
3.43 --undefined-- 70.095
3.44 127.509 71.518
3.45 127.806 71.365
3.46 129.843 70.288
3.47 135.035 68.819
3.48 --undefined-- 67.977
3.49 --undefined-- 67.567
3.50 --undefined-- 66.617
3.51 --undefined-- 65.199
3.52 --undefined-- 63.623
3.53 177.477 63.518
3.54 177.906 64.848
3.55 177.726 65.895
3.56 178.627 65.568
3.57 183.497 64.135
3.58 184.616 62.275
3.59 185.309 59.820
3.60 187.367 56.427
3.61 191.414 52.431
3.62 --undefined-- 52.610
3.63 231.033 58.081
3.64 216.129 63.705
3.65 205.273 68.108
3.66 202.182 70.910
3.67 200.997 72.103
3.68 200.133 72.021
3.69 187.112 71.403
3.70 169.155 71.062
3.71 162.555 71.420
3.72 156.463 72.025
3.73 155.453 71.873
3.74 159.191 70.394
3.75 165.646 67.677
3.76 165.539 63.609
3.77 164.443 57.727
3.78 --undefined-- 51.713
3.79 --undefined-- 50.476
3.80 --undefined-- 51.387
3.81 --undefined-- 51.425
3.82 --undefined-- 50.651
3.83 --undefined-- 50.535
3.84 --undefined-- 51.916
3.85 --undefined-- 53.894
3.86 --undefined-- 56.242
3.87 --undefined-- 57.776
3.88 --undefined-- 59.086
3.89 188.590 63.687
3.90 185.208 67.260
3.91 179.667 68.672
3.92 163.426 68.693
3.93 157.560 67.733
3.94 156.241 65.909
3.95 156.465 63.872
3.96 158.362 62.948
3.97 161.386 62.946
3.98 161.910 62.561
3.99 162.486 61.765
4.00 160.394 61.372
4.01 157.451 61.681
4.02 157.084 62.244
4.03 155.333 62.678
4.04 154.205 62.790
4.05 156.099 62.447
4.06 156.562 61.887
4.07 157.195 61.544
4.08 159.223 61.635
4.09 161.770 63.929
4.10 158.585 68.448
4.11 157.662 71.449
4.12 157.282 72.273
4.13 156.646 71.620
4.14 154.644 70.353
4.15 154.004 69.475
4.16 154.976 69.343
4.17 156.547 69.209
4.18 156.827 68.750
4.19 156.813 68.244
4.20 158.041 67.635
4.21 159.557 67.130
4.22 161.024 67.155
4.23 162.855 67.216
4.24 163.419 66.629
4.25 163.605 65.355
4.26 166.581 63.892
4.27 172.677 63.196
4.28 177.725 63.747
4.29 182.128 64.708
4.30 187.563 65.103
4.31 192.836 65.585
4.32 194.178 66.897
4.33 195.053 68.004
4.34 197.947 68.686
4.35 199.713 69.185
4.36 199.559 69.256
4.37 199.757 68.820
4.38 199.926 68.133
4.39 201.181 67.465
4.40 204.685 67.124
4.41 206.402 66.578
4.42 209.793 65.246
4.43 215.900 63.608
4.44 222.460 62.435
4.45 246.919 61.132
4.46 254.786 58.352
4.47 233.702 53.356
4.48 --undefined-- 46.537
4.49 --undefined-- 38.513
4.50 --undefined-- 31.237
4.51 --undefined-- 29.139
4.52 --undefined-- 29.857
4.53 --undefined-- 32.509
4.54 --undefined-- 36.577
4.55 --undefined-- 41.796
4.56 --undefined-- 48.569
4.57 --undefined-- 54.204
4.58 --undefined-- 58.204
4.59 --undefined-- 61.084
4.60 --undefined-- 62.536
4.61 --undefined-- 61.569
4.62 --undefined-- 58.868
4.63 --undefined-- 60.383
4.64 162.713 65.872
4.65 160.508 69.565
4.66 159.004 71.001
4.67 158.201 71.101
4.68 155.817 70.903
4.69 154.494 70.565
4.70 156.683 69.832
4.71 160.430 69.096
4.72 164.057 68.719
4.73 165.670 67.466
4.74 165.495 64.169
4.75 164.044 59.661
4.76 156.249 58.671
4.77 165.006 59.198
4.78 165.615 59.246
4.79 166.708 62.589
4.80 181.392 67.602
4.81 167.272 70.184
4.82 165.059 70.479
4.83 165.245 69.613
4.84 165.084 67.481
4.85 160.081 63.168
4.86 160.805 57.041
4.87 --undefined-- 51.056
4.88 --undefined-- 46.100
4.89 --undefined-- 44.459
4.90 --undefined-- 44.837
4.91 --undefined-- 51.593
4.92 --undefined-- 60.036
4.93 236.143 65.136
4.94 226.461 66.601
4.95 197.329 64.853
4.96 179.358 60.809
4.97 174.865 56.441
4.98 172.263 52.706
4.99 --undefined-- 48.581
5.00 --undefined-- 45.101
5.01 --undefined-- 47.494
5.02 --undefined-- 55.594
5.03 --undefined-- 63.085
5.04 167.680 67.944
5.05 165.836 70.325
5.06 164.601 70.884
5.07 162.593 70.533
5.08 160.620 69.928
5.09 159.086 69.236
5.10 156.604 68.553
5.11 156.300 67.748
5.12 156.565 66.929
5.13 156.286 66.738
5.14 156.234 67.276
5.15 156.155 67.950
5.16 156.364 67.847
5.17 156.352 66.272
5.18 156.348 62.692
5.19 159.283 57.138
5.20 --undefined-- 51.301
5.21 --undefined-- 51.514
5.22 --undefined-- 53.264
5.23 --undefined-- 56.705
5.24 --undefined-- 62.415
5.25 --undefined-- 66.177
5.26 --undefined-- 67.908
5.27 156.720 68.783
5.28 149.107 69.570
5.29 146.200 69.814
5.30 146.622 69.187
5.31 148.371 67.263
5.32 146.950 63.708
5.33 145.761 59.610
5.34 156.596 58.734
5.35 161.305 59.923
5.36 165.291 61.269
5.37 166.675 62.324
5.38 171.734 62.555
5.39 182.872 62.125
5.40 192.441 62.691
5.41 200.979 65.953
5.42 205.020 69.104
5.43 209.534 70.689
5.44 210.799 70.984
5.45 210.865 70.359
5.46 212.593 68.904
5.47 216.475 66.848
5.48 220.916 64.181
5.49 227.837 60.867
5.50 229.170 56.737
5.51 --undefined-- 50.873
5.52 --undefined-- 43.197
5.53 --undefined-- 36.017
5.54 --undefined-- 31.291
5.55 --undefined-- 35.337
5.56 --undefined-- --undefined--
5.57 --undefined-- --undefined--
5.58 --undefined-- --undefined--
5.59 --undefined-- --undefined--
