Time Pitch Intensity
0.01 --undefined-- --undefined--
0.02 155.464 --undefined--
0.03 145.857 --undefined--
0.04 139.136 --undefined--
0.05 136.180 70.883
0.06 135.797 69.939
0.07 135.860 69.671
0.08 136.083 70.054
0.09 135.548 70.508
0.10 134.349 70.914
0.11 133.790 71.286
0.12 133.430 71.515
0.13 133.388 71.526
0.14 133.461 71.209
0.15 133.538 70.257
0.16 133.930 68.214
0.17 128.398 65.025
0.18 124.845 61.938
0.19 128.274 59.451
0.20 140.491 56.342
0.21 168.149 52.292
0.22 --undefined-- 47.510
0.23 --undefined-- 43.406
0.24 --undefined-- 41.869
0.25 --undefined-- 40.510
0.26 --undefined-- 38.145
0.27 --undefined-- 35.912
0.28 --undefined-- 34.317
0.29 --undefined-- 35.608
0.30 --undefined-- 46.951
0.31 --undefined-- 57.562
0.32 --undefined-- 64.916
0.33 --undefined-- 69.367
0.34 165.095 71.637
0.35 157.998 72.379
0.36 149.728 72.328
0.37 144.778 72.431
0.38 141.760 72.615
0.39 140.176 72.397
0.40 138.937 71.929
0.41 137.950 71.417
0.42 137.403 70.833
0.43 136.908 70.248
0.44 135.664 69.923
0.45 135.228 69.726
0.46 135.009 69.460
0.47 134.853 69.359
0.48 135.280 69.432
0.49 135.148 69.439
0.50 134.667 69.426
0.51 134.151 69.427
0.52 133.863 69.360
0.53 134.054 69.245
0.54 134.776 69.103
0.55 135.780 68.866
0.56 137.351 68.405
0.57 138.980 67.852
0.58 140.104 67.486
0.59 140.902 67.338
0.60 140.380 67.406
0.61 140.411 67.625
0.62 140.333 67.700
0.63 139.836 67.586
0.64 140.356 67.512
0.65 141.187 67.520
0.66 141.541 67.372
0.67 141.096 66.911
0.68 141.758 66.428
0.69 144.129 65.917
0.70 145.481 65.107
0.71 147.166 64.055
0.72 146.036 62.740
0.73 143.684 60.958
0.74 132.291 59.028
0.75 124.694 57.878
0.76 118.617 57.110
0.77 118.237 56.153
0.78 127.703 55.884
0.79 127.545 56.280
0.80 128.618 58.100
0.81 145.299 61.323
0.82 149.663 64.025
0.83 156.340 66.054
0.84 152.731 67.578
0.85 145.781 68.390
0.86 137.072 68.210
0.87 128.399 67.472
0.88 124.079 67.199
0.89 117.485 67.220
0.90 116.826 67.013
0.91 112.329 66.854
0.92 111.357 66.770
0.93 110.628 66.756
0.94 110.613 66.817
0.95 111.803 67.006
0.96 112.425 67.393
0.97 112.987 67.870
0.98 113.560 68.333
0.99 114.602 68.651
1.00 115.754 68.737
1.01 116.288 68.665
1.02 116.866 68.580
1.03 117.738 68.610
1.04 117.515 68.725
1.05 117.338 68.790
1.06 117.797 68.775
1.07 117.912 68.809
1.08 118.421 68.959
1.09 118.276 69.049
1.10 117.669 69.010
1.11 117.170 68.884
1.12 116.874 68.701
1.13 117.497 68.473
1.14 117.793 68.177
1.15 118.168 67.705
1.16 118.236 66.861
1.17 117.681 65.328
1.18 116.183 62.941
1.19 114.834 60.074
1.20 117.721 57.280
1.21 133.347 54.343
1.22 153.702 50.762
1.23 --undefined-- 46.109
1.24 --undefined-- 40.400
1.25 --undefined-- 36.860
1.26 --undefined-- 36.345
1.27 --undefined-- 37.382
1.28 --undefined-- 39.684
1.29 --undefined-- 44.712
1.30 --undefined-- 53.585
1.31 210.796 60.943
1.32 186.069 65.494
1.33 175.784 67.868
1.34 173.831 68.916
1.35 174.294 69.241
1.36 175.162 69.359
1.37 175.644 69.482
1.38 176.254 69.473
1.39 175.412 69.403
1.40 174.159 69.419
1.41 172.446 69.447
1.42 170.141 69.464
1.43 166.279 69.368
1.44 161.577 69.284
1.45 158.077 69.509
1.46 154.637 69.743
1.47 149.776 69.854
1.48 146.746 69.784
1.49 142.672 69.248
1.50 137.074 68.419
1.51 132.886 67.801
1.52 129.414 67.720
1.53 127.723 67.979
1.54 123.595 68.297
1.55 122.383 68.572
1.56 120.310 68.530
1.57 116.452 68.251
1.58 116.515 68.154
1.59 116.772 68.266
1.60 116.655 68.434
1.61 115.936 68.621
1.62 115.775 68.799
1.63 116.766 68.846
1.64 116.808 68.804
1.65 115.940 68.821
1.66 113.803 68.671
1.67 111.278 67.826
1.68 --undefined-- 65.952
1.69 --undefined-- 63.148
1.70 --undefined-- 59.693
1.71 --undefined-- 56.291
1.72 --undefined-- 54.348
1.73 --undefined-- 54.295
1.74 --undefined-- 55.271
1.75 88.576 57.536
1.76 93.733 59.764
1.77 99.860 61.451
1.78 104.673 63.025
1.79 107.643 64.420
1.80 110.277 65.232
1.81 110.329 65.572
1.82 110.297 65.845
1.83 109.950 66.117
1.84 108.992 66.180
1.85 107.993 65.878
1.86 107.514 65.420
1.87 106.550 65.179
1.88 106.224 65.097
1.89 105.733 65.033
1.90 105.804 65.019
1.91 105.739 64.954
1.92 105.048 64.800
1.93 104.931 64.744
1.94 105.031 64.692
1.95 105.352 64.568
1.96 105.729 64.308
1.97 102.205 63.107
1.98 98.205 60.466
1.99 100.013 57.082
2.00 119.011 53.744
2.01 --undefined-- 49.429
2.02 --undefined-- 43.964
2.03 --undefined-- 41.375
2.04 --undefined-- 40.695
2.05 --undefined-- 41.377
2.06 --undefined-- 44.637
2.07 --undefined-- 47.251
2.08 --undefined-- 50.083
2.09 --undefined-- 52.082
2.10 --undefined-- 52.243
2.11 --undefined-- 50.929
2.12 --undefined-- 49.539
2.13 --undefined-- 54.491
2.14 --undefined-- 60.719
2.15 122.921 63.919
2.16 116.043 64.650
2.17 109.201 64.124
2.18 106.155 63.386
2.19 103.130 62.563
2.20 103.932 61.578
2.21 103.195 60.881
2.22 102.891 60.674
2.23 103.270 60.476
2.24 105.992 60.376
2.25 108.581 60.446
2.26 110.563 60.112
2.27 111.912 58.974
2.28 113.113 57.013
2.29 121.013 54.254
2.30 --undefined-- 50.502
2.31 --undefined-- 45.941
2.32 --undefined-- 41.751
2.33 --undefined-- 40.518
2.34 --undefined-- 50.255
2.35 --undefined-- 59.406
2.36 --undefined-- 64.780
2.37 106.982 67.343
2.38 102.059 68.283
2.39 102.844 68.580
2.40 102.937 68.485
2.41 102.917 68.048
2.42 103.815 67.379
2.43 103.621 66.409
2.44 105.519 65.583
2.45 109.203 65.661
2.46 115.899 66.469
2.47 123.908 67.343
2.48 131.561 68.021
2.49 139.350 68.533
2.50 146.360 68.804
2.51 153.178 68.787
2.52 159.723 68.609
2.53 162.900 68.423
2.54 161.498 68.231
2.55 160.241 68.085
2.56 157.118 68.213
2.57 152.533 68.696
2.58 146.584 68.945
2.59 137.660 68.517
2.60 126.577 68.021
2.61 120.845 67.996
2.62 118.842 67.822
2.63 118.768 67.881
2.64 122.077 68.910
2.65 126.335 69.695
2.66 129.161 69.885
2.67 134.603 69.832
2.68 141.722 69.623
2.69 147.856 69.110
2.70 157.556 68.292
2.71 160.968 66.975
2.72 160.525 64.369
2.73 156.277 59.646
2.74 --undefined-- 52.432
2.75 --undefined-- 45.478
2.76 --undefined-- 45.524
2.77 --undefined-- 46.942
2.78 --undefined-- 50.073
2.79 --undefined-- 57.795
2.80 --undefined-- 63.824
2.81 --undefined-- 66.834
2.82 --undefined-- 67.550
2.83 --undefined-- 66.641
2.84 --undefined-- 64.223
2.85 --undefined-- 60.179
2.86 --undefined-- 55.179
2.87 --undefined-- 50.796
2.88 --undefined-- 47.330
2.89 --undefined-- 43.731
2.90 --undefined-- 40.470
2.91 --undefined-- 41.045
2.92 --undefined-- 46.940
2.93 --undefined-- 50.482
2.94 --undefined-- 54.444
2.95 --undefined-- 60.981
2.96 --undefined-- 65.598
2.97 --undefined-- 67.913
2.98 --undefined-- 68.712
2.99 --undefined-- 68.956
3.00 97.212 68.665
3.01 84.314 67.362
3.02 74.690 65.255
3.03 74.512 62.715
3.04 --undefined-- 59.717
3.05 --undefined-- 56.549
3.06 --undefined-- 53.329
3.07 --undefined-- 49.431
3.08 --undefined-- 44.954
3.09 --undefined-- 40.869
3.10 --undefined-- 39.455
3.11 --undefined-- 40.588
3.12 --undefined-- 41.469
3.13 --undefined-- 41.921
3.14 --undefined-- 42.348
3.15 --undefined-- 42.485
3.16 --undefined-- 42.577
3.17 --undefined-- 42.603
3.18 --undefined-- 42.016
3.19 --undefined-- 41.061
3.20 --undefined-- 39.666
3.21 --undefined-- 37.705
3.22 --undefined-- 36.730
3.23 --undefined-- 37.197
3.24 --undefined-- 37.370
3.25 --undefined-- 36.809
3.26 --undefined-- 35.392
3.27 --undefined-- 33.482
3.28 --undefined-- 33.559
3.29 --undefined-- 35.489
3.30 --undefined-- 37.142
3.31 --undefined-- 42.461
3.32 --undefined-- 53.979
3.33 --undefined-- 61.573
3.34 285.289 65.794
3.35 237.948 68.137
3.36 251.400 69.645
3.37 252.970 70.587
3.38 258.895 70.943
3.39 263.184 71.084
3.40 265.768 71.305
3.41 267.746 71.338
3.42 269.834 70.892
3.43 271.741 69.984
3.44 272.547 68.895
3.45 270.844 68.381
3.46 265.637 69.059
3.47 259.503 69.961
3.48 252.863 70.125
3.49 244.570 70.321
3.50 236.519 71.037
3.51 227.791 71.111
3.52 213.328 70.673
3.53 199.713 70.761
3.54 184.364 70.703
3.55 178.475 69.059
3.56 --undefined-- 65.146
3.57 --undefined-- 59.913
3.58 --undefined-- 55.793
3.59 --undefined-- 51.317
3.60 --undefined-- 45.581
3.61 --undefined-- 42.361
3.62 --undefined-- 41.029
3.63 --undefined-- 39.796
3.64 --undefined-- 39.372
3.65 --undefined-- 46.189
3.66 --undefined-- 55.650
3.67 --undefined-- 63.312
3.68 --undefined-- 67.946
3.69 --undefined-- 70.006
3.70 --undefined-- 70.913
3.71 --undefined-- 71.409
3.72 --undefined-- 71.307
3.73 --undefined-- 70.401
3.74 --undefined-- 68.500
3.75 --undefined-- 65.875
3.76 --undefined-- 63.549
3.77 --undefined-- 61.439
3.78 --undefined-- 59.552
3.79 --undefined-- 59.489
3.80 --undefined-- 60.489
3.81 --undefined-- 62.156
3.82 --undefined-- 64.188
3.83 121.274 65.865
3.84 123.588 66.922
3.85 125.992 67.577
3.86 126.712 68.028
3.87 126.082 68.318
3.88 123.839 68.437
3.89 120.918 68.327
3.90 117.270 67.797
3.91 113.634 67.122
3.92 111.878 66.749
3.93 111.405 66.332
3.94 114.968 65.420
3.95 118.102 63.416
3.96 119.806 59.669
3.97 --undefined-- 54.067
3.98 --undefined-- 47.595
3.99 --undefined-- 44.779
4.00 --undefined-- 46.056
4.01 --undefined-- 47.252
4.02 --undefined-- 49.326
4.03 --undefined-- 57.257
4.04 228.157 63.511
4.05 213.783 66.762
4.06 210.335 67.939
4.07 208.284 68.303
4.08 206.647 68.641
4.09 204.523 69.029
4.10 202.563 69.351
4.11 201.506 69.497
4.12 201.826 69.512
4.13 202.736 69.544
4.14 202.502 69.585
4.15 202.269 69.578
4.16 201.520 69.509
4.17 200.108 69.424
4.18 199.379 69.319
4.19 197.809 69.088
4.20 196.364 68.756
4.21 194.907 68.404
4.22 194.175 68.291
4.23 191.551 68.708
4.24 187.920 69.494
4.25 183.609 70.078
4.26 178.277 69.975
4.27 173.134 69.274
4.28 169.578 68.781
4.29 166.751 68.598
4.30 162.244 68.347
4.31 157.040 68.780
4.32 151.404 70.050
4.33 146.722 70.682
4.34 140.787 70.016
4.35 140.406 68.781
4.36 141.465 67.929
4.37 146.191 67.407
4.38 148.606 66.827
4.39 149.056 66.303
4.40 149.781 66.430
4.41 152.229 67.173
4.42 154.906 68.058
4.43 155.990 68.800
4.44 151.627 69.286
4.45 140.207 69.395
4.46 129.691 69.104
4.47 125.825 68.901
4.48 124.381 68.913
4.49 122.902 68.143
4.50 121.493 65.715
4.51 123.485 61.980
4.52 131.392 58.465
4.53 136.047 54.814
4.54 --undefined-- 49.369
4.55 --undefined-- 42.774
4.56 --undefined-- 40.277
4.57 --undefined-- 42.579
4.58 --undefined-- 45.913
4.59 --undefined-- 47.350
4.60 --undefined-- 49.719
4.61 --undefined-- 56.966
4.62 222.753 63.363
4.63 205.005 66.777
4.64 188.652 68.000
4.65 181.410 68.165
4.66 178.365 68.017
4.67 174.031 67.750
4.68 170.789 67.645
4.69 169.714 67.769
4.70 168.279 67.752
4.71 168.542 67.542
4.72 172.082 67.458
4.73 175.145 67.604
4.74 176.344 67.744
4.75 177.197 67.865
4.76 176.412 67.997
4.77 172.626 68.098
4.78 165.393 68.124
4.79 158.701 68.063
4.80 151.791 68.093
4.81 145.101 67.979
4.82 136.225 67.203
4.83 124.725 66.597
4.84 120.207 66.819
4.85 112.200 66.817
4.86 105.371 66.378
4.87 101.544 65.730
4.88 100.289 65.000
4.89 101.103 64.122
4.90 101.247 62.950
4.91 104.897 60.857
4.92 103.228 57.055
4.93 --undefined-- 51.174
4.94 --undefined-- 45.759
4.95 --undefined-- 43.880
4.96 --undefined-- 43.444
4.97 --undefined-- 42.676
4.98 --undefined-- 44.296
4.99 --undefined-- 53.266
5.00 --undefined-- 59.829
5.01 119.678 63.307
5.02 99.461 64.674
5.03 90.825 64.886
5.04 83.875 64.541
5.05 77.732 64.076
5.06 77.981 63.916
5.07 76.265 63.556
5.08 75.657 62.846
5.09 74.454 62.210
5.10 74.509 61.497
5.11 75.920 60.531
5.12 --undefined-- 59.272
5.13 --undefined-- 57.675
5.14 74.483 56.084
5.15 77.533 55.914
5.16 84.186 56.829
5.17 88.172 57.365
5.18 91.433 57.730
5.19 93.056 58.505
5.20 95.419 59.714
5.21 99.064 60.668
5.22 96.977 60.841
5.23 88.733 60.543
5.24 86.257 60.376
5.25 85.203 60.333
5.26 84.140 60.228
5.27 81.219 60.318
5.28 79.552 60.510
5.29 79.543 60.810
5.30 79.647 60.993
5.31 77.571 60.491
5.32 82.736 59.738
5.33 87.203 59.248
5.34 87.557 59.019
5.35 91.084 59.116
5.36 91.554 59.376
5.37 94.145 59.777
5.38 96.841 60.371
5.39 97.702 60.992
5.40 95.248 60.917
5.41 95.204 59.882
5.42 94.632 58.172
5.43 95.396 56.161
5.44 112.297 55.238
5.45 100.465 56.389
5.46 109.806 59.060
5.47 103.869 61.609
5.48 99.319 62.814
5.49 95.495 62.726
5.50 91.398 62.091
5.51 88.390 --undefined--
5.52 89.333 --undefined--
5.53 --undefined-- --undefined--
5.54 --undefined-- --undefined--
