Time Pitch Intensity
0.01 --undefined-- --undefined--
0.02 213.245 --undefined--
0.03 215.132 --undefined--
0.04 208.482 --undefined--
0.05 199.694 66.559
0.06 194.177 68.612
0.07 190.928 70.350
0.08 187.786 71.501
0.09 184.517 72.193
0.10 181.928 72.592
0.11 179.908 72.761
0.12 178.133 72.937
0.13 178.102 73.168
0.14 176.964 73.202
0.15 174.368 72.963
0.16 173.556 72.205
0.17 172.846 70.881
0.18 171.634 69.991
0.19 169.384 69.943
0.20 170.282 69.326
0.21 --undefined-- 67.321
0.22 --undefined-- 63.951
0.23 --undefined-- 59.661
0.24 263.980 56.082
0.25 263.500 53.380
0.26 262.285 51.588
0.27 261.890 49.826
0.28 --undefined-- 47.347
0.29 --undefined-- 46.567
0.30 --undefined-- 48.820
0.31 --undefined-- 49.314
0.32 --undefined-- 48.214
0.33 --undefined-- 49.492
0.34 --undefined-- 52.519
0.35 --undefined-- 53.809
0.36 --undefined-- 52.881
0.37 --undefined-- 49.812
0.38 --undefined-- 45.809
0.39 --undefined-- 45.979
0.40 --undefined-- 47.413
0.41 --undefined-- 47.312
0.42 --undefined-- 46.526
0.43 --undefined-- 47.601
0.44 --undefined-- 49.880
0.45 --undefined-- 49.499
0.46 --undefined-- 48.148
0.47 --undefined-- 49.827
0.48 --undefined-- 51.381
0.49 --undefined-- 54.047
0.50 --undefined-- 56.440
0.51 --undefined-- 56.685
0.52 --undefined-- 54.553
0.53 --undefined-- 50.421
0.54 --undefined-- 47.473
0.55 --undefined-- 47.605
0.56 --undefined-- 50.458
0.57 --undefined-- 54.220
0.58 --undefined-- 56.301
0.59 --undefined-- 55.921
0.60 --undefined-- 53.546
0.61 --undefined-- 51.348
0.62 --undefined-- 50.910
0.63 --undefined-- 50.416
0.64 --undefined-- 50.550
0.65 --undefined-- 51.690
0.66 --undefined-- 51.076
0.67 --undefined-- 48.842
0.68 --undefined-- 47.780
0.69 --undefined-- 47.638
0.70 --undefined-- 48.165
0.71 --undefined-- 49.403
0.72 --undefined-- 49.826
0.73 --undefined-- 48.114
0.74 --undefined-- 45.558
0.75 --undefined-- 45.976
0.76 --undefined-- 47.116
0.77 --undefined-- 47.184
0.78 --undefined-- 51.581
0.79 163.734 59.505
0.80 161.155 64.942
0.81 161.367 67.793
0.82 165.951 68.621
0.83 174.800 68.164
0.84 184.122 68.235
0.85 187.083 69.748
0.86 191.711 70.834
0.87 193.464 70.929
0.88 191.349 70.666
0.89 188.904 70.413
0.90 186.565 70.483
0.91 176.995 71.234
0.92 167.593 71.815
0.93 158.786 71.495
0.94 151.388 70.621
0.95 288.378 69.679
0.96 277.687 68.808
0.97 270.055 67.955
0.98 265.350 67.135
0.99 259.992 66.408
1.00 251.497 66.252
1.01 249.791 66.658
1.02 249.188 67.059
1.03 247.970 67.061
1.04 246.685 66.781
1.05 246.633 66.412
1.06 245.144 66.001
1.07 241.928 65.712
1.08 240.422 65.894
1.09 240.307 66.888
1.10 239.745 68.444
1.11 239.251 69.916
1.12 241.576 71.018
1.13 243.881 71.768
1.14 243.919 72.158
1.15 243.353 72.307
1.16 244.057 72.391
1.17 244.563 72.167
1.18 244.299 71.420
1.19 243.817 70.345
1.20 243.541 69.286
1.21 244.125 68.615
1.22 245.583 68.525
1.23 246.646 68.743
1.24 247.542 68.826
1.25 248.686 68.715
1.26 249.561 68.709
1.27 250.149 69.064
1.28 250.772 69.683
1.29 251.746 70.404
1.30 252.172 71.006
1.31 251.670 71.259
1.32 250.849 71.100
1.33 250.155 70.476
1.34 248.210 69.167
1.35 245.215 66.697
1.36 241.088 62.350
1.37 247.758 55.818
1.38 249.319 50.323
1.39 --undefined-- 49.659
1.40 --undefined-- 49.848
1.41 --undefined-- 50.895
1.42 --undefined-- 53.131
1.43 206.098 55.896
1.44 191.636 57.389
1.45 187.678 57.559
1.46 187.967 57.736
1.47 189.339 58.684
1.48 196.361 59.926
1.49 195.243 61.751
1.50 185.461 64.292
1.51 180.719 66.200
1.52 176.268 67.202
1.53 175.001 67.500
1.54 174.943 67.352
1.55 175.576 67.289
1.56 176.588 67.687
1.57 177.855 68.341
1.58 178.836 68.794
1.59 180.022 68.653
1.60 181.574 67.798
1.61 185.177 66.751
1.62 190.597 66.224
1.63 193.237 65.796
1.64 195.468 64.595
1.65 195.594 62.860
1.66 196.945 61.422
1.67 204.773 60.479
1.68 222.305 61.534
1.69 242.353 64.966
1.70 253.349 68.095
1.71 261.606 70.056
1.72 270.085 70.893
1.73 277.774 71.253
1.74 285.509 71.556
1.75 295.014 71.467
1.76 151.811 70.912
1.77 156.397 70.094
1.78 159.017 69.495
1.79 161.539 68.932
1.80 164.272 67.860
1.81 164.895 66.568
1.82 160.395 66.496
1.83 159.917 67.209
1.84 158.900 67.081
1.85 155.141 65.421
1.86 148.902 61.912
1.87 150.307 56.698
1.88 158.647 51.871
1.89 --undefined-- 50.261
1.90 --undefined-- 49.869
1.91 --undefined-- 50.062
1.92 --undefined-- 50.632
1.93 --undefined-- 49.616
1.94 --undefined-- 50.335
1.95 --undefined-- 56.848
1.96 159.604 61.840
1.97 159.961 64.440
1.98 160.335 65.599
1.99 160.451 66.166
2.00 161.312 66.515
2.01 162.442 66.764
2.02 162.297 66.945
2.03 162.501 66.957
2.04 162.939 66.864
2.05 163.362 66.893
2.06 163.709 67.113
2.07 163.858 67.424
2.08 163.619 67.779
2.09 161.235 68.675
2.10 158.669 70.002
2.11 156.684 70.862
2.12 154.859 71.252
2.13 152.393 71.534
2.14 298.766 71.652
2.15 290.695 71.077
2.16 276.571 69.474
2.17 257.764 67.702
2.18 239.849 67.629
2.19 231.869 68.707
2.20 225.335 69.340
2.21 220.234 69.069
2.22 213.589 68.212
2.23 208.747 67.397
2.24 205.207 66.618
2.25 203.367 65.776
2.26 201.474 65.258
2.27 198.464 64.773
2.28 194.093 64.069
2.29 191.906 63.645
2.30 191.371 63.470
2.31 191.341 63.019
2.32 186.909 62.067
2.33 180.690 60.541
2.34 --undefined-- 59.332
2.35 92.922 59.728
2.36 --undefined-- 60.148
2.37 --undefined-- 60.209
2.38 96.807 61.260
2.39 96.453 61.772
2.40 95.076 61.030
2.41 --undefined-- 62.043
2.42 198.411 65.089
2.43 198.893 67.282
2.44 200.020 67.984
2.45 201.088 67.286
2.46 201.288 65.038
2.47 189.362 60.875
2.48 186.053 55.636
2.49 188.108 51.940
2.50 --undefined-- 50.988
2.51 --undefined-- 51.503
2.52 --undefined-- 52.884
2.53 --undefined-- 54.531
2.54 --undefined-- 54.951
2.55 --undefined-- 53.620
2.56 --undefined-- 52.089
2.57 --undefined-- 52.420
2.58 --undefined-- 52.215
2.59 --undefined-- 50.093
2.60 --undefined-- 46.806
2.61 --undefined-- 45.755
2.62 --undefined-- 46.388
2.63 --undefined-- 52.585
2.64 --undefined-- 61.692
2.65 280.257 67.846
2.66 275.407 70.936
2.67 268.414 71.880
2.68 266.496 72.108
2.69 267.866 72.320
2.70 271.050 72.117
2.71 276.909 71.116
2.72 282.784 69.614
2.73 284.396 68.575
2.74 285.905 67.975
2.75 288.114 67.355
2.76 289.335 66.814
2.77 290.482 66.379
2.78 290.499 65.719
2.79 285.446 64.164
2.80 277.247 60.988
2.81 275.913 56.164
2.82 --undefined-- 51.937
2.83 --undefined-- 49.302
2.84 --undefined-- 46.699
2.85 --undefined-- 44.507
2.86 --undefined-- 44.913
2.87 --undefined-- 45.847
2.88 --undefined-- 51.354
2.89 245.192 58.057
2.90 225.839 61.842
2.91 214.066 63.296
2.92 202.838 63.644
2.93 196.538 63.940
2.94 191.625 64.428
2.95 188.696 64.754
2.96 187.156 64.930
2.97 185.811 64.919
2.98 184.173 64.163
2.99 181.694 62.039
3.00 171.957 58.445
3.01 165.561 55.936
3.02 192.142 58.721
3.03 191.218 62.161
3.04 189.692 64.209
3.05 187.819 65.192
3.06 186.410 65.656
3.07 186.400 65.969
3.08 186.738 66.167
3.09 186.965 66.315
3.10 187.250 66.351
3.11 187.674 66.289
3.12 188.417 66.359
3.13 189.575 66.537
3.14 190.488 66.510
3.15 190.956 66.135
3.16 191.562 65.677
3.17 192.361 65.271
3.18 192.807 64.810
3.19 193.957 64.030
3.20 194.279 62.289
3.21 192.595 59.394
3.22 191.971 57.269
3.23 --undefined-- 56.494
3.24 --undefined-- 55.942
3.25 --undefined-- 55.981
3.26 203.399 56.497
3.27 192.435 57.294
3.28 190.604 57.914
3.29 192.746 58.541
3.30 194.562 58.996
3.31 190.197 59.850
3.32 171.742 61.406
3.33 166.272 62.904
3.34 162.451 63.740
3.35 158.731 64.013
3.36 156.537 64.165
3.37 155.465 64.229
3.38 155.144 64.200
3.39 155.330 64.188
3.40 156.837 64.148
3.41 157.459 63.898
3.42 158.170 63.471
3.43 159.240 63.062
3.44 162.415 63.217
3.45 164.998 63.497
3.46 164.426 62.078
3.47 158.503 58.657
3.48 --undefined-- 55.817
3.49 --undefined-- 54.883
3.50 --undefined-- 53.845
3.51 --undefined-- 53.027
3.52 --undefined-- 52.863
3.53 --undefined-- 56.694
3.54 244.247 62.860
3.55 243.773 66.803
3.56 244.889 69.007
3.57 246.550 70.562
3.58 247.345 71.601
3.59 248.527 71.379
3.60 251.578 69.640
3.61 256.216 67.519
3.62 257.365 66.697
3.63 263.849 66.982
3.64 268.994 67.188
3.65 269.250 66.881
3.66 270.378 66.428
3.67 271.084 66.073
3.68 271.396 65.842
3.69 272.403 65.870
3.70 274.059 66.260
3.71 276.216 66.817
3.72 277.190 67.212
3.73 276.210 67.221
3.74 272.287 66.594
3.75 267.223 64.944
3.76 256.452 61.962
3.77 223.089 58.087
3.78 211.994 54.326
3.79 --undefined-- 51.404
3.80 --undefined-- 50.003
3.81 --undefined-- 49.657
3.82 --undefined-- 49.079
3.83 --undefined-- 48.867
3.84 --undefined-- 49.754
3.85 --undefined-- 51.052
3.86 188.717 53.023
3.87 180.634 54.375
3.88 168.124 54.752
3.89 150.831 54.947
3.90 147.726 55.475
3.91 146.490 56.456
3.92 148.323 57.941
3.93 153.149 60.239
3.94 158.964 63.028
3.95 161.594 65.066
3.96 162.350 65.837
3.97 161.719 65.598
3.98 161.288 64.921
3.99 161.020 64.125
4.00 160.695 63.319
4.01 161.958 62.641
4.02 165.765 61.713
4.03 169.785 60.878
4.04 176.764 61.216
4.05 181.275 62.260
4.06 187.706 63.156
4.07 193.813 63.608
4.08 200.704 63.761
4.09 207.527 63.717
4.10 212.945 63.775
4.11 218.230 64.148
4.12 222.667 64.739
4.13 228.160 65.316
4.14 232.056 65.705
4.15 234.857 65.894
4.16 237.171 65.885
4.17 239.507 65.683
4.18 242.198 65.297
4.19 245.009 65.066
4.20 246.321 65.640
4.21 246.832 67.264
4.22 247.431 69.021
4.23 246.914 70.239
4.24 246.128 70.841
4.25 245.929 70.913
4.26 247.502 70.571
4.27 248.622 69.892
4.28 249.549 69.058
4.29 249.163 68.552
4.30 248.742 68.152
4.31 249.746 67.296
4.32 251.783 66.309
4.33 253.421 65.730
4.34 253.684 65.421
4.35 253.022 65.027
4.36 251.656 64.530
4.37 250.159 64.062
4.38 247.455 63.616
4.39 243.566 63.149
4.40 238.700 62.827
4.41 234.117 62.709
4.42 228.092 62.622
4.43 220.316 62.225
4.44 209.320 62.002
4.45 198.834 62.964
4.46 191.332 64.473
4.47 183.313 65.875
4.48 178.596 67.387
4.49 175.450 68.731
4.50 174.019 69.218
4.51 172.445 68.723
4.52 171.931 67.934
4.53 172.058 67.332
4.54 170.957 66.654
4.55 170.014 66.107
4.56 169.473 65.744
4.57 168.759 65.612
4.58 169.516 65.825
4.59 170.098 65.920
4.60 170.666 65.341
4.61 171.929 64.056
4.62 173.327 63.153
4.63 171.643 63.074
4.64 167.867 62.592
4.65 161.709 61.322
4.66 157.666 60.166
4.67 156.867 59.675
4.68 156.257 59.599
4.69 157.408 60.085
4.70 162.116 61.832
4.71 168.926 64.110
4.72 169.425 65.346
4.73 165.602 65.666
4.74 163.428 65.765
4.75 161.490 65.496
4.76 160.531 64.779
4.77 160.925 64.008
4.78 160.981 63.433
4.79 160.048 63.133
4.80 159.678 63.163
4.81 159.685 63.328
4.82 159.997 63.378
4.83 160.094 63.002
4.84 160.172 62.620
4.85 160.768 62.715
4.86 160.253 62.957
4.87 158.072 62.982
4.88 154.767 62.447
4.89 153.040 61.439
4.90 153.349 60.630
4.91 154.559 60.178
4.92 155.873 59.583
4.93 155.320 59.024
4.94 156.008 59.407
4.95 158.782 60.580
4.96 162.545 62.054
4.97 165.116 63.785
4.98 166.599 65.303
4.99 162.122 66.304
5.00 160.801 67.319
5.01 159.755 68.164
5.02 158.445 68.595
5.03 157.214 68.584
5.04 156.909 68.053
5.05 156.344 67.077
5.06 156.431 65.920
5.07 156.451 64.767
5.08 155.715 --undefined--
5.09 155.779 --undefined--
5.10 --undefined-- --undefined--
5.11 --undefined-- --undefined--
