Time Pitch Intensity
0.01 --undefined-- --undefined--
0.02 115.757 --undefined--
0.03 115.779 --undefined--
0.04 113.183 --undefined--
0.05 --undefined-- 59.021
0.06 --undefined-- 62.421
0.07 --undefined-- 64.918
0.08 --undefined-- 66.486
0.09 --undefined-- 67.806
0.10 --undefined-- 68.923
0.11 119.933 69.562
0.12 115.540 69.613
0.13 111.764 68.906
0.14 106.742 67.285
0.15 106.785 65.519
0.16 106.818 65.108
0.17 107.117 66.307
0.18 108.398 68.223
0.19 110.942 70.119
0.20 113.679 71.486
0.21 115.587 71.639
0.22 116.540 69.941
0.23 --undefined-- 65.535
0.24 --undefined-- 57.287
0.25 --undefined-- 45.292
0.26 --undefined-- 47.243
0.27 --undefined-- 57.438
0.28 --undefined-- 63.500
0.29 --undefined-- 67.030
0.30 --undefined-- 70.505
0.31 --undefined-- 73.318
0.32 113.789 74.154
0.33 111.208 73.050
0.34 109.650 70.509
0.35 --undefined-- 66.356
0.36 --undefined-- 59.836
0.37 --undefined-- 50.228
0.38 --undefined-- 39.874
0.39 --undefined-- 36.018
0.40 --undefined-- 35.856
0.41 --undefined-- 37.113
0.42 --undefined-- 40.051
0.43 --undefined-- 49.158
0.44 --undefined-- 58.407
0.45 --undefined-- 64.563
0.46 --undefined-- 67.608
0.47 --undefined-- 68.433
0.48 102.954 67.805
0.49 96.989 65.928
0.50 95.159 63.241
0.51 95.109 60.687
0.52 91.991 57.964
0.53 --undefined-- 54.806
0.54 --undefined-- 50.829
0.55 --undefined-- 44.919
0.56 --undefined-- 39.685
0.57 --undefined-- 42.536
0.58 --undefined-- 47.542
0.59 --undefined-- 50.463
0.60 --undefined-- 51.101
0.61 92.136 51.380
0.62 92.688 52.236
0.63 92.638 53.246
0.64 91.414 55.311
0.65 90.927 59.654
0.66 91.124 65.065
0.67 91.272 69.155
0.68 91.338 70.904
0.69 91.912 70.824
0.70 91.355 70.091
0.71 91.036 69.632
0.72 91.310 69.370
0.73 92.140 69.078
0.74 93.553 69.001
0.75 96.030 69.281
0.76 97.484 69.673
0.77 101.344 69.825
0.78 104.760 69.410
0.79 109.044 68.795
0.80 114.405 68.902
0.81 114.729 68.862
0.82 --undefined-- 66.985
0.83 --undefined-- 62.204
0.84 --undefined-- 54.133
0.85 --undefined-- 48.334
0.86 --undefined-- 50.776
0.87 --undefined-- 53.489
0.88 --undefined-- 55.982
0.89 --undefined-- 62.354
0.90 --undefined-- 68.878
0.91 108.006 72.112
0.92 106.579 72.610
0.93 104.368 71.637
0.94 102.515 70.381
0.95 100.909 69.298
0.96 99.993 68.180
0.97 99.463 66.666
0.98 99.699 64.115
0.99 101.542 59.685
1.00 103.705 54.599
1.01 105.521 53.556
1.02 108.667 54.386
1.03 112.456 55.527
1.04 112.165 56.588
1.05 111.432 57.272
1.06 109.144 58.931
1.07 --undefined-- 62.777
1.08 --undefined-- 65.464
1.09 100.505 65.395
1.10 97.056 62.644
1.11 97.470 58.047
1.12 96.044 54.547
1.13 94.488 53.653
1.14 94.810 53.378
1.15 97.398 52.781
1.16 97.315 51.774
1.17 93.988 50.380
1.18 --undefined-- 48.011
1.19 --undefined-- 44.346
1.20 --undefined-- 40.010
1.21 --undefined-- 36.993
1.22 --undefined-- 37.686
1.23 --undefined-- 41.311
1.24 --undefined-- 45.768
1.25 --undefined-- 50.798
1.26 --undefined-- 55.598
1.27 --undefined-- 59.335
1.28 --undefined-- 62.003
1.29 --undefined-- 64.392
1.30 --undefined-- 66.313
1.31 --undefined-- 67.357
1.32 109.990 68.275
1.33 111.077 69.064
1.34 111.562 69.292
1.35 111.866 68.900
1.36 111.983 68.001
1.37 111.697 66.739
1.38 108.355 64.477
1.39 107.760 60.457
1.40 --undefined-- 54.529
1.41 --undefined-- 47.337
1.42 --undefined-- 41.790
1.43 --undefined-- 38.971
1.44 --undefined-- 39.547
1.45 --undefined-- 49.191
1.46 --undefined-- 60.054
1.47 --undefined-- 67.398
1.48 --undefined-- 71.090
1.49 --undefined-- 71.715
1.50 --undefined-- 70.592
1.51 --undefined-- 70.832
1.52 --undefined-- 72.326
1.53 123.091 72.916
1.54 117.135 72.403
1.55 112.437 70.928
1.56 108.856 68.848
1.57 108.781 66.335
1.58 109.172 63.389
1.59 108.789 60.729
1.60 108.326 59.352
1.61 108.974 59.077
1.62 109.399 59.136
1.63 108.673 58.792
1.64 108.134 58.160
1.65 107.874 57.661
1.66 107.668 58.016
1.67 107.610 61.390
1.68 107.847 65.859
1.69 107.644 68.870
1.70 107.887 70.286
1.71 107.590 70.536
1.72 106.898 70.408
1.73 106.825 70.537
1.74 107.762 70.888
1.75 108.470 70.967
1.76 108.628 70.133
1.77 107.944 67.954
1.78 --undefined-- 64.008
1.79 --undefined-- 57.670
1.80 --undefined-- 48.882
1.81 --undefined-- 46.926
1.82 --undefined-- 52.867
1.83 --undefined-- 59.227
1.84 --undefined-- 63.394
1.85 --undefined-- 65.257
1.86 --undefined-- 67.298
1.87 --undefined-- 70.284
1.88 --undefined-- 71.507
1.89 --undefined-- 70.989
1.90 94.435 70.259
1.91 91.118 69.785
1.92 88.105 68.848
1.93 87.195 67.528
1.94 85.640 66.149
1.95 85.433 64.588
1.96 85.290 62.704
1.97 84.842 60.563
1.98 85.246 58.305
1.99 87.589 56.809
2.00 88.204 57.347
2.01 88.805 60.118
2.02 88.682 64.241
2.03 90.212 67.737
2.04 90.014 69.780
2.05 86.907 70.652
2.06 86.969 70.496
2.07 85.651 69.619
2.08 85.909 68.666
2.09 85.280 68.045
2.10 86.016 68.165
2.11 86.526 68.142
2.12 86.595 66.190
2.13 --undefined-- 62.645
2.14 --undefined-- 59.393
2.15 --undefined-- 56.580
2.16 --undefined-- 53.470
2.17 --undefined-- 50.887
2.18 --undefined-- 52.467
2.19 --undefined-- 54.195
2.20 --undefined-- 54.082
2.21 --undefined-- 55.787
2.22 --undefined-- 61.591
2.23 --undefined-- 66.573
2.24 --undefined-- 68.493
2.25 97.211 67.881
2.26 98.106 66.219
2.27 97.607 64.507
2.28 97.280 63.040
2.29 94.971 61.788
2.30 94.789 61.002
2.31 95.534 60.769
2.32 95.636 60.572
2.33 94.896 60.526
2.34 94.214 60.906
2.35 94.721 61.737
2.36 92.590 62.395
2.37 91.868 62.960
2.38 --undefined-- 62.681
2.39 --undefined-- 60.957
2.40 --undefined-- 59.432
2.41 --undefined-- 59.342
2.42 --undefined-- 58.660
2.43 --undefined-- 56.357
2.44 --undefined-- 54.152
2.45 --undefined-- 56.182
2.46 --undefined-- 59.483
2.47 100.955 61.037
2.48 99.335 61.328
2.49 101.580 61.685
2.50 101.698 62.600
2.51 101.794 63.907
2.52 104.552 65.028
2.53 107.352 65.796
2.54 108.998 66.136
2.55 109.030 65.667
2.56 109.449 64.119
2.57 --undefined-- 61.429
2.58 --undefined-- 59.132
2.59 --undefined-- 59.952
2.60 --undefined-- 61.436
2.61 --undefined-- 61.846
2.62 --undefined-- 63.107
2.63 --undefined-- 68.800
2.64 --undefined-- 73.074
2.65 --undefined-- 74.466
2.66 --undefined-- 73.717
2.67 --undefined-- 71.977
2.68 --undefined-- 70.156
2.69 93.530 68.110
2.70 92.879 65.929
2.71 92.248 64.267
2.72 92.293 63.232
2.73 92.977 62.231
2.74 93.404 61.398
2.75 93.185 60.447
2.76 93.951 59.787
2.77 94.994 60.216
2.78 95.802 60.838
2.79 95.585 60.940
2.80 95.681 60.773
2.81 96.199 60.600
2.82 96.045 59.935
2.83 96.122 58.407
2.84 92.668 55.997
2.85 --undefined-- 53.645
2.86 --undefined-- 53.512
2.87 --undefined-- 54.327
2.88 --undefined-- 55.942
2.89 --undefined-- 57.764
2.90 --undefined-- 59.219
2.91 --undefined-- 65.037
2.92 --undefined-- 71.010
2.93 117.703 73.670
2.94 117.334 73.575
2.95 112.567 71.947
2.96 110.158 69.995
2.97 108.000 67.793
2.98 105.827 65.204
2.99 104.819 62.693
3.00 103.071 60.069
3.01 102.124 56.506
3.02 --undefined-- 51.584
3.03 --undefined-- 47.599
3.04 --undefined-- 46.770
3.05 --undefined-- 48.507
3.06 --undefined-- 53.075
3.07 108.643 57.725
3.08 106.165 61.453
3.09 100.256 63.646
3.10 97.985 64.178
3.11 96.746 63.564
3.12 92.535 62.530
3.13 92.424 61.594
3.14 91.236 60.546
3.15 --undefined-- 58.179
3.16 --undefined-- 53.591
3.17 --undefined-- 48.066
3.18 --undefined-- 56.351
3.19 --undefined-- 65.326
3.20 --undefined-- 70.232
3.21 --undefined-- 71.708
3.22 --undefined-- 70.466
3.23 --undefined-- 67.230
3.24 --undefined-- 64.153
3.25 --undefined-- 66.152
3.26 --undefined-- 67.823
3.27 --undefined-- 66.861
3.28 --undefined-- 64.357
3.29 --undefined-- 61.810
3.30 --undefined-- 58.245
3.31 --undefined-- 52.549
3.32 --undefined-- 48.280
3.33 --undefined-- 47.906
3.34 --undefined-- 48.934
3.35 --undefined-- 49.114
3.36 --undefined-- 47.901
3.37 --undefined-- 46.710
3.38 --undefined-- 45.637
3.39 --undefined-- 44.404
3.40 --undefined-- 43.662
3.41 --undefined-- 42.542
3.42 --undefined-- 47.120
3.43 --undefined-- 56.649
3.44 --undefined-- 63.628
3.45 --undefined-- 67.716
3.46 --undefined-- 68.926
3.47 --undefined-- 68.039
3.48 --undefined-- 68.440
3.49 100.165 69.971
3.50 91.769 70.093
3.51 91.482 69.328
3.52 89.789 68.853
3.53 90.051 68.608
3.54 90.777 68.299
3.55 91.810 67.737
3.56 93.014 66.231
3.57 94.144 63.027
3.58 97.024 57.865
3.59 100.168 52.481
3.60 98.440 49.873
3.61 97.594 49.586
3.62 --undefined-- 53.667
3.63 --undefined-- 58.138
3.64 --undefined-- 60.931
3.65 106.168 63.333
3.66 103.398 64.941
3.67 96.880 64.986
3.68 94.156 63.601
3.69 95.234 61.436
3.70 95.193 59.291
3.71 94.405 57.356
3.72 89.948 55.475
3.73 90.707 54.563
3.74 87.124 57.558
3.75 --undefined-- 62.575
3.76 96.153 66.139
3.77 95.773 68.020
3.78 95.262 68.931
3.79 94.387 69.126
3.80 93.499 67.965
3.81 --undefined-- 64.659
3.82 --undefined-- 59.464
3.83 --undefined-- 56.389
3.84 --undefined-- 56.491
3.85 --undefined-- 57.103
3.86 --undefined-- 58.016
3.87 --undefined-- 59.109
3.88 --undefined-- 60.152
3.89 --undefined-- 60.365
3.90 --undefined-- 59.327
3.91 --undefined-- 58.355
3.92 --undefined-- 61.827
3.93 --undefined-- 66.293
3.94 102.157 68.368
3.95 102.353 68.807
3.96 100.528 68.657
3.97 98.706 67.966
3.98 96.677 66.776
3.99 95.242 65.520
4.00 93.733 63.848
4.01 91.492 60.886
4.02 --undefined-- 55.892
4.03 --undefined-- 48.633
4.04 --undefined-- 41.652
4.05 --undefined-- 40.306
4.06 --undefined-- 47.898
4.07 --undefined-- 52.947
4.08 --undefined-- 55.407
4.09 --undefined-- 59.589
4.10 89.604 63.711
4.11 89.080 65.975
4.12 88.928 66.836
4.13 91.740 66.604
4.14 91.211 65.722
4.15 87.908 64.383
4.16 87.165 62.332
4.17 85.472 59.739
4.18 84.275 56.903
4.19 85.346 55.115
4.20 --undefined-- 53.713
4.21 --undefined-- 53.672
4.22 --undefined-- 60.893
4.23 --undefined-- 66.812
4.24 --undefined-- 69.074
4.25 --undefined-- 67.807
4.26 --undefined-- 64.650
4.27 --undefined-- 65.117
4.28 82.905 66.839
4.29 83.198 67.744
4.30 85.839 68.065
4.31 86.289 67.836
4.32 --undefined-- 66.800
4.33 --undefined-- 64.764
4.34 --undefined-- 62.091
4.35 --undefined-- 58.064
4.36 --undefined-- 52.619
4.37 --undefined-- 48.393
4.38 --undefined-- 45.953
4.39 --undefined-- 45.710
4.40 --undefined-- 52.039
4.41 --undefined-- 57.847
4.42 --undefined-- 61.063
4.43 --undefined-- 63.661
4.44 --undefined-- 67.986
4.45 --undefined-- 70.498
4.46 --undefined-- 69.674
4.47 --undefined-- 66.989
4.48 --undefined-- 63.908
4.49 --undefined-- 58.026
4.50 --undefined-- 47.222
4.51 --undefined-- 36.528
4.52 --undefined-- 36.983
4.53 --undefined-- 38.229
4.54 --undefined-- 39.382
4.55 --undefined-- 40.880
4.56 --undefined-- 41.143
4.57 --undefined-- 39.412
4.58 --undefined-- 37.391
4.59 --undefined-- 41.830
4.60 --undefined-- 51.150
4.61 --undefined-- 59.887
4.62 --undefined-- 66.128
4.63 --undefined-- 69.833
4.64 --undefined-- 71.595
4.65 --undefined-- 72.083
4.66 --undefined-- 71.733
4.67 --undefined-- 70.581
4.68 --undefined-- 69.432
4.69 --undefined-- 69.064
4.70 --undefined-- 68.446
4.71 --undefined-- 66.508
4.72 --undefined-- 62.971
4.73 --undefined-- 58.497
4.74 --undefined-- 54.518
4.75 --undefined-- 51.207
4.76 --undefined-- 48.120
4.77 --undefined-- 46.029
4.78 --undefined-- 44.912
4.79 --undefined-- 43.646
4.80 --undefined-- 42.860
4.81 --undefined-- 41.249
4.82 --undefined-- 38.179
4.83 --undefined-- 37.639
4.84 --undefined-- 40.086
4.85 --undefined-- 43.012
4.86 --undefined-- 43.953
4.87 --undefined-- 42.273
4.88 --undefined-- 38.653
4.89 --undefined-- 37.069
4.90 --undefined-- 41.261
4.91 --undefined-- 45.005
4.92 --undefined-- 46.635
4.93 --undefined-- 47.172
4.94 --undefined-- 47.446
4.95 --undefined-- 47.292
4.96 --undefined-- 47.135
4.97 --undefined-- 47.324
4.98 --undefined-- 47.062
4.99 --undefined-- 46.244
5.00 --undefined-- 46.124
5.01 --undefined-- 46.078
5.02 --undefined-- 45.807
5.03 --undefined-- 46.036
5.04 --undefined-- 46.310
5.05 --undefined-- 46.286
5.06 --undefined-- 46.102
5.07 --undefined-- 46.130
5.08 --undefined-- 52.511
5.09 --undefined-- 61.442
5.10 --undefined-- 66.585
5.11 --undefined-- 69.603
5.12 102.282 71.864
5.13 102.092 72.039
5.14 97.850 69.514
5.15 --undefined-- 64.845
5.16 --undefined-- 58.649
5.17 --undefined-- 51.325
5.18 --undefined-- 44.433
5.19 --undefined-- 46.318
5.20 --undefined-- 50.340
5.21 103.703 52.562
5.22 100.602 53.632
5.23 100.329 54.150
5.24 99.782 54.294
5.25 98.923 53.603
5.26 95.438 52.098
5.27 --undefined-- 53.595
5.28 --undefined-- 59.609
5.29 --undefined-- 65.249
5.30 --undefined-- 68.272
5.31 --undefined-- 69.237
5.32 --undefined-- 70.477
5.33 123.730 72.464
5.34 116.315 73.643
5.35 114.960 73.687
5.36 115.703 73.342
5.37 114.931 73.235
5.38 118.856 72.653
5.39 119.403 70.659
5.40 --undefined-- 66.433
5.41 --undefined-- 59.052
5.42 --undefined-- 48.399
5.43 --undefined-- --undefined--
5.44 --undefined-- --undefined--
5.45 --undefined-- --undefined--
5.46 --undefined-- --undefined--
