Time Pitch Intensity
0.01 --undefined-- --undefined--
0.02 159.533 --undefined--
0.03 157.690 --undefined--
0.04 159.236 --undefined--
0.05 160.337 71.604
0.06 160.312 71.243
0.07 157.834 70.092
0.08 154.598 68.776
0.09 150.690 67.856
0.10 146.830 67.500
0.11 140.766 67.317
0.12 --undefined-- 65.890
0.13 --undefined-- 62.007
0.14 --undefined-- 55.748
0.15 --undefined-- 50.984
0.16 --undefined-- 52.098
0.17 --undefined-- 52.193
0.18 --undefined-- 52.203
0.19 --undefined-- 55.798
0.20 --undefined-- 60.653
0.21 --undefined-- 63.521
0.22 --undefined-- 63.563
0.23 --undefined-- 61.460
0.24 --undefined-- 58.609
0.25 --undefined-- 56.769
0.26 --undefined-- 57.553
0.27 --undefined-- 61.718
0.28 --undefined-- 66.796
0.29 150.328 70.281
0.30 150.972 71.750
0.31 155.278 71.166
0.32 167.004 69.376
0.33 174.454 68.355
0.34 178.011 68.664
0.35 179.202 69.345
0.36 178.549 69.569
0.37 177.230 68.658
0.38 174.949 65.928
0.39 167.432 61.624
0.40 163.458 59.417
0.41 158.914 60.249
0.42 152.816 61.848
0.43 143.785 64.778
0.44 --undefined-- 68.266
0.45 124.864 70.520
0.46 121.996 70.906
0.47 118.308 69.469
0.48 116.141 66.809
0.49 114.004 64.511
0.50 108.100 63.827
0.51 108.424 62.665
0.52 --undefined-- 59.373
0.53 --undefined-- 53.787
0.54 --undefined-- 48.268
0.55 --undefined-- 49.133
0.56 --undefined-- 58.621
0.57 --undefined-- 66.155
0.58 --undefined-- 69.786
0.59 160.620 70.140
0.60 158.549 68.593
0.61 163.560 67.820
0.62 162.637 68.306
0.63 160.509 68.278
0.64 160.438 67.069
0.65 159.270 65.353
0.66 156.076 64.445
0.67 154.475 64.280
0.68 141.183 63.801
0.69 134.766 62.558
0.70 134.760 60.450
0.71 --undefined-- 57.165
0.72 --undefined-- 53.612
0.73 --undefined-- 51.877
0.74 --undefined-- 51.361
0.75 --undefined-- 51.967
0.76 --undefined-- 54.140
0.77 --undefined-- 55.390
0.78 --undefined-- 56.910
0.79 --undefined-- 59.921
0.80 98.817 61.022
0.81 97.204 59.411
0.82 94.459 56.370
0.83 94.021 55.038
0.84 94.827 54.636
0.85 --undefined-- 52.686
0.86 --undefined-- 50.211
0.87 --undefined-- 51.506
0.88 --undefined-- 54.255
0.89 --undefined-- 55.123
0.90 --undefined-- 53.350
0.91 --undefined-- 49.045
0.92 --undefined-- 44.345
0.93 --undefined-- 44.457
0.94 --undefined-- 48.733
0.95 --undefined-- 52.574
0.96 --undefined-- 54.171
0.97 --undefined-- 54.164
0.98 --undefined-- 53.360
0.99 --undefined-- 51.558
1.00 --undefined-- 48.999
1.01 --undefined-- 49.443
1.02 --undefined-- 54.858
1.03 --undefined-- 59.270
1.04 --undefined-- 63.114
1.05 154.091 66.594
1.06 152.591 68.850
1.07 152.043 69.935
1.08 152.219 70.247
1.09 152.598 69.951
1.10 152.830 69.177
1.11 151.464 67.421
1.12 142.376 63.732
1.13 --undefined-- 58.286
1.14 --undefined-- 59.880
1.15 --undefined-- 63.385
1.16 --undefined-- 65.174
1.17 282.243 67.890
1.18 280.720 69.899
1.19 281.957 70.824
1.20 --undefined-- 71.017
1.21 --undefined-- 69.770
1.22 --undefined-- 68.077
1.23 --undefined-- 67.472
1.24 --undefined-- 68.582
1.25 --undefined-- 71.580
1.26 --undefined-- 73.448
1.27 180.096 73.267
1.28 174.942 72.426
1.29 170.045 70.976
1.30 --undefined-- 67.433
1.31 --undefined-- 60.841
1.32 --undefined-- 52.325
1.33 --undefined-- 49.117
1.34 --undefined-- 48.696
1.35 --undefined-- 48.274
1.36 --undefined-- 48.016
1.37 --undefined-- 47.996
1.38 --undefined-- 48.459
1.39 --undefined-- 48.716
1.40 --undefined-- 48.337
1.41 --undefined-- 47.896
1.42 --undefined-- 48.438
1.43 --undefined-- 51.205
1.44 --undefined-- 56.849
1.45 --undefined-- 60.884
1.46 --undefined-- 61.796
1.47 --undefined-- 59.654
1.48 --undefined-- 54.843
1.49 --undefined-- 48.624
1.50 --undefined-- 44.238
1.51 --undefined-- 43.307
1.52 --undefined-- 42.772
1.53 --undefined-- 42.761
1.54 --undefined-- 43.598
1.55 --undefined-- 44.021
1.56 --undefined-- 43.457
1.57 --undefined-- 43.298
1.58 --undefined-- 45.335
1.59 --undefined-- 48.090
1.60 --undefined-- 51.565
1.61 --undefined-- 54.238
1.62 --undefined-- 54.719
1.63 --undefined-- 53.675
1.64 --undefined-- 54.840
1.65 --undefined-- 57.545
1.66 122.700 58.652
1.67 121.976 58.234
1.68 --undefined-- 56.066
1.69 --undefined-- 51.262
1.70 --undefined-- 45.468
1.71 --undefined-- 43.481
1.72 --undefined-- 41.759
1.73 --undefined-- 49.788
1.74 --undefined-- 61.853
1.75 --undefined-- 69.059
1.76 --undefined-- 72.122
1.77 --undefined-- 72.097
1.78 --undefined-- 69.908
1.79 118.671 67.130
1.80 117.523 65.976
1.81 116.609 65.901
1.82 116.619 65.915
1.83 116.215 66.043
1.84 116.934 66.397
1.85 116.356 66.839
1.86 --undefined-- 67.009
1.87 --undefined-- 66.400
1.88 --undefined-- 64.253
1.89 --undefined-- 60.361
1.90 --undefined-- 55.020
1.91 --undefined-- 50.852
1.92 --undefined-- 49.476
1.93 --undefined-- 49.017
1.94 --undefined-- 50.007
1.95 --undefined-- 51.075
1.96 --undefined-- 51.165
1.97 --undefined-- 50.514
1.98 --undefined-- 48.996
1.99 --undefined-- 46.374
2.00 --undefined-- 44.215
2.01 --undefined-- 43.364
2.02 --undefined-- 43.013
2.03 --undefined-- 43.217
2.04 --undefined-- 43.388
2.05 --undefined-- 43.186
2.06 --undefined-- 42.629
2.07 --undefined-- 42.297
2.08 --undefined-- 43.497
2.09 --undefined-- 44.383
2.10 --undefined-- 43.464
2.11 --undefined-- 42.011
2.12 --undefined-- 41.429
2.13 --undefined-- 41.505
2.14 --undefined-- 42.162
2.15 --undefined-- 43.206
2.16 --undefined-- 44.677
2.17 --undefined-- 46.508
2.18 104.484 48.566
2.19 107.510 50.229
2.20 110.226 51.701
2.21 114.096 53.325
2.22 117.401 55.219
2.23 118.757 56.965
2.24 --undefined-- 57.436
2.25 --undefined-- 55.823
2.26 --undefined-- 53.003
2.27 --undefined-- 52.985
2.28 --undefined-- 55.155
2.29 --undefined-- 56.259
2.30 --undefined-- 55.976
2.31 --undefined-- 57.811
2.32 --undefined-- 62.474
2.33 --undefined-- 65.982
2.34 --undefined-- 68.126
2.35 109.332 68.837
2.36 107.545 68.098
2.37 105.149 66.361
2.38 103.782 64.030
2.39 102.689 61.812
2.40 102.246 60.126
2.41 102.352 58.239
2.42 101.920 55.638
2.43 101.206 52.775
2.44 101.196 49.915
2.45 --undefined-- 47.486
2.46 --undefined-- 46.832
2.47 --undefined-- 47.497
2.48 --undefined-- 47.915
2.49 --undefined-- 48.357
2.50 --undefined-- 54.278
2.51 --undefined-- 59.982
2.52 --undefined-- 61.411
2.53 --undefined-- 60.340
2.54 --undefined-- 63.620
2.55 --undefined-- 67.087
2.56 121.163 68.273
2.57 114.030 68.000
2.58 111.829 67.232
2.59 110.767 67.102
2.60 109.896 67.525
2.61 109.143 67.486
2.62 108.921 66.865
2.63 109.331 66.177
2.64 110.026 65.555
2.65 109.997 64.698
2.66 --undefined-- 62.938
2.67 --undefined-- 59.229
2.68 --undefined-- 53.338
2.69 --undefined-- 48.776
2.70 --undefined-- 49.801
2.71 --undefined-- 50.827
2.72 --undefined-- 52.278
2.73 --undefined-- 54.037
2.74 --undefined-- 54.155
2.75 --undefined-- 53.894
2.76 --undefined-- 54.960
2.77 --undefined-- 56.052
2.78 --undefined-- 56.742
2.79 --undefined-- 58.156
2.80 --undefined-- 58.471
2.81 --undefined-- 55.367
2.82 --undefined-- 49.495
2.83 --undefined-- 49.475
2.84 --undefined-- 53.675
2.85 --undefined-- 57.799
2.86 132.247 59.934
2.87 132.198 59.620
2.88 133.281 57.330
2.89 138.200 54.534
2.90 139.807 53.347
2.91 140.770 53.749
2.92 140.005 54.275
2.93 137.681 54.033
2.94 133.591 52.380
2.95 --undefined-- 51.127
2.96 --undefined-- 57.193
2.97 --undefined-- 61.815
2.98 --undefined-- 63.603
2.99 --undefined-- 65.647
3.00 106.630 67.944
3.01 103.886 68.779
3.02 101.021 68.304
3.03 96.332 67.654
3.04 97.044 66.799
3.05 --undefined-- 64.902
3.06 --undefined-- 61.577
3.07 --undefined-- 56.846
3.08 --undefined-- 51.622
3.09 --undefined-- 48.348
3.10 --undefined-- 47.494
3.11 116.020 49.076
3.12 116.768 53.671
3.13 116.780 59.095
3.14 116.089 63.471
3.15 --undefined-- 66.543
3.16 --undefined-- 68.393
3.17 --undefined-- 68.886
3.18 93.038 68.337
3.19 86.971 67.414
3.20 86.468 66.292
3.21 86.297 64.460
3.22 --undefined-- 60.935
3.23 --undefined-- 56.926
3.24 --undefined-- 56.967
3.25 --undefined-- 59.125
3.26 --undefined-- 61.231
3.27 --undefined-- 61.963
3.28 --undefined-- 59.612
3.29 --undefined-- 53.226
3.30 --undefined-- 44.816
3.31 --undefined-- 42.191
3.32 --undefined-- 41.588
3.33 --undefined-- 41.083
3.34 --undefined-- 40.793
3.35 --undefined-- 41.341
3.36 --undefined-- 43.864
3.37 --undefined-- 46.483
3.38 --undefined-- 46.592
3.39 --undefined-- 43.856
3.40 --undefined-- 40.552
3.41 --undefined-- 38.415
3.42 --undefined-- 38.367
3.43 --undefined-- 40.433
3.44 --undefined-- 42.763
3.45 --undefined-- 43.909
3.46 --undefined-- 44.131
3.47 --undefined-- 43.971
3.48 --undefined-- 43.688
3.49 --undefined-- 44.397
3.50 --undefined-- 45.248
3.51 --undefined-- 45.056
3.52 --undefined-- 44.438
3.53 --undefined-- 44.028
3.54 --undefined-- 43.856
3.55 --undefined-- 43.828
3.56 --undefined-- 45.140
3.57 --undefined-- 53.842
3.58 --undefined-- 60.650
3.59 --undefined-- 62.849
3.60 --undefined-- 62.703
3.61 --undefined-- 67.949
3.62 --undefined-- 72.546
3.63 177.230 73.638
3.64 176.871 71.450
3.65 180.526 66.472
3.66 188.392 61.135
3.67 193.251 59.769
3.68 195.614 59.993
3.69 196.467 60.473
3.70 197.918 61.242
3.71 198.980 64.261
3.72 203.398 69.274
3.73 201.612 72.828
3.74 203.510 74.228
3.75 201.606 73.725
3.76 193.473 71.650
3.77 182.714 67.965
3.78 --undefined-- 63.615
3.79 --undefined-- 64.555
3.80 --undefined-- 68.972
3.81 --undefined-- 71.089
3.82 141.925 71.054
3.83 139.003 70.369
3.84 135.550 69.381
3.85 132.005 68.150
3.86 129.758 67.921
3.87 124.189 68.342
3.88 122.770 68.348
3.89 121.780 67.523
3.90 --undefined-- 65.386
3.91 --undefined-- 62.311
3.92 --undefined-- 60.374
3.93 --undefined-- 59.897
3.94 --undefined-- 58.504
3.95 --undefined-- 57.254
3.96 --undefined-- 58.775
3.97 --undefined-- 64.662
3.98 --undefined-- 69.166
3.99 --undefined-- 70.260
4.00 131.258 68.624
4.01 129.974 67.283
4.02 131.922 68.007
4.03 134.027 68.995
4.04 136.861 69.139
4.05 138.113 67.302
4.06 --undefined-- 62.827
4.07 147.855 58.806
4.08 150.019 57.341
4.09 --undefined-- 56.877
4.10 --undefined-- 58.357
4.11 --undefined-- 60.438
4.12 150.685 63.464
4.13 153.699 66.681
4.14 163.923 68.803
4.15 160.489 68.905
4.16 160.227 67.235
4.17 160.774 65.306
4.18 160.144 64.154
4.19 159.015 62.964
4.20 158.302 60.462
4.21 153.599 55.965
4.22 153.018 51.973
4.23 151.631 52.472
4.24 150.983 54.823
4.25 149.510 58.242
4.26 --undefined-- 64.607
4.27 --undefined-- 69.754
4.28 126.801 71.946
4.29 124.694 71.951
4.30 120.764 71.130
4.31 115.905 69.797
4.32 111.621 67.583
4.33 109.678 64.737
4.34 109.196 61.989
4.35 109.684 60.243
4.36 111.994 59.533
4.37 --undefined-- 58.395
4.38 --undefined-- 54.835
4.39 --undefined-- 48.032
4.40 --undefined-- 47.144
4.41 --undefined-- 53.640
4.42 --undefined-- 58.277
4.43 --undefined-- 62.900
4.44 --undefined-- 68.898
4.45 --undefined-- 72.727
4.46 171.047 73.638
4.47 169.214 72.636
4.48 165.836 71.398
4.49 163.895 70.985
4.50 162.400 71.172
4.51 160.898 71.348
4.52 159.267 70.587
4.53 157.612 68.257
4.54 156.582 64.480
4.55 155.194 60.144
4.56 156.807 57.364
4.57 156.200 56.679
4.58 155.203 56.463
4.59 154.272 56.370
4.60 154.822 56.502
4.61 --undefined-- 56.789
4.62 --undefined-- 57.980
4.63 --undefined-- 62.168
4.64 --undefined-- 67.124
4.65 --undefined-- 69.657
4.66 --undefined-- 69.625
4.67 --undefined-- 68.471
4.68 --undefined-- 67.577
4.69 --undefined-- 66.425
4.70 --undefined-- 65.039
4.71 --undefined-- 63.468
4.72 --undefined-- 61.476
4.73 --undefined-- 60.180
4.74 --undefined-- 59.822
4.75 --undefined-- 59.921
4.76 --undefined-- 60.202
4.77 114.244 60.945
4.78 117.613 61.933
4.79 120.550 63.138
4.80 123.955 65.130
4.81 132.394 68.204
4.82 136.332 70.816
4.83 138.740 72.039
4.84 141.446 72.122
4.85 143.368 71.639
4.86 142.636 71.016
4.87 140.624 69.800
4.88 139.637 66.816
4.89 141.305 61.242
4.90 141.901 54.979
4.91 141.578 52.092
4.92 140.999 51.005
4.93 --undefined-- 51.709
4.94 --undefined-- 56.617
4.95 --undefined-- 64.267
4.96 --undefined-- 68.759
4.97 134.604 69.890
4.98 135.607 68.374
4.99 129.438 64.888
5.00 124.521 60.147
5.01 123.544 56.099
5.02 120.849 53.890
5.03 122.505 52.615
5.04 125.365 52.060
5.05 125.649 51.303
5.06 126.035 50.375
5.07 --undefined-- 51.895
5.08 --undefined-- 54.939
5.09 130.996 56.978
5.10 131.480 58.534
5.11 131.370 59.562
5.12 132.722 59.786
5.13 134.384 59.676
5.14 135.398 --undefined--
5.15 137.477 --undefined--
5.16 --undefined-- --undefined--
5.17 --undefined-- --undefined--
