Time Pitch Intensity
0.01 --undefined-- --undefined--
0.02 124.972 --undefined--
0.03 124.048 --undefined--
0.04 123.212 --undefined--
0.05 123.053 52.570
0.06 --undefined-- 50.789
0.07 --undefined-- 48.626
0.08 --undefined-- 45.628
0.09 --undefined-- 42.673
0.10 --undefined-- 40.459
0.11 --undefined-- 38.496
0.12 --undefined-- 36.897
0.13 --undefined-- 37.090
0.14 --undefined-- 37.446
0.15 --undefined-- 36.691
0.16 --undefined-- 36.051
0.17 --undefined-- 36.689
0.18 --undefined-- 38.326
0.19 --undefined-- 39.824
0.20 --undefined-- 39.988
0.21 --undefined-- 39.154
0.22 --undefined-- 38.051
0.23 --undefined-- 36.430
0.24 --undefined-- 35.218
0.25 --undefined-- 38.002
0.26 --undefined-- 42.942
0.27 --undefined-- 46.331
0.28 --undefined-- 50.651
0.29 --undefined-- 55.358
0.30 --undefined-- 58.433
0.31 --undefined-- 60.421
0.32 129.040 62.544
0.33 134.061 65.323
0.34 138.333 68.415
0.35 144.342 71.488
0.36 148.431 74.202
0.37 150.213 76.094
0.38 150.278 76.596
0.39 150.983 75.849
0.40 149.918 74.985
0.41 147.961 74.175
0.42 145.330 73.038
0.43 144.574 72.391
0.44 143.981 72.613
0.45 143.235 73.393
0.46 142.273 74.325
0.47 140.800 74.804
0.48 138.015 74.436
0.49 134.789 73.141
0.50 131.633 71.238
0.51 129.187 69.159
0.52 123.391 66.321
0.53 118.783 62.112
0.54 --undefined-- 57.543
0.55 --undefined-- 55.765
0.56 --undefined-- 55.072
0.57 --undefined-- 53.842
0.58 --undefined-- 53.955
0.59 --undefined-- 55.461
0.60 --undefined-- 56.747
0.61 --undefined-- 57.524
0.62 --undefined-- 57.542
0.63 --undefined-- 60.087
0.64 183.326 67.701
0.65 184.315 73.598
0.66 184.027 77.201
0.67 181.534 78.869
0.68 177.540 78.828
0.69 171.655 78.001
0.70 168.724 77.721
0.71 167.967 77.797
0.72 168.910 77.606
0.73 169.841 77.209
0.74 169.212 76.537
0.75 167.137 75.011
0.76 166.178 72.262
0.77 166.151 69.221
0.78 166.037 67.818
0.79 166.057 67.605
0.80 165.382 67.449
0.81 165.664 66.918
0.82 166.103 65.579
0.83 158.296 62.803
0.84 146.844 58.047
0.85 --undefined-- 51.539
0.86 --undefined-- 46.829
0.87 --undefined-- 47.479
0.88 --undefined-- 49.165
0.89 --undefined-- 50.170
0.90 --undefined-- 50.296
0.91 --undefined-- 51.168
0.92 116.792 56.642
0.93 117.186 62.790
0.94 118.588 67.305
0.95 120.663 70.068
0.96 121.613 71.342
0.97 119.179 71.845
0.98 118.400 72.003
0.99 119.456 71.576
1.00 120.175 70.303
1.01 123.636 68.548
1.02 126.388 67.070
1.03 128.977 66.259
1.04 133.289 65.774
1.05 138.305 65.184
1.06 141.855 64.423
1.07 128.368 64.436
1.08 124.909 64.633
1.09 --undefined-- 63.325
1.10 --undefined-- 59.637
1.11 --undefined-- 52.787
1.12 --undefined-- 42.987
1.13 --undefined-- 36.309
1.14 --undefined-- 34.095
1.15 --undefined-- 36.345
1.16 --undefined-- 49.947
1.17 --undefined-- 60.770
1.18 --undefined-- 67.259
1.19 --undefined-- 70.392
1.20 --undefined-- 71.094
1.21 127.057 70.730
1.22 127.572 70.901
1.23 132.029 72.123
1.24 135.550 73.823
1.25 136.212 75.159
1.26 135.529 75.558
1.27 134.019 75.172
1.28 132.122 74.278
1.29 129.810 72.296
1.30 --undefined-- 68.278
1.31 --undefined-- 61.862
1.32 --undefined-- 55.859
1.33 --undefined-- 54.089
1.34 124.401 53.895
1.35 126.500 54.759
1.36 128.707 55.943
1.37 129.228 56.222
1.38 129.260 54.786
1.39 --undefined-- 52.788
1.40 --undefined-- 56.785
1.41 127.605 61.600
1.42 129.634 63.437
1.43 130.914 62.146
1.44 131.415 58.053
1.45 --undefined-- 52.477
1.46 --undefined-- 48.018
1.47 --undefined-- 46.257
1.48 --undefined-- 46.651
1.49 --undefined-- 46.901
1.50 --undefined-- 45.736
1.51 --undefined-- 42.794
1.52 --undefined-- 38.797
1.53 --undefined-- 39.081
1.54 --undefined-- 42.894
1.55 --undefined-- 46.018
1.56 --undefined-- 49.141
1.57 --undefined-- 52.405
1.58 --undefined-- 54.544
1.59 --undefined-- 54.689
1.60 --undefined-- 52.672
1.61 --undefined-- 51.862
1.62 142.774 57.256
1.63 141.574 62.204
1.64 136.433 64.818
1.65 132.319 65.314
1.66 126.714 64.058
1.67 122.538 61.790
1.68 119.692 58.602
1.69 --undefined-- 54.330
1.70 --undefined-- 55.832
1.71 115.117 60.868
1.72 113.702 64.298
1.73 113.492 66.265
1.74 114.189 67.349
1.75 113.671 67.918
1.76 113.726 68.087
1.77 114.332 67.876
1.78 113.659 66.711
1.79 111.245 63.694
1.80 --undefined-- 58.101
1.81 --undefined-- 49.683
1.82 --undefined-- 42.125
1.83 --undefined-- 48.540
1.84 --undefined-- 56.039
1.85 --undefined-- 61.322
1.86 --undefined-- 66.349
1.87 132.179 70.435
1.88 132.360 73.289
1.89 135.969 75.235
1.90 139.959 76.107
1.91 144.038 75.493
1.92 148.003 73.333
1.93 151.244 70.076
1.94 152.658 66.705
1.95 154.414 64.441
1.96 153.183 62.886
1.97 149.222 60.442
1.98 140.036 57.488
1.99 137.262 60.674
2.00 138.358 67.645
2.01 140.366 72.456
2.02 141.988 74.929
2.03 141.205 75.986
2.04 139.335 76.510
2.05 137.936 76.590
2.06 134.787 75.988
2.07 132.465 74.678
2.08 130.555 72.595
2.09 129.065 69.400
2.10 --undefined-- 64.329
2.11 --undefined-- 58.757
2.12 --undefined-- 60.572
2.13 117.298 64.973
2.14 119.307 67.611
2.15 119.482 68.540
2.16 118.604 68.203
2.17 117.054 67.008
2.18 117.095 65.509
2.19 116.840 64.054
2.20 116.072 61.833
2.21 116.263 57.671
2.22 --undefined-- 51.017
2.23 --undefined-- 44.147
2.24 --undefined-- 43.011
2.25 --undefined-- 43.840
2.26 --undefined-- 43.830
2.27 --undefined-- 42.669
2.28 --undefined-- 43.171
2.29 --undefined-- 54.836
2.30 --undefined-- 64.403
2.31 180.737 69.892
2.32 180.614 72.325
2.33 179.024 72.601
2.34 177.540 71.584
2.35 177.613 70.847
2.36 178.026 71.468
2.37 178.680 72.148
2.38 178.413 71.954
2.39 177.076 70.992
2.40 175.336 69.906
2.41 173.167 69.035
2.42 171.772 68.208
2.43 170.911 67.022
2.44 169.618 65.042
2.45 170.799 62.024
2.46 --undefined-- 58.487
2.47 --undefined-- 56.009
2.48 --undefined-- 53.047
2.49 --undefined-- 47.618
2.50 --undefined-- 40.772
2.51 --undefined-- 37.574
2.52 --undefined-- 40.130
2.53 --undefined-- 42.935
2.54 --undefined-- 44.671
2.55 --undefined-- 45.444
2.56 --undefined-- 45.010
2.57 --undefined-- 43.947
2.58 --undefined-- 44.466
2.59 --undefined-- 47.904
2.60 --undefined-- 52.485
2.61 --undefined-- 56.347
2.62 134.411 60.023
2.63 133.060 62.539
2.64 130.995 63.546
2.65 129.707 63.826
2.66 118.519 64.153
2.67 115.533 64.336
2.68 112.214 64.052
2.69 109.954 63.700
2.70 108.757 63.587
2.71 108.065 63.261
2.72 107.363 62.500
2.73 107.500 61.854
2.74 107.569 61.917
2.75 107.193 61.952
2.76 106.416 61.361
2.77 105.923 60.602
2.78 105.450 59.968
2.79 105.819 59.226
2.80 106.441 58.571
2.81 106.566 58.470
2.82 106.666 58.378
2.83 107.417 58.497
2.84 108.407 59.287
2.85 110.598 59.949
2.86 111.288 60.128
2.87 111.473 59.738
2.88 108.120 58.046
2.89 --undefined-- 54.272
2.90 --undefined-- 48.148
2.91 --undefined-- 41.755
2.92 --undefined-- 39.714
2.93 --undefined-- 38.933
2.94 --undefined-- 38.737
2.95 --undefined-- 39.331
2.96 --undefined-- 39.815
2.97 --undefined-- 40.882
2.98 --undefined-- 42.926
2.99 --undefined-- 44.639
3.00 --undefined-- 47.448
3.01 --undefined-- 54.324
3.02 174.533 61.822
3.03 174.183 66.985
3.04 179.291 69.629
3.05 181.610 70.207
3.06 181.135 69.383
3.07 180.316 68.128
3.08 179.907 67.331
3.09 179.631 67.232
3.10 179.503 67.424
3.11 179.171 67.348
3.12 178.133 66.416
3.13 176.501 64.099
3.14 168.398 59.927
3.15 --undefined-- 53.870
3.16 --undefined-- 57.005
3.17 159.970 66.693
3.18 158.933 73.400
3.19 155.599 77.277
3.20 148.526 78.942
3.21 141.263 79.575
3.22 136.532 79.800
3.23 133.088 79.122
3.24 129.487 77.643
3.25 127.527 76.060
3.26 126.512 74.734
3.27 126.584 73.878
3.28 126.590 73.391
3.29 126.145 72.802
3.30 125.236 72.017
3.31 125.144 70.968
3.32 124.869 69.513
3.33 123.209 67.865
3.34 122.281 66.236
3.35 120.228 64.712
3.36 119.117 63.471
3.37 178.941 61.659
3.38 185.140 59.201
3.39 179.279 57.466
3.40 --undefined-- 56.440
3.41 --undefined-- 55.783
3.42 --undefined-- 55.944
3.43 --undefined-- 56.422
3.44 --undefined-- 56.915
3.45 --undefined-- 58.204
3.46 --undefined-- 59.147
3.47 --undefined-- 59.106
3.48 --undefined-- 59.260
3.49 --undefined-- 60.294
3.50 --undefined-- 61.563
3.51 --undefined-- 62.856
3.52 --undefined-- 62.330
3.53 --undefined-- 58.230
3.54 --undefined-- 52.698
3.55 --undefined-- 52.488
3.56 --undefined-- 51.941
3.57 --undefined-- 49.870
3.58 --undefined-- 47.774
3.59 --undefined-- 47.465
3.60 --undefined-- 58.642
3.61 156.696 69.485
3.62 153.049 75.907
3.63 150.439 78.686
3.64 150.067 78.898
3.65 151.572 77.987
3.66 154.230 77.205
3.67 155.924 76.461
3.68 164.860 74.885
3.69 162.144 73.318
3.70 157.544 72.708
3.71 154.539 72.714
3.72 151.005 72.770
3.73 146.859 72.486
3.74 141.261 71.651
3.75 136.050 69.940
3.76 125.854 67.054
3.77 116.881 62.974
3.78 --undefined-- 57.638
3.79 --undefined-- 50.787
3.80 --undefined-- 46.158
3.81 --undefined-- 50.101
3.82 --undefined-- 55.538
3.83 --undefined-- 58.877
3.84 --undefined-- 64.021
3.85 --undefined-- 70.068
3.86 --undefined-- 73.744
3.87 --undefined-- 74.937
3.88 111.685 74.213
3.89 107.721 72.351
3.90 105.569 70.086
3.91 106.649 68.387
3.92 106.578 67.571
3.93 108.786 66.968
3.94 111.050 66.019
3.95 112.329 63.908
3.96 --undefined-- 59.380
3.97 --undefined-- 51.177
3.98 --undefined-- 42.668
3.99 --undefined-- 50.814
4.00 --undefined-- 61.867
4.01 --undefined-- 69.983
4.02 --undefined-- 74.929
4.03 133.527 77.021
4.04 134.541 77.808
4.05 136.606 78.394
4.06 135.058 77.152
4.07 133.044 72.755
4.08 --undefined-- 64.811
4.09 --undefined-- 56.250
4.10 --undefined-- 54.377
4.11 --undefined-- 53.434
4.12 --undefined-- 52.235
4.13 --undefined-- 53.788
4.14 --undefined-- 59.438
4.15 144.105 63.807
4.16 135.738 65.961
4.17 134.901 66.474
4.18 134.875 66.292
4.19 136.560 65.306
4.20 124.095 63.019
4.21 127.166 61.604
4.22 130.260 62.850
4.23 131.651 64.441
4.24 132.860 65.448
4.25 134.429 66.210
4.26 135.615 67.157
4.27 135.529 69.106
4.28 140.044 72.495
4.29 138.389 75.213
4.30 137.638 76.103
4.31 136.246 75.110
4.32 133.856 72.620
4.33 132.995 69.622
4.34 131.613 67.276
4.35 128.284 65.429
4.36 126.143 64.139
4.37 121.414 64.017
4.38 117.006 64.814
4.39 115.037 66.256
4.40 113.702 68.215
4.41 112.475 70.169
4.42 111.327 71.696
4.43 109.896 73.179
4.44 109.777 74.569
4.45 108.905 75.408
4.46 106.869 75.588
4.47 106.119 75.020
4.48 105.812 73.832
4.49 104.995 72.482
4.50 104.806 71.296
4.51 104.818 70.387
4.52 103.999 69.788
4.53 104.244 69.664
4.54 104.879 70.101
4.55 105.595 70.665
4.56 106.677 71.454
4.57 107.817 72.438
4.58 109.135 73.311
4.59 110.244 74.265
4.60 112.604 75.310
4.61 114.567 76.146
4.62 115.165 76.566
4.63 117.100 75.881
4.64 116.974 73.885
4.65 --undefined-- 72.230
4.66 --undefined-- 70.888
4.67 --undefined-- 68.722
4.68 --undefined-- 64.885
4.69 --undefined-- 58.575
4.70 --undefined-- 51.855
4.71 --undefined-- 46.952
4.72 --undefined-- 41.901
4.73 --undefined-- 36.039
4.74 --undefined-- 34.152
4.75 --undefined-- 46.997
4.76 --undefined-- 58.434
4.77 195.042 65.695
4.78 199.032 69.629
4.79 202.438 71.822
4.80 206.088 74.132
4.81 208.140 76.211
4.82 211.371 76.761
4.83 214.012 75.566
4.84 214.593 73.151
4.85 213.852 70.621
4.86 212.546 69.583
4.87 210.825 70.274
4.88 209.372 71.827
4.89 205.224 73.734
4.90 199.981 75.254
4.91 194.235 75.956
4.92 188.131 76.026
4.93 182.911 75.320
4.94 173.121 73.454
4.95 167.487 70.477
4.96 162.272 66.156
4.97 --undefined-- 59.873
4.98 --undefined-- 52.372
4.99 --undefined-- 46.131
5.00 --undefined-- 40.471
5.01 --undefined-- 40.490
5.02 --undefined-- 44.482
5.03 --undefined-- 47.572
5.04 --undefined-- 49.734
5.05 --undefined-- 51.432
5.06 --undefined-- 56.332
5.07 --undefined-- 62.732
5.08 --undefined-- 66.828
5.09 124.338 68.552
5.10 123.849 68.628
5.11 121.870 67.374
5.12 120.285 64.884
5.13 119.523 61.457
5.14 119.037 57.282
5.15 120.868 53.807
5.16 125.922 53.266
5.17 131.078 54.315
5.18 135.741 55.286
5.19 142.210 56.061
5.20 147.582 56.918
5.21 152.646 57.467
5.22 157.070 57.608
5.23 163.208 58.070
5.24 167.438 58.951
5.25 170.898 60.053
5.26 172.190 61.506
5.27 172.155 62.688
5.28 171.355 63.009
5.29 169.617 61.892
5.30 168.384 58.391
5.31 --undefined-- 51.552
5.32 --undefined-- 43.799
5.33 --undefined-- 41.757
5.34 --undefined-- 40.823
5.35 --undefined-- 39.727
5.36 --undefined-- 39.069
5.37 --undefined-- 38.791
5.38 --undefined-- 40.531
5.39 --undefined-- 52.951
5.40 --undefined-- 64.302
5.41 185.948 71.730
5.42 183.730 75.950
5.43 180.195 77.697
5.44 176.206 77.566
5.45 171.609 76.853
5.46 170.171 76.911
5.47 170.013 77.374
5.48 170.102 77.524
5.49 170.911 77.314
5.50 172.176 76.919
5.51 172.742 76.369
5.52 172.963 75.230
5.53 171.521 72.984
5.54 170.028 70.052
5.55 171.207 67.972
5.56 171.756 66.225
5.57 170.418 64.239
5.58 169.595 62.842
5.59 168.085 62.006
5.60 164.586 61.140
5.61 161.966 60.034
5.62 157.669 58.521
5.63 151.216 56.457
5.64 --undefined-- 54.217
5.65 --undefined-- 53.258
5.66 --undefined-- 53.720
5.67 --undefined-- 52.844
5.68 --undefined-- --undefined--
5.69 --undefined-- --undefined--
5.70 --undefined-- --undefined--
5.71 --undefined-- --undefined--
