Time Pitch Intensity
0.01 --undefined-- --undefined--
0.02 180.009 --undefined--
0.03 179.568 --undefined--
0.04 178.584 --undefined--
0.05 179.196 65.683
0.06 185.264 66.375
0.07 187.183 67.103
0.08 187.375 67.297
0.09 188.093 67.011
0.10 188.802 66.187
0.11 186.273 64.316
0.12 177.051 61.000
0.13 --undefined-- 57.688
0.14 --undefined-- 56.743
0.15 --undefined-- 55.975
0.16 --undefined-- 54.682
0.17 --undefined-- 54.315
0.18 --undefined-- 52.898
0.19 --undefined-- 49.048
0.20 --undefined-- 45.372
0.21 --undefined-- 51.300
0.22 --undefined-- 57.139
0.23 --undefined-- 59.588
0.24 --undefined-- 58.853
0.25 --undefined-- 58.139
0.26 --undefined-- 62.426
0.27 194.704 66.556
0.28 191.127 68.816
0.29 186.827 69.795
0.30 186.145 70.210
0.31 187.825 70.324
0.32 191.277 70.237
0.33 197.779 70.588
0.34 204.931 71.464
0.35 210.941 71.730
0.36 231.148 70.870
0.37 256.305 69.920
0.38 268.279 69.516
0.39 282.594 69.601
0.40 150.589 70.378
0.41 159.129 71.173
0.42 164.574 71.525
0.43 163.886 70.961
0.44 157.136 68.471
0.45 146.328 63.352
0.46 --undefined-- 56.750
0.47 --undefined-- 53.176
0.48 --undefined-- 50.238
0.49 --undefined-- 47.331
0.50 --undefined-- 50.846
0.51 --undefined-- 58.763
0.52 292.149 64.743
0.53 277.866 67.956
0.54 257.581 68.809
0.55 236.982 68.088
0.56 225.299 66.699
0.57 219.052 65.549
0.58 216.203 65.297
0.59 212.899 65.287
0.60 212.469 64.914
0.61 209.436 63.966
0.62 204.139 62.954
0.63 202.696 63.013
0.64 202.760 63.790
0.65 192.370 64.151
0.66 176.571 63.345
0.67 177.264 61.176
0.68 --undefined-- 58.531
0.69 --undefined-- 56.465
0.70 --undefined-- 54.985
0.71 --undefined-- 53.151
0.72 --undefined-- 51.990
0.73 --undefined-- 54.563
0.74 --undefined-- 57.144
0.75 170.952 58.762
0.76 171.352 59.941
0.77 169.182 60.731
0.78 172.171 60.746
0.79 168.549 60.606
0.80 166.293 60.704
0.81 164.453 60.255
0.82 162.762 59.364
0.83 160.733 59.016
0.84 158.247 59.121
0.85 157.026 59.219
0.86 156.426 59.481
0.87 156.465 59.332
0.88 156.535 59.194
0.89 157.214 59.772
0.90 159.965 60.722
0.91 157.419 61.861
0.92 156.687 62.582
0.93 158.485 62.964
0.94 161.408 63.787
0.95 164.893 65.215
0.96 166.404 66.465
0.97 167.519 67.444
0.98 169.571 68.373
0.99 171.472 68.853
1.00 173.610 68.495
1.01 177.329 67.395
1.02 180.909 66.164
1.03 183.304 65.118
1.04 185.444 63.521
1.05 188.074 60.730
1.06 185.967 57.296
1.07 185.954 55.601
1.08 --undefined-- 55.150
1.09 --undefined-- 53.764
1.10 --undefined-- 52.482
1.11 --undefined-- 52.220
1.12 --undefined-- 50.700
1.13 --undefined-- 47.465
1.14 --undefined-- 48.239
1.15 --undefined-- 53.717
1.16 --undefined-- 58.526
1.17 --undefined-- 62.660
1.18 216.754 66.576
1.19 208.252 69.226
1.20 202.507 70.576
1.21 198.684 71.174
1.22 194.971 71.254
1.23 189.825 71.173
1.24 185.225 71.148
1.25 180.482 70.564
1.26 --undefined-- 69.092
1.27 --undefined-- 66.910
1.28 --undefined-- 63.910
1.29 --undefined-- 60.100
1.30 --undefined-- 56.555
1.31 --undefined-- 53.520
1.32 --undefined-- 51.070
1.33 --undefined-- 52.171
1.34 167.535 55.118
1.35 173.882 57.015
1.36 181.264 57.785
1.37 183.845 58.087
1.38 190.100 58.339
1.39 189.214 58.937
1.40 178.423 60.589
1.41 172.135 62.854
1.42 171.070 64.708
1.43 169.430 65.864
1.44 169.247 66.350
1.45 170.574 66.244
1.46 172.665 65.887
1.47 175.179 65.656
1.48 181.998 65.435
1.49 190.995 64.610
1.50 202.199 62.775
1.51 206.464 60.940
1.52 208.013 60.324
1.53 209.805 60.194
1.54 222.365 61.162
1.55 225.733 63.904
1.56 232.031 66.332
1.57 230.405 67.095
1.58 201.593 67.455
1.59 191.386 68.534
1.60 184.773 68.981
1.61 176.543 68.311
1.62 174.473 67.056
1.63 174.796 65.301
1.64 175.338 62.937
1.65 173.865 61.167
1.66 178.603 61.025
1.67 180.150 61.664
1.68 178.213 62.107
1.69 177.134 62.024
1.70 175.944 61.676
1.71 174.827 61.340
1.72 174.325 61.393
1.73 175.108 61.787
1.74 176.981 62.190
1.75 179.231 62.128
1.76 187.929 61.362
1.77 188.421 59.985
1.78 183.562 57.995
1.79 184.272 55.740
1.80 163.887 53.653
1.81 160.539 52.299
1.82 159.649 53.005
1.83 164.764 55.832
1.84 166.082 57.367
1.85 176.171 57.733
1.86 180.895 58.956
1.87 181.962 61.067
1.88 172.524 63.688
1.89 167.783 65.703
1.90 163.389 66.602
1.91 160.433 66.674
1.92 156.330 66.455
1.93 155.440 66.596
1.94 154.747 66.945
1.95 155.710 67.214
1.96 156.771 67.285
1.97 156.832 67.159
1.98 157.299 66.964
1.99 157.816 66.805
2.00 158.656 66.715
2.01 159.040 66.625
2.02 159.094 66.398
2.03 159.210 65.881
2.04 160.996 65.000
2.05 164.043 63.936
2.06 164.552 62.645
2.07 --undefined-- 60.131
2.08 --undefined-- 56.346
2.09 --undefined-- 54.301
2.10 --undefined-- 54.393
2.11 --undefined-- 53.142
2.12 --undefined-- 49.946
2.13 --undefined-- 47.937
2.14 --undefined-- 49.168
2.15 --undefined-- 52.808
2.16 --undefined-- 54.307
2.17 --undefined-- 53.346
2.18 --undefined-- 54.065
2.19 --undefined-- 55.335
2.20 --undefined-- 54.370
2.21 --undefined-- 52.649
2.22 --undefined-- 52.482
2.23 --undefined-- 54.839
2.24 --undefined-- 57.749
2.25 --undefined-- 58.870
2.26 --undefined-- 61.134
2.27 --undefined-- 65.558
2.28 --undefined-- 68.214
2.29 --undefined-- 68.492
2.30 159.791 67.452
2.31 157.167 66.579
2.32 156.581 65.676
2.33 157.426 64.643
2.34 158.531 64.233
2.35 157.478 64.234
2.36 156.174 63.952
2.37 155.841 63.323
2.38 157.024 62.781
2.39 160.252 62.437
2.40 165.856 62.329
2.41 172.877 62.432
2.42 180.696 62.372
2.43 191.072 62.374
2.44 200.693 62.227
2.45 215.184 61.712
2.46 224.962 61.526
2.47 225.450 61.171
2.48 219.306 59.122
2.49 210.451 54.754
2.50 --undefined-- 52.296
2.51 --undefined-- 53.574
2.52 --undefined-- 52.557
2.53 --undefined-- 50.418
2.54 --undefined-- 54.571
2.55 --undefined-- 61.961
2.56 --undefined-- 67.038
2.57 296.707 69.563
2.58 289.363 70.077
2.59 284.518 68.676
2.60 278.228 65.111
2.61 281.489 59.477
2.62 285.241 53.450
2.63 284.787 49.885
2.64 --undefined-- 49.882
2.65 --undefined-- 50.406
2.66 --undefined-- 48.895
2.67 --undefined-- 46.966
2.68 --undefined-- 47.514
2.69 --undefined-- 47.714
2.70 --undefined-- 46.492
2.71 --undefined-- 48.094
2.72 --undefined-- 48.822
2.73 --undefined-- 46.450
2.74 --undefined-- 44.618
2.75 --undefined-- 45.411
2.76 --undefined-- 46.088
2.77 --undefined-- 46.153
2.78 --undefined-- 47.166
2.79 --undefined-- 47.723
2.80 --undefined-- 48.895
2.81 --undefined-- 56.796
2.82 --undefined-- 63.717
2.83 182.307 67.729
2.84 179.639 69.491
2.85 175.050 69.864
2.86 175.290 69.419
2.87 175.584 68.663
2.88 174.374 68.116
2.89 171.976 67.485
2.90 168.843 66.460
2.91 166.562 65.395
2.92 166.417 64.673
2.93 167.574 64.421
2.94 168.357 64.489
2.95 169.067 64.470
2.96 169.701 64.332
2.97 169.020 64.138
2.98 167.126 64.019
2.99 165.857 64.255
3.00 165.180 64.903
3.01 167.666 65.769
3.02 170.471 66.299
3.03 166.469 65.879
3.04 164.810 65.043
3.05 164.232 64.833
3.06 165.972 65.522
3.07 167.168 66.571
3.08 167.465 67.249
3.09 167.791 67.313
3.10 167.218 66.437
3.11 164.027 64.072
3.12 158.070 60.225
3.13 154.341 57.882
3.14 167.396 60.463
3.15 174.572 63.318
3.16 178.414 64.751
3.17 179.078 64.636
3.18 178.385 63.186
3.19 176.474 61.290
3.20 174.073 59.861
3.21 173.024 58.824
3.22 180.198 58.655
3.23 180.090 59.650
3.24 189.338 61.332
3.25 179.447 63.736
3.26 174.951 65.143
3.27 168.467 64.480
3.28 162.413 62.356
3.29 155.811 60.472
3.30 150.667 59.187
3.31 149.780 59.983
3.32 153.576 61.743
3.33 157.179 61.637
3.34 157.612 60.718
3.35 156.291 61.082
3.36 157.651 60.724
3.37 158.658 59.278
3.38 158.926 58.425
3.39 158.191 57.484
3.40 158.379 55.957
3.41 --undefined-- 56.182
3.42 --undefined-- 57.235
3.43 --undefined-- 57.699
3.44 195.648 60.570
3.45 184.046 63.862
3.46 173.472 65.707
3.47 167.549 66.292
3.48 165.552 66.250
3.49 164.549 66.135
3.50 165.535 65.975
3.51 167.619 65.735
3.52 169.090 65.323
3.53 170.920 64.851
3.54 171.640 64.421
3.55 171.256 63.834
3.56 171.443 63.175
3.57 171.929 62.696
3.58 172.500 62.496
3.59 173.199 62.337
3.60 173.386 62.277
3.61 171.855 61.617
3.62 166.921 59.300
3.63 --undefined-- 57.556
3.64 191.624 60.857
3.65 193.451 64.521
3.66 189.409 67.443
3.67 187.496 69.971
3.68 187.417 71.690
3.69 188.273 72.654
3.70 189.603 73.350
3.71 191.591 73.940
3.72 193.581 74.353
3.73 194.341 74.611
3.74 193.599 74.865
3.75 192.859 75.251
3.76 191.748 75.505
3.77 190.311 75.044
3.78 187.933 73.476
3.79 185.028 70.972
3.80 179.603 68.006
3.81 150.110 65.074
3.82 155.624 63.286
3.83 160.351 62.191
3.84 --undefined-- 60.490
3.85 --undefined-- 58.664
3.86 --undefined-- 57.982
3.87 --undefined-- 56.363
3.88 --undefined-- 52.354
3.89 --undefined-- 47.729
3.90 --undefined-- 49.578
3.91 --undefined-- 52.870
3.92 --undefined-- 54.942
3.93 --undefined-- 55.176
3.94 --undefined-- 53.509
3.95 --undefined-- 54.181
3.96 --undefined-- 55.207
3.97 --undefined-- 53.244
3.98 --undefined-- 49.418
3.99 --undefined-- 51.860
4.00 --undefined-- 57.298
4.01 --undefined-- 59.723
4.02 --undefined-- 59.044
4.03 --undefined-- 55.811
4.04 --undefined-- 53.767
4.05 --undefined-- 55.806
4.06 --undefined-- 57.293
4.07 --undefined-- 56.994
4.08 --undefined-- 55.407
4.09 --undefined-- 54.529
4.10 --undefined-- 56.592
4.11 --undefined-- 57.633
4.12 --undefined-- 56.374
4.13 --undefined-- 53.693
4.14 --undefined-- 51.685
4.15 --undefined-- 52.836
4.16 --undefined-- 54.427
4.17 --undefined-- 54.156
4.18 --undefined-- 53.663
4.19 --undefined-- 55.739
4.20 --undefined-- 58.106
4.21 --undefined-- 58.504
4.22 281.510 56.458
4.23 284.129 54.064
4.24 --undefined-- 53.757
4.25 --undefined-- 54.036
4.26 --undefined-- 54.417
4.27 --undefined-- 54.128
4.28 --undefined-- 55.832
4.29 --undefined-- 58.078
4.30 --undefined-- 58.561
4.31 --undefined-- 57.382
4.32 --undefined-- 55.864
4.33 --undefined-- 55.566
4.34 --undefined-- 54.805
4.35 --undefined-- 51.863
4.36 --undefined-- 47.582
4.37 --undefined-- 46.041
4.38 --undefined-- 48.787
4.39 --undefined-- 54.375
4.40 --undefined-- 59.104
4.41 --undefined-- 62.883
4.42 240.747 66.316
4.43 243.705 69.084
4.44 249.317 70.875
4.45 255.566 71.860
4.46 262.813 72.092
4.47 270.953 71.623
4.48 277.101 70.408
4.49 276.292 67.719
4.50 255.203 63.145
4.51 263.261 58.853
4.52 266.054 56.621
4.53 267.285 54.864
4.54 --undefined-- 57.022
4.55 --undefined-- 65.001
4.56 173.790 70.385
4.57 172.553 72.557
4.58 171.418 72.650
4.59 171.216 72.126
4.60 172.255 71.749
4.61 173.759 71.546
4.62 175.188 71.602
4.63 176.277 71.954
4.64 176.528 72.466
4.65 176.844 72.924
4.66 178.810 73.245
4.67 182.666 73.470
4.68 188.224 73.743
4.69 194.353 73.940
4.70 200.152 73.667
4.71 206.670 72.993
4.72 211.486 72.293
4.73 217.708 71.426
4.74 222.082 70.825
4.75 223.402 70.500
4.76 223.965 69.941
4.77 222.870 69.503
4.78 221.343 69.082
4.79 217.695 68.798
4.80 209.945 69.963
4.81 202.111 72.171
4.82 191.721 73.487
4.83 176.008 73.586
4.84 165.641 72.875
4.85 158.682 71.804
4.86 --undefined-- 70.716
4.87 285.687 69.182
4.88 277.325 66.056
4.89 259.619 60.781
4.90 --undefined-- 55.827
4.91 --undefined-- 54.959
4.92 --undefined-- 55.532
4.93 --undefined-- 54.142
4.94 --undefined-- 51.479
4.95 --undefined-- 57.389
4.96 219.736 64.076
4.97 217.631 67.736
4.98 212.178 69.294
4.99 205.625 69.753
5.00 203.321 69.662
5.01 203.123 68.939
5.02 202.695 67.512
5.03 200.967 65.484
5.04 199.039 62.834
5.05 199.091 --undefined--
5.06 --undefined-- --undefined--
5.07 --undefined-- --undefined--
5.08 --undefined-- --undefined--
