Time Pitch Intensity
0.01 --undefined-- --undefined--
0.02 230.630 --undefined--
0.03 234.210 --undefined--
0.04 240.435 --undefined--
0.05 247.917 68.196
0.06 250.784 69.702
0.07 252.833 70.771
0.08 255.204 71.442
0.09 257.602 71.747
0.10 259.583 71.604
0.11 261.768 71.003
0.12 263.583 70.021
0.13 265.698 68.814
0.14 268.546 67.788
0.15 270.101 67.262
0.16 270.907 66.967
0.17 270.820 66.599
0.18 269.535 66.036
0.19 266.457 64.892
0.20 260.746 62.288
0.21 247.824 57.717
0.22 --undefined-- 52.063
0.23 --undefined-- 48.228
0.24 --undefined-- 49.940
0.25 --undefined-- 52.791
0.26 --undefined-- 55.988
0.27 --undefined-- 61.377
0.28 286.737 65.598
0.29 279.999 67.949
0.30 277.803 69.305
0.31 278.484 70.261
0.32 280.147 70.896
0.33 282.550 71.191
0.34 285.581 71.070
0.35 289.549 70.482
0.36 293.278 70.001
0.37 294.674 69.974
0.38 295.225 69.813
0.39 294.534 69.302
0.40 294.001 68.689
0.41 293.017 68.202
0.42 292.535 67.916
0.43 293.525 67.874
0.44 295.826 68.088
0.45 299.463 68.435
0.46 151.158 68.752
0.47 152.795 68.863
0.48 154.114 68.322
0.49 150.973 66.213
0.50 145.009 61.594
0.51 --undefined-- 54.018
0.52 --undefined-- 48.867
0.53 --undefined-- 50.004
0.54 --undefined-- 51.486
0.55 --undefined-- 52.359
0.56 --undefined-- 52.299
0.57 --undefined-- 52.928
0.58 292.717 57.874
0.59 294.165 62.617
0.60 293.038 65.297
0.61 287.102 66.571
0.62 281.940 67.128
0.63 278.616 67.449
0.64 277.207 67.546
0.65 275.895 67.177
0.66 274.789 66.677
0.67 274.370 66.388
0.68 274.191 66.271
0.69 274.395 66.325
0.70 274.917 66.432
0.71 274.725 66.446
0.72 273.581 66.314
0.73 271.823 65.986
0.74 266.996 65.550
0.75 262.328 65.272
0.76 257.106 64.842
0.77 249.445 64.329
0.78 239.758 64.315
0.79 228.217 64.538
0.80 209.388 65.052
0.81 196.642 66.171
0.82 184.313 67.930
0.83 169.796 69.386
0.84 --undefined-- 69.351
0.85 --undefined-- 67.712
0.86 --undefined-- 65.716
0.87 --undefined-- 64.057
0.88 --undefined-- 61.747
0.89 --undefined-- 58.315
0.90 --undefined-- 54.663
0.91 --undefined-- 51.469
0.92 --undefined-- 50.080
0.93 --undefined-- 51.200
0.94 --undefined-- 51.536
0.95 --undefined-- 52.595
0.96 --undefined-- 54.603
0.97 --undefined-- 54.175
0.98 --undefined-- 51.314
0.99 --undefined-- 48.620
1.00 --undefined-- 47.318
1.01 --undefined-- 46.158
1.02 --undefined-- 47.535
1.03 --undefined-- 49.598
1.04 --undefined-- 51.183
1.05 --undefined-- 52.759
1.06 --undefined-- 52.710
1.07 --undefined-- 51.399
1.08 --undefined-- 52.183
1.09 --undefined-- 57.875
1.10 269.721 64.503
1.11 269.831 68.746
1.12 270.744 71.189
1.13 271.524 72.783
1.14 272.148 73.758
1.15 274.091 73.933
1.16 277.885 73.504
1.17 281.445 72.992
1.18 282.684 72.530
1.19 282.231 71.917
1.20 280.103 70.795
1.21 273.404 68.835
1.22 261.399 66.178
1.23 --undefined-- 63.065
1.24 --undefined-- 59.251
1.25 --undefined-- 54.804
1.26 --undefined-- 51.974
1.27 --undefined-- 51.196
1.28 --undefined-- 50.072
1.29 --undefined-- 49.922
1.30 --undefined-- 49.367
1.31 --undefined-- 47.490
1.32 --undefined-- 47.775
1.33 --undefined-- 49.748
1.34 --undefined-- 52.613
1.35 --undefined-- 54.697
1.36 --undefined-- 55.427
1.37 --undefined-- 56.289
1.38 --undefined-- 57.739
1.39 --undefined-- 58.749
1.40 --undefined-- 59.911
1.41 276.518 62.576
1.42 276.319 65.761
1.43 272.755 68.587
1.44 268.013 70.415
1.45 264.607 71.115
1.46 261.913 70.966
1.47 260.181 69.895
1.48 257.849 68.076
1.49 259.111 66.689
1.50 257.254 66.311
1.51 252.239 66.859
1.52 242.290 67.726
1.53 227.112 68.271
1.54 --undefined-- 68.477
1.55 --undefined-- 68.284
1.56 --undefined-- 67.219
1.57 --undefined-- 65.133
1.58 --undefined-- 62.526
1.59 --undefined-- 59.754
1.60 --undefined-- 56.567
1.61 --undefined-- 53.685
1.62 --undefined-- 54.473
1.63 --undefined-- 55.634
1.64 --undefined-- 55.085
1.65 --undefined-- 55.638
1.66 --undefined-- 56.116
1.67 --undefined-- 54.321
1.68 --undefined-- 51.265
1.69 --undefined-- 51.697
1.70 --undefined-- 54.829
1.71 --undefined-- 59.766
1.72 219.426 65.208
1.73 222.940 69.176
1.74 226.537 71.479
1.75 231.327 72.579
1.76 237.399 73.173
1.77 244.700 73.462
1.78 250.330 72.968
1.79 253.670 71.718
1.80 255.382 70.448
1.81 255.673 69.509
1.82 253.189 68.458
1.83 246.514 66.569
1.84 --undefined-- 63.825
1.85 --undefined-- 60.686
1.86 --undefined-- 57.245
1.87 --undefined-- 53.224
1.88 --undefined-- 51.059
1.89 --undefined-- 51.615
1.90 --undefined-- 52.071
1.91 --undefined-- 54.326
1.92 240.122 58.197
1.93 218.676 60.344
1.94 190.448 60.479
1.95 174.327 60.020
1.96 173.902 59.589
1.97 172.681 58.935
1.98 166.554 58.366
1.99 163.734 58.251
2.00 161.360 58.738
2.01 162.074 59.662
2.02 165.449 60.352
2.03 170.181 60.578
2.04 175.044 61.077
2.05 180.297 61.886
2.06 181.772 62.247
2.07 182.873 61.548
2.08 183.681 59.150
2.09 186.498 55.057
2.10 --undefined-- 52.404
2.11 --undefined-- 54.698
2.12 --undefined-- 60.844
2.13 --undefined-- 65.284
2.14 193.898 67.298
2.15 184.695 67.671
2.16 179.060 67.102
2.17 174.206 66.190
2.18 170.664 65.503
2.19 169.135 65.189
2.20 168.389 65.211
2.21 169.034 65.336
2.22 169.179 65.333
2.23 169.061 65.403
2.24 169.254 65.668
2.25 168.563 65.861
2.26 168.581 65.158
2.27 169.326 63.155
2.28 160.260 60.527
2.29 160.577 57.994
2.30 157.494 55.854
2.31 151.160 56.333
2.32 166.655 59.888
2.33 166.916 62.629
2.34 166.197 63.507
2.35 164.486 63.475
2.36 162.100 63.571
2.37 160.635 63.814
2.38 159.570 63.852
2.39 157.782 63.410
2.40 155.206 62.766
2.41 154.273 62.443
2.42 154.550 62.409
2.43 154.997 62.532
2.44 155.200 62.718
2.45 154.575 62.583
2.46 153.487 62.182
2.47 152.789 62.134
2.48 153.384 62.279
2.49 154.148 62.189
2.50 155.239 62.063
2.51 156.071 61.879
2.52 156.683 61.339
2.53 156.771 59.859
2.54 151.542 56.937
2.55 --undefined-- 53.492
2.56 --undefined-- 51.953
2.57 --undefined-- 51.199
2.58 --undefined-- 51.070
2.59 --undefined-- 51.716
2.60 --undefined-- 50.427
2.61 --undefined-- 48.792
2.62 --undefined-- 50.147
2.63 --undefined-- 51.767
2.64 --undefined-- 53.064
2.65 --undefined-- 57.033
2.66 --undefined-- 61.580
2.67 190.060 64.866
2.68 181.787 66.675
2.69 172.864 66.779
2.70 164.023 65.911
2.71 160.990 65.444
2.72 160.750 65.387
2.73 161.069 65.012
2.74 161.206 64.148
2.75 158.937 62.877
2.76 156.276 61.596
2.77 157.865 61.541
2.78 165.169 62.958
2.79 171.765 64.736
2.80 172.202 66.855
2.81 169.949 68.843
2.82 165.683 69.851
2.83 165.427 70.065
2.84 167.389 69.428
2.85 168.370 67.255
2.86 173.686 64.682
2.87 192.040 64.322
2.88 201.240 64.396
2.89 216.915 64.306
2.90 228.146 64.950
2.91 238.344 65.842
2.92 253.288 66.479
2.93 260.282 66.944
2.94 268.185 67.828
2.95 276.755 69.637
2.96 277.721 71.763
2.97 277.014 73.414
2.98 273.511 74.330
2.99 268.063 74.484
3.00 260.738 73.885
3.01 --undefined-- 72.737
3.02 --undefined-- 71.487
3.03 --undefined-- 70.408
3.04 --undefined-- 68.895
3.05 --undefined-- 66.367
3.06 --undefined-- 63.327
3.07 --undefined-- 60.799
3.08 --undefined-- 58.621
3.09 --undefined-- 56.138
3.10 --undefined-- 54.414
3.11 --undefined-- 52.918
3.12 --undefined-- 50.010
3.13 --undefined-- 47.525
3.14 --undefined-- 48.630
3.15 --undefined-- 52.700
3.16 --undefined-- 55.430
3.17 --undefined-- 55.435
3.18 --undefined-- 53.421
3.19 --undefined-- 50.818
3.20 --undefined-- 48.984
3.21 --undefined-- 48.826
3.22 --undefined-- 49.644
3.23 --undefined-- 49.971
3.24 --undefined-- 49.435
3.25 --undefined-- 48.487
3.26 --undefined-- 49.323
3.27 --undefined-- 51.652
3.28 --undefined-- 52.722
3.29 --undefined-- 53.302
3.30 --undefined-- 54.744
3.31 --undefined-- 54.685
3.32 --undefined-- 52.602
3.33 --undefined-- 49.565
3.34 --undefined-- 46.866
3.35 --undefined-- 44.573
3.36 --undefined-- 46.069
3.37 --undefined-- 48.582
3.38 --undefined-- 48.908
3.39 --undefined-- 49.950
3.40 --undefined-- 50.868
3.41 --undefined-- 50.222
3.42 --undefined-- 54.761
3.43 --undefined-- 62.916
3.44 251.418 68.199
3.45 251.526 70.811
3.46 263.111 71.440
3.47 270.133 70.958
3.48 287.592 70.662
3.49 153.152 71.222
3.50 161.510 72.025
3.51 170.360 72.641
3.52 175.744 73.159
3.53 185.690 73.983
3.54 192.312 74.449
3.55 200.307 73.544
3.56 216.854 71.976
3.57 220.667 71.207
3.58 221.542 70.083
3.59 220.104 68.117
3.60 222.183 66.892
3.61 220.435 66.504
3.62 213.834 66.342
3.63 209.148 66.604
3.64 203.907 67.020
3.65 196.168 67.779
3.66 190.304 69.204
3.67 188.894 70.480
3.68 179.769 70.532
3.69 --undefined-- 69.259
3.70 270.921 67.762
3.71 243.038 66.895
3.72 224.479 66.665
3.73 207.773 66.881
3.74 193.584 67.529
3.75 185.795 67.894
3.76 188.793 66.987
3.77 191.831 65.224
3.78 184.134 63.902
3.79 175.562 62.737
3.80 169.792 61.541
3.81 165.949 60.557
3.82 166.074 59.969
3.83 165.624 59.864
3.84 165.710 59.787
3.85 166.140 59.508
3.86 166.542 58.530
3.87 167.012 55.924
3.88 --undefined-- 52.304
3.89 --undefined-- 52.262
3.90 --undefined-- 52.947
3.91 --undefined-- 51.334
3.92 --undefined-- 49.827
3.93 --undefined-- 50.284
3.94 --undefined-- 50.030
3.95 --undefined-- 50.110
3.96 --undefined-- 51.649
3.97 --undefined-- 53.410
3.98 203.679 55.351
3.99 203.777 58.263
4.00 210.468 61.084
4.01 208.997 63.484
4.02 189.816 65.651
4.03 176.981 66.628
4.04 166.101 66.322
4.05 159.347 66.012
4.06 160.166 65.971
4.07 161.338 65.288
4.08 162.574 63.937
4.09 163.544 62.864
4.10 164.717 62.481
4.11 163.500 62.797
4.12 170.122 63.668
4.13 173.275 63.976
4.14 177.619 63.981
4.15 185.804 64.762
4.16 194.044 65.998
4.17 216.633 67.652
4.18 222.714 69.563
4.19 230.093 71.098
4.20 232.917 72.451
4.21 232.645 73.720
4.22 229.643 74.673
4.23 224.304 74.736
4.24 --undefined-- 73.544
4.25 --undefined-- 71.118
4.26 --undefined-- 67.409
4.27 --undefined-- 62.466
4.28 --undefined-- 57.995
4.29 --undefined-- 56.183
4.30 --undefined-- 54.192
4.31 --undefined-- 51.159
4.32 --undefined-- 51.982
4.33 --undefined-- 54.124
4.34 --undefined-- 55.356
4.35 --undefined-- 55.907
4.36 --undefined-- 56.012
4.37 --undefined-- 54.476
4.38 --undefined-- 51.595
4.39 --undefined-- 50.465
4.40 --undefined-- 49.758
4.41 --undefined-- 48.574
4.42 --undefined-- 49.661
4.43 --undefined-- 51.625
4.44 --undefined-- 50.987
4.45 --undefined-- 48.719
4.46 --undefined-- 48.152
4.47 --undefined-- 49.562
4.48 --undefined-- 50.203
4.49 --undefined-- 52.755
4.50 --undefined-- 56.064
4.51 --undefined-- 57.170
4.52 --undefined-- 59.497
4.53 166.963 64.794
4.54 167.040 68.344
4.55 170.004 69.806
4.56 174.839 70.481
4.57 178.061 71.308
4.58 179.670 72.322
4.59 180.090 72.947
4.60 179.267 72.571
4.61 176.976 70.864
4.62 173.685 67.521
4.63 --undefined-- 62.328
4.64 --undefined-- 56.548
4.65 --undefined-- 53.443
4.66 --undefined-- 50.572
4.67 --undefined-- 49.127
4.68 --undefined-- 50.938
4.69 --undefined-- 50.978
4.70 --undefined-- 48.744
4.71 --undefined-- 48.237
4.72 --undefined-- 49.327
4.73 --undefined-- 48.805
4.74 --undefined-- 49.694
4.75 274.869 55.688
4.76 256.764 60.338
4.77 239.200 63.200
4.78 239.555 65.197
4.79 237.629 66.463
4.80 234.520 66.946
4.81 231.542 66.726
4.82 228.359 65.901
4.83 215.150 65.132
4.84 208.250 65.840
4.85 215.211 67.765
4.86 217.896 68.977
4.87 216.437 68.833
4.88 213.698 68.130
4.89 211.100 67.920
4.90 209.751 68.033
4.91 208.182 67.655
4.92 209.018 66.171
4.93 209.767 63.599
4.94 201.586 60.975
4.95 201.238 59.340
4.96 217.181 --undefined--
4.97 235.470 --undefined--
4.98 --undefined-- --undefined--
4.99 --undefined-- --undefined--
