Time Pitch Intensity
0.01 --undefined-- --undefined--
0.02 105.306 --undefined--
0.03 105.259 --undefined--
0.04 102.295 --undefined--
0.05 101.328 67.408
0.06 100.354 66.778
0.07 102.440 65.656
0.08 99.708 63.716
0.09 100.124 61.098
0.10 98.553 57.632
0.11 98.415 55.328
0.12 100.128 55.221
0.13 101.878 55.517
0.14 101.415 55.686
0.15 101.405 56.630
0.16 102.502 59.696
0.17 102.634 63.144
0.18 102.643 65.700
0.19 104.987 67.540
0.20 99.744 68.376
0.21 106.617 68.772
0.22 106.813 68.827
0.23 106.809 68.608
0.24 104.516 68.338
0.25 104.717 67.466
0.26 104.610 65.188
0.27 98.352 61.129
0.28 98.612 55.887
0.29 --undefined-- 51.848
0.30 --undefined-- 56.036
0.31 --undefined-- 62.760
0.32 --undefined-- 66.784
0.33 --undefined-- 68.721
0.34 97.573 69.519
0.35 96.792 69.458
0.36 91.068 69.111
0.37 96.349 68.734
0.38 91.247 67.781
0.39 92.343 65.741
0.40 --undefined-- 62.474
0.41 --undefined-- 57.657
0.42 --undefined-- 51.117
0.43 --undefined-- 45.451
0.44 --undefined-- 43.230
0.45 --undefined-- 41.238
0.46 --undefined-- 38.743
0.47 --undefined-- 36.688
0.48 --undefined-- 35.120
0.49 --undefined-- 35.165
0.50 --undefined-- 37.171
0.51 --undefined-- 37.747
0.52 --undefined-- 35.931
0.53 --undefined-- 34.354
0.54 --undefined-- 34.745
0.55 --undefined-- 35.655
0.56 --undefined-- 46.151
0.57 --undefined-- 59.217
0.58 --undefined-- 67.707
0.59 --undefined-- 72.518
0.60 --undefined-- 74.701
0.61 131.888 75.388
0.62 131.942 75.452
0.63 133.065 75.118
0.64 134.149 74.320
0.65 136.001 73.725
0.66 137.288 73.771
0.67 137.813 73.641
0.68 138.935 73.157
0.69 140.245 72.550
0.70 142.521 71.846
0.71 144.069 71.247
0.72 145.696 70.679
0.73 146.521 70.334
0.74 145.874 69.947
0.75 144.828 68.679
0.76 142.468 66.337
0.77 142.676 64.146
0.78 140.516 63.260
0.79 136.522 63.077
0.80 132.432 63.231
0.81 128.703 63.836
0.82 125.272 65.990
0.83 119.327 69.379
0.84 116.005 71.466
0.85 113.745 71.568
0.86 108.920 70.461
0.87 102.464 69.271
0.88 95.699 68.174
0.89 95.573 66.599
0.90 89.887 63.799
0.91 89.667 59.709
0.92 80.162 55.238
0.93 77.518 51.491
0.94 91.291 49.863
0.95 91.373 48.980
0.96 --undefined-- 46.838
0.97 --undefined-- 44.431
0.98 --undefined-- 43.989
0.99 --undefined-- 45.574
1.00 --undefined-- 47.335
1.01 --undefined-- 47.471
1.02 --undefined-- 46.255
1.03 --undefined-- 44.258
1.04 --undefined-- 41.321
1.05 --undefined-- 38.744
1.06 --undefined-- 41.551
1.07 --undefined-- 46.289
1.08 --undefined-- 49.673
1.09 --undefined-- 50.933
1.10 --undefined-- 50.898
1.11 --undefined-- 51.938
1.12 --undefined-- 53.746
1.13 --undefined-- 54.974
1.14 --undefined-- 55.514
1.15 --undefined-- 54.840
1.16 --undefined-- 52.170
1.17 --undefined-- 47.603
1.18 --undefined-- 43.090
1.19 --undefined-- 39.967
1.20 --undefined-- 37.769
1.21 --undefined-- 36.780
1.22 --undefined-- 38.344
1.23 --undefined-- 39.859
1.24 --undefined-- 39.940
1.25 --undefined-- 38.449
1.26 --undefined-- 36.834
1.27 --undefined-- 37.147
1.28 --undefined-- 38.041
1.29 --undefined-- 38.803
1.30 --undefined-- 39.550
1.31 --undefined-- 39.389
1.32 --undefined-- 38.413
1.33 --undefined-- 37.874
1.34 --undefined-- 37.037
1.35 --undefined-- 35.783
1.36 --undefined-- 35.597
1.37 --undefined-- 36.354
1.38 --undefined-- 37.163
1.39 --undefined-- 36.663
1.40 --undefined-- 34.723
1.41 --undefined-- 33.906
1.42 --undefined-- 45.406
1.43 --undefined-- 56.371
1.44 --undefined-- 63.456
1.45 --undefined-- 68.735
1.46 --undefined-- 72.020
1.47 --undefined-- 72.874
1.48 147.800 71.965
1.49 147.423 70.434
1.50 148.451 68.276
1.51 148.498 64.662
1.52 144.759 61.250
1.53 144.465 60.712
1.54 140.566 60.687
1.55 138.219 60.816
1.56 133.960 61.788
1.57 130.390 63.170
1.58 126.069 64.078
1.59 117.540 64.393
1.60 112.912 64.265
1.61 106.734 63.111
1.62 --undefined-- 60.053
1.63 --undefined-- 54.673
1.64 --undefined-- 49.830
1.65 --undefined-- 53.791
1.66 --undefined-- 58.582
1.67 --undefined-- 61.890
1.68 --undefined-- 65.647
1.69 --undefined-- 69.090
1.70 --undefined-- 71.085
1.71 --undefined-- 71.394
1.72 102.127 70.828
1.73 97.902 70.226
1.74 --undefined-- 69.497
1.75 --undefined-- 68.686
1.76 --undefined-- 68.001
1.77 --undefined-- 67.015
1.78 --undefined-- 65.824
1.79 --undefined-- 64.888
1.80 --undefined-- 63.869
1.81 --undefined-- 62.665
1.82 --undefined-- 60.982
1.83 --undefined-- 59.157
1.84 --undefined-- 56.680
1.85 --undefined-- 52.555
1.86 --undefined-- 46.649
1.87 --undefined-- 43.009
1.88 --undefined-- 50.071
1.89 --undefined-- 59.407
1.90 --undefined-- 66.259
1.91 120.400 70.368
1.92 103.134 72.042
1.93 91.374 71.629
1.94 97.269 70.154
1.95 97.117 68.612
1.96 95.900 66.558
1.97 95.521 63.905
1.98 95.072 60.658
1.99 94.905 56.945
2.00 --undefined-- 52.513
2.01 --undefined-- 47.403
2.02 --undefined-- 46.299
2.03 --undefined-- 49.134
2.04 --undefined-- 51.464
2.05 --undefined-- 52.865
2.06 --undefined-- 54.127
2.07 --undefined-- 57.781
2.08 --undefined-- 65.051
2.09 137.328 69.734
2.10 135.514 71.397
2.11 132.344 70.933
2.12 130.673 69.902
2.13 128.856 69.410
2.14 128.818 68.906
2.15 129.885 68.305
2.16 131.465 67.622
2.17 132.941 66.563
2.18 134.764 64.938
2.19 133.898 62.229
2.20 135.226 57.932
2.21 136.589 54.291
2.22 136.124 53.971
2.23 138.378 54.031
2.24 137.054 53.918
2.25 134.966 53.967
2.26 --undefined-- 54.308
2.27 --undefined-- 53.183
2.28 --undefined-- 49.106
2.29 --undefined-- 43.064
2.30 --undefined-- 41.305
2.31 --undefined-- 52.751
2.32 --undefined-- 62.347
2.33 --undefined-- 67.212
2.34 --undefined-- 67.845
2.35 --undefined-- 64.581
2.36 --undefined-- 60.913
2.37 --undefined-- 65.018
2.38 --undefined-- 68.947
2.39 --undefined-- 71.074
2.40 106.283 71.948
2.41 105.013 71.831
2.42 105.062 71.415
2.43 104.793 71.358
2.44 105.289 71.394
2.45 103.777 70.920
2.46 103.283 70.344
2.47 102.239 70.159
2.48 100.994 69.755
2.49 78.017 69.705
2.50 79.249 69.376
2.51 --undefined-- 69.118
2.52 99.034 69.992
2.53 114.118 70.162
2.54 112.916 68.692
2.55 115.531 65.498
2.56 118.456 62.496
2.57 119.777 61.471
2.58 120.517 60.704
2.59 121.877 59.192
2.60 121.167 56.574
2.61 --undefined-- 52.067
2.62 --undefined-- 45.203
2.63 --undefined-- 39.227
2.64 --undefined-- 43.972
2.65 --undefined-- 52.061
2.66 143.979 57.507
2.67 140.033 60.571
2.68 138.681 62.005
2.69 131.814 62.088
2.70 134.118 61.141
2.71 132.558 59.264
2.72 131.959 57.556
2.73 132.038 57.540
2.74 131.841 57.754
2.75 132.078 57.834
2.76 133.018 58.460
2.77 133.875 59.432
2.78 134.138 60.859
2.79 136.399 63.544
2.80 134.000 66.148
2.81 133.738 67.570
2.82 133.355 67.950
2.83 133.811 67.706
2.84 135.657 67.670
2.85 137.083 67.929
2.86 137.467 67.802
2.87 136.515 67.110
2.88 136.471 66.640
2.89 136.362 66.806
2.90 136.546 66.653
2.91 135.645 66.611
2.92 134.676 66.950
2.93 134.637 67.010
2.94 134.485 66.278
2.95 134.420 64.511
2.96 131.387 62.858
2.97 --undefined-- 64.680
2.98 --undefined-- 67.851
2.99 --undefined-- 69.741
3.00 --undefined-- 70.476
3.01 --undefined-- 71.286
3.02 124.643 72.527
3.03 --undefined-- 72.362
3.04 --undefined-- 70.566
3.05 --undefined-- 67.872
3.06 --undefined-- 63.764
3.07 --undefined-- 60.834
3.08 --undefined-- 61.638
3.09 --undefined-- 62.060
3.10 --undefined-- 61.784
3.11 --undefined-- 61.245
3.12 --undefined-- 59.605
3.13 --undefined-- 57.239
3.14 --undefined-- 54.960
3.15 --undefined-- 51.740
3.16 --undefined-- 49.396
3.17 --undefined-- 48.472
3.18 --undefined-- 47.649
3.19 --undefined-- 47.431
3.20 --undefined-- 46.588
3.21 --undefined-- 44.535
3.22 --undefined-- 42.396
3.23 --undefined-- 41.063
3.24 --undefined-- 40.061
3.25 --undefined-- 40.205
3.26 --undefined-- 46.845
3.27 --undefined-- 55.695
3.28 --undefined-- 63.263
3.29 --undefined-- 68.306
3.30 101.820 70.654
3.31 101.532 71.085
3.32 95.021 70.507
3.33 94.772 69.235
3.34 93.798 67.466
3.35 91.726 65.905
3.36 91.427 65.261
3.37 94.332 64.558
3.38 93.081 63.342
3.39 92.707 62.289
3.40 92.980 60.408
3.41 92.624 56.461
3.42 --undefined-- 51.519
3.43 --undefined-- 50.809
3.44 --undefined-- 52.590
3.45 --undefined-- 53.399
3.46 --undefined-- 53.716
3.47 --undefined-- 53.715
3.48 --undefined-- 52.901
3.49 --undefined-- 52.041
3.50 --undefined-- 52.838
3.51 --undefined-- 54.376
3.52 --undefined-- 57.119
3.53 --undefined-- 62.829
3.54 --undefined-- 67.354
3.55 106.788 69.539
3.56 106.124 70.133
3.57 98.539 69.716
3.58 93.598 68.646
3.59 93.881 68.053
3.60 92.980 67.681
3.61 92.639 67.431
3.62 92.940 67.490
3.63 92.276 66.282
3.64 99.684 63.856
3.65 99.118 62.082
3.66 99.386 60.866
3.67 99.326 59.067
3.68 95.272 55.586
3.69 --undefined-- 50.529
3.70 --undefined-- 45.467
3.71 --undefined-- 45.764
3.72 --undefined-- 49.909
3.73 --undefined-- 54.034
3.74 --undefined-- 56.772
3.75 --undefined-- 60.503
3.76 --undefined-- 64.892
3.77 101.209 67.236
3.78 89.062 67.856
3.79 89.799 68.075
3.80 86.626 68.003
3.81 86.315 67.212
3.82 86.052 66.119
3.83 87.633 65.199
3.84 86.590 63.834
3.85 --undefined-- 60.844
3.86 --undefined-- 55.063
3.87 --undefined-- 46.958
3.88 --undefined-- 42.801
3.89 --undefined-- 41.203
3.90 --undefined-- 44.720
3.91 --undefined-- 52.603
3.92 --undefined-- 57.877
3.93 --undefined-- 61.364
3.94 --undefined-- 63.921
3.95 --undefined-- 65.865
3.96 --undefined-- 66.874
3.97 92.250 66.483
3.98 95.387 65.011
3.99 95.741 63.269
4.00 --undefined-- 61.545
4.01 --undefined-- 61.119
4.02 --undefined-- 62.609
4.03 --undefined-- 63.603
4.04 --undefined-- 64.285
4.05 --undefined-- 65.529
4.06 --undefined-- 67.692
4.07 137.373 70.783
4.08 143.456 72.706
4.09 141.377 72.672
4.10 140.973 71.475
4.11 --undefined-- 70.695
4.12 --undefined-- 70.432
4.13 150.210 70.673
4.14 151.718 70.949
4.15 151.687 70.696
4.16 158.447 69.580
4.17 145.630 67.431
4.18 145.081 64.117
4.19 138.806 59.678
4.20 --undefined-- 55.307
4.21 --undefined-- 54.554
4.22 --undefined-- 55.718
4.23 --undefined-- 56.406
4.24 --undefined-- 57.350
4.25 --undefined-- 59.883
4.26 --undefined-- 63.480
4.27 117.320 66.991
4.28 117.504 69.359
4.29 103.525 70.539
4.30 --undefined-- 70.804
4.31 --undefined-- 69.981
4.32 --undefined-- 69.153
4.33 --undefined-- 68.167
4.34 --undefined-- 67.632
4.35 --undefined-- 68.175
4.36 --undefined-- 66.685
4.37 --undefined-- 63.652
4.38 --undefined-- 62.651
4.39 --undefined-- 62.609
4.40 --undefined-- 60.203
4.41 --undefined-- 56.022
4.42 --undefined-- 52.486
4.43 --undefined-- 48.782
4.44 --undefined-- 44.700
4.45 --undefined-- 41.342
4.46 --undefined-- 39.793
4.47 --undefined-- 39.377
4.48 --undefined-- 39.030
4.49 --undefined-- 39.033
4.50 --undefined-- 39.933
4.51 --undefined-- 41.043
4.52 --undefined-- 41.703
4.53 --undefined-- 45.178
4.54 --undefined-- 50.861
4.55 --undefined-- 54.102
4.56 --undefined-- 55.456
4.57 106.530 56.820
4.58 107.358 57.928
4.59 101.616 58.291
4.60 90.346 58.346
4.61 90.224 58.677
4.62 --undefined-- 59.571
4.63 --undefined-- 60.184
4.64 --undefined-- 60.648
4.65 --undefined-- 61.945
4.66 --undefined-- 62.544
4.67 --undefined-- 61.640
4.68 --undefined-- 60.640
4.69 --undefined-- 60.094
4.70 --undefined-- 58.821
4.71 --undefined-- 56.033
4.72 --undefined-- 52.748
4.73 --undefined-- 50.111
4.74 --undefined-- 46.935
4.75 --undefined-- 44.282
4.76 --undefined-- 43.745
4.77 --undefined-- 43.973
4.78 --undefined-- 43.581
4.79 --undefined-- 42.606
4.80 --undefined-- 42.642
4.81 --undefined-- 45.229
4.82 --undefined-- 51.895
4.83 --undefined-- 58.345
4.84 141.920 62.780
4.85 138.791 65.697
4.86 139.592 67.520
4.87 148.266 68.473
4.88 156.643 68.719
4.89 157.208 68.504
4.90 166.275 68.115
4.91 170.084 67.564
4.92 171.062 65.853
4.93 169.221 62.933
4.94 193.286 65.279
4.95 193.702 70.357
4.96 195.310 72.886
4.97 194.965 72.991
4.98 191.638 72.184
4.99 183.782 72.307
5.00 180.213 72.776
5.01 176.080 72.385
5.02 170.942 70.788
5.03 164.139 67.850
5.04 161.631 63.646
5.05 159.179 60.026
5.06 156.378 59.199
5.07 156.843 59.264
5.08 157.446 59.392
5.09 160.149 60.198
5.10 163.924 61.154
5.11 165.548 61.740
5.12 167.672 62.784
5.13 170.635 64.484
5.14 172.808 66.271
5.15 173.084 68.575
5.16 184.469 71.194
5.17 175.996 72.742
5.18 176.493 73.291
5.19 176.613 73.243
5.20 175.563 72.778
5.21 175.323 72.291
5.22 175.092 72.024
5.23 174.868 71.686
5.24 174.326 71.310
5.25 173.039 70.950
5.26 172.170 70.532
5.27 171.082 70.009
5.28 170.077 69.116
5.29 164.143 67.984
5.30 152.426 67.034
5.31 153.521 66.201
5.32 144.411 65.667
5.33 136.412 65.539
5.34 135.600 65.610
5.35 127.483 65.642
5.36 125.535 65.766
5.37 123.320 65.827
5.38 121.682 65.601
5.39 121.072 65.044
5.40 117.222 63.993
5.41 116.918 62.164
5.42 115.257 59.366
5.43 --undefined-- 56.556
5.44 --undefined-- 55.727
5.45 --undefined-- 55.819
5.46 --undefined-- 56.230
5.47 --undefined-- 56.341
5.48 --undefined-- 55.566
5.49 --undefined-- 54.554
5.50 --undefined-- 53.943
5.51 --undefined-- 53.612
5.52 --undefined-- 54.235
5.53 --undefined-- 55.060
5.54 --undefined-- 55.222
5.55 --undefined-- 57.918
5.56 --undefined-- 63.453
5.57 151.332 67.391
5.58 150.157 69.330
5.59 150.950 69.943
5.60 154.933 70.057
5.61 154.707 70.132
5.62 153.694 70.008
5.63 153.103 70.104
5.64 153.123 70.219
5.65 152.458 --undefined--
5.66 150.910 --undefined--
5.67 --undefined-- --undefined--
5.68 --undefined-- --undefined--
