Time Pitch Intensity
0.01 --undefined-- --undefined--
0.02 171.206 --undefined--
0.03 177.818 --undefined--
0.04 182.941 --undefined--
0.05 185.520 78.365
0.06 184.990 78.489
0.07 180.288 78.226
0.08 174.451 77.993
0.09 166.543 77.997
0.10 160.172 78.018
0.11 153.759 77.695
0.12 147.706 77.139
0.13 144.571 76.657
0.14 140.283 76.040
0.15 139.567 75.599
0.16 141.273 76.252
0.17 152.196 77.854
0.18 153.374 79.038
0.19 153.817 79.339
0.20 156.080 79.227
0.21 158.069 79.114
0.22 158.812 78.962
0.23 159.546 78.640
0.24 160.861 77.986
0.25 159.783 76.816
0.26 --undefined-- 75.052
0.27 --undefined-- 72.803
0.28 --undefined-- 69.296
0.29 --undefined-- 64.779
0.30 --undefined-- 66.784
0.31 --undefined-- 71.285
0.32 --undefined-- 74.952
0.33 --undefined-- 77.584
0.34 151.182 78.841
0.35 145.322 79.293
0.36 141.723 79.484
0.37 138.430 79.425
0.38 135.164 78.943
0.39 132.190 78.296
0.40 131.530 77.939
0.41 131.625 77.775
0.42 131.797 77.536
0.43 132.437 77.314
0.44 133.636 77.344
0.45 135.198 77.698
0.46 136.042 78.202
0.47 135.936 78.658
0.48 134.810 78.934
0.49 133.281 78.514
0.50 131.303 76.482
0.51 126.847 72.064
0.52 135.829 65.280
0.53 --undefined-- 57.268
0.54 --undefined-- 55.093
0.55 --undefined-- 57.553
0.56 --undefined-- 60.842
0.57 --undefined-- 68.270
0.58 --undefined-- 74.829
0.59 176.141 77.826
0.60 170.641 78.054
0.61 164.938 77.422
0.62 163.140 77.390
0.63 162.964 77.737
0.64 164.082 78.141
0.65 165.542 78.406
0.66 165.246 78.412
0.67 163.988 77.941
0.68 162.789 76.375
0.69 161.576 73.189
0.70 161.921 68.867
0.71 162.834 64.193
0.72 163.872 58.706
0.73 162.427 54.105
0.74 --undefined-- 51.539
0.75 --undefined-- 49.382
0.76 --undefined-- 47.702
0.77 --undefined-- 49.807
0.78 --undefined-- 56.166
0.79 --undefined-- 62.015
0.80 --undefined-- 68.949
0.81 --undefined-- 73.696
0.82 124.305 75.698
0.83 118.548 76.129
0.84 114.086 76.128
0.85 111.787 76.488
0.86 110.862 77.392
0.87 110.864 78.042
0.88 110.652 78.197
0.89 110.708 78.145
0.90 109.811 78.000
0.91 111.968 77.932
0.92 117.449 78.031
0.93 120.351 78.117
0.94 123.855 77.973
0.95 128.254 77.616
0.96 135.784 77.390
0.97 140.999 77.580
0.98 144.925 77.922
0.99 149.252 78.010
1.00 153.548 77.902
1.01 156.946 77.942
1.02 159.292 78.198
1.03 160.495 78.367
1.04 161.114 77.899
1.05 161.948 76.073
1.06 163.748 72.133
1.07 --undefined-- 67.119
1.08 --undefined-- 67.170
1.09 --undefined-- 67.577
1.10 --undefined-- 65.945
1.11 --undefined-- 64.166
1.12 --undefined-- 62.948
1.13 --undefined-- 61.897
1.14 --undefined-- 64.976
1.15 --undefined-- 71.494
1.16 --undefined-- 75.714
1.17 110.274 77.666
1.18 107.685 78.280
1.19 104.443 78.263
1.20 103.274 77.962
1.21 104.499 77.625
1.22 106.425 77.434
1.23 107.788 77.269
1.24 110.956 77.080
1.25 116.434 77.081
1.26 120.470 77.453
1.27 124.644 78.227
1.28 130.042 79.110
1.29 134.894 79.628
1.30 137.651 79.581
1.31 139.790 79.234
1.32 141.742 78.968
1.33 142.923 78.960
1.34 146.348 79.086
1.35 143.269 79.023
1.36 143.886 79.006
1.37 144.426 79.241
1.38 144.428 79.189
1.39 144.355 78.673
1.40 145.141 77.959
1.41 146.358 77.164
1.42 145.748 76.614
1.43 147.853 77.088
1.44 149.249 77.920
1.45 147.742 78.469
1.46 145.688 78.815
1.47 143.502 78.899
1.48 140.548 78.619
1.49 136.907 78.138
1.50 134.273 77.955
1.51 129.495 78.198
1.52 126.724 78.369
1.53 122.923 78.280
1.54 121.411 78.051
1.55 120.226 77.704
1.56 118.463 77.208
1.57 116.402 76.877
1.58 118.888 77.024
1.59 120.061 77.281
1.60 120.585 77.217
1.61 120.683 76.630
1.62 119.357 75.238
1.63 115.487 72.574
1.64 93.210 68.668
1.65 --undefined-- 68.946
1.66 --undefined-- 74.571
1.67 141.562 77.708
1.68 132.553 78.218
1.69 126.470 77.963
1.70 125.169 78.180
1.71 125.730 78.305
1.72 126.577 78.329
1.73 126.816 78.436
1.74 125.333 78.087
1.75 121.072 76.332
1.76 115.984 72.617
1.77 116.822 66.981
1.78 118.654 60.351
1.79 119.669 55.684
1.80 --undefined-- 56.166
1.81 --undefined-- 58.163
1.82 --undefined-- 61.122
1.83 --undefined-- 67.777
1.84 --undefined-- 73.220
1.85 128.324 76.252
1.86 125.903 77.441
1.87 123.043 77.327
1.88 118.749 76.032
1.89 117.287 74.084
1.90 122.880 73.437
1.91 127.378 74.893
1.92 133.058 77.079
1.93 142.587 78.741
1.94 147.439 79.205
1.95 151.617 78.860
1.96 155.841 78.580
1.97 158.621 78.588
1.98 159.502 78.646
1.99 157.968 78.427
2.00 154.257 77.765
2.01 148.968 76.947
2.02 143.500 76.204
2.03 137.724 74.963
2.04 129.884 72.649
2.05 121.375 69.298
2.06 145.094 65.017
2.07 151.861 59.314
2.08 --undefined-- 52.779
2.09 --undefined-- 50.031
2.10 --undefined-- 50.204
2.11 --undefined-- 54.801
2.12 --undefined-- 63.734
2.13 --undefined-- 71.405
2.14 --undefined-- 76.139
2.15 137.886 77.925
2.16 125.237 77.639
2.17 117.944 76.498
2.18 114.799 74.389
2.19 112.302 70.140
2.20 101.017 63.386
2.21 117.890 57.481
2.22 122.628 55.195
2.23 --undefined-- 52.378
2.24 --undefined-- 48.271
2.25 --undefined-- 46.033
2.26 --undefined-- 47.539
2.27 --undefined-- 48.627
2.28 --undefined-- 48.845
2.29 --undefined-- 55.048
2.30 --undefined-- 66.236
2.31 189.418 73.944
2.32 174.986 78.007
2.33 166.059 79.374
2.34 162.772 79.368
2.35 159.021 79.318
2.36 159.441 79.470
2.37 160.271 79.535
2.38 160.679 79.459
2.39 162.158 79.443
2.40 164.550 79.544
2.41 164.531 79.504
2.42 163.436 79.409
2.43 160.628 79.313
2.44 157.521 78.889
2.45 153.673 77.429
2.46 152.721 74.088
2.47 162.016 68.463
2.48 162.022 62.984
2.49 --undefined-- 62.389
2.50 --undefined-- 63.186
2.51 --undefined-- 63.854
2.52 --undefined-- 63.764
2.53 --undefined-- 63.190
2.54 --undefined-- 62.939
2.55 --undefined-- 62.431
2.56 --undefined-- 62.110
2.57 --undefined-- 66.963
2.58 144.641 72.234
2.59 128.435 75.158
2.60 126.234 76.552
2.61 126.678 77.324
2.62 127.658 77.811
2.63 130.058 78.041
2.64 133.966 78.140
2.65 138.756 78.343
2.66 143.027 78.545
2.67 146.751 78.443
2.68 149.093 78.086
2.69 150.479 77.786
2.70 150.108 77.596
2.71 148.370 77.436
2.72 145.649 77.397
2.73 142.998 77.570
2.74 141.065 78.024
2.75 139.206 78.577
2.76 136.817 78.621
2.77 133.506 77.462
2.78 124.400 74.641
2.79 123.555 70.879
2.80 134.621 70.989
2.81 140.354 75.152
2.82 140.989 78.122
2.83 140.047 79.063
2.84 132.658 78.562
2.85 126.421 77.909
2.86 126.083 77.835
2.87 125.027 77.589
2.88 124.141 76.804
2.89 124.048 75.755
2.90 125.143 75.005
2.91 125.792 75.016
2.92 130.259 76.090
2.93 136.418 77.672
2.94 137.581 78.843
2.95 138.788 79.295
2.96 139.323 79.174
2.97 138.738 78.928
2.98 139.896 78.855
2.99 141.476 78.797
3.00 143.102 78.540
3.01 144.146 78.494
3.02 144.499 78.671
3.03 144.028 78.549
3.04 142.862 77.805
3.05 141.940 75.814
3.06 137.666 71.892
3.07 135.158 65.772
3.08 --undefined-- 59.260
3.09 --undefined-- 57.025
3.10 --undefined-- 63.169
3.11 --undefined-- 71.494
3.12 --undefined-- 76.032
3.13 124.638 77.181
3.14 125.848 75.769
3.15 --undefined-- 72.418
3.16 --undefined-- 68.097
3.17 163.860 65.689
3.18 158.174 65.384
3.19 156.490 66.847
3.20 138.691 70.275
3.21 135.873 73.816
3.22 129.177 76.417
3.23 140.993 78.290
3.24 139.527 78.985
3.25 139.629 78.951
3.26 143.365 78.964
3.27 146.019 78.832
3.28 145.939 78.416
3.29 145.700 77.449
3.30 144.410 75.500
3.31 143.824 73.320
3.32 142.658 72.819
3.33 138.025 73.628
3.34 132.970 74.696
3.35 130.017 76.254
3.36 129.807 77.876
3.37 126.009 78.464
3.38 119.518 77.381
3.39 113.980 74.235
3.40 --undefined-- 68.605
3.41 121.529 60.614
3.42 120.826 54.326
3.43 --undefined-- 51.674
3.44 --undefined-- 49.886
3.45 --undefined-- 48.696
3.46 --undefined-- 46.417
3.47 --undefined-- 43.248
3.48 --undefined-- 42.000
3.49 --undefined-- 42.330
3.50 --undefined-- 42.443
3.51 --undefined-- 42.156
3.52 --undefined-- 46.558
3.53 --undefined-- 59.965
3.54 --undefined-- 70.098
3.55 183.641 75.901
3.56 162.222 78.319
3.57 157.188 78.685
3.58 154.979 78.510
3.59 152.216 78.450
3.60 150.792 78.539
3.61 150.562 78.675
3.62 149.816 78.712
3.63 148.142 78.284
3.64 145.279 76.896
3.65 134.276 74.579
3.66 129.884 72.673
3.67 130.022 73.404
3.68 136.485 75.448
3.69 131.997 76.818
3.70 125.887 77.671
3.71 120.793 78.294
3.72 110.847 78.367
3.73 107.942 78.059
3.74 105.140 77.849
3.75 108.288 77.650
3.76 106.999 76.608
3.77 109.980 74.048
3.78 111.671 69.805
3.79 111.625 64.235
3.80 --undefined-- 58.893
3.81 --undefined-- 56.007
3.82 --undefined-- 55.449
3.83 --undefined-- 55.857
3.84 --undefined-- 57.208
3.85 --undefined-- 60.586
3.86 --undefined-- 68.747
3.87 168.679 75.054
3.88 157.423 77.837
3.89 148.383 77.850
3.90 141.095 76.722
3.91 142.275 76.358
3.92 142.842 76.525
3.93 142.228 76.503
3.94 140.885 76.240
3.95 140.837 75.939
3.96 141.325 75.795
3.97 141.223 75.691
3.98 140.829 75.570
3.99 140.720 75.452
4.00 139.834 75.337
4.01 139.226 75.465
4.02 137.139 76.119
4.03 137.241 77.096
4.04 136.540 77.671
4.05 134.685 77.807
4.06 134.462 77.933
4.07 135.131 77.930
4.08 134.173 77.455
4.09 133.640 76.820
4.10 137.158 76.447
4.11 136.078 76.127
4.12 134.642 75.933
4.13 135.235 76.166
4.14 135.663 76.730
4.15 134.422 77.231
4.16 132.686 77.431
4.17 131.961 76.870
4.18 132.832 74.665
4.19 137.663 69.982
4.20 134.775 62.378
4.21 133.122 57.144
4.22 130.503 57.377
4.23 133.984 56.419
4.24 132.514 54.222
4.25 --undefined-- 53.864
4.26 --undefined-- 63.139
4.27 --undefined-- 70.653
4.28 149.919 74.754
4.29 139.603 76.454
4.30 136.038 76.692
4.31 134.297 76.113
4.32 130.827 75.068
4.33 129.397 73.649
4.34 128.165 71.687
4.35 129.801 68.748
4.36 135.821 64.268
4.37 --undefined-- 57.430
4.38 --undefined-- 51.523
4.39 --undefined-- 53.462
4.40 --undefined-- 59.403
4.41 --undefined-- 68.734
4.42 --undefined-- 75.366
4.43 161.403 78.572
4.44 146.776 78.978
4.45 135.007 77.958
4.46 130.373 76.957
4.47 121.728 76.654
4.48 107.184 76.824
4.49 107.571 77.138
4.50 107.249 77.454
4.51 105.405 77.643
4.52 105.781 77.688
4.53 107.251 77.756
4.54 106.401 77.657
4.55 107.684 77.324
4.56 108.517 77.309
4.57 111.574 77.851
4.58 113.185 78.599
4.59 113.847 79.269
4.60 115.612 79.450
4.61 113.021 78.820
4.62 109.854 77.948
4.63 107.364 77.283
4.64 105.371 76.537
4.65 103.635 75.488
4.66 110.885 73.625
4.67 109.538 70.658
4.68 105.573 66.862
4.69 --undefined-- 62.102
4.70 --undefined-- 55.902
4.71 --undefined-- 52.555
4.72 --undefined-- 53.636
4.73 --undefined-- 55.021
4.74 --undefined-- 56.781
4.75 --undefined-- 58.671
4.76 --undefined-- 59.906
4.77 --undefined-- 60.276
4.78 --undefined-- 59.936
4.79 --undefined-- 59.243
4.80 --undefined-- 58.896
4.81 --undefined-- 58.593
4.82 --undefined-- 58.110
4.83 --undefined-- 58.071
4.84 --undefined-- 58.104
4.85 --undefined-- 57.711
4.86 --undefined-- 57.385
4.87 --undefined-- 58.078
4.88 189.438 59.641
4.89 190.915 61.608
4.90 190.563 63.348
4.91 187.708 63.993
4.92 180.052 63.310
4.93 168.327 61.489
4.94 161.730 58.459
4.95 --undefined-- 54.069
4.96 --undefined-- 49.706
4.97 --undefined-- 47.975
4.98 --undefined-- 46.686
4.99 --undefined-- 53.870
5.00 --undefined-- 65.704
5.01 214.743 73.245
5.02 205.731 77.595
5.03 203.080 79.900
5.04 201.489 80.777
5.05 197.801 80.513
5.06 191.870 79.770
5.07 188.060 79.300
5.08 184.261 79.102
5.09 180.115 78.966
5.10 174.567 --undefined--
5.11 168.963 --undefined--
5.12 --undefined-- --undefined--
5.13 --undefined-- --undefined--
