Time Pitch Intensity
0.01 --undefined-- --undefined--
0.02 --undefined-- --undefined--
0.03 --undefined-- --undefined--
0.04 --undefined-- --undefined--
0.05 --undefined-- 62.304
0.06 --undefined-- 66.334
0.07 --undefined-- 72.466
0.08 --undefined-- 76.272
0.09 --undefined-- 77.639
0.10 --undefined-- 77.654
0.11 --undefined-- 77.230
0.12 102.421 76.857
0.13 101.741 76.476
0.14 102.215 76.283
0.15 103.515 76.616
0.16 104.852 77.083
0.17 106.680 77.224
0.18 108.315 76.948
0.19 109.403 76.641
0.20 111.128 76.522
0.21 112.972 76.709
0.22 113.923 76.904
0.23 114.723 76.457
0.24 118.450 75.690
0.25 120.973 75.509
0.26 122.406 75.185
0.27 123.466 73.815
0.28 124.745 71.336
0.29 126.243 68.476
0.30 126.305 65.902
0.31 126.114 62.844
0.32 126.194 58.242
0.33 --undefined-- 52.670
0.34 --undefined-- 47.935
0.35 --undefined-- 43.806
0.36 --undefined-- 40.960
0.37 --undefined-- 40.592
0.38 --undefined-- 42.320
0.39 --undefined-- 42.221
0.40 --undefined-- 39.528
0.41 --undefined-- 38.685
0.42 --undefined-- 41.118
0.43 --undefined-- 41.631
0.44 --undefined-- 40.589
0.45 --undefined-- 41.524
0.46 --undefined-- 42.324
0.47 --undefined-- 40.793
0.48 --undefined-- 38.364
0.49 --undefined-- 37.791
0.50 --undefined-- 37.614
0.51 --undefined-- 37.769
0.52 --undefined-- 38.372
0.53 --undefined-- 37.934
0.54 --undefined-- 38.386
0.55 --undefined-- 42.332
0.56 --undefined-- 46.431
0.57 --undefined-- 51.366
0.58 --undefined-- 57.265
0.59 --undefined-- 61.204
0.60 --undefined-- 63.807
0.61 --undefined-- 65.970
0.62 105.891 67.600
0.63 104.762 68.502
0.64 103.502 68.828
0.65 103.926 68.689
0.66 104.978 67.318
0.67 104.865 64.019
0.68 103.999 59.257
0.69 --undefined-- 53.727
0.70 --undefined-- 47.687
0.71 --undefined-- 42.148
0.72 --undefined-- 39.681
0.73 --undefined-- 43.394
0.74 --undefined-- 48.913
0.75 --undefined-- 52.860
0.76 --undefined-- 57.636
0.77 --undefined-- 63.221
0.78 119.305 66.932
0.79 118.120 68.689
0.80 114.657 68.719
0.81 111.372 66.795
0.82 111.250 63.634
0.83 112.669 61.861
0.84 110.790 61.492
0.85 109.726 60.965
0.86 108.353 59.999
0.87 107.626 61.220
0.88 111.595 66.223
0.89 113.641 70.637
0.90 113.429 73.008
0.91 106.284 73.724
0.92 104.117 73.645
0.93 105.883 73.217
0.94 --undefined-- 72.886
0.95 110.899 72.747
0.96 110.325 72.392
0.97 110.719 71.872
0.98 110.633 71.322
0.99 110.679 70.816
1.00 110.884 70.612
1.01 110.708 70.963
1.02 109.791 71.594
1.03 110.418 72.228
1.04 110.749 72.554
1.05 110.804 72.528
1.06 111.658 72.469
1.07 113.459 72.372
1.08 114.865 72.072
1.09 116.331 71.369
1.10 118.817 70.396
1.11 122.150 69.608
1.12 125.404 68.858
1.13 129.341 68.473
1.14 131.607 69.127
1.15 131.915 70.099
1.16 131.729 70.736
1.17 131.392 71.129
1.18 131.793 71.429
1.19 132.566 71.682
1.20 133.093 71.969
1.21 133.451 72.557
1.22 132.552 73.504
1.23 131.708 74.322
1.24 129.933 74.736
1.25 125.327 74.798
1.26 123.310 74.701
1.27 116.576 74.026
1.28 115.909 71.882
1.29 115.606 68.395
1.30 120.502 64.331
1.31 121.029 59.581
1.32 --undefined-- 54.138
1.33 --undefined-- 48.799
1.34 --undefined-- 44.407
1.35 --undefined-- 41.282
1.36 --undefined-- 39.283
1.37 --undefined-- 43.363
1.38 --undefined-- 49.104
1.39 --undefined-- 52.031
1.40 --undefined-- 55.757
1.41 --undefined-- 60.426
1.42 92.184 62.549
1.43 89.707 62.220
1.44 87.748 60.402
1.45 108.130 57.374
1.46 --undefined-- 53.499
1.47 --undefined-- 50.891
1.48 --undefined-- 49.854
1.49 --undefined-- 50.734
1.50 --undefined-- 51.789
1.51 --undefined-- 52.418
1.52 106.251 53.934
1.53 111.068 55.820
1.54 116.278 56.879
1.55 115.691 56.673
1.56 117.458 55.068
1.57 --undefined-- 51.700
1.58 --undefined-- 46.833
1.59 --undefined-- 42.995
1.60 --undefined-- 42.521
1.61 --undefined-- 44.115
1.62 --undefined-- 45.907
1.63 --undefined-- 47.431
1.64 --undefined-- 50.606
1.65 --undefined-- 54.017
1.66 --undefined-- 55.754
1.67 --undefined-- 56.926
1.68 --undefined-- 59.188
1.69 --undefined-- 63.797
1.70 115.344 68.888
1.71 106.688 71.864
1.72 106.919 72.151
1.73 93.372 70.854
1.74 89.792 70.348
1.75 89.389 69.362
1.76 --undefined-- 66.947
1.77 --undefined-- 64.140
1.78 --undefined-- 60.001
1.79 --undefined-- 53.497
1.80 --undefined-- 47.732
1.81 --undefined-- 42.694
1.82 --undefined-- 38.503
1.83 --undefined-- 37.039
1.84 --undefined-- 37.067
1.85 --undefined-- 36.654
1.86 --undefined-- 36.146
1.87 --undefined-- 35.284
1.88 --undefined-- 35.388
1.89 --undefined-- 39.562
1.90 --undefined-- 42.415
1.91 --undefined-- 41.656
1.92 --undefined-- 37.786
1.93 --undefined-- 36.507
1.94 --undefined-- 46.435
1.95 --undefined-- 56.559
1.96 --undefined-- 62.723
1.97 --undefined-- 65.359
1.98 --undefined-- 64.832
1.99 --undefined-- 61.412
2.00 119.404 57.386
2.01 126.592 57.167
2.02 128.401 58.070
2.03 129.073 59.135
2.04 129.142 60.993
2.05 130.405 64.076
2.06 130.226 66.467
2.07 129.236 66.706
2.08 127.961 64.467
2.09 --undefined-- 59.732
2.10 --undefined-- 52.992
2.11 --undefined-- 46.524
2.12 --undefined-- 43.122
2.13 --undefined-- 52.482
2.14 --undefined-- 61.522
2.15 --undefined-- 66.727
2.16 --undefined-- 69.266
2.17 --undefined-- 70.591
2.18 120.969 71.412
2.19 116.542 71.304
2.20 114.330 69.597
2.21 113.177 65.876
2.22 109.322 60.546
2.23 106.586 56.559
2.24 102.874 55.252
2.25 98.969 54.384
2.26 96.270 53.387
2.27 --undefined-- 53.530
2.28 --undefined-- 55.689
2.29 --undefined-- 57.348
2.30 --undefined-- 56.986
2.31 --undefined-- 54.100
2.32 --undefined-- 49.644
2.33 --undefined-- 47.457
2.34 --undefined-- 46.811
2.35 --undefined-- 45.175
2.36 --undefined-- 44.845
2.37 --undefined-- 45.927
2.38 --undefined-- 46.709
2.39 --undefined-- 46.283
2.40 --undefined-- 43.585
2.41 --undefined-- 39.989
2.42 --undefined-- 41.093
2.43 --undefined-- 45.070
2.44 --undefined-- 47.420
2.45 --undefined-- 51.292
2.46 --undefined-- 56.084
2.47 92.922 58.677
2.48 97.018 59.175
2.49 100.143 58.215
2.50 100.305 56.763
2.51 103.844 55.456
2.52 104.273 54.837
2.53 105.402 55.274
2.54 104.086 55.537
2.55 102.791 54.403
2.56 --undefined-- 51.286
2.57 --undefined-- 46.413
2.58 --undefined-- 42.689
2.59 --undefined-- 43.428
2.60 --undefined-- 45.850
2.61 --undefined-- 47.906
2.62 --undefined-- 50.905
2.63 --undefined-- 55.371
2.64 --undefined-- 59.113
2.65 --undefined-- 61.504
2.66 114.689 63.028
2.67 113.351 64.170
2.68 111.937 64.576
2.69 111.624 64.575
2.70 112.079 64.707
2.71 113.574 64.558
2.72 116.441 64.119
2.73 118.273 63.316
2.74 120.670 61.312
2.75 122.084 58.582
2.76 122.197 57.506
2.77 122.241 57.568
2.78 121.699 57.664
2.79 120.261 58.521
2.80 120.705 61.623
2.81 122.545 64.509
2.82 120.415 65.519
2.83 118.647 65.242
2.84 118.964 64.361
2.85 119.073 63.041
2.86 119.524 61.776
2.87 119.239 60.876
2.88 118.438 59.906
2.89 116.957 58.212
2.90 113.490 54.885
2.91 --undefined-- 49.276
2.92 --undefined-- 42.826
2.93 --undefined-- 41.545
2.94 --undefined-- 43.988
2.95 --undefined-- 46.645
2.96 --undefined-- 48.554
2.97 --undefined-- 48.859
2.98 --undefined-- 47.824
2.99 --undefined-- 47.830
3.00 --undefined-- 52.731
3.01 --undefined-- 59.341
3.02 134.466 63.695
3.03 132.620 65.907
3.04 131.285 66.613
3.05 121.352 66.644
3.06 116.109 66.243
3.07 114.345 64.983
3.08 111.774 63.232
3.09 108.449 61.815
3.10 106.952 61.080
3.11 106.731 61.644
3.12 105.610 63.597
3.13 103.431 65.790
3.14 100.711 67.552
3.15 100.456 68.700
3.16 99.635 68.915
3.17 98.765 68.213
3.18 98.977 66.760
3.19 99.229 63.867
3.20 99.503 58.767
3.21 --undefined-- 51.657
3.22 --undefined-- 46.133
3.23 --undefined-- 44.658
3.24 --undefined-- 45.619
3.25 --undefined-- 49.024
3.26 --undefined-- 52.000
3.27 --undefined-- 59.751
3.28 --undefined-- 67.983
3.29 125.155 72.723
3.30 112.710 74.370
3.31 109.461 73.681
3.32 107.211 71.546
3.33 102.147 68.443
3.34 101.434 64.627
3.35 102.670 61.592
3.36 104.607 60.683
3.37 105.196 61.558
3.38 105.500 63.759
3.39 107.457 65.797
3.40 108.836 66.417
3.41 109.385 65.026
3.42 --undefined-- 61.402
3.43 --undefined-- 56.062
3.44 --undefined-- 50.398
3.45 --undefined-- 45.606
3.46 --undefined-- 42.809
3.47 --undefined-- 41.260
3.48 --undefined-- 41.914
3.49 --undefined-- 45.445
3.50 --undefined-- 48.696
3.51 --undefined-- 50.286
3.52 --undefined-- 50.469
3.53 --undefined-- 50.484
3.54 --undefined-- 54.643
3.55 --undefined-- 60.780
3.56 --undefined-- 64.856
3.57 --undefined-- 66.220
3.58 --undefined-- 65.144
3.59 --undefined-- 62.765
3.60 --undefined-- 60.520
3.61 --undefined-- 59.756
3.62 --undefined-- 58.543
3.63 --undefined-- 54.004
3.64 --undefined-- 45.785
3.65 --undefined-- 38.916
3.66 --undefined-- 38.628
3.67 --undefined-- 38.881
3.68 --undefined-- 38.551
3.69 --undefined-- 38.880
3.70 --undefined-- 39.290
3.71 --undefined-- 42.078
3.72 --undefined-- 47.673
3.73 --undefined-- 50.861
3.74 --undefined-- 51.857
3.75 --undefined-- 51.964
3.76 --undefined-- 53.530
3.77 --undefined-- 60.858
3.78 --undefined-- 66.925
3.79 124.492 70.674
3.80 124.888 73.126
3.81 124.873 75.015
3.82 124.181 76.583
3.83 121.568 77.561
3.84 118.831 77.657
3.85 117.410 77.671
3.86 113.887 77.943
3.87 112.233 77.160
3.88 --undefined-- 74.758
3.89 --undefined-- 72.352
3.90 --undefined-- 71.524
3.91 --undefined-- 71.788
3.92 133.687 72.598
3.93 135.973 73.614
3.94 138.031 74.342
3.95 141.616 74.549
3.96 146.433 74.266
3.97 149.647 73.679
3.98 149.269 72.931
3.99 149.079 72.053
4.00 148.323 70.865
4.01 146.260 68.834
4.02 143.319 65.246
4.03 139.271 59.930
4.04 --undefined-- 53.778
4.05 --undefined-- 48.328
4.06 --undefined-- 46.258
4.07 --undefined-- 52.956
4.08 --undefined-- 58.731
4.09 --undefined-- 60.528
4.10 --undefined-- 58.538
4.11 --undefined-- 54.688
4.12 --undefined-- 52.580
4.13 --undefined-- 51.730
4.14 --undefined-- 52.060
4.15 --undefined-- 58.100
4.16 172.870 66.166
4.17 168.594 71.250
4.18 158.105 73.657
4.19 146.990 73.972
4.20 140.066 73.366
4.21 136.823 73.034
4.22 135.244 73.022
4.23 133.247 72.898
4.24 132.469 72.451
4.25 131.643 71.865
4.26 129.565 71.642
4.27 128.003 72.008
4.28 126.431 72.468
4.29 124.908 72.540
4.30 122.442 72.216
4.31 120.557 71.760
4.32 118.982 71.128
4.33 116.258 70.070
4.34 112.839 69.040
4.35 109.397 68.747
4.36 108.033 69.295
4.37 106.252 70.079
4.38 103.552 70.720
4.39 102.613 71.330
4.40 101.650 71.712
4.41 99.430 71.844
4.42 98.460 72.215
4.43 98.585 72.725
4.44 98.747 72.894
4.45 98.792 72.766
4.46 97.706 72.538
4.47 98.198 72.149
4.48 99.852 70.988
4.49 297.605 68.908
4.50 290.460 66.819
4.51 271.510 64.987
4.52 255.584 64.272
4.53 252.097 62.462
4.54 --undefined-- 57.643
4.55 --undefined-- 51.363
4.56 --undefined-- 46.697
4.57 --undefined-- 45.225
4.58 --undefined-- 44.798
4.59 --undefined-- 47.896
4.60 --undefined-- 53.906
4.61 --undefined-- 59.932
4.62 --undefined-- 65.182
4.63 --undefined-- 67.988
4.64 --undefined-- 68.288
4.65 101.417 66.495
4.66 100.094 63.563
4.67 99.413 61.157
4.68 99.947 59.956
4.69 99.960 59.082
4.70 100.174 58.150
4.71 101.415 57.625
4.72 102.227 59.766
4.73 104.084 64.176
4.74 100.423 67.418
4.75 100.575 68.848
4.76 100.185 68.925
4.77 99.837 68.397
4.78 99.143 67.662
4.79 99.990 66.758
4.80 99.947 65.814
4.81 --undefined-- 64.395
4.82 --undefined-- 62.679
4.83 --undefined-- 61.773
4.84 --undefined-- 61.256
4.85 --undefined-- 58.701
4.86 --undefined-- 55.000
4.87 --undefined-- 52.861
4.88 --undefined-- 50.716
4.89 --undefined-- 47.161
4.90 --undefined-- 42.228
4.91 --undefined-- 37.817
4.92 --undefined-- 35.162
4.93 --undefined-- 33.024
4.94 --undefined-- 34.016
4.95 --undefined-- 36.937
4.96 --undefined-- 38.525
4.97 --undefined-- 37.463
4.98 --undefined-- 35.605
4.99 --undefined-- 36.320
5.00 --undefined-- 36.738
5.01 --undefined-- 36.460
5.02 --undefined-- 36.682
5.03 --undefined-- 37.092
5.04 --undefined-- 37.598
5.05 --undefined-- 37.780
5.06 --undefined-- 37.414
5.07 --undefined-- 36.600
5.08 --undefined-- 36.354
5.09 --undefined-- 35.736
5.10 --undefined-- 35.193
5.11 --undefined-- 35.934
5.12 --undefined-- 36.139
5.13 --undefined-- 35.221
5.14 --undefined-- 35.014
5.15 --undefined-- 36.064
5.16 --undefined-- 36.236
5.17 --undefined-- 35.692
5.18 --undefined-- 35.795
5.19 --undefined-- 37.943
5.20 --undefined-- 42.026
5.21 --undefined-- 44.754
5.22 --undefined-- 46.414
5.23 --undefined-- 53.010
5.24 --undefined-- 57.833
5.25 75.336 59.725
5.26 118.566 60.969
5.27 120.555 62.081
5.28 123.507 62.855
5.29 124.539 63.922
5.30 125.734 65.129
5.31 126.344 66.130
5.32 127.889 66.815
5.33 130.141 67.494
5.34 131.492 68.508
5.35 131.494 69.745
5.36 132.201 70.617
5.37 132.719 70.597
5.38 132.246 69.496
5.39 131.861 67.330
5.40 126.388 63.775
5.41 --undefined-- 58.136
5.42 --undefined-- 50.836
5.43 --undefined-- 44.591
5.44 --undefined-- 44.275
5.45 --undefined-- 54.311
5.46 --undefined-- 63.194
5.47 --undefined-- 68.848
5.48 --undefined-- 71.900
5.49 --undefined-- 73.521
5.50 --undefined-- 74.511
5.51 --undefined-- 74.868
5.52 105.231 74.697
5.53 104.023 73.933
5.54 103.109 72.677
5.55 102.839 71.820
5.56 101.587 71.782
5.57 100.550 71.703
5.58 100.067 70.955
5.59 99.373 69.633
5.60 99.556 68.164
5.61 99.534 66.871
5.62 100.206 65.554
5.63 100.445 63.937
5.64 100.307 61.523
5.65 102.812 58.474
5.66 102.829 55.300
5.67 --undefined-- 51.328
5.68 --undefined-- 46.017
5.69 --undefined-- 41.850
5.70 --undefined-- 39.719
5.71 --undefined-- 37.717
5.72 --undefined-- 35.706
5.73 --undefined-- 34.568
5.74 --undefined-- 33.584
5.75 --undefined-- 33.371
5.76 --undefined-- 34.097
5.77 --undefined-- 35.088
5.78 --undefined-- 36.731
5.79 --undefined-- 38.074
5.80 --undefined-- 38.736
5.81 --undefined-- --undefined--
5.82 --undefined-- --undefined--
5.83 --undefined-- --undefined--
5.84 --undefined-- --undefined--
