Time Pitch Intensity
0.01 --undefined-- --undefined--
0.02 109.791 --undefined--
0.03 110.133 --undefined--
0.04 111.957 --undefined--
0.05 113.151 72.047
0.06 114.229 71.786
0.07 116.043 71.118
0.08 116.175 69.950
0.09 111.802 67.745
0.10 112.315 64.309
0.11 110.252 59.934
0.12 --undefined-- 55.079
0.13 --undefined-- 51.000
0.14 --undefined-- 47.374
0.15 --undefined-- 44.628
0.16 --undefined-- 49.229
0.17 --undefined-- 57.152
0.18 --undefined-- 62.221
0.19 --undefined-- 63.722
0.20 --undefined-- 62.135
0.21 --undefined-- 60.268
0.22 --undefined-- 62.548
0.23 --undefined-- 65.123
0.24 --undefined-- 66.142
0.25 --undefined-- 65.825
0.26 --undefined-- 65.212
0.27 --undefined-- 64.982
0.28 --undefined-- 64.645
0.29 --undefined-- 64.364
0.30 --undefined-- 64.680
0.31 93.847 66.155
0.32 108.308 67.880
0.33 108.415 69.408
0.34 111.336 70.537
0.35 114.028 71.144
0.36 116.327 71.168
0.37 117.650 70.899
0.38 118.493 70.281
0.39 119.477 68.891
0.40 119.211 67.244
0.41 119.976 67.177
0.42 119.369 68.202
0.43 117.856 69.275
0.44 118.465 70.256
0.45 110.490 70.800
0.46 109.645 71.188
0.47 109.062 71.462
0.48 110.528 71.124
0.49 112.889 69.892
0.50 114.385 67.527
0.51 112.715 63.335
0.52 --undefined-- 57.061
0.53 --undefined-- 50.372
0.54 --undefined-- 46.421
0.55 --undefined-- 46.641
0.56 --undefined-- 47.474
0.57 --undefined-- 49.387
0.58 --undefined-- 57.963
0.59 --undefined-- 64.324
0.60 115.406 67.382
0.61 116.026 67.812
0.62 113.328 66.479
0.63 111.590 64.528
0.64 111.739 62.636
0.65 107.271 60.255
0.66 108.173 57.123
0.67 105.883 54.035
0.68 106.483 52.716
0.69 103.746 52.201
0.70 --undefined-- 50.963
0.71 --undefined-- 52.261
0.72 --undefined-- 57.931
0.73 --undefined-- 62.023
0.74 --undefined-- 64.026
0.75 --undefined-- 64.454
0.76 --undefined-- 63.497
0.77 --undefined-- 61.367
0.78 --undefined-- 59.163
0.79 --undefined-- 57.017
0.80 --undefined-- 53.685
0.81 --undefined-- 51.583
0.82 --undefined-- 51.995
0.83 --undefined-- 51.915
0.84 --undefined-- 51.005
0.85 --undefined-- 48.834
0.86 --undefined-- 48.290
0.87 --undefined-- 49.641
0.88 --undefined-- 49.734
0.89 --undefined-- 48.319
0.90 --undefined-- 45.412
0.91 --undefined-- 41.598
0.92 --undefined-- 44.988
0.93 --undefined-- 49.523
0.94 --undefined-- 52.655
0.95 --undefined-- 58.192
0.96 --undefined-- 62.205
0.97 --undefined-- 62.650
0.98 --undefined-- 59.881
0.99 --undefined-- 56.200
1.00 --undefined-- 53.761
1.01 --undefined-- 52.301
1.02 --undefined-- 51.299
1.03 --undefined-- 50.968
1.04 --undefined-- 51.053
1.05 --undefined-- 51.784
1.06 --undefined-- 54.549
1.07 --undefined-- 58.690
1.08 --undefined-- 60.700
1.09 --undefined-- 60.959
1.10 99.715 62.494
1.11 98.347 63.624
1.12 98.162 63.970
1.13 97.918 64.066
1.14 107.255 63.121
1.15 107.275 61.545
1.16 108.554 60.384
1.17 --undefined-- 59.835
1.18 --undefined-- 59.596
1.19 99.988 60.896
1.20 105.367 62.446
1.21 107.243 63.490
1.22 106.036 64.511
1.23 105.912 64.843
1.24 106.174 63.817
1.25 105.674 61.245
1.26 --undefined-- 57.151
1.27 --undefined-- 51.311
1.28 --undefined-- 44.217
1.29 --undefined-- 40.760
1.30 --undefined-- 42.641
1.31 --undefined-- 46.592
1.32 --undefined-- 54.924
1.33 --undefined-- 61.260
1.34 --undefined-- 64.652
1.35 --undefined-- 65.449
1.36 --undefined-- 64.084
1.37 --undefined-- 61.239
1.38 --undefined-- 57.902
1.39 --undefined-- 54.392
1.40 --undefined-- 51.281
1.41 --undefined-- 48.917
1.42 --undefined-- 47.984
1.43 --undefined-- 51.395
1.44 109.174 56.287
1.45 109.634 59.706
1.46 109.839 61.624
1.47 109.699 62.482
1.48 105.587 62.386
1.49 105.895 61.553
1.50 110.598 60.519
1.51 111.633 59.977
1.52 111.709 59.796
1.53 111.483 59.638
1.54 109.545 59.612
1.55 109.120 59.683
1.56 108.543 59.508
1.57 108.524 59.276
1.58 109.016 59.257
1.59 110.856 59.154
1.60 110.634 58.630
1.61 110.949 57.863
1.62 111.109 56.731
1.63 107.885 54.698
1.64 --undefined-- 51.297
1.65 --undefined-- 46.032
1.66 --undefined-- 43.958
1.67 --undefined-- 52.602
1.68 --undefined-- 59.295
1.69 --undefined-- 62.814
1.70 --undefined-- 63.324
1.71 --undefined-- 61.381
1.72 --undefined-- 58.416
1.73 --undefined-- 55.556
1.74 --undefined-- 54.349
1.75 --undefined-- 54.496
1.76 --undefined-- 53.600
1.77 --undefined-- 52.063
1.78 --undefined-- 53.255
1.79 --undefined-- 58.604
1.80 103.894 62.404
1.81 98.184 63.853
1.82 96.798 63.855
1.83 94.089 63.359
1.84 92.443 62.510
1.85 90.936 61.071
1.86 93.140 59.738
1.87 93.814 58.831
1.88 92.051 57.755
1.89 92.389 56.482
1.90 92.148 54.783
1.91 --undefined-- 51.761
1.92 --undefined-- 47.051
1.93 --undefined-- 42.892
1.94 --undefined-- 40.561
1.95 --undefined-- 38.593
1.96 --undefined-- 40.306
1.97 --undefined-- 44.931
1.98 --undefined-- 49.828
1.99 --undefined-- 54.223
2.00 97.286 57.266
2.01 94.930 58.827
2.02 96.752 59.440
2.03 97.455 59.545
2.04 96.931 59.284
2.05 96.645 58.754
2.06 98.241 57.962
2.07 98.669 56.813
2.08 101.491 55.484
2.09 104.986 54.562
2.10 107.177 54.338
2.11 109.639 54.133
2.12 109.527 52.816
2.13 --undefined-- 50.072
2.14 --undefined-- 47.070
2.15 --undefined-- 47.181
2.16 --undefined-- 48.648
2.17 --undefined-- 49.850
2.18 --undefined-- 51.612
2.19 --undefined-- 52.717
2.20 --undefined-- 52.900
2.21 --undefined-- 52.988
2.22 --undefined-- 55.289
2.23 119.726 59.095
2.24 117.406 62.082
2.25 114.794 63.853
2.26 111.370 65.073
2.27 108.998 66.455
2.28 107.471 67.644
2.29 107.268 68.032
2.30 106.066 67.348
2.31 104.442 65.981
2.32 103.853 64.776
2.33 101.971 63.718
2.34 99.643 62.381
2.35 99.465 61.395
2.36 99.147 61.049
2.37 98.774 61.222
2.38 98.941 61.534
2.39 99.020 61.432
2.40 98.864 60.783
2.41 99.024 59.704
2.42 99.048 58.192
2.43 98.734 55.882
2.44 --undefined-- 52.401
2.45 --undefined-- 47.748
2.46 --undefined-- 42.952
2.47 --undefined-- 39.466
2.48 --undefined-- 36.810
2.49 --undefined-- 35.477
2.50 --undefined-- 34.702
2.51 --undefined-- 32.709
2.52 --undefined-- 32.063
2.53 --undefined-- 33.170
2.54 --undefined-- 33.852
2.55 --undefined-- 34.628
2.56 --undefined-- 35.195
2.57 --undefined-- 35.540
2.58 --undefined-- 36.196
2.59 --undefined-- 37.103
2.60 --undefined-- 37.597
2.61 --undefined-- 37.463
2.62 --undefined-- 37.109
2.63 --undefined-- 37.868
2.64 --undefined-- 38.064
2.65 --undefined-- 41.508
2.66 --undefined-- 50.480
2.67 --undefined-- 55.601
2.68 --undefined-- 58.717
2.69 --undefined-- 62.453
2.70 --undefined-- 64.777
2.71 --undefined-- 66.125
2.72 95.254 67.870
2.73 95.063 68.734
2.74 94.828 68.768
2.75 95.490 68.609
2.76 96.159 68.205
2.77 96.077 67.697
2.78 96.610 67.481
2.79 97.138 67.511
2.80 97.488 67.383
2.81 98.053 67.047
2.82 99.953 66.972
2.83 99.802 67.087
2.84 99.059 66.777
2.85 98.319 65.745
2.86 97.550 64.018
2.87 97.355 61.399
2.88 97.014 57.466
2.89 --undefined-- 52.591
2.90 --undefined-- 47.966
2.91 --undefined-- 43.506
2.92 --undefined-- 39.399
2.93 --undefined-- 37.286
2.94 --undefined-- 41.484
2.95 --undefined-- 51.287
2.96 --undefined-- 57.450
2.97 --undefined-- 63.018
2.98 --undefined-- 68.964
2.99 --undefined-- 72.800
3.00 118.402 74.615
3.01 115.603 75.413
3.02 115.015 75.664
3.03 115.726 75.490
3.04 116.073 75.128
3.05 117.570 74.564
3.06 118.587 73.468
3.07 119.126 71.151
3.08 --undefined-- 67.118
3.09 --undefined-- 61.305
3.10 --undefined-- 53.918
3.11 --undefined-- 48.209
3.12 --undefined-- 54.400
3.13 --undefined-- 59.684
3.14 --undefined-- 63.904
3.15 --undefined-- 69.392
3.16 --undefined-- 73.270
3.17 128.274 75.380
3.18 125.051 76.548
3.19 123.821 77.142
3.20 124.017 77.275
3.21 123.745 77.171
3.22 123.993 76.764
3.23 124.659 75.587
3.24 125.036 73.168
3.25 124.157 69.039
3.26 122.806 62.699
3.27 --undefined-- 55.115
3.28 --undefined-- 50.971
3.29 --undefined-- 51.171
3.30 --undefined-- 53.996
3.31 --undefined-- 60.639
3.32 --undefined-- 66.719
3.33 135.728 69.664
3.34 128.250 70.085
3.35 127.132 68.926
3.36 126.818 66.721
3.37 126.472 63.808
3.38 128.278 62.020
3.39 130.490 62.318
3.40 132.026 62.698
3.41 131.598 62.570
3.42 131.280 62.267
3.43 131.212 61.917
3.44 129.562 61.421
3.45 125.649 60.604
3.46 120.222 59.434
3.47 116.993 58.755
3.48 113.196 58.743
3.49 109.427 58.885
3.50 107.359 59.077
3.51 104.756 59.364
3.52 102.144 59.933
3.53 100.037 60.415
3.54 98.498 60.715
3.55 97.074 61.151
3.56 96.665 61.505
3.57 97.563 61.432
3.58 97.967 60.960
3.59 97.529 60.184
3.60 98.154 59.376
3.61 99.193 58.741
3.62 100.713 58.289
3.63 101.111 57.977
3.64 101.373 57.670
3.65 102.061 57.051
3.66 101.301 55.761
3.67 98.604 53.703
3.68 --undefined-- 51.514
3.69 --undefined-- 53.707
3.70 --undefined-- 60.513
3.71 --undefined-- 65.409
3.72 --undefined-- 67.575
3.73 --undefined-- 67.747
3.74 --undefined-- 66.765
3.75 95.293 65.128
3.76 95.955 62.965
3.77 98.671 59.586
3.78 99.621 56.784
3.79 101.227 56.434
3.80 101.843 56.548
3.81 102.091 56.650
3.82 102.656 56.710
3.83 103.031 56.769
3.84 101.802 56.961
3.85 101.248 58.565
3.86 101.562 61.587
3.87 99.815 63.722
3.88 98.950 64.626
3.89 98.903 64.858
3.90 97.788 64.678
3.91 96.029 64.203
3.92 96.636 63.788
3.93 96.951 63.650
3.94 97.454 63.703
3.95 98.406 63.762
3.96 98.667 63.456
3.97 97.639 62.606
3.98 96.962 61.103
3.99 97.027 58.945
4.00 97.860 56.713
4.01 98.581 55.245
4.02 100.881 54.595
4.03 102.115 53.949
4.04 103.208 52.794
4.05 103.497 51.399
4.06 --undefined-- 49.752
4.07 --undefined-- 47.258
4.08 --undefined-- 43.609
4.09 --undefined-- 39.566
4.10 --undefined-- 39.423
4.11 --undefined-- 42.582
4.12 --undefined-- 43.509
4.13 --undefined-- 42.466
4.14 --undefined-- 42.345
4.15 --undefined-- 42.880
4.16 --undefined-- 47.287
4.17 --undefined-- 54.745
4.18 --undefined-- 59.919
4.19 101.085 62.816
4.20 95.377 64.614
4.21 94.823 65.735
4.22 93.795 65.907
4.23 88.214 64.937
4.24 88.652 63.309
4.25 89.366 62.376
4.26 90.189 62.385
4.27 --undefined-- 62.716
4.28 94.681 63.241
4.29 93.108 62.950
4.30 92.171 61.403
4.31 --undefined-- 59.504
4.32 --undefined-- 57.308
4.33 --undefined-- 56.600
4.34 --undefined-- 58.208
4.35 --undefined-- 57.678
4.36 --undefined-- 56.703
4.37 --undefined-- 56.066
4.38 --undefined-- 55.452
4.39 --undefined-- 56.051
4.40 --undefined-- 54.985
4.41 --undefined-- 53.725
4.42 --undefined-- 52.964
4.43 --undefined-- 50.617
4.44 --undefined-- 48.754
4.45 --undefined-- 46.454
4.46 --undefined-- 41.133
4.47 --undefined-- 36.176
4.48 --undefined-- 35.631
4.49 --undefined-- 35.283
4.50 --undefined-- 34.960
4.51 --undefined-- 34.171
4.52 --undefined-- 33.254
4.53 --undefined-- 33.140
4.54 --undefined-- 33.228
4.55 --undefined-- 33.973
4.56 --undefined-- 33.537
4.57 --undefined-- 32.006
4.58 --undefined-- 32.839
4.59 --undefined-- 33.810
4.60 --undefined-- 33.427
4.61 --undefined-- 32.452
4.62 --undefined-- 31.367
4.63 --undefined-- 32.837
4.64 --undefined-- 34.454
4.65 --undefined-- 33.793
4.66 --undefined-- 32.118
4.67 --undefined-- 32.148
4.68 --undefined-- 33.112
4.69 --undefined-- 33.576
4.70 --undefined-- 33.236
4.71 --undefined-- 32.641
4.72 --undefined-- 33.329
4.73 --undefined-- 33.380
4.74 --undefined-- 36.785
4.75 --undefined-- 41.617
4.76 --undefined-- 43.760
4.77 --undefined-- 46.710
4.78 --undefined-- 56.854
4.79 --undefined-- 64.639
4.80 --undefined-- 69.030
4.81 --undefined-- 70.906
4.82 --undefined-- 70.460
4.83 --undefined-- 67.547
4.84 --undefined-- 63.112
4.85 --undefined-- 60.448
4.86 --undefined-- 59.358
4.87 --undefined-- 60.090
4.88 --undefined-- 60.422
4.89 --undefined-- 59.464
4.90 --undefined-- 58.253
4.91 --undefined-- 57.666
4.92 --undefined-- 56.119
4.93 --undefined-- 51.849
4.94 --undefined-- 48.061
4.95 --undefined-- 48.117
4.96 --undefined-- 48.469
4.97 --undefined-- 48.010
4.98 --undefined-- 47.972
4.99 --undefined-- 51.133
5.00 101.325 55.405
5.01 100.432 58.256
5.02 98.447 59.276
5.03 96.238 58.392
5.04 96.325 55.781
5.05 --undefined-- 52.499
5.06 --undefined-- 50.457
5.07 --undefined-- 49.659
5.08 --undefined-- 49.909
5.09 --undefined-- 50.194
5.10 --undefined-- 48.450
5.11 --undefined-- 46.842
5.12 --undefined-- 46.662
5.13 --undefined-- 45.012
5.14 --undefined-- 42.309
5.15 --undefined-- 41.611
5.16 --undefined-- 41.959
5.17 --undefined-- 42.014
5.18 --undefined-- 42.867
5.19 --undefined-- 44.248
5.20 --undefined-- 47.227
5.21 --undefined-- 55.869
5.22 --undefined-- 63.549
5.23 103.901 68.065
5.24 102.163 69.846
5.25 104.095 69.745
5.26 103.472 68.830
5.27 101.700 67.429
5.28 100.628 65.093
5.29 100.892 61.730
5.30 96.286 59.366
5.31 --undefined-- 58.373
5.32 --undefined-- 57.412
5.33 100.237 57.238
5.34 102.379 56.985
5.35 104.101 57.010
5.36 103.063 58.871
5.37 105.641 62.412
5.38 106.305 65.653
5.39 106.382 67.548
5.40 107.977 68.103
5.41 111.463 67.998
5.42 112.867 67.574
5.43 114.097 66.781
5.44 114.912 65.743
5.45 116.512 64.339
5.46 117.452 62.222
5.47 117.183 58.903
5.48 --undefined-- 54.032
5.49 --undefined-- 47.818
5.50 --undefined-- 42.340
5.51 --undefined-- 44.063
5.52 --undefined-- 49.116
5.53 --undefined-- 53.625
5.54 --undefined-- 58.617
5.55 --undefined-- 61.649
5.56 --undefined-- 61.733
5.57 --undefined-- 59.036
5.58 101.467 55.335
5.59 103.200 --undefined--
5.60 103.324 --undefined--
5.61 --undefined-- --undefined--
5.62 --undefined-- --undefined--
