Time Pitch Intensity
0.01 --undefined-- --undefined--
0.02 204.865 --undefined--
0.03 206.389 --undefined--
0.04 207.194 --undefined--
0.05 207.768 75.356
0.06 208.731 74.538
0.07 211.517 73.875
0.08 213.902 73.416
0.09 213.728 72.526
0.10 213.791 71.397
0.11 214.205 70.609
0.12 215.808 70.305
0.13 216.977 70.402
0.14 218.701 70.614
0.15 221.199 70.604
0.16 223.089 69.938
0.17 223.474 68.113
0.18 216.447 65.060
0.19 212.861 60.982
0.20 220.960 56.239
0.21 222.449 53.202
0.22 222.236 52.652
0.23 --undefined-- 52.876
0.24 --undefined-- 52.067
0.25 --undefined-- 49.768
0.26 --undefined-- 47.715
0.27 --undefined-- 49.121
0.28 --undefined-- 51.318
0.29 --undefined-- 51.277
0.30 --undefined-- 50.685
0.31 --undefined-- 54.930
0.32 289.630 61.613
0.33 279.445 65.962
0.34 270.790 68.499
0.35 268.968 70.202
0.36 266.832 71.198
0.37 263.236 71.391
0.38 261.043 71.299
0.39 260.730 71.496
0.40 261.500 71.757
0.41 262.828 71.683
0.42 264.337 71.100
0.43 265.607 70.202
0.44 266.608 69.252
0.45 267.796 68.563
0.46 268.732 68.203
0.47 269.715 68.035
0.48 269.847 68.077
0.49 269.079 68.134
0.50 268.450 68.264
0.51 268.653 68.641
0.52 266.490 68.534
0.53 266.382 67.679
0.54 265.438 66.187
0.55 258.192 63.966
0.56 245.468 61.527
0.57 244.465 59.650
0.58 267.357 57.550
0.59 280.166 59.042
0.60 251.918 65.021
0.61 233.389 68.900
0.62 222.979 70.158
0.63 211.557 69.803
0.64 206.695 69.231
0.65 202.489 69.234
0.66 200.286 69.958
0.67 197.435 70.531
0.68 195.846 69.635
0.69 193.535 66.810
0.70 192.900 63.976
0.71 189.909 64.381
0.72 195.626 66.619
0.73 196.619 69.244
0.74 197.084 71.286
0.75 195.747 72.258
0.76 193.002 72.586
0.77 190.260 72.795
0.78 188.593 72.729
0.79 186.306 72.430
0.80 184.614 72.016
0.81 182.980 70.791
0.82 181.441 67.770
0.83 185.610 62.943
0.84 174.423 58.928
0.85 172.879 57.127
0.86 173.243 56.673
0.87 170.632 57.533
0.88 169.167 59.536
0.89 176.880 62.753
0.90 183.259 66.508
0.91 187.289 70.092
0.92 190.540 72.697
0.93 194.311 73.764
0.94 196.765 73.250
0.95 199.333 71.369
0.96 202.193 68.894
0.97 203.854 67.222
0.98 203.109 67.097
0.99 201.805 67.625
1.00 200.143 67.666
1.01 196.764 67.748
1.02 193.416 68.453
1.03 189.818 69.281
1.04 184.218 70.116
1.05 176.884 70.655
1.06 172.038 70.529
1.07 167.967 69.794
1.08 164.675 68.726
1.09 163.156 67.810
1.10 161.916 67.377
1.11 160.639 67.056
1.12 161.619 66.691
1.13 163.383 66.857
1.14 162.353 67.153
1.15 167.527 66.878
1.16 169.547 66.485
1.17 172.485 66.470
1.18 175.764 66.793
1.19 179.991 67.791
1.20 182.955 69.298
1.21 186.412 70.335
1.22 190.480 70.478
1.23 194.481 70.131
1.24 198.971 70.150
1.25 203.682 71.050
1.26 203.981 72.668
1.27 203.597 74.766
1.28 203.011 76.372
1.29 202.447 76.981
1.30 200.487 76.848
1.31 196.496 76.706
1.32 190.592 77.018
1.33 --undefined-- 77.198
1.34 --undefined-- 76.559
1.35 --undefined-- 74.511
1.36 --undefined-- 70.526
1.37 --undefined-- 65.326
1.38 --undefined-- 61.992
1.39 --undefined-- 61.735
1.40 --undefined-- 60.620
1.41 --undefined-- 57.130
1.42 --undefined-- 53.529
1.43 --undefined-- 55.492
1.44 --undefined-- 59.017
1.45 --undefined-- 60.054
1.46 --undefined-- 58.769
1.47 --undefined-- 56.547
1.48 --undefined-- 53.991
1.49 --undefined-- 50.619
1.50 --undefined-- 47.050
1.51 --undefined-- 47.190
1.52 --undefined-- 51.039
1.53 --undefined-- 53.440
1.54 --undefined-- 52.593
1.55 --undefined-- 49.067
1.56 --undefined-- 49.176
1.57 --undefined-- 51.277
1.58 --undefined-- 51.247
1.59 --undefined-- 51.273
1.60 --undefined-- 51.453
1.61 --undefined-- 51.135
1.62 --undefined-- 55.439
1.63 289.201 61.364
1.64 274.081 65.102
1.65 256.472 67.101
1.66 261.062 68.479
1.67 264.357 69.661
1.68 267.643 70.647
1.69 270.491 71.227
1.70 271.545 71.183
1.71 269.558 70.165
1.72 265.926 67.686
1.73 245.242 63.997
1.74 245.170 61.424
1.75 250.117 60.713
1.76 270.780 62.017
1.77 148.196 65.779
1.78 155.816 69.216
1.79 164.363 71.026
1.80 165.199 71.319
1.81 164.811 70.660
1.82 162.132 69.846
1.83 165.782 69.681
1.84 167.788 70.062
1.85 169.773 70.437
1.86 169.802 70.387
1.87 167.765 69.747
1.88 163.643 68.241
1.89 159.823 65.204
1.90 165.989 60.264
1.91 172.605 55.627
1.92 171.456 53.734
1.93 --undefined-- 52.801
1.94 --undefined-- 52.336
1.95 --undefined-- 51.891
1.96 --undefined-- 51.819
1.97 --undefined-- 52.049
1.98 --undefined-- 52.903
1.99 --undefined-- 52.328
2.00 --undefined-- 51.316
2.01 --undefined-- 54.793
2.02 --undefined-- 57.620
2.03 --undefined-- 57.223
2.04 --undefined-- 57.446
2.05 168.007 63.267
2.06 166.569 67.538
2.07 162.300 69.771
2.08 158.105 70.918
2.09 156.389 71.510
2.10 155.911 71.945
2.11 156.049 72.391
2.12 155.983 72.612
2.13 155.942 72.543
2.14 157.038 72.080
2.15 158.973 70.899
2.16 158.587 69.282
2.17 155.507 68.135
2.18 154.426 67.944
2.19 153.599 67.901
2.20 151.372 66.527
2.21 286.218 62.791
2.22 --undefined-- 56.809
2.23 --undefined-- 54.675
2.24 --undefined-- 61.631
2.25 275.362 67.766
2.26 260.571 71.264
2.27 248.871 72.515
2.28 233.793 72.451
2.29 225.091 72.014
2.30 218.689 71.460
2.31 214.931 71.217
2.32 213.547 71.417
2.33 212.044 71.825
2.34 212.030 72.313
2.35 212.277 72.763
2.36 213.333 73.118
2.37 214.287 73.312
2.38 214.977 73.297
2.39 216.136 73.138
2.40 217.638 72.839
2.41 218.828 72.187
2.42 219.885 70.864
2.43 219.459 68.218
2.44 212.966 63.687
2.45 214.941 58.528
2.46 218.184 54.997
2.47 216.748 52.719
2.48 --undefined-- 50.713
2.49 --undefined-- 49.827
2.50 --undefined-- 53.833
2.51 --undefined-- 61.744
2.52 264.433 67.629
2.53 265.860 70.543
2.54 264.366 71.596
2.55 264.164 72.066
2.56 265.069 72.353
2.57 267.033 72.310
2.58 269.062 72.098
2.59 270.470 72.187
2.60 271.383 72.542
2.61 272.951 72.759
2.62 275.212 72.882
2.63 276.319 72.993
2.64 276.133 72.942
2.65 275.767 72.592
2.66 275.590 71.873
2.67 275.772 70.808
2.68 276.768 69.619
2.69 279.899 68.447
2.70 282.730 67.033
2.71 280.483 64.592
2.72 270.922 60.463
2.73 271.900 55.528
2.74 --undefined-- 53.087
2.75 --undefined-- 54.362
2.76 --undefined-- 57.728
2.77 --undefined-- 60.624
2.78 287.790 63.429
2.79 282.068 65.656
2.80 275.187 66.728
2.81 271.511 67.031
2.82 268.210 66.785
2.83 262.512 66.367
2.84 262.480 66.034
2.85 264.615 65.661
2.86 265.014 65.469
2.87 265.984 65.354
2.88 267.365 65.161
2.89 268.400 65.057
2.90 268.561 65.095
2.91 268.628 65.038
2.92 268.552 64.897
2.93 268.560 64.587
2.94 266.033 63.280
2.95 254.283 60.520
2.96 249.604 57.868
2.97 260.126 56.336
2.98 --undefined-- 54.659
2.99 --undefined-- 53.037
3.00 --undefined-- 50.542
3.01 --undefined-- 51.654
3.02 --undefined-- 56.047
3.03 --undefined-- 58.618
3.04 270.688 62.364
3.05 258.503 67.101
3.06 254.732 69.990
3.07 252.859 70.893
3.08 251.523 70.783
3.09 253.200 70.887
3.10 255.790 71.396
3.11 257.355 71.469
3.12 260.187 70.397
3.13 267.545 68.333
3.14 268.099 66.581
3.15 265.754 65.891
3.16 263.132 65.741
3.17 261.874 65.590
3.18 257.646 65.489
3.19 252.414 66.064
3.20 248.241 66.707
3.21 242.321 66.674
3.22 234.360 66.060
3.23 224.627 65.478
3.24 213.662 65.106
3.25 201.781 64.749
3.26 191.448 64.518
3.27 177.334 64.556
3.28 168.403 64.298
3.29 159.775 63.409
3.30 153.007 62.271
3.31 148.970 61.188
3.32 144.507 60.221
3.33 149.960 59.368
3.34 148.821 58.823
3.35 150.047 58.702
3.36 150.199 58.812
3.37 151.363 58.968
3.38 150.546 58.705
3.39 149.785 57.553
3.40 145.288 55.763
3.41 156.834 55.067
3.42 204.576 58.833
3.43 181.019 63.102
3.44 180.783 65.583
3.45 179.965 66.485
3.46 180.069 66.378
3.47 181.870 65.544
3.48 182.614 63.287
3.49 182.033 58.846
3.50 --undefined-- 53.541
3.51 --undefined-- 50.854
3.52 --undefined-- 50.992
3.53 --undefined-- 53.401
3.54 206.002 56.763
3.55 202.267 59.700
3.56 198.389 60.801
3.57 186.368 60.881
3.58 170.506 61.884
3.59 168.049 63.858
3.60 161.893 65.573
3.61 156.879 66.505
3.62 153.493 66.759
3.63 152.101 66.520
3.64 151.220 66.002
3.65 151.952 65.482
3.66 152.710 65.100
3.67 153.755 64.733
3.68 155.327 64.269
3.69 156.986 63.615
3.70 158.864 62.468
3.71 159.566 60.446
3.72 157.574 57.362
3.73 --undefined-- 54.212
3.74 --undefined-- 52.348
3.75 --undefined-- 51.872
3.76 --undefined-- 53.222
3.77 --undefined-- 53.857
3.78 --undefined-- 54.453
3.79 213.769 58.849
3.80 210.480 63.201
3.81 199.977 65.757
3.82 194.625 67.365
3.83 190.991 68.590
3.84 188.621 69.408
3.85 187.598 69.876
3.86 187.307 70.150
3.87 187.679 70.268
3.88 188.728 70.283
3.89 190.947 70.258
3.90 193.075 70.140
3.91 195.157 69.985
3.92 194.545 70.016
3.93 194.728 70.274
3.94 194.485 70.562
3.95 194.304 70.728
3.96 194.468 70.960
3.97 196.193 72.390
3.98 195.523 74.818
3.99 194.580 76.425
4.00 192.972 76.984
4.01 192.084 77.279
4.02 191.721 77.562
4.03 192.056 77.749
4.04 192.009 77.923
4.05 191.513 78.065
4.06 189.668 78.086
4.07 186.529 78.137
4.08 183.898 78.339
4.09 181.349 78.145
4.10 174.252 77.266
4.11 169.690 75.577
4.12 165.147 72.547
4.13 --undefined-- 68.119
4.14 --undefined-- 63.191
4.15 --undefined-- 59.872
4.16 --undefined-- 57.374
4.17 --undefined-- 54.153
4.18 --undefined-- 50.976
4.19 --undefined-- 50.777
4.20 --undefined-- 50.712
4.21 --undefined-- 49.268
4.22 --undefined-- 46.944
4.23 --undefined-- 47.208
4.24 --undefined-- 50.516
4.25 --undefined-- 52.303
4.26 --undefined-- 52.395
4.27 --undefined-- 50.667
4.28 --undefined-- 47.170
4.29 --undefined-- 47.446
4.30 --undefined-- 50.290
4.31 --undefined-- 50.809
4.32 --undefined-- 49.391
4.33 --undefined-- 48.270
4.34 --undefined-- 50.669
4.35 --undefined-- 53.957
4.36 --undefined-- 54.730
4.37 --undefined-- 52.894
4.38 --undefined-- 51.574
4.39 --undefined-- 50.829
4.40 --undefined-- 49.121
4.41 --undefined-- 50.421
4.42 --undefined-- 53.098
4.43 --undefined-- 53.751
4.44 --undefined-- 52.417
4.45 --undefined-- 51.476
4.46 --undefined-- 52.231
4.47 --undefined-- 53.038
4.48 --undefined-- 53.431
4.49 --undefined-- 54.298
4.50 --undefined-- 53.739
4.51 --undefined-- 51.021
4.52 --undefined-- 48.441
4.53 --undefined-- 49.336
4.54 --undefined-- 51.604
4.55 --undefined-- 51.300
4.56 --undefined-- 48.204
4.57 --undefined-- 45.672
4.58 --undefined-- 52.770
4.59 296.512 59.553
4.60 282.741 63.330
4.61 276.725 65.174
4.62 267.671 66.533
4.63 268.466 68.067
4.64 273.399 69.837
4.65 276.968 71.194
4.66 277.607 71.413
4.67 272.949 69.888
4.68 254.424 66.072
4.69 235.168 60.372
4.70 237.823 55.102
4.71 --undefined-- 54.620
4.72 --undefined-- 58.402
4.73 --undefined-- 61.933
4.74 --undefined-- 64.447
4.75 233.613 66.598
4.76 233.887 68.464
4.77 233.024 69.756
4.78 233.239 70.426
4.79 234.835 70.700
4.80 239.091 70.748
4.81 244.899 70.422
4.82 251.008 69.805
4.83 255.259 69.753
4.84 258.376 70.500
4.85 260.722 71.437
4.86 263.071 72.542
4.87 264.053 73.714
4.88 263.584 74.720
4.89 261.591 75.444
4.90 257.954 75.693
4.91 252.207 75.436
4.92 246.161 74.935
4.93 241.269 74.231
4.94 234.414 72.871
4.95 231.371 70.199
4.96 232.718 65.709
4.97 232.818 60.025
4.98 242.967 --undefined--
4.99 240.831 --undefined--
5.00 --undefined-- --undefined--
5.01 --undefined-- --undefined--
