Time Pitch Intensity
0.01 --undefined-- --undefined--
0.02 271.820 --undefined--
0.03 271.289 --undefined--
0.04 269.072 --undefined--
0.05 271.483 57.225
0.06 268.416 55.414
0.07 268.174 54.244
0.08 --undefined-- 52.223
0.09 --undefined-- 51.761
0.10 --undefined-- 51.806
0.11 218.413 53.126
0.12 217.647 56.819
0.13 215.293 59.264
0.14 211.680 60.811
0.15 199.557 62.576
0.16 189.513 63.959
0.17 182.321 64.129
0.18 171.649 62.975
0.19 168.841 61.437
0.20 167.974 60.951
0.21 167.341 61.115
0.22 165.797 60.711
0.23 164.348 59.453
0.24 162.096 58.052
0.25 162.049 57.458
0.26 161.230 57.351
0.27 161.461 57.588
0.28 161.891 57.736
0.29 163.696 57.579
0.30 164.090 57.549
0.31 163.650 57.079
0.32 161.867 55.262
0.33 156.539 52.659
0.34 153.108 53.652
0.35 181.236 58.349
0.36 181.902 61.971
0.37 179.450 63.779
0.38 176.318 64.062
0.39 176.190 63.342
0.40 177.259 62.661
0.41 178.247 62.862
0.42 178.686 63.336
0.43 179.164 63.424
0.44 180.771 63.388
0.45 183.424 64.128
0.46 187.745 65.824
0.47 193.020 67.257
0.48 199.793 67.175
0.49 207.576 65.486
0.50 219.010 64.357
0.51 225.678 65.084
0.52 235.293 65.533
0.53 241.735 65.030
0.54 244.862 63.163
0.55 245.546 59.412
0.56 239.602 54.626
0.57 --undefined-- 52.906
0.58 --undefined-- 53.120
0.59 --undefined-- 52.102
0.60 --undefined-- 50.053
0.61 --undefined-- 51.631
0.62 --undefined-- 53.672
0.63 --undefined-- 55.992
0.64 262.722 60.217
0.65 240.988 62.784
0.66 217.878 63.292
0.67 189.562 62.382
0.68 172.052 60.637
0.69 158.940 58.983
0.70 154.802 58.599
0.71 152.584 59.055
0.72 154.087 59.731
0.73 154.855 60.260
0.74 152.738 59.815
0.75 156.562 58.822
0.76 157.076 58.242
0.77 160.491 57.976
0.78 167.391 58.587
0.79 175.998 59.857
0.80 181.557 60.467
0.81 185.642 61.055
0.82 192.099 62.264
0.83 196.648 63.283
0.84 198.724 64.035
0.85 201.868 64.726
0.86 204.070 65.381
0.87 206.395 66.110
0.88 209.823 66.910
0.89 213.036 67.851
0.90 214.032 68.750
0.91 213.466 69.461
0.92 210.901 70.180
0.93 205.610 70.929
0.94 --undefined-- 71.102
0.95 --undefined-- 70.021
0.96 --undefined-- 67.626
0.97 --undefined-- 64.451
0.98 --undefined-- 61.277
0.99 --undefined-- 59.020
1.00 --undefined-- 57.242
1.01 --undefined-- 55.033
1.02 --undefined-- 53.104
1.03 --undefined-- 50.666
1.04 --undefined-- 51.364
1.05 288.083 56.158
1.06 278.588 57.957
1.07 274.471 56.019
1.08 289.995 51.587
1.09 287.231 50.066
1.10 284.296 50.421
1.11 --undefined-- 49.488
1.12 --undefined-- 48.955
1.13 --undefined-- 49.701
1.14 --undefined-- 49.984
1.15 --undefined-- 50.250
1.16 --undefined-- 51.374
1.17 --undefined-- 52.901
1.18 --undefined-- 54.401
1.19 --undefined-- 55.282
1.20 283.495 55.091
1.21 283.834 54.723
1.22 --undefined-- 53.478
1.23 --undefined-- 50.726
1.24 --undefined-- 48.122
1.25 --undefined-- 48.989
1.26 --undefined-- 52.529
1.27 --undefined-- 54.893
1.28 --undefined-- 54.381
1.29 --undefined-- 50.828
1.30 --undefined-- 47.232
1.31 --undefined-- 47.764
1.32 --undefined-- 50.145
1.33 --undefined-- 51.620
1.34 --undefined-- 51.583
1.35 --undefined-- 54.232
1.36 --undefined-- 56.554
1.37 --undefined-- 57.097
1.38 157.727 61.091
1.39 154.211 65.838
1.40 153.978 68.563
1.41 159.637 69.936
1.42 166.670 70.969
1.43 169.537 71.624
1.44 172.071 71.108
1.45 175.591 69.361
1.46 175.428 67.243
1.47 171.460 65.400
1.48 163.217 64.279
1.49 160.983 63.818
1.50 162.620 62.371
1.51 170.330 59.882
1.52 167.288 57.130
1.53 --undefined-- 55.512
1.54 --undefined-- 55.188
1.55 --undefined-- 52.984
1.56 --undefined-- 48.667
1.57 --undefined-- 47.519
1.58 --undefined-- 49.512
1.59 --undefined-- 50.923
1.60 --undefined-- 50.679
1.61 --undefined-- 48.454
1.62 --undefined-- 46.281
1.63 --undefined-- 47.751
1.64 --undefined-- 53.376
1.65 100.065 57.878
1.66 100.509 60.208
1.67 218.197 61.241
1.68 215.320 61.833
1.69 213.658 62.341
1.70 214.448 63.079
1.71 213.312 63.832
1.72 210.360 64.703
1.73 205.192 66.418
1.74 201.170 68.880
1.75 197.312 71.027
1.76 195.231 72.077
1.77 195.140 72.029
1.78 195.529 71.214
1.79 196.882 70.027
1.80 199.732 68.579
1.81 204.846 66.699
1.82 214.102 64.981
1.83 223.674 64.913
1.84 230.145 65.525
1.85 237.974 65.787
1.86 245.217 65.754
1.87 252.153 65.604
1.88 257.659 65.459
1.89 260.357 64.854
1.90 258.108 63.281
1.91 245.203 60.674
1.92 245.453 59.123
1.93 259.391 61.899
1.94 247.282 64.347
1.95 242.325 65.127
1.96 238.090 65.577
1.97 234.725 66.123
1.98 230.356 66.135
1.99 225.575 65.694
2.00 222.392 65.453
2.01 220.879 65.621
2.02 219.673 65.936
2.03 218.676 66.247
2.04 216.851 66.461
2.05 214.176 66.727
2.06 210.742 67.392
2.07 208.711 68.176
2.08 207.065 68.463
2.09 205.809 68.285
2.10 205.373 67.793
2.11 206.157 66.992
2.12 207.641 66.179
2.13 209.611 65.522
2.14 210.999 64.859
2.15 213.608 64.206
2.16 213.362 63.282
2.17 209.580 61.002
2.18 207.958 56.681
2.19 --undefined-- 52.410
2.20 --undefined-- 51.655
2.21 --undefined-- 51.063
2.22 --undefined-- 49.345
2.23 --undefined-- 46.889
2.24 --undefined-- 45.277
2.25 --undefined-- 45.212
2.26 --undefined-- 47.951
2.27 --undefined-- 50.056
2.28 --undefined-- 51.020
2.29 --undefined-- 55.080
2.30 273.047 60.875
2.31 261.350 64.919
2.32 260.515 67.078
2.33 261.718 67.993
2.34 263.887 68.370
2.35 265.393 68.631
2.36 266.857 68.887
2.37 269.341 68.962
2.38 273.491 68.523
2.39 275.360 67.586
2.40 277.254 66.606
2.41 277.746 65.931
2.42 277.854 65.572
2.43 277.627 65.347
2.44 277.414 65.083
2.45 277.223 64.845
2.46 277.196 64.735
2.47 276.694 64.651
2.48 276.360 64.509
2.49 276.280 64.437
2.50 276.075 64.339
2.51 276.322 63.961
2.52 274.835 63.505
2.53 269.405 63.564
2.54 269.120 63.879
2.55 266.891 63.781
2.56 264.987 63.394
2.57 263.382 63.123
2.58 260.180 63.132
2.59 256.591 63.108
2.60 251.769 63.408
2.61 245.921 63.931
2.62 237.730 64.232
2.63 212.968 64.811
2.64 202.717 65.854
2.65 191.714 66.536
2.66 181.445 66.437
2.67 178.430 65.534
2.68 176.250 64.068
2.69 172.849 62.540
2.70 170.247 61.000
2.71 163.152 59.837
2.72 163.573 59.642
2.73 162.234 59.528
2.74 162.329 59.036
2.75 162.766 59.091
2.76 163.775 58.960
2.77 165.888 58.335
2.78 166.968 58.152
2.79 168.215 58.661
2.80 167.745 58.921
2.81 166.488 58.001
2.82 162.492 56.762
2.83 158.767 57.612
2.84 157.198 58.600
2.85 159.017 58.453
2.86 158.409 59.481
2.87 160.819 61.525
2.88 164.240 63.339
2.89 165.198 64.165
2.90 162.435 64.499
2.91 160.774 65.284
2.92 158.120 65.796
2.93 156.320 65.678
2.94 156.615 65.357
2.95 158.528 64.860
2.96 162.162 63.739
2.97 166.100 62.434
2.98 168.212 62.211
2.99 175.571 62.845
3.00 177.750 63.568
3.01 184.376 64.690
3.02 186.587 65.855
3.03 192.391 65.986
3.04 193.922 64.725
3.05 208.259 62.949
3.06 216.387 62.576
3.07 221.009 63.520
3.08 225.733 64.441
3.09 231.779 64.987
3.10 237.674 65.565
3.11 239.998 66.335
3.12 240.548 67.058
3.13 239.036 68.086
3.14 235.267 69.774
3.15 230.114 71.636
3.16 224.350 72.648
3.17 214.805 72.177
3.18 202.319 70.637
3.19 192.626 69.669
3.20 188.783 69.513
3.21 184.328 68.466
3.22 177.556 66.008
3.23 171.027 63.046
3.24 166.530 61.051
3.25 164.795 59.799
3.26 162.698 58.936
3.27 163.377 58.245
3.28 160.841 57.364
3.29 161.415 56.890
3.30 160.889 57.091
3.31 161.116 57.381
3.32 159.003 57.510
3.33 157.694 57.801
3.34 157.329 58.018
3.35 155.214 57.920
3.36 153.259 58.102
3.37 152.966 58.657
3.38 153.739 58.924
3.39 155.049 59.405
3.40 156.420 60.676
3.41 157.448 62.442
3.42 159.258 64.010
3.43 161.504 65.146
3.44 164.331 65.928
3.45 166.770 66.293
3.46 168.602 66.390
3.47 169.690 66.337
3.48 170.773 66.100
3.49 173.000 65.883
3.50 175.726 65.841
3.51 178.854 65.881
3.52 183.007 66.235
3.53 187.360 67.102
3.54 197.589 68.057
3.55 200.409 68.637
3.56 206.437 68.489
3.57 211.610 67.947
3.58 219.219 68.077
3.59 223.282 68.412
3.60 227.474 68.015
3.61 230.167 67.266
3.62 231.649 66.849
3.63 231.896 66.923
3.64 230.428 67.109
3.65 225.347 67.280
3.66 218.039 68.083
3.67 211.483 69.198
3.68 202.951 69.991
3.69 188.037 70.611
3.70 179.505 71.224
3.71 174.009 71.552
3.72 170.208 71.373
3.73 168.971 70.769
3.74 169.834 69.928
3.75 172.910 68.542
3.76 176.561 66.082
3.77 178.175 62.631
3.78 171.848 58.619
3.79 170.947 54.694
3.80 172.856 52.505
3.81 172.724 50.752
3.82 --undefined-- 49.758
3.83 --undefined-- 49.520
3.84 --undefined-- 47.593
3.85 --undefined-- 46.324
3.86 --undefined-- 50.338
3.87 --undefined-- 54.340
3.88 --undefined-- 55.248
3.89 --undefined-- 53.968
3.90 239.654 55.142
3.91 243.635 59.498
3.92 261.186 62.905
3.93 266.769 64.367
3.94 270.199 64.356
3.95 271.020 63.549
3.96 269.228 62.205
3.97 254.148 60.708
3.98 240.721 59.101
3.99 238.966 56.479
4.00 237.085 53.329
4.01 --undefined-- 50.889
4.02 --undefined-- 49.425
4.03 --undefined-- 49.283
4.04 --undefined-- 50.028
4.05 --undefined-- 52.093
4.06 --undefined-- 56.040
4.07 --undefined-- 58.634
4.08 --undefined-- 61.011
4.09 172.289 64.715
4.10 170.265 66.882
4.11 172.760 67.137
4.12 174.176 66.593
4.13 173.686 65.684
4.14 171.368 64.515
4.15 163.314 63.140
4.16 160.117 60.955
4.17 169.057 57.914
4.18 171.361 55.286
4.19 170.552 52.818
4.20 169.968 50.249
4.21 --undefined-- 50.834
4.22 281.888 53.153
4.23 286.224 55.747
4.24 265.195 58.078
4.25 265.513 61.424
4.26 251.492 64.954
4.27 236.868 66.588
4.28 219.846 66.595
4.29 205.208 66.569
4.30 195.854 67.273
4.31 192.174 68.203
4.32 191.837 68.702
4.33 192.489 68.630
4.34 194.987 68.531
4.35 197.260 68.730
4.36 200.130 68.606
4.37 205.272 68.023
4.38 209.050 67.497
4.39 214.633 67.002
4.40 219.262 66.439
4.41 223.033 65.104
4.42 224.069 62.154
4.43 --undefined-- 57.571
4.44 --undefined-- 53.923
4.45 --undefined-- 50.797
4.46 --undefined-- 48.880
4.47 --undefined-- 52.234
4.48 --undefined-- 54.785
4.49 --undefined-- 54.457
4.50 248.392 54.692
4.51 251.233 56.169
4.52 252.314 55.197
4.53 250.919 53.018
4.54 --undefined-- 53.606
4.55 --undefined-- 58.021
4.56 --undefined-- 63.484
4.57 294.028 66.567
4.58 291.166 67.410
4.59 289.367 66.842
4.60 288.390 65.735
4.61 287.769 65.071
4.62 288.025 65.262
4.63 289.313 65.779
4.64 290.749 66.191
4.65 291.323 66.502
4.66 291.611 66.710
4.67 292.080 66.721
4.68 292.375 66.679
4.69 292.856 66.676
4.70 293.576 66.652
4.71 294.929 66.617
4.72 295.728 66.635
4.73 296.208 66.688
4.74 296.119 66.681
4.75 293.645 66.644
4.76 290.460 66.427
4.77 286.228 65.554
4.78 280.306 63.371
4.79 275.358 59.235
4.80 286.816 53.679
4.81 289.772 49.900
4.82 --undefined-- 50.026
4.83 --undefined-- 53.182
4.84 --undefined-- 58.213
4.85 233.865 63.164
4.86 226.096 66.233
4.87 220.490 68.024
4.88 216.295 69.198
4.89 213.879 69.877
4.90 211.307 70.053
4.91 209.909 69.852
4.92 209.223 69.355
4.93 209.115 69.063
4.94 209.418 69.562
4.95 209.106 70.205
4.96 207.688 70.131
4.97 205.469 69.216
4.98 204.191 68.163
4.99 203.424 --undefined--
5.00 199.202 --undefined--
5.01 --undefined-- --undefined--
5.02 --undefined-- --undefined--
