Time Pitch Intensity
0.01 --undefined-- --undefined--
0.02 --undefined-- --undefined--
0.03 --undefined-- --undefined--
0.04 --undefined-- --undefined--
0.05 --undefined-- 50.841
0.06 --undefined-- 51.307
0.07 --undefined-- 51.794
0.08 --undefined-- 58.778
0.09 281.310 66.867
0.10 278.763 71.975
0.11 271.758 74.705
0.12 264.900 75.958
0.13 258.870 76.395
0.14 253.508 76.461
0.15 249.878 76.362
0.16 247.299 76.281
0.17 246.970 76.399
0.18 246.827 76.568
0.19 246.735 76.697
0.20 246.611 76.768
0.21 246.892 76.655
0.22 245.624 76.422
0.23 244.720 76.117
0.24 241.688 75.332
0.25 236.794 73.485
0.26 235.284 69.972
0.27 240.141 64.366
0.28 245.159 57.458
0.29 246.827 52.873
0.30 248.213 52.512
0.31 249.632 61.094
0.32 274.911 68.265
0.33 264.264 72.187
0.34 258.227 73.909
0.35 254.260 74.419
0.36 251.040 74.404
0.37 249.145 74.174
0.38 249.046 73.881
0.39 249.402 73.842
0.40 248.604 74.260
0.41 248.836 74.864
0.42 248.823 75.270
0.43 249.161 75.460
0.44 249.488 75.534
0.45 249.241 75.527
0.46 249.155 75.471
0.47 249.037 75.366
0.48 248.620 75.212
0.49 247.180 74.960
0.50 243.608 74.378
0.51 237.772 72.995
0.52 233.086 70.289
0.53 235.071 65.755
0.54 245.036 59.380
0.55 246.443 53.444
0.56 246.227 49.923
0.57 --undefined-- 46.476
0.58 --undefined-- 44.242
0.59 --undefined-- 43.730
0.60 --undefined-- 43.897
0.61 --undefined-- 43.823
0.62 --undefined-- 44.346
0.63 --undefined-- 52.328
0.64 276.126 60.606
0.65 260.643 65.441
0.66 259.121 67.888
0.67 258.573 69.167
0.68 257.013 69.949
0.69 255.307 70.429
0.70 254.896 70.643
0.71 255.228 70.701
0.72 255.787 70.693
0.73 256.543 70.632
0.74 256.284 70.487
0.75 253.910 70.209
0.76 248.381 69.736
0.77 238.577 69.263
0.78 228.078 69.193
0.79 217.925 69.160
0.80 201.990 68.635
0.81 186.765 67.599
0.82 172.526 66.139
0.83 158.792 64.593
0.84 147.716 63.610
0.85 143.658 63.715
0.86 141.037 64.548
0.87 141.762 65.825
0.88 142.692 67.006
0.89 138.782 67.395
0.90 133.885 66.884
0.91 129.739 65.868
0.92 121.294 64.988
0.93 120.791 64.432
0.94 121.110 63.538
0.95 117.047 62.424
0.96 117.014 62.120
0.97 117.128 63.094
0.98 116.791 64.075
0.99 119.321 64.455
1.00 120.988 64.752
1.01 122.992 64.966
1.02 127.460 64.744
1.03 135.216 64.352
1.04 137.479 63.584
1.05 134.524 61.312
1.06 127.932 56.563
1.07 --undefined-- 49.188
1.08 --undefined-- 42.123
1.09 --undefined-- 47.584
1.10 --undefined-- 58.520
1.11 179.350 65.939
1.12 177.806 69.873
1.13 173.503 71.162
1.14 169.725 71.085
1.15 167.999 70.814
1.16 166.504 70.674
1.17 165.655 70.745
1.18 165.297 71.019
1.19 165.760 71.451
1.20 165.637 71.743
1.21 165.613 71.454
1.22 167.136 70.594
1.23 168.178 69.486
1.24 165.330 68.190
1.25 152.366 66.792
1.26 139.530 65.725
1.27 127.064 65.291
1.28 112.306 65.186
1.29 104.544 64.958
1.30 106.682 65.201
1.31 121.085 66.379
1.32 149.213 67.803
1.33 158.636 69.491
1.34 166.364 71.227
1.35 167.584 72.485
1.36 166.404 73.125
1.37 163.574 73.259
1.38 160.763 73.126
1.39 159.309 72.955
1.40 159.112 72.833
1.41 159.269 72.735
1.42 159.753 72.571
1.43 160.648 72.321
1.44 162.475 72.083
1.45 164.509 71.923
1.46 167.032 71.871
1.47 168.591 71.956
1.48 169.815 72.148
1.49 171.384 72.448
1.50 172.843 72.829
1.51 174.475 73.167
1.52 176.345 73.482
1.53 178.729 73.867
1.54 181.555 74.270
1.55 183.988 74.611
1.56 185.817 74.854
1.57 187.925 74.915
1.58 191.239 74.686
1.59 193.988 74.020
1.60 192.970 72.684
1.61 184.354 70.399
1.62 --undefined-- 67.081
1.63 --undefined-- 62.986
1.64 --undefined-- 58.155
1.65 --undefined-- 53.021
1.66 --undefined-- 47.769
1.67 --undefined-- 42.416
1.68 --undefined-- 40.241
1.69 --undefined-- 39.313
1.70 --undefined-- 39.163
1.71 --undefined-- 39.328
1.72 --undefined-- 40.106
1.73 --undefined-- 41.027
1.74 --undefined-- 40.819
1.75 --undefined-- 39.722
1.76 --undefined-- 39.500
1.77 --undefined-- 39.800
1.78 --undefined-- 39.427
1.79 --undefined-- 38.047
1.80 --undefined-- 36.762
1.81 --undefined-- 37.012
1.82 --undefined-- 37.808
1.83 --undefined-- 38.066
1.84 --undefined-- 37.616
1.85 --undefined-- 37.319
1.86 --undefined-- 38.571
1.87 --undefined-- 41.415
1.88 --undefined-- 44.641
1.89 --undefined-- 47.170
1.90 --undefined-- 48.836
1.91 --undefined-- 54.240
1.92 209.662 62.074
1.93 200.595 67.204
1.94 194.428 69.876
1.95 191.702 71.063
1.96 190.726 71.475
1.97 191.660 71.637
1.98 195.730 71.885
1.99 204.275 72.344
2.00 214.567 73.187
2.01 222.555 73.738
2.02 232.035 73.186
2.03 246.582 71.781
2.04 257.715 70.317
2.05 267.351 68.845
2.06 272.428 66.867
2.07 271.231 63.829
2.08 257.482 59.121
2.09 244.493 52.868
2.10 --undefined-- 46.984
2.11 --undefined-- 46.152
2.12 --undefined-- 50.457
2.13 --undefined-- 52.754
2.14 --undefined-- 53.856
2.15 --undefined-- 60.824
2.16 --undefined-- 68.044
2.17 241.844 72.591
2.18 237.679 74.967
2.19 230.999 75.604
2.20 224.354 75.089
2.21 220.086 74.312
2.22 217.671 73.836
2.23 215.661 73.513
2.24 213.901 73.298
2.25 212.356 73.280
2.26 211.025 73.404
2.27 209.927 73.592
2.28 208.786 73.543
2.29 207.774 72.862
2.30 197.296 71.671
2.31 197.022 70.335
2.32 196.020 69.249
2.33 197.626 69.422
2.34 204.985 70.778
2.35 209.204 72.364
2.36 207.842 73.496
2.37 205.125 73.955
2.38 201.906 73.928
2.39 199.361 73.644
2.40 197.643 73.277
2.41 197.157 73.021
2.42 196.725 72.948
2.43 196.905 73.016
2.44 196.998 73.153
2.45 196.393 73.215
2.46 193.765 73.169
2.47 195.358 73.413
2.48 198.808 73.957
2.49 197.414 74.418
2.50 194.602 74.559
2.51 191.740 74.159
2.52 188.697 73.531
2.53 182.696 73.277
2.54 178.349 73.438
2.55 174.852 73.501
2.56 171.214 73.046
2.57 168.757 72.250
2.58 167.542 71.484
2.59 167.107 71.018
2.60 167.673 70.886
2.61 169.053 70.934
2.62 172.439 71.179
2.63 176.554 71.777
2.64 180.287 72.724
2.65 184.519 73.762
2.66 188.800 74.495
2.67 192.392 74.754
2.68 195.699 74.659
2.69 197.278 74.283
2.70 197.289 73.635
2.71 196.016 72.783
2.72 195.573 72.176
2.73 195.915 72.126
2.74 193.366 72.041
2.75 189.428 71.772
2.76 185.748 71.685
2.77 180.794 71.910
2.78 177.314 72.414
2.79 173.931 72.885
2.80 170.866 72.866
2.81 166.619 72.334
2.82 163.646 71.780
2.83 161.649 71.428
2.84 160.591 71.106
2.85 160.775 70.799
2.86 160.818 70.365
2.87 160.845 69.661
2.88 160.288 68.447
2.89 157.143 66.250
2.90 146.104 63.083
2.91 155.274 59.682
2.92 186.597 56.224
2.93 205.112 53.143
2.94 196.655 50.829
2.95 --undefined-- 47.609
2.96 --undefined-- 43.414
2.97 --undefined-- 42.018
2.98 --undefined-- 42.653
2.99 --undefined-- 41.997
3.00 --undefined-- 41.151
3.01 --undefined-- 41.415
3.02 --undefined-- 40.434
3.03 --undefined-- 37.801
3.04 --undefined-- 37.422
3.05 --undefined-- 39.101
3.06 --undefined-- 39.196
3.07 --undefined-- 38.039
3.08 --undefined-- 38.297
3.09 --undefined-- 38.368
3.10 --undefined-- 36.749
3.11 --undefined-- 35.500
3.12 --undefined-- 37.405
3.13 --undefined-- 39.562
3.14 --undefined-- 39.833
3.15 --undefined-- 38.426
3.16 --undefined-- 37.593
3.17 --undefined-- 37.574
3.18 --undefined-- 36.199
3.19 --undefined-- 35.622
3.20 --undefined-- 36.634
3.21 --undefined-- 36.448
3.22 --undefined-- 36.102
3.23 --undefined-- 36.700
3.24 --undefined-- 37.758
3.25 --undefined-- 38.616
3.26 --undefined-- 37.867
3.27 --undefined-- 36.344
3.28 --undefined-- 34.732
3.29 --undefined-- 34.785
3.30 --undefined-- 36.063
3.31 --undefined-- 35.651
3.32 --undefined-- 35.271
3.33 --undefined-- 37.058
3.34 --undefined-- 39.702
3.35 --undefined-- 42.130
3.36 --undefined-- 44.250
3.37 --undefined-- 46.465
3.38 --undefined-- 48.592
3.39 --undefined-- 52.024
3.40 --undefined-- 60.154
3.41 205.500 66.642
3.42 191.691 70.238
3.43 184.706 71.928
3.44 180.736 72.707
3.45 180.367 72.966
3.46 182.274 72.786
3.47 187.798 72.560
3.48 191.303 72.603
3.49 194.530 72.904
3.50 200.599 73.112
3.51 211.129 72.914
3.52 217.295 72.572
3.53 221.230 72.360
3.54 225.219 72.111
3.55 228.378 71.655
3.56 231.857 71.105
3.57 235.863 70.718
3.58 239.564 70.605
3.59 243.207 70.701
3.60 246.770 70.908
3.61 249.400 71.213
3.62 252.326 71.591
3.63 256.802 72.026
3.64 258.805 72.491
3.65 259.194 72.892
3.66 258.783 73.264
3.67 258.269 73.458
3.68 256.541 72.887
3.69 250.547 71.801
3.70 254.660 71.773
3.71 257.286 72.578
3.72 257.484 73.252
3.73 257.983 73.708
3.74 255.682 74.097
3.75 253.662 74.422
3.76 252.731 74.597
3.77 252.616 74.586
3.78 253.187 74.448
3.79 254.042 74.210
3.80 254.621 73.909
3.81 254.589 73.615
3.82 253.753 73.329
3.83 252.326 72.996
3.84 251.498 72.523
3.85 257.401 71.809
3.86 259.986 71.149
3.87 261.252 70.948
3.88 264.199 71.222
3.89 266.436 71.833
3.90 266.064 72.526
3.91 262.264 73.137
3.92 259.647 73.734
3.93 256.443 74.434
3.94 254.720 74.914
3.95 255.125 74.681
3.96 255.995 73.630
3.97 255.671 72.215
3.98 252.132 70.508
3.99 244.464 67.403
4.00 235.005 61.749
4.01 --undefined-- 53.444
4.02 --undefined-- 46.681
4.03 --undefined-- 45.054
4.04 --undefined-- 44.078
4.05 --undefined-- 43.187
4.06 --undefined-- 42.741
4.07 --undefined-- 43.661
4.08 --undefined-- 45.466
4.09 --undefined-- 48.340
4.10 --undefined-- 55.708
4.11 219.927 63.391
4.12 201.114 67.706
4.13 183.474 69.303
4.14 172.228 69.549
4.15 167.049 69.360
4.16 163.579 69.058
4.17 162.272 68.978
4.18 162.251 69.005
4.19 162.575 68.885
4.20 163.709 68.696
4.21 163.979 68.369
4.22 163.219 67.963
4.23 165.817 67.828
4.24 169.125 68.044
4.25 172.641 68.405
4.26 176.342 68.703
4.27 178.013 68.799
4.28 179.536 68.576
4.29 181.599 67.734
4.30 181.741 65.636
4.31 177.798 61.696
4.32 183.135 57.647
4.33 188.230 58.409
4.34 209.514 63.473
4.35 226.193 68.590
4.36 237.483 72.260
4.37 237.808 74.443
4.38 234.669 75.373
4.39 231.843 75.573
4.40 229.829 75.461
4.41 228.058 75.259
4.42 226.396 75.127
4.43 225.349 75.080
4.44 225.031 75.019
4.45 225.255 74.922
4.46 225.400 74.822
4.47 224.996 74.834
4.48 225.322 75.105
4.49 226.821 75.573
4.50 227.279 75.986
4.51 227.118 76.241
4.52 226.559 76.373
4.53 226.262 76.419
4.54 226.957 76.342
4.55 227.511 76.063
4.56 228.197 75.513
4.57 226.852 74.561
4.58 220.698 73.038
4.59 211.570 70.738
4.60 196.518 67.047
4.61 --undefined-- 61.739
4.62 --undefined-- 56.394
4.63 --undefined-- 53.141
4.64 --undefined-- 48.423
4.65 --undefined-- 43.239
4.66 --undefined-- 42.028
4.67 --undefined-- 41.083
4.68 --undefined-- 46.736
4.69 --undefined-- 56.932
4.70 198.443 64.158
4.71 214.374 68.726
4.72 226.921 71.356
4.73 232.552 72.492
4.74 235.315 72.354
4.75 235.949 70.886
4.76 229.469 67.576
4.77 220.322 61.889
4.78 235.052 54.156
4.79 --undefined-- 48.070
4.80 --undefined-- 46.580
4.81 --undefined-- 46.637
4.82 --undefined-- 49.773
4.83 --undefined-- 60.002
4.84 197.098 66.947
4.85 185.598 70.277
4.86 176.141 70.900
4.87 168.424 70.119
4.88 165.120 68.473
4.89 161.392 65.613
4.90 154.932 61.820
4.91 155.435 57.357
4.92 --undefined-- 51.660
4.93 --undefined-- 44.726
4.94 --undefined-- 40.692
4.95 --undefined-- 39.948
4.96 --undefined-- 39.301
4.97 --undefined-- 38.264
4.98 --undefined-- 37.964
4.99 --undefined-- 40.645
5.00 --undefined-- 45.052
5.01 --undefined-- 49.211
5.02 --undefined-- 52.239
5.03 --undefined-- 54.035
5.04 --undefined-- 57.364
5.05 --undefined-- 64.151
5.06 208.826 69.012
5.07 201.429 71.059
5.08 198.049 71.488
5.09 196.191 71.508
5.10 194.720 71.574
5.11 191.758 71.957
5.12 193.644 72.746
5.13 194.979 73.294
5.14 195.212 73.487
5.15 195.371 73.559
5.16 194.643 73.557
5.17 191.709 73.393
5.18 189.813 72.810
5.19 190.167 71.576
5.20 190.991 70.003
5.21 194.884 68.911
5.22 198.569 68.139
5.23 198.217 67.252
5.24 197.941 66.773
5.25 200.094 67.311
5.26 201.485 68.465
5.27 196.509 69.366
5.28 179.272 69.623
5.29 158.603 69.484
5.30 147.902 69.338
5.31 141.336 69.262
5.32 137.754 69.191
5.33 135.343 69.167
5.34 135.400 69.186
5.35 135.541 69.094
5.36 137.434 68.823
5.37 140.194 68.490
5.38 142.588 68.097
5.39 144.180 67.649
5.40 143.349 67.141
5.41 142.844 66.454
5.42 142.992 65.506
5.43 142.819 64.084
5.44 140.639 61.908
5.45 138.880 58.379
5.46 --undefined-- 52.962
5.47 --undefined-- 46.202
5.48 --undefined-- 41.868
5.49 --undefined-- 40.736
5.50 --undefined-- 39.612
5.51 --undefined-- 39.207
5.52 --undefined-- 39.896
5.53 --undefined-- 41.256
5.54 --undefined-- 43.078
5.55 --undefined-- 43.995
5.56 --undefined-- 48.707
5.57 --undefined-- 57.223
5.58 231.160 63.158
5.59 234.314 66.567
5.60 240.386 68.636
5.61 243.178 70.065
5.62 243.154 71.148
5.63 241.754 71.941
5.64 240.423 72.515
5.65 239.692 72.893
5.66 239.894 73.103
5.67 240.483 73.162
5.68 241.159 --undefined--
5.69 242.219 --undefined--
5.70 --undefined-- --undefined--
5.71 --undefined-- --undefined--
