Time Pitch Intensity
0.01 --undefined-- --undefined--
0.02 --undefined-- --undefined--
0.03 --undefined-- --undefined--
0.04 --undefined-- --undefined--
0.05 --undefined-- 39.139
0.06 --undefined-- 40.804
0.07 --undefined-- 42.778
0.08 --undefined-- 43.695
0.09 --undefined-- 42.857
0.10 --undefined-- 41.789
0.11 --undefined-- 47.662
0.12 --undefined-- 54.252
0.13 --undefined-- 57.551
0.14 --undefined-- 58.781
0.15 --undefined-- 62.437
0.16 181.162 66.245
0.17 174.661 67.553
0.18 165.940 66.816
0.19 162.326 65.429
0.20 160.307 64.330
0.21 156.577 63.617
0.22 153.322 63.084
0.23 151.400 61.786
0.24 --undefined-- 59.737
0.25 --undefined-- 59.432
0.26 --undefined-- 60.752
0.27 --undefined-- 61.782
0.28 --undefined-- 63.292
0.29 --undefined-- 65.689
0.30 --undefined-- 68.457
0.31 149.174 70.034
0.32 144.615 70.374
0.33 141.776 69.793
0.34 142.095 68.185
0.35 142.518 65.512
0.36 143.311 61.228
0.37 --undefined-- 54.311
0.38 --undefined-- 47.758
0.39 --undefined-- 52.736
0.40 --undefined-- 59.873
0.41 --undefined-- 65.797
0.42 165.943 69.745
0.43 166.616 71.770
0.44 173.448 72.579
0.45 180.614 73.062
0.46 185.906 73.299
0.47 188.464 73.000
0.48 187.649 72.272
0.49 184.417 71.570
0.50 179.168 71.052
0.51 173.672 70.547
0.52 168.993 70.026
0.53 164.121 69.532
0.54 160.690 69.011
0.55 159.290 67.719
0.56 158.257 64.681
0.57 155.498 59.535
0.58 --undefined-- 53.590
0.59 --undefined-- 49.649
0.60 --undefined-- 46.751
0.61 --undefined-- 46.084
0.62 --undefined-- 48.255
0.63 --undefined-- 51.619
0.64 --undefined-- 59.122
0.65 --undefined-- 65.022
0.66 --undefined-- 68.677
0.67 193.744 71.769
0.68 187.126 73.776
0.69 182.570 74.403
0.70 178.114 74.078
0.71 174.287 73.285
0.72 170.664 72.235
0.73 167.176 71.044
0.74 163.867 69.987
0.75 163.422 69.339
0.76 163.901 68.770
0.77 164.986 68.134
0.78 165.791 67.730
0.79 164.786 67.639
0.80 163.860 67.996
0.81 161.424 68.762
0.82 159.904 69.586
0.83 157.072 70.245
0.84 154.350 70.879
0.85 151.368 71.170
0.86 147.498 70.510
0.87 142.180 69.268
0.88 139.153 68.877
0.89 134.966 69.137
0.90 135.794 68.606
0.91 --undefined-- 67.246
0.92 --undefined-- 66.323
0.93 --undefined-- 65.887
0.94 --undefined-- 65.150
0.95 --undefined-- 64.559
0.96 --undefined-- 64.268
0.97 --undefined-- 64.147
0.98 --undefined-- 63.967
0.99 --undefined-- 63.512
1.00 --undefined-- 63.157
1.01 74.776 62.808
1.02 74.764 62.491
1.03 74.597 63.077
1.04 172.118 64.590
1.05 168.839 65.932
1.06 164.242 66.314
1.07 161.118 65.340
1.08 159.851 62.796
1.09 --undefined-- 58.292
1.10 --undefined-- 51.748
1.11 --undefined-- 46.554
1.12 --undefined-- 55.485
1.13 --undefined-- 63.556
1.14 --undefined-- 66.801
1.15 --undefined-- 66.096
1.16 --undefined-- 64.419
1.17 --undefined-- 64.488
1.18 --undefined-- 63.641
1.19 --undefined-- 62.178
1.20 --undefined-- 61.108
1.21 --undefined-- 60.623
1.22 --undefined-- 60.772
1.23 --undefined-- 62.463
1.24 --undefined-- 64.469
1.25 --undefined-- 65.711
1.26 --undefined-- 66.070
1.27 --undefined-- 65.237
1.28 --undefined-- 62.434
1.29 --undefined-- 57.595
1.30 --undefined-- 51.996
1.31 --undefined-- 52.046
1.32 --undefined-- 57.906
1.33 --undefined-- 62.118
1.34 --undefined-- 64.403
1.35 --undefined-- 65.073
1.36 --undefined-- 65.180
1.37 --undefined-- 64.996
1.38 --undefined-- 63.629
1.39 --undefined-- 62.087
1.40 --undefined-- 60.803
1.41 --undefined-- 59.264
1.42 --undefined-- 58.279
1.43 129.575 58.172
1.44 133.048 58.501
1.45 84.148 58.627
1.46 --undefined-- 57.607
1.47 --undefined-- 54.045
1.48 --undefined-- 47.359
1.49 --undefined-- 41.624
1.50 --undefined-- 40.401
1.51 --undefined-- 40.222
1.52 --undefined-- 40.219
1.53 --undefined-- 41.307
1.54 --undefined-- 41.872
1.55 --undefined-- 41.031
1.56 --undefined-- 40.776
1.57 --undefined-- 41.880
1.58 --undefined-- 42.905
1.59 --undefined-- 43.241
1.60 --undefined-- 43.522
1.61 --undefined-- 44.248
1.62 --undefined-- 45.385
1.63 --undefined-- 46.749
1.64 --undefined-- 47.341
1.65 --undefined-- 45.610
1.66 --undefined-- 41.991
1.67 --undefined-- 40.582
1.68 --undefined-- 40.124
1.69 --undefined-- 46.533
1.70 --undefined-- 55.305
1.71 --undefined-- 60.129
1.72 --undefined-- 63.268
1.73 --undefined-- 67.588
1.74 289.039 70.545
1.75 291.073 71.502
1.76 287.597 71.508
1.77 284.266 71.032
1.78 281.516 69.944
1.79 271.333 69.163
1.80 262.148 69.457
1.81 259.004 69.806
1.82 259.502 70.123
1.83 258.730 70.251
1.84 256.354 70.006
1.85 253.779 69.321
1.86 247.850 67.876
1.87 239.230 65.945
1.88 233.473 64.210
1.89 234.922 63.859
1.90 237.607 66.547
1.91 232.928 68.978
1.92 222.185 69.613
1.93 217.867 69.012
1.94 215.306 68.257
1.95 200.716 67.853
1.96 195.798 67.089
1.97 183.972 66.010
1.98 182.751 65.137
1.99 179.490 65.004
2.00 179.147 65.508
2.01 172.884 66.627
2.02 159.112 68.165
2.03 149.711 69.075
2.04 140.763 68.742
2.05 135.694 66.714
2.06 135.296 64.001
2.07 135.922 63.866
2.08 135.834 65.309
2.09 134.650 66.535
2.10 134.512 67.012
2.11 134.975 67.249
2.12 135.097 68.662
2.13 136.884 70.642
2.14 136.698 71.411
2.15 137.019 70.929
2.16 137.029 70.017
2.17 136.939 69.116
2.18 137.212 68.198
2.19 138.259 67.179
2.20 139.247 65.784
2.21 139.150 63.582
2.22 137.443 60.678
2.23 --undefined-- 56.754
2.24 --undefined-- 51.001
2.25 --undefined-- 45.314
2.26 --undefined-- 42.736
2.27 --undefined-- 41.472
2.28 --undefined-- 40.927
2.29 --undefined-- 46.156
2.30 --undefined-- 57.294
2.31 --undefined-- 65.234
2.32 --undefined-- 70.054
2.33 --undefined-- 71.890
2.34 --undefined-- 70.999
2.35 --undefined-- 67.898
2.36 131.000 63.932
2.37 131.227 63.166
2.38 128.677 63.846
2.39 124.763 63.831
2.40 122.800 63.334
2.41 121.245 62.410
2.42 121.892 61.215
2.43 121.590 59.774
2.44 119.566 58.136
2.45 118.478 56.518
2.46 119.586 54.321
2.47 124.812 51.232
2.48 --undefined-- 48.185
2.49 --undefined-- 45.728
2.50 --undefined-- 43.682
2.51 --undefined-- 42.293
2.52 --undefined-- 41.209
2.53 --undefined-- 40.248
2.54 --undefined-- 39.414
2.55 --undefined-- 38.506
2.56 --undefined-- 38.826
2.57 --undefined-- 41.972
2.58 --undefined-- 46.577
2.59 --undefined-- 48.729
2.60 --undefined-- 47.572
2.61 --undefined-- 44.624
2.62 --undefined-- 42.143
2.63 --undefined-- 39.816
2.64 --undefined-- 38.936
2.65 --undefined-- 39.523
2.66 --undefined-- 39.425
2.67 --undefined-- 38.128
2.68 --undefined-- 37.022
2.69 --undefined-- 37.352
2.70 --undefined-- 38.010
2.71 --undefined-- 38.024
2.72 --undefined-- 39.792
2.73 --undefined-- 52.759
2.74 --undefined-- 62.732
2.75 --undefined-- 68.361
2.76 158.079 71.332
2.77 163.861 73.045
2.78 172.046 73.695
2.79 173.769 72.790
2.80 173.093 70.604
2.81 173.893 68.860
2.82 170.204 68.020
2.83 166.662 67.477
2.84 160.543 67.837
2.85 157.171 69.860
2.86 153.229 71.859
2.87 293.886 72.637
2.88 276.738 72.811
2.89 261.530 72.975
2.90 246.955 72.954
2.91 232.017 72.805
2.92 217.571 72.533
2.93 206.406 71.992
2.94 201.327 71.082
2.95 198.949 69.608
2.96 195.077 67.444
2.97 188.265 64.967
2.98 184.549 62.582
2.99 176.561 60.386
3.00 173.716 59.075
3.01 168.168 58.258
3.02 167.767 57.911
3.03 166.905 57.976
3.04 165.029 58.297
3.05 164.012 58.366
3.06 162.292 58.431
3.07 161.404 58.842
3.08 161.215 59.329
3.09 161.596 59.691
3.10 162.846 59.668
3.11 162.431 59.193
3.12 162.176 58.335
3.13 161.162 56.968
3.14 159.824 55.272
3.15 --undefined-- 54.417
3.16 --undefined-- 54.897
3.17 --undefined-- 55.259
3.18 --undefined-- 55.384
3.19 --undefined-- 56.265
3.20 --undefined-- 57.804
3.21 --undefined-- 57.933
3.22 --undefined-- 57.275
3.23 --undefined-- 55.724
3.24 --undefined-- 50.976
3.25 --undefined-- 43.494
3.26 --undefined-- 40.389
3.27 --undefined-- 40.301
3.28 --undefined-- 40.699
3.29 --undefined-- 41.398
3.30 --undefined-- 41.047
3.31 --undefined-- 39.590
3.32 --undefined-- 38.570
3.33 --undefined-- 38.241
3.34 --undefined-- 38.105
3.35 --undefined-- 38.196
3.36 --undefined-- 37.895
3.37 --undefined-- 37.773
3.38 --undefined-- 38.982
3.39 --undefined-- 39.849
3.40 --undefined-- 39.644
3.41 --undefined-- 38.904
3.42 --undefined-- 39.164
3.43 --undefined-- 40.806
3.44 --undefined-- 41.603
3.45 --undefined-- 41.050
3.46 --undefined-- 41.104
3.47 --undefined-- 42.237
3.48 --undefined-- 42.526
3.49 --undefined-- 41.407
3.50 --undefined-- 44.033
3.51 --undefined-- 57.432
3.52 --undefined-- 65.848
3.53 --undefined-- 70.067
3.54 --undefined-- 73.206
3.55 155.118 76.140
3.56 154.230 76.945
3.57 153.640 75.410
3.58 154.705 72.748
3.59 157.010 71.164
3.60 158.570 70.990
3.61 159.531 70.775
3.62 159.001 69.944
3.63 155.713 68.762
3.64 154.259 68.324
3.65 156.913 69.211
3.66 157.114 70.263
3.67 156.353 70.504
3.68 155.681 69.268
3.69 153.653 65.965
3.70 151.362 60.583
3.71 155.633 55.842
3.72 --undefined-- 57.520
3.73 --undefined-- 62.936
3.74 165.341 68.287
3.75 154.793 71.350
3.76 148.928 72.186
3.77 147.280 71.883
3.78 148.540 71.540
3.79 149.691 71.417
3.80 150.041 71.404
3.81 150.194 71.541
3.82 299.288 71.652
3.83 297.433 71.619
3.84 294.907 71.424
3.85 292.370 71.035
3.86 291.225 70.622
3.87 291.543 70.397
3.88 291.031 70.303
3.89 288.582 70.230
3.90 284.281 70.122
3.91 279.244 69.999
3.92 274.270 70.006
3.93 268.885 70.218
3.94 264.399 71.207
3.95 261.137 73.454
3.96 258.779 75.237
3.97 252.582 75.455
3.98 239.065 74.460
3.99 226.669 73.637
4.00 216.713 73.837
4.01 206.820 74.427
4.02 200.293 74.621
4.03 192.557 74.099
4.04 185.721 73.147
4.05 181.224 72.356
4.06 177.869 72.039
4.07 174.679 71.960
4.08 173.312 71.948
4.09 171.964 71.928
4.10 171.278 71.992
4.11 171.391 72.202
4.12 171.009 72.517
4.13 169.970 72.971
4.14 169.693 73.181
4.15 169.482 72.206
4.16 170.034 69.371
4.17 171.637 65.000
4.18 173.901 60.145
4.19 177.894 55.661
4.20 176.421 53.570
4.21 --undefined-- 58.758
4.22 --undefined-- 66.888
4.23 217.219 72.207
4.24 215.150 74.670
4.25 217.159 75.287
4.26 222.733 74.746
4.27 230.673 72.928
4.28 235.643 69.901
4.29 232.034 67.174
4.30 227.401 66.934
4.31 223.343 69.906
4.32 222.863 73.084
4.33 220.295 74.450
4.34 208.403 74.192
4.35 197.702 73.548
4.36 189.615 73.047
4.37 184.046 71.944
4.38 179.498 69.602
4.39 177.349 65.537
4.40 175.762 59.953
4.41 --undefined-- 54.529
4.42 --undefined-- 51.414
4.43 --undefined-- 49.348
4.44 --undefined-- 48.610
4.45 --undefined-- 48.991
4.46 --undefined-- 50.118
4.47 --undefined-- 52.219
4.48 --undefined-- 54.164
4.49 --undefined-- 55.209
4.50 --undefined-- 58.892
4.51 --undefined-- 66.097
4.52 242.901 71.242
4.53 233.206 73.869
4.54 225.487 74.446
4.55 217.810 73.373
4.56 210.248 70.607
4.57 203.509 66.052
4.58 198.522 60.040
4.59 --undefined-- 54.535
4.60 --undefined-- 51.735
4.61 --undefined-- 53.384
4.62 --undefined-- 60.771
4.63 --undefined-- 67.575
4.64 207.357 71.282
4.65 200.015 72.259
4.66 189.781 71.963
4.67 174.078 71.630
4.68 164.549 71.281
4.69 156.606 70.491
4.70 152.117 68.878
4.71 150.471 66.078
4.72 147.404 61.824
4.73 --undefined-- 55.977
4.74 --undefined-- 50.195
4.75 --undefined-- 48.271
4.76 --undefined-- 52.685
4.77 --undefined-- 59.916
4.78 --undefined-- 65.904
4.79 174.817 69.378
4.80 169.523 70.948
4.81 166.062 71.129
4.82 165.457 69.803
4.83 164.735 66.634
4.84 161.717 61.414
4.85 --undefined-- 54.287
4.86 --undefined-- 47.880
4.87 --undefined-- 45.973
4.88 --undefined-- 47.752
4.89 --undefined-- 51.978
4.90 --undefined-- 55.447
4.91 --undefined-- 57.358
4.92 --undefined-- 59.379
4.93 --undefined-- 61.607
4.94 --undefined-- 62.015
4.95 --undefined-- 62.224
4.96 188.355 65.348
4.97 180.744 67.468
4.98 176.150 66.784
4.99 169.719 63.589
5.00 166.713 59.438
5.01 --undefined-- 57.887
5.02 --undefined-- 60.748
5.03 224.128 65.857
5.04 225.773 70.745
5.05 229.302 73.808
5.06 231.462 75.119
5.07 229.560 75.091
5.08 226.042 73.758
5.09 222.909 70.871
5.10 229.504 67.316
5.11 234.669 66.100
5.12 237.605 66.656
5.13 240.789 67.309
5.14 240.730 67.669
5.15 237.189 68.714
5.16 230.288 70.894
5.17 218.345 73.011
5.18 207.452 74.157
5.19 196.787 73.848
5.20 171.442 72.307
5.21 158.989 70.509
5.22 150.224 69.207
5.23 144.928 67.706
5.24 142.619 64.746
5.25 141.080 60.052
5.26 137.275 55.957
5.27 134.996 54.434
5.28 134.031 53.709
5.29 131.698 53.566
5.30 133.381 55.680
5.31 140.908 61.451
5.32 143.718 67.174
5.33 144.385 70.540
5.34 142.527 71.898
5.35 --undefined-- 72.268
5.36 --undefined-- 71.766
5.37 --undefined-- 70.917
5.38 --undefined-- 70.405
5.39 --undefined-- 69.758
5.40 --undefined-- 68.785
5.41 --undefined-- 67.571
5.42 --undefined-- 66.466
5.43 --undefined-- 65.030
5.44 --undefined-- 62.946
5.45 --undefined-- 61.442
5.46 --undefined-- 62.160
5.47 --undefined-- 63.165
5.48 --undefined-- 62.501
5.49 159.893 60.284
5.50 163.936 58.544
5.51 164.866 60.299
5.52 169.573 64.984
5.53 172.575 68.267
5.54 178.733 70.031
5.55 182.992 71.138
5.56 185.432 71.358
5.57 186.625 70.057
5.58 184.588 66.793
5.59 89.134 61.868
5.60 91.470 60.079
5.61 92.558 65.185
5.62 170.833 69.755
5.63 167.478 72.344
5.64 160.438 73.176
5.65 155.544 --undefined--
5.66 151.677 --undefined--
5.67 --undefined-- --undefined--
5.68 --undefined-- --undefined--
