Time Pitch Intensity
0.01 --undefined-- --undefined--
0.02 184.804 --undefined--
0.03 184.555 --undefined--
0.04 184.974 --undefined--
0.05 179.912 60.428
0.06 176.202 57.797
0.07 181.665 54.686
0.08 --undefined-- 50.731
0.09 --undefined-- 50.767
0.10 --undefined-- 59.445
0.11 218.421 66.156
0.12 217.819 70.010
0.13 214.482 71.939
0.14 211.712 72.745
0.15 209.721 72.864
0.16 209.219 72.171
0.17 208.669 70.529
0.18 206.626 67.712
0.19 204.123 63.547
0.20 203.743 58.152
0.21 204.477 52.294
0.22 --undefined-- 47.844
0.23 --undefined-- 45.289
0.24 --undefined-- 43.093
0.25 --undefined-- 41.471
0.26 --undefined-- 39.532
0.27 --undefined-- 36.605
0.28 --undefined-- 32.640
0.29 --undefined-- 28.125
0.30 --undefined-- 26.511
0.31 --undefined-- 26.828
0.32 --undefined-- 26.947
0.33 --undefined-- 27.104
0.34 --undefined-- 27.353
0.35 --undefined-- 26.896
0.36 --undefined-- 25.745
0.37 --undefined-- 25.419
0.38 --undefined-- 25.773
0.39 --undefined-- 25.932
0.40 --undefined-- 38.225
0.41 --undefined-- 54.630
0.42 --undefined-- 64.293
0.43 --undefined-- 69.261
0.44 --undefined-- 71.236
0.45 282.694 72.599
0.46 284.587 74.096
0.47 285.261 74.529
0.48 284.613 73.830
0.49 284.044 72.708
0.50 284.256 71.413
0.51 284.740 69.784
0.52 285.715 67.495
0.53 285.615 64.969
0.54 285.376 63.958
0.55 285.897 64.274
0.56 281.174 64.875
0.57 276.593 65.377
0.58 279.419 65.649
0.59 283.859 65.902
0.60 280.680 66.141
0.61 277.321 66.025
0.62 276.022 65.818
0.63 274.955 65.943
0.64 275.846 66.218
0.65 274.999 66.602
0.66 272.685 67.151
0.67 271.546 67.588
0.68 269.809 67.719
0.69 266.578 67.773
0.70 258.191 67.569
0.71 245.105 66.904
0.72 234.224 66.065
0.73 227.014 65.351
0.74 216.362 64.576
0.75 203.391 64.186
0.76 188.735 65.819
0.77 185.662 67.741
0.78 180.898 67.982
0.79 177.215 66.859
0.80 174.538 65.928
0.81 174.194 66.323
0.82 175.934 67.711
0.83 177.488 68.976
0.84 178.157 69.614
0.85 181.193 69.169
0.86 187.333 67.507
0.87 195.123 66.227
0.88 201.298 65.985
0.89 205.549 65.717
0.90 208.621 65.652
0.91 213.358 65.775
0.92 218.403 66.364
0.93 219.280 68.337
0.94 220.735 70.270
0.95 222.030 71.041
0.96 224.136 70.853
0.97 228.063 70.278
0.98 231.834 69.480
0.99 235.085 68.360
1.00 235.813 66.933
1.01 235.063 65.236
1.02 230.975 62.828
1.03 223.230 59.121
1.04 222.223 54.647
1.05 --undefined-- 50.359
1.06 --undefined-- 46.500
1.07 --undefined-- 43.113
1.08 --undefined-- 42.567
1.09 --undefined-- 46.617
1.10 --undefined-- 53.328
1.11 --undefined-- 58.862
1.12 158.937 62.348
1.13 159.405 64.123
1.14 161.129 64.932
1.15 162.308 65.529
1.16 161.559 65.969
1.17 159.124 66.191
1.18 157.514 66.289
1.19 157.404 66.021
1.20 156.430 65.291
1.21 155.234 64.694
1.22 156.317 64.394
1.23 158.355 63.765
1.24 159.775 62.506
1.25 166.150 61.048
1.26 177.008 60.431
1.27 188.301 60.820
1.28 197.870 61.286
1.29 205.727 61.907
1.30 209.518 63.042
1.31 210.792 64.012
1.32 211.132 64.725
1.33 210.212 65.490
1.34 209.906 66.055
1.35 210.876 66.262
1.36 213.207 66.337
1.37 215.729 66.323
1.38 216.581 65.883
1.39 216.149 65.090
1.40 215.148 63.946
1.41 212.368 61.915
1.42 208.660 58.429
1.43 --undefined-- 53.172
1.44 --undefined-- 46.610
1.45 --undefined-- 39.473
1.46 --undefined-- 37.085
1.47 --undefined-- 46.282
1.48 --undefined-- 53.025
1.49 --undefined-- 57.365
1.50 --undefined-- 60.063
1.51 174.885 61.984
1.52 179.387 63.800
1.53 179.332 65.260
1.54 172.561 66.508
1.55 172.924 67.580
1.56 171.762 68.589
1.57 170.410 69.258
1.58 166.047 69.128
1.59 159.853 68.302
1.60 158.642 67.298
1.61 160.364 66.584
1.62 161.527 66.086
1.63 161.074 65.476
1.64 158.346 64.898
1.65 158.043 64.587
1.66 163.412 64.521
1.67 167.001 64.754
1.68 167.073 65.042
1.69 169.784 64.908
1.70 172.415 63.551
1.71 174.573 60.292
1.72 173.771 55.041
1.73 --undefined-- 48.467
1.74 --undefined-- 46.881
1.75 --undefined-- 49.276
1.76 --undefined-- 49.639
1.77 --undefined-- 50.272
1.78 --undefined-- 54.860
1.79 --undefined-- 61.437
1.80 --undefined-- 65.531
1.81 --undefined-- 67.190
1.82 --undefined-- 67.778
1.83 140.692 68.097
1.84 138.793 68.265
1.85 139.759 68.603
1.86 --undefined-- 69.107
1.87 151.064 68.867
1.88 154.132 67.699
1.89 158.007 66.180
1.90 161.614 65.370
1.91 163.526 65.506
1.92 163.323 65.297
1.93 162.969 64.247
1.94 163.011 63.568
1.95 164.329 64.086
1.96 164.230 64.565
1.97 162.665 63.623
1.98 159.310 60.079
1.99 --undefined-- 53.350
2.00 --undefined-- 45.248
2.01 --undefined-- 39.386
2.02 --undefined-- 34.304
2.03 --undefined-- 28.899
2.04 --undefined-- 26.821
2.05 --undefined-- 27.274
2.06 --undefined-- 34.506
2.07 --undefined-- 48.742
2.08 --undefined-- 59.279
2.09 --undefined-- 65.895
2.10 --undefined-- 69.055
2.11 --undefined-- 69.248
2.12 --undefined-- 67.140
2.13 --undefined-- 64.932
2.14 --undefined-- 65.741
2.15 --undefined-- 66.283
2.16 --undefined-- 66.357
2.17 --undefined-- 67.164
2.18 --undefined-- 67.562
2.19 --undefined-- 67.244
2.20 --undefined-- 66.237
2.21 --undefined-- 64.525
2.22 --undefined-- 63.288
2.23 147.786 63.119
2.24 165.707 64.712
2.25 169.699 66.399
2.26 172.193 67.479
2.27 180.278 68.302
2.28 181.397 68.789
2.29 182.775 68.679
2.30 187.903 67.992
2.31 189.618 67.218
2.32 190.668 66.997
2.33 190.741 67.752
2.34 191.009 69.110
2.35 191.332 70.051
2.36 189.544 70.421
2.37 184.801 70.715
2.38 179.930 70.859
2.39 177.200 70.550
2.40 173.610 70.113
2.41 169.558 70.029
2.42 165.482 69.942
2.43 162.557 69.424
2.44 154.920 68.549
2.45 --undefined-- 67.968
2.46 --undefined-- 67.425
2.47 --undefined-- 66.609
2.48 --undefined-- 65.939
2.49 161.858 65.051
2.50 158.211 63.228
2.51 151.000 60.488
2.52 --undefined-- 56.916
2.53 --undefined-- 52.756
2.54 --undefined-- 49.428
2.55 --undefined-- 47.582
2.56 --undefined-- 50.873
2.57 259.230 53.338
2.58 269.881 53.254
2.59 --undefined-- 53.980
2.60 163.315 58.117
2.61 165.730 62.596
2.62 169.263 65.785
2.63 171.093 67.759
2.64 173.339 69.001
2.65 174.338 69.665
2.66 175.616 69.531
2.67 176.719 68.292
2.68 178.144 65.775
2.69 180.795 62.618
2.70 179.540 59.908
2.71 177.629 58.129
2.72 178.417 57.416
2.73 180.174 58.257
2.74 182.068 61.152
2.75 182.654 64.934
2.76 182.863 68.117
2.77 181.479 69.939
2.78 178.567 70.370
2.79 176.166 69.860
2.80 174.012 68.802
2.81 170.693 67.215
2.82 164.209 65.122
2.83 158.227 62.511
2.84 154.482 59.365
2.85 150.487 55.981
2.86 142.904 52.982
2.87 137.922 51.380
2.88 --undefined-- 50.401
2.89 --undefined-- 48.469
2.90 --undefined-- 45.214
2.91 --undefined-- 44.446
2.92 --undefined-- 49.086
2.93 293.733 52.201
2.94 293.085 52.502
2.95 --undefined-- 51.071
2.96 --undefined-- 51.345
2.97 --undefined-- 52.356
2.98 --undefined-- 52.635
2.99 146.564 53.382
3.00 146.670 55.102
3.01 160.793 56.247
3.02 171.496 55.593
3.03 173.614 55.075
3.04 164.070 56.598
3.05 --undefined-- 59.141
3.06 --undefined-- 60.837
3.07 --undefined-- 59.818
3.08 --undefined-- 55.985
3.09 --undefined-- 49.797
3.10 --undefined-- 40.847
3.11 --undefined-- 32.945
3.12 --undefined-- 45.633
3.13 --undefined-- 58.403
3.14 --undefined-- 66.559
3.15 --undefined-- 70.338
3.16 --undefined-- 70.643
3.17 --undefined-- 69.162
3.18 --undefined-- 68.269
3.19 79.672 68.379
3.20 79.764 68.672
3.21 --undefined-- 69.094
3.22 --undefined-- 67.749
3.23 --undefined-- 65.217
3.24 --undefined-- 64.660
3.25 160.086 65.193
3.26 160.062 65.109
3.27 160.233 64.659
3.28 169.087 64.929
3.29 170.214 64.886
3.30 172.311 63.403
3.31 174.987 61.464
3.32 171.122 61.211
3.33 171.997 61.743
3.34 176.092 61.572
3.35 184.050 62.738
3.36 186.452 66.331
3.37 186.674 69.164
3.38 186.615 70.480
3.39 185.942 70.865
3.40 185.502 70.848
3.41 185.903 70.463
3.42 185.694 69.681
3.43 183.954 68.620
3.44 178.741 67.392
3.45 176.307 66.139
3.46 174.107 64.861
3.47 173.021 63.811
3.48 167.730 63.005
3.49 166.380 62.309
3.50 169.255 61.842
3.51 172.895 62.447
3.52 180.975 64.004
3.53 183.248 65.274
3.54 185.902 66.108
3.55 187.642 66.789
3.56 188.584 67.365
3.57 185.804 67.487
3.58 185.406 66.858
3.59 184.987 65.762
3.60 186.042 64.399
3.61 189.989 62.497
3.62 195.525 59.776
3.63 195.491 56.393
3.64 --undefined-- 52.500
3.65 --undefined-- 47.926
3.66 --undefined-- 41.766
3.67 --undefined-- 32.996
3.68 --undefined-- 25.420
3.69 --undefined-- 24.483
3.70 --undefined-- 25.715
3.71 --undefined-- 33.870
3.72 --undefined-- 45.400
3.73 --undefined-- 52.592
3.74 --undefined-- 56.398
3.75 --undefined-- 59.760
3.76 --undefined-- 64.925
3.77 218.679 69.017
3.78 210.780 70.927
3.79 205.238 71.172
3.80 204.562 70.567
3.81 204.233 69.559
3.82 201.801 68.504
3.83 200.663 68.447
3.84 200.866 69.295
3.85 200.783 69.930
3.86 201.126 70.035
3.87 200.268 69.651
3.88 198.087 68.411
3.89 193.958 66.161
3.90 189.711 63.251
3.91 183.653 60.280
3.92 180.134 59.095
3.93 179.558 59.545
3.94 178.066 59.953
3.95 177.398 60.301
3.96 175.482 60.595
3.97 171.763 60.668
3.98 168.846 61.008
3.99 165.999 61.429
4.00 161.822 61.428
4.01 159.446 61.003
4.02 157.653 60.487
4.03 153.377 60.209
4.04 149.631 59.807
4.05 147.646 58.666
4.06 142.495 56.465
4.07 --undefined-- 53.632
4.08 --undefined-- 50.064
4.09 --undefined-- 46.229
4.10 --undefined-- 43.923
4.11 --undefined-- 40.145
4.12 --undefined-- 36.795
4.13 --undefined-- 39.154
4.14 --undefined-- 41.056
4.15 --undefined-- 41.489
4.16 --undefined-- 42.064
4.17 --undefined-- 43.012
4.18 --undefined-- 43.123
4.19 --undefined-- 42.163
4.20 --undefined-- 41.961
4.21 --undefined-- 43.540
4.22 --undefined-- 46.030
4.23 --undefined-- 48.276
4.24 --undefined-- 49.959
4.25 --undefined-- 53.531
4.26 --undefined-- 60.814
4.27 --undefined-- 66.749
4.28 --undefined-- 69.931
4.29 --undefined-- 70.590
4.30 --undefined-- 69.279
4.31 --undefined-- 66.108
4.32 --undefined-- 61.657
4.33 --undefined-- 60.251
4.34 --undefined-- 61.600
4.35 --undefined-- 65.346
4.36 --undefined-- 68.920
4.37 --undefined-- 70.442
4.38 --undefined-- 70.096
4.39 --undefined-- 68.112
4.40 --undefined-- 65.369
4.41 --undefined-- 63.395
4.42 --undefined-- 60.896
4.43 --undefined-- 58.001
4.44 --undefined-- 54.480
4.45 --undefined-- 47.626
4.46 --undefined-- 40.422
4.47 --undefined-- 39.843
4.48 --undefined-- 37.743
4.49 --undefined-- 33.346
4.50 --undefined-- 29.567
4.51 --undefined-- 27.345
4.52 --undefined-- 25.480
4.53 --undefined-- 25.123
4.54 --undefined-- 27.543
4.55 --undefined-- 31.194
4.56 --undefined-- 35.307
4.57 --undefined-- 39.217
4.58 --undefined-- 42.407
4.59 --undefined-- 44.458
4.60 --undefined-- 45.621
4.61 --undefined-- 47.363
4.62 --undefined-- 49.695
4.63 --undefined-- 51.408
4.64 --undefined-- 52.424
4.65 --undefined-- 52.873
4.66 --undefined-- 53.544
4.67 --undefined-- 54.963
4.68 --undefined-- 55.721
4.69 --undefined-- 55.388
4.70 --undefined-- 54.980
4.71 --undefined-- 54.262
4.72 --undefined-- 54.261
4.73 --undefined-- 54.398
4.74 --undefined-- 54.034
4.75 --undefined-- 54.695
4.76 --undefined-- 54.808
4.77 --undefined-- 54.483
4.78 --undefined-- 54.155
4.79 --undefined-- 53.564
4.80 --undefined-- 53.659
4.81 --undefined-- 54.271
4.82 --undefined-- 54.111
4.83 --undefined-- 52.981
4.84 --undefined-- 52.450
4.85 --undefined-- 53.039
4.86 --undefined-- 52.896
4.87 --undefined-- 51.817
4.88 --undefined-- 50.161
4.89 --undefined-- 48.463
4.90 --undefined-- 47.117
4.91 --undefined-- 44.254
4.92 --undefined-- 39.381
4.93 --undefined-- 34.019
4.94 --undefined-- 29.693
4.95 --undefined-- 27.488
4.96 --undefined-- 27.172
4.97 --undefined-- 27.086
4.98 --undefined-- 26.745
4.99 --undefined-- 31.689
5.00 --undefined-- 45.816
5.01 --undefined-- 57.521
5.02 --undefined-- 65.418
5.03 --undefined-- 70.047
5.04 267.538 72.145
5.05 268.341 72.302
5.06 277.766 71.059
5.07 288.079 69.113
5.08 168.291 67.957
5.09 190.752 67.904
5.10 202.506 67.735
5.11 210.052 67.761
5.12 212.797 68.007
5.13 207.930 67.609
5.14 200.474 66.270
5.15 197.091 65.816
5.16 194.210 66.940
5.17 187.150 67.927
5.18 178.746 68.383
5.19 165.258 68.835
5.20 294.317 69.092
5.21 262.989 68.370
5.22 225.979 66.952
5.23 210.147 65.904
5.24 203.321 65.287
5.25 194.657 65.072
5.26 185.892 65.724
5.27 180.533 67.006
5.28 178.434 68.117
5.29 176.294 68.892
5.30 173.989 69.429
5.31 175.091 69.586
5.32 176.091 69.864
5.33 174.127 70.183
5.34 173.496 69.441
5.35 174.068 67.054
5.36 173.516 63.207
5.37 171.303 58.127
5.38 --undefined-- 52.127
5.39 --undefined-- 50.368
5.40 --undefined-- 54.471
5.41 --undefined-- 57.558
5.42 --undefined-- 58.379
5.43 --undefined-- 57.051
5.44 --undefined-- 55.640
5.45 216.666 57.429
5.46 216.861 60.883
5.47 218.877 63.666
5.48 221.904 65.939
5.49 219.361 68.043
5.50 212.597 69.659
5.51 205.944 70.068
5.52 187.950 69.559
5.53 185.875 69.323
5.54 185.593 69.563
5.55 187.416 69.704
5.56 192.629 69.658
5.57 198.307 69.885
5.58 208.425 70.391
5.59 211.973 70.006
5.60 214.301 68.483
5.61 239.004 67.894
5.62 246.050 --undefined--
5.63 253.667 --undefined--
5.64 --undefined-- --undefined--
5.65 --undefined-- --undefined--
