Time Pitch Intensity
0.01 --undefined-- --undefined--
0.02 119.117 --undefined--
0.03 126.695 --undefined--
0.04 129.310 --undefined--
0.05 131.329 76.555
0.06 135.325 76.689
0.07 140.510 76.822
0.08 145.449 76.813
0.09 151.918 76.516
0.10 159.118 76.091
0.11 161.212 75.922
0.12 162.824 76.040
0.13 163.606 76.149
0.14 162.804 76.354
0.15 159.686 76.845
0.16 155.828 77.438
0.17 151.332 77.871
0.18 147.356 77.990
0.19 142.031 77.763
0.20 137.748 77.075
0.21 132.003 75.988
0.22 126.298 74.983
0.23 121.951 74.370
0.24 118.630 73.942
0.25 117.062 73.373
0.26 114.657 72.723
0.27 113.747 72.928
0.28 113.974 73.875
0.29 113.709 74.740
0.30 113.171 75.218
0.31 112.409 75.482
0.32 112.206 75.562
0.33 112.235 75.012
0.34 109.887 73.154
0.35 92.127 69.606
0.36 --undefined-- 64.871
0.37 112.481 59.088
0.38 114.678 53.692
0.39 --undefined-- 50.826
0.40 --undefined-- 48.927
0.41 --undefined-- 51.473
0.42 --undefined-- 62.386
0.43 --undefined-- 70.504
0.44 --undefined-- 74.921
0.45 123.658 76.183
0.46 116.914 75.231
0.47 103.260 73.217
0.48 101.841 71.861
0.49 109.072 72.393
0.50 112.644 73.471
0.51 111.827 74.021
0.52 111.940 74.148
0.53 112.689 74.100
0.54 112.720 73.833
0.55 112.520 73.417
0.56 115.398 73.863
0.57 119.161 75.320
0.58 119.914 76.396
0.59 120.382 76.990
0.60 120.385 77.345
0.61 119.990 77.047
0.62 119.396 75.374
0.63 120.599 71.777
0.64 119.628 66.635
0.65 119.534 62.107
0.66 120.267 59.301
0.67 119.847 57.326
0.68 120.266 55.854
0.69 119.848 54.303
0.70 121.888 52.767
0.71 --undefined-- 51.539
0.72 --undefined-- 54.602
0.73 --undefined-- 65.133
0.74 --undefined-- 72.151
0.75 --undefined-- 75.247
0.76 --undefined-- 75.642
0.77 --undefined-- 74.928
0.78 --undefined-- 74.241
0.79 111.211 74.054
0.80 111.795 74.402
0.81 112.507 74.570
0.82 112.740 74.124
0.83 111.949 73.173
0.84 111.543 72.089
0.85 111.658 71.079
0.86 116.366 69.436
0.87 112.288 66.114
0.88 112.115 61.404
0.89 112.499 58.010
0.90 112.183 56.963
0.91 --undefined-- 56.784
0.92 --undefined-- 56.085
0.93 --undefined-- 54.816
0.94 --undefined-- 53.903
0.95 --undefined-- 53.305
0.96 --undefined-- 53.171
0.97 --undefined-- 53.900
0.98 --undefined-- 56.016
0.99 --undefined-- 61.249
1.00 --undefined-- 68.575
1.01 --undefined-- 73.330
1.02 156.570 75.117
1.03 147.875 74.907
1.04 144.856 73.981
1.05 140.371 72.561
1.06 135.244 70.613
1.07 134.889 70.145
1.08 138.113 72.056
1.09 138.623 73.760
1.10 138.326 74.496
1.11 137.755 74.598
1.12 137.550 74.498
1.13 137.493 74.415
1.14 137.034 74.407
1.15 136.771 74.449
1.16 136.001 74.467
1.17 136.672 74.831
1.18 134.630 75.448
1.19 134.321 75.650
1.20 133.837 75.697
1.21 132.974 75.741
1.22 132.288 75.372
1.23 131.657 74.357
1.24 129.772 72.784
1.25 128.532 70.405
1.26 132.690 66.276
1.27 132.036 60.484
1.28 132.578 56.650
1.29 131.037 55.385
1.30 131.345 59.116
1.31 --undefined-- 68.086
1.32 --undefined-- 73.528
1.33 135.531 75.578
1.34 118.914 75.631
1.35 107.136 75.288
1.36 102.373 75.154
1.37 102.050 75.152
1.38 99.146 75.025
1.39 97.291 74.262
1.40 95.124 72.301
1.41 95.185 69.017
1.42 101.322 65.551
1.43 108.364 65.259
1.44 136.097 68.908
1.45 129.834 72.710
1.46 126.153 75.181
1.47 122.911 76.190
1.48 119.828 76.196
1.49 117.137 75.403
1.50 114.106 73.295
1.51 105.355 69.621
1.52 102.269 65.288
1.53 114.825 61.331
1.54 114.244 59.052
1.55 111.992 62.460
1.56 --undefined-- 65.663
1.57 --undefined-- 68.315
1.58 147.487 71.922
1.59 134.562 74.231
1.60 120.490 74.835
1.61 108.602 74.698
1.62 106.510 74.686
1.63 104.013 74.915
1.64 102.961 75.124
1.65 103.228 75.219
1.66 104.309 75.260
1.67 105.658 75.283
1.68 106.966 75.306
1.69 109.347 75.395
1.70 112.588 75.527
1.71 116.563 75.604
1.72 121.871 75.726
1.73 126.300 75.852
1.74 129.100 75.743
1.75 131.084 75.420
1.76 131.626 74.681
1.77 126.636 72.767
1.78 121.732 69.485
1.79 123.013 66.432
1.80 124.185 67.064
1.81 141.312 71.828
1.82 128.225 75.320
1.83 125.304 76.662
1.84 121.519 76.793
1.85 119.362 76.434
1.86 117.391 75.541
1.87 112.089 73.805
1.88 111.844 70.835
1.89 113.690 66.657
1.90 112.365 61.998
1.91 117.982 58.270
1.92 119.413 56.077
1.93 119.016 53.741
1.94 --undefined-- 51.450
1.95 --undefined-- 49.591
1.96 --undefined-- 48.503
1.97 --undefined-- 55.520
1.98 --undefined-- 65.119
1.99 --undefined-- 70.772
2.00 --undefined-- 73.401
2.01 --undefined-- 74.662
2.02 172.437 75.057
2.03 167.703 74.945
2.04 168.874 75.116
2.05 171.797 74.988
2.06 172.961 74.204
2.07 174.220 74.167
2.08 176.311 75.175
2.09 175.838 76.037
2.10 174.785 76.600
2.11 173.574 76.912
2.12 172.834 77.014
2.13 172.193 76.968
2.14 171.463 76.817
2.15 170.862 76.713
2.16 171.114 76.756
2.17 171.110 76.849
2.18 170.922 76.931
2.19 170.759 77.028
2.20 170.874 77.027
2.21 170.833 76.873
2.22 170.450 76.736
2.23 169.392 76.724
2.24 168.183 76.802
2.25 166.454 76.908
2.26 164.587 76.951
2.27 161.531 77.035
2.28 158.006 77.184
2.29 153.325 77.135
2.30 149.018 76.653
2.31 142.760 75.953
2.32 141.800 76.276
2.33 139.358 76.944
2.34 130.328 76.712
2.35 114.143 76.025
2.36 106.462 75.180
2.37 109.124 74.132
2.38 113.779 72.715
2.39 --undefined-- 70.123
2.40 --undefined-- 65.849
2.41 --undefined-- 61.255
2.42 --undefined-- 58.903
2.43 --undefined-- 60.403
2.44 --undefined-- 61.228
2.45 --undefined-- 62.507
2.46 95.264 65.563
2.47 110.272 68.003
2.48 122.423 70.116
2.49 136.975 72.295
2.50 142.824 74.505
2.51 143.349 75.960
2.52 142.158 76.195
2.53 141.383 76.010
2.54 142.302 76.028
2.55 143.036 75.913
2.56 142.972 75.430
2.57 142.525 74.244
2.58 141.504 71.478
2.59 114.034 66.319
2.60 141.798 59.003
2.61 143.280 52.989
2.62 140.761 51.916
2.63 140.594 51.679
2.64 --undefined-- 56.647
2.65 --undefined-- 66.452
2.66 --undefined-- 72.494
2.67 --undefined-- 74.799
2.68 130.793 74.055
2.69 120.716 71.357
2.70 118.761 68.291
2.71 110.472 66.154
2.72 105.521 65.382
2.73 107.345 66.135
2.74 107.781 67.723
2.75 109.068 69.910
2.76 114.328 72.996
2.77 114.173 75.211
2.78 115.452 75.566
2.79 116.473 74.925
2.80 117.881 74.674
2.81 118.877 74.975
2.82 119.212 75.378
2.83 117.483 75.403
2.84 116.819 74.919
2.85 113.945 73.957
2.86 109.258 72.376
2.87 106.311 70.545
2.88 108.595 68.525
2.89 115.987 65.612
2.90 117.961 62.413
2.91 116.945 61.435
2.92 --undefined-- 62.022
2.93 --undefined-- 66.125
2.94 --undefined-- 72.000
2.95 143.738 75.085
2.96 129.881 75.585
2.97 125.383 74.888
2.98 122.368 74.224
2.99 120.802 73.731
3.00 120.846 73.418
3.01 121.886 73.384
3.02 122.028 73.555
3.03 121.723 73.797
3.04 121.412 74.009
3.05 121.518 74.188
3.06 121.462 74.347
3.07 120.599 74.409
3.08 120.152 74.622
3.09 116.217 74.898
3.10 114.255 74.880
3.11 113.097 74.742
3.12 111.792 74.556
3.13 110.514 74.158
3.14 109.239 73.483
3.15 107.340 72.619
3.16 106.336 72.137
3.17 108.476 72.386
3.18 108.265 72.986
3.19 108.127 73.608
3.20 108.414 74.126
3.21 108.256 74.505
3.22 107.880 74.569
3.23 107.160 73.961
3.24 104.680 72.261
3.25 105.182 69.621
3.26 --undefined-- 69.662
3.27 --undefined-- 72.635
3.28 127.563 74.526
3.29 116.991 75.012
3.30 104.164 75.042
3.31 102.956 74.903
3.32 95.055 74.067
3.33 96.522 73.071
3.34 93.886 72.919
3.35 100.281 73.202
3.36 100.801 73.188
3.37 101.010 72.648
3.38 96.524 71.804
3.39 101.557 71.602
3.40 103.101 72.043
3.41 102.318 72.407
3.42 101.597 72.419
3.43 101.690 71.865
3.44 100.375 70.795
3.45 100.031 70.651
3.46 125.489 73.041
3.47 124.247 75.431
3.48 121.605 76.498
3.49 122.160 76.660
3.50 122.500 75.922
3.51 122.455 73.488
3.52 123.195 68.972
3.53 123.175 63.746
3.54 123.439 61.426
3.55 --undefined-- 62.416
3.56 --undefined-- 63.946
3.57 --undefined-- 67.957
3.58 138.243 71.685
3.59 140.020 73.510
3.60 134.686 74.156
3.61 115.072 74.643
3.62 110.776 75.075
3.63 103.094 75.067
3.64 102.101 75.052
3.65 100.016 75.498
3.66 98.998 75.802
3.67 99.738 75.539
3.68 100.619 75.217
3.69 101.445 75.088
3.70 101.407 74.490
3.71 97.846 73.130
3.72 100.105 72.517
3.73 106.165 73.536
3.74 106.459 74.622
3.75 107.314 75.275
3.76 108.806 75.643
3.77 110.537 75.658
3.78 112.121 75.314
3.79 113.190 75.100
3.80 113.283 75.156
3.81 112.144 74.827
3.82 109.805 73.601
3.83 105.588 71.036
3.84 --undefined-- 66.476
3.85 --undefined-- 59.938
3.86 --undefined-- 54.769
3.87 --undefined-- 52.237
3.88 --undefined-- 55.076
3.89 --undefined-- 63.726
3.90 132.763 69.691
3.91 132.296 72.872
3.92 131.501 74.288
3.93 131.293 74.999
3.94 133.619 75.775
3.95 132.577 76.451
3.96 134.370 76.552
3.97 135.511 76.443
3.98 135.367 76.547
3.99 135.507 76.659
4.00 135.250 76.633
4.01 134.328 76.568
4.02 133.337 76.456
4.03 131.737 76.125
4.04 130.993 75.688
4.05 130.636 75.170
4.06 129.708 73.961
4.07 124.074 71.286
4.08 124.168 67.482
4.09 129.629 64.862
4.10 141.149 64.140
4.11 149.022 64.017
4.12 158.303 63.384
4.13 161.747 65.874
4.14 176.724 71.714
4.15 165.323 75.199
4.16 160.209 76.357
4.17 158.522 76.313
4.18 157.545 76.032
4.19 156.812 75.924
4.20 156.898 76.110
4.21 156.655 76.387
4.22 155.217 76.384
4.23 153.758 75.850
4.24 151.560 74.841
4.25 144.116 73.811
4.26 149.489 73.491
4.27 154.632 74.102
4.28 154.795 74.872
4.29 153.751 75.348
4.30 152.434 75.827
4.31 151.641 76.341
4.32 138.952 76.435
4.33 126.326 76.121
4.34 117.646 75.604
4.35 112.692 75.117
4.36 110.120 75.135
4.37 108.495 75.428
4.38 107.170 75.583
4.39 105.511 75.428
4.40 106.012 75.271
4.41 107.279 75.529
4.42 106.658 75.469
4.43 107.533 74.559
4.44 106.255 72.810
4.45 102.294 70.263
4.46 98.453 67.247
4.47 99.432 63.602
4.48 --undefined-- 58.928
4.49 --undefined-- 58.536
4.50 --undefined-- 66.527
4.51 --undefined-- 72.462
4.52 136.340 75.511
4.53 136.426 76.479
4.54 132.038 76.343
4.55 130.722 76.088
4.56 131.816 75.969
4.57 132.911 75.676
4.58 133.414 75.383
4.59 133.070 75.310
4.60 132.069 75.323
4.61 130.477 75.387
4.62 128.102 75.736
4.63 124.733 76.318
4.64 121.923 76.645
4.65 118.793 76.110
4.66 115.806 74.562
4.67 111.665 72.861
4.68 109.184 71.230
4.69 105.750 69.424
4.70 105.978 68.351
4.71 104.101 68.118
4.72 104.323 68.379
4.73 106.178 69.684
4.74 106.728 71.858
4.75 105.435 73.876
4.76 104.570 75.216
4.77 104.076 75.909
4.78 103.119 76.129
4.79 101.131 76.016
4.80 100.235 75.731
4.81 99.594 75.214
4.82 99.357 74.093
4.83 98.606 71.895
4.84 104.638 68.438
4.85 112.608 64.538
4.86 --undefined-- 65.134
4.87 --undefined-- 67.325
4.88 --undefined-- 69.358
4.89 155.456 73.544
4.90 152.403 76.268
4.91 147.488 76.679
4.92 145.508 76.055
4.93 144.090 --undefined--
4.94 142.210 --undefined--
4.95 --undefined-- --undefined--
4.96 --undefined-- --undefined--
