Time Pitch Intensity
0.01 --undefined-- --undefined--
0.02 270.206 --undefined--
0.03 274.011 --undefined--
0.04 278.091 --undefined--
0.05 282.625 74.397
0.06 285.428 74.282
0.07 286.909 74.799
0.08 285.594 75.729
0.09 282.641 76.162
0.10 282.340 76.251
0.11 281.263 76.055
0.12 279.660 75.537
0.13 278.836 74.817
0.14 281.803 74.107
0.15 283.202 73.588
0.16 285.384 73.147
0.17 283.847 72.360
0.18 279.095 71.431
0.19 280.262 70.724
0.20 277.065 70.134
0.21 276.140 69.760
0.22 276.891 69.628
0.23 277.982 69.705
0.24 280.096 69.867
0.25 281.158 69.876
0.26 277.824 69.082
0.27 272.539 66.581
0.28 276.874 63.600
0.29 --undefined-- 62.914
0.30 --undefined-- 62.698
0.31 153.650 65.326
0.32 157.379 68.529
0.33 166.186 70.452
0.34 169.379 71.960
0.35 173.486 73.699
0.36 178.101 74.927
0.37 186.015 74.678
0.38 199.684 72.648
0.39 215.222 69.928
0.40 221.704 68.982
0.41 227.416 69.122
0.42 228.096 68.118
0.43 --undefined-- 65.033
0.44 --undefined-- 62.883
0.45 --undefined-- 64.920
0.46 --undefined-- 65.443
0.47 221.068 65.386
0.48 202.527 68.881
0.49 197.701 71.792
0.50 191.365 73.047
0.51 186.092 73.577
0.52 179.634 73.421
0.53 170.989 72.436
0.54 164.392 71.326
0.55 161.157 70.693
0.56 157.437 70.402
0.57 155.364 70.412
0.58 154.385 70.338
0.59 154.626 69.670
0.60 154.123 68.880
0.61 154.069 68.637
0.62 153.271 68.176
0.63 150.783 67.100
0.64 290.351 66.704
0.65 282.199 67.133
0.66 274.493 67.233
0.67 268.181 66.634
0.68 254.176 65.659
0.69 244.010 65.390
0.70 233.543 65.893
0.71 222.346 66.840
0.72 210.342 67.770
0.73 207.299 68.751
0.74 186.480 69.837
0.75 183.001 70.261
0.76 180.307 70.148
0.77 179.380 69.849
0.78 176.628 69.304
0.79 174.495 68.558
0.80 175.261 68.070
0.81 175.924 68.562
0.82 184.440 70.167
0.83 187.393 71.532
0.84 192.854 71.777
0.85 198.916 71.106
0.86 215.072 69.843
0.87 220.908 68.146
0.88 225.085 66.208
0.89 239.855 64.894
0.90 247.375 65.099
0.91 251.466 66.035
0.92 252.300 66.124
0.93 249.799 65.684
0.94 246.036 66.114
0.95 239.112 67.547
0.96 226.746 69.069
0.97 215.310 69.590
0.98 198.104 69.302
0.99 184.864 68.759
1.00 172.203 68.109
1.01 168.952 67.671
1.02 166.038 67.539
1.03 163.747 67.155
1.04 160.512 67.253
1.05 160.536 68.123
1.06 162.248 68.128
1.07 164.230 67.237
1.08 165.462 66.461
1.09 169.393 65.604
1.10 172.621 64.028
1.11 168.707 62.334
1.12 --undefined-- 61.365
1.13 --undefined-- 59.401
1.14 --undefined-- 55.052
1.15 --undefined-- 51.738
1.16 --undefined-- 53.082
1.17 --undefined-- 57.035
1.18 --undefined-- 61.534
1.19 296.963 63.428
1.20 293.683 62.867
1.21 289.429 63.960
1.22 248.621 67.019
1.23 244.888 69.009
1.24 240.858 69.968
1.25 240.092 69.746
1.26 243.634 68.308
1.27 243.482 67.162
1.28 246.128 67.100
1.29 250.039 67.129
1.30 253.843 66.996
1.31 256.046 65.738
1.32 253.770 62.256
1.33 --undefined-- 56.460
1.34 --undefined-- 53.956
1.35 --undefined-- 56.034
1.36 --undefined-- 56.890
1.37 --undefined-- 59.780
1.38 --undefined-- 63.225
1.39 191.796 66.938
1.40 187.121 70.905
1.41 186.012 73.204
1.42 183.547 73.109
1.43 183.318 70.323
1.44 188.138 65.031
1.45 185.472 61.673
1.46 187.923 63.251
1.47 183.369 62.955
1.48 187.169 60.782
1.49 --undefined-- 61.152
1.50 --undefined-- 61.880
1.51 --undefined-- 61.332
1.52 --undefined-- 61.904
1.53 --undefined-- 63.513
1.54 --undefined-- 64.216
1.55 251.853 63.634
1.56 248.682 64.284
1.57 249.717 65.705
1.58 252.491 65.123
1.59 293.195 62.704
1.60 296.484 61.641
1.61 --undefined-- 62.440
1.62 --undefined-- 62.116
1.63 --undefined-- 60.556
1.64 --undefined-- 59.022
1.65 --undefined-- 57.852
1.66 --undefined-- 56.800
1.67 --undefined-- 57.883
1.68 --undefined-- 60.526
1.69 --undefined-- 61.046
1.70 --undefined-- 60.035
1.71 --undefined-- 62.629
1.72 170.421 67.235
1.73 163.440 69.811
1.74 163.601 70.631
1.75 164.468 70.926
1.76 164.646 71.209
1.77 164.726 71.491
1.78 164.626 71.659
1.79 164.711 71.599
1.80 164.581 71.408
1.81 164.070 71.254
1.82 163.332 71.085
1.83 162.246 70.933
1.84 162.085 71.038
1.85 163.678 71.274
1.86 164.203 71.325
1.87 162.958 71.329
1.88 161.437 71.430
1.89 160.758 71.282
1.90 159.908 70.498
1.91 156.922 68.899
1.92 151.561 66.210
1.93 286.397 62.051
1.94 299.345 56.810
1.95 --undefined-- 54.507
1.96 --undefined-- 55.316
1.97 --undefined-- 55.200
1.98 --undefined-- 57.364
1.99 --undefined-- 60.392
2.00 261.736 61.936
2.01 258.670 63.624
2.02 219.854 66.372
2.03 215.302 68.679
2.04 211.572 70.053
2.05 206.651 70.569
2.06 203.209 70.073
2.07 198.779 69.029
2.08 196.232 68.360
2.09 195.314 68.069
2.10 195.962 67.941
2.11 197.093 67.796
2.12 195.727 67.178
2.13 190.829 65.400
2.14 193.764 63.252
2.15 201.113 61.517
2.16 --undefined-- 59.657
2.17 --undefined-- 61.417
2.18 --undefined-- 64.726
2.19 --undefined-- 65.494
2.20 249.360 63.827
2.21 203.996 63.020
2.22 200.794 63.222
2.23 207.638 63.481
2.24 217.287 65.424
2.25 218.026 67.635
2.26 208.805 68.211
2.27 204.313 67.867
2.28 196.750 68.380
2.29 192.416 69.024
2.30 189.950 68.766
2.31 188.093 67.913
2.32 184.541 67.100
2.33 181.893 65.998
2.34 182.231 66.180
2.35 182.344 67.983
2.36 181.223 68.667
2.37 178.459 67.863
2.38 174.192 66.249
2.39 161.288 64.535
2.40 160.496 61.920
2.41 189.803 57.726
2.42 180.960 55.942
2.43 210.768 59.449
2.44 200.119 63.765
2.45 197.035 66.998
2.46 193.632 68.266
2.47 190.351 67.024
2.48 189.644 63.566
2.49 187.152 59.824
2.50 186.802 59.183
2.51 184.605 60.949
2.52 184.096 61.926
2.53 --undefined-- 62.195
2.54 --undefined-- 65.301
2.55 206.380 69.324
2.56 197.867 71.366
2.57 188.838 71.923
2.58 185.168 71.935
2.59 184.188 71.818
2.60 185.578 71.681
2.61 185.978 71.450
2.62 185.820 71.170
2.63 185.693 71.134
2.64 185.350 71.295
2.65 185.539 71.282
2.66 186.569 71.067
2.67 187.340 70.816
2.68 188.368 70.425
2.69 188.435 69.236
2.70 186.832 66.372
2.71 186.827 61.640
2.72 --undefined-- 56.946
2.73 --undefined-- 59.768
2.74 201.972 65.112
2.75 196.873 67.950
2.76 187.930 68.781
2.77 182.021 68.597
2.78 179.043 68.129
2.79 177.359 67.808
2.80 175.820 67.690
2.81 174.143 67.822
2.82 175.134 68.562
2.83 177.404 69.172
2.84 180.606 69.078
2.85 182.868 68.817
2.86 188.610 68.811
2.87 195.374 68.634
2.88 204.955 68.154
2.89 231.627 69.154
2.90 246.952 71.928
2.91 252.320 74.461
2.92 256.199 75.796
2.93 259.852 75.748
2.94 262.635 74.724
2.95 260.429 74.050
2.96 253.601 74.427
2.97 245.193 74.287
2.98 --undefined-- 72.730
2.99 --undefined-- 69.976
3.00 172.320 66.912
3.01 171.405 64.509
3.02 --undefined-- 62.254
3.03 --undefined-- 60.277
3.04 269.458 61.136
3.05 258.088 61.341
3.06 277.719 58.998
3.07 286.644 55.817
3.08 --undefined-- 54.183
3.09 --undefined-- 53.660
3.10 --undefined-- 54.352
3.11 298.925 57.093
3.12 292.646 58.923
3.13 291.133 58.543
3.14 290.130 59.654
3.15 250.081 62.195
3.16 276.702 62.240
3.17 296.818 59.710
3.18 299.809 57.712
3.19 297.301 59.490
3.20 295.789 61.823
3.21 295.330 62.268
3.22 292.860 60.500
3.23 --undefined-- 58.915
3.24 --undefined-- 61.536
3.25 --undefined-- 63.996
3.26 --undefined-- 64.066
3.27 --undefined-- 61.994
3.28 --undefined-- 59.838
3.29 --undefined-- 61.357
3.30 --undefined-- 63.490
3.31 --undefined-- 64.118
3.32 --undefined-- 63.558
3.33 --undefined-- 62.309
3.34 --undefined-- 64.211
3.35 173.370 69.212
3.36 176.927 72.372
3.37 177.849 73.605
3.38 178.072 73.999
3.39 179.591 74.565
3.40 179.735 75.329
3.41 179.574 75.813
3.42 179.024 75.895
3.43 178.230 75.691
3.44 177.477 75.302
3.45 176.939 74.574
3.46 176.489 72.820
3.47 178.583 69.122
3.48 177.225 63.422
3.49 174.463 59.541
3.50 172.073 63.319
3.51 199.149 68.175
3.52 198.408 70.783
3.53 200.133 71.343
3.54 203.033 71.168
3.55 205.267 71.231
3.56 207.174 70.908
3.57 208.963 70.050
3.58 209.705 69.497
3.59 210.107 69.498
3.60 210.991 69.662
3.61 211.767 69.555
3.62 208.111 69.290
3.63 199.127 70.035
3.64 188.790 71.691
3.65 184.154 72.379
3.66 177.231 71.154
3.67 --undefined-- 68.884
3.68 274.675 67.804
3.69 242.104 67.361
3.70 227.141 66.519
3.71 215.358 65.253
3.72 216.746 63.933
3.73 200.597 62.860
3.74 185.358 62.742
3.75 180.875 63.472
3.76 177.169 63.334
3.77 169.348 62.494
3.78 166.364 62.378
3.79 167.837 63.101
3.80 169.273 62.767
3.81 167.876 61.599
3.82 166.689 61.122
3.83 165.686 61.071
3.84 167.865 63.109
3.85 172.829 65.137
3.86 169.870 65.402
3.87 168.848 65.003
3.88 168.702 65.455
3.89 168.929 66.199
3.90 169.637 66.208
3.91 169.004 65.199
3.92 167.259 63.940
3.93 166.100 63.582
3.94 169.937 64.407
3.95 171.852 65.476
3.96 173.189 65.707
3.97 177.485 65.707
3.98 182.213 66.709
3.99 185.236 67.768
4.00 187.559 68.034
4.01 190.298 67.932
4.02 193.003 67.532
4.03 196.226 66.090
4.04 195.179 63.522
4.05 192.612 60.530
4.06 192.849 59.323
4.07 194.574 59.319
4.08 --undefined-- 58.695
4.09 --undefined-- 59.550
4.10 --undefined-- 61.762
4.11 --undefined-- 64.518
4.12 134.978 66.195
4.13 135.240 66.493
4.14 136.021 66.771
4.15 137.570 67.475
4.16 140.182 67.851
4.17 143.282 67.698
4.18 146.398 67.635
4.19 147.954 68.073
4.20 148.841 68.634
4.21 149.162 68.509
4.22 149.297 67.687
4.23 150.809 66.890
4.24 152.885 65.670
4.25 --undefined-- 63.714
4.26 --undefined-- 62.619
4.27 --undefined-- 61.592
4.28 --undefined-- 61.089
4.29 --undefined-- 62.977
4.30 --undefined-- 63.280
4.31 --undefined-- 61.516
4.32 --undefined-- 61.259
4.33 --undefined-- 63.463
4.34 --undefined-- 65.200
4.35 --undefined-- 65.812
4.36 --undefined-- 65.913
4.37 --undefined-- 67.659
4.38 --undefined-- 70.584
4.39 --undefined-- 72.160
4.40 --undefined-- 71.928
4.41 --undefined-- 70.684
4.42 --undefined-- 68.855
4.43 --undefined-- 67.388
4.44 --undefined-- 66.958
4.45 --undefined-- 65.340
4.46 --undefined-- 61.734
4.47 --undefined-- 58.026
4.48 --undefined-- 57.679
4.49 --undefined-- 57.912
4.50 --undefined-- 58.179
4.51 --undefined-- 60.606
4.52 --undefined-- 62.113
4.53 --undefined-- 61.476
4.54 --undefined-- 60.690
4.55 --undefined-- 60.743
4.56 --undefined-- 59.562
4.57 --undefined-- 57.420
4.58 --undefined-- 57.092
4.59 --undefined-- 59.710
4.60 --undefined-- 63.010
4.61 --undefined-- 63.749
4.62 --undefined-- 61.648
4.63 --undefined-- 59.502
4.64 --undefined-- 60.565
4.65 --undefined-- 61.344
4.66 --undefined-- 60.953
4.67 271.666 60.548
4.68 265.290 62.481
4.69 266.313 64.053
4.70 245.288 62.993
4.71 238.080 60.515
4.72 --undefined-- 61.326
4.73 --undefined-- 62.979
4.74 176.645 63.631
4.75 172.285 63.832
4.76 169.808 64.807
4.77 169.163 66.048
4.78 166.752 65.909
4.79 162.069 64.799
4.80 158.561 64.556
4.81 155.351 64.900
4.82 154.243 64.519
4.83 159.292 63.256
4.84 160.886 63.564
4.85 --undefined-- 64.778
4.86 --undefined-- 63.695
4.87 --undefined-- 60.012
4.88 --undefined-- 58.318
4.89 281.559 61.940
4.90 280.269 63.926
4.91 279.550 63.235
4.92 278.241 --undefined--
4.93 201.189 --undefined--
4.94 --undefined-- --undefined--
4.95 --undefined-- --undefined--
