Time Pitch Intensity
0.01 --undefined-- --undefined--
0.02 --undefined-- --undefined--
0.03 --undefined-- --undefined--
0.04 --undefined-- --undefined--
0.05 --undefined-- 52.021
0.06 --undefined-- 50.145
0.07 --undefined-- 48.409
0.08 --undefined-- 48.152
0.09 --undefined-- 46.585
0.10 --undefined-- 45.535
0.11 --undefined-- 47.051
0.12 --undefined-- 47.285
0.13 --undefined-- 46.787
0.14 --undefined-- 48.617
0.15 --undefined-- 49.812
0.16 --undefined-- 51.051
0.17 --undefined-- 54.604
0.18 --undefined-- 58.146
0.19 --undefined-- 60.104
0.20 --undefined-- 61.725
0.21 228.902 65.183
0.22 219.512 68.082
0.23 221.298 69.501
0.24 226.280 69.857
0.25 234.877 70.149
0.26 245.963 71.288
0.27 255.239 72.620
0.28 264.747 72.779
0.29 279.367 71.543
0.30 152.703 70.360
0.31 161.019 70.110
0.32 167.038 70.047
0.33 172.723 69.913
0.34 178.706 69.805
0.35 184.872 70.182
0.36 188.442 70.898
0.37 192.934 70.967
0.38 196.714 70.070
0.39 198.531 68.499
0.40 197.333 66.915
0.41 193.281 65.635
0.42 186.323 64.039
0.43 178.433 61.386
0.44 --undefined-- 58.010
0.45 --undefined-- 55.599
0.46 --undefined-- 54.470
0.47 --undefined-- 54.634
0.48 --undefined-- 55.461
0.49 259.762 57.359
0.50 268.944 60.175
0.51 269.663 62.531
0.52 254.112 63.687
0.53 203.644 64.160
0.54 188.964 64.343
0.55 179.962 63.971
0.56 169.120 63.111
0.57 161.755 62.381
0.58 157.609 62.190
0.59 154.550 62.219
0.60 150.997 62.371
0.61 148.362 62.725
0.62 145.690 62.863
0.63 144.226 62.694
0.64 143.216 62.439
0.65 143.588 62.217
0.66 145.434 61.931
0.67 147.234 61.660
0.68 149.162 61.409
0.69 153.625 60.880
0.70 158.781 59.968
0.71 161.360 58.628
0.72 162.658 56.584
0.73 161.918 54.035
0.74 --undefined-- 53.454
0.75 --undefined-- 54.288
0.76 --undefined-- 53.212
0.77 --undefined-- 49.516
0.78 --undefined-- 44.773
0.79 --undefined-- 47.074
0.80 --undefined-- 53.508
0.81 --undefined-- 57.788
0.82 --undefined-- 60.815
0.83 242.064 64.548
0.84 246.792 67.642
0.85 255.171 69.458
0.86 265.405 70.315
0.87 272.980 70.165
0.88 276.096 69.114
0.89 280.600 68.226
0.90 286.316 68.455
0.91 291.245 69.211
0.92 293.927 69.843
0.93 295.023 70.069
0.94 294.377 69.967
0.95 293.762 69.676
0.96 292.856 69.289
0.97 291.141 68.795
0.98 288.962 68.099
0.99 288.923 67.393
1.00 289.362 66.977
1.01 289.660 66.807
1.02 290.189 66.712
1.03 289.565 66.600
1.04 287.304 66.527
1.05 283.426 66.652
1.06 278.119 67.105
1.07 275.180 67.351
1.08 269.436 66.655
1.09 260.043 65.164
1.10 248.668 63.953
1.11 235.683 63.894
1.12 220.666 64.199
1.13 --undefined-- 64.340
1.14 --undefined-- 64.300
1.15 --undefined-- 63.765
1.16 153.900 62.779
1.17 151.486 61.551
1.18 145.199 60.934
1.19 145.866 61.108
1.20 144.565 60.983
1.21 147.915 60.506
1.22 --undefined-- 59.469
1.23 --undefined-- 58.423
1.24 --undefined-- 58.296
1.25 --undefined-- 58.589
1.26 --undefined-- 58.293
1.27 --undefined-- 56.903
1.28 --undefined-- 56.078
1.29 --undefined-- 55.942
1.30 --undefined-- 56.155
1.31 --undefined-- 56.281
1.32 --undefined-- 55.392
1.33 --undefined-- 53.338
1.34 --undefined-- 50.932
1.35 --undefined-- 50.133
1.36 --undefined-- 52.938
1.37 --undefined-- 55.189
1.38 --undefined-- 55.007
1.39 --undefined-- 55.385
1.40 --undefined-- 55.940
1.41 --undefined-- 55.411
1.42 --undefined-- 55.889
1.43 --undefined-- 57.301
1.44 --undefined-- 59.077
1.45 --undefined-- 60.906
1.46 --undefined-- 61.427
1.47 --undefined-- 60.457
1.48 --undefined-- 59.904
1.49 --undefined-- 61.073
1.50 --undefined-- 61.975
1.51 --undefined-- 61.508
1.52 163.661 61.080
1.53 168.915 61.363
1.54 166.131 61.951
1.55 161.883 62.392
1.56 161.370 62.660
1.57 162.146 62.632
1.58 163.355 62.250
1.59 166.509 61.664
1.60 172.262 61.768
1.61 185.782 62.583
1.62 198.797 63.008
1.63 208.748 62.502
1.64 222.980 62.025
1.65 234.207 62.737
1.66 243.611 63.784
1.67 251.015 64.180
1.68 256.499 63.360
1.69 253.803 60.731
1.70 235.913 56.059
1.71 --undefined-- 53.053
1.72 --undefined-- 57.315
1.73 274.989 61.204
1.74 269.324 62.351
1.75 261.945 61.678
1.76 256.850 61.571
1.77 256.426 62.776
1.78 250.953 63.993
1.79 --undefined-- 64.789
1.80 --undefined-- 65.498
1.81 --undefined-- 66.619
1.82 152.973 67.597
1.83 150.508 67.388
1.84 150.610 65.932
1.85 150.177 63.622
1.86 151.461 61.184
1.87 156.506 59.948
1.88 --undefined-- 59.333
1.89 --undefined-- 58.708
1.90 152.529 58.601
1.91 160.901 58.663
1.92 161.788 57.383
1.93 --undefined-- 53.693
1.94 --undefined-- 49.590
1.95 --undefined-- 50.419
1.96 --undefined-- 53.341
1.97 192.059 56.483
1.98 182.303 59.272
1.99 170.836 60.806
2.00 165.733 61.251
2.01 160.898 61.914
2.02 162.842 63.087
2.03 162.962 63.697
2.04 162.941 63.511
2.05 164.353 62.453
2.06 155.191 61.097
2.07 153.699 60.517
2.08 151.889 60.495
2.09 150.418 60.563
2.10 151.226 60.310
2.11 152.124 59.791
2.12 153.445 59.097
2.13 151.329 57.817
2.14 146.362 55.128
2.15 --undefined-- 51.176
2.16 --undefined-- 48.517
2.17 --undefined-- 49.388
2.18 --undefined-- 50.289
2.19 --undefined-- 49.408
2.20 --undefined-- 49.522
2.21 --undefined-- 50.818
2.22 --undefined-- 52.985
2.23 --undefined-- 57.398
2.24 189.782 61.532
2.25 183.503 64.013
2.26 178.796 65.426
2.27 175.789 66.304
2.28 172.604 66.704
2.29 167.799 66.748
2.30 161.776 66.690
2.31 --undefined-- 66.660
2.32 --undefined-- 66.472
2.33 --undefined-- 66.194
2.34 --undefined-- 65.333
2.35 --undefined-- 63.268
2.36 --undefined-- 59.861
2.37 --undefined-- 55.394
2.38 --undefined-- 51.872
2.39 --undefined-- 50.297
2.40 --undefined-- 50.614
2.41 --undefined-- 49.086
2.42 --undefined-- 46.174
2.43 --undefined-- 47.549
2.44 --undefined-- 48.754
2.45 --undefined-- 47.335
2.46 --undefined-- 47.841
2.47 --undefined-- 51.989
2.48 --undefined-- 53.665
2.49 --undefined-- 52.504
2.50 --undefined-- 55.851
2.51 191.934 61.998
2.52 185.505 65.545
2.53 182.811 66.946
2.54 177.037 67.551
2.55 174.244 68.397
2.56 173.236 68.879
2.57 171.568 68.536
2.58 170.305 67.846
2.59 171.242 67.608
2.60 173.752 67.940
2.61 179.521 68.081
2.62 184.992 67.846
2.63 197.266 68.289
2.64 208.025 69.317
2.65 215.852 69.608
2.66 220.264 68.594
2.67 235.921 66.997
2.68 233.897 66.026
2.69 216.135 65.576
2.70 209.556 65.115
2.71 189.970 63.744
2.72 189.778 60.529
2.73 201.429 56.333
2.74 212.321 55.304
2.75 221.362 55.122
2.76 --undefined-- 55.941
2.77 --undefined-- 58.223
2.78 --undefined-- 58.131
2.79 --undefined-- 55.023
2.80 --undefined-- 50.205
2.81 --undefined-- 48.571
2.82 --undefined-- 53.868
2.83 --undefined-- 58.333
2.84 --undefined-- 59.593
2.85 --undefined-- 57.666
2.86 287.471 53.980
2.87 269.898 52.287
2.88 287.150 50.352
2.89 287.065 49.241
2.90 285.208 52.631
2.91 285.769 54.250
2.92 283.769 53.337
2.93 286.412 53.031
2.94 288.281 53.200
2.95 287.583 52.242
2.96 --undefined-- 51.796
2.97 --undefined-- 53.328
2.98 --undefined-- 54.971
2.99 --undefined-- 54.006
3.00 --undefined-- 50.936
3.01 --undefined-- 52.822
3.02 264.655 57.565
3.03 220.232 60.255
3.04 217.412 61.551
3.05 221.238 62.599
3.06 224.880 63.349
3.07 225.055 63.106
3.08 214.796 61.478
3.09 200.501 60.517
3.10 240.547 64.169
3.11 223.983 67.495
3.12 221.567 68.536
3.13 210.189 68.318
3.14 198.851 68.043
3.15 195.366 68.095
3.16 193.728 68.331
3.17 192.061 68.661
3.18 190.298 68.901
3.19 189.072 68.505
3.20 189.949 67.043
3.21 188.377 64.153
3.22 181.606 59.789
3.23 --undefined-- 55.508
3.24 --undefined-- 52.721
3.25 --undefined-- 53.964
3.26 --undefined-- 56.814
3.27 244.982 59.026
3.28 235.306 62.267
3.29 220.223 64.257
3.30 219.418 64.558
3.31 220.377 64.809
3.32 220.987 65.505
3.33 222.292 66.186
3.34 223.465 66.975
3.35 225.008 67.573
3.36 232.856 67.390
3.37 236.335 66.503
3.38 234.649 65.632
3.39 232.024 64.855
3.40 227.570 63.518
3.41 211.247 61.040
3.42 191.057 57.226
3.43 --undefined-- 52.926
3.44 --undefined-- 49.968
3.45 --undefined-- 53.485
3.46 265.147 60.124
3.47 250.148 64.661
3.48 253.303 66.854
3.49 255.845 67.460
3.50 257.832 67.190
3.51 258.761 66.429
3.52 260.882 65.911
3.53 269.852 66.180
3.54 273.744 66.536
3.55 271.250 66.443
3.56 265.415 66.028
3.57 257.226 65.530
3.58 249.021 65.339
3.59 240.617 66.210
3.60 232.253 67.584
3.61 220.389 68.173
3.62 200.576 68.633
3.63 191.521 69.698
3.64 188.091 70.027
3.65 191.193 68.759
3.66 196.967 66.179
3.67 198.173 63.176
3.68 196.307 60.129
3.69 196.112 57.518
3.70 186.802 55.403
3.71 189.342 52.382
3.72 194.783 49.248
3.73 --undefined-- 52.135
3.74 --undefined-- 57.795
3.75 --undefined-- 61.889
3.76 246.457 64.067
3.77 245.657 64.828
3.78 247.158 64.386
3.79 248.292 62.778
3.80 237.460 59.762
3.81 --undefined-- 54.928
3.82 --undefined-- 49.331
3.83 --undefined-- 45.257
3.84 --undefined-- 41.877
3.85 --undefined-- 42.040
3.86 --undefined-- 47.168
3.87 --undefined-- 51.835
3.88 --undefined-- 56.581
3.89 --undefined-- 61.717
3.90 187.991 65.170
3.91 180.302 67.229
3.92 171.315 68.197
3.93 165.836 67.878
3.94 165.813 66.767
3.95 167.287 65.953
3.96 172.785 65.519
3.97 179.241 64.908
3.98 181.139 64.411
3.99 183.574 64.498
4.00 193.236 64.940
4.01 200.794 64.922
4.02 206.975 64.166
4.03 212.027 63.397
4.04 218.413 63.172
4.05 222.995 63.187
4.06 223.484 62.605
4.07 223.041 60.561
4.08 216.334 56.408
4.09 --undefined-- 49.881
4.10 --undefined-- 44.893
4.11 --undefined-- 48.299
4.12 --undefined-- 57.261
4.13 285.713 63.793
4.14 272.767 67.523
4.15 267.491 69.500
4.16 264.473 70.896
4.17 262.317 72.059
4.18 260.578 72.898
4.19 259.398 73.185
4.20 258.975 72.927
4.21 259.582 72.007
4.22 260.471 70.378
4.23 260.196 68.538
4.24 259.891 67.144
4.25 259.974 66.488
4.26 262.588 66.472
4.27 265.090 66.567
4.28 266.000 66.357
4.29 265.780 66.022
4.30 267.955 66.018
4.31 268.408 66.174
4.32 269.255 66.357
4.33 270.774 66.601
4.34 264.920 66.999
4.35 260.354 67.774
4.36 254.424 68.702
4.37 248.254 69.450
4.38 241.606 69.627
4.39 232.560 69.228
4.40 224.557 68.604
4.41 210.722 68.467
4.42 --undefined-- 68.829
4.43 --undefined-- 68.184
4.44 --undefined-- 65.488
4.45 --undefined-- 60.925
4.46 --undefined-- 55.678
4.47 --undefined-- 50.342
4.48 --undefined-- 46.252
4.49 --undefined-- 45.723
4.50 --undefined-- 47.655
4.51 --undefined-- 49.552
4.52 --undefined-- 50.578
4.53 --undefined-- 50.731
4.54 --undefined-- 50.885
4.55 --undefined-- 52.062
4.56 --undefined-- 53.684
4.57 --undefined-- 54.988
4.58 --undefined-- 55.450
4.59 --undefined-- 54.428
4.60 --undefined-- 53.817
4.61 --undefined-- 55.364
4.62 --undefined-- 55.848
4.63 --undefined-- 54.210
4.64 --undefined-- 50.749
4.65 --undefined-- 47.710
4.66 --undefined-- 48.860
4.67 --undefined-- 50.374
4.68 --undefined-- 50.375
4.69 --undefined-- 50.053
4.70 --undefined-- 51.236
4.71 --undefined-- 53.288
4.72 --undefined-- 55.529
4.73 --undefined-- 57.903
4.74 --undefined-- 59.519
4.75 --undefined-- 58.811
4.76 --undefined-- 58.269
4.77 --undefined-- 62.629
4.78 --undefined-- 67.163
4.79 165.336 69.984
4.80 163.836 71.464
4.81 164.739 72.155
4.82 166.644 72.480
4.83 167.968 72.850
4.84 170.351 72.817
4.85 176.045 72.030
4.86 178.189 71.169
4.87 179.462 70.926
4.88 179.152 71.109
4.89 177.087 71.146
4.90 172.868 70.426
4.91 162.484 68.268
4.92 154.228 64.151
4.93 --undefined-- 58.155
4.94 --undefined-- 53.980
4.95 --undefined-- 53.552
4.96 --undefined-- 56.103
4.97 --undefined-- 60.068
4.98 --undefined-- 61.633
4.99 --undefined-- 61.038
5.00 162.248 63.180
5.01 171.442 66.607
5.02 175.692 68.261
5.03 172.847 --undefined--
5.04 169.650 --undefined--
5.05 --undefined-- --undefined--
5.06 --undefined-- --undefined--
