Time Pitch Intensity
0.01 --undefined-- --undefined--
0.02 186.109 --undefined--
0.03 188.495 --undefined--
0.04 191.092 --undefined--
0.05 195.318 68.548
0.06 198.699 67.769
0.07 200.445 66.221
0.08 202.777 63.469
0.09 203.454 59.623
0.10 203.922 55.950
0.11 204.174 54.090
0.12 208.713 52.906
0.13 --undefined-- 53.124
0.14 230.358 56.089
0.15 213.432 59.510
0.16 200.726 63.229
0.17 193.999 66.529
0.18 191.247 68.202
0.19 191.053 67.813
0.20 192.222 65.368
0.21 196.253 63.075
0.22 171.045 63.521
0.23 172.848 64.373
0.24 171.231 64.908
0.25 --undefined-- 65.420
0.26 --undefined-- 65.830
0.27 --undefined-- 66.694
0.28 --undefined-- 67.935
0.29 --undefined-- 68.604
0.30 203.077 68.022
0.31 207.481 67.186
0.32 212.688 68.281
0.33 207.571 69.952
0.34 203.249 70.578
0.35 194.768 70.289
0.36 --undefined-- 69.999
0.37 --undefined-- 70.042
0.38 166.253 69.913
0.39 162.231 69.829
0.40 159.669 70.121
0.41 159.364 70.581
0.42 159.630 70.887
0.43 160.973 70.442
0.44 162.947 68.954
0.45 164.350 67.403
0.46 164.692 67.220
0.47 164.459 68.149
0.48 163.370 69.098
0.49 161.691 69.014
0.50 162.805 67.457
0.51 165.860 64.723
0.52 162.967 61.858
0.53 164.851 59.581
0.54 163.069 57.230
0.55 --undefined-- 53.767
0.56 --undefined-- 48.730
0.57 --undefined-- 42.342
0.58 --undefined-- 35.617
0.59 --undefined-- 36.257
0.60 --undefined-- 45.346
0.61 --undefined-- 52.005
0.62 --undefined-- 55.743
0.63 --undefined-- 58.477
0.64 --undefined-- 61.278
0.65 76.836 64.116
0.66 75.803 67.093
0.67 76.517 68.863
0.68 78.027 69.663
0.69 --undefined-- 70.365
0.70 --undefined-- 70.752
0.71 --undefined-- 70.997
0.72 --undefined-- 71.106
0.73 172.240 70.817
0.74 175.054 70.052
0.75 178.001 69.068
0.76 178.881 68.175
0.77 181.869 67.373
0.78 184.996 66.789
0.79 185.180 66.117
0.80 186.484 65.285
0.81 190.909 64.661
0.82 201.044 66.108
0.83 204.654 69.335
0.84 205.251 71.056
0.85 205.434 70.695
0.86 205.049 69.162
0.87 204.480 67.732
0.88 203.390 66.703
0.89 193.637 65.518
0.90 186.716 63.768
0.91 186.595 61.170
0.92 185.258 57.503
0.93 --undefined-- 53.858
0.94 --undefined-- 51.444
0.95 --undefined-- 47.004
0.96 --undefined-- 38.152
0.97 --undefined-- 27.436
0.98 --undefined-- 25.072
0.99 --undefined-- 28.197
1.00 --undefined-- 39.427
1.01 --undefined-- 48.398
1.02 --undefined-- 54.157
1.03 --undefined-- 57.865
1.04 163.405 60.553
1.05 165.683 62.413
1.06 167.248 63.643
1.07 168.455 64.435
1.08 170.765 64.673
1.09 170.623 64.802
1.10 169.773 65.174
1.11 169.826 65.155
1.12 169.953 64.475
1.13 169.394 63.862
1.14 169.810 63.901
1.15 170.860 64.339
1.16 171.521 64.935
1.17 172.226 65.423
1.18 173.570 65.722
1.19 174.081 65.726
1.20 173.121 65.214
1.21 170.280 64.176
1.22 168.196 62.766
1.23 171.446 60.962
1.24 185.038 59.543
1.25 216.626 61.834
1.26 228.981 66.254
1.27 233.024 69.328
1.28 237.312 70.557
1.29 245.008 70.624
1.30 250.390 70.088
1.31 256.442 68.763
1.32 263.781 66.259
1.33 267.661 61.912
1.34 --undefined-- 54.791
1.35 --undefined-- 44.628
1.36 --undefined-- 33.204
1.37 --undefined-- 26.869
1.38 --undefined-- 24.966
1.39 --undefined-- 25.508
1.40 --undefined-- 25.775
1.41 --undefined-- 25.671
1.42 --undefined-- 24.857
1.43 --undefined-- 27.648
1.44 --undefined-- 42.653
1.45 --undefined-- 54.776
1.46 204.398 63.674
1.47 204.255 69.165
1.48 204.165 71.352
1.49 186.953 70.703
1.50 170.169 68.135
1.51 165.547 65.447
1.52 162.641 63.867
1.53 160.524 62.659
1.54 158.334 61.642
1.55 156.439 61.172
1.56 156.474 60.987
1.57 157.547 60.648
1.58 158.117 60.038
1.59 158.741 59.152
1.60 160.066 58.427
1.61 161.031 58.939
1.62 161.883 60.274
1.63 163.164 61.023
1.64 163.248 60.356
1.65 159.003 57.597
1.66 --undefined-- 52.063
1.67 --undefined-- 45.631
1.68 --undefined-- 51.658
1.69 --undefined-- 56.393
1.70 --undefined-- 59.800
1.71 --undefined-- 65.318
1.72 165.987 69.566
1.73 165.637 71.130
1.74 164.665 70.336
1.75 163.535 67.755
1.76 163.170 64.056
1.77 164.173 60.362
1.78 165.454 59.828
1.79 167.037 60.594
1.80 166.459 60.534
1.81 166.553 59.937
1.82 167.742 59.400
1.83 169.274 59.170
1.84 169.807 59.137
1.85 170.583 59.477
1.86 170.668 60.067
1.87 169.667 60.679
1.88 168.378 61.346
1.89 165.974 62.026
1.90 163.744 63.194
1.91 162.211 65.215
1.92 160.424 66.803
1.93 161.796 66.928
1.94 162.775 66.320
1.95 162.456 66.326
1.96 162.658 66.638
1.97 162.183 66.743
1.98 162.161 66.429
1.99 162.427 65.687
2.00 161.867 64.991
2.01 164.079 64.483
2.02 171.167 64.118
2.03 174.072 63.489
2.04 172.833 61.890
2.05 170.895 58.825
2.06 --undefined-- 55.988
2.07 --undefined-- 56.653
2.08 --undefined-- 57.592
2.09 --undefined-- 57.524
2.10 --undefined-- 57.722
2.11 --undefined-- 58.878
2.12 --undefined-- 59.171
2.13 --undefined-- 57.858
2.14 --undefined-- 55.523
2.15 --undefined-- 57.212
2.16 --undefined-- 62.773
2.17 --undefined-- 66.837
2.18 --undefined-- 68.534
2.19 --undefined-- 68.282
2.20 --undefined-- 66.869
2.21 --undefined-- 65.975
2.22 --undefined-- 67.624
2.23 102.647 68.613
2.24 102.323 67.774
2.25 --undefined-- 66.716
2.26 --undefined-- 66.801
2.27 --undefined-- 67.118
2.28 175.860 66.955
2.29 177.137 66.136
2.30 176.293 65.106
2.31 177.169 64.302
2.32 188.678 63.972
2.33 190.800 64.365
2.34 190.995 65.161
2.35 191.190 66.110
2.36 190.823 67.510
2.37 190.712 69.004
2.38 189.327 70.484
2.39 185.398 71.863
2.40 181.077 72.281
2.41 176.073 71.608
2.42 172.600 70.466
2.43 --undefined-- 69.573
2.44 156.813 69.512
2.45 156.365 69.590
2.46 154.785 68.730
2.47 150.440 66.369
2.48 147.908 62.861
2.49 146.004 58.310
2.50 --undefined-- 51.740
2.51 --undefined-- 43.206
2.52 --undefined-- 34.791
2.53 --undefined-- 28.641
2.54 --undefined-- 25.292
2.55 --undefined-- 24.485
2.56 --undefined-- 24.313
2.57 --undefined-- 23.734
2.58 --undefined-- 23.555
2.59 --undefined-- 23.301
2.60 --undefined-- 21.731
2.61 --undefined-- 19.967
2.62 --undefined-- 22.039
2.63 --undefined-- 24.619
2.64 --undefined-- 25.710
2.65 --undefined-- 26.584
2.66 --undefined-- 27.325
2.67 --undefined-- 27.457
2.68 --undefined-- 27.251
2.69 --undefined-- 26.812
2.70 --undefined-- 26.575
2.71 --undefined-- 26.649
2.72 --undefined-- 26.131
2.73 --undefined-- 23.874
2.74 --undefined-- 21.883
2.75 --undefined-- 23.988
2.76 --undefined-- 25.824
2.77 --undefined-- 26.235
2.78 --undefined-- 26.328
2.79 --undefined-- 26.366
2.80 --undefined-- 25.983
2.81 --undefined-- 25.752
2.82 --undefined-- 25.886
2.83 --undefined-- 25.768
2.84 --undefined-- 25.488
2.85 --undefined-- 25.577
2.86 --undefined-- 25.841
2.87 --undefined-- 26.042
2.88 --undefined-- 26.689
2.89 --undefined-- 27.460
2.90 --undefined-- 27.706
2.91 --undefined-- 27.811
2.92 --undefined-- 27.786
2.93 --undefined-- 27.188
2.94 --undefined-- 26.611
2.95 --undefined-- 26.487
2.96 --undefined-- 26.403
2.97 --undefined-- 26.448
2.98 --undefined-- 26.527
2.99 --undefined-- 26.617
3.00 --undefined-- 26.694
3.01 --undefined-- 26.493
3.02 --undefined-- 26.034
3.03 --undefined-- 25.897
3.04 --undefined-- 26.395
3.05 --undefined-- 27.110
3.06 --undefined-- 27.360
3.07 --undefined-- 27.168
3.08 --undefined-- 27.194
3.09 --undefined-- 26.927
3.10 --undefined-- 26.377
3.11 --undefined-- 26.257
3.12 --undefined-- 26.690
3.13 --undefined-- 30.798
3.14 --undefined-- 42.093
3.15 --undefined-- 52.895
3.16 --undefined-- 62.213
3.17 177.341 68.915
3.18 178.017 72.770
3.19 179.581 74.069
3.20 180.195 73.346
3.21 180.411 71.637
3.22 180.661 69.894
3.23 180.194 67.710
3.24 180.203 65.416
3.25 178.236 65.306
3.26 179.047 66.614
3.27 181.370 67.650
3.28 182.119 68.884
3.29 182.551 70.092
3.30 183.779 70.547
3.31 185.739 70.217
3.32 186.860 69.007
3.33 185.984 66.569
3.34 182.993 62.657
3.35 175.168 57.309
3.36 --undefined-- 51.181
3.37 --undefined-- 46.199
3.38 --undefined-- 51.577
3.39 --undefined-- 61.510
3.40 226.834 67.662
3.41 227.523 70.775
3.42 227.341 71.956
3.43 227.693 72.330
3.44 228.485 72.520
3.45 228.766 72.477
3.46 229.777 72.344
3.47 229.056 71.829
3.48 227.759 70.109
3.49 227.898 67.551
3.50 226.081 66.903
3.51 219.754 68.336
3.52 214.293 69.826
3.53 208.345 70.623
3.54 203.872 69.787
3.55 198.328 66.635
3.56 188.401 61.445
3.57 174.387 56.627
3.58 169.691 53.789
3.59 --undefined-- 51.883
3.60 --undefined-- 54.753
3.61 --undefined-- 59.865
3.62 --undefined-- 63.971
3.63 --undefined-- 66.695
3.64 --undefined-- 69.037
3.65 174.211 70.742
3.66 173.761 71.385
3.67 173.678 71.389
3.68 173.789 70.949
3.69 175.156 70.102
3.70 178.630 68.908
3.71 182.675 67.661
3.72 185.937 66.493
3.73 193.495 64.825
3.74 202.130 62.520
3.75 210.271 60.024
3.76 226.226 59.434
3.77 232.541 60.865
3.78 236.037 62.211
3.79 236.318 63.717
3.80 231.310 66.053
3.81 220.066 68.178
3.82 214.345 69.496
3.83 207.036 70.177
3.84 198.746 69.827
3.85 194.419 68.064
3.86 190.260 66.009
3.87 188.173 65.418
3.88 186.062 65.986
3.89 186.258 66.779
3.90 187.428 67.215
3.91 191.251 67.394
3.92 192.636 67.221
3.93 191.554 65.855
3.94 192.987 63.016
3.95 194.082 59.847
3.96 195.064 58.191
3.97 199.373 59.883
3.98 195.162 65.729
3.99 195.533 71.055
4.00 195.791 73.991
4.01 196.085 74.888
4.02 194.923 74.282
4.03 192.352 72.065
4.04 190.271 67.856
4.05 --undefined-- 60.972
4.06 --undefined-- 51.782
4.07 --undefined-- 47.211
4.08 --undefined-- 46.621
4.09 --undefined-- 50.858
4.10 --undefined-- 62.553
4.11 --undefined-- 69.862
4.12 --undefined-- 72.462
4.13 --undefined-- 70.829
4.14 --undefined-- 66.125
4.15 --undefined-- 64.356
4.16 --undefined-- 64.913
4.17 --undefined-- 65.183
4.18 --undefined-- 65.565
4.19 251.245 65.273
4.20 --undefined-- 64.890
4.21 --undefined-- 65.819
4.22 --undefined-- 67.483
4.23 198.425 68.767
4.24 190.337 69.579
4.25 183.853 69.893
4.26 178.684 69.319
4.27 172.332 67.872
4.28 168.620 66.223
4.29 168.816 65.153
4.30 169.001 64.723
4.31 171.645 64.395
4.32 173.678 64.002
4.33 175.159 63.570
4.34 177.088 63.245
4.35 178.679 63.315
4.36 177.649 63.677
4.37 176.705 63.817
4.38 177.254 63.989
4.39 178.074 64.321
4.40 177.602 64.068
4.41 176.707 63.381
4.42 177.700 62.146
4.43 180.210 59.332
4.44 180.643 55.100
4.45 --undefined-- 52.998
4.46 --undefined-- 54.040
4.47 --undefined-- 55.146
4.48 --undefined-- 55.431
4.49 --undefined-- 54.714
4.50 --undefined-- 57.917
4.51 --undefined-- 64.491
4.52 --undefined-- 68.357
4.53 --undefined-- 69.882
4.54 160.101 70.578
4.55 159.649 70.903
4.56 159.604 70.683
4.57 159.343 70.401
4.58 161.394 70.217
4.59 164.256 70.129
4.60 166.500 69.878
4.61 170.311 69.086
4.62 173.196 68.159
4.63 173.200 67.184
4.64 174.225 65.468
4.65 179.079 63.023
4.66 188.652 61.280
4.67 197.529 60.572
4.68 205.852 60.342
4.69 211.406 60.503
4.70 215.534 60.440
4.71 214.127 59.830
4.72 210.134 59.324
4.73 208.046 60.722
4.74 201.537 64.886
4.75 196.338 69.051
4.76 191.119 71.201
4.77 185.635 71.423
4.78 180.170 70.941
4.79 172.723 70.796
4.80 169.726 70.796
4.81 167.618 70.725
4.82 167.270 70.420
4.83 167.456 69.732
4.84 167.131 68.699
4.85 169.971 66.779
4.86 175.031 63.515
4.87 --undefined-- 58.418
4.88 --undefined-- 52.149
4.89 --undefined-- 48.504
4.90 --undefined-- 47.428
4.91 --undefined-- 47.129
4.92 --undefined-- 46.509
4.93 --undefined-- 45.684
4.94 --undefined-- 45.400
4.95 --undefined-- 44.935
4.96 --undefined-- 44.441
4.97 --undefined-- 43.910
4.98 --undefined-- 42.696
4.99 --undefined-- 43.175
5.00 --undefined-- 49.576
5.01 --undefined-- 55.757
5.02 --undefined-- 62.165
5.03 --undefined-- 67.953
5.04 --undefined-- 71.146
5.05 --undefined-- 72.233
5.06 87.124 72.355
5.07 82.795 71.384
5.08 --undefined-- 69.422
5.09 167.570 68.259
5.10 167.028 67.661
5.11 168.387 66.328
5.12 169.541 65.129
5.13 169.360 65.142
5.14 168.998 65.230
5.15 168.192 64.631
5.16 168.567 63.966
5.17 168.194 63.841
5.18 167.201 64.059
5.19 167.094 64.156
5.20 167.104 63.644
5.21 166.204 61.812
5.22 166.113 58.273
5.23 --undefined-- 53.410
5.24 --undefined-- 48.134
5.25 --undefined-- 42.903
5.26 --undefined-- 40.151
5.27 --undefined-- 45.560
5.28 --undefined-- 51.344
5.29 --undefined-- 54.367
5.30 --undefined-- 54.781
5.31 --undefined-- 55.070
5.32 --undefined-- 56.860
5.33 --undefined-- 58.504
5.34 --undefined-- 59.230
5.35 --undefined-- 58.038
5.36 --undefined-- 55.829
5.37 --undefined-- 54.911
5.38 --undefined-- 53.373
5.39 --undefined-- 56.253
5.40 --undefined-- 61.251
5.41 --undefined-- 64.762
5.42 151.677 67.025
5.43 146.844 68.217
5.44 145.545 68.429
5.45 145.417 68.165
5.46 144.869 67.210
5.47 134.465 65.391
5.48 131.391 63.167
5.49 130.958 60.444
5.50 137.811 57.153
5.51 --undefined-- 53.712
5.52 --undefined-- 50.108
5.53 --undefined-- 47.922
5.54 --undefined-- 49.223
5.55 --undefined-- 53.320
5.56 --undefined-- 58.928
5.57 151.177 62.515
5.58 149.513 63.890
5.59 147.563 63.838
5.60 146.158 63.248
5.61 149.720 62.661
5.62 153.548 62.381
5.63 153.633 62.644
5.64 153.520 63.406
5.65 154.280 64.407
5.66 155.646 65.128
5.67 164.163 65.145
5.68 172.931 64.717
5.69 172.641 63.958
5.70 173.359 62.290
5.71 177.818 59.294
5.72 176.173 55.525
5.73 --undefined-- 51.465
5.74 --undefined-- 47.758
5.75 --undefined-- 48.680
5.76 --undefined-- 55.090
5.77 196.841 61.686
5.78 192.352 66.102
5.79 185.781 68.348
5.80 185.095 69.077
5.81 182.912 68.890
5.82 183.044 68.171
5.83 182.149 67.481
5.84 180.858 67.017
5.85 179.973 --undefined--
5.86 179.786 --undefined--
5.87 --undefined-- --undefined--
5.88 --undefined-- --undefined--
