Time Pitch Intensity
0.01 --undefined-- --undefined--
0.02 88.385 --undefined--
0.03 --undefined-- --undefined--
0.04 --undefined-- --undefined--
0.05 88.428 55.249
0.06 92.288 55.123
0.07 90.296 54.819
0.08 91.676 54.267
0.09 89.358 53.172
0.10 --undefined-- 51.582
0.11 --undefined-- 49.788
0.12 --undefined-- 47.980
0.13 --undefined-- 46.017
0.14 --undefined-- 42.142
0.15 --undefined-- 37.986
0.16 --undefined-- 39.053
0.17 --undefined-- 39.580
0.18 --undefined-- 38.592
0.19 --undefined-- 38.918
0.20 --undefined-- 52.365
0.21 --undefined-- 63.941
0.22 --undefined-- 69.903
0.23 --undefined-- 71.321
0.24 --undefined-- 68.518
0.25 --undefined-- 65.319
0.26 123.226 68.595
0.27 122.568 71.622
0.28 123.268 72.875
0.29 122.789 72.763
0.30 120.917 71.944
0.31 119.892 70.875
0.32 119.816 69.621
0.33 120.653 68.438
0.34 121.110 67.523
0.35 121.076 66.188
0.36 120.549 64.073
0.37 119.649 62.144
0.38 118.418 62.157
0.39 113.311 64.023
0.40 112.575 66.000
0.41 107.069 67.145
0.42 --undefined-- 66.725
0.43 --undefined-- 64.122
0.44 --undefined-- 58.656
0.45 --undefined-- 49.923
0.46 --undefined-- 41.656
0.47 --undefined-- 40.498
0.48 --undefined-- 41.786
0.49 --undefined-- 43.510
0.50 --undefined-- 43.496
0.51 --undefined-- 48.299
0.52 --undefined-- 57.931
0.53 --undefined-- 64.824
0.54 --undefined-- 68.196
0.55 --undefined-- 68.132
0.56 --undefined-- 65.999
0.57 106.996 66.371
0.58 102.721 68.310
0.59 100.089 69.095
0.60 99.455 68.884
0.61 102.291 68.350
0.62 106.323 67.543
0.63 108.713 66.063
0.64 111.455 63.848
0.65 --undefined-- 60.853
0.66 --undefined-- 57.512
0.67 --undefined-- 56.360
0.68 --undefined-- 56.420
0.69 --undefined-- 56.126
0.70 --undefined-- 55.918
0.71 --undefined-- 56.913
0.72 --undefined-- 60.838
0.73 --undefined-- 67.156
0.74 --undefined-- 71.245
0.75 123.749 72.421
0.76 122.387 71.492
0.77 117.439 69.159
0.78 114.318 65.261
0.79 113.409 59.567
0.80 115.665 53.182
0.81 115.096 49.725
0.82 115.244 49.370
0.83 115.000 49.763
0.84 115.777 50.413
0.85 116.863 50.420
0.86 --undefined-- 49.314
0.87 --undefined-- 48.364
0.88 --undefined-- 49.279
0.89 --undefined-- 52.634
0.90 --undefined-- 55.201
0.91 --undefined-- 55.289
0.92 --undefined-- 55.274
0.93 --undefined-- 59.776
0.94 --undefined-- 63.639
0.95 103.916 64.496
0.96 98.941 62.726
0.97 89.756 59.127
0.98 85.695 54.337
0.99 --undefined-- 50.130
1.00 --undefined-- 48.657
1.01 --undefined-- 48.685
1.02 --undefined-- 49.697
1.03 --undefined-- 51.003
1.04 86.697 52.361
1.05 86.352 53.795
1.06 84.317 55.323
1.07 84.997 58.514
1.08 --undefined-- 62.658
1.09 --undefined-- 66.076
1.10 --undefined-- 67.898
1.11 --undefined-- 67.748
1.12 --undefined-- 66.829
1.13 --undefined-- 65.862
1.14 --undefined-- 62.589
1.15 --undefined-- 55.274
1.16 --undefined-- 43.521
1.17 --undefined-- 36.409
1.18 --undefined-- 38.181
1.19 --undefined-- 50.282
1.20 --undefined-- 58.435
1.21 --undefined-- 61.482
1.22 --undefined-- 60.022
1.23 --undefined-- 55.772
1.24 --undefined-- 58.106
1.25 --undefined-- 63.448
1.26 107.302 66.732
1.27 107.425 68.080
1.28 105.426 68.250
1.29 104.819 68.177
1.30 103.590 68.270
1.31 103.042 68.508
1.32 103.443 68.332
1.33 102.996 67.331
1.34 102.924 65.600
1.35 101.608 62.429
1.36 --undefined-- 56.467
1.37 --undefined-- 46.963
1.38 --undefined-- 37.007
1.39 --undefined-- 34.722
1.40 --undefined-- 35.292
1.41 --undefined-- 37.919
1.42 --undefined-- 50.945
1.43 --undefined-- 59.787
1.44 --undefined-- 64.047
1.45 --undefined-- 65.691
1.46 --undefined-- 66.466
1.47 --undefined-- 66.579
1.48 --undefined-- 67.120
1.49 --undefined-- 69.902
1.50 --undefined-- 72.182
1.51 --undefined-- 72.311
1.52 109.455 70.722
1.53 109.639 68.438
1.54 106.912 66.393
1.55 106.329 64.656
1.56 104.717 62.987
1.57 103.638 60.571
1.58 --undefined-- 56.251
1.59 --undefined-- 49.816
1.60 --undefined-- 46.427
1.61 --undefined-- 47.167
1.62 --undefined-- 48.875
1.63 --undefined-- 52.981
1.64 --undefined-- 57.148
1.65 113.479 59.626
1.66 112.739 61.368
1.67 112.475 62.782
1.68 111.818 63.407
1.69 111.223 62.653
1.70 110.325 60.640
1.71 110.870 58.349
1.72 107.486 56.117
1.73 106.803 53.309
1.74 106.695 50.225
1.75 --undefined-- 48.211
1.76 --undefined-- 48.406
1.77 --undefined-- 52.867
1.78 --undefined-- 57.636
1.79 --undefined-- 60.391
1.80 --undefined-- 60.870
1.81 --undefined-- 58.925
1.82 --undefined-- 56.313
1.83 94.044 56.692
1.84 93.165 57.769
1.85 92.489 58.241
1.86 92.070 58.285
1.87 92.606 57.958
1.88 93.206 57.625
1.89 93.067 57.522
1.90 90.862 56.689
1.91 89.256 56.003
1.92 90.627 56.720
1.93 91.546 58.627
1.94 99.032 62.737
1.95 100.895 67.003
1.96 101.445 69.297
1.97 100.869 69.882
1.98 102.669 69.563
1.99 102.951 68.907
2.00 104.310 68.008
2.01 104.571 66.475
2.02 105.894 64.449
2.03 107.242 62.691
2.04 103.458 61.684
2.05 102.569 60.723
2.06 106.405 58.661
2.07 --undefined-- 54.776
2.08 --undefined-- 48.341
2.09 --undefined-- 40.797
2.10 --undefined-- 38.537
2.11 --undefined-- 41.434
2.12 --undefined-- 50.064
2.13 --undefined-- 55.921
2.14 --undefined-- 59.216
2.15 --undefined-- 63.229
2.16 --undefined-- 66.845
2.17 --undefined-- 67.845
2.18 --undefined-- 65.809
2.19 --undefined-- 60.613
2.20 --undefined-- 52.212
2.21 --undefined-- 42.312
2.22 --undefined-- 38.722
2.23 --undefined-- 38.007
2.24 --undefined-- 37.296
2.25 --undefined-- 35.671
2.26 --undefined-- 33.377
2.27 --undefined-- 33.302
2.28 --undefined-- 38.951
2.29 --undefined-- 51.346
2.30 --undefined-- 58.890
2.31 --undefined-- 61.866
2.32 --undefined-- 61.787
2.33 --undefined-- 60.984
2.34 --undefined-- 60.495
2.35 --undefined-- 61.787
2.36 --undefined-- 66.883
2.37 110.952 70.342
2.38 110.577 70.772
2.39 105.167 69.289
2.40 102.173 67.309
2.41 99.842 65.484
2.42 99.511 64.420
2.43 --undefined-- 63.337
2.44 --undefined-- 61.719
2.45 --undefined-- 60.165
2.46 --undefined-- 56.597
2.47 --undefined-- 49.292
2.48 --undefined-- 42.414
2.49 --undefined-- 40.309
2.50 --undefined-- 38.355
2.51 --undefined-- 37.317
2.52 --undefined-- 37.580
2.53 --undefined-- 37.675
2.54 --undefined-- 38.165
2.55 --undefined-- 44.443
2.56 --undefined-- 52.655
2.57 --undefined-- 58.270
2.58 --undefined-- 60.794
2.59 --undefined-- 60.493
2.60 --undefined-- 57.743
2.61 --undefined-- 54.219
2.62 --undefined-- 54.079
2.63 --undefined-- 55.686
2.64 92.088 57.217
2.65 90.643 57.728
2.66 86.939 56.614
2.67 --undefined-- 54.177
2.68 --undefined-- 51.777
2.69 --undefined-- 50.657
2.70 --undefined-- 51.659
2.71 --undefined-- 55.119
2.72 --undefined-- 58.726
2.73 --undefined-- 60.942
2.74 --undefined-- 61.961
2.75 --undefined-- 63.511
2.76 --undefined-- 64.998
2.77 --undefined-- 65.941
2.78 87.237 66.611
2.79 --undefined-- 66.984
2.80 93.737 66.828
2.81 92.435 65.928
2.82 91.278 64.084
2.83 --undefined-- 61.248
2.84 --undefined-- 57.147
2.85 --undefined-- 51.216
2.86 --undefined-- 43.878
2.87 --undefined-- 37.855
2.88 --undefined-- 35.437
2.89 --undefined-- 34.740
2.90 --undefined-- 34.702
2.91 --undefined-- 35.808
2.92 --undefined-- 38.860
2.93 --undefined-- 41.971
2.94 --undefined-- 44.122
2.95 --undefined-- 44.943
2.96 --undefined-- 44.951
2.97 --undefined-- 44.789
2.98 --undefined-- 44.711
2.99 --undefined-- 44.716
3.00 --undefined-- 44.925
3.01 --undefined-- 45.122
3.02 --undefined-- 45.581
3.03 --undefined-- 45.904
3.04 --undefined-- 45.689
3.05 --undefined-- 45.181
3.06 --undefined-- 44.434
3.07 --undefined-- 43.257
3.08 --undefined-- 42.577
3.09 --undefined-- 42.822
3.10 --undefined-- 43.162
3.11 --undefined-- 43.309
3.12 --undefined-- 43.184
3.13 --undefined-- 42.718
3.14 --undefined-- 41.951
3.15 --undefined-- 41.116
3.16 --undefined-- 40.534
3.17 --undefined-- 40.609
3.18 --undefined-- 40.951
3.19 --undefined-- 41.014
3.20 --undefined-- 40.664
3.21 --undefined-- 40.819
3.22 --undefined-- 48.405
3.23 --undefined-- 58.815
3.24 --undefined-- 66.938
3.25 --undefined-- 71.696
3.26 124.460 73.276
3.27 125.265 72.620
3.28 124.385 71.226
3.29 122.515 69.889
3.30 122.395 68.440
3.31 124.871 66.934
3.32 127.527 65.828
3.33 128.506 65.029
3.34 129.326 63.751
3.35 130.554 62.127
3.36 131.439 61.319
3.37 130.602 60.804
3.38 130.498 59.136
3.39 --undefined-- 56.953
3.40 --undefined-- 55.475
3.41 --undefined-- 54.561
3.42 --undefined-- 53.851
3.43 --undefined-- 53.459
3.44 --undefined-- 54.100
3.45 --undefined-- 54.956
3.46 --undefined-- 54.982
3.47 --undefined-- 56.654
3.48 --undefined-- 60.243
3.49 --undefined-- 62.116
3.50 102.412 61.983
3.51 99.589 60.942
3.52 96.976 59.730
3.53 97.382 58.851
3.54 94.094 58.389
3.55 93.249 58.358
3.56 --undefined-- 58.500
3.57 --undefined-- 57.948
3.58 89.152 57.839
3.59 89.327 58.554
3.60 89.265 59.653
3.61 --undefined-- 62.707
3.62 --undefined-- 66.152
3.63 92.288 68.118
3.64 95.827 69.360
3.65 99.267 70.603
3.66 100.146 71.241
3.67 103.343 71.117
3.68 107.510 70.807
3.69 107.868 70.568
3.70 112.139 70.367
3.71 112.219 70.037
3.72 112.049 69.442
3.73 109.361 68.287
3.74 108.901 65.888
3.75 --undefined-- 61.316
3.76 --undefined-- 53.998
3.77 --undefined-- 46.845
3.78 --undefined-- 47.179
3.79 --undefined-- 49.257
3.80 --undefined-- 53.105
3.81 --undefined-- 55.586
3.82 --undefined-- 57.896
3.83 --undefined-- 62.144
3.84 --undefined-- 65.166
3.85 --undefined-- 66.013
3.86 85.424 65.811
3.87 82.507 65.833
3.88 77.679 65.823
3.89 77.259 65.240
3.90 75.937 64.040
3.91 77.548 62.608
3.92 77.248 60.953
3.93 78.059 59.167
3.94 79.372 58.132
3.95 76.963 56.897
3.96 78.733 55.294
3.97 80.767 54.902
3.98 80.768 55.052
3.99 79.951 54.770
4.00 --undefined-- 54.445
4.01 --undefined-- 53.584
4.02 --undefined-- 52.103
4.03 --undefined-- 49.939
4.04 --undefined-- 45.794
4.05 --undefined-- 40.414
4.06 --undefined-- 37.450
4.07 --undefined-- 36.284
4.08 --undefined-- 38.190
4.09 --undefined-- 38.985
4.10 --undefined-- 39.863
4.11 --undefined-- 44.245
4.12 --undefined-- 46.735
4.13 --undefined-- 48.911
4.14 --undefined-- 53.048
4.15 --undefined-- 56.387
4.16 --undefined-- 59.302
4.17 --undefined-- 63.434
4.18 --undefined-- 66.799
4.19 117.579 68.442
4.20 114.088 68.991
4.21 110.988 68.933
4.22 109.109 68.556
4.23 106.226 67.594
4.24 105.657 65.811
4.25 103.768 63.514
4.26 101.568 61.116
4.27 97.018 59.627
4.28 95.928 60.929
4.29 96.614 64.838
4.30 --undefined-- 68.123
4.31 --undefined-- 69.513
4.32 --undefined-- 69.060
4.33 90.359 67.128
4.34 89.092 63.801
4.35 88.703 59.068
4.36 --undefined-- 53.661
4.37 --undefined-- 49.562
4.38 --undefined-- 48.034
4.39 --undefined-- 46.929
4.40 --undefined-- 48.317
4.41 --undefined-- 52.833
4.42 --undefined-- 55.782
4.43 --undefined-- 57.126
4.44 --undefined-- 57.985
4.45 109.508 59.118
4.46 108.634 60.364
4.47 107.458 60.573
4.48 102.671 59.218
4.49 100.493 56.317
4.50 --undefined-- 53.141
4.51 --undefined-- 55.976
4.52 --undefined-- 59.589
4.53 --undefined-- 60.892
4.54 --undefined-- 62.395
4.55 --undefined-- 65.397
4.56 103.772 67.824
4.57 100.396 68.882
4.58 97.441 68.993
4.59 96.075 68.676
4.60 96.065 68.262
4.61 97.903 67.764
4.62 99.856 67.193
4.63 101.454 66.303
4.64 102.054 64.132
4.65 102.124 59.897
4.66 102.695 55.043
4.67 103.359 53.445
4.68 101.046 52.743
4.69 100.155 51.979
4.70 97.797 51.213
4.71 92.790 50.223
4.72 90.595 49.294
4.73 88.057 48.595
4.74 --undefined-- 47.458
4.75 --undefined-- 45.787
4.76 --undefined-- 44.685
4.77 --undefined-- 47.516
4.78 --undefined-- 51.901
4.79 --undefined-- 53.504
4.80 --undefined-- 52.640
4.81 --undefined-- 51.581
4.82 --undefined-- 52.692
4.83 --undefined-- 54.794
4.84 --undefined-- 57.308
4.85 --undefined-- 60.063
4.86 --undefined-- 61.316
4.87 --undefined-- 60.533
4.88 --undefined-- 59.684
4.89 104.422 59.395
4.90 102.246 58.938
4.91 100.744 58.288
4.92 98.326 57.195
4.93 96.419 55.546
4.94 98.360 54.871
4.95 102.700 57.735
4.96 107.803 61.482
4.97 108.366 64.027
4.98 106.419 65.197
4.99 105.219 65.331
5.00 101.821 64.686
5.01 97.190 63.224
5.02 --undefined-- 62.160
5.03 --undefined-- 63.631
5.04 --undefined-- 65.074
5.05 --undefined-- 66.169
5.06 --undefined-- 67.505
5.07 --undefined-- 68.547
5.08 --undefined-- 68.828
5.09 --undefined-- 68.144
5.10 --undefined-- 66.425
5.11 --undefined-- 64.768
5.12 --undefined-- 66.669
5.13 115.429 68.767
5.14 111.547 68.733
5.15 105.325 67.151
5.16 101.299 65.220
5.17 100.771 63.857
5.18 100.896 63.268
5.19 101.585 62.720
5.20 100.946 61.555
5.21 99.680 59.969
5.22 99.381 58.512
5.23 101.985 56.629
5.24 --undefined-- 52.940
5.25 --undefined-- 46.434
5.26 --undefined-- 42.994
5.27 --undefined-- 52.590
5.28 --undefined-- 59.293
5.29 --undefined-- 63.945
5.30 --undefined-- 67.215
5.31 --undefined-- 68.561
5.32 --undefined-- 67.847
5.33 91.235 65.499
5.34 88.547 62.131
5.35 90.249 58.068
5.36 90.488 54.141
5.37 91.044 52.468
5.38 91.232 51.928
5.39 90.831 50.607
5.40 91.556 49.263
5.41 89.717 48.691
5.42 91.499 49.344
5.43 91.403 51.531
5.44 91.077 53.587
5.45 91.041 55.043
5.46 90.656 57.211
5.47 94.220 60.227
5.48 94.498 62.542
5.49 98.043 64.482
5.50 100.024 66.794
5.51 100.323 69.023
5.52 100.020 70.626
5.53 99.317 71.361
5.54 103.178 71.505
5.55 101.051 71.163
5.56 100.933 70.643
5.57 100.503 70.267
5.58 99.786 70.158
5.59 100.095 70.362
5.60 100.454 70.268
5.61 100.212 70.047
5.62 100.554 69.758
5.63 99.300 69.432
5.64 98.065 69.011
5.65 97.891 68.215
5.66 97.440 --undefined--
5.67 96.985 --undefined--
5.68 --undefined-- --undefined--
5.69 --undefined-- --undefined--
