Time Pitch Intensity
0.01 --undefined-- --undefined--
0.02 146.766 --undefined--
0.03 152.456 --undefined--
0.04 177.207 --undefined--
0.05 174.243 67.042
0.06 176.705 67.501
0.07 180.944 67.063
0.08 184.605 66.970
0.09 187.639 65.601
0.10 186.727 61.639
0.11 181.824 55.799
0.12 --undefined-- 56.723
0.13 --undefined-- 60.503
0.14 --undefined-- 60.908
0.15 --undefined-- 60.210
0.16 --undefined-- 65.552
0.17 --undefined-- 70.114
0.18 156.958 72.077
0.19 151.920 72.616
0.20 149.100 72.480
0.21 147.395 71.953
0.22 146.342 70.945
0.23 145.503 69.294
0.24 145.156 67.177
0.25 145.950 64.783
0.26 144.976 61.854
0.27 143.155 57.429
0.28 --undefined-- 50.831
0.29 --undefined-- 44.738
0.30 --undefined-- 42.714
0.31 --undefined-- 42.961
0.32 --undefined-- 47.310
0.33 --undefined-- 52.999
0.34 --undefined-- 56.367
0.35 --undefined-- 59.217
0.36 --undefined-- 65.802
0.37 222.564 71.069
0.38 219.505 73.537
0.39 216.868 73.958
0.40 213.316 73.087
0.41 209.704 71.008
0.42 206.561 68.512
0.43 203.572 66.885
0.44 198.697 65.173
0.45 194.964 62.753
0.46 192.518 59.940
0.47 185.097 59.634
0.48 188.895 62.876
0.49 192.073 66.582
0.50 182.167 70.936
0.51 176.274 73.720
0.52 163.016 74.205
0.53 151.156 73.266
0.54 143.596 71.858
0.55 137.706 69.648
0.56 133.429 65.575
0.57 --undefined-- 58.942
0.58 --undefined-- 52.401
0.59 --undefined-- 51.998
0.60 --undefined-- 52.359
0.61 --undefined-- 52.673
0.62 --undefined-- 52.199
0.63 --undefined-- 50.912
0.64 --undefined-- 49.741
0.65 --undefined-- 49.907
0.66 --undefined-- 56.021
0.67 --undefined-- 61.564
0.68 --undefined-- 64.231
0.69 --undefined-- 65.461
0.70 --undefined-- 65.923
0.71 --undefined-- 65.372
0.72 109.773 63.891
0.73 111.056 61.869
0.74 111.804 60.556
0.75 112.982 59.640
0.76 --undefined-- 57.482
0.77 --undefined-- 53.539
0.78 --undefined-- 48.095
0.79 --undefined-- 43.555
0.80 --undefined-- 43.391
0.81 --undefined-- 49.326
0.82 --undefined-- 55.630
0.83 --undefined-- 60.360
0.84 --undefined-- 63.922
0.85 --undefined-- 65.378
0.86 121.719 64.790
0.87 120.879 63.522
0.88 121.888 62.806
0.89 122.258 62.142
0.90 122.515 60.968
0.91 123.093 59.375
0.92 122.779 56.882
0.93 121.837 52.715
0.94 --undefined-- 47.402
0.95 --undefined-- 46.568
0.96 --undefined-- 50.483
0.97 --undefined-- 53.414
0.98 --undefined-- 54.874
0.99 --undefined-- 55.909
1.00 --undefined-- 56.566
1.01 --undefined-- 57.515
1.02 --undefined-- 59.097
1.03 --undefined-- 60.408
1.04 --undefined-- 61.558
1.05 --undefined-- 62.337
1.06 --undefined-- 62.489
1.07 --undefined-- 62.317
1.08 --undefined-- 62.159
1.09 --undefined-- 63.599
1.10 --undefined-- 65.968
1.11 --undefined-- 67.491
1.12 --undefined-- 68.233
1.13 123.334 68.203
1.14 123.766 67.253
1.15 120.196 65.892
1.16 118.797 64.080
1.17 120.424 61.425
1.18 121.399 58.491
1.19 122.198 56.748
1.20 126.303 56.676
1.21 128.538 56.935
1.22 132.176 57.043
1.23 141.706 57.794
1.24 147.216 59.160
1.25 152.911 60.270
1.26 159.552 60.429
1.27 165.348 59.714
1.28 169.197 59.092
1.29 170.659 58.492
1.30 169.244 57.257
1.31 166.410 57.874
1.32 168.617 62.848
1.33 166.331 67.160
1.34 161.688 69.176
1.35 153.417 69.089
1.36 147.720 68.271
1.37 145.038 68.079
1.38 143.098 67.954
1.39 141.855 67.124
1.40 140.228 65.185
1.41 137.829 62.334
1.42 139.986 60.752
1.43 145.985 62.355
1.44 151.745 64.876
1.45 155.747 66.601
1.46 156.767 67.013
1.47 157.610 66.023
1.48 158.912 63.559
1.49 160.615 60.150
1.50 170.723 59.553
1.51 177.211 63.718
1.52 174.994 68.240
1.53 170.663 71.402
1.54 167.726 72.500
1.55 161.625 71.337
1.56 152.515 69.155
1.57 150.578 68.089
1.58 148.449 67.314
1.59 145.526 65.141
1.60 --undefined-- 60.605
1.61 --undefined-- 53.064
1.62 --undefined-- 45.066
1.63 --undefined-- 44.819
1.64 --undefined-- 45.161
1.65 --undefined-- 48.895
1.66 --undefined-- 55.323
1.67 --undefined-- 61.338
1.68 --undefined-- 66.958
1.69 --undefined-- 69.997
1.70 --undefined-- 69.912
1.71 --undefined-- 66.786
1.72 --undefined-- 60.995
1.73 --undefined-- 53.779
1.74 --undefined-- 47.343
1.75 --undefined-- 48.721
1.76 --undefined-- 53.587
1.77 --undefined-- 56.281
1.78 121.160 56.486
1.79 122.684 55.411
1.80 122.443 54.804
1.81 125.610 55.760
1.82 125.160 56.668
1.83 127.442 56.210
1.84 127.606 54.238
1.85 124.837 50.860
1.86 --undefined-- 47.245
1.87 --undefined-- 47.601
1.88 --undefined-- 49.343
1.89 --undefined-- 49.694
1.90 --undefined-- 50.783
1.91 --undefined-- 52.087
1.92 --undefined-- 52.590
1.93 --undefined-- 52.909
1.94 --undefined-- 54.770
1.95 --undefined-- 59.876
1.96 --undefined-- 64.261
1.97 145.865 66.964
1.98 140.314 68.551
1.99 137.962 69.305
2.00 136.497 69.178
2.01 134.780 68.322
2.02 133.527 67.092
2.03 133.082 65.811
2.04 133.415 64.648
2.05 132.620 63.447
2.06 131.928 62.023
2.07 131.671 60.203
2.08 130.603 57.849
2.09 --undefined-- 55.126
2.10 --undefined-- 53.052
2.11 --undefined-- 52.090
2.12 --undefined-- 51.819
2.13 --undefined-- 53.141
2.14 169.525 56.592
2.15 174.633 60.545
2.16 179.435 63.248
2.17 181.193 64.743
2.18 --undefined-- 66.137
2.19 --undefined-- 67.129
2.20 142.711 67.064
2.21 138.158 66.060
2.22 135.332 64.415
2.23 133.647 62.498
2.24 132.697 60.123
2.25 --undefined-- 56.828
2.26 --undefined-- 52.471
2.27 --undefined-- 47.283
2.28 --undefined-- 42.444
2.29 --undefined-- 40.683
2.30 --undefined-- 42.899
2.31 --undefined-- 44.329
2.32 --undefined-- 44.149
2.33 --undefined-- 44.468
2.34 --undefined-- 45.043
2.35 --undefined-- 45.356
2.36 --undefined-- 46.335
2.37 --undefined-- 47.374
2.38 --undefined-- 48.108
2.39 --undefined-- 48.819
2.40 --undefined-- 49.389
2.41 --undefined-- 49.418
2.42 --undefined-- 49.117
2.43 --undefined-- 49.333
2.44 --undefined-- 50.226
2.45 --undefined-- 51.452
2.46 --undefined-- 51.854
2.47 --undefined-- 51.392
2.48 --undefined-- 51.486
2.49 --undefined-- 51.865
2.50 --undefined-- 51.887
2.51 --undefined-- 51.701
2.52 --undefined-- 51.987
2.53 --undefined-- 53.135
2.54 --undefined-- 53.745
2.55 --undefined-- 53.713
2.56 --undefined-- 54.099
2.57 --undefined-- 54.730
2.58 --undefined-- 54.433
2.59 --undefined-- 53.440
2.60 --undefined-- 53.005
2.61 --undefined-- 53.224
2.62 259.449 54.028
2.63 261.015 54.110
2.64 --undefined-- 53.108
2.65 --undefined-- 52.170
2.66 --undefined-- 50.720
2.67 --undefined-- 48.538
2.68 --undefined-- 45.573
2.69 --undefined-- 42.581
2.70 --undefined-- 42.138
2.71 --undefined-- 47.705
2.72 290.788 53.768
2.73 294.542 55.743
2.74 297.456 53.465
2.75 --undefined-- 52.244
2.76 --undefined-- 60.533
2.77 --undefined-- 65.618
2.78 150.863 67.422
2.79 150.340 67.075
2.80 153.270 65.447
2.81 157.748 64.139
2.82 157.082 63.845
2.83 158.206 63.116
2.84 155.358 62.127
2.85 153.457 62.129
2.86 152.389 63.980
2.87 151.100 66.544
2.88 151.040 67.351
2.89 110.411 65.703
2.90 109.071 62.658
2.91 106.163 59.828
2.92 --undefined-- 57.392
2.93 118.733 56.102
2.94 119.604 55.766
2.95 --undefined-- 54.710
2.96 --undefined-- 52.444
2.97 --undefined-- 49.538
2.98 --undefined-- 46.261
2.99 --undefined-- 43.222
3.00 --undefined-- 44.994
3.01 --undefined-- 48.726
3.02 --undefined-- 51.563
3.03 --undefined-- 54.025
3.04 --undefined-- 55.384
3.05 --undefined-- 55.747
3.06 --undefined-- 58.212
3.07 199.379 62.496
3.08 200.001 67.085
3.09 196.439 70.999
3.10 196.182 72.832
3.11 200.417 72.849
3.12 206.322 72.432
3.13 208.914 72.348
3.14 208.778 72.278
3.15 207.286 71.566
3.16 205.705 69.386
3.17 204.462 64.985
3.18 207.252 58.019
3.19 --undefined-- 51.679
3.20 --undefined-- 51.612
3.21 --undefined-- 52.605
3.22 --undefined-- 51.705
3.23 --undefined-- 48.211
3.24 --undefined-- 44.236
3.25 --undefined-- 42.540
3.26 --undefined-- 42.146
3.27 --undefined-- 42.110
3.28 --undefined-- 41.304
3.29 --undefined-- 41.219
3.30 --undefined-- 41.502
3.31 --undefined-- 41.093
3.32 --undefined-- 40.635
3.33 --undefined-- 40.742
3.34 --undefined-- 41.242
3.35 --undefined-- 40.606
3.36 --undefined-- 39.372
3.37 --undefined-- 38.539
3.38 --undefined-- 38.010
3.39 --undefined-- 39.240
3.40 --undefined-- 40.757
3.41 --undefined-- 40.374
3.42 --undefined-- 38.751
3.43 --undefined-- 37.767
3.44 --undefined-- 37.376
3.45 --undefined-- 37.400
3.46 --undefined-- 37.414
3.47 --undefined-- 37.990
3.48 --undefined-- 47.461
3.49 --undefined-- 57.255
3.50 --undefined-- 62.404
3.51 --undefined-- 65.310
3.52 162.604 68.639
3.53 166.483 70.920
3.54 178.706 71.374
3.55 183.445 70.882
3.56 179.015 70.129
3.57 179.271 69.891
3.58 180.746 70.212
3.59 181.148 70.127
3.60 179.324 69.334
3.61 176.053 67.336
3.62 171.083 64.546
3.63 178.210 65.893
3.64 183.274 69.488
3.65 183.771 71.660
3.66 184.189 72.232
3.67 186.404 71.253
3.68 187.760 68.226
3.69 184.804 62.671
3.70 183.461 56.716
3.71 --undefined-- 57.674
3.72 --undefined-- 59.966
3.73 --undefined-- 63.696
3.74 235.548 69.472
3.75 232.717 73.442
3.76 229.605 75.153
3.77 229.167 75.301
3.78 234.010 74.556
3.79 236.996 73.323
3.80 236.959 71.778
3.81 236.811 69.558
3.82 234.886 66.165
3.83 226.659 61.520
3.84 223.714 56.071
3.85 237.803 52.962
3.86 236.848 56.713
3.87 259.756 64.416
3.88 264.344 70.758
3.89 259.503 74.135
3.90 249.661 75.042
3.91 239.745 74.425
3.92 234.915 72.945
3.93 232.514 71.034
3.94 231.689 69.855
3.95 234.562 69.276
3.96 237.797 68.035
3.97 234.502 66.041
3.98 225.754 64.471
3.99 214.571 64.767
4.00 212.014 67.201
4.01 207.225 70.048
4.02 195.410 72.203
4.03 183.082 73.583
4.04 170.031 73.663
4.05 160.047 71.990
4.06 161.383 68.669
4.07 169.135 64.174
4.08 173.873 59.829
4.09 183.210 61.531
4.10 169.065 67.022
4.11 158.486 70.596
4.12 150.204 72.024
4.13 149.602 72.051
4.14 151.938 70.935
4.15 155.549 69.053
4.16 159.466 67.424
4.17 162.127 65.971
4.18 165.107 63.502
4.19 167.409 59.362
4.20 --undefined-- 53.636
4.21 --undefined-- 48.199
4.22 --undefined-- 48.934
4.23 --undefined-- 57.272
4.24 --undefined-- 62.615
4.25 --undefined-- 66.504
4.26 --undefined-- 70.299
4.27 161.669 72.632
4.28 156.436 73.508
4.29 152.007 73.561
4.30 149.749 73.183
4.31 149.232 72.211
4.32 149.037 70.318
4.33 150.479 67.663
4.34 152.542 64.747
4.35 152.856 61.134
4.36 152.245 56.011
4.37 --undefined-- 49.621
4.38 --undefined-- 44.740
4.39 --undefined-- 48.039
4.40 --undefined-- 55.037
4.41 --undefined-- 58.739
4.42 --undefined-- 59.173
4.43 --undefined-- 56.977
4.44 --undefined-- 54.448
4.45 --undefined-- 53.807
4.46 --undefined-- 53.822
4.47 --undefined-- 54.740
4.48 --undefined-- 56.448
4.49 --undefined-- 59.018
4.50 --undefined-- 63.957
4.51 --undefined-- 68.665
4.52 229.780 70.998
4.53 216.305 70.734
4.54 199.621 68.769
4.55 192.574 66.594
4.56 180.703 63.775
4.57 175.865 60.183
4.58 --undefined-- 55.150
4.59 --undefined-- 49.617
4.60 --undefined-- 49.471
4.61 --undefined-- 51.619
4.62 --undefined-- 52.204
4.63 --undefined-- 50.443
4.64 --undefined-- 49.613
4.65 --undefined-- 51.274
4.66 --undefined-- 51.497
4.67 --undefined-- 51.847
4.68 --undefined-- 52.956
4.69 --undefined-- 52.896
4.70 --undefined-- 56.058
4.71 --undefined-- 60.899
4.72 226.987 62.647
4.73 230.208 61.600
4.74 --undefined-- 61.459
4.75 --undefined-- 64.231
4.76 --undefined-- 66.200
4.77 --undefined-- 65.892
4.78 --undefined-- 65.506
4.79 --undefined-- 65.917
4.80 --undefined-- 64.642
4.81 --undefined-- 61.232
4.82 --undefined-- 57.647
4.83 --undefined-- 52.457
4.84 --undefined-- 44.815
4.85 --undefined-- 41.461
4.86 --undefined-- 40.837
4.87 --undefined-- 41.034
4.88 --undefined-- 42.070
4.89 --undefined-- 44.483
4.90 --undefined-- 46.968
4.91 --undefined-- 48.654
4.92 --undefined-- 49.700
4.93 --undefined-- 49.976
4.94 --undefined-- 49.620
4.95 --undefined-- 50.191
4.96 --undefined-- 51.767
4.97 --undefined-- 52.037
4.98 --undefined-- 51.217
4.99 --undefined-- 51.526
5.00 --undefined-- 52.297
5.01 --undefined-- 52.688
5.02 --undefined-- 53.024
5.03 --undefined-- 53.048
5.04 --undefined-- 52.780
5.05 --undefined-- 53.364
5.06 --undefined-- 54.580
5.07 --undefined-- 54.408
5.08 --undefined-- 53.395
5.09 --undefined-- 52.934
5.10 --undefined-- 52.524
5.11 --undefined-- 51.091
5.12 --undefined-- 48.995
5.13 --undefined-- 47.142
5.14 --undefined-- 45.261
5.15 --undefined-- 43.170
5.16 --undefined-- 40.849
5.17 --undefined-- 39.200
5.18 --undefined-- 38.388
5.19 --undefined-- 39.154
5.20 --undefined-- 42.595
5.21 --undefined-- 45.007
5.22 --undefined-- 47.204
5.23 --undefined-- 55.997
5.24 --undefined-- 63.046
5.25 --undefined-- 67.837
5.26 --undefined-- 70.455
5.27 220.253 71.030
5.28 211.958 70.745
5.29 209.141 70.125
5.30 209.138 69.668
5.31 210.341 70.461
5.32 210.511 71.736
5.33 212.074 72.427
5.34 214.977 72.578
5.35 218.782 72.683
5.36 219.153 73.133
5.37 214.055 --undefined--
5.38 208.824 --undefined--
5.39 --undefined-- --undefined--
5.40 --undefined-- --undefined--
