Time Pitch Intensity
0.01 --undefined-- --undefined--
0.02 169.868 --undefined--
0.03 164.576 --undefined--
0.04 157.908 --undefined--
0.05 153.341 64.054
0.06 151.187 58.608
0.07 --undefined-- 52.103
0.08 --undefined-- 49.851
0.09 --undefined-- 50.137
0.10 --undefined-- 51.394
0.11 --undefined-- 53.722
0.12 --undefined-- 56.038
0.13 --undefined-- 57.356
0.14 --undefined-- 57.607
0.15 --undefined-- 58.063
0.16 --undefined-- 58.922
0.17 --undefined-- 59.556
0.18 --undefined-- 60.174
0.19 --undefined-- 60.633
0.20 --undefined-- 60.866
0.21 --undefined-- 63.580
0.22 --undefined-- 66.930
0.23 111.486 68.889
0.24 107.895 69.757
0.25 104.359 69.776
0.26 99.054 69.017
0.27 93.711 67.751
0.28 88.474 66.362
0.29 91.652 65.080
0.30 94.203 63.978
0.31 96.374 62.655
0.32 91.413 60.823
0.33 99.263 59.342
0.34 86.443 58.775
0.35 91.592 58.892
0.36 96.919 59.696
0.37 103.931 62.022
0.38 113.099 65.440
0.39 118.175 68.142
0.40 122.905 69.973
0.41 123.310 71.209
0.42 124.844 71.954
0.43 126.605 72.465
0.44 128.106 72.875
0.45 132.872 73.268
0.46 134.126 73.756
0.47 135.929 74.410
0.48 136.366 75.125
0.49 136.648 75.475
0.50 134.643 74.837
0.51 132.414 72.707
0.52 126.952 69.179
0.53 129.871 65.261
0.54 129.303 61.610
0.55 126.353 57.189
0.56 129.919 55.736
0.57 --undefined-- 63.941
0.58 --undefined-- 70.093
0.59 121.366 73.034
0.60 109.634 73.649
0.61 108.786 73.090
0.62 105.276 72.112
0.63 102.360 71.058
0.64 101.383 70.356
0.65 101.100 70.044
0.66 100.588 69.964
0.67 99.800 69.821
0.68 98.717 69.465
0.69 96.112 68.995
0.70 93.851 68.565
0.71 92.416 68.246
0.72 91.247 67.919
0.73 89.130 67.749
0.74 88.456 68.112
0.75 88.897 68.639
0.76 93.742 68.811
0.77 95.675 68.815
0.78 98.690 69.192
0.79 100.671 69.827
0.80 101.447 70.099
0.81 108.643 69.142
0.82 107.480 66.030
0.83 92.316 60.095
0.84 --undefined-- 51.828
0.85 --undefined-- 46.825
0.86 --undefined-- 47.211
0.87 --undefined-- 51.714
0.88 --undefined-- 59.488
0.89 --undefined-- 66.266
0.90 115.634 69.775
0.91 115.677 70.462
0.92 101.944 69.341
0.93 99.133 67.060
0.94 83.981 63.224
0.95 86.048 58.645
0.96 90.566 57.031
0.97 91.191 57.588
0.98 95.802 58.850
0.99 97.896 60.892
1.00 99.922 63.618
1.01 102.763 66.218
1.02 101.053 67.956
1.03 100.713 68.908
1.04 100.581 69.374
1.05 100.649 69.501
1.06 101.532 69.426
1.07 103.272 69.398
1.08 107.873 69.827
1.09 112.632 70.673
1.10 117.465 71.542
1.11 121.590 72.154
1.12 124.508 72.652
1.13 130.044 73.073
1.14 129.997 72.907
1.15 130.058 72.691
1.16 131.851 73.360
1.17 131.939 74.192
1.18 130.562 74.423
1.19 125.728 74.227
1.20 139.835 73.369
1.21 123.984 70.531
1.22 109.762 65.487
1.23 108.397 63.035
1.24 107.279 63.956
1.25 105.293 63.711
1.26 98.737 62.219
1.27 98.654 60.608
1.28 98.902 59.405
1.29 96.240 58.572
1.30 98.243 60.750
1.31 107.588 64.822
1.32 112.211 67.877
1.33 111.345 69.400
1.34 107.724 69.615
1.35 103.280 69.081
1.36 99.117 68.497
1.37 96.745 68.061
1.38 95.855 67.698
1.39 95.687 67.359
1.40 95.498 67.070
1.41 96.345 67.066
1.42 97.121 67.513
1.43 99.469 68.313
1.44 102.069 69.234
1.45 106.159 70.146
1.46 111.610 70.850
1.47 112.503 71.204
1.48 116.011 71.484
1.49 117.930 71.869
1.50 121.420 72.405
1.51 123.035 72.932
1.52 124.631 73.154
1.53 123.118 72.295
1.54 117.656 69.535
1.55 121.601 65.161
1.56 123.231 60.605
1.57 119.526 55.745
1.58 --undefined-- 51.557
1.59 --undefined-- 54.793
1.60 --undefined-- 62.155
1.61 --undefined-- 67.122
1.62 108.692 69.216
1.63 103.656 69.410
1.64 98.837 68.831
1.65 96.564 68.132
1.66 94.781 67.513
1.67 93.976 66.950
1.68 93.929 66.509
1.69 94.970 66.287
1.70 96.209 66.207
1.71 96.459 66.122
1.72 96.317 65.974
1.73 96.242 65.741
1.74 95.813 65.490
1.75 95.306 65.299
1.76 94.207 65.097
1.77 93.563 64.877
1.78 93.175 64.756
1.79 93.392 64.790
1.80 94.554 64.510
1.81 92.658 63.217
1.82 90.042 60.993
1.83 93.337 58.858
1.84 97.270 57.051
1.85 107.643 54.653
1.86 --undefined-- 51.145
1.87 --undefined-- 48.237
1.88 --undefined-- 50.699
1.89 --undefined-- 60.282
1.90 154.469 67.763
1.91 141.023 71.999
1.92 133.271 73.702
1.93 126.678 73.766
1.94 122.918 73.231
1.95 119.698 72.544
1.96 115.203 71.750
1.97 112.638 70.922
1.98 111.062 70.025
1.99 108.036 68.851
2.00 102.921 66.973
2.01 97.441 64.306
2.02 93.120 61.916
2.03 91.769 60.481
2.04 90.970 59.522
2.05 91.507 59.151
2.06 92.632 59.318
2.07 93.768 59.741
2.08 93.820 60.225
2.09 95.281 60.906
2.10 97.340 61.944
2.11 97.265 63.148
2.12 99.570 64.435
2.13 102.476 65.809
2.14 104.551 67.082
2.15 107.950 67.991
2.16 109.275 68.356
2.17 111.347 67.985
2.18 112.153 66.752
2.19 114.692 64.845
2.20 118.428 62.645
2.21 125.245 59.969
2.22 127.749 56.217
2.23 --undefined-- 53.379
2.24 --undefined-- 58.108
2.25 --undefined-- 65.432
2.26 145.333 70.433
2.27 139.132 72.867
2.28 134.175 73.426
2.29 128.745 72.842
2.30 127.195 71.827
2.31 126.307 71.329
2.32 127.647 71.581
2.33 128.106 71.959
2.34 128.826 72.248
2.35 130.537 72.464
2.36 131.452 72.617
2.37 132.138 72.729
2.38 132.124 72.774
2.39 131.685 72.732
2.40 131.519 72.612
2.41 130.767 72.347
2.42 129.084 71.746
2.43 126.112 70.457
2.44 122.466 68.087
2.45 118.606 64.728
2.46 118.855 61.315
2.47 121.568 57.941
2.48 123.298 53.407
2.49 --undefined-- 47.159
2.50 --undefined-- 44.274
2.51 --undefined-- 57.166
2.52 --undefined-- 66.370
2.53 --undefined-- 71.459
2.54 108.121 73.421
2.55 108.500 73.152
2.56 101.429 71.905
2.57 99.103 70.897
2.58 97.916 70.424
2.59 99.732 70.250
2.60 100.332 70.137
2.61 100.446 69.657
2.62 100.887 68.062
2.63 96.001 64.957
2.64 97.759 61.342
2.65 98.096 58.712
2.66 104.209 59.305
2.67 121.706 64.163
2.68 122.725 68.342
2.69 120.275 70.673
2.70 119.098 71.521
2.71 119.512 71.669
2.72 120.774 71.798
2.73 122.494 71.829
2.74 122.591 70.987
2.75 118.107 68.434
2.76 122.625 64.424
2.77 123.744 61.333
2.78 127.041 61.539
2.79 140.216 66.881
2.80 144.733 72.267
2.81 135.392 75.303
2.82 132.018 76.414
2.83 127.527 76.295
2.84 123.552 75.453
2.85 120.629 74.143
2.86 117.584 72.657
2.87 116.041 71.552
2.88 114.378 70.526
2.89 107.163 68.442
2.90 93.739 64.978
2.91 98.744 63.125
2.92 101.311 64.222
2.93 99.551 65.206
2.94 98.898 65.917
2.95 100.767 66.788
2.96 102.492 67.636
2.97 103.374 68.104
2.98 104.108 68.503
2.99 104.557 69.080
3.00 105.689 69.609
3.01 108.294 69.974
3.02 112.082 70.427
3.03 115.685 71.232
3.04 118.703 72.240
3.05 121.812 73.150
3.06 124.330 73.850
3.07 126.570 74.383
3.08 127.980 74.748
3.09 128.338 74.857
3.10 128.066 74.636
3.11 127.167 73.929
3.12 125.873 72.294
3.13 123.957 69.263
3.14 122.038 64.694
3.15 120.214 58.760
3.16 --undefined-- 51.541
3.17 --undefined-- 43.135
3.18 --undefined-- 36.454
3.19 --undefined-- 35.680
3.20 --undefined-- 46.417
3.21 --undefined-- 56.093
3.22 --undefined-- 61.186
3.23 --undefined-- 62.190
3.24 --undefined-- 61.178
3.25 122.783 65.372
3.26 126.184 69.827
3.27 114.063 71.756
3.28 110.105 72.117
3.29 105.874 71.792
3.30 104.307 70.670
3.31 94.093 68.257
3.32 94.317 64.369
3.33 94.170 59.370
3.34 96.347 53.997
3.35 --undefined-- 48.444
3.36 --undefined-- 43.068
3.37 --undefined-- 41.742
3.38 --undefined-- 43.497
3.39 --undefined-- 44.412
3.40 --undefined-- 50.641
3.41 --undefined-- 60.327
3.42 --undefined-- 66.801
3.43 116.439 70.098
3.44 109.035 70.925
3.45 102.677 70.275
3.46 101.005 69.085
3.47 97.065 67.515
3.48 95.041 65.831
3.49 96.587 65.159
3.50 96.838 65.672
3.51 97.382 66.455
3.52 97.407 66.979
3.53 97.369 67.233
3.54 97.798 67.317
3.55 98.237 67.275
3.56 98.461 67.130
3.57 97.831 66.870
3.58 98.255 66.799
3.59 97.879 67.127
3.60 94.363 67.384
3.61 91.211 67.314
3.62 88.983 67.058
3.63 88.306 66.748
3.64 89.186 66.541
3.65 90.593 66.493
3.66 91.121 66.541
3.67 94.231 66.615
3.68 100.351 66.822
3.69 103.791 67.381
3.70 105.944 68.061
3.71 107.342 68.480
3.72 108.781 68.484
3.73 112.764 69.068
3.74 125.811 71.010
3.75 123.084 72.610
3.76 123.486 73.280
3.77 124.624 73.515
3.78 124.487 73.507
3.79 123.122 73.270
3.80 121.641 73.103
3.81 120.619 73.232
3.82 119.577 73.198
3.83 116.465 72.533
3.84 111.586 71.644
3.85 110.861 71.083
3.86 109.344 70.366
3.87 106.550 68.408
3.88 99.407 64.619
3.89 105.120 59.887
3.90 109.840 55.693
3.91 112.376 52.267
3.92 108.650 55.791
3.93 118.190 62.165
3.94 113.838 66.187
3.95 109.688 68.173
3.96 105.736 68.665
3.97 103.394 67.946
3.98 99.154 66.705
3.99 100.555 66.263
4.00 102.928 66.885
4.01 107.421 67.712
4.02 107.630 68.151
4.03 107.134 67.933
4.04 105.980 66.864
4.05 106.634 65.186
4.06 112.838 65.063
4.07 117.576 67.404
4.08 120.569 69.744
4.09 122.922 71.253
4.10 122.965 71.742
4.11 121.601 71.164
4.12 119.149 69.980
4.13 117.505 69.210
4.14 116.250 69.275
4.15 114.108 69.384
4.16 107.694 68.817
4.17 105.114 68.176
4.18 102.761 68.049
4.19 103.686 67.758
4.20 95.133 66.996
4.21 94.731 66.110
4.22 94.269 65.198
4.23 103.993 63.975
4.24 --undefined-- 62.820
4.25 --undefined-- 62.425
4.26 75.307 61.940
4.27 89.082 61.766
4.28 87.850 62.560
4.29 85.631 63.130
4.30 89.593 63.122
4.31 90.885 62.171
4.32 90.270 60.173
4.33 89.029 58.045
4.34 89.150 58.270
4.35 91.876 61.607
4.36 96.746 64.482
4.37 90.374 65.655
4.38 88.374 65.406
4.39 85.254 64.361
4.40 84.927 63.379
4.41 85.608 62.846
4.42 86.300 62.554
4.43 86.992 62.556
4.44 87.901 63.017
4.45 88.872 63.706
4.46 89.817 64.372
4.47 90.517 64.943
4.48 90.688 65.421
4.49 91.491 65.776
4.50 91.783 65.897
4.51 91.276 65.876
4.52 88.061 65.763
4.53 86.559 65.662
4.54 88.230 65.654
4.55 90.775 65.192
4.56 --undefined-- 64.035
4.57 --undefined-- 62.254
4.58 --undefined-- 60.781
4.59 --undefined-- 58.642
4.60 --undefined-- 54.269
4.61 --undefined-- 51.732
4.62 --undefined-- 50.963
4.63 --undefined-- 48.039
4.64 --undefined-- 43.670
4.65 --undefined-- 42.871
4.66 --undefined-- 44.524
4.67 --undefined-- 44.821
4.68 --undefined-- 44.261
4.69 --undefined-- 44.090
4.70 --undefined-- 44.516
4.71 --undefined-- 45.031
4.72 --undefined-- 45.442
4.73 --undefined-- 45.884
4.74 --undefined-- 46.546
4.75 --undefined-- 47.073
4.76 --undefined-- 47.348
4.77 --undefined-- 47.322
4.78 --undefined-- 47.333
4.79 --undefined-- 47.909
4.80 --undefined-- 48.175
4.81 --undefined-- 47.891
4.82 --undefined-- 47.965
4.83 --undefined-- 47.866
4.84 --undefined-- 46.786
4.85 --undefined-- 45.416
4.86 --undefined-- 44.734
4.87 --undefined-- 44.380
4.88 --undefined-- 43.711
4.89 --undefined-- 41.959
4.90 --undefined-- 40.385
4.91 --undefined-- 43.479
4.92 --undefined-- 46.233
4.93 --undefined-- 45.716
4.94 --undefined-- 42.234
4.95 --undefined-- 40.708
4.96 --undefined-- 47.585
4.97 --undefined-- 56.367
4.98 --undefined-- 64.528
4.99 --undefined-- 70.944
5.00 198.269 74.690
5.01 198.694 76.181
5.02 195.593 76.234
5.03 197.386 75.413
5.04 201.624 --undefined--
5.05 210.248 --undefined--
5.06 --undefined-- --undefined--
5.07 --undefined-- --undefined--
