Time Pitch Intensity
0.01 --undefined-- --undefined--
0.02 182.732 --undefined--
0.03 182.546 --undefined--
0.04 183.465 --undefined--
0.05 183.744 68.888
0.06 183.221 69.059
0.07 183.286 68.962
0.08 182.615 68.629
0.09 180.131 67.691
0.10 176.873 65.668
0.11 166.061 63.629
0.12 167.762 64.046
0.13 175.210 65.958
0.14 180.754 68.149
0.15 184.197 70.647
0.16 186.944 72.890
0.17 190.391 74.295
0.18 193.704 74.749
0.19 195.663 74.372
0.20 197.142 73.494
0.21 200.142 72.439
0.22 203.668 71.427
0.23 208.473 70.841
0.24 210.998 70.558
0.25 211.416 70.207
0.26 209.147 69.481
0.27 197.087 68.294
0.28 --undefined-- 66.923
0.29 --undefined-- 65.141
0.30 --undefined-- 62.082
0.31 --undefined-- 57.574
0.32 --undefined-- 54.517
0.33 --undefined-- 54.674
0.34 --undefined-- 54.910
0.35 --undefined-- 56.830
0.36 --undefined-- 58.766
0.37 --undefined-- 58.123
0.38 --undefined-- 55.289
0.39 292.917 53.358
0.40 296.494 53.450
0.41 297.760 55.206
0.42 297.979 57.308
0.43 --undefined-- 59.431
0.44 --undefined-- 62.087
0.45 --undefined-- 62.565
0.46 251.173 60.854
0.47 289.629 60.014
0.48 289.578 58.596
0.49 --undefined-- 56.382
0.50 --undefined-- 58.210
0.51 --undefined-- 60.057
0.52 258.935 60.322
0.53 253.776 60.594
0.54 252.265 60.057
0.55 261.799 57.651
0.56 286.787 56.350
0.57 290.768 58.439
0.58 294.090 59.932
0.59 298.181 58.965
0.60 294.469 56.962
0.61 --undefined-- 56.092
0.62 --undefined-- 55.703
0.63 --undefined-- 58.320
0.64 --undefined-- 60.787
0.65 --undefined-- 60.781
0.66 --undefined-- 60.669
0.67 --undefined-- 61.828
0.68 --undefined-- 61.412
0.69 --undefined-- 58.434
0.70 --undefined-- 53.325
0.71 --undefined-- 50.034
0.72 --undefined-- 52.181
0.73 --undefined-- 57.546
0.74 --undefined-- 62.603
0.75 246.668 67.680
0.76 234.620 72.126
0.77 233.505 75.258
0.78 234.367 77.179
0.79 235.836 77.949
0.80 238.511 77.607
0.81 243.912 76.594
0.82 249.108 75.551
0.83 259.647 74.703
0.84 266.081 73.873
0.85 287.602 73.865
0.86 298.499 74.853
0.87 156.381 75.574
0.88 164.230 75.830
0.89 171.170 75.779
0.90 179.942 75.778
0.91 187.682 76.451
0.92 190.031 77.044
0.93 194.146 76.466
0.94 196.492 74.861
0.95 199.271 72.566
0.96 197.555 69.774
0.97 191.751 66.594
0.98 191.033 63.014
0.99 --undefined-- 59.713
1.00 --undefined-- 57.308
1.01 --undefined-- 57.533
1.02 --undefined-- 61.128
1.03 --undefined-- 63.298
1.04 --undefined-- 63.231
1.05 --undefined-- 61.980
1.06 --undefined-- 63.332
1.07 178.263 67.466
1.08 192.829 70.857
1.09 197.698 72.605
1.10 199.063 72.993
1.11 199.719 72.372
1.12 199.031 70.703
1.13 190.709 68.226
1.14 193.092 65.176
1.15 197.235 61.563
1.16 --undefined-- 57.872
1.17 --undefined-- 55.039
1.18 --undefined-- 54.986
1.19 --undefined-- 57.666
1.20 --undefined-- 61.422
1.21 --undefined-- 62.907
1.22 --undefined-- 61.932
1.23 --undefined-- 61.408
1.24 --undefined-- 61.683
1.25 --undefined-- 60.489
1.26 --undefined-- 59.766
1.27 --undefined-- 61.028
1.28 212.022 62.811
1.29 214.341 64.562
1.30 241.019 66.208
1.31 241.050 68.127
1.32 202.362 70.466
1.33 192.868 71.967
1.34 184.403 72.363
1.35 180.387 71.828
1.36 177.799 70.714
1.37 178.967 69.783
1.38 180.650 69.814
1.39 181.995 70.718
1.40 182.991 71.362
1.41 184.422 71.191
1.42 185.107 69.834
1.43 184.496 66.830
1.44 180.238 62.772
1.45 189.641 60.504
1.46 206.208 62.697
1.47 220.971 66.251
1.48 223.572 68.631
1.49 224.259 70.471
1.50 224.723 71.993
1.51 225.382 72.652
1.52 226.218 72.351
1.53 227.393 71.319
1.54 226.680 70.183
1.55 223.679 69.375
1.56 221.983 68.673
1.57 219.042 68.123
1.58 212.484 68.307
1.59 202.630 69.182
1.60 196.104 69.892
1.61 193.072 70.413
1.62 189.161 70.808
1.63 185.102 70.372
1.64 184.533 68.775
1.65 191.310 67.868
1.66 205.563 69.263
1.67 204.979 70.579
1.68 203.920 71.393
1.69 202.787 72.629
1.70 197.897 74.429
1.71 196.690 75.840
1.72 199.478 76.049
1.73 204.820 75.124
1.74 215.871 74.552
1.75 219.271 74.989
1.76 223.885 75.241
1.77 227.870 75.246
1.78 230.850 75.161
1.79 231.138 74.904
1.80 228.349 74.144
1.81 224.946 72.369
1.82 221.969 69.240
1.83 --undefined-- 65.005
1.84 --undefined-- 60.797
1.85 --undefined-- 57.530
1.86 --undefined-- 56.615
1.87 --undefined-- 57.281
1.88 --undefined-- 59.288
1.89 --undefined-- 61.603
1.90 --undefined-- 62.085
1.91 --undefined-- 60.175
1.92 --undefined-- 56.676
1.93 --undefined-- 57.040
1.94 --undefined-- 59.600
1.95 --undefined-- 60.955
1.96 --undefined-- 60.264
1.97 --undefined-- 57.627
1.98 --undefined-- 56.916
1.99 --undefined-- 57.206
2.00 --undefined-- 55.799
2.01 --undefined-- 54.988
2.02 --undefined-- 55.613
2.03 --undefined-- 58.338
2.04 --undefined-- 63.666
2.05 296.282 67.200
2.06 290.401 68.674
2.07 290.874 69.228
2.08 291.533 69.610
2.09 293.300 70.059
2.10 295.332 70.602
2.11 297.325 71.062
2.12 299.056 71.394
2.13 298.554 71.512
2.14 298.051 71.274
2.15 297.282 70.994
2.16 295.966 71.111
2.17 293.054 71.410
2.18 288.949 71.144
2.19 282.494 69.553
2.20 272.590 66.102
2.21 271.778 61.309
2.22 --undefined-- 58.341
2.23 --undefined-- 57.494
2.24 --undefined-- 56.443
2.25 --undefined-- 55.972
2.26 --undefined-- 60.830
2.27 --undefined-- 66.370
2.28 205.993 69.940
2.29 202.340 71.830
2.30 200.217 72.824
2.31 199.361 73.289
2.32 199.791 73.002
2.33 201.305 71.552
2.34 201.513 68.698
2.35 189.984 64.968
2.36 191.611 61.341
2.37 197.221 57.275
2.38 200.566 54.640
2.39 --undefined-- 56.838
2.40 --undefined-- 58.426
2.41 --undefined-- 57.186
2.42 --undefined-- 54.029
2.43 --undefined-- 55.021
2.44 --undefined-- 57.488
2.45 --undefined-- 58.392
2.46 --undefined-- 58.615
2.47 --undefined-- 60.732
2.48 --undefined-- 62.157
2.49 --undefined-- 61.288
2.50 291.021 62.205
2.51 297.120 64.525
2.52 296.772 64.282
2.53 266.968 64.499
2.54 226.201 68.728
2.55 215.348 71.811
2.56 209.857 72.658
2.57 202.470 72.018
2.58 199.106 71.374
2.59 197.733 71.471
2.60 197.835 71.988
2.61 196.881 72.332
2.62 195.995 72.137
2.63 196.402 71.587
2.64 197.626 70.918
2.65 198.257 70.274
2.66 199.482 69.862
2.67 201.487 69.356
2.68 202.769 68.574
2.69 203.006 68.058
2.70 203.817 67.985
2.71 217.089 68.236
2.72 222.484 68.742
2.73 237.907 69.804
2.74 242.159 71.579
2.75 243.191 72.852
2.76 242.047 72.854
2.77 240.871 72.634
2.78 240.031 73.536
2.79 237.967 74.654
2.80 234.296 75.411
2.81 230.001 75.583
2.82 224.241 74.665
2.83 214.168 73.363
2.84 206.179 72.808
2.85 196.371 72.474
2.86 186.921 72.324
2.87 181.525 71.947
2.88 176.017 71.214
2.89 174.634 70.308
2.90 177.367 68.691
2.91 182.602 66.516
2.92 182.493 64.526
2.93 179.404 62.424
2.94 178.892 60.781
2.95 --undefined-- 61.305
2.96 --undefined-- 61.042
2.97 --undefined-- 58.050
2.98 --undefined-- 55.061
2.99 --undefined-- 58.403
3.00 --undefined-- 62.024
3.01 --undefined-- 63.101
3.02 --undefined-- 61.571
3.03 --undefined-- 59.042
3.04 --undefined-- 59.325
3.05 --undefined-- 62.024
3.06 284.491 65.543
3.07 269.627 67.870
3.08 265.989 68.679
3.09 262.040 69.039
3.10 258.751 69.637
3.11 257.497 69.996
3.12 259.986 69.385
3.13 262.738 67.894
3.14 262.102 66.711
3.15 261.765 66.499
3.16 260.940 66.738
3.17 261.132 66.921
3.18 261.731 67.282
3.19 262.830 67.731
3.20 265.001 67.518
3.21 266.085 66.382
3.22 264.198 64.397
3.23 244.534 62.291
3.24 243.808 61.436
3.25 --undefined-- 60.727
3.26 --undefined-- 60.990
3.27 275.052 65.672
3.28 271.948 69.376
3.29 266.626 70.883
3.30 263.471 71.120
3.31 261.189 70.272
3.32 257.826 68.265
3.33 258.796 65.582
3.34 262.639 63.189
3.35 268.070 63.919
3.36 262.365 65.075
3.37 263.851 63.782
3.38 --undefined-- 59.795
3.39 --undefined-- 54.327
3.40 --undefined-- 53.620
3.41 --undefined-- 57.654
3.42 --undefined-- 60.157
3.43 --undefined-- 59.714
3.44 --undefined-- 56.462
3.45 --undefined-- 53.897
3.46 --undefined-- 56.146
3.47 --undefined-- 58.271
3.48 --undefined-- 61.759
3.49 --undefined-- 64.566
3.50 --undefined-- 64.262
3.51 --undefined-- 61.020
3.52 --undefined-- 59.701
3.53 --undefined-- 62.573
3.54 --undefined-- 66.208
3.55 --undefined-- 69.207
3.56 91.863 70.274
3.57 92.027 69.675
3.58 189.387 68.583
3.59 191.413 67.603
3.60 191.657 66.690
3.61 187.786 66.005
3.62 179.942 65.313
3.63 174.104 64.538
3.64 179.623 64.782
3.65 178.639 65.662
3.66 177.459 65.574
3.67 177.138 64.738
3.68 178.758 64.175
3.69 180.084 64.326
3.70 182.265 65.250
3.71 186.070 66.108
3.72 189.090 66.066
3.73 191.626 65.569
3.74 193.171 64.756
3.75 190.755 62.746
3.76 188.240 59.788
3.77 256.923 60.584
3.78 235.105 64.351
3.79 227.234 66.909
3.80 224.042 68.385
3.81 222.429 69.078
3.82 221.163 69.047
3.83 220.034 68.826
3.84 220.266 68.841
3.85 222.500 68.745
3.86 226.187 68.484
3.87 227.882 68.314
3.88 230.620 68.077
3.89 233.006 67.820
3.90 233.450 67.408
3.91 232.739 66.869
3.92 230.765 66.753
3.93 224.233 66.806
3.94 212.778 66.297
3.95 202.328 66.059
3.96 188.645 66.071
3.97 180.323 65.012
3.98 173.979 62.774
3.99 163.220 60.636
4.00 163.998 61.757
4.01 168.120 64.988
4.02 169.275 67.348
4.03 167.960 67.895
4.04 165.880 66.872
4.05 166.370 65.933
4.06 167.315 66.328
4.07 167.489 67.267
4.08 169.632 68.166
4.09 174.134 68.608
4.10 178.665 68.920
4.11 181.752 69.871
4.12 185.993 71.044
4.13 190.558 71.827
4.14 193.440 72.343
4.15 194.428 72.528
4.16 185.643 71.961
4.17 191.914 70.869
4.18 196.682 69.634
4.19 195.908 68.534
4.20 190.314 67.910
4.21 184.878 66.792
4.22 182.476 64.061
4.23 --undefined-- 60.510
4.24 --undefined-- 57.619
4.25 --undefined-- 55.829
4.26 --undefined-- 54.874
4.27 --undefined-- 52.990
4.28 --undefined-- 51.669
4.29 --undefined-- 51.126
4.30 --undefined-- 50.231
4.31 --undefined-- 52.338
4.32 --undefined-- 54.449
4.33 --undefined-- 53.780
4.34 --undefined-- 51.886
4.35 --undefined-- 52.962
4.36 --undefined-- 55.043
4.37 --undefined-- 55.607
4.38 --undefined-- 57.026
4.39 --undefined-- 58.364
4.40 --undefined-- 57.677
4.41 --undefined-- 57.103
4.42 --undefined-- 58.870
4.43 --undefined-- 60.815
4.44 --undefined-- 61.707
4.45 --undefined-- 62.676
4.46 --undefined-- 62.320
4.47 --undefined-- 59.902
4.48 --undefined-- 56.921
4.49 --undefined-- 56.247
4.50 --undefined-- 60.005
4.51 --undefined-- 62.794
4.52 --undefined-- 63.060
4.53 278.675 63.275
4.54 267.562 65.159
4.55 268.462 65.086
4.56 234.383 62.177
4.57 --undefined-- 58.802
4.58 --undefined-- 60.720
4.59 --undefined-- 63.499
4.60 --undefined-- 64.382
4.61 --undefined-- 63.422
4.62 --undefined-- 62.604
4.63 285.322 64.649
4.64 261.841 66.683
4.65 247.983 67.356
4.66 244.172 67.512
4.67 247.480 67.872
4.68 251.653 68.587
4.69 256.103 69.399
4.70 257.022 69.767
4.71 254.721 69.956
4.72 250.286 70.892
4.73 246.696 72.204
4.74 239.972 73.274
4.75 232.350 73.774
4.76 221.768 73.845
4.77 216.455 73.926
4.78 210.773 73.681
4.79 205.886 72.646
4.80 201.406 71.078
4.81 199.321 69.763
4.82 199.191 69.391
4.83 200.633 69.961
4.84 200.410 70.364
4.85 199.836 69.986
4.86 198.692 69.187
4.87 197.062 68.590
4.88 195.742 68.176
4.89 197.394 68.619
4.90 199.594 70.487
4.91 209.397 72.394
4.92 209.157 --undefined--
4.93 199.461 --undefined--
4.94 --undefined-- --undefined--
4.95 --undefined-- --undefined--
