Time Pitch Intensity
0.01 --undefined-- --undefined--
0.02 227.709 --undefined--
0.03 225.038 --undefined--
0.04 221.242 --undefined--
0.05 212.011 66.804
0.06 205.054 68.056
0.07 195.406 69.543
0.08 190.810 70.614
0.09 184.779 70.780
0.10 178.591 70.087
0.11 175.761 69.261
0.12 174.629 68.631
0.13 172.473 67.984
0.14 173.627 67.893
0.15 174.677 68.407
0.16 182.446 68.965
0.17 184.029 69.763
0.18 189.738 70.847
0.19 193.758 71.557
0.20 197.245 71.080
0.21 207.796 69.153
0.22 223.552 67.235
0.23 230.419 66.521
0.24 236.031 66.069
0.25 238.690 65.120
0.26 236.405 62.738
0.27 228.827 58.339
0.28 --undefined-- 52.694
0.29 --undefined-- 49.432
0.30 --undefined-- 49.173
0.31 --undefined-- 49.465
0.32 --undefined-- 49.784
0.33 --undefined-- 49.525
0.34 --undefined-- 51.545
0.35 --undefined-- 59.200
0.36 270.644 64.812
0.37 263.507 67.716
0.38 256.968 69.118
0.39 254.463 69.814
0.40 252.936 69.965
0.41 252.297 70.121
0.42 252.633 70.675
0.43 252.133 71.195
0.44 250.876 71.420
0.45 249.690 71.291
0.46 248.606 70.838
0.47 247.628 70.162
0.48 247.611 69.367
0.49 247.955 68.455
0.50 248.543 67.690
0.51 247.225 67.464
0.52 244.683 67.237
0.53 243.797 66.176
0.54 238.288 64.244
0.55 221.563 61.882
0.56 197.337 59.908
0.57 186.304 59.359
0.58 176.649 60.219
0.59 174.819 61.739
0.60 175.019 63.584
0.61 174.434 65.483
0.62 171.138 66.803
0.63 167.504 67.084
0.64 165.560 66.586
0.65 163.766 66.257
0.66 162.937 66.129
0.67 162.638 65.542
0.68 163.026 64.310
0.69 163.607 62.588
0.70 162.974 61.178
0.71 161.416 60.607
0.72 160.536 60.437
0.73 163.016 60.398
0.74 163.911 60.539
0.75 167.425 61.016
0.76 171.503 61.743
0.77 176.255 62.880
0.78 184.008 64.445
0.79 192.346 66.021
0.80 196.732 66.945
0.81 199.831 67.200
0.82 202.526 67.251
0.83 204.894 67.576
0.84 207.586 67.998
0.85 211.291 68.205
0.86 214.895 68.445
0.87 217.447 68.686
0.88 219.740 68.734
0.89 220.956 68.700
0.90 221.363 68.651
0.91 221.710 68.505
0.92 222.983 68.293
0.93 224.050 68.139
0.94 226.597 67.987
0.95 229.695 67.429
0.96 231.529 66.062
0.97 231.461 63.770
0.98 225.481 60.574
0.99 --undefined-- 56.493
1.00 --undefined-- 51.798
1.01 --undefined-- 49.411
1.02 --undefined-- 50.005
1.03 --undefined-- 50.866
1.04 --undefined-- 54.433
1.05 --undefined-- 60.585
1.06 293.101 64.735
1.07 287.086 66.608
1.08 289.148 67.241
1.09 293.738 67.439
1.10 296.292 67.411
1.11 296.369 67.249
1.12 295.893 66.983
1.13 295.377 66.808
1.14 293.444 66.916
1.15 289.076 67.047
1.16 283.849 67.014
1.17 277.201 66.741
1.18 268.568 66.144
1.19 254.345 65.657
1.20 239.590 66.093
1.21 225.532 66.973
1.22 209.752 67.524
1.23 202.417 67.650
1.24 198.144 67.190
1.25 197.380 66.293
1.26 206.713 65.442
1.27 210.665 65.319
1.28 217.215 65.745
1.29 218.303 66.237
1.30 219.068 66.468
1.31 217.479 66.239
1.32 214.094 65.416
1.33 206.761 63.930
1.34 196.338 62.389
1.35 189.742 63.049
1.36 187.310 65.376
1.37 183.913 66.833
1.38 177.308 66.729
1.39 166.553 65.437
1.40 156.942 63.953
1.41 151.044 62.728
1.42 147.901 61.966
1.43 142.989 61.643
1.44 147.198 61.401
1.45 150.942 61.294
1.46 153.544 61.311
1.47 156.605 61.401
1.48 157.796 60.996
1.49 156.428 59.428
1.50 152.571 56.533
1.51 153.222 53.700
1.52 --undefined-- 51.776
1.53 --undefined-- 49.275
1.54 --undefined-- 47.227
1.55 --undefined-- 46.004
1.56 --undefined-- 46.191
1.57 --undefined-- 53.842
1.58 --undefined-- 61.816
1.59 238.390 66.632
1.60 233.773 68.695
1.61 231.348 69.317
1.62 232.090 69.681
1.63 233.675 70.183
1.64 235.104 70.995
1.65 236.386 71.922
1.66 237.341 72.259
1.67 241.416 71.408
1.68 247.792 69.419
1.69 246.870 67.305
1.70 241.307 66.174
1.71 237.113 65.449
1.72 230.075 64.764
1.73 221.746 64.470
1.74 212.323 64.446
1.75 201.715 64.325
1.76 190.767 63.995
1.77 183.087 63.756
1.78 178.743 63.603
1.79 172.538 62.950
1.80 165.956 61.788
1.81 162.226 60.595
1.82 159.211 59.720
1.83 156.333 59.724
1.84 156.518 60.330
1.85 156.682 60.754
1.86 156.084 60.841
1.87 156.273 60.774
1.88 155.675 60.128
1.89 150.534 58.155
1.90 147.933 55.395
1.91 --undefined-- 55.069
1.92 --undefined-- 55.427
1.93 --undefined-- 56.465
1.94 --undefined-- 60.760
1.95 191.851 65.157
1.96 185.898 68.453
1.97 182.195 70.728
1.98 180.751 72.198
1.99 178.580 73.268
2.00 177.830 73.975
2.01 178.688 74.180
2.02 179.986 74.172
2.03 181.200 74.396
2.04 182.800 75.022
2.05 183.187 75.440
2.06 184.037 74.862
2.07 186.586 73.434
2.08 188.486 72.347
2.09 189.922 72.061
2.10 191.997 71.625
2.11 193.802 70.866
2.12 194.406 70.369
2.13 194.310 69.927
2.14 194.280 68.601
2.15 193.529 65.647
2.16 193.147 60.874
2.17 194.783 55.620
2.18 --undefined-- 54.532
2.19 --undefined-- 55.271
2.20 --undefined-- 54.115
2.21 --undefined-- 51.735
2.22 --undefined-- 49.864
2.23 --undefined-- 49.394
2.24 --undefined-- 53.928
2.25 --undefined-- 57.852
2.26 --undefined-- 58.299
2.27 --undefined-- 55.437
2.28 --undefined-- 51.377
2.29 --undefined-- 50.483
2.30 --undefined-- 51.260
2.31 --undefined-- 54.074
2.32 --undefined-- 56.602
2.33 --undefined-- 56.328
2.34 --undefined-- 54.201
2.35 --undefined-- 52.706
2.36 --undefined-- 50.764
2.37 --undefined-- 49.106
2.38 --undefined-- 50.027
2.39 --undefined-- 51.161
2.40 --undefined-- 52.000
2.41 --undefined-- 52.590
2.42 --undefined-- 53.425
2.43 --undefined-- 55.229
2.44 --undefined-- 54.965
2.45 --undefined-- 51.858
2.46 --undefined-- 50.603
2.47 --undefined-- 53.096
2.48 --undefined-- 54.233
2.49 --undefined-- 54.078
2.50 --undefined-- 59.046
2.51 298.843 65.356
2.52 290.414 69.135
2.53 288.669 71.118
2.54 287.518 72.051
2.55 286.815 72.386
2.56 288.713 72.552
2.57 289.384 72.631
2.58 289.679 72.596
2.59 289.949 72.531
2.60 289.469 72.440
2.61 288.655 72.261
2.62 286.776 71.998
2.63 283.387 71.736
2.64 280.002 71.259
2.65 276.014 69.733
2.66 266.336 66.274
2.67 240.889 60.820
2.68 248.031 55.570
2.69 --undefined-- 54.184
2.70 --undefined-- 54.797
2.71 --undefined-- 58.000
2.72 --undefined-- 63.415
2.73 233.949 67.495
2.74 225.902 70.048
2.75 214.474 71.254
2.76 203.749 71.715
2.77 197.325 72.178
2.78 193.650 72.791
2.79 191.770 73.168
2.80 190.405 72.978
2.81 190.019 72.349
2.82 190.370 72.007
2.83 191.457 72.405
2.84 194.276 72.937
2.85 195.429 72.849
2.86 194.164 72.183
2.87 192.744 71.527
2.88 192.438 71.048
2.89 191.806 70.365
2.90 190.372 68.876
2.91 188.450 65.832
2.92 191.686 61.054
2.93 191.329 56.784
2.94 191.897 56.154
2.95 209.240 59.250
2.96 210.872 63.735
2.97 190.114 66.736
2.98 180.422 68.145
2.99 173.479 68.486
3.00 170.526 68.252
3.01 170.248 67.998
3.02 170.528 67.793
3.03 170.186 67.203
3.04 169.776 66.264
3.05 170.644 65.265
3.06 172.156 64.438
3.07 175.347 63.494
3.08 178.711 61.993
3.09 178.300 59.867
3.10 174.474 57.275
3.11 --undefined-- 56.151
3.12 --undefined-- 55.888
3.13 --undefined-- 55.454
3.14 --undefined-- 56.704
3.15 --undefined-- 56.868
3.16 235.229 58.476
3.17 199.571 63.471
3.18 193.804 67.619
3.19 190.195 70.222
3.20 190.175 71.261
3.21 190.465 70.688
3.22 189.619 68.471
3.23 185.646 64.594
3.24 184.649 59.572
3.25 183.904 56.860
3.26 191.342 55.518
3.27 --undefined-- 52.503
3.28 --undefined-- 51.740
3.29 --undefined-- 54.806
3.30 --undefined-- 57.109
3.31 --undefined-- 59.786
3.32 199.050 63.907
3.33 196.237 67.124
3.34 191.617 68.769
3.35 188.481 68.762
3.36 185.472 67.238
3.37 181.046 65.376
3.38 187.003 65.248
3.39 189.918 66.019
3.40 192.036 66.427
3.41 192.815 66.387
3.42 192.868 66.109
3.43 192.348 65.879
3.44 191.203 65.720
3.45 190.171 65.482
3.46 188.971 65.309
3.47 190.344 65.297
3.48 193.226 65.084
3.49 195.751 64.331
3.50 198.203 62.839
3.51 194.613 60.504
3.52 186.336 57.405
3.53 --undefined-- 57.311
3.54 --undefined-- 62.763
3.55 238.548 66.909
3.56 234.690 69.304
3.57 233.406 70.583
3.58 234.038 71.018
3.59 235.705 70.882
3.60 236.988 70.472
3.61 237.773 69.713
3.62 236.973 68.361
3.63 235.535 66.859
3.64 233.628 66.242
3.65 229.289 66.117
3.66 222.488 65.925
3.67 214.456 65.802
3.68 207.316 65.810
3.69 199.046 66.146
3.70 183.640 67.199
3.71 177.251 68.231
3.72 168.293 68.308
3.73 164.002 67.366
3.74 163.145 65.859
3.75 161.312 64.246
3.76 158.726 62.852
3.77 156.361 62.279
3.78 155.802 62.675
3.79 155.921 63.169
3.80 155.547 63.388
3.81 156.422 63.395
3.82 158.304 63.137
3.83 160.001 62.574
3.84 163.403 61.444
3.85 165.486 59.107
3.86 165.043 55.288
3.87 --undefined-- 52.411
3.88 --undefined-- 55.214
3.89 --undefined-- 58.742
3.90 202.111 60.895
3.91 192.096 61.631
3.92 187.170 61.724
3.93 176.948 62.677
3.94 168.247 64.249
3.95 164.599 65.223
3.96 160.662 65.730
3.97 157.519 66.618
3.98 157.160 67.741
3.99 156.437 68.533
4.00 154.708 68.710
4.01 151.124 68.193
4.02 150.398 67.475
4.03 150.504 67.054
4.04 150.141 66.658
4.05 150.593 66.474
4.06 150.769 66.732
4.07 151.445 67.100
4.08 153.265 67.248
4.09 153.644 67.037
4.10 153.696 66.638
4.11 153.952 66.303
4.12 154.507 65.866
4.13 154.764 65.034
4.14 154.170 63.637
4.15 160.121 61.809
4.16 159.757 59.554
4.17 153.814 56.698
4.18 --undefined-- 53.925
4.19 --undefined-- 51.781
4.20 --undefined-- 48.293
4.21 --undefined-- 45.896
4.22 --undefined-- 47.701
4.23 --undefined-- 49.754
4.24 --undefined-- 51.657
4.25 --undefined-- 52.356
4.26 --undefined-- 50.932
4.27 --undefined-- 48.848
4.28 --undefined-- 49.777
4.29 --undefined-- 51.546
4.30 --undefined-- 50.626
4.31 --undefined-- 46.883
4.32 --undefined-- 44.630
4.33 --undefined-- 46.835
4.34 --undefined-- 49.781
4.35 --undefined-- 51.766
4.36 --undefined-- 52.313
4.37 --undefined-- 52.952
4.38 --undefined-- 53.327
4.39 --undefined-- 52.099
4.40 --undefined-- 50.190
4.41 --undefined-- 49.368
4.42 --undefined-- 50.246
4.43 --undefined-- 50.743
4.44 --undefined-- 49.907
4.45 --undefined-- 49.562
4.46 --undefined-- 49.150
4.47 --undefined-- 49.018
4.48 --undefined-- 51.009
4.49 --undefined-- 52.693
4.50 --undefined-- 52.728
4.51 --undefined-- 50.856
4.52 --undefined-- 47.998
4.53 --undefined-- 47.895
4.54 --undefined-- 47.408
4.55 --undefined-- 45.645
4.56 --undefined-- 48.625
4.57 --undefined-- 52.669
4.58 --undefined-- 58.451
4.59 176.978 65.461
4.60 173.734 70.049
4.61 175.841 72.267
4.62 179.706 73.394
4.63 180.996 74.369
4.64 181.357 75.356
4.65 181.766 76.116
4.66 183.398 76.710
4.67 186.246 77.342
4.68 189.263 77.905
4.69 191.787 77.891
4.70 193.053 77.045
4.71 191.859 75.286
4.72 188.099 72.233
4.73 183.820 67.236
4.74 180.831 60.235
4.75 186.270 55.356
4.76 189.021 53.585
4.77 --undefined-- 50.917
4.78 --undefined-- 49.308
4.79 --undefined-- 49.269
4.80 --undefined-- 50.708
4.81 --undefined-- 52.642
4.82 --undefined-- 53.801
4.83 --undefined-- 55.432
4.84 222.229 59.717
4.85 223.522 63.579
4.86 222.695 65.488
4.87 209.866 66.201
4.88 200.755 66.711
4.89 191.067 67.414
4.90 187.135 68.029
4.91 182.336 67.869
4.92 176.569 66.682
4.93 174.570 65.091
4.94 175.193 64.375
4.95 179.829 64.585
4.96 181.335 --undefined--
4.97 180.489 --undefined--
4.98 --undefined-- --undefined--
4.99 --undefined-- --undefined--
