Time Pitch Intensity
0.01 --undefined-- --undefined--
0.02 115.434 --undefined--
0.03 113.333 --undefined--
0.04 114.683 --undefined--
0.05 --undefined-- 65.368
0.06 --undefined-- 71.139
0.07 161.033 74.470
0.08 154.867 75.494
0.09 151.600 75.661
0.10 149.889 75.723
0.11 148.190 75.338
0.12 147.470 74.759
0.13 148.046 74.511
0.14 148.684 74.544
0.15 148.522 74.688
0.16 148.236 74.571
0.17 147.006 73.381
0.18 136.244 70.424
0.19 134.639 65.608
0.20 142.253 59.909
0.21 146.942 55.664
0.22 --undefined-- 58.737
0.23 --undefined-- 66.292
0.24 156.631 71.752
0.25 145.603 74.305
0.26 133.753 75.048
0.27 130.837 75.355
0.28 129.066 75.672
0.29 127.175 75.691
0.30 125.231 74.955
0.31 122.552 73.031
0.32 121.573 69.500
0.33 124.511 64.488
0.34 124.455 59.729
0.35 130.132 57.463
0.36 --undefined-- 56.064
0.37 --undefined-- 55.520
0.38 --undefined-- 56.439
0.39 --undefined-- 57.311
0.40 --undefined-- 57.952
0.41 --undefined-- 58.300
0.42 --undefined-- 58.439
0.43 --undefined-- 59.567
0.44 --undefined-- 61.159
0.45 --undefined-- 62.402
0.46 --undefined-- 63.216
0.47 --undefined-- 63.962
0.48 --undefined-- 67.134
0.49 173.777 71.573
0.50 157.960 74.006
0.51 156.620 74.721
0.52 148.973 74.815
0.53 146.554 74.511
0.54 143.087 74.007
0.55 140.871 73.994
0.56 139.807 74.337
0.57 139.271 74.525
0.58 140.074 74.628
0.59 140.790 74.917
0.60 140.747 75.140
0.61 140.519 74.661
0.62 139.220 73.422
0.63 142.868 72.730
0.64 146.401 73.123
0.65 147.458 73.772
0.66 147.627 74.518
0.67 146.994 75.158
0.68 145.492 75.370
0.69 143.214 75.156
0.70 139.962 74.577
0.71 135.611 73.301
0.72 128.957 71.184
0.73 124.539 69.179
0.74 119.593 68.510
0.75 115.729 69.203
0.76 113.883 70.805
0.77 112.145 72.553
0.78 110.722 73.944
0.79 109.843 74.897
0.80 110.102 75.471
0.81 110.899 75.766
0.82 112.001 75.801
0.83 111.981 75.353
0.84 111.346 74.327
0.85 116.646 73.994
0.86 123.781 75.317
0.87 129.503 76.530
0.88 132.236 76.691
0.89 135.277 76.297
0.90 138.671 75.952
0.91 141.973 75.658
0.92 144.915 74.940
0.93 143.590 72.919
0.94 144.187 68.620
0.95 139.063 61.807
0.96 141.115 56.521
0.97 139.681 55.279
0.98 142.072 54.051
0.99 --undefined-- 58.289
1.00 --undefined-- 66.538
1.01 --undefined-- 72.135
1.02 155.837 74.642
1.03 150.306 74.848
1.04 138.898 74.474
1.05 134.658 74.726
1.06 133.516 75.298
1.07 131.425 75.637
1.08 126.205 75.544
1.09 120.940 75.226
1.10 117.719 74.996
1.11 113.303 75.052
1.12 109.040 75.478
1.13 107.264 75.793
1.14 106.339 75.201
1.15 106.803 73.064
1.16 109.037 69.325
1.17 115.557 64.550
1.18 115.027 59.528
1.19 111.734 55.888
1.20 --undefined-- 57.423
1.21 --undefined-- 60.784
1.22 --undefined-- 64.879
1.23 --undefined-- 70.716
1.24 136.617 74.470
1.25 118.749 75.546
1.26 114.671 74.684
1.27 104.379 73.051
1.28 105.405 72.903
1.29 109.779 73.978
1.30 108.638 74.662
1.31 107.178 74.944
1.32 107.469 75.174
1.33 108.127 75.348
1.34 109.260 75.337
1.35 109.981 75.042
1.36 109.579 74.402
1.37 109.286 73.338
1.38 108.505 71.838
1.39 107.916 70.472
1.40 108.059 70.039
1.41 109.892 70.666
1.42 114.354 72.192
1.43 116.672 73.780
1.44 117.348 74.635
1.45 116.113 74.706
1.46 115.376 74.382
1.47 115.646 73.958
1.48 116.488 73.131
1.49 113.034 71.222
1.50 104.236 68.149
1.51 107.030 64.872
1.52 114.644 61.243
1.53 117.316 56.990
1.54 117.540 56.997
1.55 --undefined-- 64.748
1.56 --undefined-- 71.041
1.57 --undefined-- 74.233
1.58 123.703 75.480
1.59 122.226 76.299
1.60 120.187 76.823
1.61 118.693 76.558
1.62 117.043 75.739
1.63 116.344 75.532
1.64 115.662 75.846
1.65 114.304 75.457
1.66 116.343 74.202
1.67 117.958 72.805
1.68 116.909 71.485
1.69 115.674 70.009
1.70 115.066 68.830
1.71 117.378 69.016
1.72 128.354 71.252
1.73 135.684 73.938
1.74 141.293 75.656
1.75 134.808 76.456
1.76 133.078 76.677
1.77 131.712 76.268
1.78 130.140 75.562
1.79 129.299 75.048
1.80 128.141 74.498
1.81 125.568 73.783
1.82 127.040 73.843
1.83 130.193 74.595
1.84 130.534 75.128
1.85 129.938 75.423
1.86 129.401 75.605
1.87 128.693 75.638
1.88 128.157 75.442
1.89 128.063 74.985
1.90 127.543 74.387
1.91 127.460 73.815
1.92 127.126 73.173
1.93 124.950 72.189
1.94 123.270 70.441
1.95 121.694 67.563
1.96 --undefined-- 64.280
1.97 --undefined-- 63.254
1.98 --undefined-- 63.345
1.99 --undefined-- 63.131
2.00 --undefined-- 64.222
2.01 --undefined-- 66.164
2.02 --undefined-- 67.419
2.03 --undefined-- 70.555
2.04 142.851 74.005
2.05 127.633 75.616
2.06 122.750 75.983
2.07 117.892 75.806
2.08 114.411 75.574
2.09 112.284 75.330
2.10 110.165 74.705
2.11 106.535 74.039
2.12 106.190 73.660
2.13 106.324 73.206
2.14 106.985 72.543
2.15 105.717 71.201
2.16 101.519 68.584
2.17 100.030 64.720
2.18 109.292 59.984
2.19 --undefined-- 54.394
2.20 --undefined-- 49.605
2.21 --undefined-- 49.977
2.22 --undefined-- 51.194
2.23 --undefined-- 51.748
2.24 --undefined-- 55.340
2.25 --undefined-- 63.105
2.26 --undefined-- 69.066
2.27 129.581 72.439
2.28 128.074 73.961
2.29 127.143 74.576
2.30 127.654 75.114
2.31 132.059 75.836
2.32 138.575 76.499
2.33 145.296 76.802
2.34 138.770 76.796
2.35 140.035 76.691
2.36 143.037 76.459
2.37 143.895 76.126
2.38 144.496 75.877
2.39 144.311 75.372
2.40 --undefined-- 73.736
2.41 --undefined-- 70.034
2.42 144.104 64.077
2.43 143.754 58.394
2.44 138.366 56.351
2.45 132.594 55.439
2.46 130.597 54.566
2.47 --undefined-- 54.882
2.48 --undefined-- 55.567
2.49 --undefined-- 54.698
2.50 --undefined-- 53.350
2.51 --undefined-- 55.039
2.52 --undefined-- 57.108
2.53 --undefined-- 56.739
2.54 --undefined-- 53.326
2.55 --undefined-- 48.064
2.56 --undefined-- 44.996
2.57 --undefined-- 43.317
2.58 --undefined-- 43.662
2.59 --undefined-- 47.983
2.60 --undefined-- 51.983
2.61 --undefined-- 58.132
2.62 --undefined-- 66.261
2.63 142.880 71.303
2.64 136.546 73.479
2.65 134.724 74.369
2.66 135.941 75.163
2.67 136.421 75.710
2.68 137.381 75.917
2.69 139.352 76.051
2.70 141.569 76.189
2.71 140.568 76.029
2.72 139.073 75.596
2.73 136.297 75.378
2.74 132.764 75.435
2.75 130.456 75.635
2.76 128.221 75.762
2.77 126.577 75.721
2.78 124.637 75.543
2.79 124.837 75.297
2.80 124.142 74.516
2.81 123.343 72.865
2.82 122.439 71.760
2.83 122.006 73.444
2.84 124.141 75.915
2.85 124.123 77.223
2.86 122.479 77.464
2.87 120.907 76.962
2.88 119.856 75.832
2.89 119.457 74.553
2.90 119.433 73.965
2.91 119.629 73.804
2.92 120.052 73.076
2.93 113.136 71.165
2.94 111.650 68.473
2.95 110.996 67.399
2.96 132.058 69.318
2.97 127.791 71.962
2.98 126.036 73.452
2.99 117.953 73.725
3.00 114.823 73.771
3.01 111.522 73.966
3.02 109.862 74.069
3.03 108.387 74.061
3.04 106.536 74.082
3.05 106.008 74.328
3.06 107.006 74.711
3.07 108.019 75.112
3.08 108.744 75.609
3.09 108.350 76.007
3.10 107.268 75.980
3.11 108.587 75.668
3.12 110.146 75.431
3.13 112.553 75.265
3.14 114.129 75.121
3.15 115.126 75.514
3.16 116.185 76.198
3.17 117.889 76.627
3.18 119.513 76.944
3.19 120.396 76.954
3.20 120.721 76.431
3.21 122.708 76.298
3.22 126.108 76.971
3.23 128.393 77.283
3.24 128.248 76.806
3.25 126.584 76.195
3.26 124.630 76.015
3.27 124.007 76.113
3.28 124.171 76.086
3.29 124.058 75.772
3.30 123.142 75.431
3.31 122.840 75.154
3.32 123.050 74.447
3.33 124.899 73.125
3.34 127.602 71.815
3.35 131.800 72.737
3.36 140.296 75.233
3.37 143.442 76.544
3.38 145.914 76.799
3.39 148.348 76.685
3.40 150.868 76.232
3.41 154.027 75.477
3.42 156.799 74.817
3.43 157.693 74.368
3.44 155.077 73.995
3.45 153.167 73.965
3.46 154.826 74.414
3.47 155.415 75.104
3.48 155.545 75.728
3.49 154.877 76.027
3.50 153.549 75.903
3.51 153.644 75.563
3.52 154.997 75.441
3.53 155.120 75.571
3.54 155.525 75.636
3.55 156.290 75.498
3.56 157.420 75.045
3.57 157.583 73.939
3.58 155.084 72.733
3.59 159.490 73.098
3.60 158.630 74.167
3.61 154.682 74.922
3.62 152.998 75.241
3.63 148.120 75.204
3.64 143.217 74.992
3.65 140.741 74.830
3.66 137.944 74.807
3.67 135.376 74.852
3.68 133.818 74.668
3.69 132.250 74.101
3.70 128.267 73.454
3.71 127.953 73.158
3.72 127.578 72.813
3.73 124.407 71.678
3.74 121.252 69.491
3.75 118.084 66.123
3.76 105.065 61.445
3.77 --undefined-- 57.223
3.78 --undefined-- 58.136
3.79 --undefined-- 61.741
3.80 166.696 67.333
3.81 152.137 71.810
3.82 140.126 74.080
3.83 135.056 74.820
3.84 133.505 74.780
3.85 132.437 74.232
3.86 130.120 73.967
3.87 135.198 74.516
3.88 135.185 74.748
3.89 133.945 74.073
3.90 130.962 72.431
3.91 126.765 71.157
3.92 151.340 73.302
3.93 153.493 75.601
3.94 149.562 75.981
3.95 148.545 75.659
3.96 154.308 75.820
3.97 159.343 75.782
3.98 160.799 74.764
3.99 162.610 72.201
4.00 164.001 67.724
4.01 162.933 61.993
4.02 158.895 57.276
4.03 159.229 55.181
4.04 160.161 53.720
4.05 --undefined-- 52.149
4.06 --undefined-- 56.839
4.07 --undefined-- 62.352
4.08 --undefined-- 64.593
4.09 --undefined-- 68.413
4.10 --undefined-- 73.474
4.11 156.654 75.808
4.12 145.346 76.066
4.13 139.170 75.746
4.14 135.115 75.522
4.15 133.705 75.042
4.16 132.085 73.675
4.17 129.035 70.788
4.18 135.094 65.905
4.19 134.839 60.238
4.20 133.779 56.430
4.21 133.611 54.075
4.22 132.492 51.589
4.23 --undefined-- 48.666
4.24 --undefined-- 45.434
4.25 --undefined-- 43.856
4.26 --undefined-- 45.224
4.27 --undefined-- 46.644
4.28 --undefined-- 46.639
4.29 --undefined-- 49.622
4.30 --undefined-- 58.128
4.31 --undefined-- 66.088
4.32 168.378 71.979
4.33 153.677 75.340
4.34 150.567 76.443
4.35 143.047 76.347
4.36 138.425 76.225
4.37 135.890 76.144
4.38 134.179 76.097
4.39 133.015 75.965
4.40 132.380 75.346
4.41 131.482 73.430
4.42 128.139 69.323
4.43 132.756 63.010
4.44 132.853 58.188
4.45 133.382 55.301
4.46 132.627 53.031
4.47 --undefined-- 56.025
4.48 --undefined-- 63.070
4.49 130.064 68.771
4.50 141.820 72.418
4.51 146.481 74.221
4.52 147.966 74.577
4.53 149.579 74.605
4.54 152.606 75.398
4.55 153.337 76.151
4.56 154.759 76.383
4.57 155.930 76.442
4.58 156.282 76.458
4.59 156.205 76.339
4.60 155.275 76.139
4.61 153.090 75.924
4.62 149.898 75.140
4.63 147.256 72.866
4.64 132.131 68.985
4.65 136.341 66.914
4.66 137.514 68.444
4.67 133.621 70.486
4.68 130.860 72.219
4.69 127.324 73.692
4.70 112.423 74.437
4.71 106.273 74.379
4.72 113.200 74.099
4.73 111.466 73.703
4.74 109.456 73.301
4.75 110.009 73.173
4.76 112.038 73.365
4.77 113.104 73.689
4.78 114.182 73.976
4.79 115.032 74.174
4.80 117.080 74.341
4.81 118.770 74.477
4.82 119.411 74.436
4.83 120.263 74.085
4.84 120.820 73.250
4.85 120.213 71.458
4.86 116.527 68.390
4.87 113.533 64.728
4.88 113.698 62.137
4.89 114.202 60.434
4.90 119.037 62.613
4.91 --undefined-- 68.296
4.92 168.010 72.976
4.93 166.622 75.346
4.94 154.791 75.659
4.95 153.109 75.276
4.96 153.328 75.175
4.97 153.888 75.295
4.98 154.746 75.366
4.99 155.399 75.388
5.00 155.619 75.533
5.01 156.110 --undefined--
5.02 155.970 --undefined--
5.03 --undefined-- --undefined--
5.04 --undefined-- --undefined--
