Time Pitch Intensity
0.01 --undefined-- --undefined--
0.02 --undefined-- --undefined--
0.03 --undefined-- --undefined--
0.04 --undefined-- --undefined--
0.05 --undefined-- 48.517
0.06 --undefined-- 50.428
0.07 --undefined-- 51.184
0.08 --undefined-- 51.748
0.09 --undefined-- 52.559
0.10 --undefined-- 54.117
0.11 195.341 57.233
0.12 191.583 59.520
0.13 180.447 60.667
0.14 179.206 61.050
0.15 178.378 60.974
0.16 178.093 60.875
0.17 178.187 60.841
0.18 177.959 60.872
0.19 179.722 61.059
0.20 182.662 61.306
0.21 186.229 61.510
0.22 190.160 61.614
0.23 194.547 61.443
0.24 199.219 60.826
0.25 203.838 59.847
0.26 205.473 58.540
0.27 204.598 56.191
0.28 --undefined-- 51.947
0.29 --undefined-- 46.660
0.30 --undefined-- 43.614
0.31 --undefined-- 43.716
0.32 --undefined-- 45.003
0.33 --undefined-- 45.844
0.34 --undefined-- 49.557
0.35 --undefined-- 54.541
0.36 --undefined-- 60.628
0.37 265.860 66.682
0.38 269.975 70.932
0.39 269.286 73.192
0.40 265.936 73.742
0.41 264.663 72.692
0.42 265.405 70.425
0.43 267.234 68.215
0.44 269.354 66.751
0.45 273.267 65.943
0.46 274.577 65.838
0.47 273.959 66.007
0.48 273.655 66.143
0.49 273.073 66.131
0.50 272.065 65.896
0.51 270.250 65.365
0.52 267.708 64.693
0.53 264.378 64.284
0.54 260.723 64.301
0.55 256.674 64.521
0.56 251.411 64.712
0.57 242.268 64.888
0.58 233.617 65.192
0.59 223.715 65.484
0.60 212.579 65.715
0.61 196.867 66.123
0.62 183.643 66.216
0.63 173.308 65.167
0.64 --undefined-- 63.166
0.65 --undefined-- 60.379
0.66 --undefined-- 56.470
0.67 --undefined-- 52.042
0.68 --undefined-- 48.042
0.69 --undefined-- 46.967
0.70 --undefined-- 48.274
0.71 --undefined-- 47.417
0.72 --undefined-- 46.251
0.73 --undefined-- 48.800
0.74 --undefined-- 51.639
0.75 --undefined-- 53.488
0.76 --undefined-- 55.372
0.77 --undefined-- 57.285
0.78 --undefined-- 58.496
0.79 187.085 58.791
0.80 185.269 59.405
0.81 175.048 60.580
0.82 174.143 61.078
0.83 171.423 61.051
0.84 168.052 61.146
0.85 165.359 61.324
0.86 162.672 61.436
0.87 160.930 61.316
0.88 160.220 60.679
0.89 159.902 59.697
0.90 162.352 59.297
0.91 166.279 59.704
0.92 169.943 59.419
0.93 171.717 58.049
0.94 172.654 57.000
0.95 --undefined-- 56.842
0.96 --undefined-- 57.397
0.97 272.208 60.110
0.98 271.808 64.401
0.99 270.526 67.269
1.00 272.747 68.380
1.01 272.890 67.594
1.02 272.242 64.482
1.03 269.227 59.834
1.04 269.055 57.832
1.05 291.276 61.939
1.06 290.524 66.085
1.07 281.065 68.121
1.08 268.896 68.585
1.09 248.848 68.037
1.10 235.299 66.506
1.11 222.304 63.629
1.12 --undefined-- 59.308
1.13 --undefined-- 53.991
1.14 --undefined-- 48.748
1.15 --undefined-- 47.947
1.16 --undefined-- 51.437
1.17 217.242 55.836
1.18 212.183 58.697
1.19 212.048 59.978
1.20 206.055 61.113
1.21 184.995 62.126
1.22 174.518 62.228
1.23 163.864 61.392
1.24 155.375 60.057
1.25 155.449 59.453
1.26 163.760 59.299
1.27 166.294 58.435
1.28 170.177 57.863
1.29 175.980 58.089
1.30 181.392 57.961
1.31 187.736 58.199
1.32 196.746 59.800
1.33 204.581 61.014
1.34 201.221 62.308
1.35 196.001 65.966
1.36 193.585 69.602
1.37 85.016 71.489
1.38 85.265 71.655
1.39 --undefined-- 70.733
1.40 --undefined-- 69.015
1.41 76.109 66.560
1.42 75.822 65.364
1.43 83.146 66.189
1.44 --undefined-- 66.878
1.45 --undefined-- 66.969
1.46 --undefined-- 66.629
1.47 --undefined-- 66.673
1.48 250.996 67.950
1.49 259.048 70.319
1.50 277.298 72.587
1.51 289.575 74.122
1.52 295.065 74.735
1.53 150.643 74.320
1.54 150.491 73.232
1.55 293.508 72.123
1.56 283.104 71.018
1.57 267.625 69.643
1.58 --undefined-- 68.459
1.59 --undefined-- 67.926
1.60 --undefined-- 67.324
1.61 --undefined-- 66.015
1.62 163.571 64.789
1.63 169.913 63.171
1.64 178.071 59.880
1.65 --undefined-- 55.159
1.66 --undefined-- 52.633
1.67 --undefined-- 52.369
1.68 --undefined-- 53.119
1.69 --undefined-- 55.399
1.70 --undefined-- 55.467
1.71 --undefined-- 54.916
1.72 --undefined-- 55.690
1.73 215.529 55.862
1.74 217.940 55.866
1.75 218.671 55.567
1.76 221.960 56.587
1.77 238.965 59.686
1.78 226.559 63.284
1.79 213.311 66.095
1.80 203.158 67.783
1.81 200.621 68.451
1.82 200.370 68.407
1.83 200.439 68.183
1.84 201.846 67.759
1.85 203.960 67.127
1.86 204.133 66.779
1.87 204.363 66.126
1.88 205.704 65.053
1.89 204.993 63.936
1.90 203.710 61.844
1.91 203.883 58.178
1.92 204.343 54.042
1.93 203.242 50.496
1.94 --undefined-- 48.545
1.95 --undefined-- 49.599
1.96 --undefined-- 50.144
1.97 --undefined-- 50.043
1.98 --undefined-- 52.010
1.99 --undefined-- 53.831
2.00 234.896 56.376
2.01 248.321 60.436
2.02 263.575 63.489
2.03 273.662 65.233
2.04 274.881 65.979
2.05 273.588 66.515
2.06 272.886 67.848
2.07 273.439 69.344
2.08 274.189 71.051
2.09 275.581 72.352
2.10 274.818 72.267
2.11 271.422 71.500
2.12 267.092 70.895
2.13 261.440 70.023
2.14 255.451 68.542
2.15 250.603 66.807
2.16 246.165 65.404
2.17 243.923 64.851
2.18 244.462 66.054
2.19 255.405 68.596
2.20 260.956 70.096
2.21 263.045 70.108
2.22 271.057 69.723
2.23 280.638 69.433
2.24 292.700 69.420
2.25 150.658 70.112
2.26 150.914 70.968
2.27 291.774 71.439
2.28 279.606 70.628
2.29 265.209 67.480
2.30 280.341 62.024
2.31 285.783 56.763
2.32 282.838 53.949
2.33 286.410 51.922
2.34 --undefined-- 50.207
2.35 --undefined-- 50.193
2.36 --undefined-- 52.117
2.37 --undefined-- 52.572
2.38 --undefined-- 53.427
2.39 --undefined-- 55.643
2.40 282.453 58.793
2.41 282.253 62.815
2.42 286.066 65.812
2.43 293.085 67.454
2.44 297.688 68.179
2.45 151.631 68.537
2.46 152.548 68.694
2.47 151.987 68.607
2.48 151.996 68.739
2.49 153.562 69.325
2.50 153.500 69.908
2.51 152.676 70.248
2.52 151.706 70.289
2.53 151.046 70.125
2.54 150.312 69.886
2.55 298.547 69.599
2.56 296.920 69.265
2.57 294.733 68.719
2.58 291.959 67.485
2.59 287.215 64.847
2.60 275.183 60.267
2.61 269.392 54.636
2.62 --undefined-- 53.735
2.63 --undefined-- 58.493
2.64 263.285 63.126
2.65 262.490 66.046
2.66 264.263 67.703
2.67 265.233 68.876
2.68 264.763 69.805
2.69 264.817 70.379
2.70 266.251 70.769
2.71 268.022 71.031
2.72 269.898 70.879
2.73 270.686 70.328
2.74 269.696 69.480
2.75 267.057 68.494
2.76 263.361 67.980
2.77 259.612 68.130
2.78 255.055 68.257
2.79 252.758 67.583
2.80 245.571 66.026
2.81 231.038 64.294
2.82 214.896 63.308
2.83 202.297 63.401
2.84 191.130 64.121
2.85 183.969 65.000
2.86 180.517 65.512
2.87 175.451 65.804
2.88 173.334 66.674
2.89 172.608 67.543
2.90 170.767 67.570
2.91 169.206 66.897
2.92 167.419 66.095
2.93 166.684 65.516
2.94 166.834 65.237
2.95 167.265 65.254
2.96 168.063 65.259
2.97 168.929 64.999
2.98 171.437 64.620
2.99 172.809 64.190
3.00 173.685 63.606
3.01 174.183 63.012
3.02 173.276 62.654
3.03 172.913 62.418
3.04 174.195 62.048
3.05 177.208 61.445
3.06 181.696 60.549
3.07 185.906 59.013
3.08 184.665 56.798
3.09 179.562 55.255
3.10 179.294 54.999
3.11 187.646 54.865
3.12 188.108 55.522
3.13 210.196 57.311
3.14 216.103 59.335
3.15 205.196 61.198
3.16 188.698 62.621
3.17 182.884 63.639
3.18 180.532 64.579
3.19 178.291 65.324
3.20 175.275 65.395
3.21 173.438 64.846
3.22 174.171 64.274
3.23 173.588 64.113
3.24 171.939 64.205
3.25 170.864 64.276
3.26 171.009 64.179
3.27 170.924 63.416
3.28 163.375 61.278
3.29 161.093 57.619
3.30 165.687 53.116
3.31 --undefined-- 49.911
3.32 --undefined-- 48.623
3.33 --undefined-- 49.984
3.34 --undefined-- 57.535
3.35 --undefined-- 63.521
3.36 190.819 66.439
3.37 183.211 66.946
3.38 173.319 66.596
3.39 170.449 66.298
3.40 167.808 65.967
3.41 167.956 65.983
3.42 169.265 66.150
3.43 169.629 65.863
3.44 169.740 65.001
3.45 170.813 63.890
3.46 173.686 62.857
3.47 176.392 61.926
3.48 178.504 60.799
3.49 178.381 58.845
3.50 177.599 55.712
3.51 169.599 52.234
3.52 --undefined-- 50.961
3.53 --undefined-- 50.453
3.54 --undefined-- 48.270
3.55 --undefined-- 47.454
3.56 --undefined-- 49.283
3.57 --undefined-- 50.221
3.58 --undefined-- 51.250
3.59 --undefined-- 53.489
3.60 --undefined-- 53.411
3.61 --undefined-- 49.985
3.62 --undefined-- 49.501
3.63 --undefined-- 55.775
3.64 199.433 60.596
3.65 195.510 63.505
3.66 189.033 64.841
3.67 180.324 65.041
3.68 177.975 64.900
3.69 178.102 64.918
3.70 177.213 64.889
3.71 176.350 64.482
3.72 176.242 63.879
3.73 175.847 63.342
3.74 175.662 62.857
3.75 174.559 62.493
3.76 173.888 62.312
3.77 174.227 62.190
3.78 174.759 61.551
3.79 174.486 59.910
3.80 174.301 57.101
3.81 168.076 53.218
3.82 --undefined-- 50.211
3.83 --undefined-- 49.694
3.84 --undefined-- 48.846
3.85 --undefined-- 46.931
3.86 --undefined-- 45.240
3.87 --undefined-- 47.568
3.88 --undefined-- 53.443
3.89 --undefined-- 57.742
3.90 170.823 59.561
3.91 158.808 59.813
3.92 143.281 59.361
3.93 143.477 58.422
3.94 144.767 57.114
3.95 141.610 55.423
3.96 137.966 53.866
3.97 148.707 53.795
3.98 150.632 54.634
3.99 149.413 55.575
4.00 151.143 56.568
4.01 153.128 57.518
4.02 155.196 58.203
4.03 155.917 58.092
4.04 152.955 57.012
4.05 151.637 57.179
4.06 167.217 59.695
4.07 169.110 61.548
4.08 167.090 62.441
4.09 165.118 62.739
4.10 163.675 62.480
4.11 161.692 62.185
4.12 166.220 62.046
4.13 168.165 61.753
4.14 171.517 61.374
4.15 175.832 61.198
4.16 181.180 61.391
4.17 183.615 61.502
4.18 183.143 60.664
4.19 178.482 58.246
4.20 171.637 54.303
4.21 --undefined-- 50.384
4.22 --undefined-- 50.660
4.23 --undefined-- 55.990
4.24 --undefined-- 62.135
4.25 230.773 66.266
4.26 225.436 68.375
4.27 223.191 69.650
4.28 224.273 70.894
4.29 224.997 71.984
4.30 225.409 72.574
4.31 226.837 72.670
4.32 229.518 72.852
4.33 232.261 73.611
4.34 235.034 74.688
4.35 237.036 75.579
4.36 237.895 76.052
4.37 237.193 76.203
4.38 235.017 76.025
4.39 231.380 75.321
4.40 224.647 74.164
4.41 216.034 72.838
4.42 --undefined-- 70.827
4.43 --undefined-- 67.397
4.44 --undefined-- 62.977
4.45 --undefined-- 59.070
4.46 --undefined-- 56.194
4.47 --undefined-- 53.111
4.48 --undefined-- 52.154
4.49 --undefined-- 52.134
4.50 --undefined-- 51.382
4.51 --undefined-- 50.641
4.52 --undefined-- 50.877
4.53 --undefined-- 50.793
4.54 --undefined-- 49.026
4.55 --undefined-- 48.882
4.56 --undefined-- 51.748
4.57 --undefined-- 52.433
4.58 --undefined-- 49.812
4.59 --undefined-- 45.672
4.60 --undefined-- 43.129
4.61 --undefined-- 41.206
4.62 --undefined-- 42.592
4.63 --undefined-- 45.266
4.64 --undefined-- 47.499
4.65 --undefined-- 48.733
4.66 --undefined-- 48.748
4.67 --undefined-- 47.383
4.68 --undefined-- 44.748
4.69 --undefined-- 44.595
4.70 --undefined-- 47.183
4.71 --undefined-- 47.801
4.72 --undefined-- 46.074
4.73 --undefined-- 45.887
4.74 --undefined-- 48.012
4.75 --undefined-- 48.444
4.76 --undefined-- 47.950
4.77 --undefined-- 48.821
4.78 --undefined-- 49.540
4.79 --undefined-- 49.635
4.80 --undefined-- 49.837
4.81 --undefined-- 49.229
4.82 --undefined-- 47.602
4.83 --undefined-- 45.966
4.84 --undefined-- 45.428
4.85 --undefined-- 45.176
4.86 --undefined-- 44.300
4.87 --undefined-- 42.758
4.88 --undefined-- 40.779
4.89 --undefined-- 46.637
4.90 --undefined-- 54.943
4.91 283.538 60.481
4.92 270.198 63.449
4.93 266.762 65.136
4.94 270.330 66.366
4.95 270.519 66.921
4.96 264.565 66.508
4.97 254.302 65.603
4.98 245.632 65.289
4.99 233.817 65.312
5.00 221.019 64.902
5.01 208.132 64.473
5.02 197.641 64.255
5.03 187.636 64.033
5.04 180.627 64.068
5.05 177.601 --undefined--
5.06 173.585 --undefined--
5.07 --undefined-- --undefined--
5.08 --undefined-- --undefined--
