Time Pitch Intensity
0.01 --undefined-- --undefined--
0.02 111.736 --undefined--
0.03 111.389 --undefined--
0.04 111.168 --undefined--
0.05 111.037 55.187
0.06 111.107 55.405
0.07 110.187 56.347
0.08 110.206 57.425
0.09 109.735 58.174
0.10 109.247 58.146
0.11 106.832 56.926
0.12 109.020 55.805
0.13 110.807 56.760
0.14 112.903 58.342
0.15 114.460 59.354
0.16 114.550 60.009
0.17 114.107 61.782
0.18 112.634 65.130
0.19 111.683 67.780
0.20 110.834 69.113
0.21 110.136 69.605
0.22 108.606 69.443
0.23 108.812 68.609
0.24 109.602 67.295
0.25 108.530 64.911
0.26 --undefined-- 60.168
0.27 --undefined-- 52.165
0.28 --undefined-- 43.091
0.29 --undefined-- 39.502
0.30 --undefined-- 37.529
0.31 --undefined-- 40.304
0.32 --undefined-- 46.471
0.33 --undefined-- 49.557
0.34 --undefined-- 52.929
0.35 --undefined-- 57.922
0.36 118.102 61.530
0.37 117.311 63.800
0.38 114.944 64.909
0.39 113.429 65.225
0.40 112.242 65.606
0.41 111.840 66.487
0.42 111.460 67.516
0.43 111.027 68.157
0.44 110.533 68.166
0.45 110.235 67.598
0.46 109.860 66.591
0.47 109.246 65.122
0.48 109.595 64.150
0.49 111.576 65.520
0.50 112.985 67.995
0.51 114.199 69.713
0.52 114.709 70.057
0.53 113.380 69.413
0.54 112.156 68.783
0.55 110.964 68.401
0.56 109.690 67.948
0.57 108.894 67.521
0.58 108.623 67.209
0.59 107.040 66.586
0.60 102.659 64.702
0.61 102.423 60.582
0.62 101.506 53.870
0.63 --undefined-- 46.703
0.64 --undefined-- 43.499
0.65 --undefined-- 44.460
0.66 --undefined-- 47.817
0.67 --undefined-- 51.531
0.68 --undefined-- 56.219
0.69 --undefined-- 62.737
0.70 115.758 67.096
0.71 115.280 68.952
0.72 113.368 69.345
0.73 112.134 68.984
0.74 110.273 68.170
0.75 109.687 67.372
0.76 108.422 66.992
0.77 106.241 66.890
0.78 104.512 66.562
0.79 102.791 66.231
0.80 99.593 66.215
0.81 97.642 66.329
0.82 96.911 66.160
0.83 93.563 65.736
0.84 92.717 65.446
0.85 92.114 65.061
0.86 91.686 64.405
0.87 91.495 63.558
0.88 90.680 62.314
0.89 88.263 60.035
0.90 88.460 55.974
0.91 --undefined-- 49.775
0.92 --undefined-- 42.900
0.93 --undefined-- 39.024
0.94 --undefined-- 38.469
0.95 --undefined-- 43.825
0.96 --undefined-- 50.243
0.97 --undefined-- 55.526
0.98 --undefined-- 59.137
0.99 --undefined-- 60.186
1.00 --undefined-- 61.972
1.01 --undefined-- 66.631
1.02 --undefined-- 69.571
1.03 122.874 70.295
1.04 123.368 69.468
1.05 117.727 67.371
1.06 115.337 64.480
1.07 114.320 61.992
1.08 114.852 60.824
1.09 113.675 60.707
1.10 112.916 60.794
1.11 112.423 60.713
1.12 111.809 60.325
1.13 111.438 59.930
1.14 110.499 59.756
1.15 109.559 59.826
1.16 108.585 59.976
1.17 108.112 59.960
1.18 107.996 59.916
1.19 107.637 60.041
1.20 107.349 60.157
1.21 107.248 60.031
1.22 106.909 59.681
1.23 105.965 59.232
1.24 104.540 58.484
1.25 102.894 57.180
1.26 100.979 55.027
1.27 --undefined-- 51.550
1.28 --undefined-- 46.370
1.29 --undefined-- 42.992
1.30 --undefined-- 52.146
1.31 --undefined-- 58.789
1.32 --undefined-- 61.105
1.33 --undefined-- 60.792
1.34 --undefined-- 63.265
1.35 103.810 67.809
1.36 103.235 70.111
1.37 101.765 70.241
1.38 99.870 69.332
1.39 98.501 68.455
1.40 96.240 67.841
1.41 93.657 67.252
1.42 94.290 66.377
1.43 96.996 64.891
1.44 --undefined-- 62.110
1.45 --undefined-- 57.745
1.46 --undefined-- 53.741
1.47 --undefined-- 49.618
1.48 --undefined-- 44.024
1.49 --undefined-- 43.421
1.50 --undefined-- 45.038
1.51 --undefined-- 44.369
1.52 --undefined-- 42.844
1.53 --undefined-- 42.544
1.54 --undefined-- 43.003
1.55 --undefined-- 42.764
1.56 --undefined-- 40.634
1.57 --undefined-- 37.682
1.58 --undefined-- 36.440
1.59 --undefined-- 36.480
1.60 --undefined-- 36.753
1.61 --undefined-- 37.278
1.62 --undefined-- 37.588
1.63 --undefined-- 37.595
1.64 --undefined-- 37.880
1.65 --undefined-- 38.153
1.66 --undefined-- 37.818
1.67 --undefined-- 37.525
1.68 --undefined-- 37.598
1.69 --undefined-- 37.890
1.70 --undefined-- 39.395
1.71 --undefined-- 43.189
1.72 --undefined-- 47.833
1.73 --undefined-- 51.008
1.74 --undefined-- 53.283
1.75 --undefined-- 55.020
1.76 --undefined-- 56.176
1.77 --undefined-- 60.230
1.78 --undefined-- 64.611
1.79 --undefined-- 66.136
1.80 --undefined-- 65.365
1.81 --undefined-- 63.856
1.82 --undefined-- 62.524
1.83 77.741 61.194
1.84 77.870 59.743
1.85 78.120 57.138
1.86 77.684 53.151
1.87 78.526 49.846
1.88 76.903 48.942
1.89 76.724 48.908
1.90 75.132 48.645
1.91 75.233 48.446
1.92 76.205 48.626
1.93 76.558 48.902
1.94 78.960 49.637
1.95 79.212 52.145
1.96 79.124 54.834
1.97 79.293 55.354
1.98 79.538 54.160
1.99 81.395 53.599
2.00 80.893 54.324
2.01 80.730 54.787
2.02 80.157 54.957
2.03 81.845 56.637
2.04 83.218 59.857
2.05 83.136 62.419
2.06 82.284 63.773
2.07 83.197 64.757
2.08 83.635 65.359
2.09 83.923 65.684
2.10 84.124 66.026
2.11 82.180 65.709
2.12 82.213 64.992
2.13 80.785 64.070
2.14 81.684 62.465
2.15 81.940 60.606
2.16 82.267 59.162
2.17 82.846 58.016
2.18 85.134 57.259
2.19 86.764 58.256
2.20 91.529 60.942
2.21 91.308 63.603
2.22 91.153 65.752
2.23 90.760 67.477
2.24 89.332 68.387
2.25 85.705 68.284
2.26 83.933 67.793
2.27 82.866 67.486
2.28 83.535 67.771
2.29 83.959 68.175
2.30 84.843 67.958
2.31 88.396 67.593
2.32 89.722 67.131
2.33 91.043 66.423
2.34 92.328 65.382
2.35 94.299 64.020
2.36 96.188 62.960
2.37 96.213 61.693
2.38 95.798 59.057
2.39 95.669 54.651
2.40 --undefined-- 49.295
2.41 --undefined-- 44.820
2.42 --undefined-- 41.230
2.43 --undefined-- 38.776
2.44 --undefined-- 40.037
2.45 --undefined-- 48.315
2.46 --undefined-- 54.791
2.47 --undefined-- 58.182
2.48 --undefined-- 60.147
2.49 --undefined-- 61.283
2.50 --undefined-- 64.772
2.51 --undefined-- 68.607
2.52 112.609 70.425
2.53 111.374 70.982
2.54 109.412 70.998
2.55 106.382 70.529
2.56 104.183 69.730
2.57 102.012 68.866
2.58 101.014 68.000
2.59 99.995 67.351
2.60 99.208 66.889
2.61 99.723 66.268
2.62 100.462 65.589
2.63 101.655 65.089
2.64 103.406 64.502
2.65 102.887 63.122
2.66 101.720 60.137
2.67 100.752 55.539
2.68 100.109 52.305
2.69 99.089 51.708
2.70 98.192 51.268
2.71 97.055 50.706
2.72 96.604 50.328
2.73 95.508 49.847
2.74 92.915 48.645
2.75 --undefined-- 47.519
2.76 --undefined-- 52.471
2.77 --undefined-- 57.098
2.78 --undefined-- 57.900
2.79 --undefined-- 57.381
2.80 --undefined-- 59.046
2.81 90.484 60.295
2.82 89.949 60.175
2.83 83.452 58.733
2.84 81.931 55.809
2.85 84.352 51.314
2.86 --undefined-- 45.372
2.87 --undefined-- 39.363
2.88 --undefined-- 37.344
2.89 --undefined-- 38.695
2.90 --undefined-- 41.765
2.91 --undefined-- 44.240
2.92 --undefined-- 47.697
2.93 --undefined-- 52.014
2.94 --undefined-- 54.641
2.95 --undefined-- 55.491
2.96 --undefined-- 55.138
2.97 --undefined-- 54.792
2.98 --undefined-- 56.955
2.99 --undefined-- 59.698
3.00 97.639 60.449
3.01 97.328 58.866
3.02 96.653 55.101
3.03 --undefined-- 49.416
3.04 --undefined-- 42.673
3.05 --undefined-- 38.823
3.06 --undefined-- 39.161
3.07 --undefined-- 42.591
3.08 --undefined-- 45.209
3.09 --undefined-- 44.979
3.10 --undefined-- 44.495
3.11 --undefined-- 46.599
3.12 --undefined-- 47.986
3.13 --undefined-- 48.845
3.14 86.860 49.563
3.15 86.696 51.281
3.16 --undefined-- 57.371
3.17 --undefined-- 62.343
3.18 85.422 64.480
3.19 85.725 64.532
3.20 87.072 63.449
3.21 --undefined-- 61.322
3.22 --undefined-- 57.363
3.23 --undefined-- 51.083
3.24 --undefined-- 45.487
3.25 --undefined-- 45.211
3.26 --undefined-- 44.759
3.27 --undefined-- 42.486
3.28 --undefined-- 39.964
3.29 --undefined-- 39.804
3.30 --undefined-- 41.894
3.31 --undefined-- 42.539
3.32 --undefined-- 41.305
3.33 --undefined-- 40.531
3.34 --undefined-- 40.327
3.35 --undefined-- 39.350
3.36 --undefined-- 38.208
3.37 --undefined-- 38.216
3.38 --undefined-- 38.640
3.39 --undefined-- 38.656
3.40 --undefined-- 38.451
3.41 --undefined-- 38.503
3.42 --undefined-- 38.708
3.43 --undefined-- 38.928
3.44 --undefined-- 39.230
3.45 --undefined-- 39.321
3.46 --undefined-- 39.238
3.47 --undefined-- 39.240
3.48 --undefined-- 39.990
3.49 --undefined-- 42.959
3.50 --undefined-- 47.053
3.51 --undefined-- 48.777
3.52 --undefined-- 47.794
3.53 --undefined-- 45.837
3.54 --undefined-- 44.565
3.55 --undefined-- 44.365
3.56 --undefined-- 45.027
3.57 --undefined-- 45.914
3.58 --undefined-- 46.567
3.59 --undefined-- 46.378
3.60 --undefined-- 46.129
3.61 --undefined-- 46.538
3.62 --undefined-- 46.666
3.63 --undefined-- 46.716
3.64 --undefined-- 46.448
3.65 --undefined-- 45.617
3.66 --undefined-- 45.335
3.67 --undefined-- 45.311
3.68 --undefined-- 45.318
3.69 --undefined-- 45.327
3.70 --undefined-- 45.362
3.71 --undefined-- 45.597
3.72 --undefined-- 45.500
3.73 --undefined-- 44.681
3.74 --undefined-- 43.594
3.75 --undefined-- 43.128
3.76 --undefined-- 42.939
3.77 --undefined-- 42.287
3.78 --undefined-- 41.674
3.79 --undefined-- 41.211
3.80 --undefined-- 40.355
3.81 --undefined-- 39.502
3.82 --undefined-- 38.809
3.83 --undefined-- 38.413
3.84 --undefined-- 38.469
3.85 --undefined-- 38.337
3.86 --undefined-- 38.032
3.87 --undefined-- 38.977
3.88 --undefined-- 47.446
3.89 --undefined-- 55.499
3.90 --undefined-- 60.654
3.91 --undefined-- 65.188
3.92 111.642 68.274
3.93 113.163 69.005
3.94 112.692 67.515
3.95 111.939 64.046
3.96 --undefined-- 60.507
3.97 121.723 60.607
3.98 127.319 61.990
3.99 128.940 63.150
4.00 129.553 63.805
4.01 129.924 64.038
4.02 128.913 64.990
4.03 127.513 67.557
4.04 125.889 69.619
4.05 123.519 70.305
4.06 122.477 70.176
4.07 120.985 69.765
4.08 119.338 69.184
4.09 117.654 68.651
4.10 116.168 68.377
4.11 114.637 68.127
4.12 112.371 67.842
4.13 110.121 67.824
4.14 107.936 67.897
4.15 104.516 67.764
4.16 103.038 67.680
4.17 102.660 67.735
4.18 104.346 67.697
4.19 103.528 67.013
4.20 103.392 64.981
4.21 101.149 60.942
4.22 --undefined-- 54.383
4.23 --undefined-- 45.970
4.24 --undefined-- 39.950
4.25 --undefined-- 43.667
4.26 --undefined-- 54.932
4.27 --undefined-- 62.538
4.28 --undefined-- 66.120
4.29 --undefined-- 66.595
4.30 --undefined-- 67.684
4.31 124.193 70.051
4.32 121.814 70.929
4.33 118.871 70.680
4.34 116.747 70.214
4.35 116.599 69.640
4.36 117.414 68.671
4.37 118.218 67.613
4.38 118.746 67.071
4.39 119.620 67.103
4.40 119.648 67.440
4.41 119.201 67.738
4.42 119.021 67.795
4.43 118.620 67.211
4.44 117.281 65.422
4.45 112.053 61.811
4.46 --undefined-- 55.957
4.47 --undefined-- 48.819
4.48 --undefined-- 51.922
4.49 --undefined-- 58.142
4.50 --undefined-- 60.783
4.51 --undefined-- 64.375
4.52 108.928 68.980
4.53 110.004 71.595
4.54 109.498 72.234
4.55 104.382 71.475
4.56 102.817 70.627
4.57 102.854 70.454
4.58 103.493 70.321
4.59 104.736 70.176
4.60 106.484 70.027
4.61 110.767 69.862
4.62 114.549 69.449
4.63 117.658 68.358
4.64 120.030 66.793
4.65 122.150 65.291
4.66 123.797 63.723
4.67 125.347 61.976
4.68 126.542 60.416
4.69 126.443 60.723
4.70 125.525 63.081
4.71 123.452 65.164
4.72 122.904 66.531
4.73 122.291 67.487
4.74 121.955 67.737
4.75 121.954 67.339
4.76 121.933 66.848
4.77 122.262 66.049
4.78 122.372 64.178
4.79 121.798 60.518
4.80 113.117 54.742
4.81 111.537 48.577
4.82 --undefined-- 45.004
4.83 --undefined-- 41.600
4.84 --undefined-- 38.788
4.85 --undefined-- 37.121
4.86 --undefined-- 36.336
4.87 --undefined-- 37.084
4.88 --undefined-- 46.308
4.89 --undefined-- 55.401
4.90 --undefined-- 61.921
4.91 --undefined-- 66.990
4.92 --undefined-- 69.809
4.93 114.676 70.724
4.94 114.202 70.897
4.95 115.332 71.116
4.96 115.907 71.266
4.97 115.151 71.211
4.98 114.224 71.025
4.99 113.923 70.636
5.00 114.634 69.832
5.01 114.108 68.700
5.02 113.667 67.607
5.03 114.015 66.546
5.04 113.928 65.195
5.05 113.262 62.954
5.06 113.124 59.438
5.07 112.447 56.772
5.08 111.518 56.464
5.09 109.623 56.908
5.10 108.309 57.234
5.11 106.402 57.409
5.12 105.145 57.685
5.13 103.087 59.770
5.14 99.153 64.218
5.15 98.647 67.171
5.16 96.051 67.915
5.17 92.602 67.318
5.18 91.369 66.795
5.19 89.927 66.422
5.20 89.460 65.620
5.21 91.344 64.950
5.22 93.324 64.684
5.23 94.963 64.194
5.24 98.169 62.938
5.25 99.070 60.405
5.26 101.688 56.915
5.27 102.697 55.390
5.28 102.893 55.919
5.29 102.941 56.959
5.30 104.122 59.805
5.31 108.990 63.785
5.32 107.254 66.098
5.33 106.942 66.666
5.34 107.581 66.693
5.35 107.866 66.828
5.36 107.651 66.859
5.37 107.642 66.700
5.38 107.407 66.076
5.39 107.137 64.219
5.40 --undefined-- 60.327
5.41 --undefined-- 53.816
5.42 --undefined-- 45.364
5.43 --undefined-- 39.603
5.44 --undefined-- 43.929
5.45 --undefined-- 52.472
5.46 --undefined-- 61.219
5.47 --undefined-- 66.559
5.48 76.484 68.320
5.49 86.769 67.946
5.50 86.322 67.060
5.51 81.450 66.075
5.52 84.846 65.067
5.53 86.337 64.065
5.54 86.219 63.214
5.55 86.577 62.705
5.56 84.401 62.374
5.57 84.113 61.665
5.58 83.724 59.636
5.59 --undefined-- 55.672
5.60 --undefined-- 49.221
5.61 --undefined-- 41.807
5.62 --undefined-- 48.033
5.63 --undefined-- 56.564
5.64 --undefined-- 60.549
5.65 --undefined-- 60.654
5.66 --undefined-- 62.046
5.67 --undefined-- 66.112
5.68 107.319 68.236
5.69 104.050 68.346
5.70 101.039 67.868
5.71 101.139 67.756
5.72 101.065 67.562
5.73 102.176 67.021
5.74 102.312 65.869
5.75 100.876 63.265
5.76 --undefined-- 58.319
5.77 --undefined-- 51.020
5.78 --undefined-- --undefined--
5.79 --undefined-- --undefined--
5.80 --undefined-- --undefined--
5.81 --undefined-- --undefined--
