Time Pitch Intensity
0.01 --undefined-- --undefined--
0.02 232.105 --undefined--
0.03 221.080 --undefined--
0.04 207.009 --undefined--
0.05 202.193 68.216
0.06 192.525 67.613
0.07 182.240 66.748
0.08 173.200 65.796
0.09 163.044 64.427
0.10 154.028 63.204
0.11 154.020 63.795
0.12 152.686 65.517
0.13 151.508 66.775
0.14 150.052 67.306
0.15 147.621 67.448
0.16 145.437 67.549
0.17 144.527 67.748
0.18 144.447 67.942
0.19 144.172 67.976
0.20 143.033 67.746
0.21 142.192 67.353
0.22 141.512 66.966
0.23 140.129 66.600
0.24 139.179 66.250
0.25 138.608 65.929
0.26 137.668 65.778
0.27 136.798 66.072
0.28 132.790 66.777
0.29 134.511 67.427
0.30 136.072 67.669
0.31 135.916 67.723
0.32 137.210 67.814
0.33 138.712 67.812
0.34 138.669 67.703
0.35 140.667 67.524
0.36 140.963 67.183
0.37 141.479 66.267
0.38 139.503 64.061
0.39 134.697 59.973
0.40 --undefined-- 53.450
0.41 --undefined-- 46.010
0.42 --undefined-- 47.894
0.43 --undefined-- 52.567
0.44 --undefined-- 56.612
0.45 158.551 60.522
0.46 158.688 63.132
0.47 156.110 64.635
0.48 147.438 65.508
0.49 137.973 65.861
0.50 133.455 65.866
0.51 131.390 65.727
0.52 129.011 65.593
0.53 128.081 65.419
0.54 130.668 65.367
0.55 132.891 65.673
0.56 135.195 66.146
0.57 140.638 66.578
0.58 146.111 66.749
0.59 151.423 66.378
0.60 155.236 65.455
0.61 159.415 64.338
0.62 165.986 63.904
0.63 177.103 64.922
0.64 186.788 66.641
0.65 196.051 68.064
0.66 200.836 68.850
0.67 206.991 69.127
0.68 209.330 68.673
0.69 208.758 66.603
0.70 204.577 62.341
0.71 217.819 56.292
0.72 --undefined-- 49.052
0.73 --undefined-- 43.937
0.74 --undefined-- 50.099
0.75 --undefined-- 59.358
0.76 241.816 65.742
0.77 235.690 69.283
0.78 233.038 70.887
0.79 230.872 71.440
0.80 229.559 71.527
0.81 228.284 71.459
0.82 227.435 71.420
0.83 227.016 71.480
0.84 226.999 71.572
0.85 227.940 71.556
0.86 229.570 71.433
0.87 231.491 71.161
0.88 232.022 70.107
0.89 219.705 67.401
0.90 212.741 62.751
0.91 223.656 56.295
0.92 --undefined-- 48.471
0.93 --undefined-- 44.250
0.94 --undefined-- 44.113
0.95 --undefined-- 43.765
0.96 --undefined-- 43.960
0.97 --undefined-- 44.581
0.98 --undefined-- 44.204
0.99 --undefined-- 44.349
1.00 --undefined-- 53.682
1.01 --undefined-- 61.937
1.02 --undefined-- 66.409
1.03 149.879 67.930
1.04 139.744 67.465
1.05 126.661 66.064
1.06 120.703 64.962
1.07 120.766 64.464
1.08 122.853 64.116
1.09 127.168 63.850
1.10 131.318 63.670
1.11 134.534 63.432
1.12 136.241 62.524
1.13 136.497 60.157
1.14 134.180 55.801
1.15 --undefined-- 49.864
1.16 --undefined-- 46.896
1.17 --undefined-- 47.285
1.18 --undefined-- 51.476
1.19 --undefined-- 60.736
1.20 188.514 66.503
1.21 183.656 68.892
1.22 177.982 69.227
1.23 174.322 68.893
1.24 171.023 68.471
1.25 167.665 68.142
1.26 162.577 68.403
1.27 165.029 69.103
1.28 163.877 69.508
1.29 162.739 69.690
1.30 162.403 69.862
1.31 163.402 69.963
1.32 164.495 69.901
1.33 166.021 69.484
1.34 166.321 68.520
1.35 164.463 66.830
1.36 161.396 63.947
1.37 157.423 59.299
1.38 --undefined-- 53.379
1.39 --undefined-- 57.732
1.40 201.853 64.697
1.41 190.363 68.250
1.42 180.903 69.420
1.43 177.151 69.815
1.44 175.346 70.198
1.45 173.421 70.410
1.46 171.555 70.466
1.47 169.730 70.322
1.48 168.329 69.850
1.49 168.425 69.168
1.50 167.728 68.577
1.51 166.841 68.350
1.52 167.041 68.587
1.53 167.237 68.910
1.54 165.046 68.967
1.55 162.359 68.902
1.56 159.171 68.838
1.57 156.189 68.781
1.58 153.774 68.836
1.59 153.390 69.242
1.60 155.599 69.740
1.61 155.477 70.082
1.62 155.961 70.321
1.63 156.675 70.395
1.64 157.333 70.357
1.65 158.228 70.293
1.66 158.895 70.233
1.67 159.604 70.180
1.68 159.836 70.082
1.69 161.547 69.932
1.70 162.380 69.786
1.71 161.397 69.916
1.72 161.000 70.380
1.73 160.040 70.726
1.74 158.870 70.838
1.75 158.613 70.908
1.76 158.657 70.999
1.77 158.101 71.058
1.78 156.988 71.019
1.79 156.220 70.839
1.80 155.078 70.496
1.81 153.541 70.082
1.82 151.824 69.685
1.83 149.755 69.344
1.84 147.531 69.001
1.85 145.371 68.473
1.86 143.690 67.751
1.87 141.924 66.977
1.88 141.322 66.086
1.89 139.241 64.955
1.90 137.726 63.683
1.91 140.842 62.241
1.92 119.376 60.332
1.93 133.742 57.984
1.94 --undefined-- 55.015
1.95 --undefined-- 51.587
1.96 --undefined-- 48.267
1.97 --undefined-- 45.493
1.98 --undefined-- 43.276
1.99 --undefined-- 41.804
2.00 --undefined-- 41.298
2.01 --undefined-- 41.048
2.02 --undefined-- 41.007
2.03 --undefined-- 40.483
2.04 --undefined-- 39.460
2.05 --undefined-- 38.568
2.06 --undefined-- 38.340
2.07 --undefined-- 38.266
2.08 --undefined-- 39.773
2.09 --undefined-- 41.469
2.10 --undefined-- 42.066
2.11 --undefined-- 42.392
2.12 --undefined-- 41.788
2.13 --undefined-- 40.012
2.14 --undefined-- 39.018
2.15 --undefined-- 38.879
2.16 --undefined-- 39.964
2.17 --undefined-- 40.225
2.18 --undefined-- 38.009
2.19 --undefined-- 36.114
2.20 --undefined-- 37.478
2.21 --undefined-- 39.187
2.22 --undefined-- 39.727
2.23 --undefined-- 40.086
2.24 --undefined-- 40.854
2.25 --undefined-- 40.563
2.26 --undefined-- 38.340
2.27 --undefined-- 36.028
2.28 --undefined-- 38.275
2.29 --undefined-- 39.609
2.30 --undefined-- 38.387
2.31 --undefined-- 37.888
2.32 --undefined-- 38.339
2.33 --undefined-- 37.468
2.34 --undefined-- 36.869
2.35 --undefined-- 36.644
2.36 --undefined-- 37.490
2.37 --undefined-- 38.918
2.38 --undefined-- 40.085
2.39 --undefined-- 40.472
2.40 --undefined-- 38.723
2.41 --undefined-- 36.381
2.42 --undefined-- 37.819
2.43 --undefined-- 39.657
2.44 --undefined-- 40.210
2.45 --undefined-- 45.637
2.46 --undefined-- 56.109
2.47 199.168 62.750
2.48 182.168 66.374
2.49 180.672 68.584
2.50 183.269 70.416
2.51 186.758 72.007
2.52 188.132 73.223
2.53 188.804 74.081
2.54 188.679 74.560
2.55 187.641 74.318
2.56 183.930 72.770
2.57 176.397 69.377
2.58 167.086 63.948
2.59 --undefined-- 56.507
2.60 --undefined-- 48.346
2.61 --undefined-- 52.432
2.62 --undefined-- 57.507
2.63 --undefined-- 59.129
2.64 --undefined-- 59.573
2.65 224.405 64.536
2.66 221.977 70.056
2.67 218.602 73.246
2.68 215.729 74.625
2.69 208.498 74.881
2.70 203.987 74.437
2.71 202.004 73.747
2.72 201.512 73.329
2.73 202.982 73.327
2.74 205.403 73.114
2.75 207.522 71.645
2.76 204.539 68.242
2.77 189.802 63.475
2.78 193.809 58.728
2.79 192.807 57.780
2.80 238.662 65.419
2.81 222.554 70.181
2.82 196.361 71.806
2.83 187.657 72.095
2.84 183.663 72.587
2.85 180.130 72.999
2.86 177.462 73.064
2.87 176.669 72.951
2.88 176.030 72.610
2.89 175.739 72.037
2.90 176.018 71.515
2.91 175.714 71.248
2.92 175.856 71.204
2.93 175.724 71.308
2.94 174.975 71.469
2.95 174.691 71.658
2.96 174.879 71.956
2.97 175.521 72.259
2.98 176.898 72.270
2.99 179.211 71.740
3.00 180.013 70.444
3.01 178.762 68.275
3.02 173.209 65.393
3.03 --undefined-- 62.256
3.04 --undefined-- 59.455
3.05 --undefined-- 56.490
3.06 --undefined-- 52.502
3.07 --undefined-- 49.059
3.08 --undefined-- 50.766
3.09 --undefined-- 55.269
3.10 --undefined-- 58.916
3.11 182.617 61.816
3.12 183.990 64.210
3.13 187.268 65.949
3.14 189.872 67.178
3.15 193.352 68.126
3.16 194.127 68.794
3.17 196.652 69.032
3.18 201.966 68.614
3.19 202.685 67.155
3.20 191.753 64.237
3.21 193.921 59.643
3.22 --undefined-- 53.059
3.23 --undefined-- 44.400
3.24 --undefined-- 39.640
3.25 --undefined-- 45.060
3.26 --undefined-- 53.034
3.27 --undefined-- 61.680
3.28 281.942 66.949
3.29 281.316 69.105
3.30 280.351 69.643
3.31 280.086 69.893
3.32 279.819 70.061
3.33 279.177 70.201
3.34 276.424 70.693
3.35 273.431 71.530
3.36 272.276 72.322
3.37 271.803 72.854
3.38 271.755 73.099
3.39 272.427 73.208
3.40 274.628 73.323
3.41 276.501 73.375
3.42 278.429 73.309
3.43 280.838 73.184
3.44 283.505 73.026
3.45 285.521 72.849
3.46 286.488 72.680
3.47 286.108 72.591
3.48 283.566 72.615
3.49 278.849 72.484
3.50 271.068 71.593
3.51 262.667 69.151
3.52 251.231 64.406
3.53 238.701 56.906
3.54 --undefined-- 47.675
3.55 --undefined-- 43.076
3.56 --undefined-- 43.755
3.57 --undefined-- 46.553
3.58 --undefined-- 50.429
3.59 --undefined-- 57.230
3.60 --undefined-- 64.511
3.61 200.594 68.712
3.62 188.918 70.295
3.63 170.866 70.365
3.64 159.301 69.736
3.65 154.185 68.953
3.66 154.263 68.348
3.67 156.880 67.959
3.68 158.791 68.182
3.69 167.738 69.186
3.70 173.156 70.252
3.71 178.889 71.073
3.72 185.169 71.805
3.73 191.600 72.481
3.74 198.928 72.988
3.75 207.612 73.291
3.76 215.917 73.480
3.77 222.863 73.463
3.78 227.917 72.906
3.79 231.264 71.242
3.80 234.890 67.765
3.81 237.852 61.786
3.82 --undefined-- 53.465
3.83 --undefined-- 56.314
3.84 --undefined-- 64.197
3.85 223.879 68.463
3.86 215.602 70.010
3.87 202.298 70.217
3.88 191.108 70.308
3.89 184.923 70.536
3.90 179.522 70.657
3.91 175.022 70.645
3.92 171.899 70.589
3.93 169.450 70.469
3.94 167.481 70.258
3.95 166.488 70.047
3.96 166.353 70.021
3.97 166.871 70.144
3.98 167.772 70.272
3.99 169.069 70.314
4.00 170.052 70.062
4.01 171.035 69.193
4.02 171.414 67.169
4.03 166.653 63.542
4.04 161.693 58.620
4.05 --undefined-- 52.525
4.06 --undefined-- 45.552
4.07 --undefined-- 42.815
4.08 --undefined-- 47.490
4.09 --undefined-- 52.787
4.10 --undefined-- 55.590
4.11 --undefined-- 55.541
4.12 --undefined-- 53.357
4.13 --undefined-- 51.400
4.14 --undefined-- 56.031
4.15 187.170 62.551
4.16 188.390 66.379
4.17 184.269 67.994
4.18 165.297 68.306
4.19 148.511 67.916
4.20 139.130 67.332
4.21 137.676 66.905
4.22 138.042 66.584
4.23 138.334 66.169
4.24 140.377 65.684
4.25 143.344 65.058
4.26 144.081 64.049
4.27 143.130 62.470
4.28 141.330 59.964
4.29 142.840 55.947
4.30 --undefined-- 50.088
4.31 --undefined-- 43.945
4.32 --undefined-- 41.480
4.33 --undefined-- 40.766
4.34 --undefined-- 41.304
4.35 --undefined-- 42.200
4.36 --undefined-- 42.826
4.37 --undefined-- 44.347
4.38 --undefined-- 49.512
4.39 --undefined-- 57.373
4.40 --undefined-- 62.667
4.41 152.843 65.220
4.42 149.490 66.054
4.43 143.776 66.152
4.44 141.584 65.974
4.45 140.811 65.786
4.46 141.546 65.538
4.47 142.299 64.963
4.48 142.900 63.814
4.49 143.185 61.641
4.50 139.656 57.996
4.51 --undefined-- 52.593
4.52 --undefined-- 46.156
4.53 --undefined-- 41.294
4.54 --undefined-- 39.664
4.55 --undefined-- 43.163
4.56 --undefined-- 47.883
4.57 --undefined-- 50.689
4.58 --undefined-- 51.488
4.59 --undefined-- 50.619
4.60 --undefined-- 52.606
4.61 242.818 60.813
4.62 249.009 66.827
4.63 247.690 70.085
4.64 242.259 71.431
4.65 235.518 71.594
4.66 231.544 71.368
4.67 228.654 71.191
4.68 226.267 71.110
4.69 224.573 71.175
4.70 223.115 71.479
4.71 222.319 71.850
4.72 221.975 72.056
4.73 221.216 72.028
4.74 217.938 72.377
4.75 221.489 73.549
4.76 223.367 74.541
4.77 222.717 75.081
4.78 221.841 75.501
4.79 220.394 75.830
4.80 216.767 75.870
4.81 212.148 75.402
4.82 206.683 74.200
4.83 198.383 72.285
4.84 187.992 70.441
4.85 180.785 69.610
4.86 174.990 69.523
4.87 171.715 69.527
4.88 169.888 69.611
4.89 169.932 69.892
4.90 172.282 70.426
4.91 175.238 71.026
4.92 176.716 71.292
4.93 177.997 71.162
4.94 179.957 70.995
4.95 179.425 70.545
4.96 174.772 69.043
4.97 170.889 66.157
4.98 167.982 62.093
4.99 161.507 58.152
5.00 162.690 57.286
5.01 176.127 60.853
5.02 181.574 65.004
5.03 179.164 67.539
5.04 171.942 68.561
5.05 163.563 68.684
5.06 153.459 68.508
5.07 144.436 68.445
5.08 138.192 68.585
5.09 134.142 68.683
5.10 132.568 68.562
5.11 133.833 68.319
5.12 135.127 68.032
5.13 135.824 67.822
5.14 136.731 67.591
5.15 137.769 67.039
5.16 137.896 65.998
5.17 136.039 64.142
5.18 132.863 60.856
5.19 129.687 55.954
5.20 --undefined-- 49.852
5.21 --undefined-- 46.664
5.22 --undefined-- 55.636
5.23 --undefined-- 63.667
5.24 171.552 68.048
5.25 166.314 69.832
5.26 163.234 70.396
5.27 162.127 70.728
5.28 161.726 71.002
5.29 161.384 71.174
5.30 161.336 71.203
5.31 161.000 71.127
5.32 160.438 70.960
5.33 160.284 70.654
5.34 160.403 70.273
5.35 160.182 69.758
5.36 159.722 69.223
5.37 159.436 69.045
5.38 159.767 69.140
5.39 159.792 69.154
5.40 158.441 68.950
5.41 157.430 68.582
5.42 156.994 68.158
5.43 156.023 67.542
5.44 153.898 66.635
5.45 150.091 65.474
5.46 151.463 63.985
5.47 --undefined-- --undefined--
5.48 --undefined-- --undefined--
5.49 --undefined-- --undefined--
5.50 --undefined-- --undefined--
