Time Pitch Intensity
0.01 --undefined-- --undefined--
0.02 164.281 --undefined--
0.03 153.911 --undefined--
0.04 152.442 --undefined--
0.05 --undefined-- 57.695
0.06 --undefined-- 60.653
0.07 --undefined-- 61.383
0.08 --undefined-- 59.149
0.09 --undefined-- 56.978
0.10 --undefined-- 55.388
0.11 --undefined-- 56.263
0.12 150.948 62.987
0.13 152.673 68.117
0.14 152.472 70.558
0.15 149.401 71.160
0.16 140.807 70.713
0.17 130.722 69.902
0.18 132.044 69.423
0.19 132.046 68.943
0.20 131.986 67.774
0.21 131.900 65.630
0.22 132.020 62.943
0.23 126.465 60.878
0.24 123.965 59.830
0.25 120.480 60.110
0.26 117.712 62.526
0.27 124.834 66.184
0.28 125.769 68.934
0.29 124.942 70.158
0.30 122.223 70.353
0.31 121.011 69.950
0.32 116.181 68.852
0.33 113.954 66.837
0.34 107.332 63.154
0.35 --undefined-- 57.508
0.36 --undefined-- 51.202
0.37 --undefined-- 44.983
0.38 --undefined-- 42.676
0.39 --undefined-- 41.844
0.40 --undefined-- 38.875
0.41 --undefined-- 35.711
0.42 --undefined-- 41.047
0.43 --undefined-- 51.910
0.44 --undefined-- 58.534
0.45 --undefined-- 60.974
0.46 --undefined-- 60.484
0.47 --undefined-- 61.163
0.48 111.701 64.518
0.49 125.255 67.791
0.50 136.574 69.913
0.51 139.549 70.814
0.52 132.872 70.888
0.53 125.122 70.703
0.54 121.182 70.517
0.55 122.252 70.439
0.56 122.815 70.567
0.57 122.526 70.197
0.58 119.466 68.391
0.59 114.970 64.732
0.60 109.886 59.791
0.61 --undefined-- 57.183
0.62 --undefined-- 58.116
0.63 --undefined-- 59.432
0.64 --undefined-- 62.242
0.65 186.584 67.956
0.66 178.270 71.894
0.67 172.296 73.385
0.68 170.152 73.003
0.69 167.116 71.103
0.70 149.401 67.862
0.71 135.683 63.258
0.72 --undefined-- 56.874
0.73 --undefined-- 49.039
0.74 --undefined-- 42.798
0.75 --undefined-- 40.242
0.76 --undefined-- 39.744
0.77 --undefined-- 40.470
0.78 --undefined-- 42.256
0.79 --undefined-- 44.190
0.80 --undefined-- 46.870
0.81 --undefined-- 53.721
0.82 --undefined-- 60.732
0.83 132.181 65.081
0.84 126.441 67.124
0.85 121.949 67.698
0.86 120.732 67.786
0.87 120.353 67.856
0.88 123.736 67.603
0.89 124.591 66.402
0.90 121.553 64.030
0.91 118.501 60.804
0.92 118.243 57.621
0.93 --undefined-- 57.551
0.94 --undefined-- 59.720
0.95 --undefined-- 60.597
0.96 --undefined-- 61.369
0.97 130.370 65.467
0.98 131.129 68.665
0.99 129.486 69.441
1.00 129.079 68.719
1.01 129.090 67.795
1.02 118.549 67.381
1.03 116.933 67.213
1.04 114.440 66.703
1.05 111.539 65.865
1.06 112.245 65.110
1.07 111.939 64.467
1.08 112.783 63.933
1.09 112.919 63.660
1.10 112.714 63.552
1.11 112.663 63.439
1.12 112.860 63.108
1.13 111.186 62.625
1.14 107.017 62.351
1.15 108.707 62.354
1.16 107.697 62.288
1.17 110.627 62.049
1.18 108.478 61.478
1.19 116.694 60.510
1.20 111.100 58.965
1.21 --undefined-- 56.022
1.22 --undefined-- 52.954
1.23 --undefined-- 51.101
1.24 --undefined-- 47.563
1.25 --undefined-- 41.226
1.26 --undefined-- 35.556
1.27 --undefined-- 33.700
1.28 --undefined-- 33.099
1.29 --undefined-- 33.738
1.30 --undefined-- 35.072
1.31 --undefined-- 35.416
1.32 --undefined-- 34.907
1.33 --undefined-- 35.190
1.34 --undefined-- 36.191
1.35 --undefined-- 36.321
1.36 --undefined-- 36.410
1.37 --undefined-- 36.219
1.38 --undefined-- 35.767
1.39 --undefined-- 35.612
1.40 --undefined-- 34.016
1.41 --undefined-- 32.802
1.42 --undefined-- 34.456
1.43 --undefined-- 35.392
1.44 --undefined-- 34.299
1.45 --undefined-- 32.553
1.46 --undefined-- 32.140
1.47 --undefined-- 33.346
1.48 --undefined-- 34.222
1.49 --undefined-- 34.214
1.50 --undefined-- 33.845
1.51 --undefined-- 32.927
1.52 --undefined-- 31.856
1.53 --undefined-- 32.489
1.54 --undefined-- 34.415
1.55 --undefined-- 35.234
1.56 --undefined-- 35.605
1.57 --undefined-- 36.252
1.58 --undefined-- 36.491
1.59 --undefined-- 35.994
1.60 --undefined-- 35.757
1.61 --undefined-- 38.093
1.62 --undefined-- 39.355
1.63 --undefined-- 38.198
1.64 --undefined-- 35.447
1.65 --undefined-- 32.979
1.66 --undefined-- 33.742
1.67 --undefined-- 33.614
1.68 --undefined-- 32.098
1.69 --undefined-- 33.272
1.70 --undefined-- 36.500
1.71 --undefined-- 37.980
1.72 --undefined-- 37.621
1.73 --undefined-- 36.943
1.74 --undefined-- 37.225
1.75 --undefined-- 37.914
1.76 --undefined-- 37.611
1.77 --undefined-- 36.214
1.78 --undefined-- 35.439
1.79 --undefined-- 37.741
1.80 --undefined-- 39.737
1.81 --undefined-- 39.797
1.82 --undefined-- 38.913
1.83 --undefined-- 38.284
1.84 --undefined-- 38.523
1.85 --undefined-- 39.374
1.86 --undefined-- 40.345
1.87 --undefined-- 41.015
1.88 --undefined-- 41.200
1.89 --undefined-- 41.148
1.90 --undefined-- 41.069
1.91 --undefined-- 40.953
1.92 --undefined-- 40.345
1.93 --undefined-- 39.473
1.94 --undefined-- 38.875
1.95 --undefined-- 38.354
1.96 --undefined-- 37.952
1.97 --undefined-- 36.955
1.98 --undefined-- 35.174
1.99 --undefined-- 34.319
2.00 --undefined-- 34.651
2.01 --undefined-- 34.692
2.02 --undefined-- 36.702
2.03 --undefined-- 40.201
2.04 --undefined-- 41.310
2.05 --undefined-- 39.391
2.06 --undefined-- 35.596
2.07 --undefined-- 33.454
2.08 --undefined-- 32.683
2.09 --undefined-- 31.669
2.10 --undefined-- 33.914
2.11 --undefined-- 49.161
2.12 --undefined-- 62.427
2.13 --undefined-- 71.202
2.14 --undefined-- 76.444
2.15 169.672 78.947
2.16 169.668 79.397
2.17 169.663 78.477
2.18 168.805 77.222
2.19 167.960 76.609
2.20 168.160 76.564
2.21 170.168 76.731
2.22 173.971 76.945
2.23 176.517 76.510
2.24 177.181 74.183
2.25 152.640 69.126
2.26 --undefined-- 61.788
2.27 --undefined-- 55.674
2.28 --undefined-- 62.355
2.29 --undefined-- 70.675
2.30 218.100 75.513
2.31 206.896 77.743
2.32 204.236 78.816
2.33 204.033 79.548
2.34 203.647 79.593
2.35 204.736 78.781
2.36 205.247 77.687
2.37 203.993 77.034
2.38 202.647 76.531
2.39 200.965 75.170
2.40 199.727 71.796
2.41 --undefined-- 65.502
2.42 --undefined-- 56.556
2.43 --undefined-- 49.189
2.44 --undefined-- 47.886
2.45 --undefined-- 56.674
2.46 --undefined-- 65.993
2.47 --undefined-- 71.698
2.48 --undefined-- 74.437
2.49 --undefined-- 75.103
2.50 --undefined-- 74.754
2.51 127.730 74.472
2.52 128.903 74.481
2.53 132.823 74.207
2.54 134.497 73.585
2.55 133.844 72.849
2.56 131.103 72.209
2.57 129.158 71.992
2.58 123.444 72.033
2.59 123.642 71.711
2.60 123.636 70.274
2.61 123.073 66.979
2.62 106.653 61.517
2.63 --undefined-- 55.048
2.64 --undefined-- 52.175
2.65 --undefined-- 54.447
2.66 --undefined-- 56.735
2.67 --undefined-- 56.451
2.68 --undefined-- 54.449
2.69 --undefined-- 56.652
2.70 125.813 63.211
2.71 128.300 67.705
2.72 128.262 69.574
2.73 129.003 69.773
2.74 128.130 69.359
2.75 127.497 68.962
2.76 132.013 68.881
2.77 136.875 69.044
2.78 134.611 68.960
2.79 140.218 68.182
2.80 141.277 66.784
2.81 141.060 65.214
2.82 139.535 63.634
2.83 134.214 62.331
2.84 131.592 62.507
2.85 132.466 64.859
2.86 134.318 68.167
2.87 136.976 70.732
2.88 134.443 71.939
2.89 133.928 72.270
2.90 132.742 72.396
2.91 131.816 72.293
2.92 128.262 71.514
2.93 123.428 69.675
2.94 121.008 66.449
2.95 --undefined-- 61.482
2.96 --undefined-- 55.301
2.97 --undefined-- 50.876
2.98 --undefined-- 48.816
2.99 --undefined-- 46.311
3.00 --undefined-- 42.140
3.01 --undefined-- 38.386
3.02 --undefined-- 36.906
3.03 --undefined-- 37.445
3.04 --undefined-- 37.105
3.05 --undefined-- 36.172
3.06 --undefined-- 36.734
3.07 --undefined-- 38.823
3.08 --undefined-- 40.058
3.09 --undefined-- 38.348
3.10 --undefined-- 35.897
3.11 --undefined-- 40.294
3.12 --undefined-- 47.341
3.13 --undefined-- 56.214
3.14 --undefined-- 64.157
3.15 --undefined-- 69.064
3.16 140.981 71.482
3.17 134.341 72.315
3.18 130.830 71.952
3.19 127.433 69.921
3.20 113.423 65.576
3.21 --undefined-- 58.883
3.22 --undefined-- 51.292
3.23 --undefined-- 45.662
3.24 --undefined-- 47.207
3.25 --undefined-- 51.265
3.26 --undefined-- 54.355
3.27 --undefined-- 55.781
3.28 --undefined-- 56.039
3.29 --undefined-- 56.461
3.30 --undefined-- 56.104
3.31 --undefined-- 54.890
3.32 --undefined-- 58.357
3.33 --undefined-- 64.054
3.34 140.764 67.886
3.35 137.790 70.277
3.36 137.419 71.787
3.37 136.685 72.620
3.38 136.060 73.147
3.39 136.556 74.008
3.40 138.125 75.142
3.41 139.136 75.543
3.42 135.570 74.716
3.43 132.553 73.487
3.44 134.239 72.965
3.45 132.108 72.776
3.46 128.959 72.518
3.47 126.117 72.347
3.48 129.193 72.269
3.49 123.292 71.774
3.50 119.447 70.912
3.51 116.155 70.097
3.52 113.110 69.337
3.53 113.461 68.561
3.54 114.419 67.607
3.55 114.579 66.682
3.56 116.119 66.427
3.57 117.613 66.906
3.58 117.027 67.417
3.59 116.605 67.555
3.60 116.027 67.375
3.61 117.314 67.520
3.62 120.186 68.404
3.63 121.016 69.298
3.64 121.337 69.780
3.65 121.244 69.988
3.66 121.146 70.210
3.67 121.448 70.485
3.68 121.778 70.409
3.69 123.673 70.110
3.70 125.449 70.088
3.71 125.380 70.149
3.72 124.891 69.863
3.73 127.276 69.164
3.74 122.559 67.818
3.75 116.049 65.280
3.76 112.889 61.478
3.77 --undefined-- 56.868
3.78 --undefined-- 51.559
3.79 --undefined-- 46.870
3.80 --undefined-- 45.114
3.81 --undefined-- 45.209
3.82 --undefined-- 46.315
3.83 --undefined-- 47.057
3.84 --undefined-- 49.788
3.85 --undefined-- 57.109
3.86 141.333 62.919
3.87 128.320 66.231
3.88 124.716 67.784
3.89 123.885 68.354
3.90 122.859 68.486
3.91 122.747 68.618
3.92 123.693 68.939
3.93 125.616 69.344
3.94 128.278 69.710
3.95 132.657 70.109
3.96 136.727 70.763
3.97 139.195 71.640
3.98 144.764 72.438
3.99 152.348 72.850
4.00 159.700 72.559
4.01 167.271 71.645
4.02 171.963 70.601
4.03 174.154 69.641
4.04 173.009 68.576
4.05 165.601 66.657
4.06 --undefined-- 63.038
4.07 --undefined-- 58.097
4.08 --undefined-- 53.869
4.09 --undefined-- 49.529
4.10 --undefined-- 43.700
4.11 --undefined-- 38.847
4.12 --undefined-- 37.100
4.13 --undefined-- 38.603
4.14 --undefined-- 39.134
4.15 --undefined-- 37.243
4.16 --undefined-- 37.165
4.17 --undefined-- 38.606
4.18 --undefined-- 38.113
4.19 --undefined-- 37.365
4.20 --undefined-- 37.152
4.21 --undefined-- 37.282
4.22 --undefined-- 36.992
4.23 --undefined-- 35.886
4.24 --undefined-- 45.527
4.25 --undefined-- 56.979
4.26 --undefined-- 65.311
4.27 --undefined-- 70.516
4.28 169.618 73.289
4.29 166.891 74.593
4.30 165.886 75.151
4.31 164.756 75.347
4.32 163.095 75.430
4.33 162.327 75.564
4.34 162.956 75.728
4.35 164.688 75.882
4.36 166.588 75.915
4.37 167.068 75.498
4.38 165.714 74.224
4.39 163.572 71.897
4.40 158.336 68.248
4.41 136.277 62.760
4.42 --undefined-- 55.902
4.43 --undefined-- 49.182
4.44 --undefined-- 53.183
4.45 --undefined-- 59.266
4.46 --undefined-- 61.610
4.47 --undefined-- 60.982
4.48 --undefined-- 62.833
4.49 176.930 69.029
4.50 162.692 73.007
4.51 157.349 74.823
4.52 152.562 75.591
4.53 146.909 75.559
4.54 141.444 74.062
4.55 134.397 70.562
4.56 114.594 65.046
4.57 114.458 61.120
4.58 --undefined-- 61.601
4.59 --undefined-- 64.166
4.60 130.191 66.918
4.61 131.322 68.651
4.62 124.269 69.606
4.63 125.166 70.201
4.64 125.011 70.578
4.65 125.209 70.843
4.66 124.919 70.514
4.67 120.514 69.762
4.68 120.119 69.561
4.69 117.801 69.825
4.70 116.524 70.075
4.71 117.357 70.378
4.72 118.222 70.901
4.73 119.435 71.446
4.74 121.191 71.758
4.75 121.714 71.801
4.76 124.290 71.819
4.77 128.736 72.043
4.78 133.623 72.615
4.79 139.561 73.307
4.80 142.998 73.412
4.81 145.939 72.922
4.82 147.884 72.221
4.83 149.653 71.269
4.84 148.481 69.664
4.85 143.590 66.805
4.86 137.042 62.610
4.87 --undefined-- 57.108
4.88 --undefined-- 50.522
4.89 --undefined-- 44.503
4.90 --undefined-- 41.502
4.91 --undefined-- 40.255
4.92 --undefined-- 39.297
4.93 --undefined-- 38.565
4.94 --undefined-- 38.850
4.95 --undefined-- 42.944
4.96 --undefined-- 53.729
4.97 --undefined-- 63.042
4.98 194.347 68.449
4.99 169.942 70.945
5.00 160.583 71.992
5.01 157.692 72.689
5.02 155.048 73.109
5.03 153.824 72.913
5.04 152.774 72.289
5.05 152.474 72.126
5.06 152.728 72.338
5.07 153.650 71.987
5.08 153.241 70.519
5.09 144.957 67.289
5.10 128.257 61.456
5.11 --undefined-- 53.912
5.12 --undefined-- 55.016
5.13 --undefined-- 63.668
5.14 --undefined-- 69.739
5.15 --undefined-- 73.073
5.16 --undefined-- 74.409
5.17 134.367 74.507
5.18 132.386 74.387
5.19 136.579 74.513
5.20 136.811 74.348
5.21 134.749 73.542
5.22 132.817 72.451
5.23 130.761 71.617
5.24 130.102 71.331
5.25 128.944 71.255
5.26 128.954 71.232
5.27 130.351 71.300
5.28 129.669 71.271
5.29 126.883 70.994
5.30 123.231 70.505
5.31 119.712 70.113
5.32 118.785 70.049
5.33 118.812 69.964
5.34 118.178 69.627
5.35 118.519 69.166
5.36 119.139 68.483
5.37 117.822 67.511
5.38 113.193 66.895
5.39 112.728 66.929
5.40 112.286 67.084
5.41 111.759 67.191
5.42 112.179 67.338
5.43 112.755 67.606
5.44 113.940 67.936
5.45 117.746 68.128
5.46 121.659 67.855
5.47 115.783 66.531
5.48 97.200 64.004
5.49 90.281 62.077
5.50 98.120 62.728
5.51 107.054 64.270
5.52 123.052 65.562
5.53 123.654 66.723
5.54 122.449 67.902
5.55 119.015 68.932
5.56 117.633 69.582
5.57 116.378 69.646
5.58 114.825 69.097
5.59 114.855 68.400
5.60 116.529 68.130
5.61 116.463 67.852
5.62 116.762 67.420
5.63 117.138 67.071
5.64 117.841 66.640
5.65 118.848 66.158
5.66 118.331 65.756
5.67 117.552 65.314
5.68 116.231 65.040
5.69 116.164 65.040
5.70 117.140 64.834
5.71 --undefined-- 64.227
5.72 --undefined-- 63.368
5.73 98.097 62.023
5.74 92.969 59.956
5.75 94.326 56.481
5.76 --undefined-- 50.992
5.77 --undefined-- 43.999
5.78 --undefined-- 38.169
5.79 --undefined-- 34.966
5.80 --undefined-- 34.662
5.81 --undefined-- 36.846
5.82 --undefined-- 37.769
5.83 --undefined-- 37.700
5.84 --undefined-- 38.018
5.85 --undefined-- 39.007
5.86 --undefined-- 39.089
5.87 --undefined-- 37.485
5.88 --undefined-- 37.243
5.89 --undefined-- 44.703
5.90 --undefined-- 51.445
5.91 --undefined-- 55.086
5.92 --undefined-- 57.370
5.93 111.121 59.695
5.94 112.542 62.051
5.95 124.518 64.666
5.96 131.238 66.813
5.97 130.938 67.828
5.98 129.140 68.367
5.99 130.218 69.172
6.00 129.805 69.708
6.01 130.083 70.113
6.02 134.456 70.933
6.03 136.440 72.032
6.04 130.819 72.948
6.05 129.486 73.349
6.06 127.549 73.310
6.07 126.033 73.219
6.08 126.712 72.758
6.09 128.794 71.706
6.10 128.939 70.612
6.11 127.463 69.506
6.12 --undefined-- 67.891
6.13 --undefined-- 65.629
6.14 --undefined-- 61.793
6.15 --undefined-- 57.749
6.16 --undefined-- 54.331
6.17 --undefined-- 51.503
6.18 --undefined-- 58.007
6.19 162.279 64.288
6.20 165.180 68.573
6.21 161.256 71.225
6.22 151.854 73.198
6.23 151.779 --undefined--
6.24 152.706 --undefined--
6.25 --undefined-- --undefined--
6.26 --undefined-- --undefined--
