Time Pitch Intensity
0.01 --undefined-- --undefined--
0.02 --undefined-- --undefined--
0.03 --undefined-- --undefined--
0.04 --undefined-- --undefined--
0.05 --undefined-- 52.575
0.06 --undefined-- 46.390
0.07 --undefined-- 49.173
0.08 --undefined-- 62.400
0.09 --undefined-- 69.630
0.10 --undefined-- 72.015
0.11 --undefined-- 69.813
0.12 --undefined-- 64.182
0.13 --undefined-- 64.295
0.14 --undefined-- 66.495
0.15 83.992 66.956
0.16 83.733 66.386
0.17 84.849 65.281
0.18 --undefined-- 62.653
0.19 --undefined-- 57.397
0.20 --undefined-- 48.752
0.21 --undefined-- 45.008
0.22 --undefined-- 47.118
0.23 --undefined-- 48.044
0.24 --undefined-- 48.702
0.25 --undefined-- 49.469
0.26 --undefined-- 50.228
0.27 --undefined-- 50.778
0.28 --undefined-- 52.114
0.29 --undefined-- 57.040
0.30 --undefined-- 62.067
0.31 --undefined-- 65.253
0.32 --undefined-- 66.788
0.33 74.757 66.737
0.34 74.764 65.121
0.35 --undefined-- 61.399
0.36 --undefined-- 55.062
0.37 --undefined-- 48.222
0.38 --undefined-- 46.639
0.39 --undefined-- 45.805
0.40 --undefined-- 44.403
0.41 --undefined-- 42.490
0.42 --undefined-- 39.851
0.43 --undefined-- 37.675
0.44 --undefined-- 39.765
0.45 --undefined-- 49.312
0.46 --undefined-- 55.359
0.47 --undefined-- 58.079
0.48 --undefined-- 59.655
0.49 --undefined-- 61.018
0.50 --undefined-- 61.633
0.51 --undefined-- 61.367
0.52 --undefined-- 60.565
0.53 --undefined-- 60.357
0.54 --undefined-- 60.664
0.55 --undefined-- 61.420
0.56 --undefined-- 62.354
0.57 --undefined-- 62.051
0.58 --undefined-- 60.684
0.59 --undefined-- 61.825
0.60 --undefined-- 62.368
0.61 --undefined-- 60.020
0.62 --undefined-- 59.055
0.63 --undefined-- 59.635
0.64 --undefined-- 60.096
0.65 --undefined-- 61.716
0.66 --undefined-- 60.854
0.67 --undefined-- 57.376
0.68 --undefined-- 56.902
0.69 --undefined-- 59.630
0.70 --undefined-- 60.878
0.71 --undefined-- 60.318
0.72 86.066 59.912
0.73 86.641 60.765
0.74 86.684 61.973
0.75 83.706 62.509
0.76 80.604 62.744
0.77 80.658 62.841
0.78 77.264 61.779
0.79 79.753 59.870
0.80 81.211 58.577
0.81 --undefined-- 57.576
0.82 --undefined-- 55.177
0.83 --undefined-- 50.571
0.84 --undefined-- 43.787
0.85 --undefined-- 41.375
0.86 --undefined-- 44.363
0.87 --undefined-- 46.871
0.88 --undefined-- 49.277
0.89 --undefined-- 50.328
0.90 --undefined-- 49.590
0.91 --undefined-- 48.845
0.92 --undefined-- 48.690
0.93 --undefined-- 48.093
0.94 --undefined-- 46.920
0.95 --undefined-- 46.006
0.96 --undefined-- 45.074
0.97 --undefined-- 43.469
0.98 --undefined-- 42.432
0.99 --undefined-- 41.383
1.00 --undefined-- 39.778
1.01 --undefined-- 38.711
1.02 --undefined-- 37.118
1.03 --undefined-- 34.538
1.04 --undefined-- 32.398
1.05 --undefined-- 32.178
1.06 --undefined-- 34.793
1.07 --undefined-- 37.804
1.08 --undefined-- 42.082
1.09 --undefined-- 50.145
1.10 --undefined-- 55.641
1.11 --undefined-- 57.463
1.12 --undefined-- 57.127
1.13 --undefined-- 56.394
1.14 --undefined-- 55.781
1.15 --undefined-- 55.360
1.16 --undefined-- 54.071
1.17 --undefined-- 52.340
1.18 --undefined-- 50.880
1.19 --undefined-- 49.082
1.20 --undefined-- 47.034
1.21 --undefined-- 44.605
1.22 --undefined-- 40.913
1.23 --undefined-- 36.484
1.24 --undefined-- 36.448
1.25 --undefined-- 40.148
1.26 --undefined-- 41.323
1.27 --undefined-- 39.987
1.28 --undefined-- 39.037
1.29 --undefined-- 39.450
1.30 --undefined-- 45.553
1.31 --undefined-- 53.231
1.32 --undefined-- 59.385
1.33 --undefined-- 63.796
1.34 --undefined-- 66.250
1.35 --undefined-- 66.197
1.36 --undefined-- 63.090
1.37 --undefined-- 56.721
1.38 --undefined-- 55.608
1.39 --undefined-- 61.877
1.40 --undefined-- 66.567
1.41 --undefined-- 69.999
1.42 101.724 71.799
1.43 97.117 72.163
1.44 93.890 71.884
1.45 91.109 71.435
1.46 89.566 70.767
1.47 88.895 69.275
1.48 --undefined-- 65.979
1.49 --undefined-- 60.032
1.50 --undefined-- 50.396
1.51 --undefined-- 40.141
1.52 --undefined-- 38.249
1.53 --undefined-- 38.171
1.54 --undefined-- 37.631
1.55 --undefined-- 37.457
1.56 --undefined-- 49.538
1.57 --undefined-- 60.084
1.58 --undefined-- 65.132
1.59 --undefined-- 65.798
1.60 --undefined-- 62.797
1.61 --undefined-- 58.851
1.62 --undefined-- 57.876
1.63 --undefined-- 57.843
1.64 --undefined-- 58.141
1.65 --undefined-- 57.975
1.66 --undefined-- 57.145
1.67 --undefined-- 56.575
1.68 --undefined-- 56.487
1.69 --undefined-- 58.044
1.70 --undefined-- 60.292
1.71 --undefined-- 61.637
1.72 --undefined-- 62.184
1.73 --undefined-- 63.685
1.74 --undefined-- 67.619
1.75 --undefined-- 70.925
1.76 119.141 72.827
1.77 119.681 74.214
1.78 119.272 75.369
1.79 117.559 75.709
1.80 116.766 75.293
1.81 116.005 74.352
1.82 115.749 72.678
1.83 117.721 70.515
1.84 --undefined-- 67.543
1.85 --undefined-- 62.079
1.86 --undefined-- 52.891
1.87 --undefined-- 47.205
1.88 --undefined-- 53.177
1.89 --undefined-- 57.290
1.90 --undefined-- 60.447
1.91 --undefined-- 63.474
1.92 --undefined-- 65.859
1.93 --undefined-- 67.790
1.94 --undefined-- 69.371
1.95 --undefined-- 70.172
1.96 --undefined-- 69.069
1.97 --undefined-- 66.500
1.98 --undefined-- 67.724
1.99 --undefined-- 70.225
2.00 99.908 70.762
2.01 100.036 70.490
2.02 99.671 70.124
2.03 98.957 68.884
2.04 98.855 65.991
2.05 96.240 60.788
2.06 --undefined-- 52.814
2.07 --undefined-- 43.296
2.08 --undefined-- 40.948
2.09 --undefined-- 42.276
2.10 --undefined-- 41.502
2.11 --undefined-- 46.320
2.12 --undefined-- 56.647
2.13 --undefined-- 62.409
2.14 --undefined-- 66.588
2.15 --undefined-- 71.709
2.16 --undefined-- 74.754
2.17 --undefined-- 75.221
2.18 --undefined-- 74.159
2.19 91.976 73.136
2.20 --undefined-- 73.319
2.21 --undefined-- 72.903
2.22 --undefined-- 71.647
2.23 --undefined-- 70.822
2.24 --undefined-- 69.765
2.25 --undefined-- 68.280
2.26 --undefined-- 67.811
2.27 --undefined-- 67.633
2.28 --undefined-- 66.205
2.29 --undefined-- 64.203
2.30 85.363 63.420
2.31 84.580 62.705
2.32 84.296 60.993
2.33 84.036 58.509
2.34 81.991 55.548
2.35 84.130 53.278
2.36 83.758 52.530
2.37 83.604 52.369
2.38 83.404 52.659
2.39 84.265 54.108
2.40 84.217 56.486
2.41 83.896 58.121
2.42 83.678 58.941
2.43 85.932 60.060
2.44 85.783 61.270
2.45 86.280 62.170
2.46 87.114 63.079
2.47 87.641 63.620
2.48 88.019 64.009
2.49 89.609 64.684
2.50 91.515 65.584
2.51 93.550 66.426
2.52 94.406 66.563
2.53 94.544 65.494
2.54 --undefined-- 62.969
2.55 --undefined-- 58.063
2.56 --undefined-- 49.543
2.57 --undefined-- 39.722
2.58 --undefined-- 45.691
2.59 --undefined-- 53.307
2.60 --undefined-- 57.402
2.61 --undefined-- 59.360
2.62 --undefined-- 59.906
2.63 --undefined-- 59.425
2.64 --undefined-- 62.780
2.65 --undefined-- 66.970
2.66 --undefined-- 68.836
2.67 77.111 69.481
2.68 80.414 69.614
2.69 79.494 68.723
2.70 79.628 66.881
2.71 83.065 65.167
2.72 86.587 63.505
2.73 --undefined-- 60.846
2.74 --undefined-- 56.810
2.75 --undefined-- 53.876
2.76 --undefined-- 54.623
2.77 --undefined-- 54.527
2.78 --undefined-- 53.292
2.79 --undefined-- 53.192
2.80 --undefined-- 55.320
2.81 --undefined-- 57.132
2.82 --undefined-- 57.727
2.83 --undefined-- 57.749
2.84 --undefined-- 57.927
2.85 --undefined-- 57.835
2.86 --undefined-- 57.244
2.87 --undefined-- 57.127
2.88 --undefined-- 57.882
2.89 87.534 58.849
2.90 87.534 59.704
2.91 83.756 60.729
2.92 82.468 61.614
2.93 81.218 61.819
2.94 80.918 61.646
2.95 80.811 61.338
2.96 79.155 60.996
2.97 79.463 61.028
2.98 81.196 60.874
2.99 81.148 59.708
3.00 78.513 57.852
3.01 --undefined-- 55.611
3.02 --undefined-- 53.472
3.03 --undefined-- 53.621
3.04 --undefined-- 54.140
3.05 --undefined-- 54.622
3.06 --undefined-- 57.406
3.07 --undefined-- 61.291
3.08 --undefined-- 62.155
3.09 --undefined-- 59.378
3.10 --undefined-- 54.699
3.11 --undefined-- 51.688
3.12 --undefined-- 50.859
3.13 --undefined-- 50.483
3.14 --undefined-- 49.171
3.15 --undefined-- 47.165
3.16 --undefined-- 44.993
3.17 --undefined-- 43.027
3.18 --undefined-- 43.294
3.19 --undefined-- 46.355
3.20 --undefined-- 50.778
3.21 98.313 54.846
3.22 90.588 57.525
3.23 88.956 60.085
3.24 --undefined-- 63.856
3.25 --undefined-- 66.694
3.26 --undefined-- 67.612
3.27 --undefined-- 67.523
3.28 --undefined-- 67.215
3.29 --undefined-- 65.634
3.30 --undefined-- 61.557
3.31 --undefined-- 54.867
3.32 --undefined-- 48.028
3.33 --undefined-- 46.976
3.34 --undefined-- 47.802
3.35 --undefined-- 48.061
3.36 --undefined-- 47.808
3.37 --undefined-- 47.690
3.38 --undefined-- 48.463
3.39 --undefined-- 49.632
3.40 --undefined-- 50.811
3.41 --undefined-- 51.942
3.42 --undefined-- 52.005
3.43 --undefined-- 49.996
3.44 --undefined-- 46.133
3.45 --undefined-- 46.082
3.46 --undefined-- 54.237
3.47 --undefined-- 59.113
3.48 --undefined-- 62.526
3.49 --undefined-- 66.760
3.50 102.956 69.177
3.51 98.221 69.082
3.52 97.305 67.615
3.53 95.627 66.034
3.54 95.327 64.004
3.55 94.678 61.168
3.56 --undefined-- 57.043
3.57 --undefined-- 52.049
3.58 --undefined-- 49.012
3.59 --undefined-- 47.001
3.60 --undefined-- 45.012
3.61 --undefined-- 43.092
3.62 --undefined-- 40.250
3.63 --undefined-- 38.361
3.64 --undefined-- 41.439
3.65 --undefined-- 43.731
3.66 --undefined-- 43.026
3.67 --undefined-- 43.400
3.68 --undefined-- 46.303
3.69 --undefined-- 48.207
3.70 --undefined-- 49.795
3.71 --undefined-- 51.022
3.72 --undefined-- 50.881
3.73 --undefined-- 49.720
3.74 --undefined-- 48.098
3.75 --undefined-- 46.375
3.76 --undefined-- 44.991
3.77 --undefined-- 43.804
3.78 --undefined-- 43.156
3.79 --undefined-- 42.009
3.80 --undefined-- 40.061
3.81 --undefined-- 37.925
3.82 --undefined-- 35.992
3.83 --undefined-- 35.414
3.84 --undefined-- 36.114
3.85 --undefined-- 40.698
3.86 --undefined-- 46.062
3.87 --undefined-- 49.420
3.88 --undefined-- 52.470
3.89 --undefined-- 56.170
3.90 --undefined-- 58.739
3.91 --undefined-- 59.700
3.92 --undefined-- 59.945
3.93 --undefined-- 60.219
3.94 --undefined-- 59.983
3.95 --undefined-- 59.410
3.96 --undefined-- 59.290
3.97 --undefined-- 59.069
3.98 --undefined-- 59.197
3.99 --undefined-- 59.597
4.00 --undefined-- 64.378
4.01 --undefined-- 72.690
4.02 --undefined-- 78.025
4.03 --undefined-- 80.265
4.04 --undefined-- 80.248
4.05 114.831 78.672
4.06 113.759 75.449
4.07 113.416 70.061
4.08 120.540 62.755
4.09 122.856 58.468
4.10 123.687 58.079
4.11 120.937 58.023
4.12 119.857 58.367
4.13 118.700 58.854
4.14 117.303 59.053
4.15 116.117 58.814
4.16 114.758 58.166
4.17 114.323 57.570
4.18 115.006 58.059
4.19 115.390 60.040
4.20 115.461 60.871
4.21 114.119 59.835
4.22 113.178 59.359
4.23 113.231 60.713
4.24 108.715 63.035
4.25 109.539 66.029
4.26 108.240 68.955
4.27 104.616 70.537
4.28 101.534 70.588
4.29 --undefined-- 69.428
4.30 --undefined-- 67.477
4.31 --undefined-- 64.991
4.32 --undefined-- 61.421
4.33 --undefined-- 55.201
4.34 --undefined-- 45.327
4.35 --undefined-- 38.157
4.36 --undefined-- 40.748
4.37 --undefined-- 47.881
4.38 --undefined-- 55.255
4.39 --undefined-- 61.047
4.40 --undefined-- 64.683
4.41 --undefined-- 66.448
4.42 --undefined-- 67.518
4.43 --undefined-- 69.852
4.44 --undefined-- 71.684
4.45 --undefined-- 71.086
4.46 --undefined-- 68.479
4.47 --undefined-- 66.866
4.48 --undefined-- 66.109
4.49 --undefined-- 63.471
4.50 --undefined-- 59.205
4.51 --undefined-- 55.446
4.52 --undefined-- 53.304
4.53 76.498 52.474
4.54 74.626 51.871
4.55 --undefined-- 50.516
4.56 --undefined-- 48.524
4.57 --undefined-- 47.447
4.58 --undefined-- 46.902
4.59 --undefined-- 45.924
4.60 --undefined-- 44.552
4.61 --undefined-- 42.440
4.62 --undefined-- 40.130
4.63 --undefined-- 38.906
4.64 --undefined-- 37.712
4.65 --undefined-- 35.631
4.66 --undefined-- 33.713
4.67 --undefined-- 32.711
4.68 --undefined-- 32.076
4.69 --undefined-- 32.014
4.70 --undefined-- 31.400
4.71 --undefined-- 31.538
4.72 --undefined-- 34.029
4.73 --undefined-- 35.111
4.74 --undefined-- 34.416
4.75 --undefined-- 34.019
4.76 --undefined-- 34.049
4.77 --undefined-- 34.167
4.78 --undefined-- 34.780
4.79 --undefined-- 35.818
4.80 --undefined-- 36.786
4.81 --undefined-- 37.715
4.82 --undefined-- 38.672
4.83 --undefined-- 39.426
4.84 --undefined-- 39.946
4.85 --undefined-- 39.426
4.86 --undefined-- 37.763
4.87 --undefined-- 36.455
4.88 --undefined-- 35.949
4.89 --undefined-- 34.841
4.90 --undefined-- 33.270
4.91 --undefined-- 32.095
4.92 --undefined-- 31.538
4.93 --undefined-- 32.018
4.94 --undefined-- 34.027
4.95 --undefined-- 35.650
4.96 --undefined-- 38.119
4.97 --undefined-- 43.344
4.98 --undefined-- 46.358
4.99 --undefined-- 47.303
5.00 --undefined-- 50.136
5.01 --undefined-- 55.251
5.02 --undefined-- 60.468
5.03 --undefined-- 63.731
5.04 85.586 64.632
5.05 85.390 64.369
5.06 79.033 64.026
5.07 78.856 63.357
5.08 77.790 62.623
5.09 78.268 62.238
5.10 --undefined-- 61.100
5.11 --undefined-- 59.452
5.12 --undefined-- 58.577
5.13 --undefined-- 56.213
5.14 --undefined-- 50.640
5.15 --undefined-- 42.677
5.16 --undefined-- 36.286
5.17 --undefined-- 33.975
5.18 --undefined-- 33.266
5.19 --undefined-- 34.139
5.20 --undefined-- 35.977
5.21 --undefined-- 36.284
5.22 --undefined-- 34.898
5.23 --undefined-- 33.917
5.24 --undefined-- 34.214
5.25 --undefined-- 34.712
5.26 --undefined-- 36.318
5.27 --undefined-- 45.265
5.28 --undefined-- 51.590
5.29 --undefined-- 54.225
5.30 --undefined-- 57.560
5.31 --undefined-- 62.110
5.32 94.266 64.925
5.33 93.692 66.011
5.34 93.724 65.680
5.35 94.597 64.010
5.36 94.588 60.843
5.37 95.042 57.102
5.38 103.018 56.132
5.39 107.993 56.982
5.40 112.079 57.835
5.41 113.721 58.256
5.42 114.588 57.834
5.43 114.640 56.741
5.44 114.447 55.564
5.45 112.505 54.462
5.46 111.956 54.790
5.47 --undefined-- 58.508
5.48 --undefined-- 60.856
5.49 --undefined-- 59.637
5.50 --undefined-- 56.629
5.51 --undefined-- 56.191
5.52 --undefined-- 56.928
5.53 --undefined-- 58.554
5.54 --undefined-- 61.690
5.55 --undefined-- 65.292
5.56 --undefined-- 68.470
5.57 --undefined-- 70.765
5.58 95.338 71.868
5.59 91.611 71.833
5.60 88.937 71.585
5.61 87.283 71.807
5.62 87.180 72.145
5.63 88.948 72.402
5.64 89.084 72.422
5.65 89.383 71.683
5.66 90.000 69.857
5.67 91.924 66.894
5.68 93.351 63.002
5.69 98.920 59.238
5.70 98.715 56.327
5.71 103.225 55.076
5.72 106.855 54.446
5.73 107.140 53.429
5.74 108.565 53.123
5.75 110.129 54.340
5.76 --undefined-- 54.415
5.77 --undefined-- 51.525
5.78 --undefined-- 46.346
5.79 --undefined-- 42.059
5.80 --undefined-- 39.680
5.81 --undefined-- 44.227
5.82 --undefined-- 52.949
5.83 --undefined-- 58.067
5.84 --undefined-- 59.364
5.85 --undefined-- 57.261
5.86 --undefined-- 54.305
5.87 --undefined-- 54.730
5.88 --undefined-- 55.850
5.89 --undefined-- 56.815
5.90 --undefined-- 58.948
5.91 --undefined-- --undefined--
5.92 83.243 --undefined--
5.93 --undefined-- --undefined--
5.94 --undefined-- --undefined--
