Time Pitch Intensity
0.01 --undefined-- --undefined--
0.02 97.280 --undefined--
0.03 97.587 --undefined--
0.04 98.015 --undefined--
0.05 97.942 70.187
0.06 97.502 70.038
0.07 97.821 69.986
0.08 98.421 69.994
0.09 97.788 69.930
0.10 97.232 69.748
0.11 97.368 69.503
0.12 97.750 69.222
0.13 97.946 68.888
0.14 97.533 68.853
0.15 96.124 69.162
0.16 94.347 69.368
0.17 93.249 69.361
0.18 93.605 69.267
0.19 93.554 69.107
0.20 93.515 68.910
0.21 92.714 68.739
0.22 94.097 68.623
0.23 94.507 68.549
0.24 96.780 68.500
0.25 97.774 68.443
0.26 99.167 68.388
0.27 101.612 68.411
0.28 102.182 68.443
0.29 102.614 68.201
0.30 103.348 67.609
0.31 111.117 67.152
0.32 108.651 66.757
0.33 106.450 65.675
0.34 102.863 63.679
0.35 101.173 60.586
0.36 98.099 56.167
0.37 --undefined-- 51.099
0.38 --undefined-- 47.910
0.39 --undefined-- 47.030
0.40 --undefined-- 46.556
0.41 --undefined-- 46.230
0.42 --undefined-- 46.505
0.43 --undefined-- 47.225
0.44 --undefined-- 47.559
0.45 --undefined-- 47.259
0.46 --undefined-- 45.983
0.47 --undefined-- 43.068
0.48 --undefined-- 39.037
0.49 --undefined-- 36.649
0.50 --undefined-- 36.293
0.51 --undefined-- 35.522
0.52 --undefined-- 34.220
0.53 --undefined-- 34.253
0.54 --undefined-- 34.558
0.55 --undefined-- 37.856
0.56 --undefined-- 47.860
0.57 --undefined-- 57.047
0.58 159.845 63.744
0.59 162.237 67.629
0.60 160.638 69.188
0.61 156.461 69.601
0.62 154.258 69.614
0.63 150.109 68.516
0.64 --undefined-- 66.361
0.65 --undefined-- 66.109
0.66 --undefined-- 68.070
0.67 --undefined-- 69.315
0.68 --undefined-- 68.358
0.69 --undefined-- 64.920
0.70 --undefined-- 60.121
0.71 --undefined-- 56.666
0.72 --undefined-- 56.063
0.73 --undefined-- 56.399
0.74 --undefined-- 57.367
0.75 --undefined-- 58.323
0.76 --undefined-- 58.848
0.77 --undefined-- 59.426
0.78 --undefined-- 59.463
0.79 --undefined-- 58.720
0.80 --undefined-- 58.345
0.81 --undefined-- 58.031
0.82 --undefined-- 57.625
0.83 --undefined-- 59.001
0.84 --undefined-- 62.746
0.85 --undefined-- 67.004
0.86 --undefined-- 70.196
0.87 180.567 71.537
0.88 172.365 71.157
0.89 163.834 69.354
0.90 --undefined-- 66.120
0.91 --undefined-- 62.783
0.92 --undefined-- 60.635
0.93 --undefined-- 57.794
0.94 --undefined-- 54.463
0.95 --undefined-- 53.445
0.96 --undefined-- 54.576
0.97 --undefined-- 55.788
0.98 --undefined-- 56.436
0.99 --undefined-- 57.227
1.00 --undefined-- 59.921
1.01 --undefined-- 63.960
1.02 --undefined-- 66.856
1.03 --undefined-- 67.240
1.04 --undefined-- 65.301
1.05 --undefined-- 62.864
1.06 --undefined-- 62.700
1.07 --undefined-- 62.972
1.08 141.143 61.477
1.09 141.254 58.720
1.10 151.124 57.258
1.11 150.835 57.602
1.12 148.160 59.019
1.13 --undefined-- 62.199
1.14 --undefined-- 65.439
1.15 --undefined-- 68.017
1.16 --undefined-- 70.561
1.17 122.454 72.815
1.18 119.184 74.304
1.19 118.811 75.044
1.20 117.610 75.200
1.21 116.156 74.944
1.22 115.472 74.567
1.23 115.989 74.420
1.24 116.810 74.372
1.25 117.444 73.957
1.26 117.758 72.833
1.27 118.362 71.201
1.28 124.324 69.690
1.29 130.624 68.136
1.30 135.200 66.058
1.31 145.649 62.939
1.32 148.504 57.931
1.33 --undefined-- 50.933
1.34 --undefined-- 45.457
1.35 --undefined-- 45.298
1.36 --undefined-- 48.326
1.37 --undefined-- 54.161
1.38 --undefined-- 58.856
1.39 --undefined-- 61.389
1.40 103.696 62.435
1.41 100.189 62.807
1.42 98.719 63.036
1.43 101.693 63.470
1.44 103.468 63.636
1.45 102.853 63.300
1.46 --undefined-- 63.530
1.47 --undefined-- 64.518
1.48 --undefined-- 65.227
1.49 --undefined-- 64.720
1.50 --undefined-- 62.226
1.51 --undefined-- 57.833
1.52 --undefined-- 55.574
1.53 --undefined-- 57.258
1.54 --undefined-- 59.414
1.55 --undefined-- 61.397
1.56 --undefined-- 63.147
1.57 --undefined-- 65.086
1.58 --undefined-- 67.675
1.59 --undefined-- 69.499
1.60 --undefined-- 69.402
1.61 --undefined-- 68.043
1.62 --undefined-- 66.459
1.63 114.521 64.117
1.64 114.526 60.398
1.65 109.418 56.210
1.66 109.597 53.157
1.67 --undefined-- 50.372
1.68 --undefined-- 46.697
1.69 --undefined-- 42.101
1.70 --undefined-- 37.781
1.71 --undefined-- 35.741
1.72 --undefined-- 34.851
1.73 --undefined-- 34.815
1.74 --undefined-- 35.183
1.75 --undefined-- 35.293
1.76 --undefined-- 39.762
1.77 --undefined-- 49.084
1.78 --undefined-- 55.287
1.79 --undefined-- 58.940
1.80 --undefined-- 61.997
1.81 --undefined-- 65.035
1.82 --undefined-- 67.975
1.83 --undefined-- 70.360
1.84 --undefined-- 72.178
1.85 --undefined-- 72.753
1.86 --undefined-- 71.497
1.87 --undefined-- 68.897
1.88 89.438 66.416
1.89 --undefined-- 65.659
1.90 85.885 65.611
1.91 85.806 65.607
1.92 84.886 65.454
1.93 92.303 65.775
1.94 --undefined-- 65.547
1.95 --undefined-- 62.456
1.96 --undefined-- 56.904
1.97 --undefined-- 54.288
1.98 107.791 54.513
1.99 115.380 55.611
2.00 120.512 59.580
2.01 127.736 65.224
2.02 132.674 68.827
2.03 137.188 70.577
2.04 137.114 71.444
2.05 --undefined-- 71.167
2.06 --undefined-- 68.975
2.07 --undefined-- 64.339
2.08 --undefined-- 57.301
2.09 --undefined-- 55.051
2.10 --undefined-- 58.768
2.11 --undefined-- 59.736
2.12 --undefined-- 59.067
2.13 --undefined-- 58.483
2.14 --undefined-- 57.170
2.15 --undefined-- 56.067
2.16 --undefined-- 56.650
2.17 --undefined-- 60.078
2.18 --undefined-- 64.385
2.19 --undefined-- 67.417
2.20 --undefined-- 68.499
2.21 106.778 67.873
2.22 106.985 66.503
2.23 107.753 65.311
2.24 108.199 64.854
2.25 109.087 65.209
2.26 110.348 65.427
2.27 111.458 65.058
2.28 111.586 63.633
2.29 102.219 60.402
2.30 100.917 56.377
2.31 97.288 54.531
2.32 97.091 57.895
2.33 --undefined-- 64.355
2.34 --undefined-- 68.930
2.35 --undefined-- 70.704
2.36 85.340 70.101
2.37 85.092 68.276
2.38 --undefined-- 66.355
2.39 --undefined-- 65.163
2.40 --undefined-- 64.990
2.41 --undefined-- 62.875
2.42 --undefined-- 57.774
2.43 --undefined-- 50.885
2.44 --undefined-- 44.246
2.45 --undefined-- 38.835
2.46 --undefined-- 35.931
2.47 --undefined-- 36.106
2.48 --undefined-- 37.129
2.49 --undefined-- 37.566
2.50 --undefined-- 36.760
2.51 --undefined-- 35.685
2.52 --undefined-- 36.199
2.53 --undefined-- 37.284
2.54 --undefined-- 40.872
2.55 --undefined-- 44.438
2.56 --undefined-- 44.797
2.57 --undefined-- 42.076
2.58 --undefined-- 39.068
2.59 --undefined-- 38.142
2.60 --undefined-- 37.174
2.61 --undefined-- 36.007
2.62 --undefined-- 35.212
2.63 --undefined-- 34.713
2.64 --undefined-- 34.956
2.65 --undefined-- 35.525
2.66 --undefined-- 35.670
2.67 --undefined-- 35.882
2.68 --undefined-- 36.443
2.69 --undefined-- 37.114
2.70 --undefined-- 37.580
2.71 --undefined-- 37.789
2.72 --undefined-- 38.740
2.73 --undefined-- 40.609
2.74 --undefined-- 41.720
2.75 --undefined-- 41.027
2.76 --undefined-- 38.741
2.77 --undefined-- 36.390
2.78 --undefined-- 35.651
2.79 --undefined-- 36.920
2.80 --undefined-- 39.837
2.81 --undefined-- 42.319
2.82 --undefined-- 43.154
2.83 --undefined-- 42.667
2.84 --undefined-- 41.761
2.85 --undefined-- 41.272
2.86 --undefined-- 42.871
2.87 --undefined-- 49.782
2.88 --undefined-- 58.729
2.89 --undefined-- 64.866
2.90 --undefined-- 67.771
2.91 124.027 68.118
2.92 122.980 67.268
2.93 123.653 66.516
2.94 123.677 65.746
2.95 123.822 64.618
2.96 124.672 63.380
2.97 124.528 62.246
2.98 118.847 60.361
2.99 115.278 57.110
3.00 --undefined-- 52.740
3.01 --undefined-- 48.062
3.02 --undefined-- 43.076
3.03 --undefined-- 37.600
3.04 --undefined-- 35.284
3.05 --undefined-- 37.091
3.06 --undefined-- 47.284
3.07 --undefined-- 59.358
3.08 --undefined-- 67.055
3.09 172.796 70.984
3.10 170.799 72.042
3.11 166.415 71.310
3.12 166.658 69.991
3.13 167.645 68.922
3.14 169.017 68.354
3.15 170.185 68.198
3.16 171.184 68.185
3.17 172.408 68.049
3.18 173.478 67.900
3.19 174.143 67.899
3.20 174.466 67.720
3.21 173.972 66.390
3.22 173.346 62.985
3.23 172.830 58.075
3.24 172.274 55.622
3.25 172.441 55.576
3.26 173.230 56.017
3.27 173.431 56.984
3.28 173.443 59.030
3.29 174.123 62.226
3.30 174.645 65.462
3.31 174.539 68.024
3.32 174.397 69.190
3.33 174.541 68.922
3.34 173.548 68.070
3.35 173.041 67.372
3.36 172.879 66.722
3.37 173.093 65.825
3.38 173.582 64.409
3.39 173.391 61.634
3.40 --undefined-- 56.589
3.41 --undefined-- 50.099
3.42 --undefined-- 47.190
3.43 --undefined-- 49.430
3.44 --undefined-- 55.245
3.45 --undefined-- 62.439
3.46 --undefined-- 67.127
3.47 --undefined-- 69.178
3.48 --undefined-- 69.371
3.49 --undefined-- 68.458
3.50 110.424 66.902
3.51 109.380 65.011
3.52 108.698 63.037
3.53 --undefined-- 60.595
3.54 --undefined-- 56.417
3.55 --undefined-- 50.430
3.56 --undefined-- 45.124
3.57 --undefined-- 45.217
3.58 --undefined-- 54.105
3.59 --undefined-- 61.727
3.60 131.652 66.364
3.61 131.552 68.608
3.62 131.313 69.093
3.63 132.358 68.503
3.64 135.190 67.307
3.65 137.883 65.551
3.66 137.868 63.183
3.67 134.881 59.375
3.68 --undefined-- 53.471
3.69 --undefined-- 47.525
3.70 --undefined-- 44.501
3.71 --undefined-- 43.382
3.72 --undefined-- 43.481
3.73 --undefined-- 52.310
3.74 --undefined-- 62.169
3.75 --undefined-- 66.951
3.76 --undefined-- 67.100
3.77 --undefined-- 62.742
3.78 --undefined-- 55.055
3.79 --undefined-- 52.334
3.80 --undefined-- 53.880
3.81 114.712 59.303
3.82 117.236 64.713
3.83 116.196 68.069
3.84 110.527 69.603
3.85 108.156 69.923
3.86 109.678 69.570
3.87 106.648 68.767
3.88 106.186 66.902
3.89 --undefined-- 64.973
3.90 --undefined-- 65.610
3.91 --undefined-- 67.280
3.92 --undefined-- 68.501
3.93 129.986 69.579
3.94 134.442 70.001
3.95 136.878 69.411
3.96 139.517 68.117
3.97 142.211 66.361
3.98 146.943 64.482
3.99 149.149 62.255
4.00 149.505 58.474
4.01 --undefined-- 54.919
4.02 157.887 59.054
4.03 158.836 63.452
4.04 158.310 65.304
4.05 156.592 65.400
4.06 155.021 64.799
4.07 154.043 63.934
4.08 153.347 62.308
4.09 150.971 60.249
4.10 150.914 59.507
4.11 151.834 59.856
4.12 151.659 61.036
4.13 153.178 63.599
4.14 151.935 66.023
4.15 150.689 67.378
4.16 150.135 67.772
4.17 149.366 67.505
4.18 148.982 67.238
4.19 148.962 67.104
4.20 149.758 67.064
4.21 151.183 67.273
4.22 152.743 67.365
4.23 154.704 66.963
4.24 155.036 66.459
4.25 152.926 65.468
4.26 150.022 63.683
4.27 --undefined-- 63.324
4.28 --undefined-- 65.149
4.29 --undefined-- 66.342
4.30 --undefined-- 66.440
4.31 --undefined-- 66.833
4.32 --undefined-- 66.410
4.33 --undefined-- 64.456
4.34 --undefined-- 64.162
4.35 --undefined-- 66.469
4.36 --undefined-- 68.236
4.37 --undefined-- 68.530
4.38 --undefined-- 67.098
4.39 --undefined-- 64.101
4.40 262.457 61.201
4.41 260.209 59.555
4.42 258.331 56.310
4.43 --undefined-- 49.601
4.44 --undefined-- 41.623
4.45 --undefined-- 37.331
4.46 --undefined-- 35.528
4.47 --undefined-- 35.575
4.48 --undefined-- 36.902
4.49 --undefined-- 37.514
4.50 --undefined-- 37.230
4.51 --undefined-- 36.497
4.52 --undefined-- 36.759
4.53 --undefined-- 36.934
4.54 --undefined-- 35.778
4.55 --undefined-- 35.698
4.56 --undefined-- 36.945
4.57 --undefined-- 37.359
4.58 --undefined-- 36.454
4.59 --undefined-- 36.007
4.60 --undefined-- 37.196
4.61 --undefined-- 38.120
4.62 --undefined-- 37.877
4.63 --undefined-- 37.651
4.64 --undefined-- 37.930
4.65 --undefined-- 37.203
4.66 --undefined-- 36.763
4.67 --undefined-- 41.817
4.68 --undefined-- 53.868
4.69 --undefined-- 62.609
4.70 --undefined-- 67.519
4.71 146.657 69.439
4.72 142.969 69.507
4.73 141.407 69.031
4.74 140.089 68.530
4.75 139.245 68.688
4.76 185.673 69.502
4.77 178.419 69.711
4.78 163.309 69.944
4.79 163.474 70.596
4.80 162.555 71.098
4.81 161.959 71.473
4.82 161.240 71.649
4.83 158.757 71.688
4.84 157.671 71.793
4.85 155.809 71.763
4.86 153.208 71.503
4.87 149.530 71.104
4.88 146.536 70.581
4.89 139.126 70.076
4.90 134.296 70.046
4.91 131.797 70.503
4.92 128.618 70.768
4.93 123.727 70.485
4.94 119.502 69.876
4.95 108.056 69.020
4.96 106.196 67.884
4.97 105.800 66.679
4.98 104.469 65.282
4.99 103.628 63.438
5.00 103.228 61.875
5.01 103.485 60.893
5.02 103.904 59.816
5.03 103.949 58.769
5.04 104.785 58.289
5.05 106.068 58.100
5.06 105.888 57.764
5.07 105.176 56.698
5.08 101.673 54.277
5.09 102.951 50.984
5.10 --undefined-- 47.177
5.11 --undefined-- 44.437
5.12 --undefined-- 45.177
5.13 --undefined-- 47.363
5.14 --undefined-- 52.737
5.15 --undefined-- 61.082
5.16 --undefined-- 67.007
5.17 --undefined-- 69.805
5.18 146.826 70.228
5.19 145.566 68.888
5.20 146.441 66.044
5.21 146.674 61.602
5.22 147.064 56.752
5.23 145.897 55.387
5.24 144.740 55.942
5.25 142.660 56.157
5.26 141.427 55.968
5.27 138.233 55.316
5.28 135.070 53.916
5.29 130.913 51.889
5.30 --undefined-- 52.532
5.31 --undefined-- 57.769
5.32 --undefined-- 62.121
5.33 --undefined-- 64.646
5.34 --undefined-- 66.044
5.35 115.010 67.358
5.36 114.408 68.648
5.37 113.401 69.236
5.38 112.918 68.982
5.39 109.986 68.202
5.40 109.627 67.238
5.41 109.774 66.176
5.42 109.460 65.393
5.43 109.543 64.707
5.44 112.844 64.344
5.45 116.231 64.511
5.46 116.627 64.511
5.47 119.313 64.610
5.48 119.180 64.575
5.49 122.721 64.284
5.50 124.756 64.531
5.51 125.522 65.087
5.52 128.623 65.263
5.53 130.494 65.323
5.54 131.766 65.359
5.55 132.690 65.096
5.56 133.982 64.998
5.57 134.470 64.995
5.58 134.901 64.990
5.59 135.639 65.615
5.60 136.009 66.351
5.61 135.978 66.447
5.62 135.888 66.080
5.63 135.897 65.754
5.64 135.810 65.548
5.65 135.363 65.424
5.66 135.031 65.413
5.67 134.875 65.394
5.68 134.634 65.353
5.69 135.020 65.199
5.70 135.665 64.885
5.71 136.132 64.853
5.72 136.814 64.919
5.73 137.672 65.004
5.74 138.304 65.217
5.75 138.815 65.252
5.76 138.754 65.271
5.77 138.584 65.120
5.78 137.782 64.592
5.79 137.222 63.841
5.80 137.098 63.104
5.81 137.092 62.839
5.82 137.560 63.205
5.83 137.756 63.463
5.84 137.923 --undefined--
5.85 138.065 --undefined--
5.86 --undefined-- --undefined--
5.87 --undefined-- --undefined--
