Time Pitch Intensity
0.01 --undefined-- --undefined--
0.02 --undefined-- --undefined--
0.03 --undefined-- --undefined--
0.04 81.348 --undefined--
0.05 79.474 71.765
0.06 79.732 71.586
0.07 80.102 71.115
0.08 82.975 70.046
0.09 87.174 68.791
0.10 88.607 68.246
0.11 93.564 68.394
0.12 93.747 68.557
0.13 99.733 68.712
0.14 100.083 68.946
0.15 100.382 69.306
0.16 100.551 69.603
0.17 99.623 69.413
0.18 99.249 68.350
0.19 95.880 66.126
0.20 91.817 62.442
0.21 --undefined-- 57.210
0.22 --undefined-- 50.406
0.23 --undefined-- 43.485
0.24 --undefined-- 40.330
0.25 --undefined-- 39.093
0.26 --undefined-- 42.167
0.27 --undefined-- 52.228
0.28 --undefined-- 60.689
0.29 --undefined-- 65.041
0.30 --undefined-- 66.021
0.31 --undefined-- 67.877
0.32 97.240 71.146
0.33 96.625 72.621
0.34 91.014 72.639
0.35 86.412 71.807
0.36 84.912 70.837
0.37 81.391 70.169
0.38 78.995 69.556
0.39 78.873 68.850
0.40 77.505 67.994
0.41 76.309 67.440
0.42 76.208 67.663
0.43 76.417 67.834
0.44 76.347 67.470
0.45 76.346 67.213
0.46 76.627 67.301
0.47 75.957 67.315
0.48 75.470 67.261
0.49 --undefined-- 67.662
0.50 --undefined-- 67.520
0.51 --undefined-- 66.684
0.52 --undefined-- 66.042
0.53 --undefined-- 64.909
0.54 --undefined-- 62.388
0.55 --undefined-- 57.726
0.56 --undefined-- 51.000
0.57 --undefined-- 46.274
0.58 --undefined-- 45.128
0.59 --undefined-- 44.651
0.60 --undefined-- 43.396
0.61 --undefined-- 41.231
0.62 --undefined-- 40.067
0.63 --undefined-- 39.601
0.64 --undefined-- 38.087
0.65 --undefined-- 36.964
0.66 --undefined-- 36.266
0.67 --undefined-- 35.474
0.68 --undefined-- 34.279
0.69 --undefined-- 34.770
0.70 --undefined-- 45.330
0.71 --undefined-- 54.953
0.72 --undefined-- 59.734
0.73 --undefined-- 60.264
0.74 --undefined-- 56.734
0.75 --undefined-- 49.020
0.76 --undefined-- 40.355
0.77 --undefined-- 42.070
0.78 --undefined-- 48.296
0.79 --undefined-- 53.747
0.80 --undefined-- 58.517
0.81 --undefined-- 62.133
0.82 89.008 64.220
0.83 87.398 65.145
0.84 86.520 65.495
0.85 84.716 65.446
0.86 80.994 64.346
0.87 80.809 61.322
0.88 75.747 57.117
0.89 79.792 58.691
0.90 85.736 63.137
0.91 82.575 65.569
0.92 82.161 66.725
0.93 81.843 67.406
0.94 81.323 67.457
0.95 80.912 67.114
0.96 80.889 66.622
0.97 81.082 65.311
0.98 80.573 62.175
0.99 --undefined-- 56.769
1.00 --undefined-- 49.062
1.01 --undefined-- 48.234
1.02 --undefined-- 55.561
1.03 --undefined-- 61.869
1.04 99.754 65.939
1.05 99.424 67.820
1.06 99.562 68.307
1.07 100.201 68.189
1.08 100.426 67.631
1.09 100.403 66.193
1.10 99.332 63.208
1.11 --undefined-- 58.192
1.12 --undefined-- 50.842
1.13 --undefined-- 42.328
1.14 --undefined-- 41.018
1.15 --undefined-- 49.748
1.16 --undefined-- 56.709
1.17 --undefined-- 60.521
1.18 --undefined-- 61.879
1.19 --undefined-- 61.495
1.20 --undefined-- 64.124
1.21 --undefined-- 68.456
1.22 85.990 70.657
1.23 82.363 71.771
1.24 79.149 72.263
1.25 79.340 71.869
1.26 79.561 71.251
1.27 83.325 70.855
1.28 86.304 70.257
1.29 89.867 69.451
1.30 91.605 68.596
1.31 91.811 66.951
1.32 --undefined-- 64.399
1.33 --undefined-- 62.988
1.34 --undefined-- 62.101
1.35 84.157 60.600
1.36 81.532 60.619
1.37 --undefined-- 64.312
1.38 --undefined-- 66.946
1.39 78.428 67.218
1.40 77.371 66.620
1.41 75.241 66.531
1.42 --undefined-- 66.709
1.43 --undefined-- 66.612
1.44 --undefined-- 66.153
1.45 --undefined-- 66.023
1.46 --undefined-- 66.091
1.47 75.141 65.617
1.48 77.927 65.263
1.49 78.890 64.917
1.50 --undefined-- 63.341
1.51 --undefined-- 59.597
1.52 --undefined-- 57.218
1.53 --undefined-- 59.693
1.54 --undefined-- 61.940
1.55 --undefined-- 66.173
1.56 88.947 69.569
1.57 89.113 70.775
1.58 89.659 70.272
1.59 89.964 68.355
1.60 --undefined-- 65.325
1.61 --undefined-- 61.543
1.62 --undefined-- 57.172
1.63 --undefined-- 52.683
1.64 --undefined-- 47.274
1.65 --undefined-- 40.681
1.66 --undefined-- 37.786
1.67 --undefined-- 37.580
1.68 --undefined-- 37.628
1.69 --undefined-- 37.271
1.70 --undefined-- 37.475
1.71 --undefined-- 38.505
1.72 --undefined-- 38.897
1.73 --undefined-- 39.201
1.74 --undefined-- 39.910
1.75 --undefined-- 40.603
1.76 --undefined-- 41.143
1.77 --undefined-- 41.628
1.78 --undefined-- 42.248
1.79 --undefined-- 42.826
1.80 --undefined-- 42.919
1.81 --undefined-- 42.636
1.82 --undefined-- 42.563
1.83 --undefined-- 42.851
1.84 --undefined-- 43.116
1.85 --undefined-- 43.233
1.86 --undefined-- 43.519
1.87 --undefined-- 43.614
1.88 --undefined-- 43.416
1.89 --undefined-- 43.517
1.90 --undefined-- 45.777
1.91 --undefined-- 50.052
1.92 --undefined-- 52.500
1.93 --undefined-- 52.548
1.94 --undefined-- 52.641
1.95 --undefined-- 54.740
1.96 --undefined-- 56.669
1.97 --undefined-- 56.382
1.98 --undefined-- 54.342
1.99 --undefined-- 52.910
2.00 --undefined-- 51.490
2.01 --undefined-- 49.391
2.02 --undefined-- 47.241
2.03 --undefined-- 45.721
2.04 --undefined-- 44.577
2.05 --undefined-- 42.799
2.06 --undefined-- 41.450
2.07 --undefined-- 39.974
2.08 --undefined-- 37.333
2.09 --undefined-- 36.906
2.10 --undefined-- 37.794
2.11 --undefined-- 37.479
2.12 --undefined-- 36.904
2.13 --undefined-- 37.449
2.14 --undefined-- 43.285
2.15 --undefined-- 49.703
2.16 --undefined-- 52.023
2.17 --undefined-- 52.748
2.18 --undefined-- 60.144
2.19 --undefined-- 66.323
2.20 --undefined-- 69.035
2.21 --undefined-- 68.456
2.22 --undefined-- 64.913
2.23 97.015 61.319
2.24 98.529 60.814
2.25 99.942 60.803
2.26 100.758 60.865
2.27 101.219 61.121
2.28 101.598 61.347
2.29 102.111 61.246
2.30 103.030 60.931
2.31 104.148 60.540
2.32 104.111 59.638
2.33 103.408 58.268
2.34 99.545 56.699
2.35 --undefined-- 54.280
2.36 --undefined-- 50.035
2.37 --undefined-- 43.881
2.38 --undefined-- 38.578
2.39 --undefined-- 36.862
2.40 --undefined-- 36.743
2.41 --undefined-- 37.575
2.42 --undefined-- 38.899
2.43 --undefined-- 40.286
2.44 --undefined-- 41.813
2.45 --undefined-- 42.651
2.46 --undefined-- 42.443
2.47 --undefined-- 42.762
2.48 --undefined-- 46.025
2.49 --undefined-- 52.447
2.50 --undefined-- 58.239
2.51 96.737 62.351
2.52 95.336 65.430
2.53 93.582 67.943
2.54 92.289 70.011
2.55 91.459 71.217
2.56 89.869 71.123
2.57 --undefined-- 69.900
2.58 --undefined-- 67.078
2.59 --undefined-- 61.297
2.60 --undefined-- 56.911
2.61 --undefined-- 62.208
2.62 --undefined-- 66.450
2.63 --undefined-- 68.773
2.64 90.077 69.213
2.65 87.617 68.222
2.66 84.875 66.825
2.67 84.837 66.158
2.68 84.519 66.028
2.69 84.210 65.798
2.70 84.183 65.694
2.71 84.408 66.016
2.72 83.077 66.476
2.73 83.724 67.212
2.74 84.925 67.987
2.75 85.281 68.000
2.76 85.821 67.061
2.77 87.215 66.026
2.78 88.093 65.702
2.79 88.601 65.868
2.80 89.310 66.191
2.81 88.753 66.271
2.82 88.197 66.099
2.83 87.938 65.959
2.84 87.120 65.535
2.85 86.444 64.447
2.86 86.475 62.666
2.87 84.984 59.847
2.88 --undefined-- 55.237
2.89 --undefined-- 48.313
2.90 --undefined-- 39.950
2.91 --undefined-- 36.721
2.92 --undefined-- 35.707
2.93 --undefined-- 35.643
2.94 --undefined-- 44.913
2.95 --undefined-- 56.233
2.96 --undefined-- 63.414
2.97 --undefined-- 68.617
2.98 --undefined-- 71.976
2.99 94.614 73.190
3.00 93.103 73.028
3.01 95.075 72.336
3.02 96.898 71.452
3.03 98.625 70.764
3.04 100.322 70.214
3.05 102.722 68.985
3.06 103.852 66.793
3.07 104.388 64.786
3.08 105.277 64.656
3.09 103.150 65.352
3.10 98.796 66.092
3.11 95.305 67.075
3.12 91.810 67.689
3.13 89.637 67.472
3.14 88.177 66.845
3.15 87.818 66.392
3.16 86.798 65.720
3.17 86.589 63.983
3.18 --undefined-- 60.400
3.19 --undefined-- 54.411
3.20 --undefined-- 46.215
3.21 --undefined-- 43.665
3.22 --undefined-- 55.617
3.23 --undefined-- 62.695
3.24 --undefined-- 65.294
3.25 --undefined-- 64.250
3.26 --undefined-- 62.622
3.27 --undefined-- 67.308
3.28 --undefined-- 70.695
3.29 --undefined-- 71.021
3.30 --undefined-- 68.842
3.31 --undefined-- 64.196
3.32 --undefined-- 56.830
3.33 --undefined-- 47.499
3.34 --undefined-- 42.096
3.35 --undefined-- 40.267
3.36 --undefined-- 45.397
3.37 --undefined-- 52.653
3.38 --undefined-- 55.448
3.39 --undefined-- 53.634
3.40 --undefined-- 47.033
3.41 --undefined-- 38.146
3.42 --undefined-- 46.617
3.43 --undefined-- 56.226
3.44 --undefined-- 62.845
3.45 --undefined-- 68.549
3.46 110.753 72.321
3.47 110.397 73.549
3.48 107.392 73.139
3.49 104.276 72.222
3.50 98.723 70.729
3.51 92.961 68.274
3.52 90.285 65.880
3.53 90.261 65.221
3.54 91.441 64.980
3.55 93.349 64.081
3.56 94.420 62.962
3.57 95.375 61.481
3.58 96.293 60.084
3.59 96.970 60.924
3.60 97.473 64.169
3.61 96.424 66.692
3.62 96.942 67.906
3.63 95.813 68.461
3.64 95.384 68.270
3.65 92.850 67.158
3.66 90.701 65.734
3.67 89.413 64.396
3.68 88.783 62.663
3.69 87.989 60.927
3.70 85.745 59.506
3.71 84.215 57.486
3.72 82.285 55.055
3.73 81.619 52.489
3.74 79.112 50.741
3.75 78.894 50.605
3.76 --undefined-- 51.554
3.77 78.225 53.108
3.78 77.152 55.342
3.79 77.886 57.637
3.80 78.318 59.745
3.81 79.710 61.196
3.82 80.523 61.393
3.83 80.537 61.048
3.84 81.808 60.620
3.85 82.358 60.264
3.86 83.473 60.356
3.87 84.584 60.285
3.88 84.452 59.338
3.89 83.894 57.033
3.90 --undefined-- 52.859
3.91 --undefined-- 46.391
3.92 --undefined-- 48.302
3.93 --undefined-- 55.512
3.94 --undefined-- 58.606
3.95 --undefined-- 59.725
3.96 --undefined-- 62.380
3.97 --undefined-- 64.340
3.98 --undefined-- 64.415
3.99 --undefined-- 64.020
4.00 77.103 63.679
4.01 75.092 62.949
4.02 75.132 62.356
4.03 76.722 62.269
4.04 --undefined-- 61.941
4.05 --undefined-- 61.565
4.06 --undefined-- 60.361
4.07 --undefined-- 57.477
4.08 --undefined-- 54.600
4.09 --undefined-- 54.002
4.10 --undefined-- 54.976
4.11 --undefined-- 56.092
4.12 --undefined-- 56.965
4.13 --undefined-- 57.928
4.14 --undefined-- 58.887
4.15 --undefined-- 59.516
4.16 --undefined-- 59.732
4.17 --undefined-- 60.325
4.18 --undefined-- 62.213
4.19 82.402 64.852
4.20 82.587 66.852
4.21 80.147 67.900
4.22 77.125 68.040
4.23 --undefined-- 67.208
4.24 --undefined-- 65.402
4.25 --undefined-- 63.466
4.26 --undefined-- 62.011
4.27 --undefined-- 60.846
4.28 --undefined-- 60.517
4.29 --undefined-- 60.372
4.30 --undefined-- 59.833
4.31 --undefined-- 59.720
4.32 --undefined-- 60.320
4.33 --undefined-- 60.107
4.34 --undefined-- 58.868
4.35 --undefined-- 57.448
4.36 --undefined-- 55.719
4.37 --undefined-- 53.242
4.38 --undefined-- 49.732
4.39 --undefined-- 45.635
4.40 --undefined-- 42.012
4.41 --undefined-- 38.714
4.42 --undefined-- 36.821
4.43 --undefined-- 36.582
4.44 --undefined-- 35.757
4.45 --undefined-- 34.906
4.46 --undefined-- 35.069
4.47 --undefined-- 36.598
4.48 --undefined-- 41.051
4.49 --undefined-- 44.524
4.50 --undefined-- 45.831
4.51 --undefined-- 46.825
4.52 --undefined-- 48.211
4.53 --undefined-- 51.503
4.54 --undefined-- 54.517
4.55 --undefined-- 55.407
4.56 --undefined-- 54.995
4.57 --undefined-- 53.591
4.58 --undefined-- 52.251
4.59 --undefined-- 54.680
4.60 --undefined-- 59.908
4.61 --undefined-- 63.458
4.62 93.422 65.287
4.63 91.565 66.227
4.64 89.263 66.535
4.65 87.714 65.899
4.66 86.486 64.179
4.67 84.514 61.515
4.68 82.841 58.137
4.69 82.165 55.052
4.70 80.425 53.571
4.71 79.227 52.870
4.72 78.324 51.674
4.73 78.003 51.076
4.74 --undefined-- 55.902
4.75 --undefined-- 61.591
4.76 81.474 65.284
4.77 81.601 67.626
4.78 81.862 68.931
4.79 82.226 69.185
4.80 82.495 68.554
4.81 84.097 67.535
4.82 84.693 66.755
4.83 84.658 66.181
4.84 83.978 65.264
4.85 82.838 63.585
4.86 81.605 61.187
4.87 81.888 58.022
4.88 82.345 54.019
4.89 80.647 50.514
4.90 --undefined-- 49.027
4.91 80.222 49.063
4.92 79.046 49.453
4.93 78.183 50.040
4.94 77.567 50.893
4.95 77.336 51.292
4.96 77.265 51.583
4.97 --undefined-- 51.279
4.98 74.568 50.350
4.99 74.946 49.850
5.00 --undefined-- 49.447
5.01 --undefined-- 49.098
5.02 --undefined-- 48.408
5.03 --undefined-- 47.317
5.04 --undefined-- 46.634
5.05 --undefined-- 49.415
5.06 --undefined-- 55.555
5.07 --undefined-- 59.536
5.08 --undefined-- 61.768
5.09 --undefined-- 62.793
5.10 --undefined-- 62.431
5.11 --undefined-- 62.312
5.12 --undefined-- 62.723
5.13 --undefined-- 62.646
5.14 --undefined-- 62.881
5.15 --undefined-- 63.083
5.16 --undefined-- 62.885
5.17 --undefined-- 62.371
5.18 --undefined-- 61.944
5.19 --undefined-- 61.803
5.20 --undefined-- 61.510
5.21 --undefined-- 61.096
5.22 --undefined-- 60.150
5.23 --undefined-- 59.178
5.24 --undefined-- 59.092
5.25 --undefined-- 58.837
5.26 --undefined-- 57.960
5.27 --undefined-- 56.846
5.28 --undefined-- 56.614
5.29 --undefined-- 57.086
5.30 --undefined-- 56.834
5.31 --undefined-- 56.023
5.32 --undefined-- 55.623
5.33 --undefined-- 56.139
5.34 --undefined-- 55.934
5.35 --undefined-- 54.674
5.36 --undefined-- 53.972
5.37 --undefined-- 53.250
5.38 --undefined-- 51.855
5.39 --undefined-- 49.961
5.40 --undefined-- 46.731
5.41 --undefined-- 41.500
5.42 --undefined-- 36.781
5.43 --undefined-- 33.994
5.44 --undefined-- 31.875
5.45 --undefined-- 31.265
5.46 --undefined-- 32.188
5.47 --undefined-- 34.203
5.48 --undefined-- 35.431
5.49 --undefined-- 35.275
5.50 --undefined-- 36.097
5.51 --undefined-- 40.977
5.52 --undefined-- 52.835
5.53 --undefined-- 61.637
5.54 --undefined-- 66.057
5.55 --undefined-- 66.561
5.56 --undefined-- 63.488
5.57 --undefined-- 61.306
5.58 --undefined-- 64.201
5.59 --undefined-- 65.691
5.60 78.812 65.331
5.61 77.743 64.079
5.62 75.754 62.883
5.63 75.355 61.579
5.64 75.234 59.961
5.65 75.185 58.385
5.66 75.251 56.597
5.67 75.199 53.752
5.68 --undefined-- 48.852
5.69 --undefined-- 42.536
5.70 --undefined-- 47.989
5.71 --undefined-- 54.912
5.72 --undefined-- 58.925
5.73 --undefined-- 62.220
5.74 82.768 64.474
5.75 80.187 65.310
5.76 79.674 65.426
5.77 77.936 65.364
5.78 76.366 64.806
5.79 75.028 63.806
5.80 75.092 63.250
5.81 75.152 63.256
5.82 75.273 --undefined--
5.83 75.858 --undefined--
5.84 --undefined-- --undefined--
5.85 --undefined-- --undefined--
