Time Pitch Intensity
0.01 --undefined-- --undefined--
0.02 231.933 --undefined--
0.03 236.125 --undefined--
0.04 237.110 --undefined--
0.05 238.724 72.778
0.06 242.458 72.555
0.07 245.559 72.295
0.08 247.006 72.064
0.09 246.067 71.903
0.10 243.166 71.928
0.11 234.523 72.110
0.12 221.381 72.348
0.13 209.389 72.700
0.14 197.236 72.928
0.15 186.723 72.473
0.16 178.738 71.362
0.17 175.090 70.052
0.18 171.609 68.974
0.19 171.608 68.514
0.20 173.707 67.994
0.21 173.120 65.977
0.22 171.181 61.775
0.23 179.890 56.081
0.24 --undefined-- 53.515
0.25 --undefined-- 56.820
0.26 202.450 62.667
0.27 191.948 66.441
0.28 179.742 67.594
0.29 169.242 67.409
0.30 166.697 67.376
0.31 165.376 67.264
0.32 162.751 66.742
0.33 162.273 66.496
0.34 161.300 66.708
0.35 159.932 67.092
0.36 157.828 67.569
0.37 155.502 68.712
0.38 143.962 70.247
0.39 139.689 71.087
0.40 136.877 71.291
0.41 135.446 71.367
0.42 134.849 71.410
0.43 134.570 71.243
0.44 135.630 70.799
0.45 138.311 70.122
0.46 144.128 69.259
0.47 146.623 67.786
0.48 140.754 64.939
0.49 --undefined-- 60.643
0.50 --undefined-- 56.494
0.51 --undefined-- 52.720
0.52 --undefined-- 46.996
0.53 --undefined-- 45.500
0.54 --undefined-- 55.296
0.55 --undefined-- 62.156
0.56 --undefined-- 65.153
0.57 --undefined-- 66.733
0.58 --undefined-- 70.184
0.59 182.312 72.545
0.60 179.816 72.937
0.61 175.344 72.406
0.62 172.123 71.424
0.63 168.916 69.505
0.64 165.819 66.176
0.65 167.049 61.547
0.66 171.195 56.772
0.67 175.783 53.325
0.68 --undefined-- 50.172
0.69 --undefined-- 46.660
0.70 --undefined-- 50.936
0.71 --undefined-- 58.774
0.72 --undefined-- 63.952
0.73 --undefined-- 68.366
0.74 193.204 71.503
0.75 189.891 72.603
0.76 185.053 72.562
0.77 181.379 72.345
0.78 179.152 72.067
0.79 178.042 71.767
0.80 178.035 71.325
0.81 178.358 70.706
0.82 177.610 70.170
0.83 172.219 69.333
0.84 168.788 67.207
0.85 170.730 63.931
0.86 187.293 64.034
0.87 183.393 67.627
0.88 181.514 70.262
0.89 177.370 71.455
0.90 175.042 71.658
0.91 174.489 71.165
0.92 170.509 69.190
0.93 166.464 64.851
0.94 175.053 58.148
0.95 --undefined-- 51.440
0.96 --undefined-- 49.785
0.97 --undefined-- 53.015
0.98 --undefined-- 56.275
0.99 --undefined-- 58.312
1.00 --undefined-- 58.982
1.01 --undefined-- 58.482
1.02 --undefined-- 57.652
1.03 --undefined-- 59.298
1.04 193.226 64.245
1.05 175.751 67.619
1.06 168.225 69.141
1.07 161.487 69.772
1.08 157.598 69.907
1.09 154.340 69.651
1.10 151.576 69.261
1.11 149.723 68.752
1.12 149.202 67.968
1.13 148.001 67.176
1.14 149.858 66.837
1.15 149.671 66.846
1.16 149.961 67.000
1.17 150.261 67.101
1.18 148.406 67.046
1.19 146.725 66.922
1.20 147.135 66.777
1.21 148.628 66.591
1.22 149.837 66.133
1.23 148.824 64.886
1.24 150.959 62.378
1.25 155.453 58.820
1.26 --undefined-- 57.584
1.27 --undefined-- 60.608
1.28 191.155 64.049
1.29 195.670 65.690
1.30 181.420 64.902
1.31 164.121 62.866
1.32 144.285 61.940
1.33 133.063 62.244
1.34 134.543 63.690
1.35 136.863 66.481
1.36 140.767 69.264
1.37 145.426 70.953
1.38 147.298 71.717
1.39 149.514 72.117
1.40 154.754 72.340
1.41 162.350 72.453
1.42 170.731 72.076
1.43 175.488 71.214
1.44 203.984 71.755
1.45 218.529 73.379
1.46 234.156 74.317
1.47 247.612 74.303
1.48 253.683 73.723
1.49 256.171 72.823
1.50 256.409 71.176
1.51 259.810 68.178
1.52 272.062 63.458
1.53 259.103 57.278
1.54 257.195 51.447
1.55 --undefined-- 47.540
1.56 --undefined-- 45.123
1.57 --undefined-- 44.365
1.58 --undefined-- 45.000
1.59 --undefined-- 46.315
1.60 --undefined-- 47.266
1.61 --undefined-- 48.013
1.62 --undefined-- 48.779
1.63 --undefined-- 48.606
1.64 --undefined-- 48.295
1.65 --undefined-- 49.284
1.66 --undefined-- 50.147
1.67 --undefined-- 49.886
1.68 --undefined-- 49.156
1.69 --undefined-- 48.701
1.70 --undefined-- 48.800
1.71 --undefined-- 49.547
1.72 --undefined-- 50.181
1.73 --undefined-- 49.746
1.74 --undefined-- 48.587
1.75 --undefined-- 48.129
1.76 --undefined-- 47.952
1.77 --undefined-- 46.671
1.78 --undefined-- 45.098
1.79 --undefined-- 43.410
1.80 --undefined-- 41.247
1.81 --undefined-- 41.126
1.82 --undefined-- 41.512
1.83 --undefined-- 40.620
1.84 --undefined-- 39.869
1.85 --undefined-- 39.020
1.86 --undefined-- 38.527
1.87 --undefined-- 40.610
1.88 --undefined-- 46.661
1.89 --undefined-- 53.201
1.90 --undefined-- 57.825
1.91 --undefined-- 61.234
1.92 --undefined-- 65.823
1.93 219.213 70.119
1.94 216.600 72.511
1.95 212.837 73.351
1.96 181.685 73.512
1.97 175.048 73.502
1.98 167.873 73.283
1.99 164.274 72.556
2.00 162.521 70.852
2.01 159.586 68.918
2.02 163.558 68.507
2.03 165.397 69.006
2.04 166.580 69.545
2.05 168.043 69.795
2.06 169.674 69.729
2.07 171.164 69.565
2.08 172.081 69.395
2.09 173.193 69.254
2.10 177.280 69.678
2.11 180.051 70.946
2.12 182.093 72.330
2.13 185.138 73.044
2.14 185.561 72.927
2.15 184.377 72.406
2.16 182.761 71.386
2.17 179.244 68.817
2.18 166.267 64.155
2.19 196.278 58.640
2.20 198.151 53.507
2.21 --undefined-- 48.178
2.22 --undefined-- 47.823
2.23 --undefined-- 57.856
2.24 --undefined-- 66.087
2.25 246.388 70.721
2.26 244.117 72.426
2.27 244.767 72.369
2.28 247.792 71.855
2.29 253.777 71.427
2.30 260.656 71.030
2.31 266.410 70.697
2.32 269.564 70.809
2.33 270.327 71.367
2.34 268.373 72.076
2.35 263.768 72.714
2.36 256.853 72.961
2.37 245.799 72.958
2.38 231.708 73.066
2.39 220.811 73.028
2.40 211.282 72.516
2.41 204.008 71.773
2.42 201.449 70.622
2.43 201.333 68.127
2.44 197.660 63.743
2.45 200.377 57.697
2.46 --undefined-- 50.907
2.47 --undefined-- 47.731
2.48 --undefined-- 50.474
2.49 --undefined-- 58.580
2.50 251.812 65.766
2.51 238.135 70.019
2.52 234.159 71.937
2.53 230.987 72.244
2.54 228.199 71.253
2.55 224.219 69.014
2.56 220.951 66.753
2.57 225.069 65.835
2.58 227.631 65.219
2.59 229.139 64.335
2.60 231.406 63.599
2.61 239.521 64.207
2.62 251.817 67.065
2.63 252.999 70.288
2.64 249.261 72.123
2.65 242.720 72.646
2.66 235.642 72.589
2.67 231.493 72.248
2.68 229.461 71.484
2.69 228.824 70.090
2.70 227.531 68.258
2.71 225.305 66.870
2.72 226.035 66.464
2.73 228.531 66.515
2.74 229.654 66.357
2.75 229.047 65.695
2.76 227.133 64.306
2.77 225.147 61.884
2.78 227.113 57.926
2.79 --undefined-- 52.103
2.80 --undefined-- 47.504
2.81 --undefined-- 47.439
2.82 --undefined-- 47.156
2.83 --undefined-- 46.857
2.84 --undefined-- 47.610
2.85 --undefined-- 51.699
2.86 260.884 59.146
2.87 248.337 64.164
2.88 233.089 66.566
2.89 227.728 67.418
2.90 224.795 67.655
2.91 223.974 67.822
2.92 224.792 68.335
2.93 227.730 69.412
2.94 231.789 70.663
2.95 234.682 71.545
2.96 234.888 71.927
2.97 234.116 72.010
2.98 232.420 72.109
2.99 232.273 72.274
3.00 230.837 72.330
3.01 228.929 72.278
3.02 225.524 72.136
3.03 217.971 71.938
3.04 209.924 71.869
3.05 201.974 71.888
3.06 194.104 71.809
3.07 187.173 71.821
3.08 181.828 72.248
3.09 177.417 73.010
3.10 173.103 73.775
3.11 169.669 74.164
3.12 168.326 74.037
3.13 168.984 73.639
3.14 170.007 73.263
3.15 171.244 73.088
3.16 173.487 73.285
3.17 174.428 73.599
3.18 173.953 73.545
3.19 174.218 73.168
3.20 174.617 72.719
3.21 175.156 72.230
3.22 176.439 71.896
3.23 178.764 71.879
3.24 181.578 72.112
3.25 183.730 72.327
3.26 185.743 72.280
3.27 187.029 72.100
3.28 188.835 72.089
3.29 190.016 72.085
3.30 190.972 71.790
3.31 191.851 71.355
3.32 192.689 70.851
3.33 193.509 70.162
3.34 192.953 69.217
3.35 189.716 67.436
3.36 182.473 64.138
3.37 189.327 59.268
3.38 192.073 53.208
3.39 --undefined-- 48.229
3.40 --undefined-- 49.713
3.41 --undefined-- 52.799
3.42 --undefined-- 54.889
3.43 --undefined-- 55.962
3.44 --undefined-- 57.957
3.45 255.005 62.768
3.46 250.640 66.335
3.47 249.685 67.946
3.48 247.094 68.719
3.49 240.696 69.479
3.50 235.534 70.356
3.51 228.448 71.270
3.52 223.702 72.131
3.53 220.858 72.579
3.54 219.032 72.312
3.55 217.798 71.177
3.56 217.233 69.973
3.57 220.073 69.925
3.58 218.297 70.412
3.59 214.716 70.877
3.60 211.163 71.287
3.61 207.367 71.607
3.62 202.787 71.772
3.63 193.384 71.708
3.64 184.947 71.459
3.65 179.584 71.140
3.66 176.188 70.916
3.67 173.861 71.077
3.68 172.204 71.230
3.69 170.177 70.431
3.70 163.073 68.108
3.71 157.285 64.233
3.72 154.283 59.362
3.73 162.017 54.746
3.74 164.483 51.086
3.75 --undefined-- 48.264
3.76 --undefined-- 47.678
3.77 --undefined-- 50.393
3.78 --undefined-- 54.557
3.79 --undefined-- 58.982
3.80 --undefined-- 64.692
3.81 174.592 69.033
3.82 178.425 71.032
3.83 176.143 71.495
3.84 173.872 71.483
3.85 171.965 71.268
3.86 168.268 70.871
3.87 170.483 70.602
3.88 170.760 70.415
3.89 170.831 70.252
3.90 170.227 70.090
3.91 169.729 69.809
3.92 168.980 69.371
3.93 167.115 68.665
3.94 163.897 67.526
3.95 160.805 65.501
3.96 158.704 62.240
3.97 159.099 58.024
3.98 159.037 55.668
3.99 --undefined-- 59.821
4.00 --undefined-- 63.573
4.01 --undefined-- 67.252
4.02 206.375 70.640
4.03 206.605 72.372
4.04 206.418 72.720
4.05 206.686 72.481
4.06 206.937 72.203
4.07 208.378 72.052
4.08 209.134 71.890
4.09 209.124 71.577
4.10 208.884 71.253
4.11 208.464 71.087
4.12 207.965 70.959
4.13 206.665 70.748
4.14 205.352 70.438
4.15 203.816 70.051
4.16 201.600 69.608
4.17 198.495 69.028
4.18 196.668 68.169
4.19 199.964 67.004
4.20 213.339 65.553
4.21 217.518 65.132
4.22 202.464 68.009
4.23 200.487 70.955
4.24 191.759 72.243
4.25 187.546 72.309
4.26 181.855 71.907
4.27 175.691 71.560
4.28 170.759 71.490
4.29 167.109 71.581
4.30 164.957 71.635
4.31 163.393 71.608
4.32 162.648 71.291
4.33 163.311 70.803
4.34 164.173 70.440
4.35 164.775 69.910
4.36 164.728 68.703
4.37 165.185 66.751
4.38 170.867 64.855
4.39 173.428 63.717
4.40 172.323 63.485
4.41 176.469 64.085
4.42 178.160 64.973
4.43 174.739 65.765
4.44 171.942 66.386
4.45 168.598 67.206
4.46 163.895 68.455
4.47 160.192 69.729
4.48 157.002 70.450
4.49 153.747 70.584
4.50 151.348 70.125
4.51 148.703 68.581
4.52 145.571 65.448
4.53 143.631 60.645
4.54 148.096 54.645
4.55 --undefined-- 48.476
4.56 --undefined-- 43.368
4.57 --undefined-- 41.800
4.58 --undefined-- 46.470
4.59 --undefined-- 52.078
4.60 --undefined-- 54.418
4.61 --undefined-- 53.843
4.62 --undefined-- 51.774
4.63 --undefined-- 48.583
4.64 --undefined-- 44.739
4.65 --undefined-- 43.022
4.66 --undefined-- 43.650
4.67 --undefined-- 46.211
4.68 --undefined-- 54.329
4.69 --undefined-- 64.287
4.70 231.902 70.343
4.71 223.189 72.895
4.72 215.232 73.144
4.73 208.617 72.703
4.74 206.390 72.341
4.75 205.692 71.820
4.76 205.995 71.157
4.77 206.523 70.550
4.78 206.223 70.174
4.79 205.721 69.977
4.80 205.664 69.517
4.81 204.854 68.564
4.82 206.688 67.233
4.83 205.765 65.263
4.84 201.287 62.679
4.85 208.672 62.245
4.86 220.877 66.318
4.87 212.054 69.444
4.88 199.290 70.601
4.89 183.871 70.444
4.90 175.517 69.367
4.91 166.370 68.088
4.92 163.785 67.440
4.93 160.483 67.179
4.94 157.831 67.288
4.95 153.675 68.671
4.96 149.164 70.574
4.97 146.632 71.592
4.98 141.620 71.479
4.99 137.230 70.684
5.00 136.403 69.898
5.01 135.923 69.011
5.02 136.001 67.181
5.03 137.163 63.904
5.04 148.630 59.032
5.05 164.733 52.800
5.06 --undefined-- 48.232
5.07 --undefined-- 51.524
5.08 --undefined-- 54.724
5.09 --undefined-- 59.204
5.10 --undefined-- 65.016
5.11 151.629 68.523
5.12 144.645 --undefined--
5.13 132.028 --undefined--
5.14 --undefined-- --undefined--
5.15 --undefined-- --undefined--
