Time Pitch Intensity
0.01 --undefined-- --undefined--
0.02 160.633 --undefined--
0.03 --undefined-- --undefined--
0.04 --undefined-- --undefined--
0.05 --undefined-- 49.901
0.06 --undefined-- 48.469
0.07 --undefined-- 47.463
0.08 --undefined-- 47.570
0.09 --undefined-- 48.598
0.10 --undefined-- 52.067
0.11 --undefined-- 61.423
0.12 216.397 70.469
0.13 209.076 76.316
0.14 203.296 78.751
0.15 193.791 78.525
0.16 188.378 77.517
0.17 188.949 77.146
0.18 188.991 76.588
0.19 187.015 74.983
0.20 185.271 71.241
0.21 176.116 65.700
0.22 176.579 62.732
0.23 176.789 62.669
0.24 178.324 63.245
0.25 180.863 64.009
0.26 182.618 64.556
0.27 182.395 64.714
0.28 180.440 63.949
0.29 173.848 61.426
0.30 --undefined-- 56.787
0.31 --undefined-- 51.416
0.32 --undefined-- 47.898
0.33 --undefined-- 47.565
0.34 --undefined-- 53.840
0.35 --undefined-- 60.807
0.36 --undefined-- 65.056
0.37 --undefined-- 67.708
0.38 --undefined-- 69.865
0.39 --undefined-- 70.856
0.40 124.828 70.978
0.41 123.043 70.869
0.42 125.581 71.080
0.43 129.406 71.415
0.44 133.804 70.832
0.45 137.979 69.046
0.46 145.608 66.614
0.47 152.260 64.957
0.48 158.448 65.056
0.49 162.971 65.477
0.50 165.456 65.567
0.51 165.287 65.194
0.52 163.752 63.935
0.53 162.048 61.205
0.54 --undefined-- 56.275
0.55 --undefined-- 49.656
0.56 --undefined-- 51.191
0.57 --undefined-- 58.786
0.58 157.168 65.271
0.59 156.569 69.813
0.60 152.473 72.376
0.61 146.060 73.345
0.62 140.530 73.483
0.63 137.625 73.241
0.64 134.089 72.296
0.65 131.437 70.140
0.66 129.104 66.642
0.67 128.180 62.339
0.68 126.124 58.745
0.69 122.327 56.911
0.70 118.001 57.988
0.71 114.694 62.088
0.72 114.041 66.674
0.73 113.842 70.341
0.74 114.043 73.017
0.75 114.455 74.699
0.76 114.121 75.488
0.77 113.618 75.926
0.78 113.087 76.503
0.79 112.205 76.975
0.80 111.304 76.997
0.81 109.810 76.522
0.82 109.003 75.717
0.83 108.839 74.816
0.84 108.358 73.812
0.85 108.996 72.774
0.86 109.722 71.923
0.87 111.194 71.084
0.88 112.267 70.309
0.89 112.610 69.485
0.90 111.045 68.420
0.91 110.220 67.591
0.92 --undefined-- 65.722
0.93 --undefined-- 61.205
0.94 --undefined-- 55.224
0.95 --undefined-- 52.962
0.96 --undefined-- 52.236
0.97 --undefined-- 49.805
0.98 --undefined-- 47.188
0.99 --undefined-- 45.109
1.00 --undefined-- 43.256
1.01 --undefined-- 41.956
1.02 --undefined-- 41.836
1.03 --undefined-- 41.512
1.04 --undefined-- 38.855
1.05 --undefined-- 37.489
1.06 --undefined-- 41.679
1.07 --undefined-- 46.139
1.08 --undefined-- 51.110
1.09 --undefined-- 55.710
1.10 --undefined-- 61.654
1.11 162.479 67.431
1.12 161.164 71.183
1.13 158.661 73.026
1.14 153.805 73.228
1.15 150.886 71.802
1.16 149.160 68.440
1.17 144.219 63.207
1.18 142.957 59.358
1.19 143.997 59.207
1.20 145.371 59.532
1.21 147.612 59.886
1.22 149.564 60.778
1.23 150.520 62.111
1.24 150.754 63.202
1.25 150.817 63.839
1.26 150.497 64.319
1.27 149.482 64.568
1.28 147.374 64.081
1.29 140.811 62.275
1.30 --undefined-- 58.456
1.31 --undefined-- 52.212
1.32 --undefined-- 45.687
1.33 --undefined-- 43.115
1.34 --undefined-- 40.813
1.35 --undefined-- 39.052
1.36 --undefined-- 40.163
1.37 --undefined-- 43.019
1.38 --undefined-- 45.141
1.39 --undefined-- 45.429
1.40 --undefined-- 45.878
1.41 --undefined-- 52.936
1.42 --undefined-- 59.908
1.43 124.892 64.759
1.44 120.449 68.047
1.45 118.448 69.689
1.46 120.903 70.046
1.47 122.233 70.080
1.48 123.567 70.296
1.49 125.223 70.705
1.50 128.171 71.489
1.51 132.501 72.459
1.52 136.724 73.117
1.53 140.724 73.104
1.54 146.112 72.647
1.55 152.541 72.418
1.56 158.063 72.802
1.57 163.351 73.682
1.58 168.861 74.632
1.59 173.476 75.110
1.60 176.875 74.568
1.61 182.244 72.632
1.62 --undefined-- 69.513
1.63 139.120 67.329
1.64 141.026 66.478
1.65 140.121 65.626
1.66 138.995 64.709
1.67 107.137 63.346
1.68 109.693 61.115
1.69 --undefined-- 56.681
1.70 --undefined-- 48.599
1.71 --undefined-- 38.957
1.72 --undefined-- 36.616
1.73 --undefined-- 35.749
1.74 --undefined-- 35.934
1.75 --undefined-- 36.655
1.76 --undefined-- 38.642
1.77 --undefined-- 39.582
1.78 --undefined-- 38.093
1.79 --undefined-- 34.332
1.80 --undefined-- 30.615
1.81 --undefined-- 32.950
1.82 --undefined-- 41.545
1.83 --undefined-- 47.689
1.84 --undefined-- 50.183
1.85 --undefined-- 49.886
1.86 --undefined-- 48.204
1.87 --undefined-- 49.481
1.88 --undefined-- 57.629
1.89 127.099 64.096
1.90 127.598 67.761
1.91 126.718 69.151
1.92 123.241 68.662
1.93 120.837 66.961
1.94 118.777 65.499
1.95 117.488 65.203
1.96 116.055 65.078
1.97 114.746 64.461
1.98 113.214 63.939
1.99 112.013 63.961
2.00 110.920 64.013
2.01 110.100 63.902
2.02 110.060 63.880
2.03 109.927 63.911
2.04 110.247 64.200
2.05 110.039 66.696
2.06 --undefined-- 69.939
2.07 102.257 71.416
2.08 100.039 71.997
2.09 98.837 72.627
2.10 95.980 73.124
2.11 103.034 74.108
2.12 101.648 74.151
2.13 108.981 73.032
2.14 108.001 71.997
2.15 107.444 70.759
2.16 107.295 68.211
2.17 --undefined-- 63.311
2.18 --undefined-- 55.400
2.19 --undefined-- 47.701
2.20 --undefined-- 45.252
2.21 --undefined-- 51.887
2.22 --undefined-- 60.323
2.23 --undefined-- 64.694
2.24 --undefined-- 65.232
2.25 --undefined-- 65.588
2.26 125.825 69.738
2.27 129.421 72.977
2.28 129.818 74.308
2.29 129.488 74.127
2.30 129.715 73.076
2.31 131.168 72.108
2.32 132.044 71.276
2.33 134.522 69.753
2.34 129.848 67.081
2.35 122.115 63.400
2.36 121.657 62.980
2.37 124.244 68.018
2.38 129.440 72.257
2.39 127.081 74.791
2.40 123.414 76.256
2.41 121.131 76.860
2.42 120.577 76.610
2.43 118.985 75.843
2.44 117.958 74.873
2.45 117.053 73.545
2.46 117.420 71.883
2.47 118.971 70.337
2.48 121.412 69.050
2.49 122.009 67.907
2.50 125.079 66.572
2.51 125.378 64.852
2.52 125.801 62.734
2.53 --undefined-- 60.386
2.54 --undefined-- 58.309
2.55 --undefined-- 57.187
2.56 --undefined-- 56.952
2.57 264.687 57.540
2.58 243.987 58.627
2.59 238.794 60.119
2.60 122.092 61.997
2.61 122.178 63.788
2.62 123.292 65.144
2.63 124.638 66.231
2.64 125.762 67.141
2.65 132.050 67.523
2.66 133.346 66.868
2.67 134.102 64.626
2.68 --undefined-- 60.345
2.69 --undefined-- 54.388
2.70 --undefined-- 49.742
2.71 --undefined-- 50.588
2.72 152.525 55.979
2.73 152.325 61.412
2.74 163.988 65.987
2.75 163.521 69.463
2.76 168.246 71.961
2.77 169.597 73.785
2.78 169.473 74.572
2.79 167.177 74.538
2.80 165.743 74.788
2.81 162.582 75.740
2.82 158.520 76.798
2.83 151.352 77.160
2.84 145.688 76.630
2.85 138.950 75.402
2.86 135.351 73.087
2.87 --undefined-- 69.041
2.88 --undefined-- 63.530
2.89 --undefined-- 58.243
2.90 --undefined-- 54.486
2.91 --undefined-- 51.744
2.92 --undefined-- 52.305
2.93 151.028 58.980
2.94 156.541 65.936
2.95 160.425 71.155
2.96 161.724 74.395
2.97 161.611 75.854
2.98 160.607 75.903
2.99 159.843 75.341
3.00 160.338 74.714
3.01 162.222 73.689
3.02 164.398 71.978
3.03 164.070 69.761
3.04 160.231 67.358
3.05 152.360 64.210
3.06 142.181 59.874
3.07 142.847 60.304
3.08 149.809 65.699
3.09 152.727 70.571
3.10 153.264 73.989
3.11 151.039 75.297
3.12 148.387 74.836
3.13 148.018 73.544
3.14 147.343 71.403
3.15 --undefined-- 67.428
3.16 --undefined-- 60.744
3.17 --undefined-- 52.027
3.18 --undefined-- 46.710
3.19 --undefined-- 47.336
3.20 --undefined-- 56.982
3.21 --undefined-- 64.777
3.22 127.588 69.310
3.23 127.715 71.201
3.24 119.775 71.357
3.25 117.953 71.241
3.26 118.401 71.637
3.27 119.803 72.161
3.28 121.953 72.738
3.29 126.347 73.811
3.30 128.901 75.174
3.31 130.938 75.989
3.32 134.535 76.202
3.33 138.989 76.277
3.34 141.525 75.738
3.35 144.882 73.827
3.36 146.990 70.822
3.37 142.162 67.151
3.38 --undefined-- 61.875
3.39 --undefined-- 55.003
3.40 --undefined-- 50.280
3.41 --undefined-- 47.631
3.42 --undefined-- 45.344
3.43 --undefined-- 44.156
3.44 --undefined-- 46.402
3.45 --undefined-- 49.642
3.46 --undefined-- 51.731
3.47 --undefined-- 52.992
3.48 --undefined-- 54.159
3.49 --undefined-- 55.017
3.50 --undefined-- 54.801
3.51 --undefined-- 53.308
3.52 --undefined-- 51.731
3.53 --undefined-- 53.735
3.54 --undefined-- 57.026
3.55 133.483 58.996
3.56 132.637 59.790
3.57 131.424 60.392
3.58 129.842 61.195
3.59 128.408 61.691
3.60 125.773 61.374
3.61 121.450 60.169
3.62 118.215 58.209
3.63 115.344 55.792
3.64 --undefined-- 53.511
3.65 --undefined-- 51.712
3.66 --undefined-- 50.030
3.67 --undefined-- 49.169
3.68 --undefined-- 51.275
3.69 --undefined-- 54.275
3.70 108.675 56.727
3.71 112.823 59.359
3.72 117.321 61.949
3.73 121.285 64.163
3.74 125.854 66.180
3.75 129.217 67.520
3.76 131.627 67.768
3.77 133.495 66.941
3.78 135.702 65.236
3.79 136.742 63.462
3.80 136.758 63.247
3.81 136.998 64.521
3.82 141.889 66.440
3.83 139.681 68.308
3.84 139.887 69.800
3.85 --undefined-- 70.176
3.86 --undefined-- 68.356
3.87 --undefined-- 64.303
3.88 --undefined-- 60.056
3.89 --undefined-- 57.823
3.90 --undefined-- 58.410
3.91 --undefined-- 61.390
3.92 123.217 65.598
3.93 123.531 68.587
3.94 120.445 69.461
3.95 116.251 68.955
3.96 109.086 67.762
3.97 107.673 65.874
3.98 107.756 63.748
3.99 105.386 60.769
4.00 --undefined-- 55.818
4.01 --undefined-- 48.615
4.02 --undefined-- 40.063
4.03 --undefined-- 34.424
4.04 --undefined-- 32.587
4.05 --undefined-- 34.983
4.06 --undefined-- 38.422
4.07 --undefined-- 40.506
4.08 --undefined-- 40.858
4.09 --undefined-- 40.556
4.10 --undefined-- 41.181
4.11 --undefined-- 41.981
4.12 --undefined-- 42.361
4.13 --undefined-- 42.382
4.14 --undefined-- 42.349
4.15 --undefined-- 42.696
4.16 --undefined-- 42.972
4.17 --undefined-- 43.192
4.18 --undefined-- 43.945
4.19 --undefined-- 43.992
4.20 --undefined-- 42.558
4.21 --undefined-- 41.116
4.22 --undefined-- 40.548
4.23 --undefined-- 40.479
4.24 --undefined-- 40.642
4.25 --undefined-- 40.581
4.26 --undefined-- 39.716
4.27 --undefined-- 37.869
4.28 --undefined-- 35.789
4.29 --undefined-- 33.566
4.30 --undefined-- 31.332
4.31 --undefined-- 31.277
4.32 --undefined-- 32.332
4.33 --undefined-- 32.084
4.34 --undefined-- 31.319
4.35 --undefined-- 32.043
4.36 --undefined-- 38.156
4.37 --undefined-- 44.574
4.38 --undefined-- 48.807
4.39 --undefined-- 51.772
4.40 --undefined-- 53.903
4.41 --undefined-- 55.178
4.42 --undefined-- 55.585
4.43 --undefined-- 56.490
4.44 --undefined-- 60.856
4.45 188.679 67.436
4.46 197.197 72.840
4.47 197.358 76.047
4.48 195.727 77.203
4.49 191.824 77.270
4.50 190.655 77.183
4.51 191.586 76.752
4.52 193.753 75.684
4.53 194.247 74.230
4.54 193.997 72.792
4.55 193.206 71.651
4.56 192.522 70.867
4.57 192.562 70.293
4.58 192.709 69.821
4.59 192.474 69.484
4.60 191.848 69.192
4.61 191.463 68.791
4.62 191.251 68.283
4.63 190.538 68.397
4.64 189.375 69.739
4.65 187.615 70.595
4.66 185.035 69.377
4.67 177.590 66.300
4.68 173.683 64.043
4.69 169.172 63.394
4.70 162.617 62.024
4.71 154.134 59.737
4.72 147.142 57.564
4.73 137.194 59.711
4.74 126.891 66.469
4.75 124.268 71.763
4.76 122.729 75.288
4.77 121.437 77.548
4.78 119.021 78.648
4.79 116.343 78.817
4.80 115.171 78.728
4.81 114.461 78.708
4.82 114.507 78.572
4.83 115.531 78.304
4.84 115.963 77.873
4.85 116.454 76.829
4.86 116.112 74.865
4.87 115.422 71.809
4.88 114.983 68.294
4.89 116.294 66.062
4.90 112.351 65.331
4.91 112.586 64.630
4.92 113.041 62.935
4.93 115.122 60.356
4.94 120.987 60.020
4.95 124.546 62.428
4.96 128.034 66.157
4.97 132.279 69.745
4.98 131.417 71.738
4.99 130.274 71.896
5.00 129.450 70.652
5.01 130.671 68.636
5.02 130.722 65.996
5.03 127.279 61.891
5.04 --undefined-- 55.467
5.05 --undefined-- 47.825
5.06 --undefined-- 41.694
5.07 --undefined-- 42.615
5.08 --undefined-- 53.571
5.09 --undefined-- 59.745
5.10 --undefined-- 61.868
5.11 --undefined-- 64.458
5.12 --undefined-- 70.367
5.13 107.430 73.885
5.14 104.875 75.255
5.15 121.071 75.887
5.16 124.162 76.240
5.17 128.475 76.137
5.18 133.361 75.490
5.19 138.965 73.877
5.20 143.561 71.063
5.21 148.646 67.793
5.22 153.496 65.614
5.23 157.704 65.041
5.24 157.497 65.221
5.25 157.070 65.538
5.26 157.095 67.012
5.27 154.664 70.485
5.28 151.495 74.059
5.29 147.956 76.337
5.30 145.536 77.564
5.31 142.776 78.268
5.32 139.271 78.046
5.33 136.112 76.188
5.34 134.900 72.282
5.35 --undefined-- 65.726
5.36 --undefined-- 57.314
5.37 --undefined-- 52.832
5.38 --undefined-- 51.381
5.39 --undefined-- 49.421
5.40 --undefined-- 47.152
5.41 --undefined-- 50.656
5.42 --undefined-- 56.626
5.43 138.608 60.282
5.44 139.045 61.595
5.45 138.589 61.211
5.46 138.906 59.460
5.47 --undefined-- 56.729
5.48 --undefined-- 55.462
5.49 --undefined-- 56.387
5.50 --undefined-- 56.932
5.51 --undefined-- 57.135
5.52 149.130 57.486
5.53 145.981 57.779
5.54 144.358 58.543
5.55 144.498 61.279
5.56 144.157 65.016
5.57 143.611 67.715
5.58 141.339 69.025
5.59 140.797 69.443
5.60 141.070 69.422
5.61 141.718 68.906
5.62 142.279 --undefined--
5.63 142.184 --undefined--
5.64 --undefined-- --undefined--
5.65 --undefined-- --undefined--
