Time Pitch Intensity
0.01 --undefined-- --undefined--
0.02 --undefined-- --undefined--
0.03 --undefined-- --undefined--
0.04 --undefined-- --undefined--
0.05 --undefined-- 68.261
0.06 233.244 69.589
0.07 231.073 69.767
0.08 229.103 69.870
0.09 223.976 70.082
0.10 215.948 70.519
0.11 211.411 71.164
0.12 207.048 71.544
0.13 204.153 71.908
0.14 201.361 72.319
0.15 196.446 72.274
0.16 191.573 71.532
0.17 186.974 70.081
0.18 182.363 69.174
0.19 182.345 70.924
0.20 183.265 72.975
0.21 184.560 73.852
0.22 184.308 73.933
0.23 181.816 73.519
0.24 179.164 72.522
0.25 177.550 70.308
0.26 --undefined-- 65.815
0.27 --undefined-- 59.252
0.28 --undefined-- 56.067
0.29 126.081 55.322
0.30 127.027 54.051
0.31 126.429 52.916
0.32 124.675 54.065
0.33 123.822 57.451
0.34 122.113 61.458
0.35 121.540 64.541
0.36 121.219 65.787
0.37 119.945 64.578
0.38 --undefined-- 60.745
0.39 --undefined-- 55.390
0.40 --undefined-- 51.773
0.41 --undefined-- 49.984
0.42 --undefined-- 46.473
0.43 --undefined-- 42.020
0.44 --undefined-- 47.322
0.45 --undefined-- 55.493
0.46 --undefined-- 62.469
0.47 --undefined-- 68.489
0.48 176.566 71.732
0.49 175.240 72.320
0.50 174.920 71.747
0.51 174.869 71.422
0.52 174.040 71.449
0.53 171.080 71.644
0.54 166.228 72.040
0.55 161.139 72.466
0.56 156.267 72.150
0.57 149.546 70.581
0.58 136.753 68.920
0.59 130.899 68.547
0.60 126.159 67.925
0.61 120.656 66.921
0.62 --undefined-- 66.710
0.63 --undefined-- 65.968
0.64 --undefined-- 62.733
0.65 --undefined-- 58.287
0.66 --undefined-- 59.172
0.67 --undefined-- 61.637
0.68 277.127 61.773
0.69 277.514 59.158
0.70 --undefined-- 55.821
0.71 --undefined-- 56.912
0.72 --undefined-- 60.484
0.73 --undefined-- 61.409
0.74 116.094 60.359
0.75 114.452 60.825
0.76 111.400 62.352
0.77 110.642 63.205
0.78 113.124 63.436
0.79 111.092 63.211
0.80 111.399 62.913
0.81 109.594 63.073
0.82 --undefined-- 62.953
0.83 --undefined-- 61.510
0.84 --undefined-- 58.226
0.85 --undefined-- 54.319
0.86 --undefined-- 52.687
0.87 --undefined-- 52.297
0.88 --undefined-- 51.223
0.89 --undefined-- 50.013
0.90 --undefined-- 49.940
0.91 --undefined-- 53.015
0.92 --undefined-- 56.921
0.93 --undefined-- 58.320
0.94 --undefined-- 57.454
0.95 --undefined-- 56.397
0.96 111.660 57.175
0.97 116.997 59.099
0.98 120.685 60.690
0.99 123.819 61.121
1.00 128.667 59.723
1.01 --undefined-- 55.808
1.02 --undefined-- 49.618
1.03 --undefined-- 50.196
1.04 --undefined-- 54.671
1.05 --undefined-- 60.402
1.06 --undefined-- 65.726
1.07 --undefined-- 68.392
1.08 --undefined-- 68.616
1.09 --undefined-- 67.056
1.10 --undefined-- 64.509
1.11 --undefined-- 61.267
1.12 --undefined-- 57.748
1.13 --undefined-- 55.473
1.14 --undefined-- 54.774
1.15 --undefined-- 56.904
1.16 116.285 59.485
1.17 116.780 60.498
1.18 111.191 60.229
1.19 105.865 59.558
1.20 106.290 59.683
1.21 104.647 59.883
1.22 104.067 59.038
1.23 106.859 57.943
1.24 107.105 56.927
1.25 108.211 55.518
1.26 --undefined-- 53.608
1.27 --undefined-- 50.399
1.28 --undefined-- 45.903
1.29 --undefined-- 41.727
1.30 --undefined-- 44.801
1.31 --undefined-- 57.218
1.32 --undefined-- 64.417
1.33 --undefined-- 66.590
1.34 --undefined-- 64.135
1.35 --undefined-- 57.515
1.36 --undefined-- 56.475
1.37 --undefined-- 61.980
1.38 --undefined-- 65.708
1.39 --undefined-- 66.945
1.40 --undefined-- 66.001
1.41 --undefined-- 62.879
1.42 --undefined-- 56.936
1.43 --undefined-- 50.559
1.44 --undefined-- 48.788
1.45 --undefined-- 47.820
1.46 --undefined-- 47.179
1.47 --undefined-- 47.004
1.48 --undefined-- 46.986
1.49 --undefined-- 46.969
1.50 --undefined-- 45.983
1.51 --undefined-- 43.224
1.52 --undefined-- 40.736
1.53 --undefined-- 43.628
1.54 --undefined-- 47.780
1.55 --undefined-- 49.778
1.56 --undefined-- 49.711
1.57 --undefined-- 49.159
1.58 --undefined-- 49.357
1.59 --undefined-- 49.610
1.60 --undefined-- 49.785
1.61 --undefined-- 53.296
1.62 --undefined-- 59.786
1.63 --undefined-- 64.188
1.64 --undefined-- 67.380
1.65 --undefined-- 70.509
1.66 --undefined-- 72.416
1.67 --undefined-- 72.687
1.68 --undefined-- 71.192
1.69 --undefined-- 67.621
1.70 --undefined-- 61.901
1.71 --undefined-- 55.588
1.72 --undefined-- 53.418
1.73 137.070 54.216
1.74 148.775 55.692
1.75 159.911 56.885
1.76 169.374 57.613
1.77 177.633 58.202
1.78 183.641 58.602
1.79 186.585 58.104
1.80 185.893 58.700
1.81 --undefined-- 64.897
1.82 --undefined-- 68.930
1.83 --undefined-- 70.217
1.84 --undefined-- 71.985
1.85 200.169 73.557
1.86 190.652 73.149
1.87 179.525 71.052
1.88 --undefined-- 67.900
1.89 --undefined-- 64.254
1.90 --undefined-- 60.620
1.91 --undefined-- 58.966
1.92 --undefined-- 60.570
1.93 --undefined-- 64.712
1.94 --undefined-- 67.515
1.95 --undefined-- 67.989
1.96 110.243 67.229
1.97 107.750 66.153
1.98 107.405 63.974
1.99 103.786 60.011
2.00 --undefined-- 54.883
2.01 --undefined-- 49.193
2.02 --undefined-- 49.100
2.03 --undefined-- 59.184
2.04 --undefined-- 65.502
2.05 --undefined-- 67.498
2.06 --undefined-- 67.152
2.07 --undefined-- 67.959
2.08 112.637 68.298
2.09 114.944 66.819
2.10 116.546 64.829
2.11 120.638 63.729
2.12 123.155 63.384
2.13 126.131 62.127
2.14 127.530 59.373
2.15 --undefined-- 59.447
2.16 --undefined-- 63.207
2.17 --undefined-- 64.994
2.18 140.174 65.643
2.19 142.654 67.089
2.20 144.865 68.891
2.21 145.361 69.630
2.22 143.639 68.203
2.23 --undefined-- 63.910
2.24 --undefined-- 56.620
2.25 --undefined-- 49.339
2.26 --undefined-- 48.395
2.27 --undefined-- 54.355
2.28 --undefined-- 62.383
2.29 --undefined-- 68.548
2.30 171.064 71.345
2.31 168.345 71.065
2.32 157.488 69.226
2.33 148.355 68.435
2.34 140.314 69.007
2.35 134.586 69.311
2.36 131.441 68.220
2.37 127.857 65.186
2.38 --undefined-- 59.989
2.39 --undefined-- 53.210
2.40 --undefined-- 51.560
2.41 --undefined-- 60.364
2.42 --undefined-- 65.917
2.43 --undefined-- 67.356
2.44 --undefined-- 66.262
2.45 --undefined-- 66.440
2.46 117.335 67.269
2.47 115.933 66.744
2.48 116.090 64.906
2.49 --undefined-- 62.680
2.50 --undefined-- 61.247
2.51 --undefined-- 59.037
2.52 --undefined-- 54.081
2.53 --undefined-- 47.185
2.54 --undefined-- 43.878
2.55 --undefined-- 43.059
2.56 --undefined-- 44.765
2.57 --undefined-- 52.012
2.58 --undefined-- 59.641
2.59 --undefined-- 65.418
2.60 140.094 68.308
2.61 139.582 68.827
2.62 138.345 68.222
2.63 137.416 66.859
2.64 134.273 64.745
2.65 133.193 63.539
2.66 132.266 63.706
2.67 132.559 64.862
2.68 133.394 67.064
2.69 133.520 68.441
2.70 132.523 68.331
2.71 132.706 67.661
2.72 132.318 67.739
2.73 132.538 68.495
2.74 131.055 68.315
2.75 127.973 66.681
2.76 126.697 63.609
2.77 --undefined-- 58.667
2.78 --undefined-- 52.242
2.79 --undefined-- 48.407
2.80 --undefined-- 49.598
2.81 --undefined-- 50.471
2.82 --undefined-- 52.548
2.83 --undefined-- 58.463
2.84 --undefined-- 62.609
2.85 --undefined-- 63.589
2.86 --undefined-- 62.220
2.87 --undefined-- 60.719
2.88 --undefined-- 59.779
2.89 --undefined-- 57.412
2.90 --undefined-- 54.502
2.91 --undefined-- 57.360
2.92 --undefined-- 60.343
2.93 --undefined-- 60.238
2.94 --undefined-- 58.490
2.95 --undefined-- 58.053
2.96 --undefined-- 62.226
2.97 --undefined-- 65.810
2.98 --undefined-- 66.275
2.99 --undefined-- 63.680
3.00 --undefined-- 58.400
3.01 --undefined-- 50.831
3.02 --undefined-- 43.696
3.03 --undefined-- 41.865
3.04 --undefined-- 42.124
3.05 --undefined-- 47.848
3.06 --undefined-- 58.265
3.07 --undefined-- 65.603
3.08 --undefined-- 69.315
3.09 --undefined-- 69.614
3.10 --undefined-- 66.820
3.11 --undefined-- 62.697
3.12 --undefined-- 61.615
3.13 --undefined-- 62.333
3.14 --undefined-- 63.123
3.15 --undefined-- 64.830
3.16 --undefined-- 66.359
3.17 --undefined-- 66.870
3.18 --undefined-- 66.510
3.19 --undefined-- 64.346
3.20 --undefined-- 59.460
3.21 --undefined-- 52.382
3.22 --undefined-- 48.352
3.23 --undefined-- 48.563
3.24 --undefined-- 50.945
3.25 --undefined-- 57.234
3.26 --undefined-- 63.052
3.27 --undefined-- 65.895
3.28 --undefined-- 66.003
3.29 --undefined-- 64.719
3.30 --undefined-- 63.451
3.31 --undefined-- 61.559
3.32 --undefined-- 57.832
3.33 --undefined-- 53.998
3.34 --undefined-- 56.882
3.35 103.160 60.977
3.36 104.867 63.158
3.37 114.445 63.904
3.38 115.531 63.693
3.39 --undefined-- 62.993
3.40 --undefined-- 61.761
3.41 --undefined-- 59.519
3.42 111.410 57.070
3.43 106.620 55.678
3.44 105.589 55.142
3.45 105.636 54.878
3.46 106.972 54.904
3.47 108.444 55.893
3.48 107.699 56.648
3.49 112.341 55.232
3.50 --undefined-- 51.193
3.51 --undefined-- 45.877
3.52 --undefined-- 43.128
3.53 --undefined-- 44.064
3.54 --undefined-- 44.237
3.55 --undefined-- 43.450
3.56 --undefined-- 43.767
3.57 --undefined-- 44.971
3.58 --undefined-- 48.280
3.59 --undefined-- 52.351
3.60 --undefined-- 55.818
3.61 --undefined-- 57.657
3.62 --undefined-- 57.317
3.63 --undefined-- 55.878
3.64 --undefined-- 55.499
3.65 --undefined-- 55.934
3.66 --undefined-- 55.997
3.67 104.019 56.911
3.68 108.297 58.875
3.69 109.272 60.208
3.70 113.111 60.497
3.71 113.792 60.561
3.72 121.596 61.782
3.73 125.010 63.506
3.74 130.532 64.823
3.75 132.401 66.394
3.76 136.058 68.338
3.77 138.543 69.727
3.78 141.513 70.256
3.79 145.353 69.917
3.80 144.939 68.351
3.81 --undefined-- 65.069
3.82 --undefined-- 59.465
3.83 --undefined-- 52.068
3.84 --undefined-- 48.128
3.85 --undefined-- 50.687
3.86 --undefined-- 56.274
3.87 --undefined-- 59.975
3.88 --undefined-- 63.165
3.89 --undefined-- 67.056
3.90 --undefined-- 69.392
3.91 77.044 69.839
3.92 77.008 69.529
3.93 --undefined-- 68.294
3.94 --undefined-- 65.461
3.95 --undefined-- 62.450
3.96 --undefined-- 60.757
3.97 --undefined-- 59.970
3.98 --undefined-- 58.906
3.99 --undefined-- 57.358
4.00 --undefined-- 55.582
4.01 --undefined-- 52.210
4.02 --undefined-- 47.158
4.03 --undefined-- 43.746
4.04 --undefined-- 41.973
4.05 --undefined-- 39.821
4.06 --undefined-- 38.995
4.07 --undefined-- 40.607
4.08 --undefined-- 41.872
4.09 --undefined-- 42.806
4.10 --undefined-- 44.433
4.11 --undefined-- 46.513
4.12 --undefined-- 51.904
4.13 --undefined-- 58.488
4.14 108.420 63.071
4.15 109.711 65.258
4.16 109.589 66.440
4.17 107.415 67.449
4.18 106.682 67.092
4.19 --undefined-- 64.730
4.20 --undefined-- 60.718
4.21 --undefined-- 55.428
4.22 --undefined-- 49.513
4.23 --undefined-- 45.724
4.24 --undefined-- 43.926
4.25 --undefined-- 42.625
4.26 --undefined-- 42.688
4.27 --undefined-- 42.697
4.28 --undefined-- 41.663
4.29 --undefined-- 41.034
4.30 --undefined-- 43.671
4.31 --undefined-- 50.232
4.32 --undefined-- 54.937
4.33 --undefined-- 58.433
4.34 --undefined-- 61.102
4.35 --undefined-- 62.071
4.36 --undefined-- 61.758
4.37 --undefined-- 60.253
4.38 --undefined-- 57.641
4.39 --undefined-- 55.304
4.40 --undefined-- 54.206
4.41 --undefined-- 53.243
4.42 --undefined-- 52.564
4.43 --undefined-- 52.361
4.44 --undefined-- 52.566
4.45 --undefined-- 53.374
4.46 --undefined-- 54.084
4.47 --undefined-- 54.244
4.48 --undefined-- 53.629
4.49 --undefined-- 52.298
4.50 --undefined-- 52.475
4.51 --undefined-- 56.137
4.52 --undefined-- 58.560
4.53 --undefined-- 58.691
4.54 --undefined-- 60.520
4.55 --undefined-- 64.329
4.56 113.715 65.970
4.57 113.298 65.291
4.58 105.646 64.023
4.59 104.781 62.831
4.60 104.425 61.458
4.61 --undefined-- 60.632
4.62 --undefined-- 59.270
4.63 --undefined-- 56.110
4.64 --undefined-- 51.443
4.65 --undefined-- 54.524
4.66 --undefined-- 59.145
4.67 --undefined-- 62.144
4.68 133.083 64.631
4.69 135.365 66.240
4.70 137.140 66.474
4.71 135.941 65.317
4.72 --undefined-- 63.030
4.73 --undefined-- 59.122
4.74 --undefined-- 53.265
4.75 --undefined-- 51.789
4.76 --undefined-- 54.369
4.77 --undefined-- 55.689
4.78 --undefined-- 59.698
4.79 --undefined-- 63.771
4.80 --undefined-- 65.236
4.81 110.902 64.974
4.82 --undefined-- 63.965
4.83 --undefined-- 61.256
4.84 --undefined-- 55.607
4.85 --undefined-- 47.133
4.86 --undefined-- 42.899
4.87 --undefined-- 46.460
4.88 --undefined-- 51.137
4.89 --undefined-- 54.645
4.90 --undefined-- 59.750
4.91 --undefined-- 63.667
4.92 --undefined-- 64.659
4.93 119.504 63.596
4.94 120.375 62.592
4.95 120.067 62.098
4.96 120.312 60.244
4.97 --undefined-- 55.868
4.98 --undefined-- 54.849
4.99 --undefined-- 59.731
5.00 --undefined-- 61.484
5.01 --undefined-- 60.729
5.02 --undefined-- 63.325
5.03 --undefined-- 67.653
5.04 --undefined-- 69.778
5.05 113.771 69.750
5.06 111.513 68.361
5.07 108.414 67.227
5.08 106.778 67.287
5.09 106.898 67.133
5.10 105.673 65.890
5.11 104.889 63.813
5.12 103.146 61.377
5.13 101.759 59.520
5.14 100.274 57.998
5.15 99.329 56.079
5.16 --undefined-- 54.145
5.17 --undefined-- 52.910
5.18 --undefined-- 53.060
5.19 --undefined-- --undefined--
5.20 --undefined-- --undefined--
5.21 --undefined-- --undefined--
5.22 --undefined-- --undefined--
