Time Pitch Intensity
0.01 --undefined-- --undefined--
0.02 111.965 --undefined--
0.03 110.934 --undefined--
0.04 111.584 --undefined--
0.05 110.626 72.784
0.06 109.864 72.834
0.07 109.674 72.827
0.08 109.726 72.789
0.09 109.542 72.718
0.10 109.508 72.655
0.11 108.982 72.567
0.12 109.106 72.045
0.13 105.248 70.465
0.14 103.116 67.733
0.15 109.545 64.373
0.16 121.062 60.331
0.17 120.824 55.798
0.18 --undefined-- 52.728
0.19 --undefined-- 52.386
0.20 --undefined-- 54.201
0.21 --undefined-- 58.179
0.22 --undefined-- 62.103
0.23 --undefined-- 64.985
0.24 --undefined-- 65.456
0.25 --undefined-- 62.722
0.26 --undefined-- 59.320
0.27 --undefined-- 64.066
0.28 --undefined-- 68.728
0.29 111.878 70.903
0.30 123.176 71.637
0.31 122.837 71.976
0.32 123.893 72.471
0.33 127.024 73.239
0.34 128.978 73.799
0.35 134.880 74.029
0.36 140.802 74.504
0.37 146.189 75.197
0.38 149.622 75.342
0.39 150.848 74.145
0.40 145.230 71.323
0.41 143.833 67.429
0.42 143.337 63.407
0.43 142.440 60.052
0.44 --undefined-- 61.543
0.45 --undefined-- 66.956
0.46 171.808 72.062
0.47 165.611 74.955
0.48 141.330 75.774
0.49 137.641 75.741
0.50 132.285 75.763
0.51 128.389 75.853
0.52 125.614 75.829
0.53 125.524 75.663
0.54 125.809 75.408
0.55 124.974 75.024
0.56 123.946 74.283
0.57 122.250 72.441
0.58 --undefined-- 68.783
0.59 --undefined-- 63.568
0.60 --undefined-- 58.033
0.61 207.880 54.978
0.62 224.093 55.201
0.63 243.454 54.790
0.64 --undefined-- 52.020
0.65 --undefined-- 47.955
0.66 --undefined-- 52.880
0.67 --undefined-- 60.095
0.68 --undefined-- 64.365
0.69 --undefined-- 65.618
0.70 --undefined-- 64.032
0.71 --undefined-- 61.363
0.72 128.698 65.003
0.73 137.510 70.278
0.74 136.675 73.131
0.75 128.771 74.370
0.76 126.536 75.311
0.77 119.528 76.163
0.78 114.995 76.560
0.79 112.576 76.544
0.80 111.365 76.410
0.81 110.690 76.296
0.82 110.677 76.267
0.83 112.036 76.304
0.84 114.530 76.222
0.85 116.061 76.013
0.86 117.002 75.794
0.87 117.902 75.339
0.88 118.737 74.101
0.89 118.077 71.483
0.90 117.791 67.099
0.91 112.542 61.051
0.92 112.246 55.803
0.93 112.105 54.173
0.94 --undefined-- 54.558
0.95 --undefined-- 56.422
0.96 --undefined-- 62.098
0.97 --undefined-- 70.076
0.98 181.440 75.652
0.99 165.792 78.589
1.00 158.494 79.635
1.01 150.541 79.345
1.02 143.345 78.337
1.03 140.304 77.490
1.04 136.699 77.192
1.05 134.416 77.401
1.06 136.109 77.905
1.07 131.913 78.280
1.08 128.461 78.389
1.09 126.361 78.391
1.10 126.014 78.413
1.11 126.368 78.451
1.12 127.695 78.588
1.13 128.801 78.877
1.14 128.865 78.986
1.15 126.736 78.199
1.16 119.892 76.030
1.17 120.556 73.257
1.18 122.270 72.141
1.19 127.793 73.724
1.20 130.040 76.647
1.21 126.846 78.858
1.22 124.757 79.927
1.23 124.555 80.223
1.24 125.229 80.146
1.25 126.742 79.925
1.26 128.118 79.588
1.27 128.280 79.301
1.28 127.715 79.145
1.29 126.216 78.541
1.30 123.109 76.631
1.31 116.439 72.895
1.32 102.863 67.270
1.33 --undefined-- 60.313
1.34 --undefined-- 53.234
1.35 --undefined-- 48.579
1.36 --undefined-- 47.028
1.37 --undefined-- 46.549
1.38 --undefined-- 45.507
1.39 --undefined-- 45.189
1.40 --undefined-- 46.095
1.41 --undefined-- 46.117
1.42 --undefined-- 44.942
1.43 --undefined-- 43.487
1.44 --undefined-- 42.151
1.45 --undefined-- 41.696
1.46 --undefined-- 41.837
1.47 --undefined-- 42.838
1.48 --undefined-- 45.468
1.49 --undefined-- 46.401
1.50 --undefined-- 45.335
1.51 --undefined-- 43.874
1.52 --undefined-- 42.481
1.53 --undefined-- 41.219
1.54 --undefined-- 40.170
1.55 --undefined-- 40.738
1.56 --undefined-- 43.593
1.57 --undefined-- 47.523
1.58 --undefined-- 51.231
1.59 --undefined-- 54.878
1.60 --undefined-- 59.353
1.61 --undefined-- 65.876
1.62 159.055 70.965
1.63 144.029 73.643
1.64 139.705 74.742
1.65 133.437 75.407
1.66 129.054 76.058
1.67 126.540 76.483
1.68 122.501 76.633
1.69 121.378 76.432
1.70 119.280 75.761
1.71 117.144 74.583
1.72 113.932 72.749
1.73 107.513 70.367
1.74 112.200 68.777
1.75 121.688 68.781
1.76 125.775 69.580
1.77 127.890 70.860
1.78 130.690 72.514
1.79 130.540 74.090
1.80 131.666 75.298
1.81 133.776 76.003
1.82 137.011 76.122
1.83 138.878 75.787
1.84 142.725 75.608
1.85 145.733 75.946
1.86 145.444 76.175
1.87 145.809 76.013
1.88 144.923 75.663
1.89 143.384 75.201
1.90 140.813 74.968
1.91 137.886 75.297
1.92 136.574 75.859
1.93 136.488 76.189
1.94 137.222 76.052
1.95 138.174 75.403
1.96 140.451 74.595
1.97 140.766 74.051
1.98 135.777 73.264
1.99 129.841 71.622
2.00 120.629 69.063
2.01 118.726 65.764
2.02 118.902 62.428
2.03 --undefined-- 60.365
2.04 164.300 62.887
2.05 171.999 68.183
2.06 174.193 71.930
2.07 172.889 73.993
2.08 172.121 75.325
2.09 172.161 76.325
2.10 172.796 76.963
2.11 172.852 77.222
2.12 172.910 77.133
2.13 172.687 76.854
2.14 171.500 76.301
2.15 168.883 75.165
2.16 165.020 73.774
2.17 161.348 73.040
2.18 156.370 72.933
2.19 150.298 72.814
2.20 143.229 72.326
2.21 135.471 71.509
2.22 128.278 70.687
2.23 124.201 70.266
2.24 118.726 69.997
2.25 111.288 69.758
2.26 108.044 69.897
2.27 103.280 70.071
2.28 101.431 70.041
2.29 101.016 69.743
2.30 101.877 69.421
2.31 102.120 69.281
2.32 101.071 68.838
2.33 100.001 67.327
2.34 94.892 64.539
2.35 102.174 61.328
2.36 109.448 60.516
2.37 129.773 64.175
2.38 115.438 67.697
2.39 113.438 69.594
2.40 108.132 70.360
2.41 108.436 70.646
2.42 110.504 70.800
2.43 111.525 70.805
2.44 113.956 70.656
2.45 115.971 70.518
2.46 114.326 70.205
2.47 113.129 69.362
2.48 116.875 68.477
2.49 123.809 68.888
2.50 123.902 70.048
2.51 127.440 70.746
2.52 128.260 70.963
2.53 128.056 71.075
2.54 128.513 71.116
2.55 127.802 70.922
2.56 129.426 70.275
2.57 125.742 68.522
2.58 121.244 64.993
2.59 116.039 59.914
2.60 --undefined-- 56.291
2.61 --undefined-- 55.219
2.62 --undefined-- 53.154
2.63 --undefined-- 50.587
2.64 --undefined-- 49.960
2.65 --undefined-- 51.074
2.66 --undefined-- 52.443
2.67 --undefined-- 54.698
2.68 --undefined-- 62.377
2.69 222.434 69.698
2.70 200.214 73.386
2.71 183.013 74.000
2.72 175.836 72.929
2.73 172.723 72.053
2.74 174.570 72.007
2.75 175.850 72.451
2.76 176.612 73.180
2.77 176.881 73.823
2.78 176.966 73.774
2.79 174.353 73.050
2.80 174.457 72.398
2.81 174.320 72.105
2.82 173.955 72.204
2.83 171.944 72.580
2.84 168.820 72.664
2.85 164.766 71.945
2.86 157.143 70.344
2.87 150.959 68.037
2.88 148.629 65.272
2.89 142.113 64.944
2.90 158.233 69.213
2.91 148.944 72.416
2.92 139.513 73.409
2.93 129.712 72.369
2.94 114.834 69.430
2.95 --undefined-- 65.337
2.96 --undefined-- 62.353
2.97 192.870 63.269
2.98 215.642 65.244
2.99 171.360 66.667
3.00 160.544 68.026
3.01 162.907 70.309
3.02 167.304 73.407
3.03 166.422 75.839
3.04 162.529 76.733
3.05 158.646 75.991
3.06 156.752 73.636
3.07 150.834 69.726
3.08 149.867 65.885
3.09 145.648 64.357
3.10 141.547 63.858
3.11 136.756 63.821
3.12 131.745 64.373
3.13 127.732 64.932
3.14 121.112 65.058
3.15 114.981 64.791
3.16 112.299 64.338
3.17 109.042 63.949
3.18 104.780 63.962
3.19 102.195 64.481
3.20 103.677 64.953
3.21 100.438 64.744
3.22 95.677 63.763
3.23 93.872 62.350
3.24 90.610 60.878
3.25 89.048 59.624
3.26 91.165 58.881
3.27 92.000 58.634
3.28 92.896 58.919
3.29 105.084 59.740
3.30 91.393 60.064
3.31 112.050 59.476
3.32 --undefined-- 57.716
3.33 --undefined-- 56.489
3.34 --undefined-- 58.584
3.35 --undefined-- 61.233
3.36 --undefined-- 64.220
3.37 118.367 66.596
3.38 112.977 68.086
3.39 112.014 69.012
3.40 112.528 69.437
3.41 114.407 69.383
3.42 116.846 68.627
3.43 116.157 66.575
3.44 122.634 62.909
3.45 132.557 58.376
3.46 --undefined-- 53.823
3.47 --undefined-- 51.615
3.48 --undefined-- 55.969
3.49 --undefined-- 60.881
3.50 183.954 66.616
3.51 163.898 70.743
3.52 153.658 72.571
3.53 148.731 72.950
3.54 149.527 73.026
3.55 153.875 73.481
3.56 155.972 74.068
3.57 158.704 74.454
3.58 160.259 74.595
3.59 160.465 74.483
3.60 156.980 74.093
3.61 150.481 73.136
3.62 145.277 71.367
3.63 138.003 68.504
3.64 125.993 65.577
3.65 149.048 67.942
3.66 148.764 71.570
3.67 130.744 72.990
3.68 117.025 72.825
3.69 107.873 72.611
3.70 103.526 72.643
3.71 99.976 72.549
3.72 99.339 72.519
3.73 100.646 72.711
3.74 99.754 72.538
3.75 99.100 72.358
3.76 99.446 72.725
3.77 100.438 73.328
3.78 108.811 73.669
3.79 121.729 73.559
3.80 134.798 73.315
3.81 138.512 73.091
3.82 154.620 73.003
3.83 163.006 73.095
3.84 169.886 72.825
3.85 178.941 71.901
3.86 189.950 70.923
3.87 199.268 70.505
3.88 205.928 69.957
3.89 210.560 69.000
3.90 210.101 67.936
3.91 207.577 66.430
3.92 208.446 63.627
3.93 212.087 58.855
3.94 --undefined-- 52.131
3.95 --undefined-- 44.992
3.96 --undefined-- 41.973
3.97 --undefined-- 41.490
3.98 --undefined-- 40.819
3.99 --undefined-- 41.853
4.00 --undefined-- 42.598
4.01 --undefined-- 41.918
4.02 --undefined-- 40.775
4.03 --undefined-- 39.185
4.04 --undefined-- 38.082
4.05 --undefined-- 37.751
4.06 --undefined-- 38.328
4.07 --undefined-- 40.597
4.08 --undefined-- 42.750
4.09 --undefined-- 43.689
4.10 --undefined-- 43.676
4.11 --undefined-- 42.823
4.12 --undefined-- 40.628
4.13 --undefined-- 39.516
4.14 --undefined-- 41.604
4.15 --undefined-- 42.886
4.16 --undefined-- 42.482
4.17 --undefined-- 41.181
4.18 --undefined-- 40.291
4.19 --undefined-- 41.000
4.20 --undefined-- 41.727
4.21 --undefined-- 41.456
4.22 --undefined-- 40.097
4.23 --undefined-- 39.053
4.24 --undefined-- 40.084
4.25 --undefined-- 40.427
4.26 --undefined-- 39.622
4.27 --undefined-- 38.902
4.28 --undefined-- 38.812
4.29 --undefined-- 39.487
4.30 --undefined-- 43.220
4.31 --undefined-- 52.787
4.32 --undefined-- 63.055
4.33 --undefined-- 69.432
4.34 124.754 72.790
4.35 117.232 74.553
4.36 117.856 75.509
4.37 119.743 75.735
4.38 122.336 75.283
4.39 126.564 74.621
4.40 130.552 74.300
4.41 132.153 74.155
4.42 134.053 73.621
4.43 132.866 72.271
4.44 129.331 69.982
4.45 123.825 66.890
4.46 126.111 65.841
4.47 146.096 69.714
4.48 144.514 73.546
4.49 141.904 75.675
4.50 123.212 76.304
4.51 120.334 76.109
4.52 115.560 75.940
4.53 114.501 76.082
4.54 113.375 76.010
4.55 113.768 75.669
4.56 114.613 75.367
4.57 117.131 75.091
4.58 118.154 74.454
4.59 115.608 72.756
4.60 115.820 69.716
4.61 116.829 66.467
4.62 120.747 63.497
4.63 147.694 61.433
4.64 --undefined-- 63.868
4.65 --undefined-- 69.343
4.66 --undefined-- 73.166
4.67 139.504 74.946
4.68 131.436 75.508
4.69 128.904 75.576
4.70 128.505 75.571
4.71 128.845 75.647
4.72 128.831 75.809
4.73 129.620 75.958
4.74 131.330 76.036
4.75 133.300 76.015
4.76 133.988 75.740
4.77 132.792 74.909
4.78 130.040 72.951
4.79 121.651 69.301
4.80 122.534 63.860
4.81 --undefined-- 57.445
4.82 --undefined-- 54.567
4.83 --undefined-- 57.180
4.84 --undefined-- 64.551
4.85 --undefined-- 70.425
4.86 123.057 73.471
4.87 114.198 74.633
4.88 110.440 74.796
4.89 108.892 74.640
4.90 108.136 74.545
4.91 108.971 74.489
4.92 110.954 74.438
4.93 112.430 74.459
4.94 114.010 74.548
4.95 116.016 74.746
4.96 116.985 75.153
4.97 120.011 75.552
4.98 122.605 75.529
4.99 125.716 75.060
5.00 126.690 74.278
5.01 125.532 72.801
5.02 122.903 69.954
5.03 113.525 65.821
5.04 104.939 62.270
5.05 --undefined-- 62.178
5.06 --undefined-- 63.413
5.07 --undefined-- 63.789
5.08 144.297 67.938
5.09 138.069 71.659
5.10 105.227 73.157
5.11 104.371 73.300
5.12 101.607 72.929
5.13 99.145 72.376
5.14 98.876 71.763
5.15 99.120 71.326
5.16 100.605 71.318
5.17 104.150 71.469
5.18 105.172 70.951
5.19 102.346 69.242
5.20 104.099 66.709
5.21 116.124 64.437
5.22 117.017 62.795
5.23 111.423 63.252
5.24 147.413 68.894
5.25 145.832 73.167
5.26 132.372 75.016
5.27 131.809 75.596
5.28 132.397 75.835
5.29 133.031 75.975
5.30 134.426 76.105
5.31 135.479 76.227
5.32 136.523 76.317
5.33 136.731 76.380
5.34 136.769 76.458
5.35 137.484 76.520
5.36 138.345 76.403
5.37 139.135 76.078
5.38 139.723 75.725
5.39 139.356 75.419
5.40 137.335 74.904
5.41 132.309 73.944
5.42 127.803 72.689
5.43 125.924 71.396
5.44 123.975 70.149
5.45 126.944 69.868
5.46 138.516 71.935
5.47 135.370 74.207
5.48 129.036 75.371
5.49 122.176 --undefined--
5.50 120.969 --undefined--
5.51 --undefined-- --undefined--
5.52 --undefined-- --undefined--
