Time Pitch Intensity
0.01 --undefined-- --undefined--
0.02 114.632 --undefined--
0.03 113.745 --undefined--
0.04 113.892 --undefined--
0.05 115.396 73.408
0.06 113.036 70.653
0.07 115.498 67.297
0.08 121.406 64.848
0.09 126.117 63.031
0.10 125.488 60.521
0.11 125.347 56.951
0.12 --undefined-- 54.130
0.13 --undefined-- 57.726
0.14 --undefined-- 64.583
0.15 --undefined-- 71.701
0.16 169.197 76.028
0.17 160.524 77.575
0.18 159.823 77.919
0.19 158.584 78.262
0.20 156.988 78.548
0.21 155.538 78.751
0.22 154.137 79.099
0.23 152.318 79.657
0.24 150.537 80.175
0.25 148.657 80.505
0.26 146.842 80.603
0.27 145.232 80.283
0.28 144.055 79.253
0.29 144.266 77.502
0.30 146.217 75.198
0.31 146.454 72.470
0.32 145.266 69.358
0.33 147.128 65.918
0.34 150.589 62.408
0.35 --undefined-- 65.048
0.36 --undefined-- 72.261
0.37 190.237 76.596
0.38 180.059 78.153
0.39 169.164 78.340
0.40 160.838 78.231
0.41 152.614 77.894
0.42 141.811 77.154
0.43 136.321 75.515
0.44 127.588 72.688
0.45 111.533 69.457
0.46 112.317 67.597
0.47 107.737 67.056
0.48 102.505 66.512
0.49 90.144 65.239
0.50 76.689 63.322
0.51 --undefined-- 60.946
0.52 --undefined-- 57.711
0.53 --undefined-- 53.660
0.54 --undefined-- 51.912
0.55 --undefined-- 51.633
0.56 --undefined-- 49.692
0.57 --undefined-- 46.882
0.58 --undefined-- 49.233
0.59 --undefined-- 52.963
0.60 --undefined-- 53.521
0.61 --undefined-- 51.645
0.62 --undefined-- 49.904
0.63 --undefined-- 49.019
0.64 --undefined-- 48.913
0.65 --undefined-- 49.625
0.66 --undefined-- 51.259
0.67 --undefined-- 52.499
0.68 --undefined-- 52.791
0.69 --undefined-- 53.241
0.70 --undefined-- 53.439
0.71 --undefined-- 53.345
0.72 --undefined-- 54.316
0.73 --undefined-- 54.658
0.74 --undefined-- 53.827
0.75 --undefined-- 53.493
0.76 --undefined-- 53.944
0.77 --undefined-- 53.969
0.78 --undefined-- 53.437
0.79 --undefined-- 52.828
0.80 --undefined-- 52.217
0.81 --undefined-- 52.142
0.82 --undefined-- 52.966
0.83 --undefined-- 52.940
0.84 --undefined-- 49.980
0.85 --undefined-- 44.705
0.86 --undefined-- 44.474
0.87 --undefined-- 45.972
0.88 --undefined-- 53.731
0.89 --undefined-- 64.252
0.90 217.961 70.695
0.91 219.992 73.991
0.92 223.587 75.311
0.93 225.982 75.605
0.94 223.969 75.607
0.95 219.605 76.189
0.96 224.833 77.836
0.97 229.211 79.535
0.98 234.200 80.571
0.99 232.904 81.239
1.00 223.728 81.581
1.01 216.035 81.301
1.02 213.138 79.800
1.03 213.186 76.105
1.04 210.137 71.323
1.05 190.718 70.197
1.06 184.712 72.240
1.07 186.845 75.293
1.08 177.531 77.044
1.09 171.985 77.504
1.10 163.307 78.050
1.11 156.864 78.820
1.12 152.548 79.185
1.13 148.203 78.908
1.14 147.565 77.969
1.15 151.517 76.573
1.16 151.676 75.538
1.17 153.864 75.930
1.18 154.344 77.548
1.19 151.392 78.998
1.20 151.263 79.391
1.21 150.153 79.067
1.22 148.072 78.387
1.23 145.889 76.842
1.24 143.015 73.997
1.25 144.794 71.722
1.26 148.494 72.194
1.27 150.024 73.358
1.28 150.621 74.155
1.29 150.520 74.560
1.30 150.108 74.676
1.31 148.771 74.502
1.32 146.606 73.969
1.33 142.990 73.091
1.34 136.520 72.519
1.35 128.899 73.460
1.36 121.124 74.542
1.37 116.860 74.394
1.38 110.477 73.462
1.39 107.670 72.794
1.40 105.311 72.746
1.41 105.834 72.833
1.42 108.061 72.978
1.43 110.830 73.279
1.44 117.368 73.794
1.45 124.238 74.543
1.46 130.277 74.916
1.47 134.181 74.945
1.48 145.898 75.398
1.49 164.185 76.186
1.50 178.675 76.898
1.51 187.111 77.182
1.52 194.079 77.249
1.53 203.840 77.546
1.54 212.972 77.996
1.55 217.498 78.338
1.56 219.490 78.517
1.57 218.495 78.642
1.58 215.291 78.599
1.59 209.869 77.820
1.60 200.240 76.114
1.61 197.027 74.491
1.62 185.214 73.991
1.63 174.539 74.226
1.64 164.022 74.759
1.65 153.212 75.876
1.66 143.102 76.580
1.67 136.274 76.207
1.68 129.896 75.135
1.69 126.206 74.343
1.70 125.006 74.044
1.71 122.920 73.392
1.72 121.703 72.488
1.73 120.961 71.668
1.74 121.749 71.127
1.75 124.500 71.101
1.76 127.654 71.351
1.77 131.215 71.521
1.78 135.341 71.197
1.79 140.186 70.122
1.80 145.700 68.262
1.81 152.162 65.734
1.82 151.942 63.749
1.83 152.924 65.263
1.84 215.508 70.921
1.85 219.103 75.446
1.86 213.376 77.196
1.87 209.618 76.955
1.88 208.798 76.472
1.89 209.266 76.491
1.90 209.340 76.431
1.91 209.338 75.817
1.92 209.443 74.579
1.93 209.130 73.082
1.94 212.398 72.186
1.95 219.265 72.290
1.96 220.989 72.778
1.97 220.041 73.165
1.98 219.317 73.189
1.99 218.942 72.933
2.00 217.947 72.771
2.01 215.592 72.553
2.02 210.005 71.654
2.03 197.080 69.710
2.04 186.330 66.860
2.05 184.015 63.935
2.06 196.522 61.280
2.07 200.973 58.452
2.08 201.435 58.105
2.09 208.987 65.126
2.10 194.675 71.306
2.11 191.451 74.730
2.12 181.810 76.269
2.13 173.172 76.413
2.14 169.666 75.223
2.15 169.652 73.369
2.16 169.073 72.353
2.17 162.541 72.201
2.18 162.785 72.295
2.19 161.740 72.317
2.20 160.155 71.600
2.21 153.665 69.794
2.22 147.437 67.632
2.23 148.614 65.739
2.24 154.590 63.643
2.25 159.378 61.548
2.26 160.111 60.042
2.27 154.396 60.875
2.28 156.179 66.094
2.29 162.135 70.843
2.30 158.438 73.602
2.31 160.968 74.854
2.32 166.817 75.148
2.33 172.126 74.591
2.34 176.749 72.879
2.35 178.871 70.178
2.36 173.720 67.810
2.37 172.332 65.657
2.38 171.006 62.842
2.39 166.929 63.794
2.40 --undefined-- 69.858
2.41 181.015 73.872
2.42 180.578 75.612
2.43 170.531 76.238
2.44 158.856 76.522
2.45 154.502 76.626
2.46 150.343 76.411
2.47 146.862 76.207
2.48 143.444 76.086
2.49 140.771 75.636
2.50 137.379 74.808
2.51 134.111 74.181
2.52 129.775 73.703
2.53 121.350 72.963
2.54 118.133 72.308
2.55 116.684 72.097
2.56 117.034 72.016
2.57 116.634 71.292
2.58 114.863 69.055
2.59 117.934 65.011
2.60 118.458 59.666
2.61 --undefined-- 53.956
2.62 --undefined-- 50.533
2.63 --undefined-- 48.875
2.64 --undefined-- 47.311
2.65 --undefined-- 50.218
2.66 --undefined-- 54.999
2.67 --undefined-- 60.487
2.68 --undefined-- 66.448
2.69 127.930 70.260
2.70 126.502 71.983
2.71 123.186 72.280
2.72 121.542 71.127
2.73 118.202 67.856
2.74 119.287 62.907
2.75 121.369 58.560
2.76 123.356 54.443
2.77 --undefined-- 50.385
2.78 --undefined-- 50.236
2.79 --undefined-- 55.166
2.80 --undefined-- 60.036
2.81 --undefined-- 62.881
2.82 --undefined-- 63.156
2.83 --undefined-- 60.984
2.84 --undefined-- 63.625
2.85 204.377 71.163
2.86 201.943 75.665
2.87 197.211 77.256
2.88 189.128 76.819
2.89 178.636 74.898
2.90 178.614 71.227
2.91 182.069 66.158
2.92 186.149 62.960
2.93 184.252 61.990
2.94 179.196 60.817
2.95 170.067 59.825
2.96 165.536 59.398
2.97 155.828 58.876
2.98 145.082 58.416
2.99 139.571 58.451
3.00 138.309 58.814
3.01 133.124 59.878
3.02 132.230 62.190
3.03 128.186 64.587
3.04 123.310 66.478
3.05 122.033 67.908
3.06 121.312 68.992
3.07 120.749 69.939
3.08 120.015 70.865
3.09 119.848 71.702
3.10 120.049 72.359
3.11 119.674 72.791
3.12 119.595 73.015
3.13 120.506 73.181
3.14 121.210 73.446
3.15 121.563 73.564
3.16 121.306 72.590
3.17 113.808 69.653
3.18 124.086 65.401
3.19 127.816 61.608
3.20 129.911 57.789
3.21 --undefined-- 53.513
3.22 --undefined-- 49.945
3.23 --undefined-- 48.974
3.24 --undefined-- 57.849
3.25 --undefined-- 66.937
3.26 159.631 72.463
3.27 151.577 75.060
3.28 139.129 75.622
3.29 137.444 75.063
3.30 138.963 74.105
3.31 138.709 72.897
3.32 138.109 71.030
3.33 136.374 68.594
3.34 132.828 66.216
3.35 132.075 64.341
3.36 136.285 63.001
3.37 137.724 61.634
3.38 135.010 59.778
3.39 121.533 56.893
3.40 --undefined-- 52.665
3.41 --undefined-- 48.947
3.42 --undefined-- 47.696
3.43 --undefined-- 46.497
3.44 --undefined-- 44.979
3.45 --undefined-- 45.849
3.46 --undefined-- 47.598
3.47 --undefined-- 51.832
3.48 --undefined-- 62.611
3.49 200.069 70.367
3.50 191.503 74.622
3.51 192.434 76.581
3.52 189.514 77.271
3.53 185.984 76.994
3.54 184.994 75.463
3.55 183.673 72.252
3.56 182.628 68.095
3.57 181.972 65.718
3.58 127.172 64.040
3.59 133.102 61.987
3.60 169.182 60.527
3.61 177.955 59.747
3.62 168.061 59.704
3.63 173.468 59.424
3.64 184.685 58.137
3.65 148.522 57.441
3.66 128.624 58.451
3.67 117.583 61.308
3.68 113.754 65.108
3.69 113.406 68.559
3.70 111.443 70.857
3.71 108.617 71.868
3.72 105.682 71.913
3.73 102.075 71.290
3.74 98.449 70.069
3.75 94.538 68.325
3.76 92.768 66.146
3.77 92.620 63.744
3.78 97.151 62.619
3.79 96.591 63.491
3.80 98.538 64.773
3.81 99.127 65.781
3.82 99.999 66.254
3.83 99.919 66.316
3.84 102.874 66.788
3.85 111.452 68.700
3.86 114.483 71.285
3.87 115.180 73.263
3.88 116.479 74.308
3.89 119.873 74.630
3.90 119.776 74.337
3.91 119.045 72.955
3.92 115.159 69.905
3.93 125.376 65.800
3.94 131.238 62.936
3.95 135.619 60.878
3.96 137.281 57.901
3.97 --undefined-- 54.085
3.98 --undefined-- 53.407
3.99 --undefined-- 60.968
4.00 --undefined-- 69.782
4.01 175.949 75.128
4.02 168.424 77.786
4.03 166.133 78.858
4.04 163.148 79.377
4.05 161.286 79.650
4.06 160.120 79.698
4.07 158.976 79.524
4.08 157.584 78.802
4.09 157.025 77.159
4.10 160.612 74.367
4.11 159.455 70.978
4.12 153.834 68.625
4.13 153.880 67.266
4.14 153.768 65.576
4.15 156.034 64.527
4.16 157.334 66.913
4.17 174.061 71.431
4.18 166.978 74.777
4.19 162.733 76.359
4.20 157.740 76.746
4.21 155.727 76.409
4.22 153.043 75.748
4.23 151.176 75.002
4.24 148.781 74.029
4.25 152.296 73.626
4.26 155.408 73.935
4.27 157.138 74.238
4.28 157.951 74.533
4.29 158.284 74.921
4.30 161.701 75.503
4.31 163.270 76.303
4.32 160.824 77.019
4.33 161.359 77.418
4.34 160.738 77.588
4.35 160.813 77.677
4.36 160.152 77.534
4.37 159.086 77.097
4.38 157.663 76.454
4.39 152.577 75.127
4.40 152.847 72.392
4.41 149.459 68.217
4.42 158.322 63.657
4.43 159.015 60.377
4.44 158.848 58.406
4.45 158.302 56.049
4.46 158.303 53.180
4.47 --undefined-- 50.476
4.48 --undefined-- 49.184
4.49 --undefined-- 49.587
4.50 --undefined-- 50.108
4.51 --undefined-- 50.763
4.52 --undefined-- 51.319
4.53 --undefined-- 51.202
4.54 --undefined-- 50.669
4.55 --undefined-- 50.312
4.56 --undefined-- 50.008
4.57 --undefined-- 49.851
4.58 --undefined-- 49.992
4.59 --undefined-- 49.710
4.60 --undefined-- 49.049
4.61 --undefined-- 47.988
4.62 --undefined-- 46.573
4.63 --undefined-- 45.243
4.64 --undefined-- 43.371
4.65 --undefined-- 40.186
4.66 --undefined-- 36.746
4.67 --undefined-- 36.320
4.68 --undefined-- 36.800
4.69 --undefined-- 35.846
4.70 --undefined-- 37.788
4.71 --undefined-- 46.894
4.72 --undefined-- 56.202
4.73 --undefined-- 62.665
4.74 --undefined-- 66.077
4.75 --undefined-- 67.704
4.76 --undefined-- 72.173
4.77 208.452 76.510
4.78 204.569 77.970
4.79 198.833 77.122
4.80 194.513 75.652
4.81 192.407 75.619
4.82 190.956 76.371
4.83 190.579 76.627
4.84 190.601 76.428
4.85 190.746 76.309
4.86 190.553 76.369
4.87 190.389 76.482
4.88 190.659 76.646
4.89 190.695 76.783
4.90 190.735 76.790
4.91 190.778 76.584
4.92 190.612 76.317
4.93 190.090 76.098
4.94 188.659 75.730
4.95 184.730 75.094
4.96 183.243 74.495
4.97 181.244 73.936
4.98 176.797 73.262
4.99 171.158 72.965
5.00 166.469 73.088
5.01 159.783 72.968
5.02 152.621 72.176
5.03 143.352 71.013
5.04 138.722 71.066
5.05 133.330 72.885
5.06 132.401 75.317
5.07 132.468 77.045
5.08 132.033 77.539
5.09 129.693 77.170
5.10 128.865 76.892
5.11 130.600 77.093
5.12 131.986 77.535
5.13 132.966 77.987
5.14 134.889 78.241
5.15 137.601 78.155
5.16 138.779 --undefined--
5.17 136.898 --undefined--
5.18 --undefined-- --undefined--
5.19 --undefined-- --undefined--
