Time Pitch Intensity
0.01 --undefined-- --undefined--
0.02 --undefined-- --undefined--
0.03 --undefined-- --undefined--
0.04 --undefined-- --undefined--
0.05 --undefined-- 37.251
0.06 --undefined-- 35.996
0.07 --undefined-- 34.836
0.08 --undefined-- 35.009
0.09 --undefined-- 41.086
0.10 --undefined-- 51.507
0.11 --undefined-- 59.517
0.12 --undefined-- 65.173
0.13 95.517 69.068
0.14 91.182 71.422
0.15 87.448 72.464
0.16 83.810 72.287
0.17 82.566 71.008
0.18 81.173 69.129
0.19 79.564 67.228
0.20 77.194 64.772
0.21 75.852 60.759
0.22 74.494 55.714
0.23 --undefined-- 50.924
0.24 --undefined-- 46.511
0.25 --undefined-- 42.453
0.26 --undefined-- 39.082
0.27 --undefined-- 38.129
0.28 --undefined-- 37.720
0.29 --undefined-- 37.601
0.30 --undefined-- 39.165
0.31 --undefined-- 41.995
0.32 --undefined-- 45.468
0.33 83.309 49.413
0.34 82.157 53.449
0.35 81.469 57.005
0.36 80.926 59.869
0.37 78.930 62.422
0.38 80.074 64.960
0.39 78.504 66.938
0.40 77.456 68.195
0.41 77.514 69.152
0.42 76.790 69.661
0.43 77.132 69.405
0.44 77.494 68.384
0.45 77.590 67.058
0.46 76.521 65.457
0.47 75.145 62.981
0.48 75.479 59.136
0.49 --undefined-- 53.745
0.50 --undefined-- 47.845
0.51 --undefined-- 44.660
0.52 --undefined-- 46.602
0.53 --undefined-- 49.270
0.54 --undefined-- 50.665
0.55 --undefined-- 49.905
0.56 --undefined-- 48.008
0.57 --undefined-- 47.398
0.58 --undefined-- 47.291
0.59 --undefined-- 50.238
0.60 86.338 57.024
0.61 86.538 63.598
0.62 87.714 68.245
0.63 87.147 70.706
0.64 84.295 71.355
0.65 85.616 71.388
0.66 85.183 71.433
0.67 84.799 71.223
0.68 84.582 71.018
0.69 83.928 71.070
0.70 82.892 71.236
0.71 82.874 71.518
0.72 82.983 71.769
0.73 83.190 71.762
0.74 83.775 71.509
0.75 84.297 71.145
0.76 83.608 70.898
0.77 83.486 70.937
0.78 83.359 71.269
0.79 83.247 71.805
0.80 83.497 72.445
0.81 83.909 73.054
0.82 83.831 73.462
0.83 83.829 73.807
0.84 84.933 74.318
0.85 84.001 74.631
0.86 82.633 74.337
0.87 81.579 73.231
0.88 79.277 71.001
0.89 93.276 67.663
0.90 93.292 64.552
0.91 --undefined-- 62.982
0.92 --undefined-- 61.493
0.93 --undefined-- 57.970
0.94 --undefined-- 51.668
0.95 --undefined-- 42.281
0.96 --undefined-- 35.972
0.97 --undefined-- 36.615
0.98 --undefined-- 36.848
0.99 --undefined-- 36.880
1.00 --undefined-- 40.470
1.01 --undefined-- 44.533
1.02 --undefined-- 47.660
1.03 --undefined-- 56.137
1.04 --undefined-- 64.587
1.05 108.824 69.904
1.06 107.625 72.472
1.07 106.072 73.101
1.08 103.811 72.806
1.09 101.971 72.229
1.10 99.092 71.599
1.11 96.940 70.962
1.12 95.697 70.192
1.13 95.746 69.674
1.14 95.658 69.319
1.15 95.101 67.665
1.16 --undefined-- 63.559
1.17 --undefined-- 58.059
1.18 --undefined-- 53.434
1.19 --undefined-- 48.081
1.20 --undefined-- 41.752
1.21 --undefined-- 37.240
1.22 --undefined-- 41.605
1.23 --undefined-- 52.768
1.24 --undefined-- 61.631
1.25 --undefined-- 67.280
1.26 --undefined-- 70.247
1.27 83.301 71.256
1.28 83.473 71.001
1.29 81.082 70.002
1.30 78.633 69.077
1.31 76.701 68.485
1.32 76.661 67.699
1.33 74.837 66.888
1.34 84.662 65.726
1.35 83.997 63.921
1.36 82.630 62.383
1.37 --undefined-- 61.845
1.38 --undefined-- 61.086
1.39 --undefined-- 58.977
1.40 --undefined-- 55.397
1.41 --undefined-- 50.284
1.42 --undefined-- 45.351
1.43 --undefined-- 43.144
1.44 --undefined-- 43.141
1.45 --undefined-- 41.974
1.46 --undefined-- 40.013
1.47 --undefined-- 39.511
1.48 --undefined-- 44.596
1.49 --undefined-- 56.440
1.50 --undefined-- 65.422
1.51 --undefined-- 70.277
1.52 84.923 71.940
1.53 76.352 71.403
1.54 78.261 70.223
1.55 78.431 69.634
1.56 78.396 69.434
1.57 79.423 69.241
1.58 79.496 69.064
1.59 80.120 69.009
1.60 80.076 69.019
1.61 79.557 68.900
1.62 80.378 67.870
1.63 80.830 65.524
1.64 80.955 62.021
1.65 --undefined-- 56.783
1.66 --undefined-- 49.171
1.67 --undefined-- 41.688
1.68 --undefined-- 38.864
1.69 --undefined-- 37.352
1.70 --undefined-- 37.938
1.71 --undefined-- 39.850
1.72 --undefined-- 40.704
1.73 --undefined-- 42.407
1.74 --undefined-- 48.896
1.75 --undefined-- 56.068
1.76 --undefined-- 61.475
1.77 92.855 64.998
1.78 90.472 66.228
1.79 89.861 65.545
1.80 89.709 64.875
1.81 90.080 64.539
1.82 90.642 63.139
1.83 93.565 60.540
1.84 98.146 57.482
1.85 102.004 54.270
1.86 --undefined-- 50.368
1.87 --undefined-- 44.855
1.88 --undefined-- 41.278
1.89 --undefined-- 42.374
1.90 --undefined-- 44.634
1.91 --undefined-- 47.588
1.92 --undefined-- 48.818
1.93 --undefined-- 47.934
1.94 --undefined-- 46.229
1.95 --undefined-- 44.268
1.96 --undefined-- 42.262
1.97 --undefined-- 41.132
1.98 --undefined-- 44.295
1.99 --undefined-- 51.728
2.00 --undefined-- 56.735
2.01 --undefined-- 58.374
2.02 --undefined-- 56.881
2.03 --undefined-- 53.339
2.04 --undefined-- 49.654
2.05 --undefined-- 47.605
2.06 --undefined-- 46.526
2.07 --undefined-- 45.748
2.08 --undefined-- 45.285
2.09 --undefined-- 45.085
2.10 --undefined-- 45.783
2.11 --undefined-- 46.872
2.12 --undefined-- 47.262
2.13 --undefined-- 46.959
2.14 --undefined-- 46.835
2.15 --undefined-- 47.121
2.16 --undefined-- 46.904
2.17 --undefined-- 46.680
2.18 --undefined-- 47.058
2.19 --undefined-- 47.177
2.20 --undefined-- 47.330
2.21 --undefined-- 47.912
2.22 --undefined-- 48.332
2.23 --undefined-- 48.443
2.24 --undefined-- 48.882
2.25 --undefined-- 49.675
2.26 --undefined-- 50.350
2.27 --undefined-- 51.108
2.28 --undefined-- 51.431
2.29 --undefined-- 51.751
2.30 --undefined-- 52.824
2.31 --undefined-- 54.627
2.32 --undefined-- 58.230
2.33 --undefined-- 61.138
2.34 --undefined-- 66.208
2.35 --undefined-- 72.061
2.36 --undefined-- 74.894
2.37 --undefined-- 75.176
2.38 110.838 74.405
2.39 105.947 73.302
2.40 101.809 71.244
2.41 97.362 67.781
2.42 92.293 62.789
2.43 --undefined-- 56.590
2.44 --undefined-- 51.043
2.45 --undefined-- 47.882
2.46 --undefined-- 46.461
2.47 --undefined-- 44.570
2.48 --undefined-- 41.103
2.49 --undefined-- 36.573
2.50 --undefined-- 33.917
2.51 --undefined-- 34.685
2.52 --undefined-- 36.052
2.53 --undefined-- 38.537
2.54 --undefined-- 40.111
2.55 --undefined-- 40.666
2.56 --undefined-- 47.691
2.57 --undefined-- 56.042
2.58 --undefined-- 62.494
2.59 --undefined-- 66.697
2.60 87.799 68.473
2.61 81.311 67.752
2.62 78.798 64.551
2.63 74.537 59.380
2.64 --undefined-- 53.349
2.65 --undefined-- 47.807
2.66 --undefined-- 46.092
2.67 --undefined-- 45.987
2.68 --undefined-- 47.236
2.69 --undefined-- 52.826
2.70 --undefined-- 58.494
2.71 --undefined-- 61.092
2.72 --undefined-- 62.585
2.73 --undefined-- 66.020
2.74 91.989 68.800
2.75 83.245 70.220
2.76 79.998 70.510
2.77 78.049 69.783
2.78 75.292 68.874
2.79 74.756 68.902
2.80 92.840 69.367
2.81 92.114 69.643
2.82 75.141 69.960
2.83 75.666 70.293
2.84 77.437 70.566
2.85 77.379 70.696
2.86 76.999 70.524
2.87 75.327 69.994
2.88 86.921 69.503
2.89 --undefined-- 69.154
2.90 78.020 68.229
2.91 77.642 66.513
2.92 --undefined-- 63.671
2.93 --undefined-- 58.842
2.94 --undefined-- 51.121
2.95 --undefined-- 45.336
2.96 --undefined-- 44.613
2.97 --undefined-- 42.967
2.98 --undefined-- 40.816
2.99 --undefined-- 40.064
3.00 --undefined-- 39.550
3.01 --undefined-- 41.505
3.02 --undefined-- 49.998
3.03 --undefined-- 58.806
3.04 119.075 66.351
3.05 120.596 71.021
3.06 77.624 72.626
3.07 78.360 71.929
3.08 82.159 70.413
3.09 85.697 70.213
3.10 --undefined-- 70.914
3.11 --undefined-- 71.075
3.12 --undefined-- 70.360
3.13 --undefined-- 69.416
3.14 --undefined-- 68.297
3.15 --undefined-- 65.574
3.16 --undefined-- 60.453
3.17 --undefined-- 53.849
3.18 --undefined-- 46.724
3.19 --undefined-- 40.411
3.20 --undefined-- 36.531
3.21 --undefined-- 36.170
3.22 --undefined-- 37.525
3.23 --undefined-- 37.261
3.24 --undefined-- 35.362
3.25 --undefined-- 34.436
3.26 --undefined-- 34.715
3.27 --undefined-- 35.632
3.28 --undefined-- 36.901
3.29 --undefined-- 36.886
3.30 --undefined-- 35.662
3.31 --undefined-- 36.549
3.32 --undefined-- 38.640
3.33 --undefined-- 39.046
3.34 --undefined-- 37.642
3.35 --undefined-- 36.762
3.36 --undefined-- 36.899
3.37 --undefined-- 36.854
3.38 --undefined-- 37.410
3.39 --undefined-- 37.755
3.40 --undefined-- 37.873
3.41 --undefined-- 37.864
3.42 --undefined-- 37.548
3.43 --undefined-- 36.938
3.44 --undefined-- 35.909
3.45 --undefined-- 36.453
3.46 --undefined-- 39.136
3.47 --undefined-- 41.708
3.48 --undefined-- 42.225
3.49 --undefined-- 40.458
3.50 --undefined-- 38.390
3.51 --undefined-- 39.446
3.52 --undefined-- 43.985
3.53 --undefined-- 51.468
3.54 --undefined-- 58.089
3.55 --undefined-- 62.128
3.56 --undefined-- 64.866
3.57 --undefined-- 68.112
3.58 --undefined-- 70.156
3.59 --undefined-- 69.695
3.60 --undefined-- 67.915
3.61 --undefined-- 67.322
3.62 --undefined-- 66.465
3.63 --undefined-- 63.423
3.64 --undefined-- 59.932
3.65 --undefined-- 63.387
3.66 97.971 68.384
3.67 92.921 71.517
3.68 92.092 72.863
3.69 91.978 73.123
3.70 92.505 72.806
3.71 92.663 71.906
3.72 92.472 70.454
3.73 93.987 68.780
3.74 96.428 66.937
3.75 96.434 65.086
3.76 99.092 65.158
3.77 100.807 68.203
3.78 98.000 71.275
3.79 94.738 72.804
3.80 90.997 72.835
3.81 87.206 72.253
3.82 85.984 71.746
3.83 84.623 71.164
3.84 84.205 70.534
3.85 84.552 70.210
3.86 85.192 70.273
3.87 85.469 70.159
3.88 86.256 69.202
3.89 84.496 66.757
3.90 84.419 62.002
3.91 --undefined-- 54.294
3.92 --undefined-- 45.010
3.93 --undefined-- 43.542
3.94 --undefined-- 50.361
3.95 --undefined-- 54.000
3.96 --undefined-- 54.539
3.97 --undefined-- 55.386
3.98 --undefined-- 60.378
3.99 --undefined-- 65.851
4.00 --undefined-- 69.449
4.01 --undefined-- 71.350
4.02 86.391 72.072
4.03 84.580 72.189
4.04 82.232 71.982
4.05 81.640 71.308
4.06 82.584 70.263
4.07 83.541 69.264
4.08 84.653 68.538
4.09 85.442 67.584
4.10 84.746 65.453
4.11 --undefined-- 61.526
4.12 --undefined-- 55.741
4.13 --undefined-- 49.537
4.14 --undefined-- 49.914
4.15 --undefined-- 58.667
4.16 --undefined-- 66.133
4.17 --undefined-- 70.757
4.18 86.751 73.049
4.19 83.836 73.709
4.20 83.330 73.152
4.21 82.916 71.114
4.22 82.162 67.571
4.23 81.095 62.928
4.24 --undefined-- 57.287
4.25 --undefined-- 50.006
4.26 --undefined-- 41.194
4.27 --undefined-- 35.620
4.28 --undefined-- 34.415
4.29 --undefined-- 35.239
4.30 --undefined-- 36.589
4.31 --undefined-- 43.417
4.32 --undefined-- 51.190
4.33 --undefined-- 57.727
4.34 --undefined-- 63.330
4.35 84.942 67.885
4.36 83.314 70.993
4.37 82.431 72.688
4.38 81.880 73.043
4.39 80.728 72.534
4.40 80.293 72.048
4.41 79.300 71.815
4.42 78.345 71.500
4.43 77.562 71.244
4.44 75.899 71.152
4.45 74.821 71.174
4.46 --undefined-- 71.141
4.47 --undefined-- 70.792
4.48 --undefined-- 70.574
4.49 75.348 70.733
4.50 75.409 70.965
4.51 74.682 71.137
4.52 75.635 71.094
4.53 76.034 70.987
4.54 76.404 71.260
4.55 76.796 71.886
4.56 76.384 72.223
4.57 75.912 72.155
4.58 76.363 72.076
4.59 77.993 72.004
4.60 79.090 71.701
4.61 80.215 71.251
4.62 81.253 70.993
4.63 84.099 70.468
4.64 83.115 68.148
4.65 --undefined-- 63.530
4.66 --undefined-- 58.779
4.67 --undefined-- 56.893
4.68 --undefined-- 54.091
4.69 --undefined-- 48.120
4.70 --undefined-- 43.861
4.71 --undefined-- 47.650
4.72 --undefined-- 59.972
4.73 --undefined-- 68.741
4.74 --undefined-- 73.332
4.75 103.869 74.658
4.76 89.675 73.879
4.77 85.381 72.522
4.78 82.157 71.352
4.79 80.330 70.249
4.80 80.396 69.390
4.81 80.550 68.631
4.82 79.170 67.336
4.83 78.492 65.397
4.84 76.793 63.457
4.85 76.443 61.327
4.86 86.810 58.991
4.87 --undefined-- 56.795
4.88 --undefined-- 54.432
4.89 --undefined-- 50.872
4.90 --undefined-- 45.809
4.91 --undefined-- 42.693
4.92 --undefined-- 43.101
4.93 --undefined-- 43.251
4.94 --undefined-- 42.208
4.95 --undefined-- 39.981
4.96 --undefined-- 37.035
4.97 --undefined-- 35.513
4.98 --undefined-- 36.673
4.99 --undefined-- 37.914
5.00 --undefined-- 38.488
5.01 --undefined-- 39.741
5.02 --undefined-- 43.599
5.03 --undefined-- 52.625
5.04 --undefined-- 63.008
5.05 --undefined-- 69.881
5.06 108.496 73.418
5.07 104.656 74.086
5.08 99.555 73.086
5.09 96.501 71.981
5.10 94.697 70.891
5.11 94.260 68.935
5.12 93.437 66.296
5.13 92.332 64.218
5.14 91.570 62.999
5.15 90.954 62.338
5.16 91.344 61.792
5.17 92.578 61.073
5.18 94.028 60.457
5.19 97.020 59.958
5.20 98.439 58.735
5.21 --undefined-- 56.418
5.22 --undefined-- 54.277
5.23 --undefined-- 51.770
5.24 --undefined-- 47.455
5.25 --undefined-- 44.824
5.26 --undefined-- 44.325
5.27 --undefined-- 44.033
5.28 --undefined-- 44.203
5.29 --undefined-- 44.766
5.30 --undefined-- 45.363
5.31 --undefined-- 45.556
5.32 --undefined-- 45.655
5.33 --undefined-- 45.977
5.34 --undefined-- 45.923
5.35 --undefined-- 45.796
5.36 --undefined-- 46.495
5.37 --undefined-- 47.177
5.38 --undefined-- 46.873
5.39 --undefined-- 46.026
5.40 --undefined-- 45.491
5.41 --undefined-- 45.268
5.42 --undefined-- 45.441
5.43 --undefined-- 46.383
5.44 --undefined-- 47.295
5.45 --undefined-- 48.577
5.46 --undefined-- 51.211
5.47 --undefined-- 52.649
5.48 --undefined-- 51.562
5.49 --undefined-- 49.007
5.50 --undefined-- 45.764
5.51 --undefined-- 40.994
5.52 --undefined-- 36.965
5.53 --undefined-- 36.141
5.54 --undefined-- 35.501
5.55 --undefined-- 36.852
5.56 --undefined-- 38.922
5.57 --undefined-- 39.125
5.58 --undefined-- 37.534
5.59 --undefined-- 38.853
5.60 --undefined-- 44.757
5.61 80.441 50.522
5.62 80.600 55.796
5.63 79.503 60.359
5.64 77.623 63.970
5.65 77.274 66.459
5.66 76.739 68.012
5.67 76.472 68.485
5.68 76.172 67.788
5.69 75.793 65.976
5.70 --undefined-- 62.511
5.71 --undefined-- 56.473
5.72 --undefined-- 47.930
5.73 --undefined-- 41.080
5.74 --undefined-- 39.002
5.75 --undefined-- 38.466
5.76 --undefined-- 38.115
5.77 --undefined-- 37.460
5.78 --undefined-- 41.070
5.79 --undefined-- 51.347
5.80 --undefined-- 59.922
5.81 --undefined-- 65.647
5.82 --undefined-- 69.216
5.83 96.750 71.343
5.84 97.999 72.252
5.85 99.776 71.860
5.86 101.004 70.469
5.87 100.433 68.373
5.88 96.348 65.048
5.89 97.791 60.419
5.90 101.268 57.330
5.91 99.976 55.932
5.92 98.750 55.530
5.93 97.535 55.769
5.94 96.875 55.860
5.95 96.403 55.559
5.96 96.087 55.171
5.97 96.255 54.993
5.98 96.295 54.924
5.99 96.772 54.537
6.00 96.944 53.501
6.01 95.431 52.066
6.02 96.124 50.340
6.03 --undefined-- 48.484
6.04 --undefined-- 47.751
6.05 --undefined-- 47.540
6.06 --undefined-- 47.100
6.07 --undefined-- --undefined--
6.08 --undefined-- --undefined--
6.09 --undefined-- --undefined--
6.10 --undefined-- --undefined--
