Time Pitch Intensity
0.01 --undefined-- --undefined--
0.02 --undefined-- --undefined--
0.03 --undefined-- --undefined--
0.04 --undefined-- --undefined--
0.05 --undefined-- 69.344
0.06 --undefined-- 68.417
0.07 --undefined-- 67.355
0.08 106.892 66.081
0.09 106.739 64.973
0.10 107.148 63.394
0.11 110.908 61.236
0.12 117.354 60.620
0.13 125.132 61.430
0.14 128.242 61.922
0.15 132.954 61.655
0.16 135.901 60.289
0.17 128.159 57.739
0.18 120.917 54.585
0.19 120.236 50.790
0.20 --undefined-- 45.195
0.21 --undefined-- 37.967
0.22 --undefined-- 36.659
0.23 --undefined-- 45.401
0.24 --undefined-- 52.903
0.25 --undefined-- 58.945
0.26 123.757 63.060
0.27 129.738 65.257
0.28 132.684 66.282
0.29 133.051 66.769
0.30 132.684 67.062
0.31 132.799 67.180
0.32 136.956 67.169
0.33 138.725 67.395
0.34 143.459 67.899
0.35 149.777 68.160
0.36 157.891 67.636
0.37 169.438 66.535
0.38 176.300 65.940
0.39 184.038 66.268
0.40 189.978 66.738
0.41 195.677 66.498
0.42 202.144 65.474
0.43 205.696 64.651
0.44 208.765 64.803
0.45 210.906 65.224
0.46 214.431 65.085
0.47 222.725 66.481
0.48 226.270 69.406
0.49 227.565 71.033
0.50 228.082 71.221
0.51 228.538 70.864
0.52 228.441 70.560
0.53 228.033 70.099
0.54 225.273 69.299
0.55 222.793 68.692
0.56 223.140 68.677
0.57 222.473 68.918
0.58 222.072 68.984
0.59 222.440 68.685
0.60 224.494 67.933
0.61 228.059 66.606
0.62 229.288 64.569
0.63 229.141 62.364
0.64 227.898 60.644
0.65 229.231 58.824
0.66 247.259 56.322
0.67 --undefined-- 52.066
0.68 --undefined-- 45.532
0.69 --undefined-- 40.154
0.70 --undefined-- 41.421
0.71 --undefined-- 43.205
0.72 --undefined-- 47.000
0.73 --undefined-- 55.313
0.74 --undefined-- 61.609
0.75 138.886 65.141
0.76 135.343 66.788
0.77 124.510 67.033
0.78 122.989 65.922
0.79 122.222 63.496
0.80 --undefined-- 59.432
0.81 --undefined-- 53.045
0.82 --undefined-- 45.843
0.83 --undefined-- 44.212
0.84 --undefined-- 47.727
0.85 --undefined-- 56.582
0.86 --undefined-- 63.958
0.87 163.815 68.181
0.88 163.913 70.040
0.89 163.915 70.536
0.90 145.255 70.259
0.91 145.203 68.798
0.92 --undefined-- 65.280
0.93 --undefined-- 59.694
0.94 --undefined-- 52.724
0.95 --undefined-- 46.204
0.96 --undefined-- 41.374
0.97 --undefined-- 36.721
0.98 --undefined-- 33.897
0.99 --undefined-- 40.826
1.00 --undefined-- 47.620
1.01 --undefined-- 50.160
1.02 --undefined-- 49.222
1.03 --undefined-- 46.804
1.04 --undefined-- 44.972
1.05 --undefined-- 45.055
1.06 --undefined-- 46.837
1.07 --undefined-- 45.848
1.08 --undefined-- 40.806
1.09 --undefined-- 35.150
1.10 --undefined-- 36.196
1.11 --undefined-- 35.845
1.12 --undefined-- 32.125
1.13 --undefined-- 30.994
1.14 --undefined-- 48.092
1.15 --undefined-- 59.639
1.16 --undefined-- 65.617
1.17 --undefined-- 67.664
1.18 --undefined-- 68.878
1.19 274.766 71.822
1.20 273.987 74.104
1.21 274.393 74.791
1.22 271.564 74.138
1.23 268.217 72.438
1.24 271.786 69.931
1.25 282.271 67.129
1.26 285.076 64.816
1.27 278.149 63.831
1.28 275.456 64.010
1.29 275.247 64.434
1.30 274.841 64.856
1.31 274.883 65.238
1.32 273.466 65.633
1.33 265.995 66.150
1.34 263.116 66.199
1.35 257.905 65.230
1.36 243.205 64.133
1.37 237.342 63.899
1.38 242.084 63.355
1.39 234.957 62.027
1.40 215.028 61.242
1.41 204.318 61.978
1.42 192.399 63.780
1.43 181.516 65.562
1.44 181.390 66.826
1.45 181.375 67.631
1.46 183.382 68.180
1.47 185.804 68.375
1.48 185.727 67.889
1.49 188.429 66.728
1.50 195.857 65.464
1.51 200.522 64.909
1.52 200.101 64.717
1.53 206.235 64.050
1.54 212.520 63.770
1.55 212.307 66.935
1.56 214.351 70.026
1.57 216.247 71.090
1.58 218.642 70.919
1.59 221.886 70.676
1.60 222.148 70.395
1.61 222.077 69.726
1.62 221.204 68.947
1.63 221.575 67.920
1.64 220.514 66.019
1.65 215.854 63.588
1.66 210.878 61.211
1.67 195.557 58.387
1.68 185.077 54.582
1.69 --undefined-- 49.654
1.70 --undefined-- 45.774
1.71 --undefined-- 53.555
1.72 --undefined-- 61.304
1.73 --undefined-- 66.301
1.74 170.661 69.468
1.75 162.255 70.804
1.76 156.213 70.223
1.77 149.982 68.380
1.78 --undefined-- 66.078
1.79 134.463 63.630
1.80 128.411 60.846
1.81 123.533 57.840
1.82 126.181 55.964
1.83 114.883 55.483
1.84 113.077 55.314
1.85 99.235 55.082
1.86 --undefined-- 55.232
1.87 --undefined-- 54.961
1.88 95.709 55.457
1.89 95.359 55.906
1.90 101.554 55.990
1.91 127.925 57.388
1.92 130.814 59.306
1.93 134.294 60.478
1.94 140.127 61.092
1.95 147.462 61.285
1.96 150.814 60.748
1.97 156.546 59.541
1.98 164.568 59.031
1.99 175.980 61.042
2.00 177.915 62.937
2.01 178.106 63.266
2.02 176.991 62.721
2.03 168.922 62.534
2.04 159.789 63.558
2.05 157.238 64.927
2.06 149.474 65.378
2.07 145.409 65.317
2.08 144.430 65.849
2.09 143.690 66.126
2.10 138.436 64.455
2.11 128.981 60.281
2.12 --undefined-- 54.078
2.13 --undefined-- 46.037
2.14 --undefined-- 36.381
2.15 --undefined-- 30.679
2.16 --undefined-- 28.473
2.17 --undefined-- 28.215
2.18 --undefined-- 37.608
2.19 --undefined-- 48.548
2.20 --undefined-- 56.080
2.21 --undefined-- 61.794
2.22 --undefined-- 65.639
2.23 --undefined-- 67.583
2.24 --undefined-- 68.233
2.25 137.517 68.399
2.26 133.773 68.463
2.27 133.019 68.102
2.28 134.407 67.434
2.29 140.577 66.863
2.30 163.136 66.784
2.31 173.019 67.474
2.32 173.694 68.187
2.33 175.073 68.504
2.34 182.796 68.496
2.35 192.337 68.697
2.36 201.999 69.074
2.37 214.379 69.130
2.38 217.535 68.880
2.39 220.073 68.032
2.40 221.244 65.793
2.41 223.483 62.619
2.42 226.765 60.976
2.43 227.811 60.963
2.44 226.677 60.589
2.45 214.918 59.977
2.46 214.848 59.745
2.47 211.264 59.842
2.48 197.025 60.236
2.49 194.159 61.024
2.50 181.668 61.781
2.51 169.972 62.494
2.52 162.895 62.922
2.53 152.667 62.515
2.54 144.902 61.544
2.55 135.242 60.288
2.56 129.943 59.014
2.57 --undefined-- 58.589
2.58 --undefined-- 59.017
2.59 --undefined-- 59.539
2.60 285.366 59.862
2.61 292.670 60.251
2.62 288.932 59.912
2.63 282.566 60.361
2.64 277.775 61.394
2.65 146.671 62.055
2.66 149.365 63.315
2.67 158.450 65.988
2.68 160.487 68.861
2.69 161.431 70.380
2.70 162.791 70.496
2.71 161.884 70.068
2.72 159.975 69.722
2.73 159.301 69.282
2.74 158.396 68.619
2.75 158.806 67.811
2.76 160.263 66.881
2.77 161.975 65.941
2.78 165.546 64.703
2.79 171.840 63.213
2.80 170.008 61.091
2.81 165.476 57.260
2.82 --undefined-- 51.204
2.83 --undefined-- 42.788
2.84 --undefined-- 36.567
2.85 --undefined-- 37.798
2.86 --undefined-- 39.356
2.87 --undefined-- 41.412
2.88 --undefined-- 47.923
2.89 --undefined-- 57.503
2.90 --undefined-- 63.703
2.91 229.634 66.372
2.92 230.869 67.012
2.93 233.617 68.101
2.94 231.247 69.688
2.95 228.151 70.650
2.96 224.620 71.095
2.97 222.391 71.396
2.98 222.108 71.601
2.99 222.022 71.646
3.00 221.436 71.292
3.01 222.471 70.355
3.02 225.448 68.772
3.03 224.655 66.658
3.04 223.382 64.281
3.05 223.111 62.208
3.06 220.277 61.038
3.07 216.056 60.221
3.08 214.725 59.645
3.09 222.974 60.551
3.10 226.574 62.006
3.11 224.239 62.330
3.12 218.745 61.951
3.13 213.714 62.407
3.14 207.444 64.282
3.15 202.291 66.350
3.16 --undefined-- 68.104
3.17 172.153 69.737
3.18 162.304 70.528
3.19 155.129 70.041
3.20 152.722 68.553
3.21 149.336 66.741
3.22 149.779 65.530
3.23 151.277 64.895
3.24 152.860 64.106
3.25 156.412 63.118
3.26 157.377 62.392
3.27 156.643 62.100
3.28 157.328 62.045
3.29 160.099 62.236
3.30 161.933 62.837
3.31 165.322 64.277
3.32 167.588 66.123
3.33 168.014 67.275
3.34 172.160 67.713
3.35 176.306 67.610
3.36 175.299 66.472
3.37 170.249 63.773
3.38 170.803 59.031
3.39 --undefined-- 52.007
3.40 --undefined-- 47.528
3.41 --undefined-- 50.513
3.42 --undefined-- 53.963
3.43 --undefined-- 55.179
3.44 --undefined-- 54.977
3.45 --undefined-- 55.215
3.46 --undefined-- 57.224
3.47 --undefined-- 59.950
3.48 --undefined-- 60.949
3.49 --undefined-- 60.486
3.50 --undefined-- 59.830
3.51 --undefined-- 59.287
3.52 287.876 59.079
3.53 295.658 58.874
3.54 106.260 58.525
3.55 117.271 58.336
3.56 76.792 58.822
3.57 77.525 59.896
3.58 161.335 59.938
3.59 163.552 57.951
3.60 163.399 53.774
3.61 --undefined-- 47.458
3.62 --undefined-- 41.851
3.63 --undefined-- 43.614
3.64 --undefined-- 47.624
3.65 --undefined-- 50.247
3.66 --undefined-- 52.012
3.67 --undefined-- 53.784
3.68 --undefined-- 58.706
3.69 169.918 64.184
3.70 169.606 67.259
3.71 168.386 68.394
3.72 165.871 68.658
3.73 162.462 68.757
3.74 158.762 68.763
3.75 156.581 68.665
3.76 153.722 68.776
3.77 150.151 69.013
3.78 150.048 68.730
3.79 151.205 67.271
3.80 --undefined-- 65.216
3.81 --undefined-- 64.699
3.82 74.973 65.336
3.83 75.749 65.161
3.84 146.622 63.599
3.85 147.528 60.990
3.86 148.720 57.028
3.87 --undefined-- 51.305
3.88 --undefined-- 43.333
3.89 --undefined-- 34.010
3.90 --undefined-- 28.377
3.91 --undefined-- 31.375
3.92 --undefined-- 36.755
3.93 --undefined-- 42.764
3.94 --undefined-- 49.080
3.95 --undefined-- 53.091
3.96 --undefined-- 54.718
3.97 --undefined-- 55.687
3.98 --undefined-- 57.032
3.99 --undefined-- 57.289
4.00 --undefined-- 56.310
4.01 --undefined-- 56.024
4.02 --undefined-- 56.634
4.03 149.255 56.574
4.04 150.251 56.394
4.05 150.708 56.870
4.06 151.566 56.875
4.07 --undefined-- 55.796
4.08 --undefined-- 53.949
4.09 --undefined-- 52.449
4.10 --undefined-- 51.947
4.11 --undefined-- 51.599
4.12 --undefined-- 50.859
4.13 --undefined-- 49.272
4.14 --undefined-- 46.725
4.15 --undefined-- 44.117
4.16 --undefined-- 40.984
4.17 --undefined-- 35.863
4.18 --undefined-- 28.894
4.19 --undefined-- 26.448
4.20 --undefined-- 26.392
4.21 --undefined-- 26.327
4.22 --undefined-- 26.037
4.23 --undefined-- 26.000
4.24 --undefined-- 26.356
4.25 --undefined-- 26.537
4.26 --undefined-- 26.578
4.27 --undefined-- 31.922
4.28 --undefined-- 42.811
4.29 --undefined-- 50.755
4.30 --undefined-- 55.569
4.31 --undefined-- 58.114
4.32 --undefined-- 60.434
4.33 77.041 63.131
4.34 --undefined-- 65.291
4.35 171.516 67.199
4.36 177.584 69.055
4.37 180.996 70.613
4.38 187.303 71.434
4.39 192.446 71.047
4.40 198.158 69.410
4.41 201.030 67.601
4.42 203.022 66.847
4.43 205.098 66.988
4.44 204.589 67.952
4.45 204.743 69.389
4.46 205.849 70.479
4.47 203.615 71.300
4.48 197.626 71.714
4.49 191.007 71.348
4.50 188.156 70.294
4.51 185.903 69.014
4.52 181.423 67.795
4.53 178.416 66.692
4.54 169.252 65.773
4.55 166.614 65.358
4.56 168.581 65.790
4.57 170.169 66.535
4.58 171.373 66.865
4.59 172.861 66.899
4.60 171.298 67.431
4.61 173.206 68.102
4.62 177.869 67.742
4.63 182.514 66.554
4.64 184.154 65.509
4.65 185.843 64.785
4.66 190.063 64.263
4.67 194.539 63.805
4.68 195.714 63.068
4.69 195.501 61.593
4.70 193.919 59.215
4.71 186.387 56.526
4.72 184.051 53.691
4.73 --undefined-- 52.552
4.74 --undefined-- 57.396
4.75 --undefined-- 61.695
4.76 --undefined-- 62.728
4.77 --undefined-- 63.815
4.78 243.058 67.647
4.79 242.649 70.308
4.80 242.597 70.708
4.81 242.038 69.417
4.82 241.570 67.525
4.83 241.699 66.134
4.84 241.894 65.825
4.85 242.583 65.936
4.86 245.175 66.162
4.87 249.373 66.935
4.88 252.421 67.748
4.89 253.816 68.455
4.90 266.726 69.796
4.91 280.699 70.665
4.92 278.914 70.311
4.93 256.582 69.760
4.94 246.813 69.957
4.95 240.863 70.040
4.96 222.587 69.686
4.97 197.398 69.649
4.98 188.334 69.977
4.99 180.823 69.995
5.00 173.334 69.207
5.01 166.399 67.595
5.02 162.263 65.159
5.03 159.899 62.439
5.04 161.918 60.722
5.05 160.658 59.383
5.06 153.885 57.774
5.07 151.497 57.418
5.08 150.686 58.266
5.09 152.768 60.060
5.10 162.449 62.716
5.11 162.520 65.276
5.12 163.612 66.887
5.13 164.650 67.158
5.14 160.354 66.394
5.15 153.877 65.277
5.16 150.297 64.613
5.17 147.709 64.490
5.18 146.798 64.057
5.19 144.786 62.937
5.20 144.489 61.905
5.21 145.545 61.335
5.22 147.849 61.271
5.23 148.498 62.216
5.24 151.446 63.736
5.25 156.522 64.777
5.26 159.725 64.776
5.27 159.722 63.402
5.28 159.685 60.167
5.29 --undefined-- 54.854
5.30 --undefined-- 50.910
5.31 --undefined-- 52.386
5.32 --undefined-- 54.090
5.33 --undefined-- 55.267
5.34 --undefined-- 57.402
5.35 189.487 63.660
5.36 189.087 68.943
5.37 187.985 71.491
5.38 184.143 71.711
5.39 175.109 70.113
5.40 --undefined-- 66.672
5.41 --undefined-- 60.721
5.42 --undefined-- 51.922
5.43 --undefined-- 42.246
5.44 --undefined-- 36.449
5.45 --undefined-- 31.562
5.46 --undefined-- 28.817
5.47 --undefined-- 33.397
5.48 --undefined-- 42.399
5.49 --undefined-- --undefined--
5.50 --undefined-- --undefined--
5.51 --undefined-- --undefined--
5.52 --undefined-- --undefined--
