Time Pitch Intensity
0.01 --undefined-- --undefined--
0.02 164.498 --undefined--
0.03 178.942 --undefined--
0.04 180.825 --undefined--
0.05 180.574 73.024
0.06 180.586 72.928
0.07 180.884 72.821
0.08 179.800 72.689
0.09 176.674 72.287
0.10 --undefined-- 71.308
0.11 --undefined-- 69.344
0.12 --undefined-- 65.483
0.13 --undefined-- 59.253
0.14 --undefined-- 52.575
0.15 --undefined-- 47.165
0.16 --undefined-- 43.878
0.17 --undefined-- 42.494
0.18 --undefined-- 41.971
0.19 --undefined-- 41.434
0.20 --undefined-- 41.368
0.21 --undefined-- 41.964
0.22 --undefined-- 42.094
0.23 --undefined-- 42.410
0.24 --undefined-- 43.422
0.25 --undefined-- 44.230
0.26 --undefined-- 44.567
0.27 --undefined-- 44.944
0.28 --undefined-- 45.343
0.29 --undefined-- 45.986
0.30 --undefined-- 47.250
0.31 --undefined-- 48.501
0.32 --undefined-- 49.478
0.33 --undefined-- 50.082
0.34 --undefined-- 50.238
0.35 --undefined-- 49.880
0.36 --undefined-- 49.453
0.37 --undefined-- 49.576
0.38 --undefined-- 50.129
0.39 --undefined-- 50.692
0.40 --undefined-- 51.177
0.41 --undefined-- 51.407
0.42 --undefined-- 51.314
0.43 --undefined-- 51.281
0.44 --undefined-- 51.416
0.45 --undefined-- 51.318
0.46 --undefined-- 50.575
0.47 --undefined-- 49.063
0.48 --undefined-- 48.000
0.49 --undefined-- 47.761
0.50 --undefined-- 47.808
0.51 --undefined-- 48.376
0.52 --undefined-- 47.797
0.53 --undefined-- 45.741
0.54 --undefined-- 46.341
0.55 --undefined-- 51.084
0.56 --undefined-- 58.356
0.57 --undefined-- 63.516
0.58 78.690 66.566
0.59 82.650 68.591
0.60 124.349 70.141
0.61 129.166 71.036
0.62 136.898 71.406
0.63 145.248 71.930
0.64 152.156 72.606
0.65 157.486 72.932
0.66 159.234 72.735
0.67 156.467 71.972
0.68 151.105 70.301
0.69 149.400 67.298
0.70 155.377 66.110
0.71 151.410 70.644
0.72 297.715 73.820
0.73 293.556 74.512
0.74 275.979 74.007
0.75 252.418 73.754
0.76 244.209 73.664
0.77 242.023 73.277
0.78 242.315 72.915
0.79 244.250 72.896
0.80 245.251 73.187
0.81 244.771 73.627
0.82 243.680 73.998
0.83 243.279 74.128
0.84 243.560 73.935
0.85 244.284 73.465
0.86 246.199 72.731
0.87 250.213 71.720
0.88 253.376 70.773
0.89 255.821 70.485
0.90 257.238 70.597
0.91 258.449 69.878
0.92 258.572 67.195
0.93 248.617 62.187
0.94 253.327 55.323
0.95 --undefined-- 50.231
0.96 --undefined-- 51.898
0.97 --undefined-- 57.846
0.98 --undefined-- 64.647
0.99 258.789 68.949
1.00 249.904 71.048
1.01 240.411 71.308
1.02 230.263 69.492
1.03 211.550 65.875
1.04 209.546 62.702
1.05 211.949 60.415
1.06 210.669 56.808
1.07 --undefined-- 51.520
1.08 --undefined-- 47.041
1.09 --undefined-- 46.193
1.10 --undefined-- 47.731
1.11 --undefined-- 50.218
1.12 --undefined-- 52.547
1.13 --undefined-- 59.018
1.14 213.214 65.904
1.15 207.530 70.255
1.16 204.892 72.418
1.17 198.671 73.079
1.18 192.051 73.090
1.19 187.401 73.083
1.20 182.447 73.090
1.21 177.019 73.032
1.22 173.558 73.018
1.23 172.349 72.987
1.24 170.955 72.698
1.25 170.298 72.109
1.26 171.153 71.591
1.27 172.694 71.182
1.28 175.851 70.442
1.29 182.303 69.661
1.30 189.225 69.246
1.31 199.023 69.024
1.32 207.250 69.290
1.33 213.496 70.058
1.34 221.836 70.883
1.35 228.879 71.795
1.36 231.818 72.659
1.37 231.643 72.980
1.38 230.859 72.724
1.39 231.230 72.220
1.40 231.755 71.507
1.41 231.348 70.500
1.42 231.099 69.614
1.43 233.362 69.405
1.44 234.893 69.545
1.45 235.549 69.631
1.46 235.629 69.679
1.47 234.832 69.638
1.48 232.973 69.329
1.49 229.025 68.510
1.50 224.025 66.861
1.51 217.933 64.022
1.52 211.087 59.608
1.53 205.002 55.518
1.54 --undefined-- 58.322
1.55 --undefined-- 63.921
1.56 214.362 68.969
1.57 208.572 72.131
1.58 204.321 73.486
1.59 198.982 73.619
1.60 190.766 72.798
1.61 179.029 71.448
1.62 173.368 70.356
1.63 169.397 69.200
1.64 166.382 67.093
1.65 161.967 63.547
1.66 157.131 58.446
1.67 166.597 52.758
1.68 168.788 49.287
1.69 --undefined-- 46.862
1.70 --undefined-- 43.830
1.71 --undefined-- 43.468
1.72 --undefined-- 48.830
1.73 --undefined-- 55.012
1.74 --undefined-- 61.286
1.75 169.872 66.731
1.76 164.355 69.767
1.77 162.034 70.783
1.78 157.670 70.978
1.79 153.114 71.258
1.80 151.586 71.587
1.81 151.204 71.658
1.82 151.506 71.174
1.83 153.154 70.032
1.84 156.704 68.815
1.85 161.745 68.196
1.86 168.918 68.063
1.87 176.358 68.255
1.88 182.940 68.621
1.89 184.751 69.086
1.90 187.503 69.635
1.91 191.677 70.017
1.92 194.608 70.133
1.93 197.242 70.163
1.94 199.036 70.006
1.95 199.328 69.142
1.96 197.309 66.921
1.97 197.491 62.987
1.98 205.830 57.654
1.99 --undefined-- 52.177
2.00 --undefined-- 51.066
2.01 --undefined-- 59.675
2.02 --undefined-- 67.325
2.03 200.985 71.652
2.04 198.727 73.276
2.05 193.437 73.057
2.06 185.674 72.160
2.07 182.109 71.904
2.08 180.159 72.325
2.09 177.628 72.903
2.10 176.095 73.487
2.11 175.204 73.925
2.12 174.883 74.113
2.13 174.516 74.037
2.14 173.579 73.739
2.15 173.606 73.287
2.16 173.403 72.543
2.17 171.536 71.609
2.18 169.847 70.857
2.19 168.381 70.397
2.20 167.445 70.383
2.21 166.380 70.613
2.22 166.182 70.763
2.23 167.292 71.041
2.24 168.666 71.646
2.25 169.122 72.214
2.26 167.749 72.423
2.27 166.544 72.574
2.28 165.215 72.798
2.29 160.970 72.628
2.30 156.058 72.113
2.31 155.059 71.801
2.32 156.592 71.680
2.33 160.155 71.514
2.34 162.851 71.206
2.35 164.805 70.568
2.36 166.235 69.636
2.37 168.753 68.749
2.38 169.896 68.212
2.39 167.292 68.153
2.40 163.090 68.646
2.41 162.093 69.509
2.42 160.957 70.215
2.43 158.301 70.500
2.44 156.330 70.356
2.45 155.590 69.794
2.46 154.396 68.886
2.47 154.397 68.185
2.48 157.925 68.180
2.49 158.636 68.406
2.50 159.514 68.459
2.51 158.407 67.979
2.52 155.044 66.130
2.53 153.998 62.230
2.54 160.204 57.136
2.55 --undefined-- 57.702
2.56 --undefined-- 64.509
2.57 193.001 69.678
2.58 191.463 72.100
2.59 190.165 72.591
2.60 190.249 72.244
2.61 191.792 71.825
2.62 194.436 71.563
2.63 196.516 71.503
2.64 198.187 71.689
2.65 199.531 71.967
2.66 200.278 72.227
2.67 201.306 72.432
2.68 202.257 72.553
2.69 202.938 72.548
2.70 206.161 72.174
2.71 211.950 70.962
2.72 214.583 68.346
2.73 213.667 63.731
2.74 211.840 56.728
2.75 --undefined-- 49.228
2.76 --undefined-- 47.004
2.77 --undefined-- 46.140
2.78 --undefined-- 45.202
2.79 --undefined-- 45.490
2.80 --undefined-- 52.109
2.81 --undefined-- 61.088
2.82 230.900 66.969
2.83 217.767 70.244
2.84 214.379 71.898
2.85 210.650 72.646
2.86 206.930 72.865
2.87 205.129 72.742
2.88 204.666 72.470
2.89 204.955 72.147
2.90 205.562 71.547
2.91 205.010 69.936
2.92 192.681 66.615
2.93 209.364 62.138
2.94 204.104 57.452
2.95 198.769 52.088
2.96 --undefined-- 48.165
2.97 --undefined-- 46.565
2.98 --undefined-- 47.422
2.99 --undefined-- 57.272
3.00 --undefined-- 65.603
3.01 --undefined-- 70.218
3.02 208.151 72.253
3.03 209.646 72.938
3.04 206.554 73.024
3.05 203.936 72.689
3.06 201.925 71.850
3.07 199.051 70.045
3.08 184.295 66.970
3.09 185.237 63.272
3.10 192.291 59.361
3.11 194.987 54.363
3.12 --undefined-- 49.448
3.13 --undefined-- 58.083
3.14 --undefined-- 66.170
3.15 --undefined-- 70.638
3.16 219.264 72.512
3.17 217.223 72.931
3.18 215.004 72.914
3.19 214.045 72.940
3.20 212.779 73.029
3.21 212.033 73.102
3.22 211.070 73.077
3.23 209.805 72.804
3.24 207.499 71.972
3.25 203.047 70.253
3.26 195.921 67.431
3.27 194.662 63.416
3.28 199.149 58.020
3.29 --undefined-- 51.757
3.30 --undefined-- 48.443
3.31 --undefined-- 47.546
3.32 --undefined-- 46.720
3.33 --undefined-- 46.981
3.34 --undefined-- 49.184
3.35 --undefined-- 55.585
3.36 --undefined-- 63.762
3.37 248.585 68.975
3.38 231.822 71.593
3.39 226.851 72.722
3.40 223.583 73.138
3.41 221.359 73.222
3.42 219.415 73.097
3.43 217.197 72.634
3.44 213.654 71.463
3.45 204.714 69.162
3.46 193.788 65.399
3.47 194.178 59.783
3.48 --undefined-- 52.160
3.49 --undefined-- 50.325
3.50 --undefined-- 57.741
3.51 --undefined-- 63.251
3.52 --undefined-- 65.899
3.53 --undefined-- 66.316
3.54 --undefined-- 66.199
3.55 230.513 68.248
3.56 214.788 71.010
3.57 214.868 72.778
3.58 212.260 73.524
3.59 210.738 73.545
3.60 209.640 73.090
3.61 208.210 72.409
3.62 207.788 72.006
3.63 209.521 71.955
3.64 209.604 71.883
3.65 209.055 71.740
3.66 207.509 71.512
3.67 205.423 71.077
3.68 205.471 70.334
3.69 206.775 69.034
3.70 204.806 66.637
3.71 200.644 62.594
3.72 199.366 56.488
3.73 --undefined-- 50.348
3.74 --undefined-- 51.515
3.75 --undefined-- 57.859
3.76 --undefined-- 65.336
3.77 183.087 69.939
3.78 177.431 71.845
3.79 166.844 72.123
3.80 157.364 71.823
3.81 152.248 71.831
3.82 152.551 72.451
3.83 153.690 72.729
3.84 155.515 71.948
3.85 159.060 70.367
3.86 162.525 68.703
3.87 166.050 68.030
3.88 174.634 68.576
3.89 182.955 69.534
3.90 188.924 70.693
3.91 191.705 71.838
3.92 192.289 72.480
3.93 192.124 72.576
3.94 191.459 72.430
3.95 190.138 71.903
3.96 188.622 70.346
3.97 188.767 67.116
3.98 187.195 61.771
3.99 --undefined-- 54.303
4.00 --undefined-- 47.492
4.01 --undefined-- 45.927
4.02 --undefined-- 45.482
4.03 --undefined-- 46.941
4.04 --undefined-- 55.301
4.05 --undefined-- 63.283
4.06 169.799 68.318
4.07 162.078 70.947
4.08 153.148 71.864
4.09 139.749 71.684
4.10 133.188 71.195
4.11 132.277 71.053
4.12 133.383 71.099
4.13 138.570 70.777
4.14 141.083 70.064
4.15 146.561 69.233
4.16 148.715 68.195
4.17 158.677 67.343
4.18 163.736 67.165
4.19 161.872 67.717
4.20 152.823 69.111
4.21 150.320 70.715
4.22 148.365 71.946
4.23 145.914 72.435
4.24 142.738 72.215
4.25 140.857 71.524
4.26 140.843 70.331
4.27 140.508 68.476
4.28 139.032 66.038
4.29 147.288 64.776
4.30 153.645 66.658
4.31 156.918 69.380
4.32 166.764 71.295
4.33 178.944 72.488
4.34 197.542 73.303
4.35 215.872 73.888
4.36 225.153 73.872
4.37 232.199 73.017
4.38 236.362 71.311
4.39 240.762 68.432
4.40 254.522 64.146
4.41 238.669 58.603
4.42 236.606 52.627
4.43 --undefined-- 47.930
4.44 --undefined-- 46.515
4.45 --undefined-- 46.116
4.46 --undefined-- 46.039
4.47 --undefined-- 46.463
4.48 --undefined-- 47.224
4.49 --undefined-- 48.014
4.50 --undefined-- 48.938
4.51 --undefined-- 49.866
4.52 --undefined-- 50.528
4.53 --undefined-- 50.783
4.54 --undefined-- 50.911
4.55 --undefined-- 51.083
4.56 --undefined-- 50.950
4.57 --undefined-- 50.517
4.58 --undefined-- 50.159
4.59 --undefined-- 50.270
4.60 --undefined-- 50.817
4.61 --undefined-- 51.129
4.62 --undefined-- 50.950
4.63 --undefined-- 50.685
4.64 --undefined-- 50.449
4.65 --undefined-- 50.113
4.66 --undefined-- 49.355
4.67 --undefined-- 48.290
4.68 --undefined-- 46.718
4.69 --undefined-- 44.732
4.70 --undefined-- 42.452
4.71 --undefined-- 40.993
4.72 --undefined-- 41.340
4.73 --undefined-- 41.085
4.74 --undefined-- 40.433
4.75 --undefined-- 42.173
4.76 --undefined-- 45.217
4.77 --undefined-- 51.100
4.78 --undefined-- 60.857
4.79 --undefined-- 68.339
4.80 237.992 72.420
4.81 228.028 74.043
4.82 223.880 74.354
4.83 221.935 74.208
4.84 219.839 73.808
4.85 218.102 73.010
4.86 216.040 71.176
4.87 212.779 67.540
4.88 211.205 62.480
4.89 213.834 57.651
4.90 214.405 53.526
4.91 --undefined-- 53.368
4.92 --undefined-- 61.354
4.93 221.828 68.168
4.94 222.618 72.097
4.95 221.633 73.549
4.96 219.877 73.332
4.97 217.369 72.764
4.98 215.303 72.605
4.99 213.993 72.528
5.00 212.740 72.146
5.01 210.820 71.234
5.02 207.100 70.214
5.03 208.766 69.992
5.04 208.493 70.268
5.05 207.946 70.568
5.06 207.376 70.821
5.07 207.604 71.342
5.08 206.857 72.009
5.09 205.620 72.061
5.10 204.672 71.633
5.11 204.041 71.343
5.12 204.059 71.309
5.13 203.623 --undefined--
5.14 203.430 --undefined--
5.15 --undefined-- --undefined--
5.16 --undefined-- --undefined--
