Time Pitch Intensity
0.01 --undefined-- --undefined--
0.02 130.850 --undefined--
0.03 126.705 --undefined--
0.04 124.447 --undefined--
0.05 124.607 73.026
0.06 130.401 74.061
0.07 137.809 76.373
0.08 145.291 78.941
0.09 152.307 80.566
0.10 158.037 80.735
0.11 164.398 79.568
0.12 173.111 78.085
0.13 179.550 76.822
0.14 179.514 74.430
0.15 174.056 69.372
0.16 --undefined-- 60.726
0.17 --undefined-- 50.932
0.18 --undefined-- 51.822
0.19 --undefined-- 56.224
0.20 --undefined-- 59.579
0.21 --undefined-- 61.598
0.22 --undefined-- 62.368
0.23 --undefined-- 65.416
0.24 207.730 70.998
0.25 206.535 74.559
0.26 200.262 76.359
0.27 197.289 77.221
0.28 198.931 77.624
0.29 201.076 78.093
0.30 200.217 78.679
0.31 198.400 79.038
0.32 195.835 78.813
0.33 192.296 77.872
0.34 188.789 75.974
0.35 183.270 72.165
0.36 149.097 65.600
0.37 --undefined-- 56.617
0.38 --undefined-- 48.107
0.39 --undefined-- 44.318
0.40 --undefined-- 42.209
0.41 --undefined-- 43.357
0.42 --undefined-- 54.125
0.43 --undefined-- 63.841
0.44 --undefined-- 69.873
0.45 --undefined-- 72.858
0.46 134.340 73.802
0.47 132.558 73.933
0.48 135.881 74.264
0.49 140.880 74.667
0.50 147.383 74.765
0.51 153.274 74.552
0.52 159.456 74.106
0.53 167.199 73.504
0.54 172.160 72.461
0.55 173.534 70.662
0.56 173.193 69.063
0.57 --undefined-- 68.202
0.58 --undefined-- 67.021
0.59 --undefined-- 66.030
0.60 183.884 64.727
0.61 195.252 67.836
0.62 197.877 72.458
0.63 --undefined-- 75.093
0.64 --undefined-- 76.742
0.65 175.607 78.003
0.66 174.936 78.598
0.67 174.405 78.674
0.68 175.007 78.309
0.69 177.022 77.352
0.70 178.395 75.976
0.71 179.027 74.310
0.72 176.216 72.166
0.73 176.156 70.365
0.74 175.676 69.908
0.75 171.347 69.812
0.76 165.091 69.317
0.77 157.665 68.448
0.78 149.534 67.498
0.79 139.786 66.923
0.80 134.817 67.086
0.81 130.907 68.039
0.82 128.848 69.502
0.83 128.039 70.667
0.84 127.143 71.283
0.85 125.231 71.612
0.86 120.612 71.515
0.87 113.553 70.814
0.88 110.111 70.178
0.89 108.701 69.996
0.90 106.596 69.763
0.91 104.605 69.186
0.92 103.261 68.475
0.93 102.916 67.663
0.94 101.932 66.124
0.95 99.093 63.680
0.96 100.836 62.012
0.97 104.388 61.900
0.98 104.142 61.861
0.99 104.693 61.501
1.00 100.500 60.588
1.01 --undefined-- 59.398
1.02 --undefined-- 57.690
1.03 --undefined-- 54.162
1.04 --undefined-- 49.433
1.05 --undefined-- 44.110
1.06 --undefined-- 39.538
1.07 --undefined-- 36.715
1.08 --undefined-- 34.960
1.09 --undefined-- 34.217
1.10 --undefined-- 34.762
1.11 --undefined-- 35.862
1.12 --undefined-- 36.670
1.13 --undefined-- 39.016
1.14 --undefined-- 40.512
1.15 --undefined-- 39.582
1.16 --undefined-- 38.163
1.17 --undefined-- 38.227
1.18 --undefined-- 44.576
1.19 --undefined-- 56.540
1.20 242.712 64.436
1.21 226.801 68.950
1.22 226.597 71.396
1.23 238.384 72.666
1.24 242.349 73.306
1.25 246.263 73.811
1.26 247.772 74.211
1.27 246.269 74.341
1.28 243.444 74.216
1.29 238.431 73.723
1.30 233.645 72.411
1.31 223.802 69.959
1.32 204.066 66.562
1.33 197.670 63.098
1.34 --undefined-- 60.650
1.35 --undefined-- 63.287
1.36 --undefined-- 66.128
1.37 --undefined-- 65.712
1.38 --undefined-- 62.890
1.39 --undefined-- 62.104
1.40 153.785 66.530
1.41 161.772 70.712
1.42 157.505 73.135
1.43 145.599 74.350
1.44 138.236 75.068
1.45 133.054 75.587
1.46 128.113 75.585
1.47 122.612 75.133
1.48 117.689 74.290
1.49 113.876 72.687
1.50 110.259 70.672
1.51 107.338 69.330
1.52 105.291 68.801
1.53 104.708 68.843
1.54 103.560 68.472
1.55 102.506 66.885
1.56 101.619 64.038
1.57 99.670 60.445
1.58 96.015 57.819
1.59 113.629 57.171
1.60 103.952 57.061
1.61 111.786 57.756
1.62 112.148 58.962
1.63 114.795 59.700
1.64 114.466 59.600
1.65 114.096 58.853
1.66 113.240 57.736
1.67 112.999 56.629
1.68 114.589 55.962
1.69 113.540 55.601
1.70 115.461 55.272
1.71 119.787 55.383
1.72 126.076 58.456
1.73 155.973 64.073
1.74 173.046 68.083
1.75 174.003 70.379
1.76 179.325 72.014
1.77 185.054 73.637
1.78 191.144 75.526
1.79 195.700 77.644
1.80 199.796 79.511
1.81 203.426 80.641
1.82 205.280 80.638
1.83 205.611 79.137
1.84 205.275 76.349
1.85 204.225 74.251
1.86 201.940 73.848
1.87 199.640 73.536
1.88 197.473 73.276
1.89 196.430 73.277
1.90 197.269 73.305
1.91 195.556 72.939
1.92 191.272 72.068
1.93 183.301 70.649
1.94 173.201 68.548
1.95 168.160 65.553
1.96 167.940 60.895
1.97 --undefined-- 54.010
1.98 --undefined-- 48.142
1.99 --undefined-- 47.326
2.00 --undefined-- 48.325
2.01 --undefined-- 52.156
2.02 --undefined-- 60.623
2.03 --undefined-- 67.297
2.04 --undefined-- 70.846
2.05 --undefined-- 71.908
2.06 --undefined-- 71.447
2.07 --undefined-- 70.509
2.08 109.694 69.577
2.09 106.414 68.608
2.10 103.928 67.584
2.11 103.698 66.717
2.12 104.086 66.324
2.13 103.765 66.405
2.14 102.929 66.619
2.15 101.824 66.646
2.16 101.165 66.592
2.17 101.243 66.536
2.18 100.807 66.135
2.19 100.433 65.354
2.20 97.971 64.349
2.21 96.118 62.917
2.22 97.691 61.461
2.23 --undefined-- 59.626
2.24 --undefined-- 55.821
2.25 --undefined-- 50.045
2.26 --undefined-- 42.959
2.27 --undefined-- 38.374
2.28 --undefined-- 38.796
2.29 --undefined-- 39.051
2.30 --undefined-- 39.865
2.31 --undefined-- 39.993
2.32 --undefined-- 38.246
2.33 --undefined-- 36.171
2.34 --undefined-- 35.584
2.35 --undefined-- 37.209
2.36 --undefined-- 38.975
2.37 --undefined-- 39.244
2.38 --undefined-- 38.867
2.39 --undefined-- 39.090
2.40 --undefined-- 39.047
2.41 --undefined-- 38.459
2.42 --undefined-- 38.059
2.43 --undefined-- 39.838
2.44 --undefined-- 40.996
2.45 --undefined-- 40.214
2.46 --undefined-- 39.285
2.47 --undefined-- 38.755
2.48 --undefined-- 38.612
2.49 --undefined-- 38.662
2.50 --undefined-- 38.713
2.51 --undefined-- 39.090
2.52 --undefined-- 44.451
2.53 --undefined-- 54.217
2.54 158.698 61.087
2.55 141.710 65.033
2.56 125.011 66.954
2.57 123.260 67.919
2.58 124.987 68.545
2.59 127.151 68.917
2.60 130.258 69.101
2.61 133.908 69.321
2.62 135.842 69.695
2.63 136.586 70.043
2.64 137.278 70.343
2.65 137.851 70.786
2.66 137.765 71.390
2.67 136.863 72.071
2.68 138.880 72.908
2.69 127.713 73.986
2.70 133.485 75.205
2.71 135.913 76.175
2.72 140.131 76.854
2.73 142.909 77.544
2.74 144.973 78.129
2.75 146.466 78.069
2.76 147.440 77.608
2.77 149.551 77.293
2.78 154.420 76.620
2.79 164.050 75.500
2.80 169.640 75.065
2.81 173.310 75.028
2.82 174.452 73.657
2.83 169.118 69.821
2.84 159.366 63.372
2.85 --undefined-- 56.029
2.86 --undefined-- 53.212
2.87 --undefined-- 55.888
2.88 --undefined-- 61.780
2.89 --undefined-- 69.387
2.90 219.388 74.666
2.91 207.468 77.176
2.92 201.394 78.243
2.93 199.494 79.715
2.94 195.326 80.770
2.95 192.020 80.334
2.96 190.264 78.868
2.97 190.685 77.501
2.98 189.760 76.665
2.99 188.463 76.105
3.00 188.480 75.741
3.01 187.676 75.404
3.02 185.259 74.821
3.03 181.437 73.863
3.04 177.135 72.233
3.05 170.583 69.364
3.06 167.941 64.860
3.07 168.629 58.807
3.08 --undefined-- 53.111
3.09 --undefined-- 50.828
3.10 --undefined-- 50.846
3.11 --undefined-- 55.522
3.12 --undefined-- 65.306
3.13 220.694 72.239
3.14 201.337 76.025
3.15 184.020 77.632
3.16 175.938 78.286
3.17 172.985 78.782
3.18 170.751 78.952
3.19 170.094 78.558
3.20 170.696 77.654
3.21 171.703 76.401
3.22 173.332 75.143
3.23 174.684 74.190
3.24 174.699 73.292
3.25 173.577 72.162
3.26 175.324 71.117
3.27 175.703 70.508
3.28 174.880 70.119
3.29 172.886 69.434
3.30 167.904 67.678
3.31 157.909 64.182
3.32 147.722 58.732
3.33 --undefined-- 52.895
3.34 --undefined-- 56.501
3.35 --undefined-- 63.320
3.36 --undefined-- 68.751
3.37 --undefined-- 72.177
3.38 --undefined-- 73.873
3.39 135.926 74.238
3.40 130.647 73.898
3.41 128.507 73.668
3.42 127.402 73.356
3.43 125.642 72.917
3.44 124.330 72.788
3.45 123.495 72.866
3.46 122.337 73.030
3.47 120.785 73.303
3.48 120.362 73.489
3.49 119.813 73.296
3.50 117.635 72.157
3.51 114.475 69.456
3.52 114.703 65.073
3.53 --undefined-- 59.300
3.54 --undefined-- 52.748
3.55 --undefined-- 46.193
3.56 --undefined-- 40.793
3.57 --undefined-- 38.758
3.58 --undefined-- 38.597
3.59 --undefined-- 39.471
3.60 --undefined-- 40.867
3.61 --undefined-- 41.159
3.62 --undefined-- 40.553
3.63 --undefined-- 39.201
3.64 --undefined-- 38.658
3.65 --undefined-- 44.621
3.66 --undefined-- 52.119
3.67 --undefined-- 56.039
3.68 --undefined-- 56.342
3.69 --undefined-- 53.496
3.70 --undefined-- 49.081
3.71 --undefined-- 47.241
3.72 --undefined-- 47.993
3.73 --undefined-- 49.337
3.74 --undefined-- 55.246
3.75 --undefined-- 64.083
3.76 166.217 70.248
3.77 147.911 73.868
3.78 144.357 75.182
3.79 137.301 74.520
3.80 131.412 72.894
3.81 129.011 71.291
3.82 127.248 69.715
3.83 123.157 68.426
3.84 121.501 68.066
3.85 121.093 68.100
3.86 116.482 67.726
3.87 115.191 67.398
3.88 114.511 68.594
3.89 127.318 70.441
3.90 128.067 71.352
3.91 129.872 71.743
3.92 130.573 71.995
3.93 132.693 72.284
3.94 127.600 72.669
3.95 128.762 72.518
3.96 137.753 71.776
3.97 143.641 70.733
3.98 147.512 68.484
3.99 140.801 64.487
4.00 139.074 59.609
4.01 --undefined-- 54.059
4.02 --undefined-- 47.556
4.03 --undefined-- 47.698
4.04 --undefined-- 51.262
4.05 --undefined-- 53.434
4.06 --undefined-- 58.576
4.07 --undefined-- 65.740
4.08 --undefined-- 70.091
4.09 132.499 72.148
4.10 125.724 72.771
4.11 117.848 72.620
4.12 111.552 71.959
4.13 106.635 70.894
4.14 104.236 70.093
4.15 104.925 69.999
4.16 105.734 69.824
4.17 106.007 69.101
4.18 106.325 67.972
4.19 107.910 67.407
4.20 108.607 67.698
4.21 108.620 67.883
4.22 108.821 67.411
4.23 111.974 66.311
4.24 111.800 64.786
4.25 109.103 63.519
4.26 109.379 63.463
4.27 109.750 64.308
4.28 112.419 65.375
4.29 113.263 66.352
4.30 114.724 67.016
4.31 118.291 67.544
4.32 121.327 68.145
4.33 126.266 68.768
4.34 136.047 69.402
4.35 140.751 70.058
4.36 141.881 70.080
4.37 140.674 68.742
4.38 139.858 65.762
4.39 134.999 60.900
4.40 --undefined-- 55.484
4.41 --undefined-- 52.534
4.42 --undefined-- 51.795
4.43 --undefined-- 56.980
4.44 --undefined-- 65.730
4.45 150.800 71.310
4.46 143.421 73.902
4.47 137.413 74.239
4.48 125.829 73.304
4.49 122.985 72.336
4.50 121.511 71.800
4.51 120.764 71.492
4.52 119.735 70.941
4.53 117.539 69.779
4.54 116.220 68.704
4.55 119.404 68.473
4.56 119.994 68.619
4.57 120.832 68.815
4.58 120.242 68.877
4.59 119.345 68.799
4.60 120.901 69.032
4.61 125.244 69.925
4.62 122.071 70.797
4.63 122.013 71.078
4.64 121.659 70.924
4.65 121.988 70.706
4.66 121.471 70.657
4.67 121.272 70.862
4.68 121.414 71.209
4.69 121.400 71.571
4.70 122.090 71.815
4.71 123.740 71.715
4.72 124.161 70.994
4.73 120.088 69.518
4.74 119.311 68.032
4.75 119.722 66.967
4.76 118.496 65.668
4.77 117.852 63.758
4.78 --undefined-- 61.051
4.79 --undefined-- 57.944
4.80 --undefined-- 54.351
4.81 --undefined-- 50.419
4.82 --undefined-- 46.722
4.83 --undefined-- 41.896
4.84 --undefined-- 38.782
4.85 --undefined-- 37.101
4.86 --undefined-- 37.026
4.87 --undefined-- 38.631
4.88 --undefined-- 39.388
4.89 --undefined-- 37.884
4.90 --undefined-- 36.908
4.91 --undefined-- 37.292
4.92 --undefined-- 37.154
4.93 --undefined-- 37.774
4.94 --undefined-- 39.346
4.95 --undefined-- 39.789
4.96 --undefined-- 39.276
4.97 --undefined-- 38.095
4.98 --undefined-- 36.491
4.99 --undefined-- 35.005
5.00 --undefined-- 34.803
5.01 --undefined-- 36.718
5.02 --undefined-- 38.022
5.03 --undefined-- 37.959
5.04 --undefined-- 37.701
5.05 --undefined-- 39.658
5.06 --undefined-- 40.910
5.07 --undefined-- 39.643
5.08 --undefined-- 37.950
5.09 --undefined-- 37.912
5.10 --undefined-- 37.782
5.11 --undefined-- 37.122
5.12 --undefined-- 38.110
5.13 --undefined-- 39.600
5.14 --undefined-- 38.939
5.15 --undefined-- 36.518
5.16 --undefined-- 35.617
5.17 --undefined-- 37.829
5.18 --undefined-- 38.776
5.19 --undefined-- 38.726
5.20 --undefined-- 38.981
5.21 --undefined-- 39.171
5.22 --undefined-- 39.483
5.23 --undefined-- 39.952
5.24 --undefined-- 40.280
5.25 --undefined-- 41.135
5.26 --undefined-- 42.358
5.27 --undefined-- 42.606
5.28 --undefined-- 42.268
5.29 --undefined-- 42.815
5.30 --undefined-- 43.672
5.31 --undefined-- 44.244
5.32 --undefined-- 44.820
5.33 --undefined-- 45.491
5.34 --undefined-- 45.861
5.35 --undefined-- 45.324
5.36 --undefined-- 44.325
5.37 --undefined-- 43.574
5.38 --undefined-- 43.122
5.39 --undefined-- 42.584
5.40 --undefined-- 42.189
5.41 --undefined-- 42.476
5.42 --undefined-- 42.047
5.43 --undefined-- 40.056
5.44 --undefined-- 37.714
5.45 --undefined-- 37.021
5.46 --undefined-- 37.323
5.47 --undefined-- 37.132
5.48 --undefined-- 37.450
5.49 --undefined-- 48.261
5.50 --undefined-- 57.610
5.51 --undefined-- 63.377
5.52 --undefined-- 67.332
5.53 139.613 70.523
5.54 142.484 73.150
5.55 143.917 75.126
5.56 146.210 76.439
5.57 148.684 77.096
5.58 150.252 77.238
5.59 151.026 76.975
5.60 151.044 76.206
5.61 150.364 74.494
5.62 143.014 71.171
5.63 136.443 66.290
5.64 138.721 61.343
5.65 148.392 57.435
5.66 --undefined-- 54.159
5.67 --undefined-- 62.403
5.68 239.929 71.862
5.69 223.010 77.034
5.70 212.662 78.911
5.71 206.534 79.057
5.72 206.909 79.283
5.73 208.206 79.699
5.74 208.767 80.153
5.75 207.523 80.746
5.76 207.236 81.086
5.77 206.964 80.982
5.78 204.733 80.616
5.79 202.831 80.027
5.80 199.910 78.730
5.81 191.511 76.330
5.82 178.421 72.889
5.83 172.821 68.239
5.84 --undefined-- 62.105
5.85 --undefined-- 55.786
5.86 --undefined-- 51.835
5.87 --undefined-- 48.681
5.88 --undefined-- 46.383
5.89 --undefined-- 45.347
5.90 --undefined-- 44.797
5.91 --undefined-- 44.480
5.92 --undefined-- 45.839
5.93 --undefined-- 55.488
5.94 --undefined-- 64.723
5.95 --undefined-- 70.667
5.96 165.156 74.121
5.97 162.196 --undefined--
5.98 160.295 --undefined--
5.99 --undefined-- --undefined--
6.00 --undefined-- --undefined--
