Time Pitch Intensity
0.01 --undefined-- --undefined--
0.02 141.682 --undefined--
0.03 146.734 --undefined--
0.04 151.962 --undefined--
0.05 155.506 78.135
0.06 160.446 78.324
0.07 164.497 78.421
0.08 167.940 78.179
0.09 172.796 77.628
0.10 175.283 77.328
0.11 174.910 77.210
0.12 173.650 76.668
0.13 172.232 75.647
0.14 168.366 74.155
0.15 163.067 71.655
0.16 156.571 67.541
0.17 161.100 61.547
0.18 164.437 56.982
0.19 164.337 57.092
0.20 161.941 56.785
0.21 165.439 54.386
0.22 --undefined-- 49.850
0.23 --undefined-- 44.591
0.24 --undefined-- 41.000
0.25 --undefined-- 39.095
0.26 --undefined-- 39.063
0.27 --undefined-- 41.183
0.28 --undefined-- 42.561
0.29 --undefined-- 42.097
0.30 --undefined-- 43.819
0.31 --undefined-- 55.957
0.32 --undefined-- 65.064
0.33 139.253 70.352
0.34 137.703 73.238
0.35 137.403 74.948
0.36 137.423 76.163
0.37 138.224 77.143
0.38 139.766 77.889
0.39 142.216 78.446
0.40 145.499 79.021
0.41 149.447 79.664
0.42 153.951 80.001
0.43 160.066 79.780
0.44 166.795 79.423
0.45 169.643 79.356
0.46 169.698 79.062
0.47 169.602 78.308
0.48 170.751 77.591
0.49 172.983 77.100
0.50 177.105 76.781
0.51 177.609 76.771
0.52 176.592 76.540
0.53 175.984 75.939
0.54 176.372 75.496
0.55 177.948 75.156
0.56 179.998 74.708
0.57 183.583 74.604
0.58 185.223 75.247
0.59 183.812 75.992
0.60 182.164 75.979
0.61 177.992 74.747
0.62 167.162 72.549
0.63 159.675 70.534
0.64 157.215 68.793
0.65 144.259 66.063
0.66 134.094 62.872
0.67 155.726 62.509
0.68 --undefined-- 67.538
0.69 --undefined-- 73.177
0.70 --undefined-- 76.391
0.71 249.672 76.993
0.72 262.544 75.784
0.73 262.866 74.182
0.74 97.386 72.247
0.75 90.850 69.686
0.76 88.302 67.149
0.77 83.334 65.010
0.78 91.603 64.710
0.79 93.202 65.815
0.80 96.528 66.989
0.81 101.166 68.194
0.82 106.417 69.228
0.83 113.356 70.036
0.84 119.320 70.985
0.85 131.447 72.074
0.86 132.013 73.159
0.87 135.182 74.140
0.88 140.242 74.904
0.89 143.724 75.471
0.90 146.906 76.176
0.91 148.554 76.925
0.92 148.231 76.760
0.93 146.242 74.935
0.94 143.466 71.441
0.95 149.023 67.052
0.96 151.255 62.850
0.97 149.759 63.450
0.98 169.479 68.636
0.99 131.070 72.120
1.00 130.826 72.868
1.01 116.443 71.856
1.02 111.546 70.302
1.03 102.583 68.862
1.04 103.175 68.903
1.05 102.155 69.449
1.06 98.931 69.458
1.07 94.631 69.229
1.08 94.255 68.957
1.09 92.049 68.534
1.10 89.800 67.641
1.11 89.606 66.048
1.12 --undefined-- 64.373
1.13 --undefined-- 62.691
1.14 --undefined-- 59.258
1.15 --undefined-- 53.116
1.16 --undefined-- 47.798
1.17 --undefined-- 46.298
1.18 --undefined-- 48.356
1.19 --undefined-- 58.610
1.20 --undefined-- 66.247
1.21 --undefined-- 70.552
1.22 --undefined-- 72.275
1.23 148.053 72.951
1.24 152.078 74.215
1.25 153.405 75.594
1.26 154.427 76.450
1.27 154.983 76.840
1.28 154.984 77.041
1.29 157.982 77.291
1.30 159.150 77.456
1.31 159.174 77.434
1.32 158.699 77.275
1.33 157.962 77.033
1.34 156.479 76.725
1.35 153.341 76.230
1.36 148.339 75.440
1.37 144.025 74.240
1.38 142.289 72.362
1.39 136.553 71.845
1.40 134.940 74.724
1.41 126.058 76.773
1.42 120.336 77.272
1.43 117.895 76.457
1.44 104.819 74.423
1.45 98.147 72.653
1.46 94.276 71.396
1.47 91.172 69.839
1.48 90.027 68.308
1.49 90.074 66.728
1.50 88.815 64.872
1.51 90.241 63.766
1.52 89.633 63.789
1.53 90.385 64.651
1.54 90.989 65.793
1.55 88.888 66.549
1.56 87.153 66.780
1.57 90.212 67.147
1.58 93.619 67.734
1.59 93.241 67.898
1.60 88.080 67.526
1.61 85.318 66.464
1.62 84.804 64.009
1.63 --undefined-- 59.905
1.64 --undefined-- 54.975
1.65 --undefined-- 51.105
1.66 --undefined-- 47.249
1.67 --undefined-- 43.863
1.68 --undefined-- 42.736
1.69 --undefined-- 41.865
1.70 --undefined-- 42.702
1.71 --undefined-- 53.136
1.72 --undefined-- 62.551
1.73 --undefined-- 67.926
1.74 --undefined-- 70.096
1.75 --undefined-- 70.113
1.76 --undefined-- 69.364
1.77 --undefined-- 68.468
1.78 --undefined-- 66.705
1.79 --undefined-- 64.797
1.80 90.007 63.777
1.81 98.555 64.206
1.82 100.890 65.944
1.83 103.864 67.720
1.84 107.827 69.140
1.85 111.041 70.180
1.86 114.072 70.828
1.87 117.874 70.902
1.88 123.590 70.781
1.89 128.965 71.403
1.90 133.230 72.492
1.91 136.300 73.320
1.92 138.599 73.581
1.93 138.476 72.830
1.94 136.923 70.623
1.95 138.046 67.246
1.96 137.526 63.470
1.97 132.673 59.017
1.98 --undefined-- 54.797
1.99 --undefined-- 62.456
2.00 --undefined-- 71.549
2.01 --undefined-- 76.603
2.02 --undefined-- 78.286
2.03 127.006 77.778
2.04 118.350 76.515
2.05 109.814 75.261
2.06 106.062 74.168
2.07 103.526 73.767
2.08 101.075 73.445
2.09 101.289 72.956
2.10 100.028 72.674
2.11 99.523 72.466
2.12 98.149 72.311
2.13 96.802 72.266
2.14 95.558 72.287
2.15 95.137 72.086
2.16 94.080 71.410
2.17 92.878 70.339
2.18 93.651 69.098
2.19 95.340 68.048
2.20 97.109 67.663
2.21 101.995 68.741
2.22 109.904 71.500
2.23 118.103 74.366
2.24 120.538 76.143
2.25 121.840 76.802
2.26 121.890 76.698
2.27 121.275 76.494
2.28 118.920 76.285
2.29 116.961 75.825
2.30 114.114 75.364
2.31 112.767 75.020
2.32 111.578 74.040
2.33 107.794 72.288
2.34 --undefined-- 70.747
2.35 --undefined-- 68.801
2.36 --undefined-- 65.053
2.37 --undefined-- 59.688
2.38 --undefined-- 54.466
2.39 --undefined-- 51.758
2.40 --undefined-- 51.649
2.41 --undefined-- 52.158
2.42 --undefined-- 53.026
2.43 --undefined-- 54.694
2.44 --undefined-- 55.802
2.45 --undefined-- 55.907
2.46 --undefined-- 55.710
2.47 --undefined-- 56.089
2.48 --undefined-- 56.558
2.49 --undefined-- 56.849
2.50 --undefined-- 57.046
2.51 --undefined-- 56.782
2.52 --undefined-- 56.538
2.53 --undefined-- 56.691
2.54 --undefined-- 56.644
2.55 --undefined-- 56.029
2.56 --undefined-- 55.411
2.57 --undefined-- 55.795
2.58 --undefined-- 56.314
2.59 --undefined-- 56.012
2.60 --undefined-- 54.966
2.61 --undefined-- 52.733
2.62 --undefined-- 49.797
2.63 --undefined-- 46.459
2.64 --undefined-- 42.186
2.65 --undefined-- 43.106
2.66 --undefined-- 56.047
2.67 151.758 66.185
2.68 142.690 72.650
2.69 141.144 76.496
2.70 141.257 78.613
2.71 141.629 79.771
2.72 142.850 80.555
2.73 144.512 81.131
2.74 144.656 81.378
2.75 144.412 81.074
2.76 144.088 79.916
2.77 143.604 77.552
2.78 144.153 73.865
2.79 145.904 69.611
2.80 143.585 66.112
2.81 146.411 63.213
2.82 146.770 62.729
2.83 162.599 65.505
2.84 162.514 69.739
2.85 146.234 73.637
2.86 139.246 75.469
2.87 137.282 75.767
2.88 138.811 75.740
2.89 143.032 75.802
2.90 148.242 76.323
2.91 154.701 77.332
2.92 161.210 77.847
2.93 170.009 77.582
2.94 177.224 77.079
2.95 180.824 76.459
2.96 186.627 75.303
2.97 192.840 72.905
2.98 182.637 69.688
2.99 178.887 67.650
3.00 175.756 65.845
3.01 173.443 67.263
3.02 181.424 72.459
3.03 181.600 75.883
3.04 178.014 76.995
3.05 169.359 77.121
3.06 164.623 77.607
3.07 162.542 78.195
3.08 160.530 78.338
3.09 159.208 78.144
3.10 157.771 77.732
3.11 154.387 76.804
3.12 150.238 74.970
3.13 149.121 72.535
3.14 152.195 70.793
3.15 155.530 71.008
3.16 164.798 73.756
3.17 169.738 76.315
3.18 172.117 77.315
3.19 174.286 77.212
3.20 178.690 76.908
3.21 182.683 76.757
3.22 188.669 76.463
3.23 195.482 76.303
3.24 202.533 76.881
3.25 208.469 77.713
3.26 215.194 78.122
3.27 220.873 78.322
3.28 226.294 78.452
3.29 224.820 77.750
3.30 225.769 76.743
3.31 224.613 76.745
3.32 220.218 77.021
3.33 215.181 77.187
3.34 208.371 77.174
3.35 200.166 77.019
3.36 178.817 77.035
3.37 163.351 77.028
3.38 151.482 76.368
3.39 132.690 75.282
3.40 123.688 74.351
3.41 117.831 73.330
3.42 108.255 71.963
3.43 106.234 71.034
3.44 104.551 70.923
3.45 103.965 70.914
3.46 103.669 70.871
3.47 104.057 70.811
3.48 105.098 70.210
3.49 105.119 68.748
3.50 104.852 66.361
3.51 110.629 62.672
3.52 107.154 58.202
3.53 101.672 55.822
3.54 105.183 54.683
3.55 --undefined-- 55.625
3.56 --undefined-- 63.221
3.57 --undefined-- 69.979
3.58 --undefined-- 73.193
3.59 147.095 73.740
3.60 144.641 73.502
3.61 147.074 73.670
3.62 152.460 73.925
3.63 153.663 74.163
3.64 151.329 74.273
3.65 148.582 74.127
3.66 145.170 73.289
3.67 127.435 71.319
3.68 126.731 69.313
3.69 123.300 68.672
3.70 118.101 68.386
3.71 112.683 67.931
3.72 109.840 67.983
3.73 110.261 68.899
3.74 110.621 70.150
3.75 108.891 71.026
3.76 107.356 71.378
3.77 106.708 71.380
3.78 106.086 71.200
3.79 104.643 70.971
3.80 104.558 70.828
3.81 104.956 70.854
3.82 105.521 71.014
3.83 106.005 71.180
3.84 106.283 71.361
3.85 106.082 71.660
3.86 106.784 72.048
3.87 107.001 72.342
3.88 106.908 72.405
3.89 107.324 72.408
3.90 108.202 72.522
3.91 109.200 72.616
3.92 109.268 72.553
3.93 109.811 72.429
3.94 111.054 72.392
3.95 111.423 72.256
3.96 114.877 71.292
3.97 112.607 68.613
3.98 111.155 64.077
3.99 122.681 59.343
4.00 124.429 56.458
4.01 125.001 54.533
4.02 132.519 52.625
4.03 --undefined-- 50.444
4.04 --undefined-- 47.540
4.05 --undefined-- 44.636
4.06 --undefined-- 52.940
4.07 --undefined-- 65.706
4.08 --undefined-- 73.190
4.09 --undefined-- 76.613
4.10 185.072 77.165
4.11 182.296 76.889
4.12 181.596 77.077
4.13 182.143 76.919
4.14 184.382 75.615
4.15 184.870 73.060
4.16 177.462 70.138
4.17 172.895 67.472
4.18 164.537 63.976
4.19 172.439 59.900
4.20 181.515 56.527
4.21 180.940 54.637
4.22 177.117 56.420
4.23 --undefined-- 64.188
4.24 140.584 71.030
4.25 136.251 75.390
4.26 131.089 77.375
4.27 126.495 77.628
4.28 126.237 77.148
4.29 127.392 76.677
4.30 130.696 76.707
4.31 136.859 77.507
4.32 142.770 78.562
4.33 148.009 79.456
4.34 151.500 79.986
4.35 155.294 79.706
4.36 160.657 78.433
4.37 165.886 76.419
4.38 166.596 73.622
4.39 165.396 69.492
4.40 161.321 64.123
4.41 154.110 59.549
4.42 154.957 59.265
4.43 153.922 60.116
4.44 154.084 60.700
4.45 154.002 62.135
4.46 --undefined-- 67.788
4.47 135.857 73.316
4.48 134.804 76.412
4.49 128.029 77.404
4.50 126.336 77.153
4.51 126.874 76.447
4.52 125.816 75.397
4.53 124.028 74.166
4.54 128.096 74.623
4.55 137.936 76.401
4.56 140.693 77.424
4.57 146.067 77.726
4.58 149.829 77.779
4.59 150.701 77.708
4.60 152.529 77.775
4.61 155.361 77.920
4.62 157.524 77.571
4.63 157.507 76.493
4.64 155.701 74.756
4.65 155.537 71.909
4.66 155.463 67.400
4.67 155.847 62.442
4.68 156.018 59.234
4.69 157.968 57.492
4.70 159.868 55.959
4.71 159.301 54.993
4.72 --undefined-- 54.823
4.73 --undefined-- 54.943
4.74 --undefined-- 54.969
4.75 --undefined-- 54.702
4.76 --undefined-- 54.239
4.77 --undefined-- 53.565
4.78 --undefined-- 52.649
4.79 --undefined-- 51.557
4.80 --undefined-- 50.367
4.81 --undefined-- 49.238
4.82 --undefined-- 48.764
4.83 --undefined-- 49.001
4.84 --undefined-- 49.263
4.85 --undefined-- 49.093
4.86 --undefined-- 47.422
4.87 --undefined-- 43.892
4.88 --undefined-- 41.198
4.89 --undefined-- 40.968
4.90 --undefined-- 40.936
4.91 --undefined-- 39.451
4.92 --undefined-- 39.528
4.93 --undefined-- 50.888
4.94 --undefined-- 61.089
4.95 196.826 67.890
4.96 197.581 72.498
4.97 213.806 75.783
4.98 225.693 78.000
4.99 231.836 79.289
5.00 236.681 79.717
5.01 240.528 79.440
5.02 242.929 79.158
5.03 243.642 79.424
5.04 244.644 79.845
5.05 245.196 80.022
5.06 244.113 80.003
5.07 242.013 79.803
5.08 239.550 79.406
5.09 236.769 78.820
5.10 233.919 78.069
5.11 231.191 77.337
5.12 228.182 76.605
5.13 221.909 75.411
5.14 210.573 73.076
5.15 199.077 69.207
5.16 192.548 63.779
5.17 231.901 63.456
5.18 232.087 71.628
5.19 227.806 77.084
5.20 226.737 79.212
5.21 222.162 78.701
5.22 215.407 77.285
5.23 215.069 76.982
5.24 214.601 77.144
5.25 212.911 77.092
5.26 211.143 --undefined--
5.27 208.861 --undefined--
5.28 --undefined-- --undefined--
5.29 --undefined-- --undefined--
