Time Pitch Intensity
0.01 --undefined-- --undefined--
0.02 --undefined-- --undefined--
0.03 --undefined-- --undefined--
0.04 --undefined-- --undefined--
0.05 --undefined-- 64.038
0.06 --undefined-- 69.905
0.07 --undefined-- 72.675
0.08 130.209 73.576
0.09 127.053 73.638
0.10 125.178 72.964
0.11 125.505 71.533
0.12 127.203 69.802
0.13 124.419 67.865
0.14 123.197 64.915
0.15 121.555 60.671
0.16 119.581 55.810
0.17 --undefined-- 51.497
0.18 --undefined-- 49.770
0.19 --undefined-- 49.815
0.20 --undefined-- 52.638
0.21 --undefined-- 55.927
0.22 --undefined-- 56.655
0.23 --undefined-- 57.801
0.24 --undefined-- 64.350
0.25 138.021 69.534
0.26 131.862 72.313
0.27 129.043 73.510
0.28 126.451 73.871
0.29 124.563 73.681
0.30 124.666 73.241
0.31 125.194 72.525
0.32 124.338 70.741
0.33 124.933 67.938
0.34 124.246 65.346
0.35 123.186 63.551
0.36 118.215 61.760
0.37 119.725 58.929
0.38 124.005 55.424
0.39 124.857 52.816
0.40 124.525 52.765
0.41 124.611 54.803
0.42 125.285 56.407
0.43 124.081 60.010
0.44 120.139 64.202
0.45 91.298 65.951
0.46 76.066 65.156
0.47 79.406 62.331
0.48 80.567 60.019
0.49 80.248 59.548
0.50 80.356 59.395
0.51 77.234 59.781
0.52 --undefined-- 62.974
0.53 --undefined-- 65.398
0.54 --undefined-- 64.710
0.55 80.375 63.152
0.56 --undefined-- 62.965
0.57 --undefined-- 62.137
0.58 --undefined-- 62.800
0.59 --undefined-- 62.955
0.60 --undefined-- 61.334
0.61 --undefined-- 60.476
0.62 --undefined-- 59.215
0.63 90.179 57.765
0.64 87.778 59.324
0.65 103.987 63.720
0.66 101.250 67.594
0.67 108.911 70.061
0.68 108.242 71.404
0.69 108.918 72.350
0.70 108.469 72.994
0.71 108.261 73.023
0.72 108.331 72.689
0.73 108.342 72.275
0.74 107.883 71.735
0.75 105.505 70.936
0.76 102.090 69.757
0.77 100.557 67.942
0.78 102.160 66.176
0.79 101.605 64.919
0.80 97.884 63.053
0.81 91.489 59.611
0.82 --undefined-- 54.669
0.83 --undefined-- 50.564
0.84 --undefined-- 50.898
0.85 --undefined-- 58.855
0.86 --undefined-- 66.690
0.87 105.526 71.169
0.88 105.206 73.073
0.89 99.649 73.595
0.90 98.597 73.530
0.91 99.067 73.113
0.92 99.711 72.563
0.93 100.111 71.955
0.94 100.853 70.291
0.95 101.049 66.972
0.96 98.284 62.319
0.97 98.731 57.698
0.98 99.340 55.262
0.99 100.867 53.088
1.00 --undefined-- 50.750
1.01 --undefined-- 50.668
1.02 --undefined-- 51.491
1.03 --undefined-- 53.221
1.04 --undefined-- 59.968
1.05 --undefined-- 66.584
1.06 --undefined-- 70.282
1.07 --undefined-- 71.695
1.08 110.652 71.911
1.09 108.643 71.417
1.10 107.016 70.376
1.11 102.870 69.146
1.12 98.146 68.109
1.13 94.274 67.947
1.14 93.128 68.661
1.15 91.959 69.027
1.16 90.338 68.503
1.17 89.241 67.742
1.18 89.088 67.125
1.19 89.226 65.904
1.20 --undefined-- 62.666
1.21 --undefined-- 56.547
1.22 --undefined-- 50.723
1.23 --undefined-- 49.168
1.24 --undefined-- 47.971
1.25 --undefined-- 48.433
1.26 --undefined-- 55.069
1.27 --undefined-- 62.864
1.28 94.091 68.017
1.29 95.148 70.550
1.30 80.770 71.037
1.31 78.660 70.440
1.32 76.868 69.710
1.33 76.167 68.919
1.34 76.102 67.475
1.35 76.876 65.724
1.36 76.370 64.887
1.37 76.571 64.776
1.38 76.551 64.728
1.39 76.620 64.478
1.40 77.560 64.353
1.41 77.271 64.353
1.42 76.637 64.873
1.43 --undefined-- 66.406
1.44 --undefined-- 67.392
1.45 84.165 67.615
1.46 84.059 67.740
1.47 83.872 67.043
1.48 83.595 65.124
1.49 84.453 63.994
1.50 --undefined-- 65.080
1.51 --undefined-- 64.175
1.52 --undefined-- 59.881
1.53 --undefined-- 54.431
1.54 --undefined-- 50.049
1.55 --undefined-- 46.108
1.56 --undefined-- 46.217
1.57 --undefined-- 46.464
1.58 --undefined-- 44.705
1.59 --undefined-- 41.566
1.60 --undefined-- 38.902
1.61 --undefined-- 38.661
1.62 --undefined-- 39.220
1.63 --undefined-- 38.347
1.64 --undefined-- 36.827
1.65 --undefined-- 36.344
1.66 --undefined-- 35.463
1.67 --undefined-- 34.159
1.68 --undefined-- 33.705
1.69 --undefined-- 33.753
1.70 --undefined-- 33.893
1.71 --undefined-- 34.501
1.72 --undefined-- 35.592
1.73 --undefined-- 35.774
1.74 --undefined-- 34.693
1.75 --undefined-- 33.778
1.76 --undefined-- 34.168
1.77 --undefined-- 34.624
1.78 --undefined-- 35.070
1.79 --undefined-- 35.648
1.80 --undefined-- 35.406
1.81 --undefined-- 34.636
1.82 --undefined-- 35.256
1.83 --undefined-- 36.470
1.84 --undefined-- 36.470
1.85 --undefined-- 35.606
1.86 --undefined-- 34.589
1.87 --undefined-- 33.364
1.88 --undefined-- 32.558
1.89 --undefined-- 33.964
1.90 --undefined-- 35.455
1.91 --undefined-- 37.214
1.92 --undefined-- 48.679
1.93 --undefined-- 60.448
1.94 --undefined-- 67.734
1.95 116.179 71.368
1.96 112.676 72.355
1.97 108.629 71.600
1.98 --undefined-- 69.170
1.99 --undefined-- 64.334
2.00 --undefined-- 57.116
2.01 --undefined-- 51.644
2.02 --undefined-- 50.296
2.03 --undefined-- 49.946
2.04 --undefined-- 49.416
2.05 --undefined-- 48.589
2.06 --undefined-- 48.238
2.07 --undefined-- 48.698
2.08 --undefined-- 49.818
2.09 --undefined-- 58.201
2.10 --undefined-- 66.450
2.11 --undefined-- 71.082
2.12 91.548 72.857
2.13 87.075 73.174
2.14 85.149 73.077
2.15 83.361 72.610
2.16 81.833 71.653
2.17 81.004 70.079
2.18 79.727 68.030
2.19 77.846 65.519
2.20 77.700 61.650
2.21 --undefined-- 57.001
2.22 --undefined-- 54.132
2.23 --undefined-- 52.865
2.24 --undefined-- 51.619
2.25 --undefined-- 51.923
2.26 --undefined-- 56.000
2.27 --undefined-- 61.336
2.28 100.587 65.721
2.29 80.607 68.255
2.30 79.659 69.228
2.31 79.363 69.008
2.32 78.649 68.221
2.33 79.790 67.599
2.34 80.064 67.016
2.35 80.108 65.818
2.36 80.597 64.045
2.37 83.046 61.978
2.38 85.115 59.943
2.39 83.338 57.700
2.40 81.547 54.630
2.41 81.046 50.924
2.42 --undefined-- 47.959
2.43 --undefined-- 46.213
2.44 --undefined-- 45.627
2.45 --undefined-- 47.763
2.46 --undefined-- 56.020
2.47 --undefined-- 65.098
2.48 --undefined-- 70.267
2.49 --undefined-- 72.164
2.50 107.563 71.578
2.51 107.523 68.858
2.52 --undefined-- 64.704
2.53 --undefined-- 61.169
2.54 --undefined-- 57.019
2.55 --undefined-- 50.997
2.56 --undefined-- 47.926
2.57 --undefined-- 47.810
2.58 --undefined-- 47.176
2.59 --undefined-- 44.972
2.60 --undefined-- 42.718
2.61 --undefined-- 41.670
2.62 --undefined-- 42.001
2.63 --undefined-- 42.462
2.64 --undefined-- 42.078
2.65 --undefined-- 40.813
2.66 --undefined-- 39.961
2.67 --undefined-- 39.717
2.68 --undefined-- 38.612
2.69 --undefined-- 36.929
2.70 --undefined-- 35.407
2.71 --undefined-- 35.353
2.72 --undefined-- 36.165
2.73 --undefined-- 37.046
2.74 --undefined-- 37.840
2.75 --undefined-- 37.934
2.76 --undefined-- 37.370
2.77 --undefined-- 36.174
2.78 --undefined-- 36.080
2.79 --undefined-- 36.827
2.80 --undefined-- 35.620
2.81 --undefined-- 32.884
2.82 --undefined-- 32.233
2.83 --undefined-- 33.602
2.84 --undefined-- 34.369
2.85 --undefined-- 35.176
2.86 --undefined-- 37.021
2.87 --undefined-- 39.621
2.88 --undefined-- 41.797
2.89 --undefined-- 42.689
2.90 --undefined-- 43.780
2.91 --undefined-- 45.858
2.92 --undefined-- 47.269
2.93 --undefined-- 53.140
2.94 --undefined-- 62.977
2.95 --undefined-- 69.190
2.96 --undefined-- 72.067
2.97 108.234 72.667
2.98 108.465 72.537
2.99 111.001 72.622
3.00 113.044 72.829
3.01 112.267 72.745
3.02 113.708 71.690
3.03 117.147 70.126
3.04 117.886 68.689
3.05 115.155 66.008
3.06 113.977 61.306
3.07 111.230 56.700
3.08 --undefined-- 56.155
3.09 --undefined-- 57.501
3.10 --undefined-- 58.117
3.11 --undefined-- 57.810
3.12 --undefined-- 57.224
3.13 --undefined-- 56.039
3.14 --undefined-- 56.733
3.15 --undefined-- 64.377
3.16 --undefined-- 70.176
3.17 --undefined-- 72.768
3.18 104.718 73.196
3.19 100.159 72.980
3.20 97.981 73.131
3.21 97.909 73.285
3.22 99.205 73.368
3.23 101.086 73.576
3.24 103.365 73.462
3.25 105.967 72.753
3.26 109.969 71.968
3.27 111.799 71.758
3.28 116.729 71.601
3.29 122.095 71.089
3.30 121.959 69.928
3.31 122.092 67.834
3.32 123.232 66.593
3.33 123.547 68.220
3.34 124.933 70.889
3.35 120.043 72.864
3.36 --undefined-- 73.827
3.37 --undefined-- 73.535
3.38 --undefined-- 72.450
3.39 --undefined-- 70.909
3.40 --undefined-- 68.206
3.41 --undefined-- 64.357
3.42 --undefined-- 60.280
3.43 --undefined-- 56.327
3.44 --undefined-- 53.597
3.45 --undefined-- 55.450
3.46 --undefined-- 61.630
3.47 97.877 66.808
3.48 93.510 69.924
3.49 91.959 71.339
3.50 89.734 71.720
3.51 87.295 71.560
3.52 83.242 70.668
3.53 80.558 69.325
3.54 --undefined-- 67.680
3.55 --undefined-- 64.634
3.56 --undefined-- 60.037
3.57 --undefined-- 54.695
3.58 --undefined-- 51.107
3.59 --undefined-- 50.673
3.60 --undefined-- 51.409
3.61 --undefined-- 53.626
3.62 --undefined-- 59.082
3.63 --undefined-- 64.396
3.64 90.529 67.792
3.65 87.026 69.852
3.66 85.777 71.010
3.67 84.734 71.287
3.68 82.922 70.768
3.69 81.991 69.786
3.70 --undefined-- 68.366
3.71 --undefined-- 67.490
3.72 --undefined-- 68.464
3.73 --undefined-- 67.384
3.74 --undefined-- 64.065
3.75 --undefined-- 62.712
3.76 --undefined-- 63.039
3.77 --undefined-- 64.008
3.78 --undefined-- 64.061
3.79 89.207 64.320
3.80 --undefined-- 64.183
3.81 --undefined-- 61.581
3.82 --undefined-- 58.501
3.83 --undefined-- 55.509
3.84 --undefined-- 50.281
3.85 --undefined-- 47.451
3.86 --undefined-- 47.567
3.87 --undefined-- 46.342
3.88 --undefined-- 45.933
3.89 --undefined-- 46.252
3.90 --undefined-- 45.624
3.91 --undefined-- 45.180
3.92 --undefined-- 46.592
3.93 --undefined-- 56.279
3.94 --undefined-- 64.279
3.95 101.992 68.639
3.96 102.189 70.572
3.97 103.356 71.145
3.98 105.821 70.786
3.99 107.116 69.969
4.00 106.762 69.023
4.01 107.806 68.012
4.02 105.499 67.364
4.03 104.189 66.957
4.04 102.882 67.409
4.05 103.018 68.763
4.06 102.802 70.134
4.07 101.068 71.437
4.08 99.594 72.271
4.09 94.064 72.410
4.10 91.330 72.108
4.11 91.529 71.504
4.12 90.803 70.505
4.13 90.432 68.771
4.14 91.359 66.430
4.15 90.737 63.570
4.16 91.566 59.461
4.17 91.511 54.438
4.18 90.250 50.825
4.19 89.623 50.002
4.20 --undefined-- 49.674
4.21 --undefined-- 49.379
4.22 --undefined-- 53.668
4.23 --undefined-- 63.260
4.24 --undefined-- 69.718
4.25 138.057 72.613
4.26 130.791 72.728
4.27 122.942 71.376
4.28 115.663 69.925
4.29 110.344 69.033
4.30 103.076 68.346
4.31 97.847 66.585
4.32 --undefined-- 63.152
4.33 --undefined-- 58.133
4.34 --undefined-- 55.005
4.35 --undefined-- 56.097
4.36 --undefined-- 56.007
4.37 --undefined-- 54.315
4.38 --undefined-- 52.662
4.39 --undefined-- 51.243
4.40 --undefined-- 51.589
4.41 --undefined-- 53.780
4.42 --undefined-- 55.819
4.43 77.855 56.720
4.44 78.150 56.448
4.45 79.299 56.114
4.46 82.542 57.790
4.47 87.514 61.507
4.48 95.705 65.804
4.49 100.329 69.365
4.50 103.543 71.812
4.51 104.818 72.947
4.52 107.510 73.071
4.53 105.584 72.537
4.54 108.737 70.621
4.55 109.868 66.811
4.56 --undefined-- 62.198
4.57 --undefined-- 59.089
4.58 --undefined-- 55.564
4.59 --undefined-- 50.718
4.60 --undefined-- 49.012
4.61 --undefined-- 47.973
4.62 --undefined-- 45.644
4.63 --undefined-- 43.545
4.64 --undefined-- 42.143
4.65 --undefined-- 41.413
4.66 --undefined-- 42.312
4.67 --undefined-- 42.622
4.68 --undefined-- 41.734
4.69 --undefined-- 40.682
4.70 --undefined-- 39.666
4.71 --undefined-- 38.774
4.72 --undefined-- 38.060
4.73 --undefined-- 37.557
4.74 --undefined-- 37.354
4.75 --undefined-- 37.033
4.76 --undefined-- 37.137
4.77 --undefined-- 37.501
4.78 --undefined-- 37.040
4.79 --undefined-- 35.396
4.80 --undefined-- 33.119
4.81 --undefined-- 31.995
4.82 --undefined-- 32.090
4.83 --undefined-- 32.162
4.84 --undefined-- 33.084
4.85 --undefined-- 34.091
4.86 --undefined-- 35.121
4.87 --undefined-- 36.561
4.88 --undefined-- 39.368
4.89 --undefined-- 42.656
4.90 --undefined-- 46.163
4.91 --undefined-- 57.355
4.92 --undefined-- 65.399
4.93 --undefined-- 69.573
4.94 --undefined-- 70.796
4.95 --undefined-- 69.996
4.96 --undefined-- 67.497
4.97 --undefined-- 63.213
4.98 --undefined-- 56.992
4.99 --undefined-- 51.018
5.00 --undefined-- 49.507
5.01 --undefined-- 49.710
5.02 --undefined-- 48.586
5.03 --undefined-- 45.765
5.04 --undefined-- 43.750
5.05 --undefined-- 42.599
5.06 --undefined-- 42.240
5.07 --undefined-- 42.621
5.08 --undefined-- 43.804
5.09 --undefined-- 45.111
5.10 --undefined-- 44.979
5.11 --undefined-- 44.932
5.12 --undefined-- 52.468
5.13 --undefined-- 61.473
5.14 --undefined-- 67.006
5.15 --undefined-- 69.233
5.16 86.095 68.986
5.17 84.862 67.882
5.18 --undefined-- 66.891
5.19 --undefined-- 64.952
5.20 --undefined-- 63.896
5.21 --undefined-- 62.405
5.22 --undefined-- 57.427
5.23 --undefined-- 50.556
5.24 --undefined-- 49.171
5.25 --undefined-- 50.531
5.26 --undefined-- 50.999
5.27 --undefined-- 50.092
5.28 --undefined-- 48.496
5.29 --undefined-- 46.008
5.30 --undefined-- 42.596
5.31 --undefined-- 39.303
5.32 --undefined-- 38.043
5.33 --undefined-- 37.494
5.34 --undefined-- 36.839
5.35 --undefined-- 36.333
5.36 --undefined-- 36.176
5.37 --undefined-- 35.653
5.38 --undefined-- 35.426
5.39 --undefined-- 35.768
5.40 --undefined-- 36.056
5.41 --undefined-- 36.003
5.42 --undefined-- 36.197
5.43 --undefined-- 36.108
5.44 --undefined-- 35.484
5.45 --undefined-- 34.591
5.46 --undefined-- 34.492
5.47 --undefined-- 34.915
5.48 --undefined-- 35.082
5.49 --undefined-- 35.122
5.50 --undefined-- 34.624
5.51 --undefined-- 34.073
5.52 --undefined-- 34.495
5.53 --undefined-- 35.609
5.54 --undefined-- 37.228
5.55 --undefined-- 39.119
5.56 --undefined-- 41.031
5.57 --undefined-- 42.731
5.58 --undefined-- 45.178
5.59 --undefined-- 48.062
5.60 --undefined-- 50.551
5.61 --undefined-- 52.252
5.62 --undefined-- 54.173
5.63 --undefined-- 62.204
5.64 --undefined-- 69.695
5.65 --undefined-- 73.585
5.66 119.810 74.913
5.67 116.242 74.797
5.68 112.495 73.896
5.69 110.578 73.108
5.70 109.366 73.325
5.71 108.468 73.591
5.72 108.855 72.836
5.73 111.964 71.481
5.74 115.724 70.778
5.75 120.703 70.823
5.76 124.062 71.251
5.77 126.283 71.697
5.78 128.111 71.597
5.79 127.938 71.033
5.80 126.427 70.310
5.81 123.536 69.109
5.82 119.733 66.603
5.83 --undefined-- 62.334
5.84 --undefined-- 58.419
5.85 --undefined-- 57.789
5.86 --undefined-- 62.899
5.87 --undefined-- 69.524
5.88 --undefined-- 73.143
5.89 119.329 74.235
5.90 115.116 73.786
5.91 108.219 72.938
5.92 104.556 72.529
5.93 100.461 72.323
5.94 97.904 71.761
5.95 96.657 70.377
5.96 95.693 68.419
5.97 95.413 66.823
5.98 95.455 66.429
5.99 96.198 66.648
6.00 96.310 66.583
6.01 95.925 66.232
6.02 95.036 65.766
6.03 93.964 65.454
6.04 95.388 66.210
6.05 97.446 68.351
6.06 97.670 70.727
6.07 97.317 72.535
6.08 96.565 73.346
6.09 95.871 73.149
6.10 95.429 72.347
6.11 95.138 71.392
6.12 95.961 70.023
6.13 96.228 67.501
6.14 95.261 63.213
6.15 --undefined-- 58.026
6.16 --undefined-- 54.122
6.17 --undefined-- 51.338
6.18 --undefined-- 51.431
6.19 --undefined-- --undefined--
6.20 --undefined-- --undefined--
6.21 --undefined-- --undefined--
6.22 --undefined-- --undefined--
