Time Pitch Intensity
0.01 --undefined-- --undefined--
0.02 --undefined-- --undefined--
0.03 --undefined-- --undefined--
0.04 --undefined-- --undefined--
0.05 --undefined-- 45.693
0.06 --undefined-- 46.802
0.07 --undefined-- 46.788
0.08 --undefined-- 45.900
0.09 --undefined-- 45.162
0.10 --undefined-- 44.816
0.11 --undefined-- 44.639
0.12 --undefined-- 44.793
0.13 --undefined-- 44.552
0.14 --undefined-- 43.867
0.15 --undefined-- 43.178
0.16 --undefined-- 42.407
0.17 --undefined-- 42.034
0.18 --undefined-- 42.146
0.19 --undefined-- 41.812
0.20 --undefined-- 40.486
0.21 --undefined-- 38.391
0.22 --undefined-- 35.840
0.23 --undefined-- 34.923
0.24 --undefined-- 36.275
0.25 --undefined-- 37.067
0.26 --undefined-- 37.296
0.27 --undefined-- 36.703
0.28 --undefined-- 37.802
0.29 --undefined-- 48.286
0.30 --undefined-- 56.265
0.31 --undefined-- 60.686
0.32 --undefined-- 62.841
0.33 --undefined-- 64.129
0.34 175.846 66.335
0.35 179.421 68.876
0.36 195.281 70.265
0.37 210.252 70.925
0.38 218.204 71.702
0.39 225.921 72.337
0.40 230.214 72.487
0.41 232.115 72.051
0.42 231.607 70.833
0.43 229.262 68.737
0.44 225.465 66.060
0.45 222.822 63.775
0.46 222.260 62.225
0.47 220.343 61.968
0.48 236.582 65.665
0.49 227.754 69.674
0.50 200.763 72.118
0.51 195.384 73.221
0.52 --undefined-- 73.386
0.53 --undefined-- 73.272
0.54 163.495 73.232
0.55 158.657 73.155
0.56 153.536 72.987
0.57 146.613 72.732
0.58 141.805 72.410
0.59 139.221 71.976
0.60 139.102 71.405
0.61 140.355 70.793
0.62 142.424 70.239
0.63 148.758 70.015
0.64 152.596 70.055
0.65 159.772 70.012
0.66 166.300 69.761
0.67 172.017 69.591
0.68 174.170 70.026
0.69 175.032 70.667
0.70 176.191 71.064
0.71 177.994 71.292
0.72 180.176 71.248
0.73 180.339 70.517
0.74 180.918 69.284
0.75 180.636 68.119
0.76 181.231 66.809
0.77 179.503 65.114
0.78 172.635 63.208
0.79 164.364 61.893
0.80 160.785 61.865
0.81 164.005 63.103
0.82 172.131 65.177
0.83 171.882 67.194
0.84 164.181 68.634
0.85 149.309 69.109
0.86 121.311 68.387
0.87 111.472 67.179
0.88 107.393 66.552
0.89 107.198 66.642
0.90 115.705 66.989
0.91 135.983 67.261
0.92 148.540 67.315
0.93 160.777 66.922
0.94 164.597 66.119
0.95 174.027 65.634
0.96 178.182 65.666
0.97 177.010 65.727
0.98 173.661 66.084
0.99 165.949 66.531
1.00 151.630 66.429
1.01 142.679 65.867
1.02 131.121 65.480
1.03 112.674 65.665
1.04 107.690 65.821
1.05 105.344 65.821
1.06 105.249 65.919
1.07 105.801 65.662
1.08 102.610 64.411
1.09 114.272 62.488
1.10 115.632 60.096
1.11 109.180 56.746
1.12 107.123 53.244
1.13 107.270 51.818
1.14 122.496 53.955
1.15 138.557 57.313
1.16 144.365 59.947
1.17 136.836 61.578
1.18 135.231 62.530
1.19 123.986 63.396
1.20 113.669 64.541
1.21 109.704 65.691
1.22 107.083 66.685
1.23 107.864 67.660
1.24 110.581 68.486
1.25 115.081 69.102
1.26 119.741 69.602
1.27 126.216 69.730
1.28 136.435 69.605
1.29 146.380 69.761
1.30 155.667 70.207
1.31 161.284 70.608
1.32 170.035 70.838
1.33 174.649 70.770
1.34 176.364 70.281
1.35 183.248 69.208
1.36 183.679 67.778
1.37 180.222 66.447
1.38 178.609 65.303
1.39 177.093 64.621
1.40 175.228 64.689
1.41 172.436 65.391
1.42 168.017 66.512
1.43 163.502 67.772
1.44 156.010 68.692
1.45 150.804 69.219
1.46 146.790 69.546
1.47 145.496 69.602
1.48 143.902 69.346
1.49 142.117 69.042
1.50 140.737 68.681
1.51 139.644 67.871
1.52 132.408 66.646
1.53 126.449 65.658
1.54 124.879 64.555
1.55 121.306 62.533
1.56 124.290 59.834
1.57 145.425 56.873
1.58 148.801 53.047
1.59 --undefined-- 47.483
1.60 --undefined-- 42.163
1.61 --undefined-- 40.314
1.62 --undefined-- 40.168
1.63 --undefined-- 40.523
1.64 --undefined-- 40.831
1.65 --undefined-- 40.655
1.66 --undefined-- 39.052
1.67 --undefined-- 36.497
1.68 --undefined-- 37.152
1.69 --undefined-- 39.631
1.70 --undefined-- 41.697
1.71 --undefined-- 43.094
1.72 --undefined-- 44.904
1.73 --undefined-- 46.705
1.74 --undefined-- 48.039
1.75 --undefined-- 51.841
1.76 221.913 58.201
1.77 206.797 62.746
1.78 187.719 65.158
1.79 185.586 66.378
1.80 184.174 67.070
1.81 183.382 67.377
1.82 183.140 67.418
1.83 182.556 67.395
1.84 181.906 67.401
1.85 181.554 67.374
1.86 180.619 67.254
1.87 179.706 67.014
1.88 178.929 66.618
1.89 178.069 66.157
1.90 176.202 65.716
1.91 172.611 65.593
1.92 168.139 66.250
1.93 162.946 67.372
1.94 155.735 68.177
1.95 146.443 68.882
1.96 140.918 69.837
1.97 135.974 70.094
1.98 120.415 69.557
1.99 112.678 68.740
2.00 105.598 67.714
2.01 101.749 67.173
2.02 100.991 67.513
2.03 100.046 68.489
2.04 99.884 69.243
2.05 101.263 69.579
2.06 104.040 69.548
2.07 106.240 68.782
2.08 109.837 67.462
2.09 113.609 66.589
2.10 115.749 66.197
2.11 116.956 65.897
2.12 118.093 66.014
2.13 120.308 66.440
2.14 122.439 66.561
2.15 123.118 66.338
2.16 123.950 65.998
2.17 123.339 65.575
2.18 122.414 65.169
2.19 122.497 65.124
2.20 122.860 65.702
2.21 121.716 66.588
2.22 120.246 67.109
2.23 119.605 67.136
2.24 119.685 66.832
2.25 119.580 66.084
2.26 116.839 64.471
2.27 110.241 61.683
2.28 107.810 58.008
2.29 --undefined-- 53.791
2.30 --undefined-- 49.063
2.31 --undefined-- 44.336
2.32 --undefined-- 40.224
2.33 --undefined-- 38.255
2.34 --undefined-- 37.187
2.35 --undefined-- 34.739
2.36 --undefined-- 32.578
2.37 --undefined-- 36.443
2.38 --undefined-- 42.591
2.39 --undefined-- 53.027
2.40 --undefined-- 61.946
2.41 198.001 67.360
2.42 193.823 70.108
2.43 176.881 71.431
2.44 169.927 72.221
2.45 162.783 72.477
2.46 159.910 72.524
2.47 161.093 72.677
2.48 161.284 72.783
2.49 160.310 72.738
2.50 159.688 72.434
2.51 160.626 71.992
2.52 160.708 71.513
2.53 158.787 70.850
2.54 157.935 70.158
2.55 154.748 69.710
2.56 154.797 69.859
2.57 161.216 70.355
2.58 165.741 70.736
2.59 165.997 70.884
2.60 167.121 70.630
2.61 167.814 69.698
2.62 165.869 67.738
2.63 162.040 64.218
2.64 160.362 58.713
2.65 --undefined-- 52.907
2.66 --undefined-- 50.948
2.67 --undefined-- 49.413
2.68 --undefined-- 47.038
2.69 --undefined-- 46.308
2.70 --undefined-- 52.622
2.71 --undefined-- 61.265
2.72 --undefined-- 66.583
2.73 --undefined-- 69.074
2.74 --undefined-- 69.904
2.75 124.476 70.039
2.76 119.091 69.714
2.77 114.599 68.923
2.78 111.783 67.743
2.79 109.450 66.296
2.80 104.854 64.832
2.81 102.681 63.928
2.82 103.430 64.248
2.83 105.267 65.010
2.84 106.732 65.508
2.85 108.673 65.894
2.86 110.299 66.293
2.87 111.519 66.666
2.88 113.234 67.072
2.89 113.940 67.319
2.90 115.799 67.539
2.91 118.478 67.911
2.92 121.209 68.236
2.93 124.060 68.120
2.94 126.057 67.373
2.95 124.890 66.872
2.96 121.399 67.193
2.97 120.119 67.688
2.98 117.882 68.176
2.99 116.448 68.612
3.00 116.328 68.900
3.01 116.457 69.150
3.02 116.636 69.247
3.03 116.214 68.881
3.04 116.462 68.203
3.05 117.677 67.742
3.06 118.765 67.413
3.07 120.334 66.998
3.08 121.300 66.414
3.09 120.901 65.442
3.10 116.992 63.623
3.11 107.121 60.415
3.12 106.553 55.644
3.13 --undefined-- 50.428
3.14 --undefined-- 47.962
3.15 --undefined-- 47.337
3.16 --undefined-- 51.812
3.17 161.108 58.177
3.18 152.176 61.749
3.19 135.080 63.144
3.20 126.180 63.715
3.21 115.591 64.019
3.22 109.479 63.876
3.23 105.011 63.478
3.24 101.032 63.055
3.25 100.258 62.489
3.26 99.293 62.109
3.27 97.729 62.410
3.28 100.156 62.964
3.29 101.356 63.048
3.30 103.005 62.671
3.31 104.694 62.333
3.32 106.380 62.372
3.33 106.332 62.645
3.34 106.271 62.840
3.35 107.102 62.671
3.36 104.264 62.132
3.37 102.992 61.953
3.38 101.942 62.243
3.39 99.787 62.381
3.40 97.867 62.419
3.41 95.525 62.261
3.42 92.102 61.671
3.43 90.827 60.959
3.44 91.600 60.573
3.45 92.351 60.432
3.46 94.320 60.462
3.47 96.930 60.904
3.48 103.014 61.785
3.49 107.439 62.952
3.50 111.461 64.356
3.51 116.758 65.620
3.52 123.618 66.375
3.53 128.903 66.929
3.54 130.710 67.568
3.55 134.312 68.204
3.56 138.560 68.710
3.57 140.469 68.999
3.58 142.326 69.068
3.59 142.491 68.998
3.60 139.560 68.682
3.61 137.191 67.867
3.62 137.008 66.441
3.63 133.518 64.366
3.64 128.835 61.320
3.65 130.426 56.651
3.66 --undefined-- 50.205
3.67 --undefined-- 44.975
3.68 --undefined-- 43.132
3.69 --undefined-- 41.332
3.70 --undefined-- 41.166
3.71 --undefined-- 42.449
3.72 --undefined-- 44.164
3.73 --undefined-- 51.024
3.74 --undefined-- 58.936
3.75 --undefined-- 63.475
3.76 132.625 65.226
3.77 120.089 65.400
3.78 112.508 65.006
3.79 108.535 64.455
3.80 106.713 64.005
3.81 105.903 63.732
3.82 106.753 63.641
3.83 105.855 63.960
3.84 108.545 64.461
3.85 109.237 64.708
3.86 109.597 64.813
3.87 110.741 64.956
3.88 111.589 65.058
3.89 113.478 65.127
3.90 115.883 65.334
3.91 117.063 65.584
3.92 118.401 65.624
3.93 119.853 65.220
3.94 120.618 64.214
3.95 126.391 63.065
3.96 130.421 62.252
3.97 128.193 61.471
3.98 126.833 60.779
3.99 127.970 60.779
4.00 138.388 62.131
4.01 150.850 64.106
4.02 151.516 65.675
4.03 143.995 66.496
4.04 138.100 66.605
4.05 134.345 66.272
4.06 134.884 65.949
4.07 136.568 65.960
4.08 138.201 66.238
4.09 139.186 66.523
4.10 139.219 66.604
4.11 139.393 66.548
4.12 139.909 66.649
4.13 140.199 67.022
4.14 139.135 67.443
4.15 139.169 67.734
4.16 140.141 67.970
4.17 140.583 68.136
4.18 139.980 68.146
4.19 138.352 67.902
4.20 136.241 67.365
4.21 133.697 66.751
4.22 131.472 66.518
4.23 130.730 66.568
4.24 129.299 66.269
4.25 128.919 65.875
4.26 127.848 65.875
4.27 123.295 65.768
4.28 121.347 65.635
4.29 122.696 65.818
4.30 119.852 65.919
4.31 120.540 65.905
4.32 120.987 66.211
4.33 119.444 66.664
4.34 119.547 66.628
4.35 119.344 66.147
4.36 118.159 65.704
4.37 114.147 65.430
4.38 113.120 64.947
4.39 111.297 63.647
4.40 110.981 61.081
4.41 --undefined-- 56.532
4.42 --undefined-- 49.535
4.43 --undefined-- 41.773
4.44 --undefined-- 41.957
4.45 --undefined-- 45.580
4.46 --undefined-- 47.513
4.47 --undefined-- 47.006
4.48 --undefined-- 45.861
4.49 --undefined-- 46.270
4.50 --undefined-- 47.131
4.51 --undefined-- 47.425
4.52 --undefined-- 47.192
4.53 --undefined-- 47.757
4.54 --undefined-- 48.063
4.55 --undefined-- 47.009
4.56 --undefined-- 45.463
4.57 --undefined-- 44.476
4.58 --undefined-- 44.052
4.59 --undefined-- 43.445
4.60 --undefined-- 42.519
4.61 --undefined-- 41.338
4.62 --undefined-- 39.417
4.63 --undefined-- 37.691
4.64 --undefined-- 37.787
4.65 --undefined-- 38.580
4.66 --undefined-- 38.779
4.67 --undefined-- 37.870
4.68 --undefined-- 35.220
4.69 --undefined-- 33.509
4.70 --undefined-- 36.027
4.71 --undefined-- 38.644
4.72 --undefined-- 39.916
4.73 --undefined-- 39.261
4.74 --undefined-- 37.134
4.75 --undefined-- 37.792
4.76 --undefined-- 42.437
4.77 --undefined-- 50.650
4.78 --undefined-- 58.960
4.79 --undefined-- 64.399
4.80 --undefined-- 67.292
4.81 131.400 68.400
4.82 131.616 68.470
4.83 123.331 68.312
4.84 123.589 68.455
4.85 128.158 69.040
4.86 131.357 69.565
4.87 134.743 69.810
4.88 135.195 69.586
4.89 132.907 68.428
4.90 130.649 66.028
4.91 127.580 62.342
4.92 128.758 57.765
4.93 133.385 53.033
4.94 --undefined-- 50.780
4.95 --undefined-- 55.570
4.96 --undefined-- 61.047
4.97 154.611 64.706
4.98 145.531 67.174
4.99 139.386 68.713
5.00 135.380 69.148
5.01 133.288 68.609
5.02 132.117 67.409
5.03 129.561 65.453
5.04 123.446 62.587
5.05 129.192 59.770
5.06 144.071 57.408
5.07 154.730 54.701
5.08 170.043 53.002
5.09 --undefined-- 57.932
5.10 179.990 63.962
5.11 161.893 67.623
5.12 148.190 69.315
5.13 143.089 69.828
5.14 140.953 69.833
5.15 139.454 69.572
5.16 137.403 69.130
5.17 135.359 68.950
5.18 134.408 69.099
5.19 133.629 69.072
5.20 133.136 68.934
5.21 133.979 68.837
5.22 134.486 68.563
5.23 134.755 68.182
5.24 134.260 67.909
5.25 132.618 67.854
5.26 131.351 68.043
5.27 129.939 68.235
5.28 126.500 68.322
5.29 123.171 68.802
5.30 121.327 69.515
5.31 120.179 69.968
5.32 119.882 70.135
5.33 120.377 70.153
5.34 122.264 70.236
5.35 124.272 70.255
5.36 126.022 69.593
5.37 130.093 68.349
5.38 134.399 67.423
5.39 135.566 66.870
5.40 135.363 65.906
5.41 133.798 63.783
5.42 135.619 60.823
5.43 153.746 58.136
5.44 164.992 56.302
5.45 174.874 55.043
5.46 184.707 54.949
5.47 194.562 57.575
5.48 188.805 --undefined--
5.49 178.096 --undefined--
5.50 --undefined-- --undefined--
5.51 --undefined-- --undefined--
