Time Pitch Intensity
0.01 --undefined-- --undefined--
0.02 94.718 --undefined--
0.03 97.872 --undefined--
0.04 102.079 --undefined--
0.05 109.448 71.906
0.06 112.443 71.227
0.07 112.712 69.286
0.08 107.059 66.689
0.09 106.816 64.988
0.10 --undefined-- 64.231
0.11 --undefined-- 63.566
0.12 --undefined-- 64.285
0.13 --undefined-- 70.121
0.14 188.234 75.498
0.15 178.731 77.991
0.16 175.190 78.382
0.17 180.742 77.808
0.18 186.859 77.367
0.19 193.926 77.485
0.20 199.861 77.799
0.21 201.738 77.848
0.22 202.622 77.625
0.23 203.452 77.361
0.24 202.428 76.770
0.25 199.676 75.635
0.26 197.413 74.946
0.27 195.813 75.091
0.28 193.784 75.292
0.29 192.133 75.342
0.30 190.006 75.339
0.31 182.213 75.532
0.32 179.158 76.188
0.33 171.095 77.123
0.34 164.412 77.791
0.35 157.147 77.876
0.36 151.947 77.321
0.37 146.204 76.043
0.38 140.730 74.167
0.39 134.461 72.398
0.40 128.670 71.098
0.41 123.452 70.161
0.42 118.498 69.496
0.43 116.669 69.057
0.44 116.221 69.240
0.45 118.630 70.327
0.46 118.922 71.783
0.47 119.144 73.270
0.48 117.386 74.567
0.49 114.307 75.371
0.50 114.908 75.633
0.51 116.633 75.505
0.52 118.739 75.112
0.53 119.874 74.683
0.54 125.633 74.632
0.55 131.224 74.955
0.56 134.640 75.258
0.57 137.756 75.252
0.58 140.648 75.028
0.59 143.555 74.718
0.60 142.131 74.132
0.61 138.742 72.947
0.62 135.413 71.154
0.63 132.367 69.045
0.64 136.256 69.281
0.65 151.541 72.717
0.66 153.011 75.530
0.67 145.781 76.990
0.68 137.686 77.377
0.69 127.146 77.624
0.70 126.146 78.031
0.71 125.326 77.779
0.72 122.587 76.681
0.73 120.503 75.353
0.74 119.645 74.276
0.75 117.707 73.602
0.76 113.996 73.467
0.77 114.650 73.489
0.78 113.932 73.362
0.79 111.354 73.093
0.80 117.444 73.095
0.81 114.980 73.731
0.82 113.866 74.525
0.83 112.084 74.518
0.84 108.347 73.062
0.85 100.543 70.051
0.86 99.665 65.682
0.87 86.580 62.047
0.88 92.695 61.919
0.89 96.454 62.062
0.90 103.321 61.595
0.91 109.618 60.936
0.92 111.887 60.665
0.93 114.579 61.542
0.94 --undefined-- 63.774
0.95 --undefined-- 69.060
0.96 --undefined-- 74.954
0.97 151.944 78.376
0.98 140.398 79.588
0.99 134.158 79.831
1.00 130.987 79.839
1.01 127.087 79.705
1.02 123.758 79.224
1.03 120.555 78.013
1.04 118.420 76.326
1.05 116.809 74.187
1.06 116.590 71.350
1.07 --undefined-- 68.082
1.08 --undefined-- 64.607
1.09 --undefined-- 60.096
1.10 --undefined-- 53.332
1.11 --undefined-- 45.525
1.12 --undefined-- 42.405
1.13 --undefined-- 43.363
1.14 --undefined-- 43.570
1.15 --undefined-- 42.001
1.16 --undefined-- 40.108
1.17 --undefined-- 40.180
1.18 --undefined-- 41.390
1.19 --undefined-- 41.503
1.20 --undefined-- 39.889
1.21 --undefined-- 38.086
1.22 --undefined-- 37.493
1.23 --undefined-- 38.641
1.24 --undefined-- 41.149
1.25 --undefined-- 41.780
1.26 --undefined-- 40.566
1.27 --undefined-- 41.449
1.28 --undefined-- 43.972
1.29 --undefined-- 45.135
1.30 --undefined-- 47.525
1.31 --undefined-- 54.755
1.32 --undefined-- 59.740
1.33 --undefined-- 60.853
1.34 --undefined-- 59.352
1.35 --undefined-- 64.558
1.36 183.418 71.098
1.37 161.915 74.667
1.38 148.865 76.232
1.39 145.263 76.923
1.40 141.394 77.241
1.41 137.512 77.358
1.42 136.384 77.472
1.43 135.594 77.510
1.44 134.656 77.341
1.45 133.861 76.971
1.46 132.180 76.560
1.47 129.990 76.154
1.48 127.120 75.463
1.49 122.870 74.146
1.50 119.717 72.231
1.51 114.794 69.983
1.52 111.917 68.687
1.53 161.398 71.391
1.54 144.730 74.745
1.55 137.896 76.713
1.56 121.161 77.714
1.57 118.180 77.911
1.58 115.405 77.487
1.59 114.858 77.178
1.60 114.863 77.125
1.61 115.047 77.039
1.62 115.621 76.794
1.63 115.933 76.436
1.64 115.971 76.029
1.65 115.936 75.545
1.66 116.309 74.912
1.67 115.697 73.761
1.68 113.823 71.543
1.69 112.388 68.222
1.70 110.508 64.171
1.71 110.333 59.601
1.72 --undefined-- 58.190
1.73 --undefined-- 63.339
1.74 --undefined-- 69.425
1.75 120.153 73.044
1.76 108.450 74.517
1.77 106.247 74.905
1.78 104.992 74.824
1.79 104.656 74.601
1.80 103.996 74.364
1.81 103.992 74.248
1.82 107.419 74.393
1.83 108.360 74.433
1.84 107.896 73.645
1.85 105.709 71.514
1.86 107.105 68.237
1.87 111.932 64.186
1.88 111.129 59.094
1.89 --undefined-- 58.929
1.90 --undefined-- 67.250
1.91 --undefined-- 72.873
1.92 141.367 75.578
1.93 134.796 76.441
1.94 133.427 76.599
1.95 132.643 76.616
1.96 131.912 76.552
1.97 130.584 76.620
1.98 131.116 77.004
1.99 131.749 77.307
2.00 130.087 77.284
2.01 128.439 77.083
2.02 125.979 76.896
2.03 121.864 76.736
2.04 118.027 76.544
2.05 115.855 76.353
2.06 114.084 76.213
2.07 112.724 76.165
2.08 112.319 76.100
2.09 111.863 75.790
2.10 111.107 75.054
2.11 108.892 73.766
2.12 109.759 72.036
2.13 109.354 69.914
2.14 109.111 67.077
2.15 112.940 63.510
2.16 106.946 60.132
2.17 100.557 58.175
2.18 --undefined-- 58.808
2.19 141.244 64.737
2.20 141.109 70.471
2.21 120.557 73.667
2.22 115.212 75.016
2.23 112.687 75.281
2.24 110.272 75.122
2.25 111.152 75.042
2.26 111.697 75.026
2.27 110.649 74.888
2.28 109.409 74.496
2.29 108.081 73.782
2.30 106.254 72.686
2.31 103.906 71.130
2.32 102.291 69.559
2.33 105.466 69.654
2.34 113.188 71.590
2.35 111.911 73.234
2.36 107.651 73.990
2.37 106.393 74.156
2.38 105.537 74.229
2.39 105.474 74.557
2.40 105.289 74.879
2.41 103.743 74.875
2.42 104.680 74.620
2.43 104.260 74.086
2.44 103.540 72.896
2.45 102.248 70.562
2.46 104.778 67.155
2.47 112.517 63.947
2.48 --undefined-- 62.583
2.49 --undefined-- 62.645
2.50 --undefined-- 62.134
2.51 --undefined-- 63.167
2.52 112.955 66.345
2.53 105.764 68.566
2.54 96.775 69.422
2.55 95.473 69.543
2.56 91.972 69.534
2.57 90.429 69.288
2.58 86.081 68.487
2.59 86.309 67.267
2.60 89.498 66.297
2.61 91.380 65.969
2.62 91.130 65.770
2.63 91.233 65.604
2.64 91.026 65.637
2.65 92.862 65.980
2.66 89.007 66.272
2.67 87.635 66.304
2.68 87.852 66.431
2.69 88.862 66.876
2.70 95.671 67.626
2.71 97.005 68.112
2.72 99.076 67.707
2.73 100.663 65.891
2.74 94.689 62.771
2.75 93.954 60.671
2.76 --undefined-- 60.596
2.77 --undefined-- 61.572
2.78 --undefined-- 66.962
2.79 --undefined-- 71.569
2.80 113.111 73.824
2.81 111.291 74.672
2.82 111.362 74.927
2.83 111.909 74.967
2.84 112.295 74.753
2.85 111.753 73.867
2.86 109.049 71.962
2.87 109.632 69.256
2.88 113.244 66.177
2.89 87.786 63.019
2.90 91.591 60.155
2.91 89.475 57.701
2.92 --undefined-- 57.137
2.93 --undefined-- 64.583
2.94 --undefined-- 72.488
2.95 --undefined-- 77.178
2.96 135.083 79.381
2.97 134.294 80.092
2.98 133.510 80.093
2.99 134.644 79.803
3.00 135.711 79.343
3.01 137.995 78.487
3.02 139.534 76.930
3.03 139.724 74.583
3.04 --undefined-- 71.526
3.05 --undefined-- 67.369
3.06 --undefined-- 60.795
3.07 --undefined-- 51.856
3.08 --undefined-- 47.647
3.09 --undefined-- 48.408
3.10 --undefined-- 47.601
3.11 --undefined-- 43.899
3.12 --undefined-- 41.082
3.13 --undefined-- 40.938
3.14 --undefined-- 42.010
3.15 --undefined-- 43.693
3.16 --undefined-- 43.851
3.17 --undefined-- 42.612
3.18 --undefined-- 42.020
3.19 --undefined-- 42.330
3.20 --undefined-- 42.946
3.21 --undefined-- 43.187
3.22 --undefined-- 42.093
3.23 --undefined-- 40.481
3.24 --undefined-- 39.959
3.25 --undefined-- 39.628
3.26 --undefined-- 39.176
3.27 --undefined-- 38.052
3.28 --undefined-- 37.596
3.29 --undefined-- 39.444
3.30 --undefined-- 39.521
3.31 --undefined-- 36.866
3.32 --undefined-- 35.351
3.33 --undefined-- 36.625
3.34 --undefined-- 38.890
3.35 --undefined-- 42.115
3.36 --undefined-- 44.799
3.37 --undefined-- 45.204
3.38 --undefined-- 42.507
3.39 --undefined-- 37.573
3.40 --undefined-- 37.777
3.41 --undefined-- 45.816
3.42 --undefined-- 57.922
3.43 --undefined-- 66.588
3.44 --undefined-- 71.809
3.45 113.105 74.514
3.46 108.633 75.591
3.47 107.266 75.835
3.48 109.006 75.628
3.49 109.154 74.828
3.50 109.694 74.017
3.51 115.838 74.536
3.52 119.394 75.845
3.53 119.869 77.126
3.54 121.418 77.866
3.55 119.751 77.609
3.56 116.453 76.074
3.57 109.917 73.369
3.58 108.034 70.474
3.59 112.634 68.584
3.60 117.705 68.318
3.61 124.536 70.274
3.62 128.158 73.254
3.63 120.021 75.456
3.64 115.567 76.218
3.65 113.227 75.917
3.66 112.015 75.500
3.67 112.188 75.322
3.68 112.176 74.753
3.69 111.235 73.228
3.70 109.149 70.568
3.71 106.800 67.047
3.72 112.173 62.889
3.73 112.435 58.197
3.74 105.494 54.661
3.75 --undefined-- 52.902
3.76 --undefined-- 53.229
3.77 --undefined-- 57.181
3.78 142.988 62.173
3.79 142.711 64.559
3.80 134.999 64.265
3.81 127.610 63.071
3.82 136.279 64.299
3.83 151.857 67.807
3.84 144.186 71.261
3.85 139.448 74.113
3.86 138.081 76.189
3.87 127.541 77.382
3.88 128.440 77.925
3.89 132.852 78.218
3.90 136.548 78.393
3.91 139.911 78.010
3.92 143.439 76.687
3.93 154.906 75.617
3.94 161.612 75.929
3.95 169.154 76.212
3.96 172.646 76.027
3.97 173.944 75.741
3.98 175.385 75.501
3.99 176.052 75.244
4.00 174.523 74.885
4.01 171.278 74.523
4.02 166.745 74.812
4.03 166.561 76.113
4.04 165.806 77.344
4.05 163.597 77.498
4.06 160.238 75.865
4.07 151.714 72.222
4.08 148.550 67.411
4.09 153.689 62.521
4.10 --undefined-- 56.757
4.11 --undefined-- 50.554
4.12 --undefined-- 52.449
4.13 --undefined-- 61.557
4.14 243.338 70.636
4.15 236.200 76.336
4.16 223.637 79.243
4.17 217.346 80.365
4.18 215.945 80.613
4.19 215.521 80.404
4.20 214.504 79.846
4.21 210.823 78.903
4.22 205.645 77.636
4.23 206.243 76.485
4.24 208.518 76.019
4.25 211.863 76.392
4.26 212.029 76.996
4.27 207.626 77.140
4.28 190.173 76.826
4.29 179.335 76.691
4.30 171.790 76.818
4.31 166.104 76.825
4.32 162.781 76.424
4.33 157.362 75.694
4.34 155.736 75.188
4.35 156.861 75.048
4.36 154.540 74.916
4.37 151.743 74.783
4.38 151.430 74.991
4.39 155.967 75.834
4.40 157.500 76.735
4.41 160.487 77.292
4.42 163.588 77.569
4.43 166.992 77.522
4.44 171.052 77.208
4.45 174.589 76.828
4.46 176.998 76.612
4.47 178.040 76.614
4.48 177.443 76.446
4.49 175.204 75.494
4.50 170.486 73.408
4.51 162.565 70.593
4.52 154.329 68.283
4.53 --undefined-- 67.292
4.54 198.854 68.363
4.55 210.878 71.653
4.56 211.259 75.040
4.57 203.937 77.193
4.58 196.509 77.958
4.59 188.128 77.455
4.60 190.664 76.534
4.61 196.284 76.278
4.62 199.030 76.310
4.63 201.930 76.121
4.64 203.109 75.947
4.65 202.204 75.949
4.66 198.640 75.864
4.67 189.441 75.687
4.68 181.050 75.856
4.69 174.398 76.576
4.70 172.427 77.321
4.71 172.296 77.569
4.72 174.372 77.389
4.73 179.220 77.083
4.74 183.804 76.610
4.75 184.820 75.738
4.76 182.512 74.120
4.77 175.820 71.566
4.78 176.404 68.817
4.79 169.713 66.283
4.80 167.801 63.485
4.81 --undefined-- 59.851
4.82 --undefined-- 55.712
4.83 --undefined-- 59.357
4.84 --undefined-- 65.858
4.85 230.670 71.776
4.86 205.001 75.586
4.87 191.692 77.152
4.88 179.627 77.724
4.89 152.145 78.223
4.90 149.275 78.318
4.91 143.046 77.580
4.92 133.000 75.876
4.93 124.541 74.033
4.94 129.298 73.059
4.95 130.600 72.323
4.96 124.749 71.582
4.97 131.823 70.998
4.98 125.704 70.643
4.99 126.712 70.619
5.00 129.150 71.441
5.01 129.839 73.153
5.02 130.742 74.914
5.03 131.811 76.288
5.04 134.010 77.233
5.05 136.453 77.708
5.06 139.651 77.828
5.07 141.393 77.753
5.08 141.055 77.337
5.09 139.399 76.287
5.10 137.803 74.366
5.11 136.661 71.649
5.12 136.273 68.282
5.13 --undefined-- 64.873
5.14 --undefined-- 63.477
5.15 --undefined-- 62.823
5.16 --undefined-- 62.185
5.17 --undefined-- 62.042
5.18 --undefined-- 65.463
5.19 166.314 72.361
5.20 157.280 76.513
5.21 137.676 77.890
5.22 119.793 77.771
5.23 117.855 77.521
5.24 116.484 77.412
5.25 115.274 77.242
5.26 113.974 76.991
5.27 112.503 76.586
5.28 109.135 76.123
5.29 107.169 75.861
5.30 110.324 75.829
5.31 110.638 75.884
5.32 108.476 75.920
5.33 106.471 75.842
5.34 105.929 75.662
5.35 105.768 75.473
5.36 105.856 75.389
5.37 105.203 75.369
5.38 105.187 75.126
5.39 104.701 74.615
5.40 103.850 74.080
5.41 104.869 73.828
5.42 105.084 --undefined--
5.43 103.962 --undefined--
5.44 --undefined-- --undefined--
5.45 --undefined-- --undefined--
