Time Pitch Intensity
0.01 --undefined-- --undefined--
0.02 --undefined-- --undefined--
0.03 --undefined-- --undefined--
0.04 --undefined-- --undefined--
0.05 --undefined-- 40.555
0.06 --undefined-- 42.630
0.07 --undefined-- 46.547
0.08 --undefined-- 49.994
0.09 179.779 51.896
0.10 177.433 52.182
0.11 173.634 50.680
0.12 --undefined-- 47.176
0.13 --undefined-- 42.841
0.14 --undefined-- 41.501
0.15 --undefined-- 42.063
0.16 --undefined-- 44.646
0.17 --undefined-- 48.261
0.18 --undefined-- 50.412
0.19 --undefined-- 50.685
0.20 --undefined-- 49.328
0.21 --undefined-- 47.363
0.22 --undefined-- 45.765
0.23 --undefined-- 44.341
0.24 --undefined-- 42.630
0.25 --undefined-- 41.035
0.26 --undefined-- 39.721
0.27 --undefined-- 38.769
0.28 --undefined-- 37.973
0.29 --undefined-- 37.740
0.30 --undefined-- 38.819
0.31 --undefined-- 40.705
0.32 --undefined-- 44.033
0.33 --undefined-- 47.081
0.34 --undefined-- 48.413
0.35 --undefined-- 48.542
0.36 --undefined-- 48.937
0.37 --undefined-- 49.172
0.38 --undefined-- 49.115
0.39 --undefined-- 50.445
0.40 --undefined-- 51.850
0.41 --undefined-- 51.612
0.42 --undefined-- 50.567
0.43 --undefined-- 49.790
0.44 --undefined-- 53.721
0.45 --undefined-- 64.366
0.46 229.278 72.033
0.47 219.960 76.358
0.48 215.636 77.784
0.49 213.414 77.394
0.50 215.242 77.077
0.51 217.138 77.756
0.52 217.844 78.663
0.53 217.162 78.965
0.54 215.690 78.568
0.55 214.780 77.980
0.56 215.809 77.692
0.57 217.302 77.468
0.58 218.269 76.727
0.59 217.089 75.616
0.60 210.975 75.263
0.61 208.232 75.013
0.62 202.355 73.463
0.63 191.772 70.167
0.64 174.655 65.225
0.65 191.108 59.601
0.66 --undefined-- 54.435
0.67 --undefined-- 57.800
0.68 --undefined-- 67.374
0.69 --undefined-- 73.179
0.70 --undefined-- 75.900
0.71 169.280 76.713
0.72 166.870 76.348
0.73 166.772 75.005
0.74 169.916 73.784
0.75 176.801 73.789
0.76 178.956 74.143
0.77 180.620 74.349
0.78 181.516 74.379
0.79 179.370 74.420
0.80 178.480 74.673
0.81 175.506 75.110
0.82 170.379 75.778
0.83 164.798 76.552
0.84 159.532 77.095
0.85 154.502 76.983
0.86 151.175 75.595
0.87 145.661 72.328
0.88 128.184 67.349
0.89 --undefined-- 61.700
0.90 --undefined-- 56.078
0.91 --undefined-- 50.177
0.92 --undefined-- 48.010
0.93 --undefined-- 55.110
0.94 --undefined-- 61.120
0.95 --undefined-- 66.373
0.96 154.472 70.204
0.97 148.171 72.043
0.98 142.552 72.638
0.99 139.096 72.992
1.00 136.212 73.289
1.01 134.408 73.377
1.02 133.690 73.368
1.03 134.056 73.492
1.04 134.795 73.706
1.05 134.977 73.763
1.06 134.893 73.496
1.07 135.201 72.547
1.08 135.666 70.234
1.09 125.124 66.103
1.10 119.522 60.856
1.11 113.076 56.335
1.12 --undefined-- 52.169
1.13 --undefined-- 48.045
1.14 --undefined-- 51.925
1.15 --undefined-- 59.128
1.16 --undefined-- 65.115
1.17 152.580 69.152
1.18 141.045 71.213
1.19 136.642 72.012
1.20 134.112 72.301
1.21 133.667 72.345
1.22 132.682 72.422
1.23 132.759 72.769
1.24 133.126 73.209
1.25 133.286 73.465
1.26 133.616 73.517
1.27 134.092 73.479
1.28 134.920 73.347
1.29 135.988 72.689
1.30 136.316 71.142
1.31 137.753 69.195
1.32 --undefined-- 67.582
1.33 --undefined-- 65.580
1.34 --undefined-- 62.206
1.35 --undefined-- 57.747
1.36 --undefined-- 54.020
1.37 --undefined-- 50.818
1.38 --undefined-- 46.807
1.39 --undefined-- 42.873
1.40 --undefined-- 41.424
1.41 --undefined-- 42.283
1.42 --undefined-- 42.698
1.43 --undefined-- 42.225
1.44 --undefined-- 41.221
1.45 --undefined-- 39.278
1.46 --undefined-- 37.060
1.47 --undefined-- 36.255
1.48 --undefined-- 36.415
1.49 --undefined-- 36.699
1.50 --undefined-- 36.555
1.51 --undefined-- 35.868
1.52 --undefined-- 36.546
1.53 --undefined-- 37.733
1.54 --undefined-- 38.392
1.55 --undefined-- 42.579
1.56 --undefined-- 52.241
1.57 172.112 59.511
1.58 152.500 64.427
1.59 143.573 68.008
1.60 144.246 70.444
1.61 142.964 71.822
1.62 146.557 72.792
1.63 149.348 73.693
1.64 146.946 74.282
1.65 145.679 74.676
1.66 142.813 74.595
1.67 141.721 74.254
1.68 141.712 74.543
1.69 142.947 75.443
1.70 143.966 75.953
1.71 145.285 75.678
1.72 145.559 75.433
1.73 146.217 75.617
1.74 146.083 75.322
1.75 143.687 73.376
1.76 140.579 69.110
1.77 143.309 63.695
1.78 148.165 62.790
1.79 144.042 64.527
1.80 155.240 65.925
1.81 154.443 65.330
1.82 152.203 63.177
1.83 163.789 66.024
1.84 173.364 70.603
1.85 163.005 73.166
1.86 155.146 74.273
1.87 152.597 74.656
1.88 149.704 74.626
1.89 147.837 74.271
1.90 147.302 73.906
1.91 146.650 74.033
1.92 145.449 74.385
1.93 144.540 74.311
1.94 140.796 73.811
1.95 139.866 73.173
1.96 141.781 72.530
1.97 142.743 72.135
1.98 142.762 71.896
1.99 143.005 71.645
2.00 145.566 71.766
2.01 146.872 72.480
2.02 150.751 73.462
2.03 148.868 74.160
2.04 147.062 74.567
2.05 145.440 74.758
2.06 145.098 74.462
2.07 145.586 73.830
2.08 142.734 73.491
2.09 143.684 73.378
2.10 145.090 73.080
2.11 144.213 72.655
2.12 144.879 71.789
2.13 143.664 69.846
2.14 138.555 66.155
2.15 --undefined-- 60.245
2.16 --undefined-- 52.733
2.17 --undefined-- 47.244
2.18 --undefined-- 45.284
2.19 --undefined-- 43.754
2.20 --undefined-- 42.703
2.21 --undefined-- 43.428
2.22 --undefined-- 46.516
2.23 --undefined-- 54.182
2.24 --undefined-- 62.543
2.25 --undefined-- 67.415
2.26 146.206 69.587
2.27 146.479 70.237
2.28 140.995 69.704
2.29 134.251 67.642
2.30 120.521 63.802
2.31 109.462 58.303
2.32 --undefined-- 51.570
2.33 --undefined-- 45.211
2.34 --undefined-- 42.703
2.35 --undefined-- 40.799
2.36 --undefined-- 38.014
2.37 --undefined-- 36.116
2.38 --undefined-- 36.662
2.39 --undefined-- 41.227
2.40 --undefined-- 46.990
2.41 --undefined-- 55.853
2.42 --undefined-- 63.760
2.43 --undefined-- 68.490
2.44 141.788 70.574
2.45 137.243 71.110
2.46 138.101 71.227
2.47 141.025 71.517
2.48 142.861 72.097
2.49 147.751 72.700
2.50 159.139 72.819
2.51 166.978 72.582
2.52 171.227 72.351
2.53 171.109 72.023
2.54 167.336 71.486
2.55 161.611 70.819
2.56 156.160 70.803
2.57 156.884 72.076
2.58 156.337 73.761
2.59 151.499 75.028
2.60 146.863 75.529
2.61 143.349 74.926
2.62 139.314 72.994
2.63 130.850 69.593
2.64 115.403 64.670
2.65 113.845 58.984
2.66 --undefined-- 53.430
2.67 --undefined-- 47.522
2.68 --undefined-- 44.600
2.69 --undefined-- 51.543
2.70 --undefined-- 58.683
2.71 167.107 64.674
2.72 164.444 68.642
2.73 138.173 70.596
2.74 130.107 71.313
2.75 127.188 71.571
2.76 124.875 71.714
2.77 123.569 71.686
2.78 123.330 71.647
2.79 123.736 71.744
2.80 123.737 71.766
2.81 124.489 71.597
2.82 125.265 71.297
2.83 125.528 70.786
2.84 124.652 69.729
2.85 121.919 67.689
2.86 116.787 64.202
2.87 109.739 59.074
2.88 --undefined-- 52.954
2.89 --undefined-- 47.752
2.90 --undefined-- 47.440
2.91 --undefined-- 54.246
2.92 --undefined-- 60.538
2.93 --undefined-- 65.066
2.94 141.888 68.025
2.95 131.440 69.876
2.96 128.259 71.039
2.97 126.197 71.521
2.98 126.229 71.656
2.99 127.166 71.874
3.00 127.558 71.841
3.01 127.547 71.333
3.02 128.311 70.684
3.03 129.409 70.346
3.04 129.514 70.260
3.05 129.850 70.046
3.06 130.350 69.453
3.07 130.270 68.215
3.08 130.846 66.448
3.09 --undefined-- 64.696
3.10 --undefined-- 62.773
3.11 --undefined-- 59.541
3.12 --undefined-- 54.505
3.13 --undefined-- 48.658
3.14 --undefined-- 42.692
3.15 --undefined-- 38.998
3.16 --undefined-- 37.187
3.17 --undefined-- 35.723
3.18 --undefined-- 34.381
3.19 --undefined-- 33.711
3.20 --undefined-- 34.364
3.21 --undefined-- 35.688
3.22 --undefined-- 36.027
3.23 --undefined-- 35.304
3.24 --undefined-- 35.939
3.25 --undefined-- 37.553
3.26 --undefined-- 38.923
3.27 --undefined-- 39.483
3.28 --undefined-- 39.160
3.29 --undefined-- 38.920
3.30 --undefined-- 39.552
3.31 --undefined-- 40.984
3.32 --undefined-- 42.373
3.33 --undefined-- 43.280
3.34 --undefined-- 43.464
3.35 --undefined-- 43.010
3.36 --undefined-- 42.690
3.37 --undefined-- 44.283
3.38 --undefined-- 48.512
3.39 --undefined-- 53.291
3.40 --undefined-- 56.797
3.41 --undefined-- 58.389
3.42 --undefined-- 58.218
3.43 --undefined-- 57.093
3.44 --undefined-- 56.177
3.45 --undefined-- 55.613
3.46 --undefined-- 59.066
3.47 151.242 64.158
3.48 144.473 67.282
3.49 138.602 68.956
3.50 137.695 69.901
3.51 137.077 70.297
3.52 135.102 70.421
3.53 133.135 70.710
3.54 132.619 71.264
3.55 132.834 71.661
3.56 133.468 71.729
3.57 134.874 71.693
3.58 136.751 71.599
3.59 137.899 71.635
3.60 138.453 72.010
3.61 138.659 72.533
3.62 137.370 72.947
3.63 136.352 72.868
3.64 135.438 72.002
3.65 125.959 70.839
3.66 129.008 70.264
3.67 129.173 69.860
3.68 130.918 69.484
3.69 134.928 70.051
3.70 141.783 71.878
3.71 141.207 73.203
3.72 136.092 73.354
3.73 135.698 73.365
3.74 135.158 73.631
3.75 134.457 73.560
3.76 136.944 73.064
3.77 135.738 72.218
3.78 131.761 70.461
3.79 122.476 67.111
3.80 117.877 61.706
3.81 --undefined-- 54.284
3.82 --undefined-- 47.898
3.83 --undefined-- 45.246
3.84 --undefined-- 43.753
3.85 --undefined-- 44.085
3.86 --undefined-- 45.939
3.87 --undefined-- 48.257
3.88 --undefined-- 51.514
3.89 --undefined-- 58.938
3.90 161.632 65.051
3.91 151.485 68.743
3.92 146.635 70.961
3.93 143.665 72.374
3.94 141.902 73.229
3.95 141.193 73.412
3.96 140.607 72.369
3.97 137.632 69.401
3.98 --undefined-- 64.205
3.99 --undefined-- 57.637
4.00 --undefined-- 56.753
4.01 --undefined-- 61.888
4.02 --undefined-- 67.899
4.03 --undefined-- 73.360
4.04 155.686 76.597
4.05 149.905 78.046
4.06 141.989 78.627
4.07 140.301 79.065
4.08 140.573 79.086
4.09 139.910 78.339
4.10 137.965 76.808
4.11 135.149 74.550
4.12 132.612 71.156
4.13 119.708 66.148
4.14 116.823 59.510
4.15 --undefined-- 53.043
4.16 --undefined-- 51.856
4.17 --undefined-- 57.641
4.18 --undefined-- 63.023
4.19 134.322 67.122
4.20 132.825 69.361
4.21 125.930 70.094
4.22 122.137 69.869
4.23 117.760 68.703
4.24 109.679 67.882
4.25 116.778 68.878
4.26 123.692 70.114
4.27 126.119 70.845
4.28 127.323 71.294
4.29 128.915 71.625
4.30 130.208 71.870
4.31 132.615 71.904
4.32 135.274 71.250
4.33 134.449 69.175
4.34 128.915 64.985
4.35 109.871 58.145
4.36 --undefined-- 49.941
4.37 --undefined-- 44.388
4.38 --undefined-- 53.270
4.39 --undefined-- 63.435
4.40 --undefined-- 69.950
4.41 --undefined-- 73.449
4.42 150.887 74.911
4.43 147.176 75.388
4.44 145.746 75.463
4.45 145.353 75.491
4.46 145.697 75.567
4.47 145.717 75.575
4.48 144.864 75.290
4.49 143.892 74.635
4.50 144.204 74.085
4.51 146.371 73.883
4.52 146.436 73.717
4.53 144.588 73.605
4.54 141.524 73.197
4.55 139.664 71.756
4.56 133.682 68.615
4.57 114.738 63.951
4.58 110.466 59.072
4.59 128.353 56.577
4.60 158.992 61.454
4.61 164.515 67.139
4.62 144.545 70.878
4.63 137.740 72.722
4.64 132.665 73.383
4.65 130.004 73.671
4.66 128.849 73.885
4.67 128.164 73.933
4.68 128.441 73.816
4.69 129.043 73.697
4.70 129.142 73.596
4.71 129.907 73.205
4.72 130.829 72.211
4.73 132.352 70.666
4.74 135.282 68.778
4.75 135.558 66.301
4.76 --undefined-- 63.153
4.77 --undefined-- 59.763
4.78 --undefined-- 55.408
4.79 --undefined-- 49.031
4.80 --undefined-- 41.311
4.81 --undefined-- 37.354
4.82 --undefined-- 36.734
4.83 --undefined-- 36.472
4.84 --undefined-- 36.115
4.85 --undefined-- 36.605
4.86 --undefined-- 37.647
4.87 --undefined-- 36.753
4.88 --undefined-- 34.046
4.89 --undefined-- 32.121
4.90 --undefined-- 34.307
4.91 --undefined-- 36.518
4.92 --undefined-- 36.715
4.93 --undefined-- 36.231
4.94 --undefined-- 35.906
4.95 --undefined-- 35.216
4.96 --undefined-- 36.303
4.97 --undefined-- 39.140
4.98 --undefined-- 41.481
4.99 --undefined-- 42.715
5.00 --undefined-- 42.679
5.01 --undefined-- 41.936
5.02 --undefined-- 40.988
5.03 --undefined-- 40.995
5.04 --undefined-- 41.784
5.05 --undefined-- 41.774
5.06 --undefined-- 41.312
5.07 --undefined-- 40.773
5.08 --undefined-- 39.819
5.09 --undefined-- 38.094
5.10 --undefined-- 36.614
5.11 --undefined-- 36.767
5.12 --undefined-- 37.284
5.13 --undefined-- 37.479
5.14 --undefined-- 37.590
5.15 --undefined-- 37.581
5.16 --undefined-- 37.513
5.17 --undefined-- 37.404
5.18 --undefined-- 36.797
5.19 --undefined-- 35.324
5.20 --undefined-- 33.613
5.21 --undefined-- 33.305
5.22 --undefined-- 35.622
5.23 --undefined-- 38.976
5.24 --undefined-- 40.328
5.25 --undefined-- 38.860
5.26 --undefined-- 35.652
5.27 --undefined-- 46.450
5.28 --undefined-- 58.560
5.29 --undefined-- 66.004
5.30 166.400 70.352
5.31 169.437 73.038
5.32 164.805 74.690
5.33 166.771 75.766
5.34 168.762 76.404
5.35 169.661 76.308
5.36 169.168 75.397
5.37 166.413 74.355
5.38 171.113 74.083
5.39 169.315 74.505
5.40 166.790 74.867
5.41 163.055 74.668
5.42 156.916 73.381
5.43 147.757 70.174
5.44 142.316 64.684
5.45 --undefined-- 58.442
5.46 --undefined-- 53.565
5.47 --undefined-- 49.982
5.48 --undefined-- 50.544
5.49 --undefined-- 52.945
5.50 --undefined-- 55.151
5.51 --undefined-- 56.291
5.52 --undefined-- 55.624
5.53 --undefined-- 56.520
5.54 --undefined-- 62.331
5.55 134.603 66.379
5.56 126.516 68.274
5.57 123.435 68.914
5.58 124.715 69.060
5.59 125.595 69.042
5.60 129.051 69.133
5.61 130.725 69.479
5.62 135.212 70.195
5.63 137.040 71.166
5.64 140.829 72.140
5.65 146.281 72.920
5.66 151.205 73.143
5.67 157.005 72.601
5.68 164.222 71.708
5.69 166.779 70.875
5.70 168.161 69.930
5.71 164.363 69.301
5.72 159.705 68.688
5.73 158.210 66.913
5.74 160.956 63.512
5.75 154.807 58.520
5.76 --undefined-- 51.891
5.77 --undefined-- 45.612
5.78 --undefined-- 42.691
5.79 --undefined-- 39.575
5.80 --undefined-- 37.844
5.81 --undefined-- 38.091
5.82 --undefined-- 38.999
5.83 --undefined-- 39.783
5.84 --undefined-- 39.952
5.85 --undefined-- 39.142
5.86 --undefined-- 37.783
5.87 --undefined-- 36.957
5.88 --undefined-- 36.689
5.89 --undefined-- 37.015
5.90 --undefined-- 36.623
5.91 --undefined-- 35.206
5.92 --undefined-- 35.047
5.93 --undefined-- 36.010
5.94 --undefined-- 36.839
5.95 --undefined-- 38.217
5.96 --undefined-- 38.569
5.97 --undefined-- 37.813
5.98 --undefined-- 37.158
5.99 --undefined-- 36.281
6.00 --undefined-- 35.822
6.01 --undefined-- 37.069
6.02 --undefined-- 45.340
6.03 --undefined-- 57.314
6.04 --undefined-- 64.129
6.05 --undefined-- 66.947
6.06 --undefined-- 69.259
6.07 198.034 72.952
6.08 195.483 75.589
6.09 191.122 76.820
6.10 190.173 77.299
6.11 190.633 77.077
6.12 191.575 76.013
6.13 193.130 74.696
6.14 192.648 74.489
6.15 192.968 75.368
6.16 190.645 75.956
6.17 188.949 76.140
6.18 187.221 76.098
6.19 186.064 75.824
6.20 184.832 75.417
6.21 183.867 75.037
6.22 182.780 74.691
6.23 181.195 74.173
6.24 178.053 72.879
6.25 171.443 70.061
6.26 160.354 65.307
6.27 163.732 --undefined--
6.28 --undefined-- --undefined--
6.29 --undefined-- --undefined--
6.30 --undefined-- --undefined--
