Time Pitch Intensity
0.01 --undefined-- --undefined--
0.02 201.466 --undefined--
0.03 202.604 --undefined--
0.04 202.721 --undefined--
0.05 202.363 76.196
0.06 196.971 76.626
0.07 191.736 76.994
0.08 188.977 77.529
0.09 184.476 77.773
0.10 174.083 77.230
0.11 162.528 75.691
0.12 151.816 73.492
0.13 146.372 71.848
0.14 150.408 71.726
0.15 160.622 72.752
0.16 163.766 74.222
0.17 158.986 75.481
0.18 150.084 76.199
0.19 140.172 76.369
0.20 136.648 76.129
0.21 134.350 75.520
0.22 132.632 74.651
0.23 132.304 73.785
0.24 131.700 73.185
0.25 130.101 72.933
0.26 126.102 72.720
0.27 130.567 72.645
0.28 128.760 72.699
0.29 133.084 72.322
0.30 132.308 71.600
0.31 132.023 70.906
0.32 131.681 70.126
0.33 130.622 68.960
0.34 --undefined-- 67.076
0.35 144.505 65.076
0.36 145.680 63.130
0.37 148.256 60.063
0.38 --undefined-- 55.179
0.39 --undefined-- 49.708
0.40 --undefined-- 44.721
0.41 --undefined-- 39.432
0.42 --undefined-- 37.185
0.43 --undefined-- 38.409
0.44 --undefined-- 38.234
0.45 --undefined-- 36.218
0.46 --undefined-- 33.928
0.47 --undefined-- 32.503
0.48 --undefined-- 33.128
0.49 --undefined-- 34.573
0.50 --undefined-- 35.686
0.51 --undefined-- 35.916
0.52 --undefined-- 36.762
0.53 --undefined-- 37.665
0.54 --undefined-- 36.552
0.55 --undefined-- 35.060
0.56 --undefined-- 35.615
0.57 --undefined-- 37.425
0.58 --undefined-- 45.335
0.59 --undefined-- 53.397
0.60 --undefined-- 58.673
0.61 --undefined-- 63.748
0.62 229.356 69.249
0.63 213.195 73.067
0.64 209.836 74.970
0.65 210.066 75.669
0.66 212.445 75.769
0.67 216.173 75.415
0.68 218.573 74.604
0.69 217.393 74.053
0.70 216.059 74.338
0.71 216.393 74.612
0.72 217.363 74.621
0.73 217.890 74.523
0.74 217.789 74.401
0.75 217.543 74.334
0.76 217.190 74.392
0.77 215.748 74.459
0.78 213.535 74.231
0.79 209.557 73.241
0.80 203.463 70.873
0.81 192.575 66.521
0.82 171.700 59.942
0.83 --undefined-- 52.833
0.84 --undefined-- 55.147
0.85 --undefined-- 61.853
0.86 --undefined-- 67.708
0.87 199.831 72.056
0.88 180.023 74.669
0.89 169.271 76.332
0.90 162.584 77.064
0.91 157.950 76.984
0.92 155.771 76.993
0.93 154.214 77.334
0.94 152.096 77.583
0.95 151.187 77.294
0.96 153.263 76.289
0.97 153.644 75.337
0.98 152.735 75.217
0.99 151.413 75.527
1.00 150.836 75.745
1.01 151.289 75.595
1.02 152.329 74.920
1.03 155.217 73.745
1.04 156.420 72.396
1.05 156.213 71.157
1.06 156.854 69.840
1.07 157.227 68.062
1.08 153.059 65.681
1.09 147.468 62.977
1.10 --undefined-- 59.687
1.11 --undefined-- 54.481
1.12 --undefined-- 47.141
1.13 --undefined-- 42.077
1.14 --undefined-- 40.743
1.15 --undefined-- 40.164
1.16 --undefined-- 42.951
1.17 --undefined-- 50.773
1.18 147.876 56.726
1.19 161.546 60.272
1.20 152.292 62.339
1.21 147.492 63.868
1.22 142.702 65.035
1.23 137.226 65.784
1.24 134.297 66.295
1.25 133.647 67.029
1.26 132.978 68.579
1.27 134.907 71.031
1.28 138.465 73.600
1.29 143.722 75.445
1.30 140.422 76.193
1.31 140.591 75.866
1.32 137.006 74.643
1.33 130.462 73.487
1.34 138.410 73.577
1.35 138.789 74.083
1.36 137.132 74.295
1.37 135.743 74.137
1.38 135.383 73.655
1.39 127.770 73.016
1.40 120.602 72.273
1.41 114.617 71.045
1.42 102.911 69.255
1.43 100.050 67.890
1.44 103.412 67.984
1.45 120.056 68.763
1.46 132.111 69.118
1.47 128.894 68.756
1.48 120.509 68.000
1.49 118.327 67.485
1.50 116.862 67.355
1.51 116.662 67.108
1.52 119.550 66.714
1.53 119.714 66.608
1.54 118.888 66.871
1.55 119.402 66.928
1.56 118.825 66.130
1.57 115.302 64.063
1.58 111.331 61.549
1.59 128.907 64.013
1.60 145.896 69.339
1.61 147.079 73.151
1.62 148.324 75.311
1.63 147.524 75.983
1.64 143.223 75.464
1.65 139.837 74.148
1.66 138.327 71.713
1.67 124.634 67.526
1.68 --undefined-- 61.389
1.69 --undefined-- 55.461
1.70 --undefined-- 54.190
1.71 --undefined-- 54.607
1.72 --undefined-- 54.793
1.73 --undefined-- 59.161
1.74 --undefined-- 66.793
1.75 --undefined-- 71.914
1.76 --undefined-- 74.687
1.77 145.805 76.105
1.78 142.244 76.642
1.79 140.946 76.306
1.80 141.592 75.257
1.81 141.770 73.510
1.82 --undefined-- 71.421
1.83 --undefined-- 69.359
1.84 --undefined-- 65.595
1.85 --undefined-- 59.914
1.86 --undefined-- 58.003
1.87 --undefined-- 59.983
1.88 --undefined-- 62.810
1.89 75.978 65.371
1.90 146.968 67.398
1.91 142.567 69.230
1.92 138.039 71.061
1.93 132.109 72.456
1.94 131.512 73.354
1.95 132.000 73.830
1.96 132.964 73.818
1.97 132.801 73.455
1.98 131.788 73.043
1.99 130.331 72.684
2.00 129.620 72.378
2.01 128.901 72.284
2.02 128.804 72.195
2.03 129.830 72.019
2.04 127.756 72.126
2.05 132.803 72.124
2.06 132.499 71.677
2.07 133.075 71.070
2.08 132.921 70.267
2.09 132.174 68.923
2.10 129.375 66.868
2.11 --undefined-- 64.257
2.12 --undefined-- 61.541
2.13 --undefined-- 58.975
2.14 --undefined-- 57.452
2.15 --undefined-- 55.686
2.16 --undefined-- 51.318
2.17 --undefined-- 43.889
2.18 --undefined-- 37.213
2.19 --undefined-- 36.776
2.20 --undefined-- 36.172
2.21 --undefined-- 34.305
2.22 --undefined-- 32.931
2.23 --undefined-- 34.658
2.24 --undefined-- 36.849
2.25 --undefined-- 37.356
2.26 --undefined-- 37.190
2.27 --undefined-- 36.822
2.28 --undefined-- 36.045
2.29 --undefined-- 36.002
2.30 --undefined-- 36.082
2.31 --undefined-- 36.023
2.32 --undefined-- 37.238
2.33 --undefined-- 39.469
2.34 --undefined-- 40.800
2.35 --undefined-- 40.649
2.36 --undefined-- 40.027
2.37 --undefined-- 40.441
2.38 --undefined-- 41.024
2.39 --undefined-- 41.349
2.40 --undefined-- 41.125
2.41 --undefined-- 39.499
2.42 --undefined-- 37.961
2.43 --undefined-- 39.005
2.44 --undefined-- 39.911
2.45 --undefined-- 39.381
2.46 --undefined-- 39.981
2.47 --undefined-- 41.626
2.48 --undefined-- 42.598
2.49 --undefined-- 42.057
2.50 --undefined-- 39.544
2.51 --undefined-- 36.800
2.52 --undefined-- 36.659
2.53 --undefined-- 48.013
2.54 --undefined-- 61.184
2.55 --undefined-- 69.554
2.56 180.204 74.214
2.57 190.561 76.395
2.58 194.796 77.610
2.59 197.979 78.941
2.60 198.906 80.244
2.61 199.217 80.917
2.62 201.618 80.393
2.63 209.348 78.450
2.64 217.991 75.962
2.65 221.009 74.632
2.66 222.412 74.306
2.67 222.529 73.946
2.68 221.734 73.235
2.69 218.752 71.885
2.70 211.684 69.105
2.71 180.041 64.522
2.72 176.564 60.142
2.73 188.459 57.131
2.74 --undefined-- 52.679
2.75 --undefined-- 50.807
2.76 --undefined-- 56.508
2.77 --undefined-- 59.636
2.78 --undefined-- 60.196
2.79 --undefined-- 59.958
2.80 --undefined-- 61.430
2.81 --undefined-- 66.354
2.82 --undefined-- 71.707
2.83 --undefined-- 75.458
2.84 --undefined-- 77.052
2.85 --undefined-- 76.233
2.86 --undefined-- 74.850
2.87 226.631 76.174
2.88 210.999 78.302
2.89 201.646 79.253
2.90 196.276 78.532
2.91 193.452 75.724
2.92 180.875 70.408
2.93 149.543 63.718
2.94 --undefined-- 61.153
2.95 --undefined-- 66.776
2.96 --undefined-- 72.062
2.97 --undefined-- 74.708
2.98 193.750 75.534
2.99 192.188 75.638
3.00 191.982 75.703
3.01 190.528 75.882
3.02 188.684 75.919
3.03 188.454 75.489
3.04 188.670 74.283
3.05 183.937 71.743
3.06 158.034 67.376
3.07 150.267 61.181
3.08 --undefined-- 53.889
3.09 --undefined-- 49.914
3.10 --undefined-- 49.763
3.11 --undefined-- 49.499
3.12 --undefined-- 48.603
3.13 --undefined-- 50.704
3.14 --undefined-- 56.060
3.15 --undefined-- 62.125
3.16 --undefined-- 67.531
3.17 203.940 70.977
3.18 192.321 72.885
3.19 188.320 73.962
3.20 186.982 74.542
3.21 186.737 74.802
3.22 186.939 74.838
3.23 187.822 74.704
3.24 188.822 74.397
3.25 189.541 73.926
3.26 189.977 73.442
3.27 189.805 73.090
3.28 189.714 72.868
3.29 189.845 72.787
3.30 189.915 72.776
3.31 188.569 72.658
3.32 184.866 72.350
3.33 180.950 71.646
3.34 177.024 70.122
3.35 176.692 67.354
3.36 171.767 63.032
3.37 174.511 57.667
3.38 --undefined-- 52.318
3.39 --undefined-- 46.405
3.40 --undefined-- 40.961
3.41 --undefined-- 39.577
3.42 --undefined-- 39.106
3.43 --undefined-- 38.026
3.44 --undefined-- 37.935
3.45 --undefined-- 38.449
3.46 --undefined-- 38.528
3.47 --undefined-- 37.968
3.48 --undefined-- 37.500
3.49 --undefined-- 37.166
3.50 --undefined-- 36.382
3.51 --undefined-- 36.950
3.52 --undefined-- 47.028
3.53 --undefined-- 55.786
3.54 --undefined-- 60.626
3.55 --undefined-- 63.249
3.56 86.836 65.370
3.57 88.671 67.208
3.58 90.227 68.609
3.59 91.630 70.216
3.60 185.423 72.453
3.61 186.640 74.674
3.62 186.141 76.113
3.63 183.618 76.591
3.64 181.050 76.444
3.65 179.632 76.039
3.66 179.760 75.379
3.67 181.726 74.453
3.68 185.302 73.524
3.69 188.262 72.920
3.70 189.874 72.506
3.71 189.555 71.388
3.72 182.268 68.615
3.73 163.143 64.241
3.74 158.871 59.562
3.75 --undefined-- 54.516
3.76 --undefined-- 48.570
3.77 --undefined-- 43.738
3.78 --undefined-- 42.075
3.79 --undefined-- 44.068
3.80 --undefined-- 46.633
3.81 --undefined-- 47.895
3.82 --undefined-- 48.312
3.83 --undefined-- 48.977
3.84 --undefined-- 56.131
3.85 233.574 65.515
3.86 216.536 71.447
3.87 205.815 74.060
3.88 186.650 74.107
3.89 179.161 73.135
3.90 177.559 72.513
3.91 175.647 72.054
3.92 163.479 71.413
3.93 163.229 70.970
3.94 171.762 71.212
3.95 177.485 71.693
3.96 176.181 71.850
3.97 173.213 71.534
3.98 167.979 70.848
3.99 164.833 70.087
4.00 160.572 69.722
4.01 156.394 70.113
4.02 152.020 71.137
4.03 151.409 72.210
4.04 138.182 72.316
4.05 127.559 71.281
4.06 118.997 69.979
4.07 115.090 69.107
4.08 112.315 68.481
4.09 111.970 68.019
4.10 111.974 67.822
4.11 113.570 67.999
4.12 116.162 68.348
4.13 117.805 68.576
4.14 118.715 68.486
4.15 121.806 68.387
4.16 132.164 69.221
4.17 146.724 71.038
4.18 154.957 72.672
4.19 161.126 73.192
4.20 167.065 73.015
4.21 170.598 72.773
4.22 174.398 71.944
4.23 177.303 69.501
4.24 159.773 64.965
4.25 155.674 58.968
4.26 --undefined-- 52.514
4.27 --undefined-- 45.998
4.28 --undefined-- 48.576
4.29 --undefined-- 56.162
4.30 --undefined-- 61.242
4.31 --undefined-- 66.442
4.32 207.020 70.593
4.33 189.287 72.865
4.34 178.215 74.409
4.35 176.458 75.920
4.36 176.655 76.798
4.37 176.598 77.047
4.38 177.371 76.973
4.39 178.018 76.654
4.40 178.345 76.104
4.41 177.880 75.348
4.42 175.453 74.486
4.43 176.589 73.716
4.44 177.275 73.068
4.45 178.993 72.469
4.46 178.064 71.487
4.47 170.900 69.356
4.48 159.506 65.551
4.49 151.229 59.947
4.50 --undefined-- 54.713
4.51 --undefined-- 58.416
4.52 --undefined-- 63.494
4.53 --undefined-- 68.215
4.54 197.367 72.224
4.55 183.077 74.535
4.56 175.142 75.603
4.57 172.424 75.855
4.58 171.924 75.594
4.59 172.520 75.079
4.60 173.639 74.357
4.61 175.643 73.754
4.62 177.457 73.533
4.63 178.450 73.525
4.64 178.622 73.571
4.65 178.470 73.673
4.66 177.503 73.758
4.67 173.522 73.306
4.68 168.168 71.407
4.69 159.743 67.325
4.70 137.000 60.832
4.71 --undefined-- 53.318
4.72 --undefined-- 47.047
4.73 --undefined-- 43.583
4.74 --undefined-- 42.955
4.75 --undefined-- 43.519
4.76 --undefined-- 45.929
4.77 --undefined-- 52.921
4.78 --undefined-- 61.765
4.79 204.395 67.492
4.80 191.142 70.652
4.81 182.255 72.349
4.82 179.383 73.131
4.83 178.348 73.488
4.84 177.971 73.718
4.85 177.491 73.898
4.86 177.003 73.956
4.87 177.558 73.797
4.88 178.827 73.454
4.89 179.630 73.040
4.90 179.431 72.616
4.91 178.200 72.170
4.92 176.996 71.750
4.93 175.811 71.370
4.94 173.973 70.965
4.95 171.016 70.238
4.96 168.468 68.632
4.97 165.327 65.774
4.98 119.971 62.639
4.99 131.856 60.950
5.00 134.320 59.000
5.01 131.121 56.200
5.02 --undefined-- 54.042
5.03 --undefined-- 50.754
5.04 --undefined-- 45.001
5.05 --undefined-- 39.030
5.06 --undefined-- 36.244
5.07 --undefined-- 35.443
5.08 --undefined-- 34.872
5.09 --undefined-- 35.482
5.10 --undefined-- 36.445
5.11 --undefined-- 35.720
5.12 --undefined-- 34.625
5.13 --undefined-- 35.840
5.14 --undefined-- 37.128
5.15 --undefined-- 37.013
5.16 --undefined-- 38.348
5.17 --undefined-- 48.309
5.18 --undefined-- 57.296
5.19 150.281 62.805
5.20 138.860 65.943
5.21 138.204 67.731
5.22 134.784 68.566
5.23 133.508 69.228
5.24 133.145 70.411
5.25 131.308 71.382
5.26 130.705 71.712
5.27 129.671 71.565
5.28 129.783 71.328
5.29 130.907 71.260
5.30 132.236 71.339
5.31 134.210 71.500
5.32 135.804 71.816
5.33 137.493 72.356
5.34 140.348 72.844
5.35 142.417 72.905
5.36 143.851 71.975
5.37 142.517 70.209
5.38 148.856 69.623
5.39 157.768 70.190
5.40 163.119 70.750
5.41 164.521 71.336
5.42 164.727 71.835
5.43 161.340 72.130
5.44 156.359 72.230
5.45 151.599 72.405
5.46 147.785 73.043
5.47 146.898 74.142
5.48 146.799 75.003
5.49 145.251 74.971
5.50 140.766 73.975
5.51 134.701 72.632
5.52 131.832 71.607
5.53 130.682 71.044
5.54 129.901 70.944
5.55 130.310 71.351
5.56 132.518 72.034
5.57 132.365 72.409
5.58 131.336 72.454
5.59 130.906 72.400
5.60 130.523 72.200
5.61 129.457 71.538
5.62 126.944 70.020
5.63 120.824 67.451
5.64 116.089 63.920
5.65 --undefined-- 59.916
5.66 --undefined-- 59.372
5.67 --undefined-- 62.865
5.68 --undefined-- 63.474
5.69 --undefined-- 60.602
5.70 --undefined-- 60.796
5.71 152.018 66.180
5.72 144.700 69.405
5.73 138.345 70.455
5.74 133.922 70.426
5.75 132.447 70.460
5.76 133.073 71.039
5.77 134.632 --undefined--
5.78 135.585 --undefined--
5.79 --undefined-- --undefined--
5.80 --undefined-- --undefined--
