Time Pitch Intensity
0.01 --undefined-- --undefined--
0.02 179.589 --undefined--
0.03 184.151 --undefined--
0.04 187.514 --undefined--
0.05 189.608 68.433
0.06 190.395 68.857
0.07 191.350 69.128
0.08 192.067 68.708
0.09 191.114 67.407
0.10 189.894 64.758
0.11 193.462 60.374
0.12 197.364 56.580
0.13 --undefined-- 56.539
0.14 --undefined-- 59.058
0.15 194.140 64.190
0.16 193.780 68.567
0.17 191.099 71.222
0.18 190.015 72.406
0.19 189.302 72.615
0.20 188.905 72.225
0.21 187.682 71.465
0.22 187.288 70.465
0.23 187.767 69.278
0.24 186.035 68.288
0.25 189.496 68.010
0.26 190.356 67.868
0.27 191.995 67.489
0.28 193.877 67.025
0.29 196.013 66.339
0.30 195.996 65.018
0.31 192.145 62.936
0.32 190.091 60.502
0.33 195.219 57.734
0.34 193.154 54.183
0.35 --undefined-- 52.116
0.36 --undefined-- 53.624
0.37 --undefined-- 60.305
0.38 --undefined-- 66.297
0.39 241.976 69.281
0.40 236.185 70.058
0.41 233.679 70.012
0.42 233.094 69.914
0.43 234.207 69.701
0.44 236.233 69.397
0.45 237.823 69.110
0.46 239.143 68.791
0.47 240.306 68.478
0.48 240.714 68.175
0.49 241.176 67.633
0.50 240.987 66.678
0.51 240.088 65.575
0.52 240.726 65.230
0.53 239.516 65.398
0.54 238.327 65.490
0.55 236.393 65.418
0.56 233.163 65.009
0.57 230.497 64.003
0.58 227.264 61.591
0.59 232.648 57.606
0.60 --undefined-- 54.885
0.61 --undefined-- 54.647
0.62 --undefined-- 57.152
0.63 --undefined-- 62.088
0.64 --undefined-- 65.493
0.65 --undefined-- 66.857
0.66 162.549 66.745
0.67 157.715 66.024
0.68 156.073 65.806
0.69 157.725 65.932
0.70 160.347 66.148
0.71 163.791 66.830
0.72 166.921 67.922
0.73 170.257 68.250
0.74 175.568 66.944
0.75 177.425 63.778
0.76 166.980 59.702
0.77 177.633 57.380
0.78 179.959 58.462
0.79 250.682 63.227
0.80 236.441 67.837
0.81 233.384 70.379
0.82 229.966 70.741
0.83 229.986 69.252
0.84 229.581 65.935
0.85 229.722 61.006
0.86 231.936 57.931
0.87 231.034 57.089
0.88 232.185 54.458
0.89 --undefined-- 51.797
0.90 --undefined-- 51.810
0.91 --undefined-- 52.099
0.92 --undefined-- 54.694
0.93 --undefined-- 56.452
0.94 --undefined-- 54.804
0.95 --undefined-- 51.564
0.96 --undefined-- 54.439
0.97 --undefined-- 58.680
0.98 --undefined-- 61.504
0.99 --undefined-- 62.873
1.00 --undefined-- 62.990
1.01 176.386 63.387
1.02 176.957 64.469
1.03 173.677 64.972
1.04 169.979 64.906
1.05 163.506 64.929
1.06 163.178 65.092
1.07 163.403 65.322
1.08 165.352 65.824
1.09 167.271 66.825
1.10 176.021 67.978
1.11 178.199 69.317
1.12 187.916 71.054
1.13 194.672 71.941
1.14 206.630 71.326
1.15 210.468 70.161
1.16 211.963 69.670
1.17 210.143 69.120
1.18 199.401 67.771
1.19 186.382 65.870
1.20 185.609 63.712
1.21 198.291 63.440
1.22 211.197 64.525
1.23 211.986 63.293
1.24 --undefined-- 59.012
1.25 --undefined-- 53.624
1.26 225.961 54.819
1.27 229.371 59.402
1.28 269.669 61.511
1.29 290.248 60.654
1.30 289.183 56.974
1.31 --undefined-- 51.855
1.32 --undefined-- 50.889
1.33 --undefined-- 55.208
1.34 --undefined-- 58.914
1.35 --undefined-- 59.869
1.36 --undefined-- 58.381
1.37 --undefined-- 56.622
1.38 --undefined-- 55.744
1.39 --undefined-- 54.038
1.40 --undefined-- 52.976
1.41 --undefined-- 54.011
1.42 --undefined-- 55.420
1.43 288.700 55.824
1.44 298.120 55.592
1.45 --undefined-- 55.400
1.46 --undefined-- 53.675
1.47 --undefined-- 51.140
1.48 --undefined-- 52.011
1.49 --undefined-- 55.243
1.50 --undefined-- 59.752
1.51 --undefined-- 62.109
1.52 241.742 62.182
1.53 188.710 63.637
1.54 186.446 66.343
1.55 183.664 68.114
1.56 182.041 69.215
1.57 181.401 69.793
1.58 181.102 70.065
1.59 181.302 70.196
1.60 180.623 69.687
1.61 180.425 67.714
1.62 179.832 63.706
1.63 180.876 58.142
1.64 180.778 54.200
1.65 182.734 55.823
1.66 250.318 58.525
1.67 250.791 59.452
1.68 195.081 60.966
1.69 184.465 63.520
1.70 180.434 65.365
1.71 178.905 66.776
1.72 180.045 68.076
1.73 182.637 69.064
1.74 184.768 70.094
1.75 187.493 71.128
1.76 193.527 71.260
1.77 195.219 70.117
1.78 206.336 68.491
1.79 215.393 68.179
1.80 219.926 68.757
1.81 222.843 69.006
1.82 224.735 69.026
1.83 226.387 69.076
1.84 227.188 69.054
1.85 227.011 68.858
1.86 226.071 67.699
1.87 224.001 64.628
1.88 --undefined-- 62.109
1.89 --undefined-- 64.514
1.90 275.696 67.475
1.91 254.310 70.117
1.92 250.661 71.831
1.93 249.076 72.232
1.94 248.101 71.413
1.95 248.156 69.960
1.96 247.530 68.473
1.97 244.975 67.277
1.98 240.366 66.325
1.99 233.338 64.682
2.00 216.404 62.062
2.01 195.388 61.046
2.02 194.048 63.277
2.03 188.988 66.371
2.04 187.555 68.664
2.05 186.724 69.369
2.06 191.291 68.633
2.07 194.677 67.356
2.08 203.221 66.405
2.09 209.305 66.265
2.10 212.008 66.722
2.11 213.817 67.109
2.12 215.190 67.270
2.13 216.457 66.898
2.14 214.945 65.107
2.15 214.123 61.212
2.16 214.909 56.431
2.17 --undefined-- 57.979
2.18 --undefined-- 63.165
2.19 --undefined-- 67.395
2.20 184.680 70.307
2.21 174.820 72.200
2.22 166.997 73.402
2.23 163.915 73.855
2.24 164.244 73.519
2.25 166.796 72.963
2.26 170.419 72.544
2.27 173.881 71.813
2.28 177.371 70.447
2.29 182.124 68.903
2.30 188.248 68.325
2.31 197.713 67.924
2.32 203.873 67.115
2.33 211.675 66.917
2.34 217.932 67.013
2.35 222.219 66.871
2.36 226.248 66.798
2.37 234.470 67.116
2.38 249.595 68.416
2.39 253.613 70.356
2.40 257.582 72.036
2.41 259.550 73.207
2.42 260.880 73.772
2.43 261.444 73.831
2.44 260.038 73.793
2.45 255.549 73.681
2.46 248.341 73.154
2.47 238.211 72.645
2.48 --undefined-- 73.003
2.49 --undefined-- 73.481
2.50 --undefined-- 72.984
2.51 --undefined-- 71.309
2.52 --undefined-- 68.531
2.53 --undefined-- 64.956
2.54 --undefined-- 61.210
2.55 --undefined-- 58.059
2.56 --undefined-- 57.736
2.57 --undefined-- 58.248
2.58 --undefined-- 58.375
2.59 --undefined-- 57.582
2.60 --undefined-- 57.008
2.61 --undefined-- 58.438
2.62 --undefined-- 58.870
2.63 --undefined-- 57.472
2.64 --undefined-- 54.739
2.65 --undefined-- 51.905
2.66 --undefined-- 50.964
2.67 --undefined-- 51.846
2.68 --undefined-- 52.969
2.69 --undefined-- 54.042
2.70 --undefined-- 55.240
2.71 --undefined-- 56.024
2.72 --undefined-- 56.265
2.73 --undefined-- 55.636
2.74 285.595 56.783
2.75 274.852 60.161
2.76 289.895 61.316
2.77 287.457 59.517
2.78 281.769 55.188
2.79 --undefined-- 50.980
2.80 --undefined-- 52.332
2.81 --undefined-- 56.436
2.82 --undefined-- 58.544
2.83 --undefined-- 57.545
2.84 --undefined-- 54.928
2.85 --undefined-- 55.403
2.86 --undefined-- 58.058
2.87 250.423 62.249
2.88 264.825 66.546
2.89 272.023 69.468
2.90 266.359 70.827
2.91 265.490 71.217
2.92 271.301 71.631
2.93 274.575 72.325
2.94 278.446 72.571
2.95 287.151 72.225
2.96 290.738 71.914
2.97 292.579 71.911
2.98 293.256 72.035
2.99 292.395 72.095
3.00 291.190 72.110
3.01 287.897 72.104
3.02 283.193 71.596
3.03 276.963 69.845
3.04 271.262 66.337
3.05 268.574 61.774
3.06 271.066 59.125
3.07 --undefined-- 56.571
3.08 --undefined-- 51.712
3.09 --undefined-- 49.678
3.10 --undefined-- 55.597
3.11 --undefined-- 60.856
3.12 --undefined-- 63.552
3.13 --undefined-- 66.091
3.14 182.540 70.789
3.15 185.683 74.222
3.16 189.081 75.554
3.17 193.764 75.175
3.18 198.167 73.323
3.19 201.780 70.491
3.20 204.261 68.045
3.21 205.827 66.909
3.22 196.990 66.256
3.23 186.041 64.918
3.24 189.520 62.035
3.25 197.293 59.148
3.26 --undefined-- 60.442
3.27 --undefined-- 64.700
3.28 --undefined-- 69.044
3.29 --undefined-- 71.675
3.30 253.983 72.178
3.31 248.431 70.542
3.32 248.832 67.050
3.33 260.629 62.526
3.34 252.031 57.831
3.35 252.312 54.772
3.36 257.093 57.575
3.37 --undefined-- 60.870
3.38 --undefined-- 61.484
3.39 203.944 62.204
3.40 199.668 63.894
3.41 197.061 64.297
3.42 194.199 63.402
3.43 181.896 62.276
3.44 160.825 61.929
3.45 151.783 62.698
3.46 149.843 63.622
3.47 150.167 63.752
3.48 152.403 63.272
3.49 153.589 62.833
3.50 155.360 62.749
3.51 158.237 63.010
3.52 161.012 63.032
3.53 163.856 62.700
3.54 168.283 62.611
3.55 170.641 63.173
3.56 173.770 64.387
3.57 175.704 65.803
3.58 177.788 66.909
3.59 179.543 67.721
3.60 182.883 68.514
3.61 186.277 69.335
3.62 189.833 70.153
3.63 192.555 70.930
3.64 193.933 71.220
3.65 195.562 70.642
3.66 198.133 69.081
3.67 199.316 66.633
3.68 196.521 63.659
3.69 193.403 60.423
3.70 192.340 58.752
3.71 194.282 58.750
3.72 194.986 57.009
3.73 --undefined-- 54.116
3.74 --undefined-- 56.553
3.75 294.160 63.131
3.76 280.097 67.870
3.77 278.350 70.955
3.78 280.704 73.307
3.79 282.645 74.949
3.80 285.170 75.594
3.81 288.873 75.220
3.82 293.060 74.347
3.83 294.284 73.981
3.84 293.279 74.073
3.85 292.297 73.859
3.86 293.429 72.981
3.87 297.358 71.247
3.88 296.663 68.730
3.89 280.566 65.879
3.90 267.349 63.302
3.91 258.122 60.727
3.92 --undefined-- 57.713
3.93 --undefined-- 54.852
3.94 --undefined-- 53.268
3.95 --undefined-- 53.925
3.96 --undefined-- 57.482
3.97 --undefined-- 59.685
3.98 --undefined-- 59.806
3.99 --undefined-- 59.818
4.00 --undefined-- 60.354
4.01 --undefined-- 59.794
4.02 --undefined-- 58.672
4.03 --undefined-- 58.669
4.04 220.745 59.239
4.05 221.049 62.588
4.06 209.092 66.325
4.07 203.415 68.185
4.08 199.774 68.691
4.09 195.971 68.438
4.10 192.492 67.565
4.11 189.147 66.231
4.12 191.427 65.564
4.13 194.238 65.257
4.14 268.342 63.874
4.15 221.600 64.735
4.16 219.799 67.062
4.17 215.865 68.098
4.18 214.277 68.434
4.19 217.063 68.424
4.20 221.555 68.069
4.21 224.194 67.467
4.22 226.462 66.901
4.23 230.796 66.745
4.24 233.617 66.762
4.25 234.892 66.595
4.26 236.585 66.290
4.27 238.092 66.055
4.28 238.798 65.716
4.29 237.439 65.340
4.30 234.016 65.203
4.31 229.442 65.229
4.32 224.816 65.084
4.33 219.445 64.958
4.34 215.414 65.192
4.35 209.208 65.522
4.36 199.817 65.434
4.37 187.768 66.020
4.38 177.994 67.271
4.39 --undefined-- 67.687
4.40 --undefined-- 67.349
4.41 --undefined-- 66.479
4.42 --undefined-- 64.887
4.43 --undefined-- 63.381
4.44 --undefined-- 61.977
4.45 --undefined-- 59.998
4.46 --undefined-- 58.822
4.47 --undefined-- 58.171
4.48 --undefined-- 58.031
4.49 --undefined-- 58.588
4.50 --undefined-- 58.106
4.51 --undefined-- 57.846
4.52 --undefined-- 58.626
4.53 --undefined-- 59.993
4.54 --undefined-- 62.538
4.55 208.843 65.148
4.56 208.413 66.598
4.57 208.808 66.966
4.58 211.412 67.193
4.59 214.127 67.218
4.60 222.130 66.660
4.61 222.821 64.802
4.62 210.592 60.875
4.63 211.156 56.028
4.64 --undefined-- 53.273
4.65 --undefined-- 53.882
4.66 --undefined-- 55.723
4.67 --undefined-- 56.252
4.68 --undefined-- 55.959
4.69 --undefined-- 56.536
4.70 --undefined-- 58.996
4.71 219.269 62.460
4.72 199.311 64.911
4.73 180.030 65.995
4.74 174.454 66.317
4.75 171.658 66.448
4.76 170.200 66.702
4.77 170.814 66.851
4.78 171.535 66.727
4.79 172.251 67.149
4.80 172.442 67.627
4.81 173.745 66.981
4.82 177.133 64.976
4.83 176.980 63.289
4.84 187.302 64.523
4.85 --undefined-- 65.114
4.86 --undefined-- 63.384
4.87 --undefined-- 60.331
4.88 --undefined-- 61.234
4.89 --undefined-- 63.932
4.90 --undefined-- 64.545
4.91 --undefined-- 64.641
4.92 --undefined-- --undefined--
4.93 --undefined-- --undefined--
4.94 --undefined-- --undefined--
4.95 --undefined-- --undefined--
