Time Pitch Intensity
0.01 --undefined-- --undefined--
0.02 101.091 --undefined--
0.03 95.659 --undefined--
0.04 92.184 --undefined--
0.05 92.598 65.769
0.06 94.800 64.837
0.07 95.230 64.113
0.08 95.236 64.453
0.09 96.129 65.566
0.10 97.512 66.401
0.11 98.353 66.268
0.12 95.043 65.042
0.13 --undefined-- 62.368
0.14 --undefined-- 58.043
0.15 --undefined-- 58.772
0.16 --undefined-- 63.014
0.17 --undefined-- 65.313
0.18 107.185 67.979
0.19 106.125 69.877
0.20 99.563 69.936
0.21 99.393 69.057
0.22 98.436 68.019
0.23 96.938 66.967
0.24 95.159 65.904
0.25 93.828 64.649
0.26 92.418 63.362
0.27 92.495 62.763
0.28 92.622 62.859
0.29 93.692 63.015
0.30 95.199 63.142
0.31 97.566 63.772
0.32 101.547 65.736
0.33 107.172 68.570
0.34 107.793 70.813
0.35 109.580 72.178
0.36 110.115 72.974
0.37 109.879 73.563
0.38 108.373 73.967
0.39 103.204 73.314
0.40 116.189 70.570
0.41 97.567 65.218
0.42 101.636 58.561
0.43 --undefined-- 52.617
0.44 --undefined-- 48.942
0.45 --undefined-- 48.930
0.46 --undefined-- 48.875
0.47 --undefined-- 49.075
0.48 --undefined-- 53.340
0.49 --undefined-- 61.839
0.50 --undefined-- 67.543
0.51 --undefined-- 69.590
0.52 --undefined-- 68.640
0.53 --undefined-- 65.874
0.54 --undefined-- 63.101
0.55 --undefined-- 61.185
0.56 --undefined-- 59.445
0.57 --undefined-- 59.612
0.58 98.928 62.639
0.59 91.912 65.255
0.60 93.287 66.615
0.61 97.772 67.651
0.62 100.412 68.533
0.63 101.470 68.723
0.64 103.698 68.569
0.65 107.454 69.039
0.66 110.747 70.074
0.67 112.738 71.108
0.68 115.275 71.773
0.69 118.191 72.022
0.70 120.587 72.076
0.71 121.901 72.214
0.72 122.313 72.184
0.73 122.024 71.681
0.74 121.546 70.869
0.75 122.488 70.295
0.76 124.050 70.724
0.77 128.419 72.887
0.78 133.269 75.748
0.79 134.110 77.602
0.80 133.052 78.088
0.81 127.270 77.816
0.82 122.713 77.305
0.83 114.972 76.380
0.84 112.866 74.865
0.85 108.689 72.904
0.86 103.748 71.010
0.87 103.573 69.721
0.88 102.746 69.149
0.89 100.701 68.755
0.90 97.305 68.173
0.91 95.552 67.628
0.92 94.814 67.392
0.93 95.018 67.201
0.94 95.135 66.737
0.95 95.676 66.314
0.96 97.002 66.411
0.97 98.632 66.801
0.98 99.030 66.957
0.99 97.960 66.751
1.00 97.099 66.678
1.01 98.349 67.368
1.02 98.599 68.412
1.03 97.674 69.175
1.04 96.981 69.501
1.05 96.774 69.285
1.06 94.217 68.027
1.07 93.609 65.682
1.08 94.572 63.267
1.09 93.611 62.262
1.10 95.305 64.969
1.11 114.708 69.207
1.12 106.271 71.790
1.13 101.463 72.497
1.14 99.309 72.440
1.15 94.826 72.645
1.16 92.449 72.885
1.17 90.756 72.508
1.18 89.587 71.290
1.19 88.819 69.642
1.20 90.057 68.187
1.21 89.716 66.957
1.22 90.788 65.637
1.23 92.814 63.748
1.24 102.754 60.448
1.25 --undefined-- 55.148
1.26 --undefined-- 48.159
1.27 --undefined-- 44.491
1.28 --undefined-- 46.452
1.29 --undefined-- 52.259
1.30 --undefined-- 56.188
1.31 --undefined-- 56.481
1.32 --undefined-- 54.009
1.33 --undefined-- 52.706
1.34 --undefined-- 53.387
1.35 --undefined-- 53.464
1.36 --undefined-- 53.307
1.37 --undefined-- 53.803
1.38 --undefined-- 54.514
1.39 --undefined-- 55.211
1.40 --undefined-- 56.558
1.41 --undefined-- 58.334
1.42 --undefined-- 59.638
1.43 --undefined-- 60.127
1.44 --undefined-- 59.529
1.45 --undefined-- 58.449
1.46 --undefined-- 58.096
1.47 --undefined-- 57.522
1.48 --undefined-- 55.492
1.49 --undefined-- 51.487
1.50 --undefined-- 47.099
1.51 --undefined-- 46.748
1.52 --undefined-- 51.924
1.53 --undefined-- 62.010
1.54 170.939 68.959
1.55 170.265 72.862
1.56 175.809 74.739
1.57 178.246 75.388
1.58 175.322 75.560
1.59 170.840 76.072
1.60 170.943 77.153
1.61 188.649 78.542
1.62 196.619 79.373
1.63 203.179 79.403
1.64 205.696 79.150
1.65 203.486 78.299
1.66 197.156 76.240
1.67 182.301 73.249
1.68 175.379 71.052
1.69 172.601 71.655
1.70 172.397 74.360
1.71 170.456 76.938
1.72 166.227 78.695
1.73 159.841 79.588
1.74 157.022 79.846
1.75 156.328 79.690
1.76 156.910 79.646
1.77 157.744 79.867
1.78 160.739 79.599
1.79 165.905 78.669
1.80 167.996 77.910
1.81 175.277 77.811
1.82 171.769 77.915
1.83 172.503 78.317
1.84 172.386 79.084
1.85 171.997 79.711
1.86 171.129 79.950
1.87 170.195 79.817
1.88 169.224 79.310
1.89 168.602 78.514
1.90 168.290 77.741
1.91 167.984 77.161
1.92 166.737 77.071
1.93 161.875 77.436
1.94 160.084 77.057
1.95 158.926 75.257
1.96 157.857 73.218
1.97 159.202 72.587
1.98 155.003 72.702
1.99 153.876 73.604
2.00 157.650 75.170
2.01 152.334 76.436
2.02 149.719 76.928
2.03 146.521 76.675
2.04 142.481 75.618
2.05 136.751 74.154
2.06 136.478 73.486
2.07 137.052 73.712
2.08 137.145 74.203
2.09 137.021 74.631
2.10 136.049 74.680
2.11 135.932 73.661
2.12 135.581 70.804
2.13 131.863 65.821
2.14 134.172 59.606
2.15 136.596 61.012
2.16 209.888 69.413
2.17 204.928 74.785
2.18 203.717 76.920
2.19 202.645 76.702
2.20 206.303 75.803
2.21 213.269 75.435
2.22 214.726 75.196
2.23 213.206 75.059
2.24 210.573 75.010
2.25 206.301 74.792
2.26 199.763 74.285
2.27 188.968 74.001
2.28 179.314 74.578
2.29 167.770 75.407
2.30 154.891 76.223
2.31 148.998 77.081
2.32 138.555 77.578
2.33 131.829 77.251
2.34 122.528 76.487
2.35 120.033 76.073
2.36 118.711 75.504
2.37 118.177 74.546
2.38 118.652 73.597
2.39 119.615 72.850
2.40 120.832 72.175
2.41 121.036 71.312
2.42 126.790 70.820
2.43 134.970 71.352
2.44 140.224 72.177
2.45 144.991 72.782
2.46 148.352 73.300
2.47 148.237 73.718
2.48 146.351 73.643
2.49 145.243 72.750
2.50 146.184 70.726
2.51 149.030 67.047
2.52 155.175 62.230
2.53 --undefined-- 63.876
2.54 --undefined-- 69.814
2.55 133.089 73.094
2.56 125.684 73.559
2.57 114.150 72.585
2.58 115.020 72.174
2.59 112.758 72.348
2.60 107.557 72.440
2.61 99.145 71.991
2.62 99.270 71.299
2.63 100.386 70.951
2.64 100.900 70.808
2.65 105.001 70.980
2.66 110.999 71.612
2.67 117.388 72.642
2.68 123.257 73.625
2.69 131.542 74.602
2.70 138.960 75.867
2.71 145.548 77.152
2.72 151.239 78.050
2.73 155.131 78.346
2.74 158.969 78.220
2.75 164.767 78.169
2.76 169.174 78.088
2.77 165.708 77.480
2.78 164.587 76.603
2.79 160.617 75.541
2.80 153.780 74.539
2.81 150.085 74.600
2.82 149.990 75.550
2.83 150.027 76.416
2.84 148.792 76.634
2.85 148.844 76.135
2.86 149.454 75.406
2.87 152.744 75.108
2.88 162.607 75.299
2.89 172.615 75.198
2.90 186.101 74.581
2.91 193.291 74.209
2.92 195.115 73.564
2.93 195.303 71.959
2.94 185.258 70.192
2.95 177.168 68.768
2.96 173.217 68.520
2.97 193.998 71.164
2.98 193.862 74.682
2.99 191.434 77.443
3.00 187.645 78.763
3.01 180.463 78.788
3.02 172.247 78.360
3.03 165.390 78.520
3.04 161.856 79.181
3.05 158.059 79.589
3.06 154.890 79.871
3.07 151.657 80.330
3.08 148.846 80.695
3.09 146.476 80.032
3.10 144.415 77.376
3.11 144.892 72.654
3.12 139.563 67.548
3.13 136.492 63.959
3.14 148.417 62.147
3.15 152.019 60.939
3.16 152.745 60.021
3.17 --undefined-- 60.508
3.18 --undefined-- 62.078
3.19 --undefined-- 62.888
3.20 --undefined-- 64.797
3.21 148.289 69.141
3.22 145.321 73.016
3.23 149.491 75.499
3.24 155.799 76.631
3.25 165.832 76.609
3.26 179.730 76.036
3.27 190.797 75.783
3.28 197.553 75.983
3.29 202.190 76.089
3.30 202.546 76.063
3.31 198.650 75.674
3.32 190.623 74.759
3.33 182.084 73.653
3.34 170.586 72.607
3.35 161.974 72.989
3.36 162.064 75.367
3.37 156.084 77.469
3.38 154.921 78.654
3.39 153.316 79.288
3.40 148.839 79.203
3.41 142.091 78.340
3.42 140.450 77.569
3.43 140.883 77.521
3.44 141.325 77.419
3.45 141.071 75.898
3.46 138.348 72.322
3.47 144.782 68.096
3.48 143.633 66.143
3.49 146.025 67.508
3.50 163.331 71.368
3.51 163.569 74.407
3.52 164.866 76.238
3.53 164.330 77.312
3.54 165.356 77.890
3.55 165.910 77.847
3.56 165.088 77.167
3.57 165.530 76.324
3.58 168.234 75.970
3.59 170.169 76.310
3.60 170.678 76.692
3.61 170.979 76.932
3.62 173.293 77.212
3.63 176.350 77.476
3.64 169.254 77.636
3.65 165.279 77.397
3.66 161.089 76.384
3.67 154.285 74.804
3.68 147.084 74.125
3.69 147.683 75.203
3.70 146.417 76.387
3.71 142.875 76.705
3.72 137.618 76.527
3.73 131.776 76.494
3.74 128.318 76.492
3.75 126.764 76.117
3.76 123.544 75.220
3.77 120.432 73.818
3.78 115.262 71.504
3.79 113.533 68.259
3.80 118.539 65.992
3.81 118.691 65.139
3.82 122.058 65.052
3.83 127.742 66.605
3.84 143.789 70.688
3.85 144.631 74.458
3.86 146.385 76.409
3.87 146.653 77.094
3.88 146.464 77.537
3.89 147.795 77.975
3.90 149.102 78.220
3.91 150.508 78.349
3.92 150.459 78.450
3.93 147.660 78.401
3.94 145.708 77.774
3.95 141.869 76.691
3.96 141.067 75.486
3.97 131.563 74.223
3.98 132.191 74.051
3.99 132.380 74.838
4.00 128.408 75.393
4.01 124.190 75.444
4.02 122.497 74.858
4.03 115.835 73.426
4.04 107.712 71.946
4.05 106.557 71.634
4.06 105.775 71.768
4.07 99.080 71.359
4.08 98.665 70.739
4.09 100.574 69.871
4.10 82.087 68.068
4.11 92.163 66.495
4.12 106.874 66.703
4.13 108.285 67.588
4.14 108.287 68.175
4.15 107.432 68.475
4.16 103.661 68.627
4.17 101.954 68.661
4.18 101.698 68.419
4.19 102.618 67.975
4.20 105.317 67.985
4.21 109.050 68.816
4.22 113.279 70.221
4.23 117.415 71.772
4.24 122.055 73.274
4.25 126.213 74.459
4.26 128.541 74.438
4.27 129.312 72.703
4.28 138.666 70.246
4.29 139.694 68.475
4.30 139.754 66.575
4.31 140.982 63.260
4.32 150.330 58.374
4.33 --undefined-- 53.870
4.34 150.299 53.011
4.35 130.347 53.424
4.36 116.054 54.206
4.37 116.102 54.951
4.38 --undefined-- 55.903
4.39 --undefined-- 58.321
4.40 --undefined-- 64.321
4.41 166.655 70.353
4.42 160.083 73.470
4.43 157.535 73.982
4.44 155.857 72.804
4.45 154.071 71.473
4.46 151.902 71.077
4.47 149.755 71.407
4.48 147.598 71.479
4.49 145.437 71.167
4.50 147.335 71.471
4.51 147.595 72.389
4.52 148.523 73.307
4.53 149.430 74.152
4.54 149.772 74.921
4.55 149.822 75.445
4.56 149.803 75.759
4.57 149.462 76.036
4.58 148.959 76.241
4.59 148.485 76.238
4.60 147.655 76.057
4.61 144.835 75.681
4.62 141.509 74.758
4.63 138.206 72.793
4.64 131.914 69.430
4.65 130.527 65.117
4.66 125.997 60.624
4.67 135.070 57.315
4.68 --undefined-- 58.199
4.69 --undefined-- 65.785
4.70 --undefined-- 72.762
4.71 --undefined-- 76.220
4.72 --undefined-- 76.722
4.73 111.519 75.476
4.74 104.173 74.074
4.75 101.371 73.272
4.76 100.805 72.358
4.77 95.531 70.184
4.78 91.751 66.204
4.79 92.316 61.111
4.80 --undefined-- 55.962
4.81 --undefined-- 52.197
4.82 --undefined-- 50.636
4.83 --undefined-- 48.792
4.84 --undefined-- 46.332
4.85 --undefined-- 45.314
4.86 --undefined-- 52.489
4.87 --undefined-- 62.312
4.88 --undefined-- 69.280
4.89 122.689 73.723
4.90 121.953 76.115
4.91 119.508 77.323
4.92 119.741 77.813
4.93 119.438 77.806
4.94 118.747 77.740
4.95 118.281 78.080
4.96 117.181 78.563
4.97 115.813 78.726
4.98 115.368 78.707
4.99 114.786 78.629
5.00 114.095 78.379
5.01 113.609 77.902
5.02 113.627 77.091
5.03 113.256 --undefined--
5.04 111.766 --undefined--
5.05 --undefined-- --undefined--
5.06 --undefined-- --undefined--
