Time Pitch Intensity
0.01 --undefined-- --undefined--
0.02 207.032 --undefined--
0.03 205.008 --undefined--
0.04 203.455 --undefined--
0.05 201.255 72.404
0.06 198.619 71.872
0.07 196.004 71.183
0.08 194.191 70.567
0.09 191.885 70.170
0.10 189.197 70.036
0.11 186.140 70.112
0.12 182.099 70.160
0.13 180.024 70.140
0.14 177.962 70.124
0.15 174.299 70.379
0.16 170.489 70.959
0.17 166.814 71.434
0.18 163.434 71.603
0.19 160.339 71.612
0.20 157.757 71.368
0.21 156.732 70.921
0.22 157.670 70.766
0.23 158.319 70.734
0.24 157.794 70.449
0.25 155.995 69.982
0.26 154.523 69.624
0.27 154.191 69.540
0.28 154.111 69.560
0.29 153.530 69.363
0.30 153.709 69.038
0.31 154.938 68.824
0.32 156.097 68.618
0.33 155.837 68.384
0.34 154.515 68.252
0.35 152.073 68.276
0.36 149.891 68.336
0.37 150.382 68.323
0.38 151.141 68.233
0.39 151.347 68.086
0.40 150.266 67.895
0.41 148.486 67.521
0.42 143.391 66.621
0.43 136.963 64.976
0.44 --undefined-- 62.680
0.45 --undefined-- 59.911
0.46 --undefined-- 56.329
0.47 --undefined-- 50.991
0.48 --undefined-- 47.851
0.49 --undefined-- 50.929
0.50 146.568 52.646
0.51 142.792 51.781
0.52 127.157 49.868
0.53 131.536 49.000
0.54 135.220 48.123
0.55 --undefined-- 45.760
0.56 --undefined-- 47.308
0.57 --undefined-- 54.990
0.58 116.965 60.291
0.59 125.279 63.463
0.60 134.532 65.205
0.61 141.469 66.135
0.62 144.114 66.815
0.63 145.165 67.127
0.64 144.899 66.820
0.65 142.973 66.073
0.66 141.065 65.286
0.67 140.175 64.727
0.68 139.731 64.535
0.69 140.040 64.463
0.70 139.502 64.277
0.71 139.380 64.248
0.72 139.052 64.324
0.73 138.242 64.202
0.74 138.748 64.105
0.75 140.109 63.983
0.76 141.773 63.803
0.77 147.474 64.132
0.78 148.876 64.937
0.79 149.786 65.658
0.80 150.022 66.161
0.81 151.257 66.617
0.82 152.553 67.099
0.83 152.050 67.512
0.84 152.529 67.582
0.85 155.314 67.320
0.86 157.935 67.530
0.87 161.228 68.937
0.88 159.381 70.284
0.89 158.802 70.620
0.90 160.485 70.389
0.91 162.496 69.653
0.92 162.618 67.527
0.93 160.199 63.750
0.94 165.205 59.359
0.95 168.464 58.635
0.96 177.205 62.737
0.97 174.535 66.834
0.98 166.904 69.193
0.99 156.306 69.894
1.00 147.899 69.920
1.01 144.038 69.883
1.02 141.509 69.225
1.03 --undefined-- 67.700
1.04 --undefined-- 66.011
1.05 --undefined-- 63.459
1.06 --undefined-- 59.284
1.07 --undefined-- 57.612
1.08 --undefined-- 58.098
1.09 --undefined-- 57.226
1.10 --undefined-- 60.141
1.11 106.263 63.726
1.12 127.717 66.103
1.13 141.522 67.824
1.14 143.381 68.926
1.15 143.137 69.621
1.16 143.752 69.958
1.17 145.001 69.720
1.18 147.079 68.962
1.19 151.269 68.208
1.20 152.929 68.079
1.21 149.920 68.308
1.22 146.197 68.003
1.23 144.254 67.096
1.24 144.699 66.635
1.25 143.238 66.993
1.26 138.018 67.264
1.27 133.804 66.874
1.28 127.045 66.323
1.29 122.654 66.162
1.30 120.470 65.824
1.31 118.937 64.837
1.32 115.639 63.640
1.33 115.023 63.295
1.34 113.661 63.569
1.35 113.060 63.766
1.36 111.490 63.063
1.37 108.005 60.664
1.38 112.057 57.072
1.39 --undefined-- 54.035
1.40 --undefined-- 50.876
1.41 --undefined-- 46.080
1.42 --undefined-- 41.334
1.43 --undefined-- 40.420
1.44 --undefined-- 40.772
1.45 --undefined-- 43.418
1.46 --undefined-- 53.648
1.47 --undefined-- 61.994
1.48 --undefined-- 66.734
1.49 177.545 68.699
1.50 177.163 68.961
1.51 176.633 68.437
1.52 179.211 67.972
1.53 185.235 68.141
1.54 190.899 68.601
1.55 194.821 68.648
1.56 197.380 67.599
1.57 196.616 64.925
1.58 191.367 60.753
1.59 185.661 56.420
1.60 189.396 52.995
1.61 190.942 50.174
1.62 199.612 52.054
1.63 218.371 58.078
1.64 189.777 62.468
1.65 157.937 64.904
1.66 153.731 65.575
1.67 144.245 64.557
1.68 125.815 62.104
1.69 116.234 58.589
1.70 106.013 54.297
1.71 --undefined-- 49.336
1.72 --undefined-- 43.751
1.73 --undefined-- 38.877
1.74 --undefined-- 39.193
1.75 --undefined-- 41.046
1.76 --undefined-- 42.174
1.77 --undefined-- 43.602
1.78 --undefined-- 44.694
1.79 --undefined-- 45.259
1.80 --undefined-- 45.609
1.81 --undefined-- 45.501
1.82 --undefined-- 49.766
1.83 --undefined-- 56.823
1.84 --undefined-- 61.178
1.85 131.609 63.113
1.86 120.903 63.593
1.87 115.902 63.400
1.88 113.854 62.614
1.89 112.560 61.816
1.90 112.029 61.573
1.91 107.716 61.132
1.92 105.640 60.652
1.93 102.328 60.676
1.94 102.875 60.989
1.95 104.106 61.664
1.96 107.082 62.709
1.97 111.180 63.632
1.98 115.418 64.218
1.99 118.970 64.298
2.00 122.245 63.778
2.01 123.948 63.432
2.02 124.644 63.666
2.03 125.300 64.094
2.04 125.459 64.480
2.05 126.713 64.778
2.06 127.422 65.162
2.07 126.721 65.763
2.08 126.051 66.455
2.09 125.503 66.940
2.10 125.074 67.160
2.11 125.210 67.317
2.12 124.670 67.520
2.13 123.905 67.434
2.14 122.998 66.742
2.15 123.064 65.812
2.16 122.925 65.024
2.17 123.743 64.587
2.18 127.046 64.323
2.19 129.358 63.752
2.20 134.047 62.602
2.21 131.593 60.427
2.22 122.573 56.897
2.23 75.434 52.691
2.24 --undefined-- 48.469
2.25 --undefined-- 42.853
2.26 --undefined-- 37.936
2.27 --undefined-- 38.745
2.28 --undefined-- 40.019
2.29 --undefined-- 39.774
2.30 --undefined-- 37.722
2.31 --undefined-- 34.539
2.32 --undefined-- 34.161
2.33 --undefined-- 36.307
2.34 --undefined-- 37.639
2.35 --undefined-- 41.121
2.36 --undefined-- 48.117
2.37 --undefined-- 53.303
2.38 --undefined-- 55.820
2.39 --undefined-- 55.645
2.40 --undefined-- 53.077
2.41 --undefined-- 48.677
2.42 --undefined-- 44.653
2.43 --undefined-- 47.947
2.44 --undefined-- 56.389
2.45 --undefined-- 62.281
2.46 --undefined-- 65.161
2.47 93.779 65.493
2.48 87.477 63.962
2.49 93.587 61.822
2.50 92.963 60.279
2.51 90.106 59.423
2.52 95.091 59.012
2.53 90.560 58.691
2.54 94.113 58.824
2.55 94.139 59.557
2.56 97.057 60.552
2.57 100.880 61.513
2.58 104.950 62.468
2.59 106.055 62.936
2.60 108.918 62.222
2.61 111.339 59.957
2.62 109.639 56.066
2.63 114.321 51.913
2.64 113.568 49.436
2.65 114.763 46.634
2.66 --undefined-- 43.476
2.67 --undefined-- 47.306
2.68 --undefined-- 57.796
2.69 --undefined-- 64.926
2.70 --undefined-- 68.394
2.71 185.154 69.192
2.72 180.439 68.199
2.73 158.783 65.619
2.74 147.850 61.736
2.75 145.372 57.572
2.76 --undefined-- 53.126
2.77 --undefined-- 48.449
2.78 --undefined-- 44.517
2.79 --undefined-- 42.109
2.80 --undefined-- 42.740
2.81 --undefined-- 46.713
2.82 --undefined-- 49.218
2.83 --undefined-- 52.866
2.84 --undefined-- 58.737
2.85 --undefined-- 62.721
2.86 132.880 64.804
2.87 130.777 66.210
2.88 130.058 67.641
2.89 130.760 68.664
2.90 132.272 68.826
2.91 135.803 68.190
2.92 139.490 66.869
2.93 139.238 64.512
2.94 150.625 61.250
2.95 148.890 57.973
2.96 150.840 54.011
2.97 --undefined-- 48.729
2.98 --undefined-- 45.254
2.99 --undefined-- 53.637
3.00 --undefined-- 62.491
3.01 --undefined-- 67.641
3.02 --undefined-- 69.986
3.03 --undefined-- 70.380
3.04 --undefined-- 69.514
3.05 --undefined-- 68.014
3.06 100.037 66.657
3.07 77.483 65.258
3.08 77.595 63.528
3.09 78.826 62.301
3.10 76.478 62.165
3.11 97.482 62.570
3.12 118.388 63.794
3.13 130.917 65.330
3.14 137.051 66.337
3.15 141.779 67.299
3.16 144.994 68.214
3.17 145.204 68.688
3.18 144.441 68.927
3.19 144.121 69.006
3.20 144.614 68.971
3.21 145.539 69.090
3.22 146.306 69.189
3.23 146.513 68.713
3.24 147.324 67.205
3.25 148.923 64.442
3.26 151.185 60.420
3.27 147.298 55.206
3.28 --undefined-- 48.850
3.29 --undefined-- 43.484
3.30 --undefined-- 41.948
3.31 --undefined-- 42.461
3.32 --undefined-- 43.086
3.33 --undefined-- 42.765
3.34 --undefined-- 42.353
3.35 --undefined-- 43.181
3.36 --undefined-- 44.552
3.37 --undefined-- 45.412
3.38 --undefined-- 45.025
3.39 --undefined-- 44.133
3.40 --undefined-- 43.838
3.41 --undefined-- 43.601
3.42 --undefined-- 43.206
3.43 --undefined-- 42.519
3.44 --undefined-- 41.320
3.45 --undefined-- 39.974
3.46 --undefined-- 38.421
3.47 --undefined-- 36.352
3.48 --undefined-- 35.132
3.49 --undefined-- 34.972
3.50 --undefined-- 34.078
3.51 --undefined-- 32.097
3.52 --undefined-- 33.594
3.53 --undefined-- 44.802
3.54 --undefined-- 54.210
3.55 --undefined-- 59.270
3.56 141.903 61.424
3.57 160.671 63.360
3.58 145.525 65.943
3.59 141.694 67.622
3.60 140.667 68.234
3.61 139.075 68.442
3.62 137.941 68.426
3.63 136.894 68.161
3.64 136.082 67.704
3.65 134.239 66.919
3.66 132.876 65.908
3.67 131.476 65.215
3.68 133.455 65.359
3.69 139.451 66.340
3.70 145.557 67.353
3.71 152.090 67.888
3.72 157.922 68.149
3.73 162.785 68.832
3.74 165.579 70.231
3.75 166.469 71.449
3.76 167.632 71.701
3.77 169.610 71.142
3.78 171.090 70.384
3.79 172.132 69.250
3.80 172.472 67.309
3.81 173.263 65.773
3.82 175.861 65.971
3.83 180.315 67.277
3.84 182.211 68.894
3.85 182.220 70.424
3.86 181.617 71.221
3.87 180.442 70.903
3.88 167.438 70.090
3.89 163.829 69.412
3.90 159.641 68.500
3.91 152.723 67.179
3.92 146.403 66.094
3.93 140.750 65.890
3.94 135.976 65.991
3.95 130.468 65.895
3.96 126.134 65.925
3.97 121.725 66.230
3.98 116.764 66.306
3.99 111.642 65.824
4.00 109.146 64.915
4.01 105.069 63.762
4.02 103.025 62.841
4.03 101.980 62.444
4.04 98.941 62.416
4.05 98.620 62.435
4.06 96.675 62.454
4.07 94.590 62.391
4.08 94.542 62.200
4.09 100.990 62.360
4.10 99.181 62.867
4.11 100.659 63.009
4.12 105.691 62.970
4.13 108.836 63.316
4.14 110.594 63.898
4.15 111.852 64.270
4.16 111.620 64.330
4.17 111.358 64.205
4.18 115.269 64.271
4.19 113.851 64.589
4.20 112.527 64.724
4.21 113.993 64.525
4.22 112.877 64.044
4.23 112.544 62.598
4.24 102.616 59.592
4.25 99.949 55.538
4.26 --undefined-- 51.235
4.27 --undefined-- 46.338
4.28 --undefined-- 41.541
4.29 --undefined-- 39.968
4.30 --undefined-- 40.326
4.31 --undefined-- 39.434
4.32 --undefined-- 37.815
4.33 --undefined-- 41.980
4.34 --undefined-- 46.898
4.35 --undefined-- 48.717
4.36 --undefined-- 49.579
4.37 --undefined-- 50.724
4.38 --undefined-- 50.328
4.39 --undefined-- 49.677
4.40 --undefined-- 54.996
4.41 --undefined-- 61.245
4.42 130.111 64.760
4.43 120.928 66.421
4.44 118.231 67.268
4.45 119.045 67.600
4.46 123.022 67.532
4.47 125.744 67.443
4.48 128.384 67.414
4.49 131.457 67.428
4.50 133.088 67.747
4.51 134.465 68.170
4.52 136.129 68.466
4.53 137.971 68.498
4.54 140.737 68.221
4.55 143.309 67.995
4.56 145.807 68.199
4.57 148.032 68.455
4.58 149.120 68.185
4.59 148.791 67.270
4.60 144.740 65.699
4.61 138.436 63.223
4.62 135.269 59.156
4.63 136.506 52.986
4.64 --undefined-- 45.789
4.65 --undefined-- 41.904
4.66 --undefined-- 41.716
4.67 --undefined-- 43.645
4.68 --undefined-- 45.780
4.69 --undefined-- 46.916
4.70 --undefined-- 46.162
4.71 --undefined-- 44.251
4.72 --undefined-- 43.498
4.73 --undefined-- 43.863
4.74 --undefined-- 44.116
4.75 --undefined-- 43.185
4.76 --undefined-- 40.717
4.77 --undefined-- 37.650
4.78 --undefined-- 36.117
4.79 --undefined-- 37.018
4.80 --undefined-- 38.302
4.81 --undefined-- 38.441
4.82 --undefined-- 37.014
4.83 --undefined-- 34.770
4.84 --undefined-- 33.992
4.85 --undefined-- 35.466
4.86 --undefined-- 37.663
4.87 --undefined-- 38.315
4.88 --undefined-- 37.178
4.89 --undefined-- 34.880
4.90 --undefined-- 33.070
4.91 --undefined-- 36.413
4.92 --undefined-- 48.734
4.93 --undefined-- 59.082
4.94 --undefined-- 64.907
4.95 131.595 67.690
4.96 124.774 68.613
4.97 123.963 68.651
4.98 121.718 68.411
4.99 120.759 68.023
5.00 120.105 67.669
5.01 119.106 67.379
5.02 117.020 67.000
5.03 116.371 66.709
5.04 115.746 66.499
5.05 115.500 66.138
5.06 115.820 65.608
5.07 114.547 65.197
5.08 114.045 64.956
5.09 113.884 64.579
5.10 112.158 64.171
5.11 110.917 63.984
5.12 107.566 63.790
5.13 107.327 63.451
5.14 107.103 62.977
5.15 110.209 62.620
5.16 109.596 62.652
5.17 108.172 62.590
5.18 107.600 62.205
5.19 105.807 62.058
5.20 103.253 62.161
5.21 104.294 61.943
5.22 102.407 61.136
5.23 101.829 60.035
5.24 101.409 58.763
5.25 101.579 56.965
5.26 114.799 54.889
5.27 114.232 52.009
5.28 --undefined-- 47.092
5.29 --undefined-- 41.257
5.30 --undefined-- 39.376
5.31 --undefined-- 38.778
5.32 --undefined-- 37.253
5.33 --undefined-- 36.397
5.34 --undefined-- 36.146
5.35 --undefined-- 36.220
5.36 --undefined-- 37.842
5.37 --undefined-- 39.381
5.38 --undefined-- 39.505
5.39 --undefined-- 38.754
5.40 --undefined-- 37.034
5.41 --undefined-- 34.158
5.42 --undefined-- 32.665
5.43 --undefined-- 34.149
5.44 --undefined-- 35.901
5.45 --undefined-- 36.011
5.46 --undefined-- 37.044
5.47 --undefined-- 46.594
5.48 --undefined-- 54.398
5.49 --undefined-- 59.069
5.50 --undefined-- 62.435
5.51 192.436 65.382
5.52 191.218 67.658
5.53 194.222 69.038
5.54 180.299 69.465
5.55 179.155 69.277
5.56 177.585 68.742
5.57 176.743 68.270
5.58 173.677 68.176
5.59 173.910 68.152
5.60 174.293 68.160
5.61 175.828 68.363
5.62 176.608 68.464
5.63 177.143 68.251
5.64 177.677 67.823
5.65 178.643 67.309
5.66 179.880 66.896
5.67 181.177 66.727
5.68 182.363 66.752
5.69 186.760 66.935
5.70 190.759 66.999
5.71 189.131 66.458
5.72 181.559 65.049
5.73 175.016 62.665
5.74 163.630 59.405
5.75 170.135 56.164
5.76 170.091 53.540
5.77 172.603 --undefined--
5.78 184.906 --undefined--
5.79 --undefined-- --undefined--
5.80 --undefined-- --undefined--
