Time Pitch Intensity
0.01 --undefined-- --undefined--
0.02 113.931 --undefined--
0.03 113.902 --undefined--
0.04 113.854 --undefined--
0.05 112.236 69.628
0.06 110.507 67.911
0.07 112.722 67.164
0.08 113.718 67.117
0.09 115.278 67.070
0.10 116.434 66.833
0.11 114.318 66.132
0.12 110.625 64.813
0.13 104.456 62.888
0.14 91.825 60.887
0.15 83.975 58.871
0.16 --undefined-- 55.211
0.17 --undefined-- 48.164
0.18 --undefined-- 40.334
0.19 --undefined-- 38.187
0.20 --undefined-- 38.161
0.21 --undefined-- 39.315
0.22 --undefined-- 40.042
0.23 --undefined-- 39.622
0.24 --undefined-- 38.628
0.25 --undefined-- 37.747
0.26 --undefined-- 38.120
0.27 --undefined-- 38.672
0.28 --undefined-- 38.871
0.29 --undefined-- 39.654
0.30 --undefined-- 40.856
0.31 --undefined-- 42.871
0.32 --undefined-- 50.483
0.33 --undefined-- 60.809
0.34 --undefined-- 67.909
0.35 173.714 71.999
0.36 171.124 73.985
0.37 169.905 74.795
0.38 165.064 74.796
0.39 162.659 74.318
0.40 166.089 73.917
0.41 168.983 73.712
0.42 170.826 73.607
0.43 170.481 73.573
0.44 167.358 73.229
0.45 162.520 72.008
0.46 155.784 69.482
0.47 144.573 65.236
0.48 --undefined-- 59.861
0.49 --undefined-- 58.533
0.50 --undefined-- 61.316
0.51 --undefined-- 63.022
0.52 --undefined-- 63.500
0.53 --undefined-- 66.045
0.54 170.560 70.985
0.55 163.225 74.032
0.56 155.364 75.275
0.57 148.168 75.984
0.58 147.461 76.561
0.59 146.993 76.836
0.60 150.736 77.241
0.61 158.879 77.875
0.62 165.445 78.261
0.63 172.197 78.004
0.64 180.222 77.307
0.65 188.288 77.101
0.66 195.186 78.036
0.67 199.665 79.168
0.68 204.001 79.185
0.69 207.852 77.685
0.70 207.920 75.178
0.71 203.163 72.814
0.72 197.341 70.852
0.73 196.196 68.310
0.74 --undefined-- 64.211
0.75 --undefined-- 58.163
0.76 --undefined-- 51.686
0.77 --undefined-- 46.191
0.78 --undefined-- 41.858
0.79 --undefined-- 40.749
0.80 --undefined-- 38.931
0.81 --undefined-- 36.553
0.82 --undefined-- 37.704
0.83 --undefined-- 46.226
0.84 --undefined-- 58.747
0.85 --undefined-- 67.077
0.86 --undefined-- 71.916
0.87 151.468 74.556
0.88 145.202 75.768
0.89 138.878 76.014
0.90 136.135 75.981
0.91 136.280 75.692
0.92 140.555 74.970
0.93 142.091 74.715
0.94 141.132 74.964
0.95 139.990 74.520
0.96 137.834 72.389
0.97 130.316 68.228
0.98 124.003 62.634
0.99 --undefined-- 56.242
1.00 --undefined-- 48.949
1.01 --undefined-- 45.280
1.02 --undefined-- 48.238
1.03 --undefined-- 53.715
1.04 --undefined-- 57.684
1.05 --undefined-- 61.882
1.06 --undefined-- 66.949
1.07 147.339 70.642
1.08 147.777 72.879
1.09 150.130 73.797
1.10 154.044 73.551
1.11 164.860 72.574
1.12 177.270 71.641
1.13 186.602 70.907
1.14 189.178 69.436
1.15 178.594 66.599
1.16 170.278 62.824
1.17 171.873 58.615
1.18 --undefined-- 55.661
1.19 --undefined-- 56.325
1.20 --undefined-- 57.971
1.21 --undefined-- 61.069
1.22 --undefined-- 66.082
1.23 140.071 70.272
1.24 139.648 71.973
1.25 130.793 71.628
1.26 122.623 70.154
1.27 118.273 68.342
1.28 110.911 66.928
1.29 108.390 66.253
1.30 109.226 66.264
1.31 110.922 66.499
1.32 114.241 66.633
1.33 117.684 66.171
1.34 117.613 64.425
1.35 114.283 60.962
1.36 --undefined-- 56.689
1.37 --undefined-- 60.253
1.38 177.841 66.824
1.39 170.572 70.793
1.40 168.879 72.607
1.41 168.923 73.269
1.42 170.680 73.542
1.43 174.036 73.553
1.44 176.552 73.117
1.45 181.412 72.508
1.46 185.440 72.264
1.47 185.427 72.668
1.48 182.636 73.971
1.49 179.083 75.398
1.50 171.170 76.019
1.51 162.467 75.791
1.52 151.630 74.747
1.53 141.000 72.787
1.54 133.018 70.789
1.55 133.531 70.653
1.56 146.483 72.174
1.57 157.500 73.811
1.58 154.342 75.005
1.59 138.730 75.328
1.60 137.316 74.519
1.61 145.101 73.242
1.62 143.756 72.520
1.63 138.204 71.996
1.64 136.638 71.129
1.65 140.849 70.611
1.66 139.924 70.519
1.67 139.032 70.218
1.68 138.476 69.319
1.69 136.350 67.337
1.70 132.697 63.799
1.71 --undefined-- 58.745
1.72 --undefined-- 54.179
1.73 --undefined-- 58.247
1.74 --undefined-- 63.257
1.75 --undefined-- 66.089
1.76 --undefined-- 69.012
1.77 163.338 72.312
1.78 162.420 74.937
1.79 164.566 76.853
1.80 166.041 78.319
1.81 166.447 79.190
1.82 166.746 79.399
1.83 167.878 79.074
1.84 166.845 78.170
1.85 166.603 76.877
1.86 166.899 75.951
1.87 166.993 75.274
1.88 167.332 73.852
1.89 163.232 70.918
1.90 146.438 66.018
1.91 153.679 60.235
1.92 --undefined-- 54.833
1.93 --undefined-- 48.131
1.94 --undefined-- 41.194
1.95 --undefined-- 39.682
1.96 --undefined-- 46.973
1.97 --undefined-- 57.121
1.98 --undefined-- 65.012
1.99 150.502 69.631
2.00 122.404 71.711
2.01 119.366 72.469
2.02 118.644 72.879
2.03 119.281 73.040
2.04 121.206 72.832
2.05 125.164 72.705
2.06 130.010 73.149
2.07 138.148 73.709
2.08 145.021 73.766
2.09 150.603 73.399
2.10 155.786 72.976
2.11 157.267 72.757
2.12 --undefined-- 72.475
2.13 --undefined-- 71.445
2.14 --undefined-- 70.754
2.15 --undefined-- 71.977
2.16 153.515 73.709
2.17 160.555 75.461
2.18 164.219 77.348
2.19 162.535 78.766
2.20 161.320 79.311
2.21 160.372 79.279
2.22 160.356 78.958
2.23 160.793 77.994
2.24 162.987 76.089
2.25 163.661 73.459
2.26 155.585 70.623
2.27 159.628 68.796
2.28 157.923 68.074
2.29 153.787 67.624
2.30 149.936 67.149
2.31 145.787 66.277
2.32 139.382 64.720
2.33 132.272 62.859
2.34 123.029 62.390
2.35 124.438 64.429
2.36 124.581 67.284
2.37 125.611 69.568
2.38 124.435 70.831
2.39 121.829 71.383
2.40 117.364 71.345
2.41 107.646 70.246
2.42 103.384 68.661
2.43 103.774 67.926
2.44 102.609 67.401
2.45 100.450 66.682
2.46 100.921 65.866
2.47 98.374 64.616
2.48 97.898 63.429
2.49 101.677 63.104
2.50 100.633 62.833
2.51 100.180 62.179
2.52 98.865 61.221
2.53 98.043 59.978
2.54 100.597 58.554
2.55 103.434 56.518
2.56 --undefined-- 52.832
2.57 --undefined-- 47.459
2.58 --undefined-- 42.766
2.59 --undefined-- 45.555
2.60 --undefined-- 52.037
2.61 --undefined-- 55.058
2.62 --undefined-- 54.812
2.63 --undefined-- 53.330
2.64 --undefined-- 53.410
2.65 --undefined-- 54.113
2.66 --undefined-- 54.953
2.67 --undefined-- 58.935
2.68 --undefined-- 64.856
2.69 146.381 68.935
2.70 143.678 71.358
2.71 139.955 72.703
2.72 135.367 73.315
2.73 132.081 73.579
2.74 128.682 73.658
2.75 127.014 73.369
2.76 127.254 72.166
2.77 126.518 70.148
2.78 117.198 68.331
2.79 112.130 66.149
2.80 99.423 63.136
2.81 90.634 61.764
2.82 108.102 64.003
2.83 130.236 66.959
2.84 125.834 69.087
2.85 116.578 70.612
2.86 117.930 71.592
2.87 120.560 72.043
2.88 126.058 72.407
2.89 134.400 73.077
2.90 141.118 73.791
2.91 149.495 73.903
2.92 154.521 73.531
2.93 156.942 72.966
2.94 156.083 71.694
2.95 151.692 68.882
2.96 141.395 63.784
2.97 --undefined-- 56.174
2.98 --undefined-- 49.474
2.99 --undefined-- 48.690
3.00 --undefined-- 50.080
3.01 --undefined-- 52.171
3.02 --undefined-- 57.819
3.03 --undefined-- 64.656
3.04 141.272 68.949
3.05 133.518 71.182
3.06 129.084 72.330
3.07 124.433 72.717
3.08 121.961 72.525
3.09 124.562 72.030
3.10 130.663 71.803
3.11 133.605 72.253
3.12 137.189 72.119
3.13 140.301 70.424
3.14 136.433 67.002
3.15 118.994 62.394
3.16 116.896 58.456
3.17 --undefined-- 56.642
3.18 --undefined-- 60.888
3.19 141.029 67.137
3.20 145.698 71.518
3.21 140.924 73.737
3.22 138.357 74.286
3.23 128.753 73.936
3.24 125.760 73.614
3.25 121.682 73.380
3.26 118.932 72.385
3.27 117.094 69.657
3.28 106.327 64.982
3.29 105.312 60.252
3.30 --undefined-- 56.915
3.31 --undefined-- 53.927
3.32 --undefined-- 50.595
3.33 --undefined-- 46.804
3.34 --undefined-- 46.023
3.35 --undefined-- 51.647
3.36 --undefined-- 58.132
3.37 135.694 63.786
3.38 147.469 68.848
3.39 150.763 72.801
3.40 155.135 75.533
3.41 159.063 77.281
3.42 160.092 78.145
3.43 159.308 77.940
3.44 157.517 76.669
3.45 158.522 75.230
3.46 161.119 74.465
3.47 160.541 73.804
3.48 160.418 72.877
3.49 159.872 71.881
3.50 157.971 70.958
3.51 156.071 69.959
3.52 153.536 68.784
3.53 151.563 67.777
3.54 157.713 67.161
3.55 156.760 66.169
3.56 149.938 64.334
3.57 144.915 61.889
3.58 141.354 58.541
3.59 --undefined-- 53.650
3.60 --undefined-- 47.531
3.61 --undefined-- 45.551
3.62 --undefined-- 50.489
3.63 --undefined-- 58.574
3.64 147.173 65.158
3.65 145.539 68.548
3.66 125.025 69.313
3.67 118.699 68.589
3.68 108.839 67.514
3.69 103.457 66.896
3.70 102.745 66.839
3.71 103.754 67.022
3.72 105.478 67.137
3.73 106.347 67.052
3.74 106.508 66.963
3.75 105.730 67.058
3.76 104.519 67.204
3.77 103.958 67.144
3.78 105.255 66.978
3.79 105.541 66.766
3.80 105.349 66.406
3.81 104.992 65.737
3.82 103.600 64.432
3.83 105.326 62.614
3.84 --undefined-- 59.858
3.85 --undefined-- 55.071
3.86 --undefined-- 49.516
3.87 --undefined-- 45.130
3.88 --undefined-- 42.261
3.89 --undefined-- 41.566
3.90 --undefined-- 41.091
3.91 --undefined-- 39.794
3.92 --undefined-- 38.618
3.93 --undefined-- 37.925
3.94 --undefined-- 38.118
3.95 --undefined-- 39.006
3.96 --undefined-- 39.271
3.97 --undefined-- 39.480
3.98 --undefined-- 40.577
3.99 --undefined-- 42.006
4.00 --undefined-- 42.745
4.01 --undefined-- 43.431
4.02 --undefined-- 44.632
4.03 --undefined-- 45.307
4.04 --undefined-- 45.241
4.05 --undefined-- 44.664
4.06 --undefined-- 43.428
4.07 --undefined-- 42.464
4.08 --undefined-- 42.628
4.09 --undefined-- 42.987
4.10 --undefined-- 43.455
4.11 --undefined-- 43.611
4.12 --undefined-- 43.020
4.13 --undefined-- 42.013
4.14 --undefined-- 41.093
4.15 --undefined-- 41.007
4.16 --undefined-- 40.450
4.17 --undefined-- 38.368
4.18 --undefined-- 37.021
4.19 --undefined-- 38.143
4.20 --undefined-- 39.144
4.21 --undefined-- 40.929
4.22 --undefined-- 43.401
4.23 --undefined-- 44.380
4.24 --undefined-- 43.530
4.25 --undefined-- 42.387
4.26 --undefined-- 43.613
4.27 --undefined-- 46.832
4.28 --undefined-- 50.521
4.29 --undefined-- 57.929
4.30 --undefined-- 67.201
4.31 224.992 73.103
4.32 208.248 75.771
4.33 204.681 76.720
4.34 207.348 77.637
4.35 204.886 78.687
4.36 198.601 78.500
4.37 200.400 76.326
4.38 207.458 73.108
4.39 198.903 71.749
4.40 191.183 72.771
4.41 188.966 74.567
4.42 182.163 76.430
4.43 172.863 77.813
4.44 166.491 78.051
4.45 155.549 77.262
4.46 145.383 76.333
4.47 139.433 75.709
4.48 131.208 75.374
4.49 125.142 75.283
4.50 122.624 75.129
4.51 120.544 74.702
4.52 119.307 74.020
4.53 118.395 72.819
4.54 114.800 71.117
4.55 116.386 69.982
4.56 117.905 69.460
4.57 119.100 68.938
4.58 119.350 68.305
4.59 118.396 67.477
4.60 116.053 66.010
4.61 115.552 63.682
4.62 --undefined-- 59.853
4.63 --undefined-- 53.930
4.64 --undefined-- 47.410
4.65 --undefined-- 42.533
4.66 --undefined-- 40.278
4.67 --undefined-- 39.045
4.68 --undefined-- 37.338
4.69 --undefined-- 36.117
4.70 --undefined-- 37.559
4.71 --undefined-- 39.857
4.72 --undefined-- 45.535
4.73 --undefined-- 52.390
4.74 117.729 55.944
4.75 116.536 56.204
4.76 --undefined-- 54.241
4.77 --undefined-- 52.520
4.78 --undefined-- 53.324
4.79 --undefined-- 57.248
4.80 --undefined-- 64.415
4.81 181.017 70.396
4.82 170.917 73.904
4.83 162.771 75.450
4.84 161.532 75.444
4.85 171.869 74.906
4.86 173.214 74.806
4.87 171.441 74.915
4.88 170.286 75.050
4.89 170.191 75.010
4.90 171.548 74.650
4.91 173.569 74.075
4.92 175.865 73.380
4.93 176.565 72.209
4.94 174.541 70.313
4.95 175.250 68.002
4.96 176.015 65.369
4.97 179.771 61.463
4.98 --undefined-- 55.355
4.99 --undefined-- 49.135
5.00 --undefined-- 49.118
5.01 --undefined-- 56.475
5.02 --undefined-- 67.425
5.03 239.013 75.017
5.04 216.454 79.730
5.05 205.486 82.180
5.06 197.602 82.773
5.07 192.717 82.203
5.08 189.613 81.447
5.09 187.408 80.668
5.10 185.216 79.467
5.11 183.836 77.842
5.12 183.267 76.130
5.13 183.292 74.759
5.14 185.325 73.951
5.15 189.847 73.417
5.16 192.705 72.737
5.17 194.024 72.009
5.18 192.298 71.385
5.19 189.580 70.658
5.20 189.291 69.440
5.21 186.566 67.692
5.22 181.331 65.881
5.23 180.213 65.666
5.24 184.972 67.642
5.25 194.696 70.604
5.26 198.957 74.018
5.27 200.383 77.593
5.28 201.184 80.240
5.29 199.948 81.311
5.30 198.069 81.213
5.31 196.549 80.859
5.32 193.689 80.544
5.33 189.550 79.866
5.34 185.657 78.763
5.35 182.234 77.603
5.36 178.635 75.983
5.37 173.122 72.583
5.38 149.233 66.967
5.39 --undefined-- 61.558
5.40 --undefined-- 60.691
5.41 --undefined-- 59.831
5.42 --undefined-- 59.259
5.43 --undefined-- 64.413
5.44 152.002 69.060
5.45 144.205 71.302
5.46 139.205 72.007
5.47 131.903 72.085
5.48 120.740 --undefined--
5.49 115.726 --undefined--
5.50 --undefined-- --undefined--
5.51 --undefined-- --undefined--
