Time Pitch Intensity
0.01 --undefined-- --undefined--
0.02 123.186 --undefined--
0.03 118.703 --undefined--
0.04 115.225 --undefined--
0.05 114.106 67.853
0.06 115.440 66.929
0.07 115.540 66.524
0.08 115.232 66.257
0.09 116.046 66.093
0.10 116.243 65.867
0.11 116.116 65.324
0.12 114.378 64.210
0.13 114.459 62.505
0.14 --undefined-- 59.866
0.15 --undefined-- 55.555
0.16 --undefined-- 50.447
0.17 --undefined-- 47.657
0.18 --undefined-- 46.042
0.19 --undefined-- 44.170
0.20 --undefined-- 45.138
0.21 --undefined-- 49.416
0.22 --undefined-- 53.916
0.23 116.175 56.609
0.24 111.268 57.248
0.25 106.792 56.722
0.26 106.367 56.469
0.27 124.863 58.017
0.28 131.987 62.308
0.29 165.577 66.797
0.30 174.945 69.681
0.31 176.106 70.904
0.32 167.714 71.050
0.33 166.383 70.747
0.34 165.225 70.833
0.35 167.084 71.823
0.36 165.855 73.087
0.37 164.586 74.066
0.38 164.311 74.569
0.39 165.139 74.306
0.40 166.393 72.747
0.41 156.671 69.162
0.42 141.021 63.137
0.43 --undefined-- 55.567
0.44 --undefined-- 53.718
0.45 --undefined-- 56.739
0.46 --undefined-- 59.095
0.47 --undefined-- 60.564
0.48 --undefined-- 60.909
0.49 --undefined-- 61.661
0.50 223.714 67.033
0.51 209.679 72.192
0.52 198.719 75.255
0.53 194.151 77.042
0.54 190.771 77.948
0.55 188.975 78.202
0.56 191.283 78.542
0.57 192.126 78.992
0.58 191.011 78.855
0.59 189.769 77.931
0.60 187.213 76.236
0.61 179.773 73.883
0.62 172.551 70.974
0.63 168.412 66.767
0.64 159.438 60.543
0.65 --undefined-- 52.513
0.66 --undefined-- 47.456
0.67 --undefined-- 47.181
0.68 --undefined-- 47.866
0.69 --undefined-- 51.466
0.70 --undefined-- 60.075
0.71 --undefined-- 67.924
0.72 --undefined-- 72.733
0.73 --undefined-- 75.250
0.74 178.432 76.668
0.75 176.783 77.577
0.76 176.043 77.497
0.77 176.545 76.580
0.78 177.752 75.587
0.79 179.603 74.447
0.80 179.552 73.436
0.81 177.339 72.958
0.82 172.829 72.376
0.83 166.720 71.197
0.84 160.389 69.631
0.85 151.846 69.430
0.86 153.853 71.793
0.87 144.256 73.645
0.88 138.637 73.775
0.89 136.543 73.225
0.90 135.387 73.150
0.91 134.943 73.642
0.92 134.973 74.252
0.93 134.642 74.206
0.94 140.339 73.032
0.95 142.522 71.016
0.96 124.082 68.483
0.97 108.204 65.106
0.98 105.954 61.310
0.99 105.026 61.993
1.00 127.304 67.208
1.01 144.770 71.499
1.02 139.766 74.144
1.03 136.661 75.214
1.04 134.229 75.282
1.05 134.305 74.800
1.06 132.926 73.545
1.07 130.240 71.240
1.08 127.551 67.666
1.09 125.698 62.638
1.10 --undefined-- 55.945
1.11 --undefined-- 47.680
1.12 --undefined-- 40.327
1.13 --undefined-- 40.935
1.14 --undefined-- 49.547
1.15 --undefined-- 55.808
1.16 --undefined-- 58.119
1.17 --undefined-- 57.331
1.18 --undefined-- 55.908
1.19 --undefined-- 55.119
1.20 --undefined-- 54.596
1.21 --undefined-- 59.575
1.22 148.432 64.940
1.23 123.816 68.185
1.24 119.735 69.968
1.25 115.091 70.527
1.26 112.149 69.986
1.27 110.705 69.066
1.28 110.584 68.645
1.29 113.090 69.011
1.30 116.191 70.034
1.31 116.390 71.150
1.32 116.200 71.736
1.33 115.784 71.601
1.34 115.335 70.899
1.35 114.993 70.014
1.36 114.002 69.223
1.37 113.109 68.591
1.38 111.854 68.034
1.39 111.377 67.489
1.40 110.061 66.749
1.41 109.454 65.623
1.42 114.103 64.225
1.43 89.795 62.194
1.44 --undefined-- 59.382
1.45 --undefined-- 55.221
1.46 --undefined-- 48.662
1.47 --undefined-- 44.358
1.48 --undefined-- 44.024
1.49 --undefined-- 42.178
1.50 --undefined-- 40.595
1.51 --undefined-- 39.980
1.52 --undefined-- 38.712
1.53 --undefined-- 38.278
1.54 --undefined-- 37.785
1.55 --undefined-- 36.909
1.56 --undefined-- 37.504
1.57 --undefined-- 37.822
1.58 --undefined-- 37.207
1.59 --undefined-- 37.552
1.60 --undefined-- 38.091
1.61 --undefined-- 37.130
1.62 --undefined-- 36.465
1.63 --undefined-- 38.567
1.64 --undefined-- 39.667
1.65 --undefined-- 39.650
1.66 --undefined-- 39.979
1.67 --undefined-- 40.202
1.68 --undefined-- 40.085
1.69 --undefined-- 39.638
1.70 --undefined-- 39.813
1.71 --undefined-- 41.110
1.72 --undefined-- 41.497
1.73 --undefined-- 40.000
1.74 --undefined-- 38.281
1.75 --undefined-- 38.094
1.76 --undefined-- 38.374
1.77 --undefined-- 39.730
1.78 --undefined-- 41.887
1.79 --undefined-- 42.216
1.80 --undefined-- 39.721
1.81 --undefined-- 36.371
1.82 --undefined-- 35.729
1.83 --undefined-- 36.729
1.84 --undefined-- 38.005
1.85 --undefined-- 44.380
1.86 --undefined-- 52.560
1.87 --undefined-- 57.638
1.88 --undefined-- 59.447
1.89 --undefined-- 59.886
1.90 --undefined-- 65.148
1.91 189.702 70.533
1.92 181.146 73.410
1.93 176.217 74.839
1.94 179.319 76.155
1.95 180.604 77.182
1.96 181.640 77.073
1.97 187.426 75.950
1.98 185.476 74.215
1.99 176.460 70.832
2.00 165.631 64.886
2.01 --undefined-- 57.742
2.02 --undefined-- 51.981
2.03 --undefined-- 49.014
2.04 --undefined-- 57.788
2.05 --undefined-- 66.684
2.06 --undefined-- 72.220
2.07 160.080 75.243
2.08 158.353 76.606
2.09 150.122 76.842
2.10 147.342 76.391
2.11 146.469 75.574
2.12 145.993 74.669
2.13 144.943 74.256
2.14 143.374 74.527
2.15 142.394 74.816
2.16 142.575 74.297
2.17 140.273 72.657
2.18 132.003 70.336
2.19 127.413 68.516
2.20 130.114 68.399
2.21 139.618 69.529
2.22 146.392 70.814
2.23 156.672 72.056
2.24 163.596 73.331
2.25 168.774 74.584
2.26 165.793 75.500
2.27 161.845 75.667
2.28 159.337 75.358
2.29 158.614 75.187
2.30 158.259 75.243
2.31 158.099 75.273
2.32 158.474 75.101
2.33 158.149 74.537
2.34 157.057 73.518
2.35 158.140 72.489
2.36 160.552 71.809
2.37 162.039 71.178
2.38 163.624 70.377
2.39 164.045 69.390
2.40 163.642 68.187
2.41 162.124 66.736
2.42 159.547 64.991
2.43 --undefined-- 62.705
2.44 114.884 59.839
2.45 117.989 56.757
2.46 --undefined-- 53.101
2.47 --undefined-- 49.482
2.48 --undefined-- 45.764
2.49 --undefined-- 41.631
2.50 --undefined-- 38.919
2.51 --undefined-- 37.581
2.52 --undefined-- 38.913
2.53 --undefined-- 39.682
2.54 --undefined-- 38.637
2.55 --undefined-- 37.578
2.56 --undefined-- 45.930
2.57 --undefined-- 59.685
2.58 --undefined-- 68.766
2.59 215.680 74.137
2.60 200.672 77.278
2.61 199.146 79.322
2.62 199.261 80.603
2.63 199.262 81.265
2.64 198.693 81.566
2.65 197.707 81.626
2.66 197.670 81.522
2.67 197.406 81.408
2.68 196.497 81.422
2.69 195.565 81.577
2.70 194.494 81.774
2.71 193.257 81.885
2.72 191.745 81.817
2.73 190.510 81.568
2.74 188.307 81.156
2.75 182.966 80.291
2.76 174.214 78.268
2.77 164.238 74.522
2.78 146.964 69.823
2.79 141.909 66.262
2.80 140.565 63.807
2.81 136.325 63.073
2.82 141.712 65.534
2.83 153.816 68.766
2.84 157.534 71.456
2.85 155.791 73.922
2.86 149.100 76.101
2.87 141.768 77.244
2.88 134.325 77.129
2.89 130.647 76.494
2.90 129.497 75.859
2.91 128.686 74.984
2.92 129.278 73.984
2.93 130.056 73.207
2.94 130.774 72.535
2.95 131.304 71.736
2.96 132.498 71.016
2.97 132.205 70.321
2.98 130.619 69.459
2.99 129.243 68.761
3.00 132.657 69.401
3.01 138.355 71.901
3.02 142.681 74.837
3.03 143.741 77.029
3.04 143.111 77.829
3.05 141.471 76.848
3.06 137.728 73.756
3.07 124.387 68.352
3.08 119.749 61.394
3.09 --undefined-- 55.128
3.10 --undefined-- 50.542
3.11 --undefined-- 49.715
3.12 --undefined-- 51.676
3.13 --undefined-- 55.378
3.14 --undefined-- 61.980
3.15 157.048 68.003
3.16 149.260 71.467
3.17 137.169 73.148
3.18 132.240 74.115
3.19 128.953 74.542
3.20 127.223 74.015
3.21 125.998 72.509
3.22 122.370 70.671
3.23 119.024 69.311
3.24 123.480 68.768
3.25 121.614 68.561
3.26 120.219 68.478
3.27 118.407 68.561
3.28 118.603 68.919
3.29 123.309 69.717
3.30 122.467 70.519
3.31 114.479 70.653
3.32 110.848 70.048
3.33 110.016 69.137
3.34 107.900 68.275
3.35 107.174 67.506
3.36 106.207 66.784
3.37 105.249 66.096
3.38 102.677 65.314
3.39 102.568 64.248
3.40 102.889 63.341
3.41 104.263 63.037
3.42 104.510 62.982
3.43 105.041 63.060
3.44 105.221 63.162
3.45 105.332 63.012
3.46 105.615 62.506
3.47 103.357 61.581
3.48 114.065 60.236
3.49 --undefined-- 57.754
3.50 --undefined-- 53.661
3.51 --undefined-- 49.517
3.52 --undefined-- 45.590
3.53 --undefined-- 41.405
3.54 --undefined-- 37.909
3.55 --undefined-- 38.299
3.56 --undefined-- 39.380
3.57 --undefined-- 39.216
3.58 --undefined-- 38.009
3.59 --undefined-- 38.638
3.60 --undefined-- 39.959
3.61 --undefined-- 39.910
3.62 --undefined-- 39.152
3.63 --undefined-- 37.932
3.64 --undefined-- 37.021
3.65 --undefined-- 37.024
3.66 --undefined-- 36.895
3.67 --undefined-- 37.052
3.68 --undefined-- 37.752
3.69 --undefined-- 38.446
3.70 --undefined-- 39.190
3.71 --undefined-- 40.351
3.72 --undefined-- 41.119
3.73 --undefined-- 40.815
3.74 --undefined-- 40.667
3.75 --undefined-- 41.333
3.76 --undefined-- 41.277
3.77 --undefined-- 39.500
3.78 --undefined-- 41.232
3.79 --undefined-- 45.196
3.80 --undefined-- 46.116
3.81 --undefined-- 43.281
3.82 --undefined-- 37.612
3.83 --undefined-- 35.979
3.84 --undefined-- 37.833
3.85 --undefined-- 38.047
3.86 --undefined-- 37.346
3.87 --undefined-- 41.978
3.88 --undefined-- 55.328
3.89 --undefined-- 65.592
3.90 --undefined-- 71.999
3.91 177.931 75.797
3.92 173.436 77.958
3.93 165.176 78.860
3.94 162.941 78.716
3.95 161.696 78.070
3.96 160.475 77.655
3.97 159.136 77.734
3.98 159.572 78.282
3.99 160.797 79.109
4.00 161.078 79.760
4.01 160.744 79.894
4.02 161.855 79.531
4.03 164.720 78.783
4.04 166.710 77.444
4.05 170.692 75.460
4.06 170.031 72.712
4.07 161.198 68.503
4.08 153.639 62.959
4.09 155.907 57.072
4.10 --undefined-- 50.035
4.11 --undefined-- 41.966
4.12 --undefined-- 43.814
4.13 --undefined-- 53.493
4.14 --undefined-- 59.336
4.15 --undefined-- 60.877
4.16 --undefined-- 58.586
4.17 --undefined-- 54.014
4.18 --undefined-- 53.693
4.19 --undefined-- 61.320
4.20 --undefined-- 68.123
4.21 160.928 72.105
4.22 149.305 74.263
4.23 144.676 75.417
4.24 142.607 75.854
4.25 140.842 75.853
4.26 139.982 75.741
4.27 139.766 75.518
4.28 139.592 74.920
4.29 139.293 73.856
4.30 137.727 72.520
4.31 135.903 70.940
4.32 135.360 69.296
4.33 138.156 67.571
4.34 135.616 64.966
4.35 --undefined-- 60.724
4.36 --undefined-- 54.483
4.37 --undefined-- 46.550
4.38 --undefined-- 42.188
4.39 --undefined-- 39.809
4.40 --undefined-- 38.340
4.41 --undefined-- 38.663
4.42 --undefined-- 39.944
4.43 --undefined-- 41.592
4.44 --undefined-- 42.761
4.45 --undefined-- 41.877
4.46 --undefined-- 39.384
4.47 --undefined-- 38.845
4.48 --undefined-- 39.828
4.49 --undefined-- 39.857
4.50 --undefined-- 40.058
4.51 --undefined-- 39.387
4.52 --undefined-- 37.708
4.53 --undefined-- 38.431
4.54 --undefined-- 39.904
4.55 --undefined-- 39.200
4.56 --undefined-- 37.225
4.57 --undefined-- 37.245
4.58 --undefined-- 37.306
4.59 --undefined-- 36.949
4.60 --undefined-- 37.814
4.61 --undefined-- 38.809
4.62 --undefined-- 38.972
4.63 --undefined-- 38.954
4.64 --undefined-- 39.005
4.65 --undefined-- 39.280
4.66 --undefined-- 39.521
4.67 --undefined-- 39.425
4.68 --undefined-- 40.999
4.69 --undefined-- 44.671
4.70 --undefined-- 54.429
4.71 --undefined-- 63.801
4.72 --undefined-- 69.729
4.73 --undefined-- 72.974
4.74 --undefined-- 74.683
4.75 --undefined-- 75.601
4.76 --undefined-- 75.386
4.77 --undefined-- 73.950
4.78 --undefined-- 72.203
4.79 110.517 70.826
4.80 109.820 70.126
4.81 112.327 69.822
4.82 116.364 69.235
4.83 118.115 67.116
4.84 --undefined-- 62.489
4.85 --undefined-- 55.099
4.86 --undefined-- 47.643
4.87 --undefined-- 46.881
4.88 --undefined-- 50.141
4.89 --undefined-- 50.233
4.90 --undefined-- 46.229
4.91 --undefined-- 39.884
4.92 --undefined-- 37.301
4.93 --undefined-- 37.076
4.94 --undefined-- 37.018
4.95 --undefined-- 42.174
4.96 --undefined-- 53.752
4.97 --undefined-- 61.483
4.98 --undefined-- 67.038
4.99 201.286 71.352
5.00 182.200 73.932
5.01 176.498 75.331
5.02 175.035 76.223
5.03 176.831 76.406
5.04 179.121 75.969
5.05 181.608 75.512
5.06 183.676 75.300
5.07 185.220 75.250
5.08 185.376 75.104
5.09 183.894 74.487
5.10 180.060 73.005
5.11 172.443 70.326
5.12 162.097 65.991
5.13 --undefined-- 59.861
5.14 --undefined-- 52.964
5.15 --undefined-- 49.305
5.16 --undefined-- 46.450
5.17 --undefined-- 42.085
5.18 --undefined-- 39.892
5.19 --undefined-- 38.869
5.20 --undefined-- 37.064
5.21 --undefined-- 36.750
5.22 --undefined-- 36.822
5.23 --undefined-- 38.173
5.24 --undefined-- 40.139
5.25 --undefined-- 40.878
5.26 --undefined-- 40.064
5.27 --undefined-- 39.292
5.28 --undefined-- 39.686
5.29 --undefined-- 39.957
5.30 --undefined-- 39.939
5.31 --undefined-- 40.031
5.32 --undefined-- 40.043
5.33 --undefined-- 39.693
5.34 --undefined-- 39.706
5.35 --undefined-- 39.290
5.36 --undefined-- 37.220
5.37 --undefined-- 36.360
5.38 --undefined-- 38.889
5.39 --undefined-- 41.065
5.40 --undefined-- 41.244
5.41 --undefined-- 40.418
5.42 --undefined-- 40.951
5.43 --undefined-- 41.906
5.44 --undefined-- 42.012
5.45 --undefined-- 41.716
5.46 --undefined-- 41.952
5.47 --undefined-- 42.266
5.48 --undefined-- 42.134
5.49 --undefined-- 41.716
5.50 --undefined-- 41.635
5.51 --undefined-- 42.116
5.52 --undefined-- 42.504
5.53 --undefined-- 42.824
5.54 --undefined-- 42.715
5.55 --undefined-- 42.096
5.56 --undefined-- 41.695
5.57 --undefined-- 41.364
5.58 --undefined-- 40.706
5.59 --undefined-- 40.524
5.60 --undefined-- 40.749
5.61 --undefined-- 40.788
5.62 --undefined-- 41.055
5.63 --undefined-- 42.422
5.64 --undefined-- 46.689
5.65 --undefined-- 51.205
5.66 --undefined-- 52.285
5.67 --undefined-- 49.421
5.68 --undefined-- 43.382
5.69 --undefined-- 39.598
5.70 --undefined-- 40.339
5.71 --undefined-- 44.108
5.72 --undefined-- 52.844
5.73 --undefined-- 63.408
5.74 214.441 70.567
5.75 197.171 74.863
5.76 180.110 77.568
5.77 174.074 79.351
5.78 170.368 80.290
5.79 169.012 80.579
5.80 168.506 80.514
5.81 168.566 80.378
5.82 168.323 80.070
5.83 167.782 79.009
5.84 166.078 76.384
5.85 --undefined-- 71.093
5.86 --undefined-- 62.758
5.87 --undefined-- 55.316
5.88 --undefined-- 53.795
5.89 --undefined-- 51.136
5.90 --undefined-- 46.433
5.91 --undefined-- 41.287
5.92 --undefined-- 38.758
5.93 --undefined-- 39.731
5.94 --undefined-- 41.261
5.95 --undefined-- 41.115
5.96 --undefined-- 44.310
5.97 --undefined-- 54.041
5.98 --undefined-- 61.102
5.99 --undefined-- 65.611
6.00 266.675 69.634
6.01 252.941 73.798
6.02 229.245 76.692
6.03 220.406 77.717
6.04 217.000 77.297
6.05 212.052 75.716
6.06 202.269 72.537
6.07 186.332 67.208
6.08 199.413 60.258
6.09 206.282 54.608
6.10 --undefined-- 49.698
6.11 --undefined-- 44.777
6.12 --undefined-- 41.611
6.13 --undefined-- 39.037
6.14 --undefined-- 37.308
6.15 --undefined-- 38.117
6.16 --undefined-- 39.080
6.17 --undefined-- 40.106
6.18 --undefined-- 53.712
6.19 --undefined-- 64.832
6.20 --undefined-- 71.431
6.21 157.040 74.784
6.22 153.717 76.039
6.23 145.650 75.825
6.24 139.535 74.865
6.25 134.924 74.169
6.26 132.485 73.972
6.27 131.953 73.865
6.28 133.520 73.539
6.29 131.435 72.565
6.30 128.178 70.326
6.31 124.757 65.926
6.32 --undefined-- 58.630
6.33 --undefined-- 50.030
6.34 --undefined-- 47.894
6.35 --undefined-- 54.042
6.36 --undefined-- 61.901
6.37 168.051 67.454
6.38 158.856 70.790
6.39 154.837 72.631
6.40 148.241 73.382
6.41 146.289 73.537
6.42 144.754 73.514
6.43 144.470 73.441
6.44 144.668 72.987
6.45 143.684 71.389
6.46 138.442 67.880
6.47 131.894 62.070
6.48 137.236 55.568
6.49 --undefined-- 51.216
6.50 --undefined-- 54.284
6.51 --undefined-- 57.616
6.52 --undefined-- 58.569
6.53 --undefined-- 58.726
6.54 --undefined-- 58.341
6.55 --undefined-- 56.813
6.56 --undefined-- 55.147
6.57 --undefined-- 54.256
6.58 --undefined-- 56.832
6.59 --undefined-- 63.416
6.60 172.513 68.631
6.61 170.559 71.623
6.62 84.074 73.325
6.63 84.661 74.503
6.64 84.827 75.416
6.65 85.165 76.092
6.66 172.329 76.616
6.67 173.441 76.950
6.68 175.049 77.066
6.69 175.825 --undefined--
6.70 174.962 --undefined--
6.71 --undefined-- --undefined--
6.72 --undefined-- --undefined--
