Time Pitch Intensity
0.01 --undefined-- --undefined--
0.02 100.062 --undefined--
0.03 99.271 --undefined--
0.04 --undefined-- --undefined--
0.05 --undefined-- 51.851
0.06 --undefined-- 42.131
0.07 --undefined-- 38.662
0.08 --undefined-- 39.881
0.09 --undefined-- 49.123
0.10 --undefined-- 57.691
0.11 --undefined-- 64.151
0.12 --undefined-- 68.075
0.13 --undefined-- 69.270
0.14 93.746 68.663
0.15 98.904 67.918
0.16 97.686 67.153
0.17 96.585 66.153
0.18 96.010 65.391
0.19 94.912 64.235
0.20 96.772 61.904
0.21 96.568 58.764
0.22 96.438 56.658
0.23 95.869 56.214
0.24 95.320 56.079
0.25 94.742 56.277
0.26 93.590 58.544
0.27 --undefined-- 61.371
0.28 --undefined-- 62.843
0.29 --undefined-- 64.289
0.30 --undefined-- 64.382
0.31 93.052 62.293
0.32 94.276 61.131
0.33 97.628 62.147
0.34 98.238 63.541
0.35 97.800 64.880
0.36 99.256 66.123
0.37 99.754 67.062
0.38 99.662 67.285
0.39 99.943 66.856
0.40 100.433 66.177
0.41 100.053 65.592
0.42 99.173 65.214
0.43 98.696 64.816
0.44 98.636 64.392
0.45 98.181 64.087
0.46 97.602 63.864
0.47 97.209 63.640
0.48 96.044 63.357
0.49 95.809 63.090
0.50 94.696 62.822
0.51 93.902 62.500
0.52 93.307 61.748
0.53 92.153 60.831
0.54 93.685 60.659
0.55 94.346 61.034
0.56 94.424 60.903
0.57 94.403 60.239
0.58 93.934 59.650
0.59 94.027 59.180
0.60 94.548 59.889
0.61 95.203 61.935
0.62 98.523 64.530
0.63 97.613 67.116
0.64 96.269 68.886
0.65 94.202 69.780
0.66 91.014 69.827
0.67 87.425 69.034
0.68 87.013 68.342
0.69 85.387 68.185
0.70 85.295 67.927
0.71 85.862 67.149
0.72 86.302 65.683
0.73 86.485 64.142
0.74 89.064 62.874
0.75 89.329 61.591
0.76 92.106 60.424
0.77 92.301 59.408
0.78 93.174 58.100
0.79 94.232 56.164
0.80 97.961 53.499
0.81 98.693 51.084
0.82 101.174 50.624
0.83 103.789 51.194
0.84 107.018 51.866
0.85 110.420 53.032
0.86 114.202 55.092
0.87 118.525 57.018
0.88 118.675 58.324
0.89 121.203 59.772
0.90 122.918 61.515
0.91 122.477 62.960
0.92 122.954 64.027
0.93 123.657 64.858
0.94 123.910 65.457
0.95 124.086 65.730
0.96 124.214 65.857
0.97 124.058 65.911
0.98 123.697 65.759
0.99 123.471 65.629
1.00 123.568 65.754
1.01 123.592 65.868
1.02 123.516 65.839
1.03 123.250 65.743
1.04 123.259 65.317
1.05 123.037 64.632
1.06 122.185 63.767
1.07 122.190 62.041
1.08 118.010 58.797
1.09 --undefined-- 54.192
1.10 --undefined-- 48.615
1.11 --undefined-- 43.072
1.12 --undefined-- 48.430
1.13 --undefined-- 56.979
1.14 --undefined-- 61.613
1.15 --undefined-- 63.150
1.16 --undefined-- 65.729
1.17 142.322 69.349
1.18 141.867 70.759
1.19 129.821 70.370
1.20 129.565 69.811
1.21 127.886 69.782
1.22 126.353 69.808
1.23 124.260 69.753
1.24 119.536 69.618
1.25 114.342 69.091
1.26 113.354 68.035
1.27 111.583 66.424
1.28 110.094 64.154
1.29 --undefined-- 60.745
1.30 --undefined-- 55.277
1.31 --undefined-- 47.745
1.32 --undefined-- 42.394
1.33 --undefined-- 39.775
1.34 --undefined-- 37.648
1.35 --undefined-- 43.027
1.36 --undefined-- 51.171
1.37 --undefined-- 55.437
1.38 --undefined-- 56.958
1.39 --undefined-- 57.630
1.40 --undefined-- 57.771
1.41 --undefined-- 57.298
1.42 --undefined-- 58.610
1.43 --undefined-- 62.605
1.44 132.883 65.529
1.45 130.929 66.337
1.46 128.631 65.522
1.47 127.385 63.948
1.48 124.351 61.814
1.49 125.788 59.975
1.50 127.640 60.068
1.51 123.139 60.281
1.52 118.752 59.830
1.53 112.276 58.780
1.54 111.677 58.621
1.55 112.278 61.684
1.56 107.540 64.682
1.57 105.890 66.091
1.58 105.341 66.565
1.59 104.664 67.011
1.60 108.117 67.677
1.61 105.150 68.064
1.62 105.503 67.855
1.63 106.877 67.274
1.64 106.783 66.631
1.65 107.098 66.201
1.66 106.929 66.423
1.67 106.534 67.105
1.68 107.384 67.632
1.69 108.708 67.730
1.70 109.091 67.382
1.71 111.832 66.858
1.72 111.236 65.842
1.73 108.444 63.395
1.74 105.207 58.745
1.75 --undefined-- 51.626
1.76 --undefined-- 44.088
1.77 --undefined-- 40.097
1.78 --undefined-- 37.818
1.79 --undefined-- 40.533
1.80 --undefined-- 48.641
1.81 --undefined-- 56.165
1.82 --undefined-- 62.522
1.83 --undefined-- 67.868
1.84 --undefined-- 71.237
1.85 124.024 72.586
1.86 121.957 72.721
1.87 118.999 72.646
1.88 118.676 72.383
1.89 116.921 71.578
1.90 114.860 70.532
1.91 114.750 69.490
1.92 115.974 68.384
1.93 120.263 67.379
1.94 121.257 66.150
1.95 120.611 63.753
1.96 119.766 59.678
1.97 119.498 55.261
1.98 109.968 53.123
1.99 108.444 54.057
2.00 108.416 57.174
2.01 107.217 59.553
2.02 105.324 60.920
2.03 101.188 61.842
2.04 99.404 63.223
2.05 100.670 65.175
2.06 97.483 66.612
2.07 96.271 67.101
2.08 95.407 66.860
2.09 95.232 66.333
2.10 94.200 65.564
2.11 94.166 64.886
2.12 92.595 64.383
2.13 94.679 63.658
2.14 95.575 62.866
2.15 96.314 62.480
2.16 99.275 63.272
2.17 103.592 65.120
2.18 104.023 66.788
2.19 104.211 67.857
2.20 105.080 68.639
2.21 106.051 69.112
2.22 105.823 69.163
2.23 106.427 68.914
2.24 106.049 68.656
2.25 105.983 68.578
2.26 105.639 68.459
2.27 105.574 68.477
2.28 105.198 68.594
2.29 104.911 68.434
2.30 105.164 67.937
2.31 106.473 67.402
2.32 108.380 66.977
2.33 109.284 66.619
2.34 109.533 66.475
2.35 108.579 66.408
2.36 106.502 65.917
2.37 105.793 64.984
2.38 105.692 63.942
2.39 104.446 62.514
2.40 104.231 59.894
2.41 100.827 55.780
2.42 --undefined-- 50.178
2.43 --undefined-- 43.920
2.44 --undefined-- 40.004
2.45 --undefined-- 39.777
2.46 --undefined-- 45.285
2.47 --undefined-- 50.820
2.48 --undefined-- 52.908
2.49 --undefined-- 54.042
2.50 --undefined-- 58.855
2.51 110.772 62.977
2.52 106.929 64.923
2.53 102.836 64.898
2.54 103.022 63.194
2.55 103.297 60.418
2.56 99.138 56.817
2.57 --undefined-- 51.651
2.58 --undefined-- 44.815
2.59 --undefined-- 39.835
2.60 --undefined-- 38.551
2.61 --undefined-- 44.395
2.62 --undefined-- 50.487
2.63 --undefined-- 54.332
2.64 --undefined-- 55.950
2.65 --undefined-- 56.196
2.66 --undefined-- 60.963
2.67 105.889 65.891
2.68 104.662 68.917
2.69 98.000 70.716
2.70 97.663 71.473
2.71 96.826 71.347
2.72 103.107 71.216
2.73 104.415 71.379
2.74 106.730 71.163
2.75 109.220 70.555
2.76 111.904 69.918
2.77 114.383 69.510
2.78 116.106 69.241
2.79 116.538 68.816
2.80 115.944 68.163
2.81 115.100 66.731
2.82 112.162 63.288
2.83 --undefined-- 56.911
2.84 --undefined-- 48.718
2.85 --undefined-- 46.149
2.86 --undefined-- 52.464
2.87 --undefined-- 58.057
2.88 --undefined-- 60.302
2.89 --undefined-- 60.302
2.90 --undefined-- 60.359
2.91 --undefined-- 60.000
2.92 --undefined-- 58.141
2.93 --undefined-- 56.537
2.94 --undefined-- 58.515
2.95 --undefined-- 61.054
2.96 --undefined-- 62.024
2.97 76.987 61.491
2.98 74.569 59.693
2.99 92.190 56.706
3.00 76.599 53.587
3.01 76.809 52.377
3.02 76.728 51.922
3.03 76.666 51.376
3.04 77.286 50.522
3.05 77.581 49.071
3.06 --undefined-- 48.733
3.07 --undefined-- 54.469
3.08 --undefined-- 58.994
3.09 --undefined-- 62.020
3.10 --undefined-- 65.173
3.11 --undefined-- 67.005
3.12 94.178 67.300
3.13 93.327 66.625
3.14 92.858 65.519
3.15 91.296 64.176
3.16 91.139 62.168
3.17 --undefined-- 58.386
3.18 --undefined-- 51.812
3.19 --undefined-- 47.932
3.20 --undefined-- 54.360
3.21 --undefined-- 59.173
3.22 --undefined-- 61.263
3.23 --undefined-- 60.968
3.24 --undefined-- 58.991
3.25 --undefined-- 59.114
3.26 95.112 62.844
3.27 84.167 65.569
3.28 84.348 67.061
3.29 83.439 67.830
3.30 82.528 67.591
3.31 84.536 66.309
3.32 86.250 64.791
3.33 87.413 63.899
3.34 93.093 63.616
3.35 95.502 63.110
3.36 105.671 62.314
3.37 109.858 61.294
3.38 110.110 59.890
3.39 --undefined-- 58.246
3.40 --undefined-- 58.009
3.41 --undefined-- 59.934
3.42 --undefined-- 61.837
3.43 --undefined-- 62.510
3.44 --undefined-- 61.782
3.45 --undefined-- 61.132
3.46 --undefined-- 60.941
3.47 --undefined-- 60.612
3.48 --undefined-- 60.877
3.49 --undefined-- 60.750
3.50 --undefined-- 58.797
3.51 --undefined-- 58.268
3.52 126.163 62.840
3.53 125.310 66.256
3.54 119.358 67.722
3.55 119.589 68.109
3.56 120.004 67.987
3.57 115.746 67.482
3.58 113.235 66.443
3.59 113.908 65.299
3.60 111.217 64.487
3.61 107.496 63.820
3.62 104.525 62.814
3.63 101.813 60.632
3.64 100.651 56.876
3.65 --undefined-- 51.625
3.66 --undefined-- 46.147
3.67 --undefined-- 43.273
3.68 --undefined-- 41.603
3.69 --undefined-- 40.169
3.70 --undefined-- 38.629
3.71 --undefined-- 37.597
3.72 --undefined-- 37.885
3.73 --undefined-- 38.937
3.74 --undefined-- 40.237
3.75 --undefined-- 41.592
3.76 --undefined-- 42.408
3.77 --undefined-- 43.348
3.78 --undefined-- 45.101
3.79 --undefined-- 46.268
3.80 --undefined-- 46.568
3.81 --undefined-- 46.693
3.82 --undefined-- 46.659
3.83 --undefined-- 47.095
3.84 --undefined-- 47.497
3.85 --undefined-- 47.440
3.86 --undefined-- 47.609
3.87 --undefined-- 47.522
3.88 --undefined-- 47.382
3.89 --undefined-- 47.659
3.90 --undefined-- 47.979
3.91 --undefined-- 47.968
3.92 --undefined-- 47.709
3.93 --undefined-- 47.583
3.94 --undefined-- 47.717
3.95 --undefined-- 47.719
3.96 --undefined-- 47.752
3.97 --undefined-- 47.693
3.98 --undefined-- 47.369
3.99 --undefined-- 46.973
4.00 --undefined-- 46.516
4.01 --undefined-- 46.498
4.02 --undefined-- 46.801
4.03 --undefined-- 46.587
4.04 --undefined-- 46.340
4.05 --undefined-- 46.832
4.06 --undefined-- 47.258
4.07 --undefined-- 46.932
4.08 --undefined-- 46.062
4.09 --undefined-- 44.591
4.10 --undefined-- 42.634
4.11 --undefined-- 40.972
4.12 --undefined-- 40.019
4.13 --undefined-- 39.438
4.14 --undefined-- 39.060
4.15 --undefined-- 41.075
4.16 --undefined-- 46.384
4.17 --undefined-- 49.739
4.18 --undefined-- 50.678
4.19 --undefined-- 51.043
4.20 --undefined-- 51.876
4.21 --undefined-- 53.471
4.22 --undefined-- 55.749
4.23 --undefined-- 57.306
4.24 --undefined-- 58.020
4.25 --undefined-- 60.647
4.26 --undefined-- 66.303
4.27 --undefined-- 70.438
4.28 116.922 71.826
4.29 112.169 71.088
4.30 110.778 68.813
4.31 110.370 64.430
4.32 108.616 58.103
4.33 109.022 54.563
4.34 109.427 54.632
4.35 112.740 55.550
4.36 117.890 56.564
4.37 118.441 56.904
4.38 116.106 56.269
4.39 114.050 54.372
4.40 112.608 50.811
4.41 --undefined-- 46.168
4.42 --undefined-- 46.220
4.43 --undefined-- 49.731
4.44 --undefined-- 53.259
4.45 --undefined-- 56.231
4.46 --undefined-- 60.420
4.47 135.516 64.589
4.48 134.687 67.277
4.49 134.650 68.535
4.50 134.445 68.601
4.51 133.496 67.662
4.52 132.035 65.749
4.53 130.047 62.568
4.54 128.123 59.459
4.55 131.285 59.456
4.56 133.132 60.443
4.57 133.094 60.861
4.58 130.573 60.684
4.59 127.491 61.269
4.60 123.413 65.041
4.61 117.721 69.158
4.62 116.295 71.614
4.63 117.520 72.368
4.64 107.833 71.898
4.65 102.856 71.451
4.66 100.092 71.208
4.67 98.096 70.451
4.68 98.281 69.310
4.69 99.242 68.153
4.70 100.976 67.441
4.71 102.174 67.433
4.72 104.032 67.875
4.73 107.389 68.480
4.74 111.040 68.620
4.75 115.308 68.271
4.76 119.994 68.026
4.77 122.340 68.256
4.78 126.451 69.209
4.79 133.910 70.854
4.80 135.153 72.001
4.81 136.303 72.351
4.82 137.362 72.341
4.83 137.433 72.250
4.84 137.307 72.065
4.85 137.637 71.798
4.86 137.284 71.548
4.87 136.236 71.278
4.88 134.646 70.997
4.89 132.656 70.851
4.90 130.938 70.884
4.91 130.491 70.901
4.92 130.013 70.739
4.93 130.145 70.510
4.94 129.126 70.448
4.95 126.915 70.596
4.96 124.540 70.676
4.97 123.018 70.495
4.98 121.357 69.868
4.99 120.749 68.516
5.00 117.955 66.913
5.01 115.018 66.058
5.02 114.728 65.926
5.03 113.024 65.790
5.04 112.344 64.857
5.05 107.864 62.874
5.06 107.030 60.954
5.07 107.411 59.883
5.08 110.744 58.745
5.09 107.125 57.702
5.10 106.336 57.092
5.11 105.117 56.326
5.12 --undefined-- 54.918
5.13 --undefined-- 53.330
5.14 --undefined-- 52.474
5.15 --undefined-- 53.431
5.16 --undefined-- 57.776
5.17 --undefined-- 63.377
5.18 --undefined-- 67.648
5.19 102.205 69.908
5.20 100.593 70.554
5.21 99.901 70.078
5.22 102.189 68.878
5.23 103.071 66.709
5.24 101.038 62.887
5.25 110.991 58.444
5.26 112.790 57.016
5.27 117.219 --undefined--
5.28 120.735 --undefined--
5.29 --undefined-- --undefined--
5.30 --undefined-- --undefined--
