Time Pitch Intensity
0.01 --undefined-- --undefined--
0.02 161.742 --undefined--
0.03 158.451 --undefined--
0.04 152.857 --undefined--
0.05 154.868 69.789
0.06 152.869 69.193
0.07 150.288 68.280
0.08 150.063 68.526
0.09 159.541 72.624
0.10 155.769 76.380
0.11 146.330 77.849
0.12 141.174 77.699
0.13 135.366 76.989
0.14 127.893 75.942
0.15 124.453 73.877
0.16 --undefined-- 69.769
0.17 --undefined-- 63.606
0.18 126.945 58.824
0.19 125.448 56.352
0.20 131.228 53.950
0.21 --undefined-- 51.292
0.22 --undefined-- 49.970
0.23 --undefined-- 49.789
0.24 --undefined-- 48.911
0.25 --undefined-- 47.014
0.26 --undefined-- 44.696
0.27 --undefined-- 43.385
0.28 --undefined-- 43.187
0.29 --undefined-- 43.680
0.30 --undefined-- 43.362
0.31 --undefined-- 41.615
0.32 --undefined-- 40.818
0.33 --undefined-- 40.903
0.34 --undefined-- 40.032
0.35 --undefined-- 40.164
0.36 --undefined-- 45.105
0.37 --undefined-- 57.310
0.38 --undefined-- 67.596
0.39 --undefined-- 73.936
0.40 215.730 76.971
0.41 201.425 77.514
0.42 190.776 76.967
0.43 188.156 76.905
0.44 186.940 77.375
0.45 187.633 77.856
0.46 187.705 78.044
0.47 187.962 78.052
0.48 188.621 78.033
0.49 189.382 77.667
0.50 188.408 76.445
0.51 184.842 74.801
0.52 181.197 74.473
0.53 175.790 75.970
0.54 173.267 77.714
0.55 171.489 78.461
0.56 166.447 78.280
0.57 158.397 77.794
0.58 151.985 77.379
0.59 141.100 77.251
0.60 132.069 77.395
0.61 126.240 77.722
0.62 119.788 77.862
0.63 113.943 77.115
0.64 108.569 75.175
0.65 103.944 72.420
0.66 103.728 69.971
0.67 107.383 67.953
0.68 110.809 64.833
0.69 121.087 60.681
0.70 121.874 59.135
0.71 126.811 60.720
0.72 131.303 64.296
0.73 --undefined-- 70.961
0.74 --undefined-- 75.300
0.75 135.387 76.413
0.76 127.418 75.645
0.77 118.396 74.539
0.78 112.732 72.999
0.79 111.398 71.612
0.80 112.478 72.154
0.81 113.591 73.985
0.82 113.974 75.601
0.83 113.686 76.424
0.84 114.901 76.440
0.85 114.638 76.123
0.86 118.819 76.274
0.87 120.698 76.384
0.88 120.373 76.145
0.89 119.782 75.898
0.90 118.422 75.655
0.91 115.554 74.931
0.92 109.849 73.144
0.93 105.637 70.730
0.94 113.232 71.458
0.95 138.021 75.425
0.96 136.114 77.644
0.97 125.671 77.664
0.98 111.037 76.823
0.99 105.250 76.265
1.00 102.036 75.663
1.01 97.900 74.755
1.02 96.163 73.943
1.03 96.362 73.797
1.04 97.253 74.166
1.05 98.121 74.561
1.06 99.005 74.890
1.07 99.487 75.122
1.08 99.099 74.981
1.09 97.206 73.879
1.10 93.318 71.398
1.11 86.237 68.223
1.12 --undefined-- 68.172
1.13 134.410 72.308
1.14 121.877 75.680
1.15 116.109 77.138
1.16 115.637 77.347
1.17 116.339 77.180
1.18 117.695 76.923
1.19 120.439 76.636
1.20 126.129 76.609
1.21 133.412 76.842
1.22 140.812 76.950
1.23 146.054 76.950
1.24 153.037 77.029
1.25 159.637 77.216
1.26 163.305 77.404
1.27 165.346 77.479
1.28 165.835 77.216
1.29 164.118 76.088
1.30 161.908 73.493
1.31 164.339 69.347
1.32 165.672 64.774
1.33 167.750 60.695
1.34 166.994 57.650
1.35 167.388 57.800
1.36 165.056 63.081
1.37 --undefined-- 67.794
1.38 --undefined-- 71.268
1.39 --undefined-- 74.849
1.40 --undefined-- 76.713
1.41 136.598 76.832
1.42 133.533 76.614
1.43 131.192 76.574
1.44 129.881 76.702
1.45 128.293 76.850
1.46 127.513 76.684
1.47 127.154 75.968
1.48 126.633 74.978
1.49 128.292 75.008
1.50 137.523 76.150
1.51 137.297 76.723
1.52 136.858 76.584
1.53 137.662 76.198
1.54 138.717 75.898
1.55 139.581 75.604
1.56 140.429 74.659
1.57 140.051 72.299
1.58 139.947 68.083
1.59 139.145 62.529
1.60 139.076 58.932
1.61 137.074 57.601
1.62 --undefined-- 56.079
1.63 --undefined-- 54.563
1.64 --undefined-- 54.809
1.65 --undefined-- 55.624
1.66 --undefined-- 57.462
1.67 --undefined-- 65.222
1.68 --undefined-- 72.722
1.69 154.364 76.556
1.70 141.496 77.458
1.71 134.063 76.851
1.72 129.620 75.782
1.73 123.629 73.856
1.74 --undefined-- 70.309
1.75 --undefined-- 65.614
1.76 --undefined-- 63.225
1.77 --undefined-- 62.786
1.78 93.456 62.608
1.79 98.722 63.717
1.80 102.255 66.523
1.81 114.193 69.651
1.82 110.733 72.022
1.83 114.752 74.091
1.84 111.602 75.722
1.85 109.188 76.545
1.86 107.520 76.764
1.87 105.666 76.710
1.88 104.385 76.566
1.89 102.475 76.393
1.90 99.850 76.060
1.91 96.160 75.493
1.92 94.096 75.332
1.93 100.117 76.095
1.94 102.771 76.805
1.95 102.602 76.849
1.96 101.190 76.579
1.97 100.657 76.362
1.98 100.393 76.256
1.99 99.505 76.306
2.00 99.490 76.467
2.01 99.881 76.522
2.02 99.603 76.482
2.03 99.269 76.507
2.04 99.234 76.464
2.05 99.474 76.134
2.06 100.173 75.356
2.07 99.297 73.880
2.08 97.127 71.427
2.09 99.868 67.707
2.10 101.243 62.903
2.11 --undefined-- 61.380
2.12 --undefined-- 65.679
2.13 --undefined-- 69.288
2.14 134.306 72.981
2.15 132.778 75.952
2.16 123.507 77.052
2.17 119.847 76.915
2.18 111.109 76.654
2.19 105.797 76.467
2.20 101.276 75.894
2.21 98.211 74.948
2.22 98.266 74.392
2.23 98.374 74.561
2.24 98.230 74.984
2.25 98.767 75.378
2.26 99.813 75.730
2.27 101.576 76.029
2.28 103.064 76.140
2.29 103.444 76.002
2.30 103.723 75.700
2.31 103.648 75.316
2.32 103.724 74.991
2.33 104.010 74.820
2.34 105.535 74.821
2.35 108.834 75.241
2.36 108.531 75.913
2.37 109.574 76.330
2.38 110.655 76.402
2.39 112.383 76.381
2.40 113.801 76.489
2.41 115.746 76.727
2.42 117.325 76.990
2.43 119.023 77.185
2.44 119.235 77.250
2.45 119.349 77.268
2.46 118.310 77.236
2.47 118.038 77.230
2.48 117.897 77.282
2.49 117.084 77.363
2.50 117.180 77.541
2.51 116.568 77.671
2.52 116.028 77.616
2.53 115.355 77.476
2.54 115.335 77.297
2.55 115.203 77.009
2.56 116.872 76.500
2.57 119.679 75.741
2.58 116.632 74.688
2.59 115.667 73.247
2.60 114.670 71.654
2.61 113.443 70.218
2.62 110.816 70.746
2.63 121.554 74.197
2.64 136.710 77.008
2.65 131.680 77.789
2.66 123.493 76.898
2.67 116.614 75.665
2.68 119.051 75.276
2.69 121.886 75.250
2.70 126.105 75.170
2.71 132.072 75.187
2.72 139.590 75.736
2.73 143.639 76.384
2.74 147.304 76.107
2.75 150.751 74.802
2.76 151.602 73.596
2.77 157.851 74.378
2.78 154.262 76.344
2.79 150.798 77.441
2.80 147.507 77.568
2.81 142.968 77.324
2.82 137.216 77.114
2.83 131.648 77.031
2.84 127.103 77.033
2.85 123.042 76.419
2.86 121.918 74.020
2.87 132.794 69.217
2.88 123.019 62.547
2.89 120.552 57.828
2.90 123.871 56.124
2.91 --undefined-- 53.475
2.92 --undefined-- 50.556
2.93 --undefined-- 50.034
2.94 --undefined-- 51.758
2.95 --undefined-- 53.942
2.96 --undefined-- 55.656
2.97 --undefined-- 57.662
2.98 --undefined-- 59.346
2.99 --undefined-- 59.685
3.00 --undefined-- 58.916
3.01 --undefined-- 57.162
3.02 --undefined-- 53.917
3.03 --undefined-- 48.865
3.04 --undefined-- 43.822
3.05 --undefined-- 40.997
3.06 --undefined-- 40.559
3.07 --undefined-- 41.519
3.08 --undefined-- 41.487
3.09 --undefined-- 39.744
3.10 --undefined-- 37.979
3.11 --undefined-- 39.334
3.12 --undefined-- 42.633
3.13 --undefined-- 45.967
3.14 --undefined-- 47.373
3.15 --undefined-- 47.076
3.16 --undefined-- 47.567
3.17 --undefined-- 50.586
3.18 --undefined-- 56.054
3.19 --undefined-- 62.513
3.20 --undefined-- 67.481
3.21 --undefined-- 70.340
3.22 --undefined-- 72.092
3.23 --undefined-- 72.926
3.24 251.265 71.388
3.25 256.760 68.500
3.26 --undefined-- 72.166
3.27 --undefined-- 75.990
3.28 115.933 77.530
3.29 118.596 77.662
3.30 116.133 77.271
3.31 109.673 77.168
3.32 106.245 77.252
3.33 105.000 77.215
3.34 103.501 77.166
3.35 102.540 77.210
3.36 101.008 77.289
3.37 100.665 77.369
3.38 99.937 77.473
3.39 99.849 77.625
3.40 100.287 77.720
3.41 101.616 77.398
3.42 101.768 76.278
3.43 99.762 73.982
3.44 100.878 69.932
3.45 100.353 63.688
3.46 100.963 56.556
3.47 101.402 53.057
3.48 --undefined-- 52.347
3.49 --undefined-- 55.891
3.50 --undefined-- 65.574
3.51 --undefined-- 72.633
3.52 123.514 75.896
3.53 112.434 76.515
3.54 109.469 76.225
3.55 108.105 75.955
3.56 107.086 75.290
3.57 100.225 74.378
3.58 104.314 74.452
3.59 104.598 75.215
3.60 103.129 75.730
3.61 103.066 76.061
3.62 103.575 76.335
3.63 104.258 76.422
3.64 103.817 76.054
3.65 102.289 74.847
3.66 100.023 72.339
3.67 97.893 68.053
3.68 --undefined-- 61.585
3.69 --undefined-- 54.413
3.70 --undefined-- 52.180
3.71 --undefined-- 52.552
3.72 --undefined-- 53.023
3.73 --undefined-- 53.362
3.74 --undefined-- 53.585
3.75 --undefined-- 55.231
3.76 --undefined-- 63.177
3.77 --undefined-- 70.351
3.78 122.147 74.252
3.79 110.247 75.791
3.80 111.917 76.230
3.81 112.133 76.381
3.82 112.088 76.490
3.83 112.982 76.645
3.84 115.511 76.887
3.85 119.710 77.159
3.86 123.442 77.432
3.87 127.296 77.721
3.88 131.572 77.963
3.89 134.356 78.082
3.90 140.152 78.080
3.91 141.563 77.846
3.92 136.550 77.465
3.93 132.194 77.221
3.94 125.586 77.171
3.95 121.897 77.249
3.96 119.725 77.236
3.97 118.034 77.120
3.98 116.976 77.021
3.99 115.855 77.039
4.00 114.613 77.259
4.01 113.331 77.292
4.02 112.566 76.682
4.03 112.303 75.276
4.04 109.491 73.263
4.05 105.868 70.752
4.06 116.804 67.706
4.07 114.812 63.851
4.08 115.256 60.070
4.09 117.198 57.624
4.10 115.386 55.623
4.11 116.203 54.225
4.12 119.309 56.773
4.13 --undefined-- 64.367
4.14 --undefined-- 69.388
4.15 --undefined-- 71.635
4.16 --undefined-- 74.368
4.17 160.491 76.977
4.18 157.892 77.910
4.19 153.800 77.794
4.20 148.770 77.273
4.21 144.684 76.360
4.22 142.976 75.288
4.23 138.843 74.738
4.24 136.331 75.021
4.25 136.057 75.144
4.26 136.047 74.893
4.27 136.191 75.069
4.28 136.411 75.738
4.29 137.257 76.448
4.30 138.114 76.847
4.31 138.335 76.890
4.32 138.966 76.737
4.33 139.037 76.389
4.34 139.560 75.881
4.35 141.140 75.413
4.36 142.235 74.728
4.37 142.049 74.039
4.38 143.003 74.509
4.39 141.896 75.411
4.40 140.168 75.863
4.41 137.157 75.858
4.42 133.016 75.716
4.43 130.938 75.754
4.44 128.335 75.818
4.45 123.560 75.648
4.46 116.981 75.413
4.47 112.192 75.506
4.48 107.139 75.774
4.49 106.732 75.867
4.50 103.854 75.794
4.51 101.543 75.703
4.52 99.680 75.603
4.53 98.077 75.290
4.54 93.160 74.498
4.55 85.527 73.194
4.56 77.802 72.076
4.57 81.892 72.114
4.58 87.319 72.867
4.59 92.872 73.892
4.60 95.133 74.772
4.61 96.064 75.211
4.62 97.969 75.155
4.63 98.388 74.608
4.64 96.322 73.470
4.65 93.680 71.482
4.66 --undefined-- 68.924
4.67 --undefined-- 68.915
4.68 --undefined-- 70.692
4.69 --undefined-- 72.563
4.70 132.684 75.208
4.71 110.638 76.826
4.72 111.123 77.098
4.73 108.097 76.979
4.74 107.936 77.090
4.75 107.565 77.152
4.76 106.971 77.150
4.77 107.908 77.166
4.78 108.157 77.090
4.79 109.063 77.055
4.80 108.828 76.911
4.81 107.467 76.265
4.82 107.957 75.252
4.83 108.824 74.464
4.84 107.571 74.317
4.85 106.034 74.648
4.86 105.617 75.240
4.87 106.886 76.128
4.88 107.971 76.979
4.89 107.996 77.383
4.90 106.853 77.473
4.91 106.061 77.612
4.92 106.088 77.682
4.93 105.119 77.498
4.94 103.361 77.349
4.95 102.767 77.342
4.96 102.881 77.290
4.97 103.175 77.120
4.98 102.403 76.512
4.99 99.913 75.012
5.00 98.601 72.359
5.01 110.051 68.278
5.02 107.978 62.412
5.03 101.959 56.738
5.04 101.254 55.072
5.05 100.458 54.273
5.06 --undefined-- 54.540
5.07 --undefined-- 56.698
5.08 --undefined-- 57.795
5.09 --undefined-- 62.854
5.10 --undefined-- 70.122
5.11 --undefined-- --undefined--
5.12 107.041 --undefined--
5.13 --undefined-- --undefined--
5.14 --undefined-- --undefined--
