Time Pitch Intensity
0.01 --undefined-- --undefined--
0.02 --undefined-- --undefined--
0.03 --undefined-- --undefined--
0.04 --undefined-- --undefined--
0.05 --undefined-- 56.822
0.06 --undefined-- 56.985
0.07 --undefined-- 58.416
0.08 --undefined-- 57.794
0.09 --undefined-- 54.237
0.10 --undefined-- 50.316
0.11 --undefined-- 49.987
0.12 --undefined-- 54.100
0.13 --undefined-- 57.152
0.14 --undefined-- 57.470
0.15 --undefined-- 56.555
0.16 --undefined-- 56.668
0.17 --undefined-- 55.986
0.18 --undefined-- 53.812
0.19 --undefined-- 52.054
0.20 --undefined-- 51.158
0.21 --undefined-- 52.840
0.22 --undefined-- 55.217
0.23 --undefined-- 57.369
0.24 --undefined-- 60.471
0.25 --undefined-- 63.897
0.26 296.347 66.804
0.27 296.926 68.767
0.28 292.896 69.199
0.29 285.182 67.648
0.30 277.646 64.644
0.31 290.049 64.239
0.32 --undefined-- 65.858
0.33 --undefined-- 65.727
0.34 --undefined-- 64.249
0.35 --undefined-- 63.453
0.36 --undefined-- 62.383
0.37 --undefined-- 60.372
0.38 --undefined-- 57.866
0.39 --undefined-- 55.303
0.40 273.547 56.132
0.41 275.309 57.403
0.42 234.026 58.641
0.43 235.999 62.223
0.44 218.004 65.238
0.45 202.998 66.465
0.46 189.233 66.527
0.47 181.405 66.565
0.48 176.040 66.689
0.49 171.368 66.527
0.50 166.397 66.600
0.51 163.970 67.273
0.52 162.557 67.728
0.53 163.177 67.425
0.54 167.366 66.554
0.55 170.296 65.912
0.56 173.938 66.107
0.57 178.945 67.152
0.58 183.435 68.901
0.59 187.169 70.742
0.60 186.217 72.219
0.61 185.194 73.702
0.62 186.325 75.151
0.63 184.712 75.844
0.64 180.851 75.975
0.65 178.702 76.038
0.66 176.167 75.817
0.67 172.915 74.778
0.68 169.879 72.113
0.69 --undefined-- 67.413
0.70 --undefined-- 61.579
0.71 --undefined-- 57.192
0.72 --undefined-- 54.357
0.73 --undefined-- 51.633
0.74 --undefined-- 51.347
0.75 --undefined-- 51.370
0.76 --undefined-- 49.103
0.77 --undefined-- 48.010
0.78 --undefined-- 49.719
0.79 --undefined-- 51.020
0.80 --undefined-- 51.090
0.81 --undefined-- 50.605
0.82 --undefined-- 51.666
0.83 --undefined-- 52.497
0.84 --undefined-- 51.877
0.85 --undefined-- 51.877
0.86 --undefined-- 52.151
0.87 --undefined-- 51.284
0.88 --undefined-- 50.670
0.89 --undefined-- 50.257
0.90 --undefined-- 48.922
0.91 --undefined-- 48.528
0.92 --undefined-- 50.079
0.93 --undefined-- 50.134
0.94 --undefined-- 49.028
0.95 --undefined-- 50.175
0.96 --undefined-- 50.529
0.97 --undefined-- 49.268
0.98 --undefined-- 48.911
0.99 --undefined-- 48.245
1.00 --undefined-- 47.145
1.01 --undefined-- 47.386
1.02 --undefined-- 54.294
1.03 164.144 62.225
1.04 163.023 67.073
1.05 164.499 70.060
1.06 168.285 72.248
1.07 171.356 73.959
1.08 172.839 75.027
1.09 172.854 75.388
1.10 172.358 75.576
1.11 171.740 75.738
1.12 170.292 75.108
1.13 166.403 73.242
1.14 --undefined-- 70.957
1.15 --undefined-- 69.426
1.16 --undefined-- 67.638
1.17 --undefined-- 64.662
1.18 --undefined-- 60.983
1.19 --undefined-- 57.249
1.20 --undefined-- 55.122
1.21 --undefined-- 53.913
1.22 --undefined-- 53.292
1.23 --undefined-- 56.445
1.24 --undefined-- 60.198
1.25 220.357 62.593
1.26 224.115 64.168
1.27 219.185 64.967
1.28 212.795 66.191
1.29 205.880 68.795
1.30 203.559 70.378
1.31 205.418 70.349
1.32 208.109 69.790
1.33 210.882 69.622
1.34 212.421 69.760
1.35 214.051 69.872
1.36 217.137 69.826
1.37 219.853 69.341
1.38 222.341 68.221
1.39 223.850 66.678
1.40 224.924 65.435
1.41 233.644 65.224
1.42 235.483 65.361
1.43 238.803 65.208
1.44 244.107 64.781
1.45 247.606 63.736
1.46 241.002 61.920
1.47 239.229 60.416
1.48 223.582 59.470
1.49 220.210 58.166
1.50 219.526 57.311
1.51 249.103 57.768
1.52 249.375 60.259
1.53 287.531 63.695
1.54 294.506 66.615
1.55 284.849 68.619
1.56 280.335 69.812
1.57 276.814 70.048
1.58 274.545 69.159
1.59 273.804 67.340
1.60 269.443 65.008
1.61 267.600 63.036
1.62 276.727 62.533
1.63 --undefined-- 64.145
1.64 --undefined-- 65.012
1.65 --undefined-- 62.737
1.66 --undefined-- 57.762
1.67 --undefined-- 54.571
1.68 --undefined-- 54.054
1.69 --undefined-- 54.236
1.70 --undefined-- 55.123
1.71 --undefined-- 54.990
1.72 --undefined-- 52.880
1.73 --undefined-- 56.842
1.74 --undefined-- 63.103
1.75 293.777 66.739
1.76 294.333 68.917
1.77 294.938 71.151
1.78 293.541 73.083
1.79 290.408 74.043
1.80 291.004 74.100
1.81 292.467 72.992
1.82 292.081 70.577
1.83 289.513 67.305
1.84 289.863 63.152
1.85 289.493 58.025
1.86 289.720 55.342
1.87 --undefined-- 53.660
1.88 --undefined-- 51.910
1.89 --undefined-- 52.301
1.90 --undefined-- 52.728
1.91 --undefined-- 53.098
1.92 --undefined-- 53.132
1.93 --undefined-- 52.878
1.94 --undefined-- 54.071
1.95 --undefined-- 55.574
1.96 --undefined-- 54.998
1.97 --undefined-- 54.654
1.98 --undefined-- 58.755
1.99 285.619 63.909
2.00 277.425 67.568
2.01 276.337 69.871
2.02 279.449 71.550
2.03 281.338 72.779
2.04 282.384 73.362
2.05 282.698 73.091
2.06 281.888 72.081
2.07 281.404 70.913
2.08 281.072 69.874
2.09 279.851 68.967
2.10 278.786 68.198
2.11 279.861 67.695
2.12 282.936 67.446
2.13 284.028 66.607
2.14 281.687 64.289
2.15 280.314 60.147
2.16 281.444 54.486
2.17 --undefined-- 51.030
2.18 --undefined-- 53.585
2.19 --undefined-- 55.861
2.20 --undefined-- 60.061
2.21 177.392 65.362
2.22 178.238 68.686
2.23 180.756 70.604
2.24 181.130 71.946
2.25 181.820 72.515
2.26 184.508 71.968
2.27 187.508 70.742
2.28 184.018 69.736
2.29 173.905 69.202
2.30 172.286 68.897
2.31 164.831 68.822
2.32 --undefined-- 69.162
2.33 --undefined-- 69.421
2.34 --undefined-- 68.973
2.35 --undefined-- 67.880
2.36 --undefined-- 66.671
2.37 --undefined-- 64.922
2.38 147.015 62.934
2.39 148.796 62.297
2.40 150.391 62.517
2.41 150.095 62.519
2.42 149.644 62.278
2.43 149.856 61.788
2.44 150.861 61.017
2.45 152.456 59.923
2.46 151.908 57.952
2.47 152.899 54.663
2.48 --undefined-- 52.179
2.49 --undefined-- 52.860
2.50 --undefined-- 54.634
2.51 --undefined-- 56.780
2.52 --undefined-- 58.616
2.53 --undefined-- 59.287
2.54 --undefined-- 58.586
2.55 --undefined-- 58.976
2.56 180.204 60.627
2.57 168.515 61.318
2.58 159.691 61.266
2.59 154.705 61.351
2.60 150.952 61.423
2.61 149.040 61.557
2.62 150.302 62.095
2.63 152.054 62.566
2.64 154.248 62.967
2.65 158.583 63.222
2.66 166.300 62.965
2.67 181.211 62.726
2.68 189.925 63.281
2.69 195.238 63.434
2.70 200.856 62.073
2.71 197.891 59.367
2.72 194.168 56.134
2.73 --undefined-- 53.302
2.74 --undefined-- 54.139
2.75 --undefined-- 55.684
2.76 --undefined-- 54.759
2.77 --undefined-- 52.887
2.78 --undefined-- 55.921
2.79 --undefined-- 62.276
2.80 148.961 67.114
2.81 150.498 70.152
2.82 151.617 71.576
2.83 152.332 71.487
2.84 155.537 70.195
2.85 156.125 68.178
2.86 148.002 65.658
2.87 136.276 62.680
2.88 --undefined-- 59.627
2.89 --undefined-- 56.239
2.90 --undefined-- 52.026
2.91 --undefined-- 48.192
2.92 --undefined-- 47.516
2.93 --undefined-- 47.973
2.94 --undefined-- 46.110
2.95 --undefined-- 44.191
2.96 --undefined-- 47.361
2.97 --undefined-- 49.792
2.98 --undefined-- 49.985
2.99 --undefined-- 49.426
3.00 --undefined-- 52.370
3.01 191.836 57.024
3.02 203.438 60.039
3.03 214.998 62.058
3.04 224.070 63.758
3.05 221.283 64.803
3.06 206.890 65.247
3.07 205.268 65.990
3.08 193.892 67.533
3.09 186.081 68.699
3.10 181.316 67.883
3.11 176.703 64.329
3.12 184.376 58.236
3.13 --undefined-- 51.885
3.14 --undefined-- 49.847
3.15 --undefined-- 51.796
3.16 --undefined-- 53.985
3.17 --undefined-- 54.622
3.18 --undefined-- 52.941
3.19 --undefined-- 49.820
3.20 --undefined-- 47.727
3.21 --undefined-- 46.719
3.22 --undefined-- 49.832
3.23 --undefined-- 54.810
3.24 --undefined-- 57.605
3.25 201.067 58.561
3.26 193.432 58.577
3.27 182.077 57.972
3.28 172.349 57.499
3.29 172.026 59.702
3.30 188.580 64.081
3.31 197.329 67.161
3.32 196.317 68.296
3.33 192.764 68.535
3.34 187.140 68.601
3.35 182.502 67.968
3.36 179.379 66.015
3.37 175.268 62.253
3.38 --undefined-- 56.793
3.39 --undefined-- 51.284
3.40 --undefined-- 48.504
3.41 --undefined-- 47.481
3.42 --undefined-- 45.528
3.43 --undefined-- 46.334
3.44 --undefined-- 49.383
3.45 --undefined-- 51.928
3.46 --undefined-- 52.691
3.47 --undefined-- 52.379
3.48 --undefined-- 54.024
3.49 --undefined-- 54.693
3.50 --undefined-- 52.588
3.51 --undefined-- 49.060
3.52 --undefined-- 47.893
3.53 --undefined-- 47.564
3.54 --undefined-- 46.495
3.55 --undefined-- 49.033
3.56 --undefined-- 50.960
3.57 --undefined-- 51.634
3.58 --undefined-- 57.735
3.59 229.671 63.533
3.60 218.858 66.790
3.61 205.762 68.149
3.62 199.120 68.469
3.63 196.662 68.385
3.64 196.338 67.954
3.65 196.134 67.150
3.66 197.475 66.436
3.67 197.103 66.066
3.68 196.163 66.209
3.69 195.167 67.203
3.70 192.481 68.605
3.71 191.192 69.701
3.72 189.866 70.174
3.73 188.901 70.018
3.74 187.198 69.195
3.75 184.633 67.305
3.76 176.672 63.852
3.77 175.751 60.448
3.78 191.284 62.285
3.79 193.233 65.002
3.80 195.224 66.467
3.81 195.267 67.112
3.82 195.226 67.340
3.83 195.608 67.464
3.84 195.855 67.591
3.85 195.476 67.621
3.86 195.622 67.197
3.87 197.198 66.081
3.88 198.433 64.312
3.89 196.412 61.527
3.90 186.062 57.532
3.91 197.159 53.792
3.92 --undefined-- 51.608
3.93 --undefined-- 51.215
3.94 --undefined-- 53.775
3.95 --undefined-- 58.351
3.96 --undefined-- 62.826
3.97 190.371 65.482
3.98 182.813 66.594
3.99 173.837 66.691
4.00 171.924 66.202
4.01 171.105 65.702
4.02 172.106 65.510
4.03 172.148 65.490
4.04 173.554 65.499
4.05 176.060 65.415
4.06 177.946 64.629
4.07 178.105 62.172
4.08 179.216 57.646
4.09 --undefined-- 53.719
4.10 --undefined-- 53.885
4.11 --undefined-- 56.010
4.12 226.674 60.704
4.13 228.391 64.376
4.14 231.287 66.358
4.15 232.871 67.166
4.16 233.785 66.755
4.17 234.140 64.397
4.18 233.278 59.267
4.19 --undefined-- 52.440
4.20 --undefined-- 50.209
4.21 --undefined-- 49.865
4.22 --undefined-- 50.996
4.23 --undefined-- 51.959
4.24 --undefined-- 51.301
4.25 --undefined-- 54.788
4.26 258.279 61.995
4.27 241.502 66.995
4.28 234.399 69.336
4.29 231.367 69.378
4.30 233.687 67.924
4.31 235.390 66.261
4.32 237.124 65.317
4.33 237.651 65.048
4.34 237.329 65.044
4.35 236.773 64.988
4.36 234.379 64.901
4.37 230.776 64.712
4.38 226.238 64.318
4.39 219.761 63.841
4.40 210.180 63.528
4.41 198.838 63.714
4.42 188.801 64.910
4.43 185.591 66.543
4.44 183.558 67.385
4.45 173.762 67.038
4.46 173.483 66.088
4.47 178.836 65.792
4.48 179.910 66.085
4.49 180.742 66.054
4.50 180.863 65.416
4.51 177.469 64.321
4.52 180.551 63.719
4.53 185.407 64.128
4.54 187.957 64.437
4.55 191.663 64.156
4.56 193.728 63.485
4.57 195.476 62.650
4.58 196.769 61.990
4.59 196.375 61.918
4.60 193.162 62.504
4.61 188.557 63.390
4.62 184.814 64.064
4.63 184.406 64.357
4.64 164.901 64.278
4.65 161.047 63.818
4.66 160.580 63.002
4.67 160.842 61.602
4.68 161.221 59.738
4.69 158.985 58.606
4.70 153.415 58.459
4.71 151.176 58.568
4.72 149.675 58.824
4.73 149.340 58.954
4.74 150.432 59.439
4.75 152.499 60.239
4.76 153.479 60.240
4.77 153.574 59.855
4.78 154.537 59.886
4.79 155.332 60.038
4.80 153.947 59.761
4.81 151.049 59.254
4.82 155.637 60.325
4.83 160.470 62.840
4.84 158.284 64.291
4.85 155.897 64.047
4.86 153.718 62.299
4.87 150.522 59.604
4.88 147.404 56.794
4.89 --undefined-- 53.181
4.90 --undefined-- 48.799
4.91 --undefined-- 46.855
4.92 --undefined-- 47.753
4.93 --undefined-- 49.643
4.94 --undefined-- 50.245
4.95 --undefined-- 49.333
4.96 --undefined-- 47.541
4.97 --undefined-- 47.296
4.98 --undefined-- 47.353
4.99 --undefined-- 46.728
5.00 --undefined-- 49.677
5.01 --undefined-- 54.380
5.02 --undefined-- 60.054
5.03 204.876 64.541
5.04 198.492 67.737
5.05 192.742 70.552
5.06 191.701 72.610
5.07 190.463 --undefined--
5.08 189.334 --undefined--
5.09 --undefined-- --undefined--
5.10 --undefined-- --undefined--
