Time Pitch Intensity
0.01 --undefined-- --undefined--
0.02 179.832 --undefined--
0.03 177.949 --undefined--
0.04 175.240 --undefined--
0.05 173.242 70.599
0.06 171.320 70.712
0.07 169.400 70.547
0.08 167.773 70.442
0.09 166.526 70.424
0.10 166.235 70.498
0.11 166.351 70.628
0.12 166.627 70.654
0.13 166.402 70.624
0.14 165.963 70.621
0.15 165.518 70.676
0.16 165.068 70.721
0.17 165.703 70.456
0.18 166.823 69.701
0.19 167.271 68.508
0.20 166.876 66.872
0.21 165.215 64.786
0.22 160.565 62.486
0.23 161.426 60.636
0.24 --undefined-- 59.626
0.25 --undefined-- 59.403
0.26 --undefined-- 61.545
0.27 181.674 65.625
0.28 189.521 69.646
0.29 192.892 72.402
0.30 190.665 73.584
0.31 188.185 73.281
0.32 184.610 71.812
0.33 171.753 69.644
0.34 183.327 67.503
0.35 195.063 65.250
0.36 192.531 61.872
0.37 --undefined-- 57.251
0.38 --undefined-- 52.404
0.39 --undefined-- 51.486
0.40 83.698 56.923
0.41 115.962 62.228
0.42 122.171 65.763
0.43 139.480 67.794
0.44 154.555 69.488
0.45 157.339 70.992
0.46 159.499 71.900
0.47 158.620 72.205
0.48 155.206 71.976
0.49 150.037 71.242
0.50 143.557 69.894
0.51 140.344 67.638
0.52 135.739 64.113
0.53 133.275 59.129
0.54 139.146 53.224
0.55 --undefined-- 47.701
0.56 --undefined-- 45.225
0.57 --undefined-- 44.954
0.58 --undefined-- 43.795
0.59 --undefined-- 45.728
0.60 --undefined-- 55.826
0.61 --undefined-- 63.239
0.62 161.378 67.450
0.63 162.379 69.959
0.64 163.898 71.604
0.65 164.981 72.658
0.66 168.659 73.397
0.67 173.468 73.896
0.68 177.995 73.930
0.69 183.469 73.313
0.70 196.769 72.535
0.71 209.676 72.242
0.72 220.410 72.108
0.73 230.210 71.646
0.74 238.135 70.786
0.75 235.752 69.961
0.76 239.706 69.493
0.77 247.289 69.067
0.78 255.292 68.517
0.79 256.733 68.456
0.80 253.048 69.414
0.81 245.098 70.907
0.82 235.304 71.984
0.83 226.940 72.331
0.84 221.338 72.360
0.85 219.344 72.458
0.86 218.279 72.113
0.87 214.825 70.250
0.88 204.750 66.509
0.89 218.764 61.351
0.90 --undefined-- 54.608
0.91 --undefined-- 45.942
0.92 --undefined-- 41.183
0.93 --undefined-- 39.018
0.94 --undefined-- 39.162
0.95 --undefined-- 52.588
0.96 --undefined-- 62.864
0.97 --undefined-- 68.722
0.98 159.287 71.265
0.99 157.709 71.632
1.00 155.614 71.196
1.01 155.812 70.985
1.02 158.991 71.151
1.03 162.391 71.311
1.04 164.545 71.291
1.05 168.362 71.301
1.06 177.725 71.503
1.07 187.240 71.732
1.08 196.316 71.759
1.09 206.128 71.471
1.10 214.667 70.507
1.11 211.385 68.196
1.12 213.322 64.239
1.13 230.906 58.645
1.14 --undefined-- 51.131
1.15 --undefined-- 44.099
1.16 --undefined-- 42.510
1.17 --undefined-- 47.919
1.18 --undefined-- 59.280
1.19 --undefined-- 67.596
1.20 222.503 72.187
1.21 216.922 73.806
1.22 205.857 73.531
1.23 200.602 72.626
1.24 196.605 71.821
1.25 192.881 71.501
1.26 189.633 71.416
1.27 187.649 71.213
1.28 185.445 70.942
1.29 182.873 70.850
1.30 180.887 71.202
1.31 181.661 71.714
1.32 181.415 72.020
1.33 181.901 72.238
1.34 182.754 72.459
1.35 183.875 72.607
1.36 184.788 72.651
1.37 185.820 72.614
1.38 186.458 72.450
1.39 186.375 72.038
1.40 184.976 71.226
1.41 182.175 69.923
1.42 173.785 68.148
1.43 --undefined-- 66.499
1.44 234.097 65.111
1.45 243.447 62.451
1.46 246.779 58.347
1.47 --undefined-- 53.043
1.48 --undefined-- 45.165
1.49 --undefined-- 36.874
1.50 --undefined-- 35.564
1.51 --undefined-- 35.590
1.52 --undefined-- 36.234
1.53 --undefined-- 39.460
1.54 --undefined-- 41.416
1.55 --undefined-- 42.259
1.56 --undefined-- 45.492
1.57 --undefined-- 55.044
1.58 --undefined-- 64.788
1.59 210.811 70.595
1.60 200.514 72.961
1.61 194.754 73.097
1.62 190.198 72.525
1.63 187.721 72.209
1.64 186.254 72.319
1.65 186.436 72.755
1.66 187.430 73.132
1.67 187.213 73.193
1.68 187.271 73.039
1.69 187.308 72.750
1.70 186.956 72.156
1.71 183.769 70.840
1.72 179.541 68.315
1.73 176.551 64.031
1.74 --undefined-- 57.304
1.75 --undefined-- 48.122
1.76 --undefined-- 43.438
1.77 --undefined-- 43.477
1.78 --undefined-- 43.344
1.79 --undefined-- 42.349
1.80 --undefined-- 41.157
1.81 --undefined-- 40.731
1.82 --undefined-- 46.257
1.83 --undefined-- 55.166
1.84 --undefined-- 60.546
1.85 --undefined-- 63.324
1.86 155.158 64.897
1.87 154.991 66.063
1.88 155.967 67.030
1.89 157.564 67.850
1.90 159.301 68.521
1.91 161.260 69.189
1.92 164.824 70.009
1.93 167.802 70.837
1.94 171.348 71.472
1.95 175.735 71.917
1.96 180.489 72.227
1.97 185.754 72.326
1.98 191.904 72.156
1.99 197.805 71.646
2.00 201.835 70.753
2.01 203.820 69.688
2.02 205.684 68.497
2.03 204.886 66.612
2.04 199.970 63.559
2.05 204.481 59.528
2.06 --undefined-- 56.753
2.07 --undefined-- 55.749
2.08 --undefined-- 53.792
2.09 --undefined-- 51.448
2.10 --undefined-- 56.199
2.11 205.881 63.455
2.12 189.718 67.910
2.13 171.685 70.636
2.14 166.796 72.833
2.15 167.320 74.451
2.16 170.313 75.247
2.17 175.972 75.347
2.18 183.622 74.814
2.19 191.490 73.726
2.20 201.851 72.839
2.21 209.404 72.474
2.22 215.919 72.304
2.23 222.271 71.889
2.24 223.681 71.065
2.25 222.036 70.468
2.26 223.079 70.552
2.27 223.522 71.037
2.28 222.133 71.546
2.29 218.250 71.809
2.30 211.800 71.666
2.31 205.049 71.026
2.32 194.713 70.110
2.33 190.054 69.513
2.34 185.080 69.159
2.35 182.180 68.123
2.36 178.433 65.823
2.37 178.238 62.228
2.38 192.589 57.006
2.39 --undefined-- 49.125
2.40 --undefined-- 39.087
2.41 --undefined-- 34.773
2.42 --undefined-- 34.574
2.43 --undefined-- 45.340
2.44 --undefined-- 53.592
2.45 --undefined-- 58.027
2.46 --undefined-- 59.497
2.47 --undefined-- 58.916
2.48 --undefined-- 58.007
2.49 --undefined-- 58.455
2.50 --undefined-- 62.173
2.51 204.393 66.606
2.52 200.485 69.398
2.53 191.011 71.127
2.54 184.034 72.576
2.55 176.882 73.499
2.56 172.025 73.336
2.57 170.037 71.855
2.58 168.618 68.964
2.59 166.891 64.306
2.60 --undefined-- 57.564
2.61 --undefined-- 49.172
2.62 --undefined-- 39.638
2.63 --undefined-- 32.430
2.64 --undefined-- 32.619
2.65 --undefined-- 34.511
2.66 --undefined-- 34.877
2.67 --undefined-- 36.183
2.68 --undefined-- 40.004
2.69 --undefined-- 52.004
2.70 --undefined-- 61.867
2.71 168.964 67.425
2.72 165.636 69.809
2.73 157.729 70.387
2.74 153.360 70.443
2.75 151.731 70.465
2.76 151.200 70.461
2.77 151.700 70.413
2.78 153.668 70.445
2.79 155.707 70.702
2.80 157.911 71.023
2.81 159.685 71.122
2.82 161.653 70.942
2.83 165.174 70.759
2.84 169.590 70.837
2.85 174.426 71.127
2.86 180.109 71.394
2.87 185.330 71.455
2.88 189.674 71.318
2.89 194.122 71.155
2.90 198.235 71.070
2.91 201.968 70.677
2.92 203.293 69.037
2.93 199.508 65.390
2.94 195.616 59.773
2.95 --undefined-- 52.652
2.96 --undefined-- 44.012
2.97 --undefined-- 38.513
2.98 --undefined-- 38.253
2.99 --undefined-- 38.436
3.00 --undefined-- 38.531
3.01 --undefined-- 39.238
3.02 --undefined-- 41.640
3.03 --undefined-- 50.848
3.04 --undefined-- 61.469
3.05 --undefined-- 67.879
3.06 194.015 70.903
3.07 183.712 71.941
3.08 174.366 72.186
3.09 165.080 71.279
3.10 --undefined-- 68.238
3.11 --undefined-- 62.854
3.12 76.720 57.464
3.13 77.885 55.197
3.14 --undefined-- 55.908
3.15 --undefined-- 58.989
3.16 154.928 61.572
3.17 163.945 63.090
3.18 168.602 63.767
3.19 170.874 64.253
3.20 173.318 65.726
3.21 177.722 68.094
3.22 176.018 69.685
3.23 173.294 69.843
3.24 169.586 68.669
3.25 165.164 66.144
3.26 159.618 61.976
3.27 148.820 55.843
3.28 --undefined-- 47.590
3.29 --undefined-- 39.490
3.30 --undefined-- 41.662
3.31 --undefined-- 45.492
3.32 --undefined-- 46.268
3.33 --undefined-- 45.200
3.34 --undefined-- 44.341
3.35 --undefined-- 43.936
3.36 --undefined-- 43.680
3.37 --undefined-- 43.066
3.38 --undefined-- 43.147
3.39 --undefined-- 44.383
3.40 --undefined-- 52.528
3.41 --undefined-- 60.800
3.42 192.238 65.349
3.43 188.219 67.224
3.44 183.432 67.832
3.45 180.537 68.083
3.46 178.825 68.126
3.47 177.395 67.938
3.48 175.803 67.473
3.49 174.423 66.528
3.50 172.384 64.649
3.51 169.706 61.471
3.52 174.087 57.064
3.53 --undefined-- 51.791
3.54 --undefined-- 52.063
3.55 --undefined-- 59.875
3.56 179.804 65.258
3.57 178.351 67.851
3.58 175.523 68.818
3.59 173.608 69.045
3.60 173.304 68.864
3.61 172.320 68.009
3.62 169.690 65.982
3.63 171.078 63.238
3.64 163.278 60.573
3.65 164.910 57.771
3.66 157.736 57.892
3.67 186.028 63.458
3.68 178.336 67.151
3.69 168.612 68.480
3.70 163.889 68.653
3.71 161.634 68.548
3.72 160.179 68.300
3.73 159.933 68.024
3.74 161.260 67.837
3.75 163.641 67.721
3.76 166.337 67.658
3.77 169.461 67.672
3.78 173.418 67.776
3.79 175.776 67.936
3.80 176.639 68.094
3.81 176.354 68.148
3.82 175.243 68.150
3.83 177.273 67.910
3.84 181.770 66.721
3.85 182.623 64.313
3.86 180.940 61.355
3.87 181.444 58.978
3.88 171.364 58.096
3.89 170.621 59.612
3.90 181.180 62.782
3.91 180.157 65.074
3.92 173.461 65.869
3.93 163.213 65.793
3.94 158.273 65.420
3.95 152.446 64.841
3.96 149.097 64.118
3.97 146.236 63.482
3.98 144.092 63.029
3.99 142.556 62.863
4.00 141.734 63.048
4.01 139.873 63.532
4.02 137.942 64.205
4.03 136.845 64.904
4.04 137.152 65.496
4.05 137.838 65.840
4.06 138.925 65.811
4.07 140.521 65.605
4.08 141.005 65.438
4.09 139.708 65.158
4.10 137.051 64.519
4.11 132.238 63.479
4.12 128.494 61.959
4.13 122.403 59.644
4.14 --undefined-- 55.905
4.15 --undefined-- 49.974
4.16 --undefined-- 41.080
4.17 --undefined-- 34.337
4.18 --undefined-- 33.713
4.19 --undefined-- 33.993
4.20 --undefined-- 34.959
4.21 --undefined-- 36.479
4.22 --undefined-- 37.399
4.23 --undefined-- 37.790
4.24 --undefined-- 38.373
4.25 --undefined-- 38.849
4.26 --undefined-- 38.361
4.27 --undefined-- 37.153
4.28 --undefined-- 36.359
4.29 --undefined-- 35.729
4.30 --undefined-- 35.446
4.31 --undefined-- 35.563
4.32 --undefined-- 34.879
4.33 --undefined-- 32.931
4.34 --undefined-- 31.535
4.35 --undefined-- 32.050
4.36 --undefined-- 32.918
4.37 --undefined-- 33.627
4.38 --undefined-- 33.307
4.39 --undefined-- 33.237
4.40 --undefined-- 35.195
4.41 --undefined-- 36.798
4.42 --undefined-- 37.510
4.43 --undefined-- 39.469
4.44 --undefined-- 41.532
4.45 --undefined-- 49.969
4.46 --undefined-- 61.262
4.47 261.571 68.371
4.48 260.127 72.219
4.49 259.979 73.925
4.50 259.903 74.333
4.51 258.436 73.525
4.52 250.631 70.829
4.53 238.961 65.459
4.54 --undefined-- 56.886
4.55 --undefined-- 46.045
4.56 --undefined-- 40.118
4.57 --undefined-- 39.207
4.58 --undefined-- 38.360
4.59 --undefined-- 41.978
4.60 --undefined-- 54.844
4.61 --undefined-- 64.546
4.62 226.564 70.044
4.63 218.998 72.196
4.64 207.368 72.229
4.65 200.756 71.631
4.66 196.239 71.352
4.67 193.609 71.365
4.68 191.696 71.397
4.69 189.588 71.336
4.70 187.712 71.169
4.71 185.730 70.884
4.72 184.633 70.555
4.73 183.166 70.230
4.74 181.782 69.879
4.75 180.537 69.490
4.76 179.704 69.001
4.77 178.726 68.579
4.78 179.480 68.914
4.79 183.410 69.548
4.80 182.646 69.767
4.81 183.090 69.821
4.82 184.248 69.896
4.83 185.062 69.875
4.84 185.135 69.530
4.85 184.511 68.440
4.86 184.548 66.065
4.87 190.517 61.750
4.88 --undefined-- 54.817
4.89 --undefined-- 44.090
4.90 --undefined-- 34.473
4.91 --undefined-- 45.403
4.92 --undefined-- 57.158
4.93 --undefined-- 64.703
4.94 178.254 68.488
4.95 172.918 69.868
4.96 165.745 70.194
4.97 163.752 70.165
4.98 163.634 69.775
4.99 164.514 69.125
5.00 166.068 68.553
5.01 172.509 68.179
5.02 178.029 67.962
5.03 185.846 67.800
5.04 190.578 67.199
5.05 193.570 65.360
5.06 195.314 61.548
5.07 214.534 55.745
5.08 --undefined-- 47.868
5.09 --undefined-- 46.010
5.10 --undefined-- 58.123
5.11 238.095 65.939
5.12 226.438 69.772
5.13 205.852 70.757
5.14 194.856 70.442
5.15 187.608 70.046
5.16 183.042 69.738
5.17 179.948 69.474
5.18 177.603 69.197
5.19 176.372 68.793
5.20 174.049 68.047
5.21 171.097 66.662
5.22 167.068 64.072
5.23 170.636 59.587
5.24 --undefined-- 52.478
5.25 --undefined-- 42.093
5.26 --undefined-- 34.133
5.27 --undefined-- 33.300
5.28 --undefined-- 31.956
5.29 --undefined-- 34.775
5.30 --undefined-- 45.263
5.31 --undefined-- 55.706
5.32 --undefined-- 62.600
5.33 --undefined-- 65.943
5.34 152.278 66.772
5.35 149.668 66.624
5.36 142.805 66.422
5.37 142.700 66.324
5.38 144.188 66.470
5.39 148.810 66.906
5.40 153.927 67.502
5.41 164.423 67.913
5.42 169.610 67.936
5.43 175.180 68.426
5.44 189.409 69.450
5.45 194.002 69.795
5.46 198.789 68.849
5.47 202.755 66.037
5.48 210.676 60.673
5.49 --undefined-- 52.874
5.50 --undefined-- 50.123
5.51 --undefined-- 53.877
5.52 218.079 60.506
5.53 210.687 64.690
5.54 194.363 66.019
5.55 173.599 65.729
5.56 157.736 65.359
5.57 145.918 65.542
5.58 139.336 65.818
5.59 136.035 65.583
5.60 136.520 64.378
5.61 136.862 61.723
5.62 --undefined-- 56.830
5.63 --undefined-- 48.877
5.64 --undefined-- 37.454
5.65 --undefined-- 32.585
5.66 --undefined-- 36.034
5.67 --undefined-- 41.664
5.68 --undefined-- --undefined--
5.69 --undefined-- --undefined--
5.70 --undefined-- --undefined--
5.71 --undefined-- --undefined--
