Time Pitch Intensity
0.01 --undefined-- --undefined--
0.02 --undefined-- --undefined--
0.03 --undefined-- --undefined--
0.04 --undefined-- --undefined--
0.05 --undefined-- 55.648
0.06 --undefined-- 55.933
0.07 --undefined-- 53.136
0.08 --undefined-- 59.113
0.09 --undefined-- 67.414
0.10 226.714 71.850
0.11 211.115 73.128
0.12 205.818 72.579
0.13 195.934 71.698
0.14 181.835 70.953
0.15 183.506 69.861
0.16 --undefined-- 67.404
0.17 --undefined-- 62.794
0.18 188.532 56.580
0.19 183.076 52.463
0.20 178.264 50.032
0.21 --undefined-- 47.961
0.22 --undefined-- 48.967
0.23 --undefined-- 54.501
0.24 --undefined-- 61.650
0.25 --undefined-- 65.913
0.26 --undefined-- 67.447
0.27 --undefined-- 68.103
0.28 --undefined-- 69.556
0.29 --undefined-- 70.713
0.30 --undefined-- 71.569
0.31 --undefined-- 72.128
0.32 --undefined-- 71.777
0.33 --undefined-- 71.232
0.34 --undefined-- 71.551
0.35 --undefined-- 71.705
0.36 --undefined-- 71.137
0.37 --undefined-- 70.473
0.38 --undefined-- 69.073
0.39 --undefined-- 65.785
0.40 --undefined-- 60.431
0.41 --undefined-- 54.260
0.42 --undefined-- 49.422
0.43 --undefined-- 52.749
0.44 --undefined-- 61.781
0.45 --undefined-- 66.904
0.46 181.897 68.345
0.47 184.559 67.533
0.48 185.295 67.542
0.49 235.697 69.494
0.50 240.872 71.262
0.51 236.574 72.170
0.52 198.194 72.076
0.53 169.397 71.023
0.54 166.331 69.595
0.55 162.572 67.709
0.56 158.906 64.223
0.57 --undefined-- 58.332
0.58 --undefined-- 51.385
0.59 --undefined-- 49.345
0.60 --undefined-- 54.944
0.61 --undefined-- 61.938
0.62 --undefined-- 66.549
0.63 --undefined-- 68.776
0.64 --undefined-- 68.985
0.65 --undefined-- 67.838
0.66 --undefined-- 66.648
0.67 --undefined-- 66.154
0.68 --undefined-- 65.904
0.69 --undefined-- 65.874
0.70 --undefined-- 66.487
0.71 --undefined-- 67.539
0.72 --undefined-- 68.743
0.73 --undefined-- 69.501
0.74 209.926 70.037
0.75 209.018 70.891
0.76 196.651 71.332
0.77 178.588 71.163
0.78 166.071 70.029
0.79 156.512 67.147
0.80 120.809 62.005
0.81 120.759 54.563
0.82 --undefined-- 47.268
0.83 --undefined-- 44.813
0.84 --undefined-- 44.139
0.85 --undefined-- 42.863
0.86 --undefined-- 41.353
0.87 --undefined-- 45.091
0.88 --undefined-- 56.531
0.89 --undefined-- 65.105
0.90 233.157 69.756
0.91 225.106 71.399
0.92 220.686 71.033
0.93 223.262 69.677
0.94 227.817 68.689
0.95 236.058 69.535
0.96 246.672 71.419
0.97 253.754 73.083
0.98 261.598 74.114
0.99 270.014 74.556
1.00 275.685 74.788
1.01 277.702 74.936
1.02 277.899 74.857
1.03 280.584 74.482
1.04 280.208 73.660
1.05 275.919 72.689
1.06 276.876 72.301
1.07 278.842 72.226
1.08 279.874 71.992
1.09 280.223 71.688
1.10 278.999 71.619
1.11 270.044 71.735
1.12 262.999 71.833
1.13 260.505 72.152
1.14 258.047 72.615
1.15 255.609 72.087
1.16 255.177 69.517
1.17 241.225 65.252
1.18 238.426 62.046
1.19 244.155 59.010
1.20 257.743 53.913
1.21 264.592 56.476
1.22 249.958 65.054
1.23 245.740 69.810
1.24 219.038 71.538
1.25 209.067 71.540
1.26 196.859 70.887
1.27 190.624 70.207
1.28 187.076 69.711
1.29 185.072 69.173
1.30 185.536 68.693
1.31 185.835 68.303
1.32 184.454 67.810
1.33 182.649 67.182
1.34 181.241 66.259
1.35 180.347 64.745
1.36 180.528 62.660
1.37 180.504 60.503
1.38 182.677 57.740
1.39 183.790 53.187
1.40 --undefined-- 47.011
1.41 --undefined-- 45.908
1.42 --undefined-- 56.616
1.43 --undefined-- 65.227
1.44 287.206 69.838
1.45 279.953 71.477
1.46 273.582 71.507
1.47 269.075 71.319
1.48 265.484 71.414
1.49 262.884 71.685
1.50 260.634 71.934
1.51 257.722 72.029
1.52 252.884 72.063
1.53 246.587 71.980
1.54 238.939 71.880
1.55 232.487 71.776
1.56 225.107 71.649
1.57 220.142 71.587
1.58 214.327 71.299
1.59 210.325 70.819
1.60 206.661 70.389
1.61 198.214 69.979
1.62 194.454 69.744
1.63 191.570 69.820
1.64 190.591 70.079
1.65 191.414 70.246
1.66 192.203 70.191
1.67 190.511 69.834
1.68 188.581 68.807
1.69 185.449 66.492
1.70 178.131 62.510
1.71 --undefined-- 56.868
1.72 --undefined-- 50.335
1.73 --undefined-- 49.096
1.74 --undefined-- 52.626
1.75 --undefined-- 55.284
1.76 --undefined-- 56.324
1.77 --undefined-- 57.313
1.78 152.253 58.258
1.79 152.109 57.570
1.80 151.439 54.919
1.81 --undefined-- 51.603
1.82 --undefined-- 49.235
1.83 --undefined-- 47.524
1.84 --undefined-- 45.916
1.85 --undefined-- 43.985
1.86 --undefined-- 41.517
1.87 --undefined-- 38.970
1.88 --undefined-- 37.349
1.89 --undefined-- 37.315
1.90 --undefined-- 37.631
1.91 --undefined-- 36.946
1.92 --undefined-- 35.337
1.93 --undefined-- 34.463
1.94 --undefined-- 36.720
1.95 --undefined-- 45.645
1.96 --undefined-- 55.295
1.97 201.828 61.489
1.98 187.660 65.414
1.99 190.392 68.254
2.00 195.752 70.353
2.01 200.785 71.879
2.02 205.097 72.986
2.03 208.909 73.764
2.04 213.909 74.113
2.05 219.212 74.035
2.06 225.254 73.895
2.07 230.779 74.072
2.08 240.249 74.408
2.09 248.116 74.692
2.10 254.232 74.791
2.11 264.288 74.552
2.12 273.786 74.202
2.13 282.009 74.005
2.14 288.848 73.624
2.15 294.945 72.546
2.16 294.793 69.993
2.17 261.908 65.363
2.18 257.715 60.325
2.19 264.864 57.687
2.20 282.296 55.334
2.21 288.883 51.981
2.22 --undefined-- 47.733
2.23 --undefined-- 44.612
2.24 --undefined-- 42.447
2.25 --undefined-- 46.101
2.26 --undefined-- 58.660
2.27 --undefined-- 66.578
2.28 285.512 70.348
2.29 268.659 71.161
2.30 255.401 70.693
2.31 245.393 70.378
2.32 237.323 70.231
2.33 233.067 69.677
2.34 230.341 67.617
2.35 204.317 63.642
2.36 206.302 59.405
2.37 213.901 55.104
2.38 --undefined-- 49.718
2.39 --undefined-- 46.116
2.40 --undefined-- 44.262
2.41 --undefined-- 42.264
2.42 --undefined-- 39.750
2.43 --undefined-- 37.281
2.44 --undefined-- 36.115
2.45 --undefined-- 37.480
2.46 --undefined-- 47.916
2.47 --undefined-- 60.758
2.48 --undefined-- 68.447
2.49 --undefined-- 72.022
2.50 149.819 72.826
2.51 151.666 72.690
2.52 153.793 72.477
2.53 155.736 71.168
2.54 --undefined-- 67.589
2.55 --undefined-- 61.235
2.56 --undefined-- 53.736
2.57 --undefined-- 48.805
2.58 --undefined-- 46.835
2.59 152.567 47.081
2.60 153.202 46.399
2.61 --undefined-- 43.685
2.62 --undefined-- 41.269
2.63 --undefined-- 49.321
2.64 --undefined-- 56.986
2.65 --undefined-- 60.660
2.66 --undefined-- 61.491
2.67 --undefined-- 61.132
2.68 --undefined-- 61.405
2.69 249.318 64.488
2.70 265.427 68.453
2.71 271.185 70.942
2.72 265.946 71.852
2.73 247.369 71.773
2.74 221.775 71.075
2.75 200.181 69.764
2.76 188.168 67.960
2.77 176.957 65.615
2.78 169.153 62.600
2.79 164.121 59.614
2.80 165.388 58.339
2.81 157.894 58.714
2.82 154.088 59.250
2.83 153.858 59.980
2.84 160.449 60.873
2.85 165.823 61.836
2.86 173.355 63.150
2.87 181.057 64.753
2.88 191.019 66.625
2.89 197.051 68.341
2.90 205.718 69.612
2.91 210.677 70.603
2.92 220.694 71.371
2.93 223.507 71.574
2.94 225.985 71.341
2.95 228.354 71.229
2.96 230.390 71.349
2.97 231.912 71.565
2.98 231.741 71.899
2.99 229.355 72.237
3.00 226.005 72.267
3.01 222.358 71.964
3.02 216.734 71.685
3.03 212.012 71.491
3.04 208.192 71.002
3.05 204.560 70.333
3.06 202.399 69.647
3.07 199.535 68.856
3.08 196.234 68.041
3.09 191.661 67.209
3.10 187.623 66.333
3.11 184.924 65.439
3.12 181.637 64.986
3.13 176.945 65.311
3.14 175.058 66.002
3.15 174.549 66.559
3.16 174.101 66.858
3.17 173.212 67.097
3.18 171.780 67.039
3.19 170.184 66.217
3.20 167.924 64.821
3.21 169.407 63.849
3.22 172.932 63.910
3.23 174.837 64.796
3.24 177.510 65.863
3.25 179.823 66.621
3.26 181.078 67.004
3.27 182.685 66.958
3.28 184.063 66.438
3.29 185.147 65.366
3.30 185.290 63.978
3.31 192.514 63.593
3.32 208.341 65.387
3.33 215.989 67.669
3.34 222.849 69.309
3.35 243.947 70.601
3.36 251.481 71.442
3.37 260.146 71.203
3.38 267.584 69.839
3.39 269.469 67.800
3.40 267.346 65.278
3.41 255.463 62.179
3.42 --undefined-- 58.848
3.43 --undefined-- 56.711
3.44 --undefined-- 56.146
3.45 210.489 59.057
3.46 227.681 63.833
3.47 237.641 67.772
3.48 242.976 70.688
3.49 239.016 72.204
3.50 225.093 72.020
3.51 183.890 70.671
3.52 171.960 69.155
3.53 162.288 67.603
3.54 155.975 66.392
3.55 151.927 65.983
3.56 150.921 66.166
3.57 149.940 66.439
3.58 147.475 66.389
3.59 145.307 66.040
3.60 144.765 65.811
3.61 144.751 65.961
3.62 146.137 66.294
3.63 147.408 66.587
3.64 147.972 66.876
3.65 148.713 67.239
3.66 149.991 67.532
3.67 151.680 67.713
3.68 152.991 67.890
3.69 154.649 68.065
3.70 156.768 68.235
3.71 157.285 68.401
3.72 157.293 68.408
3.73 158.484 68.210
3.74 158.716 68.101
3.75 157.435 68.233
3.76 156.833 68.183
3.77 156.366 67.897
3.78 157.484 67.658
3.79 158.246 67.507
3.80 158.604 67.468
3.81 159.796 67.672
3.82 161.034 68.033
3.83 161.734 68.284
3.84 163.103 68.758
3.85 163.591 69.353
3.86 164.885 69.319
3.87 169.938 68.648
3.88 176.329 67.644
3.89 179.111 65.904
3.90 175.120 63.024
3.91 173.839 58.890
3.92 --undefined-- 53.018
3.93 --undefined-- 47.048
3.94 --undefined-- 45.935
3.95 --undefined-- 49.416
3.96 --undefined-- 58.587
3.97 --undefined-- 65.202
3.98 174.737 68.420
3.99 172.394 69.197
4.00 161.272 68.950
4.01 156.602 68.714
4.02 154.002 68.338
4.03 152.901 67.648
4.04 153.609 66.826
4.05 153.906 65.882
4.06 152.416 64.853
4.07 150.423 63.836
4.08 147.854 62.522
4.09 144.958 60.357
4.10 145.980 57.581
4.11 150.861 55.824
4.12 156.675 57.455
4.13 162.247 61.813
4.14 162.436 65.274
4.15 158.812 66.960
4.16 153.740 67.649
4.17 150.339 67.648
4.18 147.824 67.061
4.19 146.259 66.408
4.20 145.591 65.977
4.21 144.560 65.828
4.22 142.219 65.749
4.23 141.135 65.153
4.24 141.149 63.931
4.25 141.216 62.691
4.26 139.387 61.539
4.27 --undefined-- 60.041
4.28 --undefined-- 57.385
4.29 --undefined-- 52.333
4.30 --undefined-- 45.835
4.31 --undefined-- 43.322
4.32 --undefined-- 45.373
4.33 --undefined-- 48.603
4.34 --undefined-- 55.074
4.35 --undefined-- 63.038
4.36 202.841 67.769
4.37 206.881 69.442
4.38 210.737 68.440
4.39 218.336 66.143
4.40 237.117 66.463
4.41 254.461 68.882
4.42 269.389 70.673
4.43 284.796 71.200
4.44 --undefined-- 70.811
4.45 156.753 70.054
4.46 159.893 69.461
4.47 159.609 69.516
4.48 157.121 69.903
4.49 154.247 70.220
4.50 299.992 70.677
4.51 291.011 71.452
4.52 283.867 72.287
4.53 278.063 72.940
4.54 272.461 73.571
4.55 268.110 74.072
4.56 265.099 74.072
4.57 262.936 73.374
4.58 258.407 72.119
4.59 253.007 70.597
4.60 249.660 68.897
4.61 241.695 68.809
4.62 233.688 70.325
4.63 225.082 71.020
4.64 217.464 70.784
4.65 210.641 70.484
4.66 205.955 70.294
4.67 203.077 69.707
4.68 201.684 68.289
4.69 201.030 66.003
4.70 196.518 62.611
4.71 197.692 57.683
4.72 197.011 51.993
4.73 196.211 48.731
4.74 --undefined-- 47.551
4.75 --undefined-- 48.460
4.76 --undefined-- 56.962
4.77 --undefined-- 65.023
4.78 153.447 69.480
4.79 152.206 71.194
4.80 299.978 71.349
4.81 298.815 70.866
4.82 299.315 70.054
4.83 297.843 69.228
4.84 296.760 68.805
4.85 294.876 68.701
4.86 288.773 69.001
4.87 284.348 69.366
4.88 274.484 69.391
4.89 264.663 69.623
4.90 258.504 70.384
4.91 254.139 71.082
4.92 249.250 71.436
4.93 244.691 71.753
4.94 240.122 72.030
4.95 234.644 71.976
4.96 229.927 71.503
4.97 225.710 70.791
4.98 217.741 70.378
4.99 211.102 70.591
5.00 207.260 70.850
5.01 192.626 70.592
5.02 188.242 70.235
5.03 181.030 69.996
5.04 177.689 69.305
5.05 168.628 68.205
5.06 163.217 66.815
5.07 159.186 65.514
5.08 159.878 65.708
5.09 160.937 66.541
5.10 161.353 67.207
5.11 162.348 67.834
5.12 163.593 68.150
5.13 167.234 68.180
5.14 174.782 68.248
5.15 183.266 68.640
5.16 191.751 69.490
5.17 200.789 70.438
5.18 203.212 71.024
5.19 206.818 71.333
5.20 210.762 71.547
5.21 213.774 71.558
5.22 213.620 --undefined--
5.23 209.835 --undefined--
5.24 --undefined-- --undefined--
5.25 --undefined-- --undefined--
