Time Pitch Intensity
0.01 --undefined-- --undefined--
0.02 --undefined-- --undefined--
0.03 --undefined-- --undefined--
0.04 --undefined-- --undefined--
0.05 --undefined-- 61.052
0.06 --undefined-- 64.963
0.07 --undefined-- 70.416
0.08 --undefined-- 74.135
0.09 111.617 75.811
0.10 109.848 76.029
0.11 107.427 75.465
0.12 105.420 74.572
0.13 102.981 73.110
0.14 99.186 70.796
0.15 98.819 67.680
0.16 98.575 64.790
0.17 99.068 63.105
0.18 98.968 60.945
0.19 --undefined-- 56.840
0.20 --undefined-- 50.609
0.21 --undefined-- 45.127
0.22 --undefined-- 42.376
0.23 --undefined-- 40.398
0.24 --undefined-- 38.993
0.25 --undefined-- 37.539
0.26 --undefined-- 36.338
0.27 --undefined-- 36.943
0.28 --undefined-- 43.689
0.29 --undefined-- 49.924
0.30 --undefined-- 56.495
0.31 --undefined-- 62.626
0.32 --undefined-- 65.871
0.33 --undefined-- 66.374
0.34 --undefined-- 64.887
0.35 96.556 61.720
0.36 97.622 58.239
0.37 97.910 56.888
0.38 105.343 56.573
0.39 104.723 56.260
0.40 105.592 56.349
0.41 106.516 56.693
0.42 107.083 56.808
0.43 106.795 56.725
0.44 106.253 56.881
0.45 105.507 57.500
0.46 104.164 59.307
0.47 102.721 61.815
0.48 100.642 63.367
0.49 99.799 63.913
0.50 99.047 63.914
0.51 99.274 63.610
0.52 98.543 63.081
0.53 99.737 62.545
0.54 99.500 62.145
0.55 98.919 61.645
0.56 99.532 60.569
0.57 101.325 58.199
0.58 --undefined-- 55.718
0.59 --undefined-- 56.677
0.60 111.353 58.256
0.61 110.757 58.556
0.62 112.479 56.974
0.63 --undefined-- 54.406
0.64 --undefined-- 52.670
0.65 --undefined-- 51.457
0.66 --undefined-- 50.258
0.67 --undefined-- 48.679
0.68 --undefined-- 46.445
0.69 --undefined-- 43.541
0.70 --undefined-- 40.712
0.71 --undefined-- 39.230
0.72 --undefined-- 38.595
0.73 --undefined-- 39.394
0.74 --undefined-- 41.508
0.75 --undefined-- 43.428
0.76 --undefined-- 44.307
0.77 --undefined-- 47.540
0.78 --undefined-- 55.050
0.79 101.841 60.559
0.80 101.941 63.777
0.81 95.819 65.404
0.82 89.017 66.075
0.83 89.234 66.692
0.84 91.592 67.215
0.85 88.608 66.727
0.86 --undefined-- 64.754
0.87 --undefined-- 61.616
0.88 --undefined-- 58.386
0.89 --undefined-- 55.174
0.90 --undefined-- 54.970
0.91 --undefined-- 55.685
0.92 --undefined-- 54.478
0.93 --undefined-- 52.969
0.94 --undefined-- 51.068
0.95 --undefined-- 47.735
0.96 --undefined-- 44.528
0.97 --undefined-- 41.862
0.98 --undefined-- 40.848
0.99 --undefined-- 40.262
1.00 --undefined-- 38.885
1.01 --undefined-- 37.792
1.02 --undefined-- 37.516
1.03 --undefined-- 37.205
1.04 --undefined-- 36.906
1.05 --undefined-- 36.564
1.06 --undefined-- 38.537
1.07 --undefined-- 43.746
1.08 --undefined-- 48.058
1.09 --undefined-- 51.125
1.10 --undefined-- 52.768
1.11 --undefined-- 56.866
1.12 --undefined-- 64.687
1.13 147.629 69.939
1.14 139.321 72.472
1.15 136.213 73.343
1.16 135.255 73.609
1.17 134.921 73.555
1.18 133.868 73.355
1.19 132.773 73.508
1.20 131.576 73.742
1.21 131.222 73.547
1.22 130.565 73.352
1.23 129.566 73.539
1.24 128.480 73.941
1.25 127.655 74.603
1.26 126.343 75.539
1.27 124.077 76.592
1.28 121.841 77.224
1.29 118.091 76.785
1.30 112.331 75.281
1.31 106.014 73.795
1.32 104.631 72.888
1.33 102.445 71.955
1.34 102.931 70.778
1.35 101.000 68.883
1.36 --undefined-- 65.705
1.37 --undefined-- 61.717
1.38 --undefined-- 58.778
1.39 --undefined-- 57.881
1.40 --undefined-- 57.781
1.41 --undefined-- 57.586
1.42 --undefined-- 57.806
1.43 115.152 60.807
1.44 113.128 65.314
1.45 106.492 68.958
1.46 105.224 71.193
1.47 102.623 72.204
1.48 99.869 72.289
1.49 99.421 71.645
1.50 98.957 70.810
1.51 97.145 70.441
1.52 96.030 70.539
1.53 94.850 70.614
1.54 96.496 69.462
1.55 96.491 66.360
1.56 --undefined-- 60.795
1.57 --undefined-- 52.606
1.58 --undefined-- 45.853
1.59 --undefined-- 42.107
1.60 --undefined-- 39.107
1.61 --undefined-- 41.532
1.62 --undefined-- 53.477
1.63 --undefined-- 63.229
1.64 --undefined-- 69.117
1.65 102.476 71.952
1.66 102.590 72.568
1.67 97.269 71.713
1.68 97.980 70.057
1.69 102.923 67.618
1.70 104.692 64.162
1.71 106.188 60.548
1.72 106.144 58.028
1.73 106.510 56.705
1.74 114.866 56.384
1.75 113.644 58.062
1.76 114.253 61.159
1.77 114.715 64.621
1.78 113.201 67.613
1.79 112.100 69.577
1.80 110.243 70.455
1.81 108.179 70.347
1.82 106.635 69.272
1.83 105.835 68.031
1.84 104.884 67.702
1.85 104.116 67.796
1.86 101.993 67.680
1.87 99.234 67.076
1.88 97.149 66.402
1.89 96.724 66.237
1.90 96.597 65.823
1.91 96.124 64.812
1.92 97.057 64.131
1.93 97.458 64.029
1.94 97.630 64.131
1.95 99.415 63.694
1.96 100.561 61.655
1.97 100.808 58.229
1.98 --undefined-- 56.017
1.99 --undefined-- 55.595
2.00 --undefined-- 55.806
2.01 --undefined-- 55.661
2.02 --undefined-- 55.106
2.03 --undefined-- 54.450
2.04 --undefined-- 55.331
2.05 --undefined-- 60.105
2.06 124.725 65.249
2.07 122.994 68.420
2.08 122.510 69.516
2.09 124.060 69.395
2.10 125.968 69.083
2.11 127.427 68.837
2.12 128.781 68.411
2.13 129.908 67.771
2.14 130.551 66.739
2.15 130.639 64.747
2.16 130.493 61.892
2.17 129.714 59.864
2.18 130.002 59.462
2.19 130.717 59.585
2.20 130.755 59.946
2.21 130.659 60.472
2.22 130.440 61.394
2.23 130.863 63.852
2.24 131.473 66.817
2.25 131.219 68.373
2.26 130.578 68.756
2.27 130.377 68.903
2.28 130.355 69.073
2.29 129.962 69.185
2.30 129.186 69.183
2.31 129.243 69.125
2.32 129.302 68.856
2.33 129.450 68.195
2.34 129.604 67.283
2.35 130.049 66.407
2.36 130.303 65.847
2.37 131.013 65.656
2.38 131.340 65.538
2.39 131.196 65.246
2.40 130.822 64.923
2.41 129.917 64.643
2.42 129.555 64.334
2.43 129.241 63.842
2.44 129.014 63.156
2.45 128.896 62.408
2.46 129.116 61.697
2.47 129.376 61.028
2.48 129.063 60.325
2.49 128.771 59.471
2.50 128.565 58.217
2.51 128.062 56.211
2.52 126.858 53.222
2.53 --undefined-- 49.234
2.54 --undefined-- 44.261
2.55 --undefined-- 39.488
2.56 --undefined-- 37.032
2.57 --undefined-- 36.201
2.58 --undefined-- 36.135
2.59 --undefined-- 35.507
2.60 --undefined-- 34.150
2.61 --undefined-- 32.941
2.62 --undefined-- 33.277
2.63 --undefined-- 34.444
2.64 --undefined-- 35.059
2.65 --undefined-- 34.427
2.66 --undefined-- 33.940
2.67 --undefined-- 34.374
2.68 --undefined-- 34.653
2.69 --undefined-- 36.296
2.70 --undefined-- 39.771
2.71 --undefined-- 45.839
2.72 --undefined-- 53.320
2.73 --undefined-- 59.626
2.74 --undefined-- 62.592
2.75 --undefined-- 63.914
2.76 --undefined-- 65.640
2.77 --undefined-- 65.686
2.78 100.272 65.230
2.79 99.479 66.258
2.80 99.905 67.364
2.81 100.871 67.845
2.82 101.965 67.155
2.83 103.620 64.548
2.84 --undefined-- 59.527
2.85 --undefined-- 52.937
2.86 --undefined-- 47.712
2.87 --undefined-- 44.123
2.88 --undefined-- 41.242
2.89 --undefined-- 40.285
2.90 --undefined-- 44.347
2.91 --undefined-- 50.458
2.92 --undefined-- 55.788
2.93 --undefined-- 61.829
2.94 --undefined-- 66.041
2.95 --undefined-- 68.328
2.96 100.809 69.687
2.97 100.706 70.321
2.98 101.446 69.962
2.99 100.249 68.607
3.00 99.129 66.407
3.01 97.657 64.167
3.02 98.331 63.450
3.03 99.156 63.770
3.04 99.787 64.124
3.05 100.055 64.076
3.06 101.627 63.223
3.07 104.087 62.201
3.08 107.400 62.462
3.09 107.802 62.993
3.10 108.310 62.460
3.11 108.111 60.616
3.12 105.901 57.149
3.13 --undefined-- 52.062
3.14 --undefined-- 47.812
3.15 --undefined-- 46.863
3.16 --undefined-- 46.160
3.17 --undefined-- 45.851
3.18 --undefined-- 46.746
3.19 --undefined-- 47.694
3.20 --undefined-- 51.234
3.21 --undefined-- 60.070
3.22 --undefined-- 66.673
3.23 --undefined-- 70.470
3.24 --undefined-- 72.500
3.25 119.788 73.610
3.26 117.851 74.207
3.27 115.875 74.287
3.28 114.368 73.856
3.29 114.428 73.434
3.30 115.271 73.183
3.31 116.295 72.696
3.32 117.852 71.811
3.33 118.924 70.743
3.34 120.351 69.857
3.35 121.604 69.298
3.36 122.516 68.683
3.37 123.133 67.329
3.38 122.971 64.963
3.39 122.765 62.514
3.40 122.160 60.934
3.41 120.478 59.262
3.42 119.101 56.396
3.43 --undefined-- 52.054
3.44 --undefined-- 52.192
3.45 --undefined-- 55.496
3.46 --undefined-- 57.236
3.47 --undefined-- 61.375
3.48 --undefined-- 65.276
3.49 --undefined-- 67.277
3.50 107.335 67.696
3.51 104.718 66.532
3.52 103.235 63.374
3.53 --undefined-- 57.799
3.54 --undefined-- 50.785
3.55 --undefined-- 46.195
3.56 --undefined-- 42.960
3.57 --undefined-- 39.468
3.58 --undefined-- 37.653
3.59 --undefined-- 40.675
3.60 --undefined-- 49.217
3.61 --undefined-- 58.602
3.62 --undefined-- 64.946
3.63 --undefined-- 68.434
3.64 117.042 69.795
3.65 117.292 69.675
3.66 118.401 68.777
3.67 119.572 67.541
3.68 120.159 65.645
3.69 120.861 62.264
3.70 119.892 56.941
3.71 --undefined-- 50.645
3.72 --undefined-- 45.573
3.73 --undefined-- 41.812
3.74 --undefined-- 39.754
3.75 --undefined-- 39.613
3.76 --undefined-- 43.546
3.77 --undefined-- 49.883
3.78 --undefined-- 55.109
3.79 --undefined-- 58.282
3.80 --undefined-- 58.953
3.81 --undefined-- 59.421
3.82 --undefined-- 62.451
3.83 --undefined-- 64.093
3.84 --undefined-- 63.048
3.85 --undefined-- 60.288
3.86 --undefined-- 58.091
3.87 --undefined-- 56.087
3.88 --undefined-- 55.584
3.89 --undefined-- 55.237
3.90 --undefined-- 53.880
3.91 --undefined-- 54.643
3.92 --undefined-- 57.054
3.93 104.260 59.423
3.94 105.217 61.505
3.95 106.161 63.701
3.96 107.313 65.436
3.97 106.934 66.555
3.98 100.757 67.112
3.99 101.606 67.062
4.00 102.950 66.736
4.01 106.389 66.180
4.02 107.316 64.817
4.03 108.250 62.187
4.04 113.064 59.154
4.05 114.450 56.320
4.06 --undefined-- 52.583
4.07 --undefined-- 47.491
4.08 --undefined-- 42.459
4.09 --undefined-- 39.290
4.10 --undefined-- 38.355
4.11 --undefined-- 37.879
4.12 --undefined-- 37.294
4.13 --undefined-- 37.163
4.14 --undefined-- 38.048
4.15 --undefined-- 42.733
4.16 --undefined-- 48.509
4.17 --undefined-- 54.269
4.18 --undefined-- 58.624
4.19 --undefined-- 60.589
4.20 --undefined-- 60.233
4.21 --undefined-- 58.605
4.22 --undefined-- 58.562
4.23 116.725 60.276
4.24 116.055 61.723
4.25 114.966 62.331
4.26 114.653 62.385
4.27 112.185 62.093
4.28 110.558 61.372
4.29 107.371 60.430
4.30 105.583 59.497
4.31 104.442 58.561
4.32 100.768 57.652
4.33 101.449 57.404
4.34 104.423 58.605
4.35 104.214 60.130
4.36 104.848 61.477
4.37 104.761 63.377
4.38 106.184 66.781
4.39 106.695 70.073
4.40 106.496 71.612
4.41 105.481 71.668
4.42 105.675 71.270
4.43 106.214 71.119
4.44 106.476 71.018
4.45 107.562 70.449
4.46 109.555 69.542
4.47 110.550 69.084
4.48 112.222 68.868
4.49 115.034 67.957
4.50 117.777 66.538
4.51 119.320 65.675
4.52 124.157 65.020
4.53 127.259 63.610
4.54 126.735 60.735
4.55 --undefined-- 55.918
4.56 --undefined-- 48.732
4.57 --undefined-- 42.383
4.58 --undefined-- 46.408
4.59 --undefined-- 52.523
4.60 --undefined-- 55.177
4.61 --undefined-- 55.097
4.62 --undefined-- 58.065
4.63 130.928 62.745
4.64 123.311 65.674
4.65 121.023 66.952
4.66 118.360 67.485
4.67 116.482 68.007
4.68 116.142 68.599
4.69 116.620 69.132
4.70 116.244 69.408
4.71 116.429 68.893
4.72 116.749 67.055
4.73 117.230 64.061
4.74 120.057 62.362
4.75 121.189 62.702
4.76 121.721 62.927
4.77 123.488 62.901
4.78 126.339 62.801
4.79 126.994 62.579
4.80 128.508 62.377
4.81 129.998 62.364
4.82 132.402 62.444
4.83 133.417 62.360
4.84 133.995 61.935
4.85 133.827 61.209
4.86 134.935 60.452
4.87 136.273 59.878
4.88 138.313 59.447
4.89 140.653 59.435
4.90 142.782 59.527
4.91 144.957 59.180
4.92 146.879 58.436
4.93 146.141 56.966
4.94 146.068 54.025
4.95 --undefined-- 50.564
4.96 --undefined-- 47.909
4.97 --undefined-- 45.913
4.98 --undefined-- 44.407
4.99 --undefined-- 41.051
5.00 --undefined-- 38.287
5.01 --undefined-- 37.628
5.02 --undefined-- 36.807
5.03 --undefined-- 36.031
5.04 --undefined-- 35.439
5.05 --undefined-- 36.367
5.06 --undefined-- 36.454
5.07 --undefined-- 34.966
5.08 --undefined-- 33.988
5.09 --undefined-- 34.183
5.10 --undefined-- 34.153
5.11 --undefined-- 34.528
5.12 --undefined-- 40.569
5.13 --undefined-- 46.869
5.14 --undefined-- 50.073
5.15 --undefined-- 54.490
5.16 --undefined-- 60.144
5.17 121.539 64.236
5.18 119.210 66.852
5.19 119.068 67.976
5.20 118.222 68.184
5.21 115.374 68.121
5.22 117.373 68.284
5.23 114.169 68.731
5.24 113.826 69.045
5.25 112.775 69.130
5.26 112.908 69.207
5.27 111.278 69.176
5.28 110.873 69.000
5.29 109.881 68.932
5.30 108.773 68.955
5.31 108.318 68.580
5.32 111.215 67.946
5.33 109.039 67.329
5.34 109.842 66.847
5.35 109.315 66.449
5.36 110.072 66.067
5.37 110.290 65.697
5.38 109.494 65.327
5.39 109.236 65.108
5.40 108.550 65.009
5.41 108.310 64.443
5.42 108.599 62.871
5.43 108.446 59.547
5.44 --undefined-- 54.127
5.45 --undefined-- 48.378
5.46 --undefined-- 45.775
5.47 --undefined-- 43.732
5.48 --undefined-- 41.418
5.49 --undefined-- 40.382
5.50 --undefined-- 40.690
5.51 --undefined-- 41.504
5.52 --undefined-- 43.959
5.53 --undefined-- 46.449
5.54 --undefined-- 47.941
5.55 --undefined-- 52.572
5.56 --undefined-- 59.545
5.57 96.887 63.769
5.58 83.441 65.580
5.59 83.194 65.656
5.60 --undefined-- 64.090
5.61 --undefined-- 62.533
5.62 --undefined-- 61.808
5.63 --undefined-- 60.151
5.64 --undefined-- 59.374
5.65 183.665 --undefined--
5.66 184.500 --undefined--
5.67 --undefined-- --undefined--
5.68 --undefined-- --undefined--
