Time Pitch Intensity
0.01 --undefined-- --undefined--
0.02 210.304 --undefined--
0.03 209.465 --undefined--
0.04 208.932 --undefined--
0.05 208.705 56.060
0.06 --undefined-- 51.034
0.07 --undefined-- 48.584
0.08 --undefined-- 48.096
0.09 --undefined-- 50.824
0.10 --undefined-- 60.008
0.11 --undefined-- 67.050
0.12 --undefined-- 70.863
0.13 --undefined-- 72.076
0.14 149.671 71.774
0.15 144.133 71.121
0.16 134.545 70.023
0.17 130.712 67.725
0.18 131.853 64.193
0.19 133.567 60.844
0.20 138.263 60.259
0.21 140.790 60.993
0.22 142.807 61.582
0.23 144.265 61.490
0.24 148.314 60.678
0.25 151.725 59.812
0.26 157.812 59.147
0.27 167.759 59.067
0.28 175.562 60.167
0.29 184.991 61.574
0.30 186.656 61.720
0.31 185.656 59.702
0.32 191.941 55.951
0.33 --undefined-- 54.722
0.34 --undefined-- 56.108
0.35 --undefined-- 56.618
0.36 --undefined-- 56.444
0.37 --undefined-- 56.441
0.38 --undefined-- 56.071
0.39 --undefined-- 55.205
0.40 --undefined-- 56.999
0.41 --undefined-- 62.094
0.42 --undefined-- 68.629
0.43 --undefined-- 72.761
0.44 --undefined-- 74.236
0.45 --undefined-- 74.012
0.46 --undefined-- 73.013
0.47 --undefined-- 71.646
0.48 --undefined-- 70.285
0.49 --undefined-- 69.936
0.50 --undefined-- 70.114
0.51 --undefined-- 68.895
0.52 --undefined-- 66.248
0.53 --undefined-- 64.024
0.54 --undefined-- 64.532
0.55 --undefined-- 64.689
0.56 --undefined-- 63.195
0.57 --undefined-- 60.922
0.58 --undefined-- 60.051
0.59 --undefined-- 60.839
0.60 --undefined-- 59.733
0.61 --undefined-- 56.079
0.62 --undefined-- 54.640
0.63 --undefined-- 54.956
0.64 --undefined-- 53.275
0.65 --undefined-- 50.911
0.66 83.261 50.451
0.67 81.375 51.590
0.68 79.698 52.438
0.69 --undefined-- 52.439
0.70 --undefined-- 51.845
0.71 --undefined-- 52.486
0.72 --undefined-- 57.118
0.73 137.347 62.213
0.74 138.593 66.245
0.75 144.953 68.887
0.76 147.896 70.335
0.77 148.637 70.876
0.78 150.811 70.627
0.79 151.937 69.278
0.80 151.628 66.244
0.81 152.149 61.964
0.82 --undefined-- 61.449
0.83 --undefined-- 63.902
0.84 84.308 64.871
0.85 84.488 64.704
0.86 85.532 64.464
0.87 86.757 64.499
0.88 86.747 65.063
0.89 87.107 65.599
0.90 89.929 65.859
0.91 182.341 65.872
0.92 182.237 65.404
0.93 180.947 64.052
0.94 180.626 61.632
0.95 180.419 58.864
0.96 181.089 59.077
0.97 185.161 63.998
0.98 182.757 68.871
0.99 179.393 71.976
1.00 174.626 72.797
1.01 166.464 71.373
1.02 154.618 68.710
1.03 149.012 66.046
1.04 145.399 62.231
1.05 --undefined-- 55.733
1.06 --undefined-- 47.969
1.07 --undefined-- 45.331
1.08 --undefined-- 45.198
1.09 --undefined-- 45.337
1.10 --undefined-- 46.479
1.11 --undefined-- 51.400
1.12 --undefined-- 54.065
1.13 --undefined-- 54.395
1.14 158.060 55.414
1.15 150.094 56.022
1.16 143.903 54.543
1.17 --undefined-- 51.572
1.18 --undefined-- 48.895
1.19 --undefined-- 46.211
1.20 --undefined-- 43.155
1.21 --undefined-- 41.666
1.22 --undefined-- 40.785
1.23 --undefined-- 39.580
1.24 --undefined-- 38.597
1.25 --undefined-- 42.480
1.26 --undefined-- 49.880
1.27 --undefined-- 55.101
1.28 --undefined-- 57.808
1.29 --undefined-- 59.498
1.30 --undefined-- 63.753
1.31 --undefined-- 67.463
1.32 --undefined-- 69.879
1.33 --undefined-- 71.878
1.34 --undefined-- 72.562
1.35 141.438 71.951
1.36 137.537 70.558
1.37 132.855 68.608
1.38 128.474 66.755
1.39 123.817 65.438
1.40 --undefined-- 64.097
1.41 --undefined-- 61.995
1.42 --undefined-- 59.548
1.43 --undefined-- 57.201
1.44 --undefined-- 55.817
1.45 --undefined-- 54.518
1.46 --undefined-- 52.782
1.47 121.233 52.868
1.48 124.422 52.858
1.49 125.137 52.042
1.50 --undefined-- 50.813
1.51 --undefined-- 49.146
1.52 --undefined-- 46.350
1.53 --undefined-- 43.772
1.54 --undefined-- 43.177
1.55 --undefined-- 42.186
1.56 --undefined-- 40.912
1.57 --undefined-- 39.749
1.58 --undefined-- 38.744
1.59 --undefined-- 38.178
1.60 --undefined-- 38.608
1.61 --undefined-- 39.209
1.62 --undefined-- 39.228
1.63 --undefined-- 39.287
1.64 --undefined-- 39.090
1.65 --undefined-- 38.933
1.66 --undefined-- 39.093
1.67 --undefined-- 38.834
1.68 --undefined-- 39.033
1.69 --undefined-- 39.900
1.70 --undefined-- 40.203
1.71 --undefined-- 41.406
1.72 --undefined-- 45.198
1.73 --undefined-- 47.319
1.74 --undefined-- 45.885
1.75 --undefined-- 41.972
1.76 --undefined-- 40.116
1.77 --undefined-- 40.534
1.78 --undefined-- 40.736
1.79 --undefined-- 40.570
1.80 --undefined-- 40.193
1.81 --undefined-- 39.978
1.82 --undefined-- 40.597
1.83 --undefined-- 41.280
1.84 --undefined-- 41.025
1.85 --undefined-- 40.183
1.86 --undefined-- 39.673
1.87 --undefined-- 39.364
1.88 --undefined-- 39.254
1.89 --undefined-- 39.578
1.90 --undefined-- 39.302
1.91 --undefined-- 38.231
1.92 --undefined-- 38.205
1.93 --undefined-- 39.246
1.94 --undefined-- 39.128
1.95 --undefined-- 37.910
1.96 --undefined-- 38.694
1.97 --undefined-- 51.083
1.98 --undefined-- 61.389
1.99 --undefined-- 66.846
2.00 --undefined-- 68.335
2.01 --undefined-- 66.684
2.02 --undefined-- 64.328
2.03 --undefined-- 67.181
2.04 233.211 71.757
2.05 239.008 74.492
2.06 237.324 75.853
2.07 237.000 76.120
2.08 242.221 74.781
2.09 250.201 71.664
2.10 251.217 67.743
2.11 250.287 63.726
2.12 244.848 59.077
2.13 241.898 55.071
2.14 239.620 52.838
2.15 --undefined-- 50.033
2.16 --undefined-- 48.001
2.17 --undefined-- 46.350
2.18 --undefined-- 42.772
2.19 --undefined-- 40.177
2.20 --undefined-- 40.138
2.21 --undefined-- 40.439
2.22 --undefined-- 40.923
2.23 --undefined-- 40.862
2.24 --undefined-- 40.472
2.25 --undefined-- 41.115
2.26 --undefined-- 42.684
2.27 --undefined-- 43.500
2.28 --undefined-- 43.364
2.29 --undefined-- 42.904
2.30 --undefined-- 42.614
2.31 --undefined-- 42.918
2.32 --undefined-- 44.401
2.33 --undefined-- 46.452
2.34 --undefined-- 47.650
2.35 --undefined-- 48.365
2.36 --undefined-- 49.331
2.37 --undefined-- 50.643
2.38 --undefined-- 51.522
2.39 --undefined-- 51.442
2.40 --undefined-- 51.601
2.41 --undefined-- 52.288
2.42 --undefined-- 52.698
2.43 --undefined-- 53.969
2.44 --undefined-- 56.297
2.45 213.859 58.162
2.46 217.058 59.331
2.47 220.297 59.843
2.48 213.356 59.255
2.49 212.149 57.054
2.50 222.226 53.584
2.51 --undefined-- 51.313
2.52 --undefined-- 54.057
2.53 --undefined-- 57.686
2.54 --undefined-- 61.060
2.55 --undefined-- 66.656
2.56 152.879 71.383
2.57 150.881 73.676
2.58 296.550 74.309
2.59 290.241 74.233
2.60 286.001 73.703
2.61 283.666 72.792
2.62 283.852 71.461
2.63 284.530 69.414
2.64 290.028 66.924
2.65 292.331 65.061
2.66 287.268 63.606
2.67 271.968 62.272
2.68 263.064 62.837
2.69 258.967 65.007
2.70 254.410 67.606
2.71 246.679 70.438
2.72 231.543 72.530
2.73 215.716 73.325
2.74 197.191 73.298
2.75 179.874 73.122
2.76 167.998 72.949
2.77 161.662 72.379
2.78 159.647 70.739
2.79 159.276 67.658
2.80 156.716 63.660
2.81 152.266 59.849
2.82 146.701 56.127
2.83 150.951 52.273
2.84 159.166 49.994
2.85 162.143 50.093
2.86 161.682 49.860
2.87 --undefined-- 48.324
2.88 --undefined-- 47.821
2.89 --undefined-- 50.629
2.90 --undefined-- 52.081
2.91 --undefined-- 52.044
2.92 --undefined-- 54.495
2.93 --undefined-- 58.332
2.94 --undefined-- 60.313
2.95 --undefined-- 60.803
2.96 --undefined-- 60.494
2.97 --undefined-- 60.119
2.98 --undefined-- 60.463
2.99 --undefined-- 62.437
3.00 --undefined-- 66.952
3.01 179.869 70.797
3.02 169.119 72.297
3.03 163.535 71.794
3.04 164.598 70.876
3.05 167.465 70.813
3.06 170.347 70.139
3.07 179.567 68.565
3.08 187.671 68.266
3.09 197.781 68.284
3.10 206.010 66.927
3.11 212.081 64.668
3.12 215.305 63.269
3.13 219.205 63.046
3.14 223.861 63.413
3.15 225.356 63.905
3.16 229.339 63.841
3.17 230.414 63.479
3.18 229.944 62.915
3.19 230.610 61.990
3.20 230.229 61.394
3.21 231.200 61.375
3.22 231.833 61.553
3.23 231.508 61.389
3.24 230.714 60.342
3.25 229.674 58.318
3.26 222.918 56.852
3.27 --undefined-- 56.887
3.28 --undefined-- 56.612
3.29 --undefined-- 57.780
3.30 --undefined-- 61.338
3.31 --undefined-- 65.201
3.32 --undefined-- 68.897
3.33 --undefined-- 72.436
3.34 198.795 74.365
3.35 192.289 75.006
3.36 187.177 74.742
3.37 180.316 73.544
3.38 174.164 72.201
3.39 170.137 71.315
3.40 167.668 70.114
3.41 166.328 68.345
3.42 165.730 66.054
3.43 165.654 62.877
3.44 --undefined-- 58.795
3.45 --undefined-- 55.023
3.46 --undefined-- 53.279
3.47 --undefined-- 53.313
3.48 --undefined-- 53.837
3.49 --undefined-- 54.653
3.50 --undefined-- 56.461
3.51 --undefined-- 60.438
3.52 --undefined-- 65.300
3.53 --undefined-- 68.964
3.54 163.626 70.534
3.55 161.229 70.360
3.56 165.401 70.172
3.57 167.394 70.208
3.58 172.047 69.300
3.59 181.123 69.070
3.60 185.899 70.325
3.61 194.268 71.452
3.62 200.864 72.325
3.63 205.636 72.844
3.64 212.409 72.645
3.65 221.328 71.376
3.66 226.081 68.554
3.67 217.740 65.057
3.68 212.950 64.069
3.69 214.559 66.102
3.70 219.207 69.980
3.71 213.266 72.940
3.72 206.966 74.074
3.73 204.067 73.668
3.74 205.883 72.162
3.75 207.634 70.333
3.76 207.386 69.095
3.77 209.163 67.485
3.78 207.703 63.936
3.79 204.942 58.551
3.80 211.745 54.177
3.81 214.521 51.756
3.82 210.812 49.854
3.83 210.104 49.412
3.84 211.431 49.201
3.85 --undefined-- 47.902
3.86 --undefined-- 46.361
3.87 --undefined-- 45.409
3.88 --undefined-- 45.388
3.89 --undefined-- 56.600
3.90 --undefined-- 66.060
3.91 --undefined-- 70.759
3.92 --undefined-- 72.763
3.93 255.384 74.584
3.94 249.171 75.772
3.95 247.950 75.655
3.96 246.122 74.974
3.97 243.790 74.235
3.98 240.854 73.299
3.99 236.307 72.181
4.00 232.172 71.348
4.01 229.465 70.966
4.02 227.363 70.557
4.03 226.067 69.752
4.04 226.585 68.570
4.05 229.145 67.136
4.06 229.284 65.442
4.07 230.458 64.144
4.08 232.666 63.556
4.09 232.629 63.000
4.10 234.009 62.490
4.11 234.395 61.801
4.12 231.292 60.254
4.13 227.072 57.433
4.14 222.152 53.687
4.15 227.190 50.668
4.16 236.638 49.288
4.17 239.473 48.054
4.18 --undefined-- 45.719
4.19 --undefined-- 46.856
4.20 --undefined-- 53.064
4.21 --undefined-- 57.503
4.22 --undefined-- 60.803
4.23 242.817 63.657
4.24 241.651 65.497
4.25 240.998 66.314
4.26 238.056 66.271
4.27 234.678 65.461
4.28 230.799 64.263
4.29 226.707 63.125
4.30 221.479 62.921
4.31 221.471 64.594
4.32 223.398 66.441
4.33 223.347 67.321
4.34 221.274 67.109
4.35 217.284 65.873
4.36 214.487 63.912
4.37 210.387 61.524
4.38 221.573 61.709
4.39 228.275 66.062
4.40 227.821 70.387
4.41 213.863 72.652
4.42 189.171 73.181
4.43 180.498 72.734
4.44 164.664 71.043
4.45 157.905 68.576
4.46 167.642 65.475
4.47 173.388 60.464
4.48 --undefined-- 54.395
4.49 --undefined-- 53.024
4.50 --undefined-- 53.459
4.51 --undefined-- 52.610
4.52 --undefined-- 51.483
4.53 --undefined-- 50.679
4.54 --undefined-- 52.488
4.55 --undefined-- 61.486
4.56 --undefined-- 68.098
4.57 --undefined-- 71.410
4.58 126.463 72.252
4.59 124.137 71.498
4.60 122.455 69.974
4.61 121.169 68.617
4.62 118.746 67.734
4.63 116.569 66.692
4.64 116.188 64.885
4.65 117.682 62.416
4.66 118.438 60.080
4.67 118.947 58.940
4.68 118.714 58.347
4.69 119.889 56.926
4.70 121.546 54.468
4.71 121.264 51.862
4.72 --undefined-- 50.437
4.73 --undefined-- 54.803
4.74 --undefined-- 59.687
4.75 --undefined-- 62.770
4.76 146.228 65.925
4.77 144.778 68.221
4.78 141.907 69.253
4.79 139.956 69.467
4.80 139.854 69.189
4.81 139.862 69.037
4.82 139.818 69.394
4.83 140.018 69.924
4.84 140.359 69.971
4.85 141.245 68.929
4.86 142.774 66.531
4.87 142.814 62.818
4.88 --undefined-- 57.956
4.89 --undefined-- 53.485
4.90 --undefined-- 52.513
4.91 --undefined-- 53.226
4.92 --undefined-- 54.394
4.93 --undefined-- 55.227
4.94 --undefined-- 58.586
4.95 --undefined-- 64.680
4.96 151.239 68.623
4.97 145.332 70.043
4.98 138.837 69.566
4.99 134.206 68.132
5.00 131.234 66.509
5.01 129.031 64.419
5.02 124.878 61.044
5.03 119.888 56.708
5.04 125.619 54.080
5.05 125.503 52.201
5.06 126.046 49.612
5.07 --undefined-- 47.598
5.08 --undefined-- 47.032
5.09 --undefined-- 49.642
5.10 --undefined-- 53.013
5.11 136.379 55.480
5.12 130.943 57.129
5.13 128.996 58.322
5.14 129.815 59.417
5.15 130.878 60.368
5.16 130.642 60.836
5.17 129.786 60.289
5.18 127.559 58.206
5.19 --undefined-- 56.430
5.20 142.283 59.548
5.21 138.694 64.426
5.22 144.320 68.495
5.23 148.070 70.684
5.24 148.490 71.354
5.25 150.974 71.342
5.26 154.651 70.854
5.27 159.819 70.015
5.28 164.658 68.782
5.29 169.097 66.878
5.30 172.179 64.147
5.31 172.469 60.589
5.32 --undefined-- 56.170
5.33 --undefined-- 51.085
5.34 --undefined-- 46.021
5.35 --undefined-- 42.883
5.36 --undefined-- 41.890
5.37 --undefined-- 41.764
5.38 --undefined-- 42.862
5.39 --undefined-- 44.378
5.40 --undefined-- 45.650
5.41 --undefined-- 47.066
5.42 --undefined-- 48.492
5.43 --undefined-- 49.506
5.44 --undefined-- 50.186
5.45 --undefined-- 50.744
5.46 --undefined-- 51.558
5.47 --undefined-- 52.405
5.48 --undefined-- 52.853
5.49 --undefined-- 53.187
5.50 --undefined-- 53.993
5.51 --undefined-- 54.932
5.52 --undefined-- 55.063
5.53 --undefined-- --undefined--
5.54 --undefined-- --undefined--
5.55 --undefined-- --undefined--
5.56 --undefined-- --undefined--
