Time Pitch Intensity
0.01 --undefined-- --undefined--
0.02 144.694 --undefined--
0.03 138.076 --undefined--
0.04 134.110 --undefined--
0.05 136.246 58.607
0.06 138.737 61.319
0.07 141.836 64.410
0.08 145.413 66.879
0.09 149.985 68.513
0.10 155.597 69.829
0.11 159.698 70.945
0.12 162.250 71.581
0.13 163.352 71.760
0.14 163.872 71.733
0.15 163.527 71.633
0.16 163.666 71.427
0.17 163.813 71.134
0.18 165.051 70.948
0.19 165.854 70.750
0.20 165.720 70.002
0.21 164.830 67.847
0.22 162.375 63.421
0.23 163.456 56.595
0.24 164.768 51.294
0.25 165.153 52.825
0.26 --undefined-- 56.277
0.27 --undefined-- 57.491
0.28 --undefined-- 57.999
0.29 174.666 61.553
0.30 185.582 65.495
0.31 185.018 67.567
0.32 167.757 68.214
0.33 157.601 68.236
0.34 150.384 68.037
0.35 143.465 67.618
0.36 138.458 66.709
0.37 134.994 65.357
0.38 132.507 64.543
0.39 131.817 64.706
0.40 135.188 65.201
0.41 140.526 65.866
0.42 144.670 66.509
0.43 145.847 66.696
0.44 145.994 66.722
0.45 147.961 67.471
0.46 152.357 68.690
0.47 156.846 69.959
0.48 171.125 71.256
0.49 186.025 72.248
0.50 194.003 72.586
0.51 205.594 72.483
0.52 216.620 72.308
0.53 220.526 71.631
0.54 226.395 69.646
0.55 235.178 65.730
0.56 234.343 59.470
0.57 220.241 51.935
0.58 225.001 48.159
0.59 --undefined-- 46.743
0.60 --undefined-- 46.066
0.61 --undefined-- 46.310
0.62 --undefined-- 47.108
0.63 --undefined-- 48.046
0.64 --undefined-- 48.843
0.65 --undefined-- 49.520
0.66 --undefined-- 50.067
0.67 --undefined-- 50.384
0.68 --undefined-- 50.712
0.69 --undefined-- 50.846
0.70 --undefined-- 50.686
0.71 --undefined-- 50.787
0.72 --undefined-- 51.396
0.73 --undefined-- 52.600
0.74 --undefined-- 53.847
0.75 --undefined-- 54.304
0.76 --undefined-- 53.823
0.77 --undefined-- 52.855
0.78 --undefined-- 51.895
0.79 --undefined-- 50.420
0.80 --undefined-- 48.730
0.81 --undefined-- 47.784
0.82 --undefined-- 46.253
0.83 --undefined-- 43.685
0.84 --undefined-- 42.276
0.85 --undefined-- 42.743
0.86 --undefined-- 42.793
0.87 --undefined-- 42.657
0.88 --undefined-- 42.790
0.89 --undefined-- 44.716
0.90 --undefined-- 54.077
0.91 --undefined-- 62.092
0.92 --undefined-- 67.983
0.93 204.361 71.673
0.94 203.352 73.447
0.95 202.534 73.944
0.96 202.054 73.889
0.97 201.849 73.704
0.98 201.508 73.425
0.99 200.782 72.965
1.00 199.565 72.399
1.01 198.437 71.865
1.02 196.964 71.316
1.03 196.222 70.822
1.04 196.061 70.613
1.05 196.424 70.704
1.06 197.096 70.979
1.07 198.414 71.316
1.08 199.645 71.490
1.09 200.259 71.038
1.10 202.175 69.412
1.11 205.258 66.297
1.12 203.189 61.754
1.13 201.310 56.162
1.14 201.925 50.852
1.15 --undefined-- 48.000
1.16 --undefined-- 46.609
1.17 --undefined-- 45.525
1.18 --undefined-- 44.945
1.19 --undefined-- 45.119
1.20 --undefined-- 46.705
1.21 --undefined-- 54.331
1.22 276.487 61.945
1.23 267.391 66.555
1.24 263.130 69.134
1.25 263.713 70.806
1.26 264.391 72.088
1.27 263.582 72.840
1.28 261.839 73.081
1.29 259.489 73.087
1.30 257.510 73.081
1.31 256.287 73.117
1.32 256.644 73.223
1.33 257.822 73.268
1.34 256.445 72.990
1.35 252.716 72.517
1.36 251.273 72.182
1.37 248.663 72.020
1.38 245.442 72.165
1.39 241.669 72.561
1.40 236.138 72.646
1.41 226.609 71.982
1.42 212.433 70.850
1.43 203.892 70.244
1.44 196.805 70.169
1.45 190.386 70.069
1.46 188.879 70.056
1.47 186.939 70.024
1.48 182.387 70.111
1.49 180.156 70.498
1.50 176.935 71.120
1.51 174.113 71.852
1.52 172.496 72.619
1.53 170.042 73.527
1.54 167.830 74.537
1.55 166.031 75.232
1.56 165.208 75.245
1.57 164.670 74.832
1.58 165.272 74.834
1.59 167.930 75.069
1.60 168.607 74.540
1.61 166.780 73.575
1.62 166.523 73.409
1.63 164.805 73.320
1.64 161.769 72.489
1.65 158.639 71.188
1.66 154.488 69.552
1.67 147.081 67.139
1.68 168.268 63.406
1.69 158.685 58.462
1.70 157.703 52.797
1.71 --undefined-- 47.562
1.72 --undefined-- 45.901
1.73 --undefined-- 46.089
1.74 --undefined-- 46.417
1.75 --undefined-- 46.381
1.76 --undefined-- 46.537
1.77 --undefined-- 47.056
1.78 --undefined-- 47.445
1.79 --undefined-- 47.528
1.80 --undefined-- 47.674
1.81 --undefined-- 48.291
1.82 --undefined-- 48.987
1.83 --undefined-- 49.375
1.84 --undefined-- 49.692
1.85 --undefined-- 49.513
1.86 --undefined-- 48.651
1.87 --undefined-- 47.804
1.88 --undefined-- 46.645
1.89 --undefined-- 44.933
1.90 --undefined-- 43.805
1.91 --undefined-- 43.107
1.92 --undefined-- 41.729
1.93 --undefined-- 41.197
1.94 --undefined-- 41.860
1.95 --undefined-- 46.671
1.96 --undefined-- 55.441
1.97 --undefined-- 63.443
1.98 200.537 68.633
1.99 201.845 71.062
2.00 205.851 71.903
2.01 219.100 72.639
2.02 230.101 73.262
2.03 240.123 73.579
2.04 248.675 73.659
2.05 259.594 73.031
2.06 274.486 71.518
2.07 281.681 70.357
2.08 281.660 70.741
2.09 283.441 72.206
2.10 278.430 73.633
2.11 264.617 74.154
2.12 242.503 73.923
2.13 227.493 72.886
2.14 216.248 70.554
2.15 199.965 67.168
2.16 203.028 63.764
2.17 204.582 59.475
2.18 --undefined-- 53.803
2.19 --undefined-- 58.244
2.20 --undefined-- 66.189
2.21 197.847 70.781
2.22 191.995 72.584
2.23 186.836 72.571
2.24 178.698 72.128
2.25 175.209 71.901
2.26 173.349 71.552
2.27 172.810 71.201
2.28 173.923 70.837
2.29 178.582 70.409
2.30 205.135 70.013
2.31 218.253 69.293
2.32 220.761 68.244
2.33 223.697 67.541
2.34 233.961 68.100
2.35 238.180 69.527
2.36 246.715 70.868
2.37 250.763 71.890
2.38 254.365 72.601
2.39 256.065 73.184
2.40 258.413 73.659
2.41 261.969 73.855
2.42 262.453 73.712
2.43 260.628 73.446
2.44 258.990 73.274
2.45 257.566 73.109
2.46 256.388 72.609
2.47 253.886 71.531
2.48 249.427 70.524
2.49 248.558 70.563
2.50 246.688 71.129
2.51 243.259 71.643
2.52 238.754 71.958
2.53 233.345 72.011
2.54 226.505 71.811
2.55 217.437 71.944
2.56 202.665 72.832
2.57 196.906 73.416
2.58 188.343 73.206
2.59 180.582 72.604
2.60 174.007 72.030
2.61 169.132 71.520
2.62 165.990 70.701
2.63 163.966 69.294
2.64 162.922 67.568
2.65 163.695 66.552
2.66 165.521 66.634
2.67 168.184 66.953
2.68 167.582 66.979
2.69 180.732 67.144
2.70 183.024 67.817
2.71 188.672 68.992
2.72 190.730 70.176
2.73 193.663 70.954
2.74 197.272 71.593
2.75 200.548 72.229
2.76 202.865 72.430
2.77 207.407 71.940
2.78 225.575 70.925
2.79 245.025 69.715
2.80 248.532 68.911
2.81 248.360 68.718
2.82 249.169 68.979
2.83 250.764 69.424
2.84 253.191 69.986
2.85 256.546 70.570
2.86 257.883 71.359
2.87 255.807 72.337
2.88 254.218 72.839
2.89 253.324 72.654
2.90 252.168 72.255
2.91 250.365 71.887
2.92 248.900 71.557
2.93 247.889 71.406
2.94 247.190 71.413
2.95 244.085 71.337
2.96 240.580 71.159
2.97 238.421 70.743
2.98 230.998 69.514
2.99 220.817 66.973
3.00 207.357 63.389
3.01 217.426 60.809
3.02 237.283 62.288
3.03 201.344 67.308
3.04 197.312 71.363
3.05 194.273 73.211
3.06 185.243 73.462
3.07 179.589 73.219
3.08 176.795 72.984
3.09 176.074 72.601
3.10 177.382 71.859
3.11 180.418 70.885
3.12 183.346 70.164
3.13 184.736 69.704
3.14 188.526 69.007
3.15 193.261 68.193
3.16 196.324 67.904
3.17 199.705 68.230
3.18 201.305 68.620
3.19 202.734 68.693
3.20 204.410 68.406
3.21 205.797 67.833
3.22 205.847 66.861
3.23 207.170 65.057
3.24 211.217 61.812
3.25 213.772 56.542
3.26 --undefined-- 50.788
3.27 --undefined-- 54.818
3.28 --undefined-- 60.638
3.29 --undefined-- 66.009
3.30 208.738 69.906
3.31 199.780 71.858
3.32 193.495 72.360
3.33 185.802 72.034
3.34 178.987 71.760
3.35 174.667 72.010
3.36 170.238 72.448
3.37 166.046 72.665
3.38 164.674 72.469
3.39 163.824 71.850
3.40 163.262 70.744
3.41 162.385 68.781
3.42 162.219 65.439
3.43 162.346 60.554
3.44 162.707 54.724
3.45 163.018 50.698
3.46 162.226 49.046
3.47 --undefined-- 47.083
3.48 --undefined-- 45.325
3.49 --undefined-- 44.040
3.50 --undefined-- 44.293
3.51 --undefined-- 46.423
3.52 --undefined-- 51.631
3.53 --undefined-- 60.294
3.54 182.898 66.561
3.55 172.408 70.063
3.56 169.504 71.716
3.57 166.886 72.341
3.58 164.592 72.399
3.59 162.355 72.037
3.60 159.054 71.099
3.61 155.284 69.579
3.62 155.112 68.561
3.63 163.468 69.082
3.64 170.388 70.566
3.65 176.340 72.103
3.66 182.733 72.974
3.67 186.150 73.048
3.68 186.855 72.712
3.69 188.306 72.385
3.70 190.478 72.261
3.71 193.560 72.433
3.72 196.194 72.803
3.73 198.873 73.078
3.74 201.527 72.861
3.75 205.270 71.930
3.76 221.332 70.541
3.77 233.830 69.128
3.78 232.277 67.914
3.79 225.665 66.868
3.80 218.995 66.129
3.81 211.259 66.229
3.82 205.565 66.779
3.83 197.718 67.235
3.84 177.656 67.658
3.85 162.208 68.287
3.86 150.090 68.632
3.87 147.537 67.873
3.88 144.869 65.521
3.89 141.893 61.633
3.90 --undefined-- 56.709
3.91 --undefined-- 50.722
3.92 --undefined-- 44.954
3.93 --undefined-- 44.008
3.94 --undefined-- 47.917
3.95 --undefined-- 52.130
3.96 --undefined-- 53.440
3.97 --undefined-- 51.990
3.98 --undefined-- 48.794
3.99 --undefined-- 45.685
4.00 --undefined-- 44.612
4.01 --undefined-- 45.463
4.02 --undefined-- 51.946
4.03 --undefined-- 62.071
4.04 224.165 68.458
4.05 214.803 71.637
4.06 206.975 72.603
4.07 201.905 72.647
4.08 199.190 72.576
4.09 197.745 72.401
4.10 195.951 72.005
4.11 193.061 71.420
4.12 191.137 70.882
4.13 189.638 70.220
4.14 188.753 69.139
4.15 191.263 68.538
4.16 192.786 68.901
4.17 194.266 69.703
4.18 192.974 70.697
4.19 190.613 71.393
4.20 188.648 71.600
4.21 185.333 71.554
4.22 182.026 71.508
4.23 178.673 71.354
4.24 175.770 71.066
4.25 173.582 70.951
4.26 172.093 70.986
4.27 169.097 70.824
4.28 164.710 70.439
4.29 160.022 69.946
4.30 157.892 69.387
4.31 156.458 68.941
4.32 154.862 68.578
4.33 155.651 67.799
4.34 163.824 66.410
4.35 175.614 64.367
4.36 181.255 62.240
4.37 162.629 61.461
4.38 180.830 62.017
4.39 179.995 63.232
4.40 176.180 64.647
4.41 165.597 66.019
4.42 148.631 67.593
4.43 147.850 69.436
4.44 150.597 71.025
4.45 156.469 72.005
4.46 161.107 72.294
4.47 166.110 72.149
4.48 175.641 71.903
4.49 179.452 71.342
4.50 180.900 70.133
4.51 186.291 68.735
4.52 188.426 67.778
4.53 186.241 67.214
4.54 183.965 67.116
4.55 182.047 67.675
4.56 180.813 68.899
4.57 179.234 70.304
4.58 176.665 71.360
4.59 172.453 71.633
4.60 166.585 70.750
4.61 160.567 68.473
4.62 161.309 64.434
4.63 166.754 58.536
4.64 163.270 52.377
4.65 168.330 49.410
4.66 166.524 48.563
4.67 --undefined-- 49.260
4.68 --undefined-- 51.984
4.69 --undefined-- 55.207
4.70 --undefined-- 57.406
4.71 --undefined-- 59.406
4.72 --undefined-- 61.501
4.73 --undefined-- 62.527
4.74 --undefined-- 62.050
4.75 --undefined-- 62.898
4.76 209.392 66.936
4.77 195.711 69.894
4.78 186.549 70.892
4.79 179.824 70.345
4.80 --undefined-- 68.503
4.81 --undefined-- 65.498
4.82 --undefined-- 61.928
4.83 --undefined-- 58.682
4.84 --undefined-- 55.773
4.85 --undefined-- 52.210
4.86 --undefined-- 52.782
4.87 78.374 56.578
4.88 78.674 59.729
4.89 105.766 62.135
4.90 98.990 63.955
4.91 117.988 65.792
4.92 136.134 67.230
4.93 135.238 67.739
4.94 130.977 67.351
4.95 120.415 66.462
4.96 117.557 65.425
4.97 118.741 64.652
4.98 120.147 64.582
4.99 124.276 65.073
5.00 128.191 65.613
5.01 130.721 66.046
5.02 133.550 66.623
5.03 134.172 67.386
5.04 136.802 67.781
5.05 133.114 67.103
5.06 121.490 64.834
5.07 123.106 --undefined--
5.08 --undefined-- --undefined--
5.09 --undefined-- --undefined--
5.10 --undefined-- --undefined--
