Time Pitch Intensity
0.01 --undefined-- --undefined--
0.02 203.944 --undefined--
0.03 206.816 --undefined--
0.04 210.211 --undefined--
0.05 210.261 70.820
0.06 210.030 70.981
0.07 210.108 70.756
0.08 209.536 70.248
0.09 204.517 69.314
0.10 194.784 68.739
0.11 192.188 68.870
0.12 189.045 68.963
0.13 177.244 69.427
0.14 174.070 70.062
0.15 172.116 70.228
0.16 169.229 70.143
0.17 165.574 69.549
0.18 162.689 68.070
0.19 158.893 65.798
0.20 154.355 62.636
0.21 155.395 58.634
0.22 166.031 53.713
0.23 --undefined-- 48.667
0.24 --undefined-- 44.671
0.25 --undefined-- 39.791
0.26 --undefined-- 32.765
0.27 --undefined-- 28.376
0.28 --undefined-- 30.429
0.29 --undefined-- 33.134
0.30 --undefined-- 33.139
0.31 --undefined-- 29.783
0.32 --undefined-- 25.283
0.33 --undefined-- 24.378
0.34 --undefined-- 24.476
0.35 --undefined-- 24.984
0.36 --undefined-- 31.114
0.37 --undefined-- 40.122
0.38 --undefined-- 45.833
0.39 --undefined-- 48.077
0.40 --undefined-- 47.818
0.41 --undefined-- 46.176
0.42 --undefined-- 43.299
0.43 --undefined-- 39.183
0.44 --undefined-- 34.959
0.45 --undefined-- 31.530
0.46 --undefined-- 29.048
0.47 --undefined-- 27.474
0.48 --undefined-- 26.364
0.49 --undefined-- 25.863
0.50 --undefined-- 26.033
0.51 --undefined-- 26.421
0.52 --undefined-- 26.765
0.53 --undefined-- 26.505
0.54 --undefined-- 25.623
0.55 --undefined-- 25.480
0.56 --undefined-- 26.040
0.57 --undefined-- 26.444
0.58 --undefined-- 27.012
0.59 --undefined-- 27.112
0.60 --undefined-- 26.922
0.61 --undefined-- 36.198
0.62 --undefined-- 52.365
0.63 --undefined-- 62.125
0.64 --undefined-- 66.952
0.65 --undefined-- 68.433
0.66 150.625 68.393
0.67 151.968 67.949
0.68 153.885 67.420
0.69 154.714 66.885
0.70 157.231 66.147
0.71 157.260 65.827
0.72 156.480 65.948
0.73 156.600 65.996
0.74 156.818 66.356
0.75 156.502 67.108
0.76 156.464 67.390
0.77 156.180 66.599
0.78 156.173 64.345
0.79 151.944 60.440
0.80 148.221 56.476
0.81 139.292 53.778
0.82 --undefined-- 50.034
0.83 --undefined-- 44.560
0.84 --undefined-- 47.080
0.85 --undefined-- 55.509
0.86 --undefined-- 59.521
0.87 --undefined-- 61.557
0.88 --undefined-- 66.331
0.89 --undefined-- 70.431
0.90 --undefined-- 72.317
0.91 229.993 72.720
0.92 229.595 72.132
0.93 234.551 71.081
0.94 241.533 70.194
0.95 245.224 69.209
0.96 249.330 67.227
0.97 252.604 63.522
0.98 257.289 58.908
0.99 274.201 55.268
1.00 --undefined-- 50.534
1.01 --undefined-- 45.743
1.02 --undefined-- 52.233
1.03 --undefined-- 60.020
1.04 259.874 65.066
1.05 247.855 68.341
1.06 241.090 70.434
1.07 233.102 71.730
1.08 228.819 72.548
1.09 228.132 72.859
1.10 228.853 72.513
1.11 231.906 71.530
1.12 234.243 70.348
1.13 234.396 69.137
1.14 234.599 67.308
1.15 234.555 63.914
1.16 227.377 59.222
1.17 219.624 56.719
1.18 224.354 57.634
1.19 230.740 60.852
1.20 233.140 64.272
1.21 234.225 66.974
1.22 234.834 68.151
1.23 238.086 67.367
1.24 242.472 64.832
1.25 242.689 61.424
1.26 246.625 58.023
1.27 --undefined-- 55.464
1.28 --undefined-- 54.965
1.29 --undefined-- 56.514
1.30 --undefined-- 57.696
1.31 --undefined-- 58.297
1.32 --undefined-- 59.559
1.33 --undefined-- 60.613
1.34 --undefined-- 60.092
1.35 --undefined-- 58.925
1.36 --undefined-- 62.831
1.37 --undefined-- 68.388
1.38 --undefined-- 71.468
1.39 --undefined-- 72.470
1.40 157.823 72.593
1.41 156.222 72.029
1.42 156.502 70.468
1.43 157.265 68.912
1.44 158.201 68.303
1.45 161.022 68.269
1.46 165.040 67.946
1.47 168.757 66.449
1.48 180.594 64.215
1.49 197.165 62.825
1.50 207.587 62.177
1.51 218.945 61.452
1.52 224.055 60.629
1.53 227.123 59.055
1.54 --undefined-- 57.004
1.55 --undefined-- 57.316
1.56 --undefined-- 58.610
1.57 --undefined-- 58.943
1.58 --undefined-- 58.901
1.59 --undefined-- 58.429
1.60 --undefined-- 57.601
1.61 --undefined-- 57.351
1.62 --undefined-- 57.787
1.63 --undefined-- 57.952
1.64 --undefined-- 57.422
1.65 --undefined-- 57.436
1.66 171.719 59.964
1.67 171.049 63.516
1.68 175.087 66.498
1.69 179.566 68.546
1.70 182.296 69.796
1.71 183.143 70.783
1.72 183.003 71.649
1.73 182.960 71.850
1.74 183.308 71.266
1.75 185.102 70.563
1.76 185.843 70.147
1.77 186.112 70.144
1.78 187.630 70.618
1.79 189.515 70.945
1.80 190.360 70.677
1.81 192.603 69.837
1.82 195.742 68.934
1.83 197.229 68.151
1.84 200.400 67.011
1.85 204.746 65.359
1.86 210.780 64.452
1.87 208.995 65.535
1.88 --undefined-- 67.279
1.89 --undefined-- 68.400
1.90 --undefined-- 68.493
1.91 --undefined-- 67.934
1.92 146.200 67.796
1.93 147.285 68.090
1.94 148.631 68.190
1.95 151.215 67.756
1.96 154.214 67.296
1.97 157.646 67.292
1.98 160.422 67.205
1.99 163.011 66.578
2.00 164.165 65.433
2.01 166.307 63.391
2.02 179.886 60.044
2.03 206.478 55.776
2.04 219.448 52.223
2.05 --undefined-- 49.294
2.06 --undefined-- 47.550
2.07 --undefined-- 47.199
2.08 --undefined-- 47.053
2.09 --undefined-- 47.082
2.10 --undefined-- 46.693
2.11 --undefined-- 46.749
2.12 295.470 46.715
2.13 --undefined-- 45.791
2.14 --undefined-- 45.296
2.15 --undefined-- 47.424
2.16 --undefined-- 56.439
2.17 290.618 65.158
2.18 258.188 70.334
2.19 249.233 72.488
2.20 245.086 72.466
2.21 236.451 71.390
2.22 233.463 70.210
2.23 230.967 69.153
2.24 228.332 68.275
2.25 227.450 67.608
2.26 228.263 67.269
2.27 230.516 67.120
2.28 229.048 66.510
2.29 222.636 65.151
2.30 217.007 63.530
2.31 217.652 62.880
2.32 214.835 63.704
2.33 209.130 64.858
2.34 205.170 65.710
2.35 198.042 66.404
2.36 185.693 67.365
2.37 177.461 68.575
2.38 174.098 69.406
2.39 168.048 69.547
2.40 163.604 68.936
2.41 162.103 67.633
2.42 154.362 65.922
2.43 154.505 64.434
2.44 156.034 63.614
2.45 155.329 63.536
2.46 155.420 64.053
2.47 158.175 64.316
2.48 160.203 63.971
2.49 160.248 63.799
2.50 161.188 63.610
2.51 160.272 61.696
2.52 158.596 56.974
2.53 --undefined-- 49.352
2.54 --undefined-- 45.267
2.55 --undefined-- 48.773
2.56 --undefined-- 51.586
2.57 --undefined-- 53.239
2.58 --undefined-- 53.928
2.59 --undefined-- 53.966
2.60 --undefined-- 56.360
2.61 165.365 61.915
2.62 164.365 65.965
2.63 163.382 67.890
2.64 162.993 68.435
2.65 161.602 68.213
2.66 160.209 67.450
2.67 164.621 66.702
2.68 174.406 66.757
2.69 186.682 67.034
2.70 199.568 66.526
2.71 210.142 66.060
2.72 221.146 67.850
2.73 225.801 70.277
2.74 228.900 71.549
2.75 232.545 72.041
2.76 234.960 72.230
2.77 235.028 72.030
2.78 233.455 71.820
2.79 229.446 71.947
2.80 228.213 71.940
2.81 229.408 71.661
2.82 228.365 71.169
2.83 225.162 70.110
2.84 221.180 68.399
2.85 216.446 66.044
2.86 212.050 62.876
2.87 214.425 58.988
2.88 201.480 55.010
2.89 188.441 51.948
2.90 177.699 50.592
2.91 179.557 52.385
2.92 185.773 58.214
2.93 186.159 64.018
2.94 183.383 67.612
2.95 179.217 68.938
2.96 176.409 68.657
2.97 170.338 68.053
2.98 165.989 67.793
2.99 164.908 67.288
3.00 163.493 66.484
3.01 163.061 65.503
3.02 163.979 64.443
3.03 168.242 63.891
3.04 172.751 63.696
3.05 176.484 63.019
3.06 179.693 62.506
3.07 185.512 62.827
3.08 191.474 63.655
3.09 193.995 64.997
3.10 193.346 66.390
3.11 183.727 67.770
3.12 176.609 69.217
3.13 172.549 70.094
3.14 170.185 69.931
3.15 166.278 69.119
3.16 163.523 68.566
3.17 160.085 68.694
3.18 153.556 69.041
3.19 153.467 68.806
3.20 154.315 67.608
3.21 155.517 66.103
3.22 155.757 65.524
3.23 156.705 65.692
3.24 157.072 65.876
3.25 158.443 66.348
3.26 159.559 67.214
3.27 158.931 67.759
3.28 158.982 67.542
3.29 156.422 66.547
3.30 156.366 65.463
3.31 158.127 64.970
3.32 159.163 64.492
3.33 155.539 63.377
3.34 152.303 61.775
3.35 156.414 59.985
3.36 157.764 57.772
3.37 158.145 55.258
3.38 174.692 52.580
3.39 --undefined-- 49.897
3.40 --undefined-- 50.389
3.41 --undefined-- 54.851
3.42 236.535 59.871
3.43 240.960 65.180
3.44 235.308 69.055
3.45 232.450 70.706
3.46 230.850 70.960
3.47 229.088 71.293
3.48 227.584 71.756
3.49 224.923 71.963
3.50 222.267 72.029
3.51 218.500 71.882
3.52 215.762 71.623
3.53 215.936 71.577
3.54 216.089 71.768
3.55 214.267 72.002
3.56 210.166 72.120
3.57 205.935 72.003
3.58 203.661 71.595
3.59 201.822 70.875
3.60 200.554 70.112
3.61 198.790 69.520
3.62 194.831 69.187
3.63 190.190 69.142
3.64 186.832 69.074
3.65 184.612 68.766
3.66 180.793 68.548
3.67 178.685 68.592
3.68 177.573 68.689
3.69 177.216 68.584
3.70 176.598 68.397
3.71 175.357 68.215
3.72 174.162 67.881
3.73 172.828 67.524
3.74 169.768 67.023
3.75 166.031 66.049
3.76 159.460 64.564
3.77 150.218 62.703
3.78 141.491 60.971
3.79 135.219 59.544
3.80 --undefined-- 57.960
3.81 --undefined-- 56.700
3.82 --undefined-- 58.186
3.83 --undefined-- 63.116
3.84 --undefined-- 67.041
3.85 --undefined-- 69.302
3.86 --undefined-- 70.365
3.87 --undefined-- 70.498
3.88 173.706 70.471
3.89 175.772 70.690
3.90 176.582 70.731
3.91 174.757 70.273
3.92 173.434 69.518
3.93 171.330 68.891
3.94 170.407 68.701
3.95 170.826 68.718
3.96 170.011 68.693
3.97 168.090 68.640
3.98 166.464 68.826
3.99 164.378 69.113
4.00 164.102 68.984
4.01 164.666 68.483
4.02 164.315 67.859
4.03 163.742 66.954
4.04 163.776 65.531
4.05 163.802 63.388
4.06 163.018 60.976
4.07 162.773 59.682
4.08 163.588 59.926
4.09 169.677 61.513
4.10 181.203 63.669
4.11 196.068 65.317
4.12 210.309 66.723
4.13 217.966 68.108
4.14 220.988 68.625
4.15 222.415 67.590
4.16 226.546 64.970
4.17 231.665 60.717
4.18 242.685 54.146
4.19 --undefined-- 44.994
4.20 --undefined-- 33.407
4.21 --undefined-- 26.565
4.22 --undefined-- 26.002
4.23 --undefined-- 25.887
4.24 --undefined-- 30.075
4.25 --undefined-- 39.222
4.26 --undefined-- 45.903
4.27 --undefined-- 51.072
4.28 --undefined-- 55.673
4.29 --undefined-- 58.632
4.30 --undefined-- 59.913
4.31 --undefined-- 59.966
4.32 --undefined-- 59.245
4.33 --undefined-- 58.881
4.34 --undefined-- 58.004
4.35 --undefined-- 55.268
4.36 --undefined-- 51.699
4.37 --undefined-- 50.017
4.38 --undefined-- 51.866
4.39 148.197 56.206
4.40 142.170 60.027
4.41 148.687 62.155
4.42 154.200 62.583
4.43 151.016 62.393
4.44 172.507 62.775
4.45 167.258 62.651
4.46 156.811 61.767
4.47 157.944 60.242
4.48 --undefined-- 56.062
4.49 --undefined-- 47.508
4.50 --undefined-- 34.269
4.51 --undefined-- 27.762
4.52 --undefined-- 27.652
4.53 --undefined-- 27.853
4.54 --undefined-- 28.354
4.55 --undefined-- 40.721
4.56 --undefined-- 54.599
4.57 --undefined-- 63.735
4.58 230.867 69.268
4.59 228.028 72.009
4.60 222.923 72.729
4.61 219.485 71.933
4.62 218.989 69.762
4.63 217.196 65.868
4.64 --undefined-- 59.747
4.65 --undefined-- 52.005
4.66 --undefined-- 43.745
4.67 --undefined-- 37.752
4.68 --undefined-- 43.732
4.69 --undefined-- 50.219
4.70 --undefined-- 54.161
4.71 --undefined-- 56.425
4.72 --undefined-- 57.820
4.73 --undefined-- 59.986
4.74 --undefined-- 60.918
4.75 --undefined-- 59.409
4.76 239.305 56.426
4.77 240.673 53.590
4.78 238.596 52.990
4.79 239.307 52.596
4.80 --undefined-- 50.789
4.81 --undefined-- 50.468
4.82 --undefined-- 51.818
4.83 --undefined-- 52.670
4.84 --undefined-- 52.980
4.85 --undefined-- 54.111
4.86 --undefined-- 59.964
4.87 --undefined-- 66.454
4.88 153.056 70.376
4.89 156.100 71.823
4.90 --undefined-- 71.358
4.91 100.521 69.869
4.92 98.688 67.578
4.93 98.032 64.695
4.94 --undefined-- 63.656
4.95 --undefined-- 65.135
4.96 --undefined-- 66.230
4.97 --undefined-- 65.868
4.98 --undefined-- 65.557
4.99 149.193 66.024
5.00 148.608 66.608
5.01 156.896 67.286
5.02 166.260 68.263
5.03 170.872 69.456
5.04 177.937 70.208
5.05 179.751 70.068
5.06 179.949 69.040
5.07 181.246 67.439
5.08 174.478 66.729
5.09 169.505 67.592
5.10 169.764 68.711
5.11 167.702 69.790
5.12 163.408 70.654
5.13 160.209 71.333
5.14 155.970 72.296
5.15 154.511 73.001
5.16 155.560 72.522
5.17 160.786 70.830
5.18 222.204 68.166
5.19 227.707 64.145
5.20 225.974 58.164
5.21 --undefined-- 54.461
5.22 --undefined-- 53.961
5.23 --undefined-- 50.492
5.24 --undefined-- 43.354
5.25 --undefined-- 35.042
5.26 --undefined-- 29.499
5.27 --undefined-- 29.654
5.28 --undefined-- 35.854
5.29 --undefined-- 41.769
5.30 --undefined-- 45.873
5.31 --undefined-- 49.631
5.32 258.079 52.435
5.33 255.364 53.473
5.34 --undefined-- 53.207
5.35 --undefined-- 52.926
5.36 --undefined-- 53.158
5.37 --undefined-- 53.761
5.38 --undefined-- 54.307
5.39 --undefined-- 53.886
5.40 --undefined-- 52.837
5.41 --undefined-- 52.476
5.42 --undefined-- 54.151
5.43 --undefined-- 55.700
5.44 --undefined-- 55.912
5.45 --undefined-- 54.907
5.46 --undefined-- 52.893
5.47 --undefined-- 50.224
5.48 --undefined-- 47.196
5.49 --undefined-- 43.707
5.50 --undefined-- 39.742
5.51 --undefined-- 35.435
5.52 --undefined-- 30.720
5.53 --undefined-- 26.592
5.54 --undefined-- 24.531
5.55 --undefined-- 24.560
5.56 --undefined-- 25.467
5.57 --undefined-- 26.668
5.58 --undefined-- 28.114
5.59 --undefined-- 33.690
5.60 --undefined-- 41.953
5.61 --undefined-- 51.510
5.62 --undefined-- 61.394
5.63 --undefined-- 67.560
5.64 185.823 71.024
5.65 184.002 72.762
5.66 182.541 73.380
5.67 182.612 --undefined--
5.68 182.627 --undefined--
5.69 --undefined-- --undefined--
5.70 --undefined-- --undefined--
