Time Pitch Intensity
0.01 --undefined-- --undefined--
0.02 207.979 --undefined--
0.03 202.189 --undefined--
0.04 200.062 --undefined--
0.05 199.302 74.846
0.06 198.487 74.867
0.07 197.829 74.826
0.08 197.315 74.825
0.09 196.552 74.764
0.10 196.176 74.663
0.11 196.241 74.514
0.12 196.062 74.351
0.13 195.576 74.179
0.14 194.548 73.969
0.15 194.036 73.864
0.16 193.892 73.795
0.17 194.388 73.491
0.18 194.703 73.008
0.19 194.914 72.506
0.20 194.718 71.984
0.21 193.931 71.146
0.22 192.508 69.338
0.23 193.290 66.174
0.24 192.694 62.028
0.25 188.774 57.744
0.26 187.580 53.525
0.27 --undefined-- 48.775
0.28 --undefined-- 43.200
0.29 --undefined-- 39.310
0.30 --undefined-- 40.813
0.31 --undefined-- 44.945
0.32 --undefined-- 49.636
0.33 --undefined-- 53.357
0.34 --undefined-- 57.253
0.35 --undefined-- 66.214
0.36 --undefined-- 73.000
0.37 222.238 76.316
0.38 219.456 77.020
0.39 215.744 76.252
0.40 214.037 75.263
0.41 212.971 74.587
0.42 211.722 74.229
0.43 210.479 74.118
0.44 210.411 74.081
0.45 211.105 73.996
0.46 211.724 73.801
0.47 211.968 73.436
0.48 211.566 72.810
0.49 209.909 71.626
0.50 205.942 69.654
0.51 215.517 67.706
0.52 215.275 66.587
0.53 213.523 65.376
0.54 211.681 63.278
0.55 208.512 60.335
0.56 205.832 57.458
0.57 202.793 56.997
0.58 220.317 60.998
0.59 220.772 65.972
0.60 219.822 69.653
0.61 218.043 71.552
0.62 215.816 72.029
0.63 214.079 71.793
0.64 212.670 71.535
0.65 211.921 71.563
0.66 211.370 71.771
0.67 210.959 72.036
0.68 210.369 72.299
0.69 209.602 72.530
0.70 208.758 72.755
0.71 207.519 73.051
0.72 206.647 73.374
0.73 206.722 73.615
0.74 207.034 73.781
0.75 207.327 74.005
0.76 207.287 74.212
0.77 207.541 74.225
0.78 208.013 73.984
0.79 207.336 73.412
0.80 204.282 72.359
0.81 201.294 70.523
0.82 198.378 67.903
0.83 193.679 65.283
0.84 190.215 63.452
0.85 188.207 62.463
0.86 186.620 61.785
0.87 183.652 61.028
0.88 179.776 60.386
0.89 175.851 60.708
0.90 171.993 62.385
0.91 168.288 64.669
0.92 163.433 67.230
0.93 159.207 70.012
0.94 157.577 72.600
0.95 156.907 74.687
0.96 157.111 76.127
0.97 157.573 76.519
0.98 154.931 75.631
0.99 148.878 74.266
1.00 145.994 74.051
1.01 143.586 74.836
1.02 142.277 75.464
1.03 140.283 75.202
1.04 136.662 73.900
1.05 129.888 72.096
1.06 --undefined-- 70.532
1.07 --undefined-- 68.188
1.08 --undefined-- 63.878
1.09 --undefined-- 57.715
1.10 --undefined-- 50.146
1.11 --undefined-- 42.784
1.12 --undefined-- 38.989
1.13 --undefined-- 40.530
1.14 --undefined-- 45.112
1.15 --undefined-- 48.047
1.16 --undefined-- 49.270
1.17 --undefined-- 49.952
1.18 --undefined-- 50.363
1.19 --undefined-- 50.562
1.20 --undefined-- 50.251
1.21 --undefined-- 49.011
1.22 --undefined-- 48.374
1.23 --undefined-- 49.157
1.24 --undefined-- 49.697
1.25 --undefined-- 50.263
1.26 --undefined-- 51.568
1.27 --undefined-- 52.422
1.28 --undefined-- 52.909
1.29 --undefined-- 54.741
1.30 --undefined-- 57.155
1.31 --undefined-- 58.221
1.32 --undefined-- 60.436
1.33 --undefined-- 67.589
1.34 --undefined-- 72.516
1.35 218.546 74.474
1.36 203.463 74.683
1.37 206.010 74.353
1.38 205.491 74.097
1.39 204.187 73.840
1.40 201.917 73.524
1.41 197.563 73.358
1.42 191.853 73.334
1.43 187.373 73.098
1.44 182.629 72.313
1.45 180.381 70.852
1.46 178.602 68.232
1.47 173.526 63.497
1.48 --undefined-- 57.367
1.49 --undefined-- 61.827
1.50 --undefined-- 70.134
1.51 --undefined-- 74.969
1.52 169.925 76.925
1.53 163.450 77.070
1.54 158.709 76.038
1.55 153.713 74.538
1.56 152.547 73.912
1.57 152.369 73.775
1.58 152.480 72.907
1.59 152.593 71.288
1.60 147.174 69.707
1.61 141.569 67.425
1.62 --undefined-- 63.209
1.63 --undefined-- 57.236
1.64 --undefined-- 51.183
1.65 --undefined-- 49.608
1.66 --undefined-- 51.260
1.67 --undefined-- 56.604
1.68 --undefined-- 63.846
1.69 --undefined-- 68.593
1.70 --undefined-- 70.610
1.71 --undefined-- 71.023
1.72 --undefined-- 71.398
1.73 --undefined-- 71.970
1.74 --undefined-- 72.510
1.75 145.292 72.930
1.76 149.840 73.115
1.77 152.972 73.262
1.78 157.101 73.474
1.79 161.688 73.537
1.80 167.820 72.732
1.81 173.391 70.188
1.82 177.128 65.390
1.83 177.180 58.603
1.84 176.759 53.237
1.85 184.299 52.744
1.86 187.520 53.506
1.87 181.576 55.229
1.88 187.011 60.142
1.89 198.079 66.348
1.90 209.480 71.215
1.91 205.894 74.340
1.92 --undefined-- 76.248
1.93 --undefined-- 76.871
1.94 --undefined-- 76.443
1.95 143.357 75.888
1.96 139.684 74.986
1.97 132.573 73.127
1.98 125.785 70.593
1.99 117.723 67.916
2.00 111.058 65.221
2.01 109.812 62.665
2.02 113.512 60.078
2.03 143.977 57.991
2.04 146.569 56.797
2.05 151.340 56.343
2.06 161.051 55.565
2.07 164.824 53.653
2.08 --undefined-- 49.987
2.09 --undefined-- 43.669
2.10 --undefined-- 37.487
2.11 --undefined-- 39.440
2.12 --undefined-- 42.205
2.13 --undefined-- 43.173
2.14 --undefined-- 44.064
2.15 --undefined-- 46.524
2.16 --undefined-- 48.161
2.17 --undefined-- 49.449
2.18 --undefined-- 50.953
2.19 --undefined-- 51.527
2.20 --undefined-- 51.573
2.21 --undefined-- 52.235
2.22 --undefined-- 53.062
2.23 --undefined-- 53.533
2.24 --undefined-- 53.683
2.25 --undefined-- 53.213
2.26 --undefined-- 52.463
2.27 --undefined-- 52.597
2.28 --undefined-- 53.607
2.29 --undefined-- 53.971
2.30 --undefined-- 53.559
2.31 --undefined-- 53.709
2.32 --undefined-- 54.092
2.33 --undefined-- 53.934
2.34 --undefined-- 54.135
2.35 --undefined-- 54.309
2.36 --undefined-- 53.277
2.37 --undefined-- 51.048
2.38 --undefined-- 48.593
2.39 --undefined-- 47.314
2.40 --undefined-- 46.210
2.41 --undefined-- 44.453
2.42 --undefined-- 41.930
2.43 --undefined-- 38.903
2.44 --undefined-- 37.016
2.45 --undefined-- 36.008
2.46 --undefined-- 34.059
2.47 --undefined-- 33.371
2.48 --undefined-- 35.073
2.49 --undefined-- 43.781
2.50 --undefined-- 52.259
2.51 --undefined-- 57.689
2.52 --undefined-- 63.951
2.53 --undefined-- 70.287
2.54 168.537 74.169
2.55 171.102 75.889
2.56 176.481 76.470
2.57 184.129 76.787
2.58 190.331 76.934
2.59 193.241 76.625
2.60 194.263 75.581
2.61 195.590 73.430
2.62 198.984 69.940
2.63 196.939 65.368
2.64 196.733 60.493
2.65 196.237 56.224
2.66 --undefined-- 54.575
2.67 --undefined-- 56.136
2.68 --undefined-- 62.433
2.69 --undefined-- 70.724
2.70 286.003 75.774
2.71 280.577 78.026
2.72 271.401 78.435
2.73 258.526 77.577
2.74 246.741 76.018
2.75 240.504 74.428
2.76 235.893 73.301
2.77 232.937 72.809
2.78 233.400 73.154
2.79 236.256 74.240
2.80 238.077 75.419
2.81 238.197 76.109
2.82 237.895 76.196
2.83 236.973 76.113
2.84 235.059 76.243
2.85 232.262 76.115
2.86 229.470 74.741
2.87 223.908 71.354
2.88 219.580 65.832
2.89 221.896 59.663
2.90 220.217 55.031
2.91 --undefined-- 53.223
2.92 --undefined-- 58.167
2.93 --undefined-- 62.060
2.94 --undefined-- 66.740
2.95 --undefined-- 73.078
2.96 --undefined-- 76.637
2.97 230.131 77.766
2.98 224.781 77.834
2.99 221.955 77.630
3.00 219.973 77.229
3.01 218.720 76.623
3.02 217.821 75.925
3.03 216.985 74.941
3.04 216.054 73.051
3.05 215.216 69.867
3.06 216.129 66.667
3.07 220.568 66.497
3.08 221.945 67.628
3.09 222.745 68.335
3.10 223.174 68.597
3.11 223.171 68.521
3.12 222.676 68.109
3.13 221.016 68.086
3.14 221.571 70.471
3.15 221.135 74.388
3.16 221.043 77.527
3.17 220.792 78.997
3.18 220.200 78.570
3.19 219.977 76.404
3.20 219.696 72.892
3.21 217.421 68.106
3.22 215.662 62.109
3.23 211.625 55.783
3.24 --undefined-- 49.469
3.25 --undefined-- 43.628
3.26 --undefined-- 41.534
3.27 --undefined-- 40.636
3.28 --undefined-- 38.407
3.29 --undefined-- 37.491
3.30 --undefined-- 38.859
3.31 --undefined-- 44.254
3.32 --undefined-- 57.120
3.33 --undefined-- 67.626
3.34 --undefined-- 73.800
3.35 178.485 76.546
3.36 174.092 76.825
3.37 162.454 75.568
3.38 154.200 73.729
3.39 150.967 71.635
3.40 145.968 68.971
3.41 143.264 66.535
3.42 140.083 65.304
3.43 137.572 64.719
3.44 137.064 64.010
3.45 136.671 62.911
3.46 136.492 61.728
3.47 135.870 60.864
3.48 134.469 60.111
3.49 132.620 59.105
3.50 132.124 58.290
3.51 137.808 59.902
3.52 142.434 64.602
3.53 141.524 69.733
3.54 139.074 73.238
3.55 --undefined-- 74.837
3.56 --undefined-- 75.138
3.57 --undefined-- 74.678
3.58 108.841 73.765
3.59 109.340 73.031
3.60 108.114 72.884
3.61 109.168 72.904
3.62 111.108 72.629
3.63 111.853 72.017
3.64 113.358 71.234
3.65 115.087 70.092
3.66 116.896 68.545
3.67 118.728 66.284
3.68 119.614 63.533
3.69 121.826 61.618
3.70 125.661 60.524
3.71 130.839 59.878
3.72 133.034 59.981
3.73 135.496 60.642
3.74 137.261 61.217
3.75 142.495 61.236
3.76 149.289 60.594
3.77 150.614 59.565
3.78 155.188 58.459
3.79 161.033 57.741
3.80 166.139 57.870
3.81 172.403 59.064
3.82 179.746 61.893
3.83 185.397 65.863
3.84 192.148 69.991
3.85 200.095 73.492
3.86 206.039 75.801
3.87 210.298 76.779
3.88 210.991 76.268
3.89 209.096 73.874
3.90 208.452 70.430
3.91 210.384 69.582
3.92 212.035 70.263
3.93 212.808 70.350
3.94 203.875 69.647
3.95 200.080 68.034
3.96 195.577 65.162
3.97 190.369 61.840
3.98 187.140 60.328
3.99 188.827 60.633
4.00 193.448 63.324
4.01 198.902 67.602
4.02 199.294 71.807
4.03 169.954 74.845
4.04 162.869 76.028
4.05 156.713 75.496
4.06 154.049 74.027
4.07 152.300 72.453
4.08 151.723 70.960
4.09 152.350 69.933
4.10 154.570 70.005
4.11 158.170 70.599
4.12 160.708 70.278
4.13 160.534 67.997
4.14 154.700 63.127
4.15 --undefined-- 56.241
4.16 --undefined-- 51.457
4.17 --undefined-- 52.411
4.18 --undefined-- 55.615
4.19 --undefined-- 58.516
4.20 --undefined-- 60.232
4.21 --undefined-- 60.835
4.22 --undefined-- 63.790
4.23 --undefined-- 70.861
4.24 214.628 75.472
4.25 205.665 77.179
4.26 199.444 77.042
4.27 196.490 76.266
4.28 197.151 75.381
4.29 198.220 74.164
4.30 198.103 72.512
4.31 198.009 70.847
4.32 197.179 69.364
4.33 195.533 67.199
4.34 191.821 63.896
4.35 189.930 60.548
4.36 188.847 61.107
4.37 188.870 64.215
4.38 187.548 67.211
4.39 183.280 70.310
4.40 179.065 73.400
4.41 173.318 75.298
4.42 166.032 75.522
4.43 157.774 74.610
4.44 150.261 73.478
4.45 145.085 72.547
4.46 143.113 71.863
4.47 141.564 71.281
4.48 139.821 70.708
4.49 137.472 70.192
4.50 135.479 69.696
4.51 134.492 69.003
4.52 134.561 68.096
4.53 137.524 68.010
4.54 141.419 69.916
4.55 144.109 72.274
4.56 147.282 74.001
4.57 151.104 75.034
4.58 154.993 75.689
4.59 161.107 76.461
4.60 164.424 77.298
4.61 167.068 77.469
4.62 171.442 76.874
4.63 175.247 75.939
4.64 180.569 75.006
4.65 187.757 74.657
4.66 193.024 74.884
4.67 204.143 75.432
4.68 212.272 76.192
4.69 219.151 76.070
4.70 230.006 74.696
4.71 239.169 72.773
4.72 245.408 70.979
4.73 253.242 68.927
4.74 264.486 66.204
4.75 272.109 63.366
4.76 277.627 60.550
4.77 271.835 56.603
4.78 --undefined-- 50.755
4.79 --undefined-- 43.904
4.80 --undefined-- 41.089
4.81 --undefined-- 40.444
4.82 --undefined-- 38.771
4.83 --undefined-- 37.689
4.84 --undefined-- 38.866
4.85 --undefined-- 47.083
4.86 --undefined-- 58.294
4.87 163.654 65.789
4.88 143.151 70.160
4.89 135.433 72.445
4.90 134.064 73.401
4.91 133.346 73.814
4.92 133.089 74.095
4.93 133.109 74.355
4.94 133.106 74.555
4.95 133.508 74.694
4.96 133.063 74.653
4.97 131.529 74.373
4.98 130.174 73.981
4.99 128.043 73.516
5.00 126.301 73.005
5.01 124.649 72.511
5.02 122.136 72.023
5.03 119.610 71.590
5.04 117.452 71.147
5.05 113.819 70.402
5.06 110.476 69.136
5.07 106.739 67.549
5.08 103.684 65.986
5.09 105.127 64.552
5.10 110.889 62.702
5.11 79.557 60.062
5.12 --undefined-- 57.927
5.13 107.075 56.512
5.14 103.234 55.045
5.15 103.786 54.008
5.16 104.083 53.133
5.17 110.648 52.568
5.18 115.174 52.406
5.19 --undefined-- 51.645
5.20 --undefined-- 49.619
5.21 --undefined-- 46.316
5.22 --undefined-- 43.083
5.23 --undefined-- 40.770
5.24 --undefined-- 38.125
5.25 --undefined-- 35.378
5.26 --undefined-- 34.829
5.27 --undefined-- 35.670
5.28 --undefined-- 35.188
5.29 --undefined-- 35.127
5.30 --undefined-- 36.545
5.31 --undefined-- 36.738
5.32 --undefined-- 35.350
5.33 --undefined-- 34.237
5.34 --undefined-- 35.619
5.35 --undefined-- 39.053
5.36 --undefined-- 42.563
5.37 --undefined-- 45.556
5.38 --undefined-- 49.078
5.39 --undefined-- 57.310
5.40 --undefined-- 66.150
5.41 --undefined-- 71.490
5.42 --undefined-- --undefined--
5.43 --undefined-- --undefined--
5.44 --undefined-- --undefined--
5.45 --undefined-- --undefined--
