Time Pitch Intensity
0.01 --undefined-- --undefined--
0.02 --undefined-- --undefined--
0.03 197.803 --undefined--
0.04 198.366 --undefined--
0.05 192.847 77.046
0.06 192.040 76.546
0.07 192.358 76.167
0.08 192.316 76.073
0.09 192.062 76.133
0.10 191.971 76.152
0.11 190.463 76.336
0.12 187.770 76.940
0.13 187.117 77.478
0.14 187.427 77.651
0.15 188.143 77.624
0.16 189.932 77.462
0.17 195.867 77.171
0.18 195.954 76.642
0.19 191.452 76.066
0.20 185.189 75.765
0.21 180.520 75.752
0.22 176.047 75.516
0.23 167.552 74.352
0.24 159.505 71.746
0.25 152.368 68.671
0.26 142.382 69.184
0.27 149.986 72.825
0.28 150.998 75.708
0.29 150.200 76.739
0.30 145.257 76.519
0.31 135.298 76.087
0.32 130.477 75.487
0.33 124.875 73.803
0.34 98.240 70.182
0.35 97.297 64.541
0.36 125.086 59.993
0.37 126.431 57.955
0.38 127.454 56.130
0.39 130.233 61.774
0.40 --undefined-- 70.547
0.41 --undefined-- 75.501
0.42 --undefined-- 76.958
0.43 153.588 76.293
0.44 148.820 75.458
0.45 146.641 75.331
0.46 149.306 75.600
0.47 154.584 75.887
0.48 159.279 76.194
0.49 162.897 76.601
0.50 165.522 76.905
0.51 168.433 76.888
0.52 169.925 76.395
0.53 167.535 75.403
0.54 163.079 73.740
0.55 162.188 70.919
0.56 164.749 67.095
0.57 164.798 63.223
0.58 167.170 59.724
0.59 168.661 57.824
0.60 168.634 61.824
0.61 --undefined-- 69.890
0.62 267.303 74.021
0.63 269.166 74.126
0.64 182.130 73.082
0.65 160.102 75.618
0.66 151.138 77.268
0.67 143.688 77.158
0.68 138.071 76.441
0.69 132.875 75.279
0.70 125.283 72.790
0.71 109.833 68.563
0.72 96.320 64.105
0.73 89.770 61.545
0.74 --undefined-- 59.516
0.75 --undefined-- 56.497
0.76 --undefined-- 52.637
0.77 --undefined-- 49.510
0.78 --undefined-- 47.871
0.79 --undefined-- 47.151
0.80 --undefined-- 46.796
0.81 --undefined-- 46.536
0.82 --undefined-- 45.291
0.83 --undefined-- 44.197
0.84 --undefined-- 54.080
0.85 --undefined-- 65.545
0.86 --undefined-- 72.752
0.87 --undefined-- 76.268
0.88 163.604 77.196
0.89 167.743 77.103
0.90 169.448 77.070
0.91 171.899 77.082
0.92 177.196 76.997
0.93 181.809 76.986
0.94 184.060 77.117
0.95 186.341 77.092
0.96 189.166 76.948
0.97 191.067 76.805
0.98 192.721 76.492
0.99 192.629 75.627
1.00 189.613 73.688
1.01 179.254 70.801
1.02 176.294 67.791
1.03 185.790 64.467
1.04 191.334 59.710
1.05 190.652 55.131
1.06 --undefined-- 62.725
1.07 --undefined-- 70.257
1.08 --undefined-- 73.693
1.09 --undefined-- 73.638
1.10 --undefined-- 71.438
1.11 --undefined-- 70.320
1.12 --undefined-- 72.355
1.13 139.513 74.878
1.14 136.027 76.485
1.15 145.008 77.608
1.16 126.522 77.936
1.17 110.501 77.472
1.18 100.367 76.839
1.19 92.375 76.289
1.20 92.428 75.915
1.21 91.896 75.670
1.22 91.713 75.348
1.23 92.300 74.921
1.24 92.896 74.129
1.25 93.013 72.481
1.26 92.958 69.374
1.27 91.836 64.600
1.28 --undefined-- 59.138
1.29 --undefined-- 55.263
1.30 --undefined-- 53.635
1.31 --undefined-- 52.324
1.32 --undefined-- 50.610
1.33 --undefined-- 49.258
1.34 --undefined-- 50.567
1.35 --undefined-- 61.705
1.36 --undefined-- 70.469
1.37 150.359 75.001
1.38 147.814 76.507
1.39 147.278 76.755
1.40 152.921 77.199
1.41 154.582 77.679
1.42 157.549 77.828
1.43 161.346 77.705
1.44 164.347 77.399
1.45 167.450 76.790
1.46 170.692 75.881
1.47 174.309 75.040
1.48 176.217 74.667
1.49 176.351 74.317
1.50 173.558 73.114
1.51 171.813 70.714
1.52 175.088 67.077
1.53 175.967 62.430
1.54 173.610 58.557
1.55 171.687 56.295
1.56 172.505 53.933
1.57 172.544 52.313
1.58 --undefined-- 51.298
1.59 --undefined-- 51.517
1.60 --undefined-- 56.425
1.61 --undefined-- 60.378
1.62 --undefined-- 61.050
1.63 --undefined-- 59.521
1.64 --undefined-- 58.405
1.65 --undefined-- 58.388
1.66 --undefined-- 58.071
1.67 --undefined-- 57.476
1.68 --undefined-- 57.286
1.69 172.189 57.996
1.70 185.252 58.720
1.71 184.285 58.739
1.72 182.644 58.166
1.73 182.192 57.575
1.74 175.979 57.020
1.75 176.420 56.083
1.76 --undefined-- 54.784
1.77 --undefined-- 53.599
1.78 --undefined-- 52.769
1.79 --undefined-- 51.694
1.80 --undefined-- 50.792
1.81 --undefined-- 50.271
1.82 --undefined-- 50.281
1.83 --undefined-- 50.825
1.84 --undefined-- 50.661
1.85 --undefined-- 49.613
1.86 --undefined-- 47.723
1.87 --undefined-- 47.869
1.88 --undefined-- 51.886
1.89 --undefined-- 53.707
1.90 --undefined-- 56.258
1.91 --undefined-- 64.357
1.92 --undefined-- 69.513
1.93 --undefined-- 72.285
1.94 --undefined-- 74.258
1.95 --undefined-- 74.655
1.96 --undefined-- 74.283
1.97 109.015 74.757
1.98 123.360 75.366
1.99 123.177 75.684
2.00 121.177 75.916
2.01 119.831 76.089
2.02 118.392 76.134
2.03 118.345 76.078
2.04 117.661 76.067
2.05 117.441 76.205
2.06 117.309 76.367
2.07 116.986 76.469
2.08 116.583 76.542
2.09 117.092 76.722
2.10 119.232 77.052
2.11 120.140 77.122
2.12 119.983 76.339
2.13 119.641 74.238
2.14 108.309 71.101
2.15 117.593 68.618
2.16 124.545 66.742
2.17 140.034 64.669
2.18 142.528 63.986
2.19 --undefined-- 63.125
2.20 --undefined-- 63.548
2.21 --undefined-- 69.789
2.22 174.914 74.698
2.23 165.401 76.936
2.24 157.871 77.468
2.25 155.892 77.339
2.26 156.380 77.049
2.27 157.577 76.895
2.28 158.989 76.930
2.29 159.713 76.963
2.30 160.285 76.999
2.31 160.768 76.974
2.32 159.841 76.651
2.33 159.931 76.024
2.34 158.941 75.370
2.35 156.862 74.950
2.36 157.983 75.384
2.37 165.452 76.605
2.38 166.378 77.473
2.39 165.744 77.881
2.40 164.533 78.072
2.41 163.386 77.844
2.42 161.817 76.863
2.43 159.503 75.031
2.44 155.574 73.209
2.45 154.658 72.235
2.46 153.409 71.021
2.47 155.993 68.942
2.48 161.914 65.949
2.49 162.770 61.864
2.50 161.272 57.392
2.51 161.960 53.687
2.52 161.183 58.145
2.53 --undefined-- 68.019
2.54 --undefined-- 73.786
2.55 167.595 76.150
2.56 160.692 76.777
2.57 156.860 77.050
2.58 155.124 77.116
2.59 154.660 77.040
2.60 155.331 76.918
2.61 155.849 76.673
2.62 155.213 76.305
2.63 152.236 75.567
2.64 150.191 73.752
2.65 152.746 70.046
2.66 160.072 64.401
2.67 159.950 60.221
2.68 157.973 59.149
2.69 157.915 57.870
2.70 153.883 56.109
2.71 154.599 53.780
2.72 --undefined-- 50.846
2.73 --undefined-- 48.391
2.74 --undefined-- 47.002
2.75 --undefined-- 49.849
2.76 --undefined-- 58.339
2.77 --undefined-- 67.222
2.78 --undefined-- 73.484
2.79 --undefined-- 76.377
2.80 --undefined-- 76.630
2.81 110.833 76.127
2.82 99.406 76.010
2.83 90.149 75.709
2.84 82.886 75.184
2.85 75.155 74.559
2.86 75.136 73.617
2.87 79.868 72.677
2.88 81.216 73.573
2.89 79.116 74.716
2.90 84.486 74.931
2.91 84.424 74.795
2.92 87.295 74.635
2.93 92.931 74.602
2.94 95.742 74.648
2.95 98.573 74.662
2.96 101.470 74.443
2.97 105.285 74.371
2.98 115.080 75.379
2.99 122.556 76.682
3.00 126.294 77.101
3.01 130.417 76.808
3.02 135.264 76.382
3.03 141.333 76.210
3.04 147.031 76.404
3.05 150.771 76.582
3.06 153.422 76.316
3.07 155.181 75.673
3.08 155.434 75.327
3.09 156.401 75.192
3.10 156.377 74.126
3.11 153.985 71.415
3.12 154.669 67.060
3.13 160.065 61.727
3.14 151.996 57.129
3.15 154.385 54.171
3.16 155.151 50.990
3.17 --undefined-- 48.241
3.18 --undefined-- 47.526
3.19 --undefined-- 48.151
3.20 --undefined-- 50.135
3.21 --undefined-- 51.626
3.22 --undefined-- 51.960
3.23 --undefined-- 52.450
3.24 --undefined-- 53.571
3.25 --undefined-- 54.484
3.26 --undefined-- 54.786
3.27 --undefined-- 54.963
3.28 --undefined-- 55.613
3.29 --undefined-- 56.956
3.30 --undefined-- 58.223
3.31 --undefined-- 59.611
3.32 168.793 60.470
3.33 175.457 60.068
3.34 173.284 58.930
3.35 172.546 58.087
3.36 --undefined-- 57.267
3.37 --undefined-- 55.223
3.38 --undefined-- 52.797
3.39 --undefined-- 51.422
3.40 --undefined-- 50.877
3.41 --undefined-- 49.914
3.42 --undefined-- 48.135
3.43 --undefined-- 45.382
3.44 --undefined-- 44.657
3.45 --undefined-- 48.859
3.46 --undefined-- 50.852
3.47 --undefined-- 50.017
3.48 --undefined-- 55.554
3.49 --undefined-- 64.308
3.50 --undefined-- 68.299
3.51 --undefined-- 68.027
3.52 --undefined-- 68.101
3.53 --undefined-- 72.430
3.54 --undefined-- 74.971
3.55 102.550 75.455
3.56 99.756 75.219
3.57 105.676 75.260
3.58 103.789 75.521
3.59 104.039 75.719
3.60 103.824 75.746
3.61 102.399 75.750
3.62 103.378 75.875
3.63 104.499 76.059
3.64 106.313 76.263
3.65 109.279 76.423
3.66 112.268 76.455
3.67 114.433 76.227
3.68 116.219 75.212
3.69 109.121 73.121
3.70 112.431 71.008
3.71 115.523 69.837
3.72 123.866 68.072
3.73 135.073 64.309
3.74 113.477 58.642
3.75 116.855 55.080
3.76 118.424 55.466
3.77 121.752 59.754
3.78 --undefined-- 65.663
3.79 --undefined-- 70.612
3.80 177.018 74.627
3.81 165.426 76.938
3.82 164.452 77.652
3.83 166.000 77.720
3.84 166.340 77.820
3.85 166.500 78.086
3.86 166.440 78.359
3.87 166.470 78.556
3.88 166.586 78.735
3.89 167.494 78.786
3.90 168.620 78.628
3.91 169.955 78.364
3.92 170.984 78.036
3.93 171.538 77.592
3.94 171.833 77.029
3.95 170.479 76.301
3.96 165.524 75.350
3.97 161.891 74.062
3.98 157.453 71.933
3.99 153.936 68.493
4.00 159.387 63.677
4.01 165.829 58.343
4.02 168.466 54.485
4.03 167.908 52.918
4.04 167.364 54.784
4.05 --undefined-- 63.834
4.06 --undefined-- 71.319
4.07 --undefined-- 75.272
4.08 119.744 76.808
4.09 113.785 77.077
4.10 109.238 77.023
4.11 97.179 77.332
4.12 95.219 77.372
4.13 88.104 76.789
4.14 88.666 76.276
4.15 85.827 76.003
4.16 90.641 75.936
4.17 88.101 76.109
4.18 91.448 76.243
4.19 91.269 76.041
4.20 89.857 74.890
4.21 --undefined-- 72.061
4.22 --undefined-- 67.446
4.23 --undefined-- 62.376
4.24 --undefined-- 58.324
4.25 --undefined-- 55.509
4.26 --undefined-- 53.512
4.27 --undefined-- 52.043
4.28 --undefined-- 58.991
4.29 --undefined-- 68.522
4.30 --undefined-- 74.009
4.31 138.679 76.455
4.32 135.014 77.087
4.33 136.045 77.333
4.34 139.816 77.628
4.35 141.944 77.756
4.36 143.592 77.612
4.37 145.132 77.382
4.38 147.169 77.310
4.39 147.949 77.135
4.40 147.070 76.643
4.41 146.302 76.161
4.42 145.682 75.834
4.43 145.110 75.497
4.44 144.899 74.901
4.45 144.001 73.926
4.46 147.044 73.347
4.47 151.458 73.764
4.48 152.312 74.599
4.49 152.422 75.446
4.50 151.890 76.105
4.51 151.026 76.535
4.52 149.596 76.739
4.53 148.207 76.751
4.54 147.349 76.672
4.55 146.590 76.676
4.56 147.629 76.897
4.57 149.662 77.220
4.58 151.037 77.456
4.59 151.193 77.553
4.60 153.945 77.509
4.61 155.990 77.121
4.62 153.806 76.382
4.63 153.350 75.834
4.64 153.278 75.642
4.65 153.491 75.657
4.66 153.534 75.773
4.67 152.957 75.925
4.68 152.529 76.088
4.69 152.578 76.148
4.70 153.053 76.041
4.71 153.508 75.848
4.72 153.953 75.806
4.73 154.499 76.075
4.74 153.956 76.245
4.75 151.181 75.988
4.76 146.790 75.823
4.77 141.909 76.075
4.78 134.497 76.179
4.79 129.244 75.844
4.80 120.485 75.330
4.81 119.224 74.964
4.82 118.770 74.890
4.83 118.570 74.826
4.84 113.852 74.823
4.85 114.147 75.020
4.86 110.429 75.253
4.87 108.817 75.466
4.88 108.594 75.652
4.89 110.371 75.394
4.90 --undefined-- 73.946
4.91 --undefined-- 72.214
4.92 91.691 71.709
4.93 94.570 71.752
4.94 109.965 71.973
4.95 85.917 72.356
4.96 102.991 73.138
4.97 91.222 73.157
4.98 87.566 71.590
4.99 91.936 70.376
5.00 91.845 71.526
5.01 74.729 72.607
5.02 75.214 73.143
5.03 --undefined-- 73.575
5.04 76.686 74.200
5.05 90.727 75.015
5.06 93.153 --undefined--
5.07 96.414 --undefined--
5.08 --undefined-- --undefined--
5.09 --undefined-- --undefined--
