Time Pitch Intensity
0.01 --undefined-- --undefined--
0.02 178.800 --undefined--
0.03 174.450 --undefined--
0.04 170.851 --undefined--
0.05 165.563 72.127
0.06 139.919 66.823
0.07 --undefined-- 60.137
0.08 --undefined-- 52.963
0.09 --undefined-- 48.960
0.10 --undefined-- 47.649
0.11 --undefined-- 45.781
0.12 --undefined-- 50.629
0.13 --undefined-- 61.356
0.14 204.114 68.715
0.15 186.856 72.435
0.16 169.504 73.722
0.17 158.721 74.132
0.18 155.907 74.551
0.19 152.633 74.894
0.20 147.733 75.179
0.21 148.164 75.393
0.22 150.128 75.350
0.23 148.552 74.824
0.24 146.301 74.032
0.25 146.385 73.499
0.26 144.405 73.257
0.27 141.720 73.193
0.28 138.106 73.098
0.29 134.023 72.816
0.30 132.709 72.647
0.31 130.799 72.699
0.32 120.866 72.293
0.33 119.821 71.479
0.34 116.109 70.590
0.35 112.496 69.530
0.36 111.605 68.613
0.37 110.715 68.075
0.38 109.330 67.755
0.39 107.883 67.626
0.40 108.844 67.828
0.41 109.745 68.119
0.42 109.260 68.209
0.43 109.626 68.139
0.44 111.430 68.118
0.45 110.541 67.960
0.46 113.417 67.420
0.47 --undefined-- 66.425
0.48 --undefined-- 65.374
0.49 --undefined-- 64.344
0.50 --undefined-- 62.750
0.51 --undefined-- 59.689
0.52 --undefined-- 53.596
0.53 --undefined-- 44.241
0.54 --undefined-- 39.291
0.55 --undefined-- 38.228
0.56 --undefined-- 38.604
0.57 --undefined-- 39.727
0.58 --undefined-- 39.356
0.59 --undefined-- 38.369
0.60 --undefined-- 36.999
0.61 --undefined-- 34.897
0.62 --undefined-- 34.643
0.63 --undefined-- 39.748
0.64 --undefined-- 48.801
0.65 --undefined-- 56.967
0.66 --undefined-- 62.117
0.67 --undefined-- 63.305
0.68 --undefined-- 60.776
0.69 --undefined-- 59.539
0.70 164.759 66.251
0.71 160.890 71.704
0.72 160.617 74.560
0.73 158.937 75.757
0.74 156.157 76.436
0.75 153.058 76.769
0.76 154.897 76.165
0.77 162.142 75.071
0.78 164.715 74.277
0.79 160.993 72.645
0.80 144.978 68.992
0.81 136.266 65.679
0.82 161.153 69.628
0.83 163.452 73.433
0.84 161.255 75.279
0.85 154.980 76.062
0.86 151.827 75.772
0.87 146.242 73.715
0.88 130.037 69.578
0.89 114.835 63.993
0.90 117.253 59.167
0.91 --undefined-- 56.995
0.92 --undefined-- 60.608
0.93 --undefined-- 65.397
0.94 --undefined-- 70.709
0.95 166.143 74.895
0.96 160.402 77.319
0.97 156.161 78.182
0.98 149.947 77.794
0.99 146.255 76.486
1.00 139.182 74.701
1.01 128.714 72.451
1.02 119.544 69.066
1.03 99.267 64.294
1.04 --undefined-- 59.553
1.05 --undefined-- 56.626
1.06 --undefined-- 56.056
1.07 --undefined-- 55.673
1.08 --undefined-- 54.564
1.09 --undefined-- 53.199
1.10 --undefined-- 55.592
1.11 --undefined-- 62.131
1.12 140.498 66.305
1.13 121.266 68.065
1.14 121.565 68.577
1.15 115.129 68.977
1.16 115.571 69.473
1.17 114.723 69.539
1.18 115.163 69.259
1.19 115.407 69.100
1.20 116.017 69.223
1.21 116.855 69.532
1.22 117.878 69.884
1.23 118.192 70.073
1.24 119.470 70.036
1.25 118.954 69.748
1.26 118.844 68.875
1.27 118.733 66.640
1.28 106.773 62.288
1.29 --undefined-- 56.040
1.30 --undefined-- 51.245
1.31 --undefined-- 56.048
1.32 --undefined-- 64.557
1.33 --undefined-- 70.130
1.34 --undefined-- 73.045
1.35 136.705 74.046
1.36 135.108 74.356
1.37 135.147 74.595
1.38 135.213 74.588
1.39 134.729 74.342
1.40 134.318 74.049
1.41 135.336 73.971
1.42 135.232 74.223
1.43 135.659 74.716
1.44 136.557 75.159
1.45 136.699 75.332
1.46 137.403 75.332
1.47 138.483 75.237
1.48 138.753 74.958
1.49 137.466 74.315
1.50 135.258 73.114
1.51 131.414 71.091
1.52 87.725 67.992
1.53 93.344 64.356
1.54 92.536 60.387
1.55 --undefined-- 55.158
1.56 --undefined-- 48.872
1.57 --undefined-- 43.821
1.58 --undefined-- 41.925
1.59 --undefined-- 39.893
1.60 --undefined-- 38.872
1.61 --undefined-- 39.819
1.62 --undefined-- 40.231
1.63 --undefined-- 40.287
1.64 --undefined-- 39.757
1.65 --undefined-- 39.566
1.66 --undefined-- 40.658
1.67 --undefined-- 41.475
1.68 --undefined-- 40.443
1.69 --undefined-- 38.843
1.70 --undefined-- 38.487
1.71 --undefined-- 37.937
1.72 --undefined-- 36.965
1.73 --undefined-- 35.971
1.74 --undefined-- 35.877
1.75 --undefined-- 38.871
1.76 --undefined-- 47.007
1.77 --undefined-- 52.364
1.78 --undefined-- 53.321
1.79 --undefined-- 49.926
1.80 --undefined-- 43.134
1.81 --undefined-- 39.934
1.82 --undefined-- 37.916
1.83 --undefined-- 37.097
1.84 --undefined-- 47.953
1.85 --undefined-- 60.067
1.86 --undefined-- 68.663
1.87 169.669 73.893
1.88 161.070 76.596
1.89 153.860 77.814
1.90 151.668 78.513
1.91 150.352 78.941
1.92 149.564 79.026
1.93 149.947 78.918
1.94 151.634 78.759
1.95 154.131 78.416
1.96 155.301 77.918
1.97 154.936 77.647
1.98 154.286 77.600
1.99 154.374 77.448
2.00 155.440 76.969
2.01 157.811 76.147
2.02 159.573 75.024
2.03 159.183 73.089
2.04 146.948 69.397
2.05 145.573 63.476
2.06 --undefined-- 55.882
2.07 --undefined-- 50.729
2.08 --undefined-- 54.874
2.09 --undefined-- 63.571
2.10 216.589 70.626
2.11 199.934 74.303
2.12 185.905 75.532
2.13 183.114 75.657
2.14 181.556 75.510
2.15 181.215 75.321
2.16 180.671 75.106
2.17 177.971 74.378
2.18 170.381 72.297
2.19 149.103 68.261
2.20 140.166 62.410
2.21 --undefined-- 55.529
2.22 --undefined-- 50.172
2.23 --undefined-- 53.167
2.24 --undefined-- 60.112
2.25 180.872 67.508
2.26 165.877 72.519
2.27 153.326 74.916
2.28 142.908 75.530
2.29 134.817 75.461
2.30 130.871 75.416
2.31 131.547 75.770
2.32 132.435 76.449
2.33 133.320 77.143
2.34 136.254 77.747
2.35 140.486 78.336
2.36 146.036 79.130
2.37 151.247 79.795
2.38 158.755 79.628
2.39 168.304 78.674
2.40 181.318 77.807
2.41 189.782 77.285
2.42 198.180 76.683
2.43 200.206 75.404
2.44 198.782 72.796
2.45 196.853 68.432
2.46 191.129 61.927
2.47 --undefined-- 53.502
2.48 --undefined-- 45.345
2.49 --undefined-- 41.078
2.50 --undefined-- 39.161
2.51 --undefined-- 38.746
2.52 --undefined-- 40.317
2.53 --undefined-- 47.773
2.54 --undefined-- 56.999
2.55 --undefined-- 64.407
2.56 199.655 69.560
2.57 179.267 72.301
2.58 159.302 73.441
2.59 152.495 74.303
2.60 149.300 75.380
2.61 145.864 76.283
2.62 143.217 76.710
2.63 144.583 76.902
2.64 147.995 76.989
2.65 149.599 76.943
2.66 149.723 76.873
2.67 149.860 76.769
2.68 150.380 76.570
2.69 150.618 76.321
2.70 151.073 76.041
2.71 150.590 75.529
2.72 148.732 74.177
2.73 144.001 71.168
2.74 136.908 65.794
2.75 --undefined-- 57.634
2.76 --undefined-- 49.711
2.77 --undefined-- 55.263
2.78 --undefined-- 64.986
2.79 202.295 71.266
2.80 190.042 74.490
2.81 175.613 75.741
2.82 173.389 75.954
2.83 172.560 75.499
2.84 171.271 74.695
2.85 173.885 74.352
2.86 177.684 74.636
2.87 178.981 75.050
2.88 179.477 75.352
2.89 179.025 75.537
2.90 177.484 75.639
2.91 173.807 75.639
2.92 168.302 75.474
2.93 163.385 75.097
2.94 155.354 74.583
2.95 148.250 73.915
2.96 141.112 72.625
2.97 131.192 70.279
2.98 122.517 66.967
2.99 115.298 63.294
3.00 119.200 60.552
3.01 117.371 59.826
3.02 127.579 62.048
3.03 148.333 66.039
3.04 141.013 68.854
3.05 129.523 70.392
3.06 126.430 71.477
3.07 122.670 72.367
3.08 120.387 72.906
3.09 119.832 73.093
3.10 117.923 73.124
3.11 118.968 73.220
3.12 119.934 73.361
3.13 121.051 73.370
3.14 122.270 73.114
3.15 123.678 72.562
3.16 124.687 71.716
3.17 124.344 70.308
3.18 119.244 67.812
3.19 112.990 64.005
3.20 104.477 58.963
3.21 --undefined-- 52.816
3.22 --undefined-- 46.513
3.23 --undefined-- 44.859
3.24 --undefined-- 54.472
3.25 --undefined-- 61.961
3.26 --undefined-- 66.986
3.27 138.194 70.493
3.28 137.224 72.707
3.29 133.554 73.932
3.30 131.104 74.723
3.31 129.965 75.336
3.32 129.067 75.616
3.33 128.907 75.597
3.34 127.938 75.454
3.35 126.946 75.149
3.36 127.209 74.582
3.37 127.516 73.851
3.38 127.634 73.153
3.39 127.272 72.389
3.40 128.091 71.661
3.41 128.134 71.388
3.42 128.512 71.100
3.43 126.954 70.076
3.44 127.842 68.240
3.45 142.606 65.734
3.46 147.510 62.140
3.47 --undefined-- 57.074
3.48 --undefined-- 50.373
3.49 --undefined-- 43.831
3.50 --undefined-- 41.686
3.51 --undefined-- 41.252
3.52 --undefined-- 39.242
3.53 --undefined-- 36.237
3.54 --undefined-- 36.758
3.55 --undefined-- 39.151
3.56 --undefined-- 39.168
3.57 --undefined-- 38.790
3.58 --undefined-- 39.482
3.59 --undefined-- 39.059
3.60 --undefined-- 38.461
3.61 --undefined-- 40.394
3.62 --undefined-- 45.451
3.63 --undefined-- 52.309
3.64 --undefined-- 60.582
3.65 178.990 66.661
3.66 143.977 69.799
3.67 129.850 70.637
3.68 131.654 70.217
3.69 131.719 69.540
3.70 127.005 69.261
3.71 118.596 69.473
3.72 113.716 69.762
3.73 114.495 69.771
3.74 114.382 69.183
3.75 115.176 67.317
3.76 110.179 63.769
3.77 105.584 59.653
3.78 --undefined-- 57.443
3.79 --undefined-- 55.997
3.80 --undefined-- 53.309
3.81 --undefined-- 50.874
3.82 --undefined-- 50.968
3.83 --undefined-- 55.227
3.84 --undefined-- 58.548
3.85 --undefined-- 63.372
3.86 167.692 69.156
3.87 159.348 73.294
3.88 158.040 75.815
3.89 155.833 76.992
3.90 153.780 77.253
3.91 152.609 77.199
3.92 150.607 77.219
3.93 146.663 77.318
3.94 142.573 77.413
3.95 139.244 77.425
3.96 136.224 77.221
3.97 133.173 76.780
3.98 130.425 76.328
3.99 128.470 76.002
4.00 126.329 75.686
4.01 124.743 75.264
4.02 125.039 74.766
4.03 125.513 74.281
4.04 125.627 73.927
4.05 125.150 73.924
4.06 127.907 73.934
4.07 122.595 73.154
4.08 118.129 71.692
4.09 115.645 69.929
4.10 101.707 67.787
4.11 94.053 65.331
4.12 84.764 62.724
4.13 80.186 61.613
4.14 90.552 63.409
4.15 100.616 65.443
4.16 112.718 66.326
4.17 108.735 66.422
4.18 119.123 66.647
4.19 116.229 66.935
4.20 105.212 67.555
4.21 104.103 68.360
4.22 117.323 68.726
4.23 120.046 68.752
4.24 125.773 69.108
4.25 129.870 69.829
4.26 133.176 70.727
4.27 134.027 71.446
4.28 133.722 71.578
4.29 133.101 71.023
4.30 138.473 70.080
4.31 134.593 69.272
4.32 130.521 68.979
4.33 128.331 69.255
4.34 126.255 69.997
4.35 126.249 70.861
4.36 125.881 71.458
4.37 124.763 71.625
4.38 124.176 71.243
4.39 123.401 69.964
4.40 113.859 67.328
4.41 108.670 62.908
4.42 --undefined-- 56.974
4.43 --undefined-- 55.057
4.44 --undefined-- 58.851
4.45 166.952 64.021
4.46 148.187 68.743
4.47 140.585 71.417
4.48 133.795 72.398
4.49 124.925 72.616
4.50 120.772 72.831
4.51 119.704 73.013
4.52 120.765 73.169
4.53 123.009 73.438
4.54 124.504 73.778
4.55 126.101 74.122
4.56 127.284 74.402
4.57 129.435 74.693
4.58 132.151 75.001
4.59 133.684 74.854
4.60 133.858 73.740
4.61 --undefined-- 71.887
4.62 --undefined-- 69.493
4.63 --undefined-- 66.203
4.64 --undefined-- 61.431
4.65 --undefined-- 54.938
4.66 --undefined-- 46.782
4.67 --undefined-- 38.979
4.68 --undefined-- 36.021
4.69 --undefined-- 33.971
4.70 --undefined-- 31.597
4.71 --undefined-- 32.299
4.72 --undefined-- 34.256
4.73 --undefined-- 35.728
4.74 --undefined-- 36.616
4.75 --undefined-- 37.091
4.76 --undefined-- 38.028
4.77 --undefined-- 39.362
4.78 --undefined-- 39.882
4.79 --undefined-- 38.958
4.80 --undefined-- 37.562
4.81 --undefined-- 38.814
4.82 --undefined-- 39.266
4.83 --undefined-- 36.906
4.84 --undefined-- 34.097
4.85 --undefined-- 32.618
4.86 --undefined-- 32.287
4.87 --undefined-- 32.279
4.88 --undefined-- 32.062
4.89 --undefined-- 31.830
4.90 --undefined-- 33.195
4.91 --undefined-- 34.338
4.92 --undefined-- 33.754
4.93 --undefined-- 33.937
4.94 --undefined-- 35.043
4.95 --undefined-- 35.008
4.96 --undefined-- 34.775
4.97 --undefined-- 34.615
4.98 --undefined-- 33.918
4.99 --undefined-- 34.090
5.00 --undefined-- 34.988
5.01 --undefined-- 34.119
5.02 --undefined-- 31.952
5.03 --undefined-- 31.896
5.04 --undefined-- 32.714
5.05 --undefined-- 33.448
5.06 --undefined-- 34.162
5.07 --undefined-- 36.467
5.08 --undefined-- 39.384
5.09 --undefined-- 40.293
5.10 --undefined-- 38.692
5.11 --undefined-- 36.023
5.12 --undefined-- 36.485
5.13 --undefined-- 38.084
5.14 --undefined-- 39.163
5.15 --undefined-- 38.687
5.16 --undefined-- 36.614
5.17 --undefined-- 36.692
5.18 --undefined-- 38.255
5.19 --undefined-- 37.915
5.20 --undefined-- 37.077
5.21 --undefined-- 36.253
5.22 --undefined-- 34.536
5.23 --undefined-- 33.836
5.24 --undefined-- 33.456
5.25 --undefined-- 32.383
5.26 --undefined-- 32.423
5.27 --undefined-- 33.179
5.28 --undefined-- 33.803
5.29 --undefined-- 34.134
5.30 --undefined-- 34.142
5.31 --undefined-- 35.234
5.32 --undefined-- 36.251
5.33 --undefined-- 36.946
5.34 --undefined-- 38.686
5.35 --undefined-- 40.221
5.36 --undefined-- 39.936
5.37 --undefined-- 38.184
5.38 --undefined-- 38.415
5.39 --undefined-- 39.108
5.40 --undefined-- 37.672
5.41 --undefined-- 35.492
5.42 --undefined-- 35.903
5.43 --undefined-- 38.020
5.44 --undefined-- 39.907
5.45 --undefined-- 41.047
5.46 --undefined-- 41.251
5.47 --undefined-- 41.572
5.48 --undefined-- 42.742
5.49 --undefined-- 43.397
5.50 --undefined-- 43.072
5.51 --undefined-- 42.853
5.52 --undefined-- 43.498
5.53 --undefined-- 44.413
5.54 --undefined-- 44.519
5.55 --undefined-- 43.817
5.56 --undefined-- 43.211
5.57 --undefined-- 42.877
5.58 --undefined-- 42.192
5.59 --undefined-- 41.181
5.60 --undefined-- 42.158
5.61 --undefined-- 44.991
5.62 --undefined-- 45.380
5.63 --undefined-- 42.642
5.64 --undefined-- 47.668
5.65 --undefined-- 58.231
5.66 --undefined-- 65.368
5.67 --undefined-- 70.231
5.68 149.954 73.378
5.69 150.755 75.028
5.70 149.858 75.893
5.71 148.364 75.773
5.72 146.608 73.735
5.73 121.737 69.115
5.74 116.838 61.974
5.75 --undefined-- 54.112
5.76 --undefined-- 48.366
5.77 --undefined-- 54.506
5.78 --undefined-- 65.770
5.79 --undefined-- 73.100
5.80 190.313 77.124
5.81 178.836 79.002
5.82 172.343 80.104
5.83 170.446 81.151
5.84 169.401 81.961
5.85 169.176 82.252
5.86 167.983 81.850
5.87 166.935 80.936
5.88 167.398 80.073
5.89 168.319 79.245
5.90 165.557 77.295
5.91 154.578 73.283
5.92 142.351 67.797
5.93 138.475 62.741
5.94 149.637 58.549
5.95 156.832 56.269
5.96 164.328 61.160
5.97 193.061 67.848
5.98 180.933 72.483
5.99 170.846 75.142
6.00 163.195 75.979
6.01 161.948 75.551
6.02 165.350 75.142
6.03 174.431 75.681
6.04 182.712 76.922
6.05 190.831 78.261
6.06 197.688 79.081
6.07 201.088 78.513
6.08 201.868 75.696
6.09 199.742 70.393
6.10 202.043 63.697
6.11 208.049 57.959
6.12 --undefined-- 51.742
6.13 --undefined-- 46.849
6.14 --undefined-- 44.783
6.15 --undefined-- 47.279
6.16 --undefined-- 57.693
6.17 --undefined-- 65.163
6.18 --undefined-- 68.824
6.19 --undefined-- 69.093
6.20 --undefined-- 67.446
6.21 --undefined-- 65.007
6.22 --undefined-- 61.267
6.23 --undefined-- 58.460
6.24 --undefined-- 57.917
6.25 --undefined-- 57.746
6.26 --undefined-- 57.791
6.27 --undefined-- 57.746
6.28 --undefined-- 56.805
6.29 --undefined-- 54.570
6.30 --undefined-- 55.961
6.31 --undefined-- 65.824
6.32 238.010 73.099
6.33 224.498 77.127
6.34 219.416 --undefined--
6.35 217.785 --undefined--
6.36 --undefined-- --undefined--
6.37 --undefined-- --undefined--
