Time Pitch Intensity
0.01 --undefined-- --undefined--
0.02 166.731 --undefined--
0.03 166.166 --undefined--
0.04 165.414 --undefined--
0.05 164.069 69.504
0.06 161.564 69.292
0.07 156.478 67.529
0.08 298.579 63.614
0.09 --undefined-- 59.867
0.10 --undefined-- 59.375
0.11 --undefined-- 58.553
0.12 --undefined-- 56.858
0.13 --undefined-- 57.011
0.14 --undefined-- 61.225
0.15 256.547 65.199
0.16 245.594 67.300
0.17 230.376 67.935
0.18 203.591 67.989
0.19 191.406 67.946
0.20 181.061 67.715
0.21 177.574 67.179
0.22 176.989 65.717
0.23 176.183 62.327
0.24 177.758 56.509
0.25 178.574 50.114
0.26 --undefined-- 47.012
0.27 --undefined-- 46.357
0.28 --undefined-- 46.392
0.29 --undefined-- 49.175
0.30 --undefined-- 51.779
0.31 --undefined-- 51.125
0.32 --undefined-- 47.008
0.33 --undefined-- 45.220
0.34 --undefined-- 48.514
0.35 --undefined-- 50.910
0.36 --undefined-- 53.001
0.37 --undefined-- 54.212
0.38 --undefined-- 53.299
0.39 --undefined-- 52.460
0.40 201.774 54.852
0.41 202.973 57.274
0.42 214.393 58.432
0.43 205.666 58.941
0.44 190.463 59.898
0.45 173.860 61.113
0.46 165.661 61.842
0.47 158.446 62.268
0.48 152.012 63.703
0.49 151.014 65.016
0.50 151.137 64.844
0.51 152.468 64.297
0.52 153.118 64.436
0.53 153.230 64.729
0.54 153.623 64.676
0.55 154.933 64.253
0.56 157.270 63.830
0.57 160.187 63.511
0.58 162.850 63.184
0.59 164.402 62.989
0.60 167.603 63.010
0.61 170.702 63.002
0.62 173.028 62.535
0.63 176.286 61.068
0.64 175.741 58.132
0.65 168.621 53.602
0.66 --undefined-- 48.050
0.67 --undefined-- 43.863
0.68 --undefined-- 44.669
0.69 --undefined-- 49.080
0.70 --undefined-- 54.498
0.71 267.610 60.895
0.72 255.573 65.473
0.73 247.732 67.874
0.74 249.229 68.919
0.75 252.288 69.219
0.76 256.732 69.050
0.77 262.361 68.478
0.78 268.710 67.848
0.79 275.016 67.747
0.80 279.149 68.305
0.81 282.733 69.061
0.82 285.504 69.477
0.83 287.313 69.569
0.84 288.394 69.621
0.85 288.245 69.627
0.86 287.027 69.385
0.87 284.963 68.805
0.88 281.501 68.222
0.89 279.564 67.967
0.90 275.235 67.248
0.91 263.316 65.336
0.92 251.622 62.499
0.93 --undefined-- 59.467
0.94 --undefined-- 56.483
0.95 --undefined-- 53.953
0.96 --undefined-- 52.343
0.97 --undefined-- 51.002
0.98 --undefined-- 49.860
0.99 --undefined-- 51.700
1.00 --undefined-- 56.104
1.01 --undefined-- 59.440
1.02 252.460 60.435
1.03 254.193 59.639
1.04 257.660 58.317
1.05 256.840 57.444
1.06 251.645 58.855
1.07 251.942 61.193
1.08 277.563 63.263
1.09 283.447 64.824
1.10 287.303 65.843
1.11 293.053 66.638
1.12 295.638 67.270
1.13 296.096 67.615
1.14 297.365 67.731
1.15 299.119 67.766
1.16 150.670 67.823
1.17 151.649 68.006
1.18 151.662 68.327
1.19 150.556 68.786
1.20 299.800 69.179
1.21 297.010 68.972
1.22 292.718 67.633
1.23 288.959 64.537
1.24 290.612 58.863
1.25 --undefined-- 51.543
1.26 --undefined-- 51.785
1.27 --undefined-- 55.180
1.28 --undefined-- 58.592
1.29 201.223 62.503
1.30 195.339 65.589
1.31 187.844 67.258
1.32 183.974 67.720
1.33 182.565 67.615
1.34 183.699 67.732
1.35 186.142 68.452
1.36 188.423 69.368
1.37 191.673 69.568
1.38 196.085 68.494
1.39 203.212 66.558
1.40 208.338 64.837
1.41 212.345 63.703
1.42 216.099 62.543
1.43 220.411 60.243
1.44 209.591 56.032
1.45 --undefined-- 50.851
1.46 --undefined-- 50.067
1.47 --undefined-- 51.339
1.48 --undefined-- 51.084
1.49 --undefined-- 50.801
1.50 --undefined-- 52.783
1.51 197.366 57.066
1.52 195.584 61.750
1.53 186.965 65.953
1.54 182.624 68.902
1.55 182.900 70.491
1.56 185.267 71.151
1.57 187.984 71.285
1.58 192.823 70.895
1.59 200.951 69.852
1.60 210.281 68.667
1.61 214.552 68.117
1.62 216.905 68.060
1.63 217.954 68.113
1.64 224.235 68.759
1.65 223.381 69.785
1.66 215.768 70.140
1.67 201.438 69.523
1.68 188.339 67.639
1.69 --undefined-- 63.773
1.70 --undefined-- 57.721
1.71 --undefined-- 51.276
1.72 --undefined-- 46.806
1.73 --undefined-- 47.032
1.74 --undefined-- 48.652
1.75 --undefined-- 48.999
1.76 --undefined-- 49.046
1.77 --undefined-- 49.236
1.78 --undefined-- 48.369
1.79 --undefined-- 47.753
1.80 --undefined-- 51.753
1.81 246.358 57.717
1.82 245.233 61.747
1.83 242.237 64.101
1.84 242.991 65.647
1.85 241.799 66.477
1.86 241.325 66.254
1.87 242.815 65.428
1.88 244.259 64.941
1.89 246.559 64.883
1.90 247.352 64.921
1.91 247.029 64.924
1.92 246.218 64.894
1.93 246.096 64.837
1.94 246.034 64.665
1.95 246.738 64.397
1.96 247.787 63.855
1.97 246.613 62.685
1.98 242.862 60.299
1.99 237.254 55.928
2.00 --undefined-- 49.448
2.01 --undefined-- 47.566
2.02 --undefined-- 50.865
2.03 --undefined-- 52.039
2.04 --undefined-- 53.133
2.05 --undefined-- 57.519
2.06 268.007 62.403
2.07 254.639 65.463
2.08 251.923 67.023
2.09 250.445 67.685
2.10 249.605 67.722
2.11 249.617 67.483
2.12 250.799 67.443
2.13 252.436 67.784
2.14 254.308 68.302
2.15 255.063 68.692
2.16 254.870 68.868
2.17 254.618 68.907
2.18 253.246 68.843
2.19 252.365 68.705
2.20 251.955 68.505
2.21 251.320 68.208
2.22 252.076 67.721
2.23 254.231 66.932
2.24 255.528 65.858
2.25 256.921 64.696
2.26 259.314 63.705
2.27 260.475 62.153
2.28 255.859 58.724
2.29 260.068 54.243
2.30 --undefined-- 53.122
2.31 --undefined-- 54.432
2.32 --undefined-- 56.359
2.33 --undefined-- 57.928
2.34 --undefined-- 58.629
2.35 --undefined-- 58.631
2.36 --undefined-- 57.874
2.37 248.618 59.140
2.38 246.024 61.753
2.39 255.841 63.658
2.40 268.644 65.283
2.41 271.444 66.348
2.42 267.157 67.010
2.43 264.668 67.876
2.44 261.796 68.503
2.45 257.366 68.630
2.46 256.430 68.586
2.47 257.507 68.481
2.48 258.786 68.181
2.49 260.067 67.684
2.50 260.208 67.020
2.51 257.241 66.111
2.52 252.395 64.804
2.53 243.544 62.849
2.54 --undefined-- 60.310
2.55 --undefined-- 57.730
2.56 --undefined-- 56.180
2.57 --undefined-- 55.963
2.58 294.201 55.466
2.59 288.401 54.067
2.60 276.968 55.876
2.61 --undefined-- 59.589
2.62 175.178 62.857
2.63 180.590 64.617
2.64 181.217 64.349
2.65 179.975 61.728
2.66 172.447 56.961
2.67 --undefined-- 51.500
2.68 --undefined-- 47.676
2.69 --undefined-- 47.865
2.70 --undefined-- 53.571
2.71 --undefined-- 59.103
2.72 224.565 62.901
2.73 210.525 64.896
2.74 209.563 65.531
2.75 212.175 65.831
2.76 215.851 66.334
2.77 218.626 66.955
2.78 221.408 67.438
2.79 224.861 67.791
2.80 227.177 68.250
2.81 228.834 68.889
2.82 230.468 69.526
2.83 233.255 69.866
2.84 236.591 69.843
2.85 239.196 69.449
2.86 240.875 68.539
2.87 242.179 67.098
2.88 243.518 65.410
2.89 243.923 63.739
2.90 239.942 61.612
2.91 229.794 58.064
2.92 --undefined-- 53.099
2.93 --undefined-- 49.501
2.94 --undefined-- 48.110
2.95 --undefined-- 46.744
2.96 --undefined-- 45.280
2.97 --undefined-- 45.555
2.98 --undefined-- 46.827
2.99 --undefined-- 47.061
3.00 --undefined-- 46.182
3.01 --undefined-- 46.259
3.02 231.944 48.263
3.03 224.440 53.109
3.04 223.977 57.583
3.05 177.877 60.217
3.06 171.438 61.676
3.07 166.218 62.705
3.08 164.122 63.658
3.09 162.969 64.185
3.10 161.812 64.039
3.11 160.470 63.498
3.12 159.867 62.940
3.13 159.914 62.585
3.14 159.482 62.600
3.15 158.715 62.883
3.16 157.740 63.136
3.17 157.366 63.222
3.18 158.240 62.959
3.19 159.522 62.303
3.20 161.655 61.545
3.21 164.973 61.077
3.22 169.024 61.068
3.23 171.382 61.064
3.24 171.816 59.872
3.25 --undefined-- 56.401
3.26 --undefined-- 50.953
3.27 --undefined-- 47.764
3.28 --undefined-- 52.974
3.29 --undefined-- 59.832
3.30 --undefined-- 64.474
3.31 185.866 66.788
3.32 177.471 67.289
3.33 173.140 66.980
3.34 172.003 66.662
3.35 172.744 66.634
3.36 174.173 66.851
3.37 174.214 66.774
3.38 174.390 66.185
3.39 174.808 65.399
3.40 176.320 64.719
3.41 178.494 64.111
3.42 180.429 63.670
3.43 181.176 63.466
3.44 182.330 63.125
3.45 183.646 62.276
3.46 181.202 60.907
3.47 172.386 59.377
3.48 163.234 58.791
3.49 160.925 60.113
3.50 161.311 62.621
3.51 160.437 64.691
3.52 159.355 65.375
3.53 156.917 64.538
3.54 152.167 62.983
3.55 151.630 62.213
3.56 151.264 61.873
3.57 149.168 61.299
3.58 154.545 61.026
3.59 157.148 61.243
3.60 160.962 61.413
3.61 167.398 61.183
3.62 176.753 60.763
3.63 187.073 61.223
3.64 194.510 62.103
3.65 204.670 62.243
3.66 218.371 62.376
3.67 226.256 63.184
3.68 231.332 63.700
3.69 236.600 63.194
3.70 238.424 61.779
3.71 231.530 60.059
3.72 221.910 58.942
3.73 210.283 57.680
3.74 201.374 55.858
3.75 199.809 55.361
3.76 196.981 57.555
3.77 178.374 61.563
3.78 162.306 65.069
3.79 156.005 66.819
3.80 153.340 66.525
3.81 --undefined-- 65.561
3.82 83.232 66.450
3.83 79.922 67.576
3.84 76.508 67.504
3.85 80.714 67.240
3.86 163.263 67.770
3.87 169.262 68.570
3.88 173.936 69.169
3.89 183.774 69.834
3.90 193.638 70.183
3.91 201.382 69.464
3.92 212.568 68.363
3.93 218.672 68.019
3.94 222.442 67.898
3.95 228.151 67.728
3.96 233.524 67.651
3.97 235.444 67.295
3.98 234.004 66.278
3.99 229.232 64.454
4.00 217.143 61.815
4.01 208.500 58.505
4.02 --undefined-- 54.773
4.03 --undefined-- 51.540
4.04 --undefined-- 49.427
4.05 --undefined-- 47.845
4.06 --undefined-- 49.739
4.07 --undefined-- 53.492
4.08 --undefined-- 55.605
4.09 --undefined-- 56.327
4.10 --undefined-- 55.959
4.11 --undefined-- 54.842
4.12 --undefined-- 52.511
4.13 --undefined-- 49.072
4.14 --undefined-- 47.250
4.15 --undefined-- 47.767
4.16 --undefined-- 48.254
4.17 --undefined-- 47.928
4.18 --undefined-- 49.399
4.19 --undefined-- 51.956
4.20 --undefined-- 52.870
4.21 --undefined-- 51.312
4.22 --undefined-- 48.450
4.23 --undefined-- 47.789
4.24 --undefined-- 48.748
4.25 --undefined-- 48.340
4.26 --undefined-- 47.938
4.27 --undefined-- 47.927
4.28 --undefined-- 46.516
4.29 --undefined-- 46.337
4.30 --undefined-- 52.698
4.31 280.757 59.429
4.32 266.670 63.290
4.33 251.077 65.162
4.34 247.422 66.380
4.35 247.073 67.363
4.36 245.520 67.818
4.37 242.847 67.849
4.38 239.235 68.143
4.39 236.994 69.180
4.40 233.343 69.974
4.41 228.146 69.814
4.42 220.029 69.129
4.43 213.126 68.114
4.44 203.043 66.628
4.45 197.476 65.191
4.46 195.126 64.669
4.47 194.771 64.632
4.48 196.027 64.274
4.49 198.334 63.644
4.50 200.430 62.675
4.51 200.823 60.580
4.52 196.939 56.774
4.53 --undefined-- 52.924
4.54 --undefined-- 51.402
4.55 --undefined-- 49.781
4.56 --undefined-- 47.266
4.57 --undefined-- 47.549
4.58 --undefined-- 49.615
4.59 --undefined-- 50.081
4.60 --undefined-- 48.431
4.61 --undefined-- 46.217
4.62 --undefined-- 46.245
4.63 --undefined-- 48.316
4.64 --undefined-- 50.853
4.65 --undefined-- 52.164
4.66 --undefined-- 52.457
4.67 --undefined-- 52.342
4.68 --undefined-- 51.575
4.69 --undefined-- 54.695
4.70 262.653 60.560
4.71 258.981 64.004
4.72 256.627 65.215
4.73 254.630 65.385
4.74 251.034 65.462
4.75 248.005 65.774
4.76 247.039 66.238
4.77 246.249 66.735
4.78 246.083 67.098
4.79 246.262 67.141
4.80 246.940 66.863
4.81 246.545 66.364
4.82 245.375 65.723
4.83 244.032 64.756
4.84 239.313 63.114
4.85 229.140 60.476
4.86 220.003 57.594
4.87 232.415 55.212
4.88 --undefined-- 52.383
4.89 --undefined-- 50.859
4.90 --undefined-- 54.195
4.91 --undefined-- 60.040
4.92 221.235 64.367
4.93 211.173 66.740
4.94 204.302 68.265
4.95 199.948 69.421
4.96 195.544 69.893
4.97 191.346 69.870
4.98 188.804 --undefined--
4.99 187.134 --undefined--
5.00 --undefined-- --undefined--
5.01 --undefined-- --undefined--
