Time Pitch Intensity
0.01 --undefined-- --undefined--
0.02 --undefined-- --undefined--
0.03 --undefined-- --undefined--
0.04 --undefined-- --undefined--
0.05 --undefined-- 52.807
0.06 --undefined-- 56.792
0.07 --undefined-- 60.655
0.08 --undefined-- 63.329
0.09 --undefined-- 64.675
0.10 83.439 65.431
0.11 84.697 65.554
0.12 --undefined-- 64.064
0.13 --undefined-- 60.075
0.14 97.549 54.172
0.15 97.616 51.938
0.16 104.543 52.360
0.17 105.612 52.749
0.18 109.104 54.180
0.19 113.187 60.064
0.20 116.161 66.629
0.21 115.985 70.441
0.22 116.048 71.815
0.23 116.220 71.826
0.24 116.610 71.485
0.25 116.829 71.003
0.26 115.458 69.949
0.27 114.205 68.346
0.28 --undefined-- 66.706
0.29 --undefined-- 64.583
0.30 --undefined-- 61.020
0.31 --undefined-- 56.616
0.32 --undefined-- 54.486
0.33 --undefined-- 53.709
0.34 --undefined-- 51.441
0.35 --undefined-- 48.852
0.36 --undefined-- 49.599
0.37 --undefined-- 59.329
0.38 --undefined-- 67.182
0.39 103.334 70.973
0.40 91.855 71.716
0.41 91.910 70.359
0.42 91.407 68.143
0.43 90.306 66.403
0.44 89.449 66.306
0.45 89.306 66.995
0.46 --undefined-- 67.006
0.47 --undefined-- 66.436
0.48 --undefined-- 66.182
0.49 106.961 65.729
0.50 103.502 63.724
0.51 104.249 59.787
0.52 109.141 55.439
0.53 111.727 53.885
0.54 113.847 54.258
0.55 113.945 55.843
0.56 113.599 58.532
0.57 112.908 61.377
0.58 111.823 63.727
0.59 113.038 64.885
0.60 113.424 64.362
0.61 107.185 62.045
0.62 107.283 58.493
0.63 105.409 55.543
0.64 104.867 54.946
0.65 105.223 55.330
0.66 106.270 55.781
0.67 107.185 56.887
0.68 108.687 59.297
0.69 107.917 62.036
0.70 106.461 64.413
0.71 106.167 65.712
0.72 106.723 65.301
0.73 102.327 62.959
0.74 99.522 59.045
0.75 --undefined-- 55.808
0.76 --undefined-- 57.237
0.77 --undefined-- 60.482
0.78 --undefined-- 62.428
0.79 --undefined-- 62.767
0.80 --undefined-- 62.165
0.81 --undefined-- 61.188
0.82 --undefined-- 60.331
0.83 --undefined-- 59.591
0.84 --undefined-- 58.250
0.85 --undefined-- 57.510
0.86 --undefined-- 60.849
0.87 --undefined-- 65.156
0.88 --undefined-- 66.767
0.89 --undefined-- 65.683
0.90 89.848 64.024
0.91 89.796 63.814
0.92 85.552 64.758
0.93 85.160 66.084
0.94 85.157 67.113
0.95 85.283 67.844
0.96 86.308 68.477
0.97 86.762 69.202
0.98 85.158 69.700
0.99 84.077 69.673
1.00 85.975 69.192
1.01 85.773 68.400
1.02 89.434 67.697
1.03 88.482 67.466
1.04 88.688 67.443
1.05 89.201 67.395
1.06 88.850 67.170
1.07 90.550 66.638
1.08 89.918 65.093
1.09 95.495 62.588
1.10 96.699 61.318
1.11 97.425 62.463
1.12 --undefined-- 65.653
1.13 --undefined-- 68.658
1.14 104.810 70.025
1.15 105.659 70.497
1.16 107.959 71.282
1.17 109.023 72.206
1.18 109.919 72.707
1.19 111.187 72.635
1.20 112.412 72.054
1.21 113.014 71.296
1.22 113.494 70.654
1.23 113.241 69.523
1.24 112.741 67.297
1.25 112.718 64.070
1.26 --undefined-- 59.264
1.27 --undefined-- 51.913
1.28 --undefined-- 42.367
1.29 --undefined-- 37.784
1.30 --undefined-- 39.604
1.31 --undefined-- 43.686
1.32 --undefined-- 47.542
1.33 --undefined-- 50.333
1.34 --undefined-- 51.706
1.35 --undefined-- 52.304
1.36 --undefined-- 52.911
1.37 --undefined-- 53.626
1.38 --undefined-- 54.661
1.39 --undefined-- 54.889
1.40 --undefined-- 54.674
1.41 --undefined-- 55.013
1.42 --undefined-- 55.638
1.43 --undefined-- 56.143
1.44 --undefined-- 55.969
1.45 --undefined-- 55.640
1.46 --undefined-- 55.980
1.47 --undefined-- 56.114
1.48 --undefined-- 55.942
1.49 --undefined-- 55.403
1.50 --undefined-- 54.579
1.51 --undefined-- 53.510
1.52 --undefined-- 51.817
1.53 --undefined-- 50.370
1.54 --undefined-- 49.673
1.55 --undefined-- 48.884
1.56 --undefined-- 47.810
1.57 --undefined-- 46.225
1.58 --undefined-- 44.032
1.59 --undefined-- 41.897
1.60 --undefined-- 41.659
1.61 --undefined-- 42.899
1.62 --undefined-- 43.439
1.63 --undefined-- 43.727
1.64 --undefined-- 51.329
1.65 --undefined-- 61.746
1.66 --undefined-- 68.636
1.67 --undefined-- 72.586
1.68 --undefined-- 74.136
1.69 --undefined-- 74.042
1.70 105.297 73.019
1.71 105.126 70.960
1.72 106.716 67.806
1.73 102.896 64.066
1.74 99.189 60.095
1.75 94.544 56.557
1.76 91.573 54.514
1.77 89.641 54.242
1.78 90.162 54.004
1.79 89.102 52.912
1.80 89.196 51.556
1.81 --undefined-- 50.475
1.82 --undefined-- 49.471
1.83 --undefined-- 48.963
1.84 --undefined-- 49.767
1.85 92.672 50.966
1.86 96.155 51.552
1.87 97.502 51.535
1.88 97.729 52.944
1.89 --undefined-- 61.073
1.90 --undefined-- 67.471
1.91 --undefined-- 71.104
1.92 --undefined-- 73.538
1.93 121.862 74.816
1.94 120.719 74.959
1.95 120.845 74.759
1.96 120.972 74.403
1.97 121.169 73.746
1.98 121.399 72.775
1.99 121.772 71.590
2.00 122.769 70.499
2.01 123.970 69.365
2.02 123.180 67.167
2.03 120.968 62.827
2.04 --undefined-- 57.042
2.05 --undefined-- 53.590
2.06 --undefined-- 51.260
2.07 --undefined-- 48.486
2.08 --undefined-- 44.541
2.09 --undefined-- 41.478
2.10 --undefined-- 40.293
2.11 --undefined-- 37.862
2.12 --undefined-- 36.006
2.13 --undefined-- 37.461
2.14 --undefined-- 38.209
2.15 --undefined-- 37.185
2.16 --undefined-- 37.292
2.17 --undefined-- 37.669
2.18 --undefined-- 36.686
2.19 --undefined-- 35.894
2.20 --undefined-- 36.735
2.21 --undefined-- 38.321
2.22 --undefined-- 41.480
2.23 --undefined-- 47.839
2.24 --undefined-- 54.719
2.25 --undefined-- 61.243
2.26 --undefined-- 66.998
2.27 --undefined-- 71.253
2.28 124.073 73.363
2.29 123.428 73.736
2.30 123.590 73.492
2.31 124.021 72.863
2.32 124.144 70.781
2.33 --undefined-- 66.006
2.34 --undefined-- 58.254
2.35 --undefined-- 61.264
2.36 --undefined-- 68.331
2.37 131.536 72.367
2.38 131.914 73.609
2.39 131.570 72.683
2.40 131.179 70.007
2.41 129.717 65.194
2.42 129.499 58.589
2.43 128.820 55.595
2.44 126.119 55.316
2.45 124.963 54.879
2.46 126.262 55.061
2.47 --undefined-- 55.523
2.48 --undefined-- 53.934
2.49 --undefined-- 49.498
2.50 --undefined-- 47.759
2.51 --undefined-- 60.159
2.52 --undefined-- 69.060
2.53 --undefined-- 73.174
2.54 --undefined-- 73.130
2.55 --undefined-- 69.783
2.56 --undefined-- 68.102
2.57 130.605 70.265
2.58 128.897 71.884
2.59 126.955 72.713
2.60 125.339 72.909
2.61 125.192 73.051
2.62 126.327 73.199
2.63 125.010 73.026
2.64 123.699 72.647
2.65 123.523 72.395
2.66 123.377 72.346
2.67 123.120 72.269
2.68 122.017 71.671
2.69 120.693 70.132
2.70 121.433 67.582
2.71 122.178 64.274
2.72 121.338 60.679
2.73 116.774 57.013
2.74 --undefined-- 53.971
2.75 --undefined-- 53.210
2.76 112.152 55.150
2.77 115.233 58.002
2.78 117.273 60.506
2.79 117.229 62.721
2.80 117.177 65.105
2.81 117.359 67.835
2.82 118.305 70.169
2.83 118.664 71.333
2.84 119.117 71.429
2.85 119.570 70.973
2.86 119.813 70.108
2.87 119.047 68.330
2.88 117.087 64.843
2.89 --undefined-- 58.959
2.90 --undefined-- 50.487
2.91 --undefined-- 44.244
2.92 --undefined-- 49.778
2.93 --undefined-- 56.217
2.94 --undefined-- 60.670
2.95 --undefined-- 64.822
2.96 --undefined-- 68.786
2.97 --undefined-- 70.970
2.98 --undefined-- 70.985
2.99 98.493 69.362
3.00 96.205 66.863
3.01 93.925 63.615
3.02 --undefined-- 59.336
3.03 --undefined-- 53.578
3.04 --undefined-- 46.037
3.05 --undefined-- 39.675
3.06 --undefined-- 38.266
3.07 --undefined-- 44.369
3.08 --undefined-- 49.709
3.09 --undefined-- 51.676
3.10 --undefined-- 52.996
3.11 --undefined-- 55.987
3.12 --undefined-- 58.677
3.13 --undefined-- 60.525
3.14 --undefined-- 62.086
3.15 --undefined-- 64.000
3.16 --undefined-- 65.454
3.17 --undefined-- 65.356
3.18 96.737 65.217
3.19 93.741 65.392
3.20 92.791 64.981
3.21 91.724 64.173
3.22 90.637 63.183
3.23 --undefined-- 61.888
3.24 --undefined-- 60.712
3.25 --undefined-- 60.965
3.26 --undefined-- 62.757
3.27 103.006 65.344
3.28 105.232 67.826
3.29 111.445 69.861
3.30 113.660 71.234
3.31 114.975 71.950
3.32 115.511 72.181
3.33 114.403 72.079
3.34 113.076 71.663
3.35 112.080 70.872
3.36 111.467 69.344
3.37 110.185 67.103
3.38 106.447 64.605
3.39 --undefined-- 61.325
3.40 --undefined-- 55.961
3.41 --undefined-- 51.793
3.42 --undefined-- 58.535
3.43 --undefined-- 64.698
3.44 --undefined-- 68.207
3.45 --undefined-- 69.328
3.46 --undefined-- 68.665
3.47 104.937 68.394
3.48 104.258 68.713
3.49 102.253 68.812
3.50 102.685 69.128
3.51 102.505 69.343
3.52 103.115 69.039
3.53 103.506 67.813
3.54 103.811 65.449
3.55 --undefined-- 61.612
3.56 --undefined-- 55.524
3.57 --undefined-- 46.843
3.58 --undefined-- 39.544
3.59 --undefined-- 37.723
3.60 --undefined-- 42.622
3.61 --undefined-- 52.335
3.62 --undefined-- 58.174
3.63 --undefined-- 62.272
3.64 --undefined-- 66.947
3.65 107.527 70.295
3.66 104.077 71.603
3.67 100.723 71.427
3.68 99.046 70.415
3.69 97.810 69.448
3.70 97.342 68.874
3.71 96.355 68.225
3.72 95.365 67.003
3.73 94.144 64.652
3.74 --undefined-- 60.724
3.75 --undefined-- 55.135
3.76 --undefined-- 48.348
3.77 --undefined-- 42.614
3.78 --undefined-- 39.307
3.79 --undefined-- 37.058
3.80 --undefined-- 36.658
3.81 --undefined-- 41.791
3.82 --undefined-- 51.806
3.83 --undefined-- 58.233
3.84 --undefined-- 63.428
3.85 --undefined-- 68.088
3.86 100.014 70.054
3.87 95.525 69.511
3.88 93.050 67.876
3.89 93.031 65.812
3.90 92.230 63.251
3.91 89.679 60.860
3.92 92.267 59.058
3.93 91.886 56.680
3.94 --undefined-- 52.947
3.95 --undefined-- 47.596
3.96 --undefined-- 41.709
3.97 --undefined-- 39.762
3.98 --undefined-- 45.857
3.99 --undefined-- 53.787
4.00 --undefined-- 59.417
4.01 --undefined-- 62.165
4.02 --undefined-- 64.054
4.03 --undefined-- 67.288
4.04 94.241 69.811
4.05 93.199 70.931
4.06 89.522 70.553
4.07 89.166 69.169
4.08 85.917 67.985
4.09 86.178 67.437
4.10 86.643 67.371
4.11 91.261 67.531
4.12 94.688 68.153
4.13 97.040 68.676
4.14 99.309 68.381
4.15 102.079 67.484
4.16 103.479 66.484
4.17 105.023 65.200
4.18 103.763 63.272
4.19 101.169 60.701
4.20 96.055 57.721
4.21 92.248 55.688
4.22 91.596 56.675
4.23 91.626 59.864
4.24 91.317 62.719
4.25 91.935 64.834
4.26 93.514 66.623
4.27 93.721 68.101
4.28 92.669 69.170
4.29 92.301 69.629
4.30 92.972 69.376
4.31 92.770 68.839
4.32 96.573 68.354
4.33 96.895 67.487
4.34 98.702 65.727
4.35 102.090 62.718
4.36 101.642 58.504
4.37 --undefined-- 53.180
4.38 --undefined-- 46.961
4.39 --undefined-- 40.714
4.40 --undefined-- 37.521
4.41 --undefined-- 36.733
4.42 --undefined-- 36.651
4.43 --undefined-- 37.579
4.44 --undefined-- 38.784
4.45 --undefined-- 38.725
4.46 --undefined-- 38.169
4.47 --undefined-- 38.259
4.48 --undefined-- 38.171
4.49 --undefined-- 37.580
4.50 --undefined-- 37.089
4.51 --undefined-- 36.980
4.52 --undefined-- 37.228
4.53 --undefined-- 38.844
4.54 --undefined-- 41.560
4.55 --undefined-- 43.052
4.56 --undefined-- 43.355
4.57 --undefined-- 43.308
4.58 --undefined-- 43.153
4.59 --undefined-- 43.011
4.60 --undefined-- 42.600
4.61 --undefined-- 42.274
4.62 --undefined-- 42.506
4.63 --undefined-- 42.385
4.64 --undefined-- 42.026
4.65 --undefined-- 41.894
4.66 --undefined-- 41.112
4.67 --undefined-- 40.226
4.68 --undefined-- 40.139
4.69 --undefined-- 40.149
4.70 --undefined-- 39.966
4.71 --undefined-- 40.099
4.72 --undefined-- 40.683
4.73 --undefined-- 40.937
4.74 --undefined-- 43.984
4.75 --undefined-- 51.466
4.76 --undefined-- 57.349
4.77 --undefined-- 62.731
4.78 --undefined-- 68.385
4.79 --undefined-- 71.689
4.80 --undefined-- 72.126
4.81 --undefined-- 70.768
4.82 96.139 69.238
4.83 96.796 68.106
4.84 95.169 67.013
4.85 94.736 65.945
4.86 93.911 65.306
4.87 92.663 64.896
4.88 93.215 64.774
4.89 94.382 64.659
4.90 94.821 63.777
4.91 94.976 62.251
4.92 92.240 63.154
4.93 --undefined-- 67.737
4.94 --undefined-- 70.522
4.95 --undefined-- 71.218
4.96 --undefined-- 71.807
4.97 --undefined-- 72.770
4.98 --undefined-- 72.615
4.99 --undefined-- 71.831
5.00 --undefined-- 71.718
5.01 --undefined-- 71.216
5.02 --undefined-- 70.412
5.03 --undefined-- 69.307
5.04 --undefined-- 67.180
5.05 --undefined-- 66.475
5.06 120.306 67.312
5.07 119.876 67.520
5.08 117.526 66.528
5.09 115.650 63.769
5.10 114.366 59.333
5.11 117.125 55.796
5.12 115.981 54.969
5.13 117.206 54.917
5.14 118.535 54.676
5.15 118.898 53.699
5.16 --undefined-- 51.544
5.17 --undefined-- 48.354
5.18 --undefined-- 47.418
5.19 --undefined-- 55.236
5.20 --undefined-- 61.367
5.21 --undefined-- 65.333
5.22 106.264 68.517
5.23 106.495 70.690
5.24 106.262 71.409
5.25 102.485 70.901
5.26 100.079 70.021
5.27 97.848 69.410
5.28 95.930 68.786
5.29 94.908 68.033
5.30 94.343 67.360
5.31 94.524 66.585
5.32 95.495 65.415
5.33 94.727 64.031
5.34 101.126 62.508
5.35 101.772 61.844
5.36 --undefined-- 64.446
5.37 --undefined-- 66.923
5.38 --undefined-- 67.968
5.39 107.513 68.213
5.40 111.529 68.001
5.41 111.771 67.533
5.42 111.122 66.048
5.43 106.573 62.694
5.44 --undefined-- 57.315
5.45 --undefined-- 49.816
5.46 --undefined-- 50.294
5.47 --undefined-- 59.056
5.48 --undefined-- 63.147
5.49 --undefined-- 64.025
5.50 --undefined-- 66.648
5.51 --undefined-- 69.605
5.52 --undefined-- 70.571
5.53 --undefined-- 70.431
5.54 92.906 70.042
5.55 91.518 69.402
5.56 90.353 68.447
5.57 90.763 67.868
5.58 91.982 68.268
5.59 92.176 68.763
5.60 91.904 --undefined--
5.61 91.568 --undefined--
5.62 --undefined-- --undefined--
5.63 --undefined-- --undefined--
