Time Pitch Intensity
0.01 --undefined-- --undefined--
0.02 206.414 --undefined--
0.03 204.879 --undefined--
0.04 203.190 --undefined--
0.05 197.551 69.066
0.06 193.083 67.307
0.07 --undefined-- 66.574
0.08 --undefined-- 65.695
0.09 --undefined-- 63.920
0.10 --undefined-- 60.503
0.11 --undefined-- 55.188
0.12 --undefined-- 49.843
0.13 --undefined-- 47.235
0.14 --undefined-- 46.090
0.15 --undefined-- 45.395
0.16 --undefined-- 46.116
0.17 --undefined-- 46.896
0.18 --undefined-- 47.093
0.19 --undefined-- 49.864
0.20 --undefined-- 54.131
0.21 --undefined-- 56.450
0.22 --undefined-- 56.199
0.23 --undefined-- 54.232
0.24 --undefined-- 53.736
0.25 283.480 57.153
0.26 281.197 60.992
0.27 272.574 63.103
0.28 274.714 63.803
0.29 275.156 63.773
0.30 274.521 63.407
0.31 272.586 62.665
0.32 268.253 61.077
0.33 265.309 57.860
0.34 --undefined-- 52.635
0.35 --undefined-- 47.805
0.36 --undefined-- 48.466
0.37 --undefined-- 51.900
0.38 --undefined-- 54.232
0.39 --undefined-- 54.785
0.40 --undefined-- 54.155
0.41 --undefined-- 57.004
0.42 256.731 61.354
0.43 232.474 63.643
0.44 213.225 64.772
0.45 203.187 65.601
0.46 196.263 66.240
0.47 192.193 66.740
0.48 188.876 67.039
0.49 186.136 67.150
0.50 182.937 67.423
0.51 181.602 67.795
0.52 183.301 67.746
0.53 187.175 67.275
0.54 198.051 66.558
0.55 201.693 64.922
0.56 201.957 61.523
0.57 192.294 56.032
0.58 195.848 50.845
0.59 --undefined-- 50.505
0.60 --undefined-- 50.857
0.61 --undefined-- 49.508
0.62 --undefined-- 47.149
0.63 --undefined-- 48.255
0.64 --undefined-- 51.421
0.65 --undefined-- 52.702
0.66 --undefined-- 52.712
0.67 --undefined-- 55.009
0.68 239.679 58.801
0.69 253.069 61.650
0.70 269.422 63.647
0.71 281.334 65.342
0.72 281.040 66.671
0.73 278.669 67.497
0.74 266.971 67.714
0.75 249.359 66.831
0.76 --undefined-- 64.473
0.77 --undefined-- 60.895
0.78 --undefined-- 56.842
0.79 --undefined-- 53.686
0.80 --undefined-- 53.376
0.81 --undefined-- 54.955
0.82 --undefined-- 56.588
0.83 185.937 58.382
0.84 184.133 60.897
0.85 184.030 63.213
0.86 185.156 64.907
0.87 188.140 65.805
0.88 180.471 65.581
0.89 180.597 64.500
0.90 180.058 62.897
0.91 178.550 60.534
0.92 176.983 57.344
0.93 --undefined-- 55.626
0.94 --undefined-- 54.992
0.95 --undefined-- 52.438
0.96 --undefined-- 50.837
0.97 --undefined-- 53.381
0.98 --undefined-- 55.664
0.99 --undefined-- 56.318
1.00 --undefined-- 54.692
1.01 --undefined-- 50.682
1.02 --undefined-- 49.336
1.03 --undefined-- 52.045
1.04 --undefined-- 54.123
1.05 --undefined-- 55.503
1.06 --undefined-- 57.154
1.07 --undefined-- 59.927
1.08 --undefined-- 62.862
1.09 184.839 64.388
1.10 177.213 64.749
1.11 172.919 64.426
1.12 171.675 63.500
1.13 170.719 62.566
1.14 170.790 62.058
1.15 170.851 61.745
1.16 163.324 61.253
1.17 164.939 60.750
1.18 174.919 60.871
1.19 175.945 61.372
1.20 176.149 61.657
1.21 175.961 61.576
1.22 177.536 61.592
1.23 179.727 62.049
1.24 181.116 62.800
1.25 182.940 63.564
1.26 185.444 64.334
1.27 188.098 65.048
1.28 189.481 65.547
1.29 190.520 65.772
1.30 191.791 65.486
1.31 192.751 64.408
1.32 192.948 62.385
1.33 190.621 59.456
1.34 185.675 55.847
1.35 --undefined-- 52.508
1.36 --undefined-- 49.322
1.37 --undefined-- 46.594
1.38 --undefined-- 49.320
1.39 --undefined-- 52.337
1.40 --undefined-- 52.639
1.41 --undefined-- 53.663
1.42 --undefined-- 57.942
1.43 --undefined-- 60.980
1.44 --undefined-- 62.606
1.45 --undefined-- 63.350
1.46 159.529 63.364
1.47 152.677 63.084
1.48 149.841 62.884
1.49 148.818 62.958
1.50 149.122 62.950
1.51 149.545 62.553
1.52 151.413 62.201
1.53 154.156 62.269
1.54 156.507 62.284
1.55 160.788 61.925
1.56 165.721 61.790
1.57 174.313 62.690
1.58 181.784 63.889
1.59 195.978 64.920
1.60 203.558 65.925
1.61 218.610 67.563
1.62 228.391 69.958
1.63 231.531 71.644
1.64 234.444 72.475
1.65 236.217 73.203
1.66 235.747 73.846
1.67 232.730 74.084
1.68 227.194 73.754
1.69 219.197 73.174
1.70 --undefined-- 72.531
1.71 --undefined-- 71.445
1.72 --undefined-- 69.424
1.73 --undefined-- 66.056
1.74 --undefined-- 61.791
1.75 --undefined-- 57.924
1.76 --undefined-- 54.285
1.77 --undefined-- 49.924
1.78 --undefined-- 45.906
1.79 --undefined-- 44.714
1.80 --undefined-- 46.385
1.81 --undefined-- 50.208
1.82 --undefined-- 53.342
1.83 --undefined-- 54.374
1.84 --undefined-- 52.897
1.85 --undefined-- 49.760
1.86 --undefined-- 50.265
1.87 --undefined-- 53.421
1.88 --undefined-- 55.629
1.89 --undefined-- 55.944
1.90 --undefined-- 54.887
1.91 --undefined-- 53.601
1.92 --undefined-- 51.981
1.93 --undefined-- 50.468
1.94 --undefined-- 52.250
1.95 --undefined-- 55.976
1.96 --undefined-- 58.220
1.97 --undefined-- 58.882
1.98 --undefined-- 57.976
1.99 --undefined-- 55.662
2.00 --undefined-- 52.848
2.01 --undefined-- 49.847
2.02 --undefined-- 49.627
2.03 --undefined-- 51.634
2.04 --undefined-- 55.813
2.05 235.584 61.492
2.06 235.096 66.039
2.07 250.045 69.037
2.08 244.164 70.746
2.09 240.181 71.320
2.10 237.930 71.173
2.11 236.641 70.725
2.12 236.209 70.155
2.13 236.004 69.673
2.14 235.985 69.313
2.15 235.920 69.034
2.16 237.498 68.849
2.17 239.971 68.692
2.18 244.433 68.560
2.19 249.165 68.366
2.20 253.348 67.921
2.21 254.738 66.757
2.22 250.956 64.412
2.23 244.398 61.598
2.24 286.983 62.999
2.25 154.308 66.991
2.26 159.537 69.084
2.27 165.283 69.132
2.28 172.380 67.931
2.29 178.383 66.837
2.30 181.874 66.981
2.31 183.135 67.639
2.32 184.340 67.778
2.33 184.615 67.551
2.34 183.244 67.340
2.35 181.510 67.244
2.36 180.830 67.172
2.37 180.660 67.073
2.38 179.961 66.906
2.39 178.220 66.194
2.40 173.246 64.460
2.41 162.248 62.057
2.42 156.517 59.832
2.43 154.567 57.198
2.44 --undefined-- 53.706
2.45 --undefined-- 49.323
2.46 --undefined-- 45.278
2.47 --undefined-- 44.497
2.48 --undefined-- 45.150
2.49 --undefined-- 46.889
2.50 --undefined-- 48.533
2.51 --undefined-- 47.824
2.52 --undefined-- 44.907
2.53 --undefined-- 45.070
2.54 --undefined-- 50.921
2.55 --undefined-- 57.704
2.56 213.708 62.564
2.57 205.211 65.525
2.58 191.498 67.617
2.59 183.697 69.100
2.60 179.231 69.803
2.61 175.503 70.011
2.62 174.104 69.911
2.63 173.718 69.460
2.64 174.612 68.687
2.65 177.921 67.878
2.66 179.923 67.396
2.67 181.833 67.176
2.68 181.803 66.832
2.69 181.699 66.196
2.70 181.503 65.595
2.71 181.626 65.133
2.72 182.832 64.183
2.73 184.388 62.229
2.74 179.359 59.982
2.75 --undefined-- 57.470
2.76 --undefined-- 53.524
2.77 --undefined-- 55.553
2.78 230.364 62.050
2.79 210.219 66.086
2.80 202.326 68.211
2.81 197.926 69.587
2.82 195.833 70.553
2.83 195.299 71.096
2.84 196.057 71.430
2.85 197.347 71.563
2.86 198.345 71.170
2.87 199.885 70.200
2.88 200.783 69.261
2.89 200.599 68.855
2.90 199.365 68.867
2.91 198.477 68.940
2.92 198.152 68.871
2.93 198.071 68.597
2.94 197.962 68.080
2.95 198.350 67.368
2.96 199.500 66.300
2.97 201.180 64.354
2.98 203.217 60.795
2.99 198.178 55.434
3.00 198.077 50.239
3.01 --undefined-- 48.375
3.02 --undefined-- 50.154
3.03 --undefined-- 50.432
3.04 --undefined-- 48.585
3.05 --undefined-- 48.772
3.06 --undefined-- 49.656
3.07 --undefined-- 49.807
3.08 --undefined-- 50.407
3.09 --undefined-- 51.676
3.10 --undefined-- 52.512
3.11 --undefined-- 52.593
3.12 --undefined-- 53.202
3.13 --undefined-- 54.531
3.14 --undefined-- 57.957
3.15 147.151 63.839
3.16 154.197 68.198
3.17 155.963 70.033
3.18 161.772 69.775
3.19 161.957 68.548
3.20 161.974 67.702
3.21 162.578 67.442
3.22 163.480 67.477
3.23 164.552 67.727
3.24 165.088 68.045
3.25 164.059 68.276
3.26 160.054 67.992
3.27 153.838 66.230
3.28 291.331 62.043
3.29 --undefined-- 56.039
3.30 --undefined-- 53.636
3.31 --undefined-- 53.079
3.32 --undefined-- 52.949
3.33 237.411 56.444
3.34 230.812 60.079
3.35 232.327 62.128
3.36 233.502 62.597
3.37 231.696 61.163
3.38 --undefined-- 58.467
3.39 --undefined-- 57.151
3.40 --undefined-- 58.523
3.41 151.664 61.061
3.42 155.821 62.655
3.43 160.351 62.929
3.44 162.696 62.379
3.45 163.966 61.409
3.46 163.686 60.131
3.47 159.514 58.547
3.48 156.310 57.926
3.49 163.980 58.634
3.50 164.789 58.623
3.51 160.407 57.470
3.52 153.275 56.732
3.53 --undefined-- 56.988
3.54 --undefined-- 56.542
3.55 --undefined-- 55.196
3.56 --undefined-- 54.411
3.57 --undefined-- 55.472
3.58 --undefined-- 55.243
3.59 --undefined-- 54.419
3.60 --undefined-- 55.296
3.61 --undefined-- 55.707
3.62 --undefined-- 55.844
3.63 --undefined-- 59.843
3.64 --undefined-- 64.985
3.65 --undefined-- 68.334
3.66 --undefined-- 68.862
3.67 173.523 66.823
3.68 166.638 65.188
3.69 163.990 64.700
3.70 162.112 63.999
3.71 160.974 63.544
3.72 159.844 63.483
3.73 159.477 63.661
3.74 158.869 63.658
3.75 158.834 63.811
3.76 159.973 64.201
3.77 161.859 63.788
3.78 163.250 62.543
3.79 164.129 61.518
3.80 164.930 60.912
3.81 165.795 60.774
3.82 166.195 61.183
3.83 166.150 61.477
3.84 166.042 60.962
3.85 165.600 59.092
3.86 164.768 55.652
3.87 --undefined-- 51.346
3.88 --undefined-- 47.981
3.89 --undefined-- 48.143
3.90 --undefined-- 49.894
3.91 --undefined-- 52.817
3.92 --undefined-- 55.506
3.93 --undefined-- 56.807
3.94 --undefined-- 60.193
3.95 268.557 65.862
3.96 259.416 69.529
3.97 258.712 71.204
3.98 258.423 71.767
3.99 259.844 71.676
4.00 263.028 71.217
4.01 266.516 70.833
4.02 269.311 70.656
4.03 271.907 70.417
4.04 276.118 70.252
4.05 279.605 70.522
4.06 282.448 70.935
4.07 284.290 70.979
4.08 284.237 70.593
4.09 283.071 69.894
4.10 277.837 68.656
4.11 266.835 66.640
4.12 256.697 64.150
4.13 252.165 62.067
4.14 --undefined-- 60.246
4.15 --undefined-- 57.436
4.16 --undefined-- 53.660
4.17 --undefined-- 50.932
4.18 --undefined-- 50.526
4.19 --undefined-- 50.574
4.20 --undefined-- 49.611
4.21 --undefined-- 48.819
4.22 --undefined-- 50.268
4.23 --undefined-- 52.937
4.24 --undefined-- 56.534
4.25 --undefined-- 59.675
4.26 --undefined-- 61.781
4.27 250.125 62.769
4.28 242.027 64.103
4.29 244.270 67.131
4.30 252.185 70.366
4.31 254.583 72.060
4.32 250.249 72.131
4.33 250.155 71.954
4.34 253.169 72.187
4.35 254.782 72.080
4.36 253.150 71.226
4.37 252.199 70.174
4.38 252.716 69.157
4.39 253.166 68.167
4.40 253.455 67.728
4.41 253.340 67.775
4.42 254.178 67.586
4.43 260.917 66.900
4.44 261.046 66.088
4.45 259.396 65.362
4.46 258.162 64.926
4.47 257.048 64.853
4.48 255.819 65.052
4.49 255.938 65.414
4.50 256.682 65.571
4.51 256.960 65.335
4.52 257.500 65.069
4.53 258.624 65.049
4.54 259.692 65.207
4.55 260.115 65.335
4.56 259.433 65.218
4.57 253.816 65.515
4.58 253.236 66.429
4.59 249.366 66.774
4.60 246.113 66.570
4.61 243.336 66.320
4.62 239.284 66.137
4.63 235.971 65.963
4.64 230.765 65.850
4.65 224.073 65.816
4.66 215.702 65.347
4.67 208.476 64.162
4.68 209.855 63.258
4.69 --undefined-- 63.544
4.70 --undefined-- 63.837
4.71 --undefined-- 63.277
4.72 135.848 62.305
4.73 135.106 61.303
4.74 133.901 59.675
4.75 130.757 57.323
4.76 133.758 56.741
4.77 135.741 58.150
4.78 138.839 59.504
4.79 143.926 60.417
4.80 146.531 60.358
4.81 146.771 59.626
4.82 160.250 60.367
4.83 162.500 62.335
4.84 162.607 63.644
4.85 165.526 64.030
4.86 170.869 63.867
4.87 179.140 63.610
4.88 187.087 63.092
4.89 196.791 61.314
4.90 197.253 57.734
4.91 178.969 53.375
4.92 179.391 52.502
4.93 --undefined-- 54.566
4.94 --undefined-- 56.057
4.95 --undefined-- 56.354
4.96 --undefined-- 55.983
4.97 --undefined-- --undefined--
4.98 231.535 --undefined--
4.99 --undefined-- --undefined--
5.00 --undefined-- --undefined--
