Time Pitch Intensity
0.01 --undefined-- --undefined--
0.02 --undefined-- --undefined--
0.03 --undefined-- --undefined--
0.04 --undefined-- --undefined--
0.05 185.972 63.651
0.06 176.786 66.247
0.07 169.029 67.032
0.08 159.961 67.114
0.09 149.276 67.264
0.10 142.703 67.476
0.11 139.531 67.487
0.12 137.911 67.295
0.13 136.698 66.858
0.14 136.730 66.182
0.15 138.265 65.405
0.16 140.438 64.589
0.17 140.695 63.364
0.18 141.217 61.191
0.19 145.028 58.080
0.20 --undefined-- 54.052
0.21 --undefined-- 49.219
0.22 --undefined-- 46.153
0.23 --undefined-- 45.441
0.24 --undefined-- 46.231
0.25 --undefined-- 48.509
0.26 --undefined-- 50.439
0.27 --undefined-- 58.094
0.28 179.870 64.760
0.29 169.067 68.070
0.30 161.059 68.930
0.31 156.154 68.349
0.32 151.946 67.442
0.33 146.073 66.909
0.34 144.997 66.995
0.35 145.454 67.330
0.36 144.516 67.446
0.37 144.537 67.512
0.38 144.965 67.524
0.39 146.513 67.318
0.40 147.995 66.805
0.41 148.695 65.896
0.42 147.363 64.366
0.43 145.337 61.624
0.44 147.435 57.069
0.45 --undefined-- 50.752
0.46 --undefined-- 45.592
0.47 --undefined-- 44.345
0.48 --undefined-- 44.318
0.49 --undefined-- 44.282
0.50 --undefined-- 43.950
0.51 --undefined-- 44.442
0.52 --undefined-- 44.655
0.53 --undefined-- 43.859
0.54 --undefined-- 44.226
0.55 --undefined-- 51.355
0.56 --undefined-- 58.806
0.57 166.983 63.563
0.58 167.926 66.398
0.59 168.089 68.025
0.60 168.022 68.823
0.61 168.237 69.164
0.62 169.628 69.515
0.63 173.570 70.213
0.64 180.222 71.127
0.65 186.878 72.001
0.66 193.942 72.764
0.67 199.074 73.061
0.68 203.474 72.140
0.69 204.576 69.486
0.70 195.117 64.973
0.71 195.293 58.856
0.72 --undefined-- 52.611
0.73 --undefined-- 52.912
0.74 --undefined-- 55.222
0.75 --undefined-- 59.401
0.76 192.717 63.311
0.77 186.340 65.471
0.78 185.536 67.315
0.79 184.185 69.220
0.80 174.502 70.169
0.81 158.170 70.028
0.82 148.878 69.559
0.83 145.476 69.383
0.84 143.232 69.399
0.85 142.651 69.374
0.86 143.405 69.255
0.87 144.265 69.035
0.88 145.419 68.695
0.89 146.864 68.194
0.90 146.995 67.381
0.91 147.511 66.063
0.92 144.537 64.137
0.93 141.050 61.239
0.94 --undefined-- 56.519
0.95 --undefined-- 50.046
0.96 --undefined-- 46.046
0.97 --undefined-- 45.833
0.98 --undefined-- 45.524
0.99 --undefined-- 44.349
1.00 --undefined-- 43.317
1.01 --undefined-- 42.577
1.02 --undefined-- 42.060
1.03 --undefined-- 41.921
1.04 --undefined-- 42.725
1.05 --undefined-- 46.180
1.06 --undefined-- 54.807
1.07 --undefined-- 61.257
1.08 163.175 64.980
1.09 163.295 67.004
1.10 165.178 68.177
1.11 170.323 68.969
1.12 176.477 69.516
1.13 182.640 69.775
1.14 187.983 69.653
1.15 192.402 68.974
1.16 191.646 67.487
1.17 188.050 65.087
1.18 189.071 61.721
1.19 --undefined-- 56.693
1.20 --undefined-- 49.277
1.21 --undefined-- 43.545
1.22 --undefined-- 44.128
1.23 --undefined-- 52.258
1.24 --undefined-- 62.533
1.25 235.004 68.818
1.26 214.491 71.935
1.27 201.042 72.988
1.28 189.654 73.040
1.29 185.576 72.725
1.30 185.223 72.241
1.31 185.655 71.699
1.32 185.333 71.316
1.33 185.430 71.487
1.34 187.122 72.079
1.35 188.731 72.598
1.36 190.207 72.816
1.37 191.565 72.683
1.38 191.469 72.210
1.39 190.044 71.167
1.40 186.405 69.013
1.41 180.494 65.166
1.42 --undefined-- 59.106
1.43 --undefined-- 50.547
1.44 --undefined-- 42.907
1.45 --undefined-- 42.126
1.46 --undefined-- 43.423
1.47 --undefined-- 44.975
1.48 --undefined-- 46.196
1.49 --undefined-- 46.914
1.50 --undefined-- 47.455
1.51 --undefined-- 47.601
1.52 --undefined-- 51.165
1.53 198.275 58.219
1.54 166.724 62.709
1.55 157.080 64.728
1.56 151.614 65.428
1.57 149.033 65.691
1.58 146.612 65.726
1.59 144.579 65.564
1.60 142.061 65.290
1.61 140.294 65.051
1.62 138.776 64.841
1.63 137.350 64.554
1.64 136.833 64.348
1.65 135.463 64.225
1.66 134.049 64.114
1.67 133.302 63.968
1.68 132.417 63.770
1.69 131.244 63.653
1.70 129.053 63.575
1.71 131.399 63.205
1.72 --undefined-- 62.034
1.73 --undefined-- 59.664
1.74 --undefined-- 57.254
1.75 --undefined-- 55.830
1.76 --undefined-- 53.943
1.77 --undefined-- 49.719
1.78 --undefined-- 43.545
1.79 --undefined-- 41.057
1.80 --undefined-- 40.342
1.81 --undefined-- 38.787
1.82 --undefined-- 38.982
1.83 --undefined-- 41.639
1.84 --undefined-- 42.756
1.85 --undefined-- 41.222
1.86 --undefined-- 39.393
1.87 --undefined-- 41.215
1.88 --undefined-- 43.167
1.89 --undefined-- 43.895
1.90 --undefined-- 43.785
1.91 --undefined-- 41.838
1.92 --undefined-- 38.225
1.93 --undefined-- 36.355
1.94 --undefined-- 36.400
1.95 --undefined-- 37.605
1.96 --undefined-- 38.774
1.97 --undefined-- 38.956
1.98 --undefined-- 38.870
1.99 --undefined-- 39.206
2.00 --undefined-- 38.961
2.01 --undefined-- 38.784
2.02 --undefined-- 40.007
2.03 --undefined-- 41.211
2.04 --undefined-- 41.302
2.05 --undefined-- 40.754
2.06 --undefined-- 41.487
2.07 --undefined-- 42.405
2.08 --undefined-- 42.834
2.09 --undefined-- 48.247
2.10 --undefined-- 58.868
2.11 194.169 65.827
2.12 187.733 69.524
2.13 179.957 71.339
2.14 176.794 72.418
2.15 174.932 73.006
2.16 174.063 73.116
2.17 173.582 72.998
2.18 172.248 72.651
2.19 169.763 71.750
2.20 167.359 70.032
2.21 166.246 67.610
2.22 165.427 65.185
2.23 164.434 63.705
2.24 164.634 63.311
2.25 166.374 63.631
2.26 168.478 64.606
2.27 169.039 65.936
2.28 169.022 67.304
2.29 169.573 68.717
2.30 170.146 70.030
2.31 169.525 70.861
2.32 169.277 71.197
2.33 170.217 71.272
2.34 171.134 71.283
2.35 172.182 71.461
2.36 174.832 71.951
2.37 178.529 72.502
2.38 184.318 72.580
2.39 192.897 71.795
2.40 198.747 69.999
2.41 192.351 67.134
2.42 186.432 63.515
2.43 192.054 59.086
2.44 --undefined-- 52.361
2.45 --undefined-- 43.283
2.46 --undefined-- 41.419
2.47 --undefined-- 41.961
2.48 --undefined-- 41.242
2.49 --undefined-- 42.222
2.50 --undefined-- 44.555
2.51 --undefined-- 46.793
2.52 --undefined-- 50.142
2.53 --undefined-- 57.009
2.54 258.017 63.810
2.55 260.026 67.734
2.56 258.738 69.219
2.57 259.919 69.332
2.58 261.476 68.781
2.59 260.604 67.584
2.60 244.555 65.751
2.61 237.075 63.588
2.62 233.374 60.619
2.63 --undefined-- 55.761
2.64 --undefined-- 50.790
2.65 --undefined-- 57.943
2.66 --undefined-- 66.157
2.67 232.556 70.906
2.68 222.322 72.900
2.69 212.345 73.409
2.70 205.610 73.476
2.71 199.988 73.446
2.72 195.320 73.596
2.73 192.511 73.920
2.74 190.470 74.159
2.75 188.531 74.228
2.76 187.094 74.166
2.77 186.227 74.025
2.78 185.786 73.899
2.79 185.324 73.850
2.80 185.157 73.852
2.81 185.317 73.851
2.82 185.730 73.854
2.83 186.564 73.832
2.84 187.735 73.761
2.85 189.109 73.689
2.86 191.031 73.575
2.87 192.241 73.172
2.88 190.526 72.176
2.89 185.696 70.349
2.90 204.296 68.005
2.91 208.471 65.696
2.92 211.420 62.724
2.93 208.330 59.027
2.94 --undefined-- 55.680
2.95 --undefined-- 54.654
2.96 --undefined-- 56.619
2.97 --undefined-- 60.059
2.98 205.582 64.047
2.99 220.209 67.222
3.00 237.684 68.983
3.01 244.791 70.080
3.02 255.542 71.289
3.03 257.395 72.306
3.04 257.979 72.209
3.05 255.835 70.283
3.06 237.757 66.868
3.07 228.398 63.837
3.08 221.037 61.568
3.09 210.963 59.157
3.10 215.881 57.974
3.11 212.291 60.760
3.12 208.089 65.645
3.13 210.965 69.304
3.14 208.318 71.374
3.15 202.063 72.241
3.16 194.997 72.255
3.17 187.972 71.960
3.18 183.707 71.802
3.19 180.608 71.687
3.20 178.852 71.600
3.21 177.792 71.665
3.22 176.521 71.863
3.23 175.782 72.096
3.24 175.515 72.314
3.25 176.344 72.568
3.26 178.317 72.612
3.27 178.168 72.122
3.28 176.905 71.076
3.29 173.820 69.646
3.30 172.314 68.591
3.31 174.521 68.965
3.32 175.739 70.128
3.33 175.092 70.975
3.34 172.643 71.362
3.35 168.826 71.457
3.36 165.574 71.339
3.37 162.213 71.023
3.38 159.219 70.616
3.39 155.350 70.474
3.40 156.586 70.616
3.41 155.819 70.450
3.42 154.598 70.175
3.43 155.135 70.169
3.44 155.735 70.327
3.45 156.344 70.464
3.46 157.643 70.497
3.47 158.356 70.503
3.48 159.627 70.461
3.49 159.247 70.273
3.50 159.212 70.081
3.51 158.605 70.139
3.52 156.988 70.215
3.53 155.251 70.104
3.54 154.981 69.886
3.55 155.018 69.763
3.56 154.952 69.791
3.57 155.276 69.984
3.58 155.332 70.346
3.59 155.175 70.720
3.60 154.828 70.916
3.61 154.329 70.820
3.62 154.122 70.531
3.63 154.461 70.324
3.64 155.713 70.283
3.65 157.433 70.309
3.66 158.587 70.323
3.67 160.742 70.487
3.68 161.879 70.600
3.69 160.179 70.056
3.70 157.381 68.729
3.71 149.025 67.132
3.72 145.977 65.138
3.73 145.092 61.721
3.74 146.289 57.529
3.75 150.494 56.647
3.76 153.066 60.274
3.77 170.999 64.723
3.78 171.762 67.888
3.79 168.053 69.501
3.80 157.761 70.038
3.81 152.941 70.139
3.82 150.315 70.178
3.83 146.963 70.175
3.84 145.683 70.030
3.85 143.261 69.754
3.86 141.653 69.208
3.87 141.698 68.142
3.88 142.388 66.380
3.89 141.851 63.644
3.90 143.295 59.581
3.91 --undefined-- 53.693
3.92 --undefined-- 46.974
3.93 --undefined-- 45.547
3.94 --undefined-- 45.583
3.95 --undefined-- 45.808
3.96 --undefined-- 46.565
3.97 --undefined-- 46.758
3.98 --undefined-- 48.747
3.99 --undefined-- 57.651
4.00 --undefined-- 64.217
4.01 159.352 67.201
4.02 147.386 67.802
4.03 133.506 67.522
4.04 125.439 67.315
4.05 118.732 66.862
4.06 114.821 66.055
4.07 116.411 65.241
4.08 119.060 64.777
4.09 121.607 64.920
4.10 126.271 65.634
4.11 130.627 66.593
4.12 135.305 67.283
4.13 139.213 67.055
4.14 141.477 65.434
4.15 141.230 62.128
4.16 --undefined-- 56.587
4.17 --undefined-- 49.098
4.18 --undefined-- 49.461
4.19 --undefined-- 57.325
4.20 --undefined-- 62.167
4.21 --undefined-- 65.696
4.22 201.216 69.806
4.23 196.184 72.581
4.24 194.268 73.837
4.25 193.417 74.286
4.26 192.050 74.192
4.27 189.469 73.627
4.28 186.415 73.192
4.29 189.034 73.487
4.30 190.282 74.066
4.31 190.587 74.544
4.32 190.839 74.801
4.33 191.044 74.828
4.34 191.247 74.630
4.35 190.671 74.031
4.36 188.800 72.510
4.37 183.663 69.504
4.38 176.897 64.614
4.39 --undefined-- 57.781
4.40 --undefined-- 59.841
4.41 206.788 66.681
4.42 191.055 70.682
4.43 182.293 72.490
4.44 176.019 73.214
4.45 172.226 73.502
4.46 168.366 73.259
4.47 165.092 72.794
4.48 163.214 72.632
4.49 161.819 72.831
4.50 160.114 73.097
4.51 158.485 73.119
4.52 156.982 72.778
4.53 154.413 72.180
4.54 150.918 71.233
4.55 144.392 69.421
4.56 --undefined-- 66.195
4.57 --undefined-- 61.660
4.58 --undefined-- 55.712
4.59 --undefined-- 49.723
4.60 --undefined-- 45.727
4.61 --undefined-- 44.338
4.62 --undefined-- 43.823
4.63 --undefined-- 42.437
4.64 --undefined-- 42.316
4.65 --undefined-- 42.580
4.66 --undefined-- 40.956
4.67 --undefined-- 39.600
4.68 --undefined-- 39.833
4.69 --undefined-- 40.554
4.70 --undefined-- 41.257
4.71 --undefined-- 41.542
4.72 --undefined-- 41.093
4.73 --undefined-- 40.330
4.74 --undefined-- 40.095
4.75 --undefined-- 40.349
4.76 --undefined-- 39.834
4.77 --undefined-- 38.350
4.78 --undefined-- 38.306
4.79 --undefined-- 40.639
4.80 --undefined-- 42.810
4.81 --undefined-- 43.200
4.82 --undefined-- 41.623
4.83 --undefined-- 39.063
4.84 --undefined-- 38.743
4.85 --undefined-- 38.980
4.86 --undefined-- 38.942
4.87 --undefined-- 39.608
4.88 --undefined-- 40.126
4.89 --undefined-- 40.950
4.90 --undefined-- 40.864
4.91 --undefined-- 39.546
4.92 --undefined-- 38.940
4.93 --undefined-- 39.297
4.94 --undefined-- 40.628
4.95 --undefined-- 41.872
4.96 --undefined-- 42.113
4.97 --undefined-- 41.538
4.98 --undefined-- 41.481
4.99 --undefined-- 42.215
5.00 --undefined-- 41.583
5.01 --undefined-- 39.507
5.02 --undefined-- 39.035
5.03 --undefined-- 39.925
5.04 --undefined-- 40.512
5.05 --undefined-- 40.843
5.06 --undefined-- 40.554
5.07 --undefined-- 39.080
5.08 --undefined-- 37.553
5.09 --undefined-- 38.031
5.10 --undefined-- 38.045
5.11 --undefined-- 38.423
5.12 --undefined-- 40.202
5.13 --undefined-- 40.763
5.14 --undefined-- 39.731
5.15 --undefined-- 39.298
5.16 --undefined-- 40.392
5.17 --undefined-- 40.616
5.18 --undefined-- 40.221
5.19 --undefined-- 39.643
5.20 --undefined-- 39.632
5.21 --undefined-- 39.451
5.22 --undefined-- 38.455
5.23 --undefined-- 38.672
5.24 --undefined-- 40.186
5.25 --undefined-- 40.619
5.26 --undefined-- 39.526
5.27 --undefined-- 39.268
5.28 --undefined-- 40.192
5.29 --undefined-- 40.281
5.30 --undefined-- 40.680
5.31 --undefined-- 41.145
5.32 --undefined-- 40.250
5.33 --undefined-- 38.096
5.34 --undefined-- 36.938
5.35 --undefined-- 39.551
5.36 --undefined-- 41.717
5.37 --undefined-- 41.917
5.38 --undefined-- 40.912
5.39 --undefined-- 40.157
5.40 --undefined-- 40.129
5.41 --undefined-- 40.625
5.42 --undefined-- 41.275
5.43 --undefined-- 40.968
5.44 --undefined-- 41.245
5.45 --undefined-- 41.773
5.46 --undefined-- 41.630
5.47 --undefined-- 41.963
5.48 --undefined-- 41.642
5.49 --undefined-- 40.202
5.50 --undefined-- 39.650
5.51 --undefined-- 38.963
5.52 --undefined-- 39.016
5.53 --undefined-- 40.921
5.54 --undefined-- 44.766
5.55 --undefined-- 56.340
5.56 --undefined-- 66.263
5.57 240.205 71.922
5.58 217.775 74.795
5.59 210.051 76.240
5.60 205.719 77.231
5.61 204.883 77.992
5.62 207.271 78.458
5.63 211.609 78.345
5.64 217.662 77.536
5.65 224.470 76.533
5.66 229.432 75.818
5.67 235.308 75.903
5.68 246.420 76.531
5.69 249.888 76.567
5.70 251.450 75.692
5.71 248.977 73.680
5.72 243.466 70.036
5.73 235.776 65.483
5.74 299.822 68.063
5.75 269.809 72.871
5.76 248.790 75.618
5.77 229.320 76.581
5.78 213.105 76.405
5.79 202.701 75.642
5.80 194.662 74.177
5.81 187.994 71.419
5.82 183.977 67.319
5.83 190.866 62.534
5.84 --undefined-- 56.452
5.85 --undefined-- 55.642
5.86 --undefined-- 65.320
5.87 --undefined-- 71.502
5.88 178.004 74.781
5.89 169.627 76.338
5.90 162.794 76.857
5.91 160.171 76.731
5.92 159.171 76.225
5.93 160.465 75.664
5.94 162.745 74.878
5.95 166.710 73.699
5.96 169.872 72.658
5.97 173.804 72.111
5.98 179.471 71.959
5.99 186.808 72.085
6.00 193.802 72.423
6.01 199.689 72.776
6.02 204.183 73.158
6.03 207.609 73.703
6.04 209.453 74.292
6.05 211.845 74.896
6.06 217.518 75.272
6.07 214.848 74.909
6.08 206.665 74.047
6.09 201.647 73.439
6.10 196.762 73.050
6.11 190.698 72.741
6.12 186.287 72.726
6.13 184.101 73.125
6.14 185.019 73.720
6.15 187.698 --undefined--
6.16 193.279 --undefined--
6.17 --undefined-- --undefined--
6.18 --undefined-- --undefined--
