Time Pitch Intensity
0.01 --undefined-- --undefined--
0.02 203.036 --undefined--
0.03 203.086 --undefined--
0.04 202.790 --undefined--
0.05 202.554 71.698
0.06 202.513 71.876
0.07 202.304 71.931
0.08 201.752 71.824
0.09 201.087 71.491
0.10 200.098 70.790
0.11 198.584 69.483
0.12 198.606 67.331
0.13 200.397 64.185
0.14 201.847 60.042
0.15 199.875 56.132
0.16 --undefined-- 61.186
0.17 --undefined-- 68.199
0.18 229.415 71.794
0.19 225.116 72.858
0.20 218.812 72.840
0.21 215.760 72.841
0.22 216.022 72.963
0.23 216.739 72.960
0.24 217.884 72.687
0.25 219.280 72.247
0.26 220.437 71.902
0.27 220.784 71.696
0.28 220.816 71.550
0.29 220.580 71.435
0.30 221.020 71.352
0.31 221.846 71.331
0.32 222.141 71.326
0.33 224.187 70.928
0.34 227.027 69.381
0.35 232.226 65.914
0.36 236.269 60.011
0.37 --undefined-- 56.108
0.38 --undefined-- 61.454
0.39 202.881 63.975
0.40 191.330 62.959
0.41 190.961 58.716
0.42 --undefined-- 52.152
0.43 --undefined-- 47.761
0.44 --undefined-- 46.558
0.45 --undefined-- 46.488
0.46 --undefined-- 47.310
0.47 --undefined-- 48.356
0.48 --undefined-- 49.416
0.49 --undefined-- 53.408
0.50 --undefined-- 62.042
0.51 189.295 68.513
0.52 179.188 72.032
0.53 177.103 73.547
0.54 175.998 73.901
0.55 175.069 73.687
0.56 175.378 73.386
0.57 177.332 73.228
0.58 180.820 73.140
0.59 185.028 73.035
0.60 188.248 72.537
0.61 190.106 71.374
0.62 198.626 70.794
0.63 215.012 72.066
0.64 225.680 73.304
0.65 233.280 73.456
0.66 239.446 73.127
0.67 244.040 72.752
0.68 247.088 72.285
0.69 246.530 71.796
0.70 244.510 71.340
0.71 242.855 71.005
0.72 241.252 70.212
0.73 234.189 68.094
0.74 223.300 64.504
0.75 222.754 59.677
0.76 --undefined-- 54.666
0.77 --undefined-- 58.402
0.78 --undefined-- 65.569
0.79 227.759 70.156
0.80 224.320 72.392
0.81 215.045 73.021
0.82 208.602 72.688
0.83 204.476 71.971
0.84 205.649 71.173
0.85 219.678 70.080
0.86 219.266 68.540
0.87 211.438 66.715
0.88 203.008 64.779
0.89 204.524 62.449
0.90 179.144 60.176
0.91 170.881 59.222
0.92 175.435 59.576
0.93 181.903 60.173
0.94 180.367 60.670
0.95 185.248 61.262
0.96 175.695 62.182
0.97 170.712 63.916
0.98 163.331 66.382
0.99 158.171 68.562
1.00 153.332 69.713
1.01 148.861 69.815
1.02 146.801 68.960
1.03 145.152 66.897
1.04 142.255 63.296
1.05 --undefined-- 58.133
1.06 --undefined-- 53.573
1.07 --undefined-- 50.404
1.08 --undefined-- 45.491
1.09 --undefined-- 41.515
1.10 --undefined-- 44.632
1.11 --undefined-- 48.702
1.12 --undefined-- 51.220
1.13 --undefined-- 52.015
1.14 --undefined-- 50.305
1.15 --undefined-- 46.718
1.16 --undefined-- 44.639
1.17 --undefined-- 44.054
1.18 --undefined-- 42.694
1.19 --undefined-- 41.901
1.20 --undefined-- 44.895
1.21 --undefined-- 49.660
1.22 --undefined-- 57.195
1.23 248.823 65.447
1.24 243.692 70.567
1.25 240.591 72.693
1.26 232.885 72.969
1.27 221.607 72.737
1.28 214.982 72.775
1.29 210.187 73.076
1.30 207.747 73.230
1.31 206.344 73.086
1.32 206.381 72.850
1.33 207.291 72.573
1.34 208.764 72.176
1.35 209.434 71.686
1.36 209.854 70.992
1.37 209.892 70.111
1.38 211.099 69.571
1.39 214.814 69.553
1.40 217.343 69.526
1.41 217.788 69.193
1.42 215.962 68.423
1.43 216.187 66.846
1.44 224.052 63.872
1.45 240.117 60.185
1.46 235.924 58.582
1.47 234.219 56.579
1.48 --undefined-- 51.993
1.49 --undefined-- 47.527
1.50 --undefined-- 45.859
1.51 --undefined-- 45.723
1.52 --undefined-- 46.284
1.53 --undefined-- 47.020
1.54 --undefined-- 47.794
1.55 --undefined-- 48.566
1.56 --undefined-- 48.971
1.57 --undefined-- 49.001
1.58 --undefined-- 49.153
1.59 --undefined-- 49.945
1.60 --undefined-- 50.869
1.61 --undefined-- 50.815
1.62 --undefined-- 49.465
1.63 --undefined-- 47.798
1.64 --undefined-- 46.468
1.65 --undefined-- 45.248
1.66 --undefined-- 44.137
1.67 --undefined-- 42.862
1.68 --undefined-- 41.093
1.69 --undefined-- 39.173
1.70 --undefined-- 38.693
1.71 --undefined-- 41.034
1.72 --undefined-- 43.272
1.73 --undefined-- 52.614
1.74 190.398 61.593
1.75 178.921 67.098
1.76 176.580 70.174
1.77 182.475 72.062
1.78 185.561 73.326
1.79 186.045 74.012
1.80 186.302 74.100
1.81 184.797 73.679
1.82 182.214 72.824
1.83 178.529 71.744
1.84 174.498 70.743
1.85 169.124 69.836
1.86 166.094 69.469
1.87 174.113 71.099
1.88 188.958 73.864
1.89 195.990 75.440
1.90 201.793 75.545
1.91 209.194 75.352
1.92 219.304 75.323
1.93 232.004 74.871
1.94 247.865 74.242
1.95 259.662 74.004
1.96 267.784 73.617
1.97 274.966 72.618
1.98 280.713 71.396
1.99 279.981 70.405
2.00 275.326 69.312
2.01 267.644 68.199
2.02 257.599 68.058
2.03 248.945 68.632
2.04 237.967 69.231
2.05 228.654 69.514
2.06 218.225 69.249
2.07 206.892 69.093
2.08 198.250 69.238
2.09 187.572 68.658
2.10 176.425 67.220
2.11 168.522 65.909
2.12 163.949 65.364
2.13 159.826 65.009
2.14 156.459 64.631
2.15 154.182 64.870
2.16 152.731 65.599
2.17 154.499 66.482
2.18 154.405 66.947
2.19 158.546 66.279
2.20 188.637 64.538
2.21 187.047 62.566
2.22 155.734 62.128
2.23 146.002 64.010
2.24 143.792 66.887
2.25 143.987 69.117
2.26 143.909 70.020
2.27 144.017 69.446
2.28 146.737 67.704
2.29 163.854 66.495
2.30 180.301 66.613
2.31 196.429 67.171
2.32 204.398 67.899
2.33 213.747 68.453
2.34 223.398 68.659
2.35 234.675 68.485
2.36 241.647 67.794
2.37 242.846 65.721
2.38 242.661 61.314
2.39 --undefined-- 55.946
2.40 --undefined-- 56.378
2.41 --undefined-- 58.603
2.42 245.785 62.797
2.43 245.033 66.899
2.44 251.898 69.258
2.45 248.715 70.586
2.46 248.231 71.737
2.47 240.647 72.757
2.48 224.057 73.265
2.49 206.952 73.195
2.50 196.188 72.537
2.51 190.840 71.375
2.52 187.031 70.514
2.53 185.241 70.193
2.54 185.872 69.555
2.55 191.849 68.703
2.56 189.358 68.168
2.57 183.710 68.164
2.58 180.867 69.134
2.59 179.401 70.892
2.60 179.002 72.342
2.61 178.041 73.101
2.62 176.253 73.656
2.63 175.580 73.664
2.64 169.435 72.775
2.65 165.589 71.787
2.66 163.138 71.046
2.67 159.823 70.156
2.68 156.944 69.148
2.69 155.492 68.453
2.70 156.543 68.198
2.71 158.158 67.971
2.72 158.038 67.472
2.73 158.203 66.978
2.74 160.711 66.774
2.75 161.376 66.682
2.76 160.479 66.329
2.77 158.928 65.444
2.78 156.454 64.076
2.79 161.521 63.233
2.80 164.457 65.277
2.81 172.554 68.779
2.82 170.531 71.050
2.83 168.794 72.027
2.84 167.038 72.453
2.85 165.725 72.719
2.86 164.860 72.791
2.87 164.158 72.506
2.88 163.148 71.869
2.89 160.979 70.977
2.90 159.689 69.914
2.91 158.775 69.155
2.92 159.396 69.245
2.93 160.030 69.913
2.94 159.453 70.406
2.95 158.286 70.620
2.96 158.238 70.917
2.97 156.309 71.015
2.98 152.435 70.787
2.99 149.834 70.364
3.00 146.267 69.825
3.01 144.571 69.346
3.02 143.045 68.791
3.03 141.719 68.516
3.04 141.583 69.040
3.05 145.505 70.274
3.06 148.925 71.567
3.07 151.298 72.474
3.08 152.038 72.842
3.09 153.030 72.510
3.10 155.730 71.626
3.11 168.163 71.082
3.12 176.892 71.398
3.13 189.339 71.926
3.14 206.712 72.589
3.15 220.717 73.399
3.16 224.995 73.660
3.17 227.569 73.166
3.18 228.874 72.179
3.19 230.296 70.416
3.20 242.751 67.435
3.21 244.797 63.157
3.22 231.444 57.787
3.23 229.819 52.249
3.24 --undefined-- 48.269
3.25 --undefined-- 46.556
3.26 --undefined-- 46.184
3.27 --undefined-- 46.107
3.28 --undefined-- 46.014
3.29 --undefined-- 45.846
3.30 --undefined-- 45.883
3.31 --undefined-- 45.877
3.32 --undefined-- 46.195
3.33 --undefined-- 46.643
3.34 --undefined-- 46.707
3.35 --undefined-- 46.241
3.36 --undefined-- 45.439
3.37 --undefined-- 45.459
3.38 --undefined-- 46.127
3.39 --undefined-- 46.395
3.40 --undefined-- 46.249
3.41 --undefined-- 45.911
3.42 --undefined-- 45.285
3.43 --undefined-- 45.739
3.44 --undefined-- 47.153
3.45 --undefined-- 47.433
3.46 --undefined-- 45.810
3.47 --undefined-- 42.099
3.48 --undefined-- 38.326
3.49 --undefined-- 38.310
3.50 --undefined-- 39.258
3.51 --undefined-- 40.437
3.52 --undefined-- 50.609
3.53 --undefined-- 59.655
3.54 --undefined-- 65.013
3.55 183.932 68.277
3.56 195.938 70.846
3.57 206.369 73.101
3.58 216.932 74.628
3.59 225.532 75.125
3.60 233.946 74.991
3.61 241.578 74.864
3.62 246.272 74.592
3.63 249.661 73.860
3.64 252.114 72.624
3.65 254.965 70.953
3.66 253.818 69.527
3.67 249.903 69.150
3.68 243.021 69.549
3.69 236.092 70.069
3.70 229.642 70.396
3.71 225.494 70.419
3.72 220.254 70.221
3.73 211.612 70.091
3.74 204.687 69.860
3.75 193.313 69.130
3.76 184.955 68.272
3.77 178.532 67.539
3.78 171.080 67.019
3.79 167.436 66.987
3.80 164.049 66.931
3.81 160.231 66.628
3.82 157.712 66.513
3.83 156.661 66.646
3.84 155.998 66.967
3.85 154.974 67.040
3.86 153.859 66.757
3.87 152.652 66.593
3.88 153.205 66.894
3.89 156.285 67.920
3.90 156.820 69.533
3.91 156.949 71.033
3.92 158.008 72.067
3.93 159.307 72.707
3.94 160.308 72.979
3.95 163.377 73.048
3.96 167.908 72.891
3.97 172.323 72.169
3.98 179.046 71.080
3.99 184.511 70.904
4.00 189.157 71.687
4.01 192.470 72.215
4.02 196.677 72.361
4.03 201.436 72.450
4.04 207.503 72.565
4.05 212.184 72.560
4.06 214.007 72.332
4.07 215.040 72.020
4.08 216.178 71.784
4.09 216.336 71.683
4.10 216.454 71.577
4.11 215.606 71.321
4.12 213.268 70.663
4.13 204.916 69.178
4.14 189.834 66.377
4.15 --undefined-- 62.295
4.16 --undefined-- 57.290
4.17 --undefined-- 51.933
4.18 --undefined-- 48.113
4.19 --undefined-- 44.559
4.20 --undefined-- 40.959
4.21 --undefined-- 43.608
4.22 --undefined-- 55.537
4.23 --undefined-- 65.233
4.24 --undefined-- 71.075
4.25 189.709 73.590
4.26 187.037 73.644
4.27 180.567 72.818
4.28 176.121 72.586
4.29 171.801 72.808
4.30 168.214 72.775
4.31 164.120 72.051
4.32 159.862 70.886
4.33 157.403 69.811
4.34 155.298 69.153
4.35 154.599 68.910
4.36 154.726 68.719
4.37 155.608 68.340
4.38 156.406 67.851
4.39 157.189 67.843
4.40 160.422 68.881
4.41 163.474 70.284
4.42 165.429 71.231
4.43 167.398 71.647
4.44 166.410 71.773
4.45 164.897 71.741
4.46 163.510 71.717
4.47 164.367 72.292
4.48 164.653 73.115
4.49 159.748 73.078
4.50 156.830 72.213
4.51 154.182 70.881
4.52 151.335 68.561
4.53 155.435 64.329
4.54 164.584 58.002
4.55 --undefined-- 51.107
4.56 --undefined-- 46.377
4.57 --undefined-- 47.559
4.58 --undefined-- 49.960
4.59 --undefined-- 49.888
4.60 --undefined-- 48.268
4.61 --undefined-- 46.291
4.62 --undefined-- 44.359
4.63 --undefined-- 43.826
4.64 --undefined-- 44.438
4.65 --undefined-- 45.207
4.66 --undefined-- 47.211
4.67 --undefined-- 53.033
4.68 --undefined-- 62.729
4.69 254.982 69.263
4.70 245.746 72.291
4.71 236.179 72.935
4.72 229.313 72.731
4.73 225.543 72.596
4.74 221.855 72.453
4.75 218.768 72.232
4.76 216.428 72.139
4.77 214.764 72.262
4.78 213.989 72.341
4.79 214.240 72.122
4.80 215.672 71.813
4.81 217.270 71.598
4.82 218.887 71.408
4.83 219.862 71.224
4.84 220.671 71.137
4.85 221.251 70.978
4.86 219.909 70.149
4.87 213.334 67.993
4.88 203.625 64.309
4.89 208.903 59.215
4.90 --undefined-- 57.443
4.91 --undefined-- 61.914
4.92 --undefined-- 64.465
4.93 --undefined-- 64.234
4.94 --undefined-- 61.841
4.95 --undefined-- 59.800
4.96 209.910 62.791
4.97 217.941 66.319
4.98 215.924 68.085
4.99 209.833 68.706
5.00 196.651 68.737
5.01 186.102 68.154
5.02 169.654 67.058
5.03 154.100 66.100
5.04 141.909 65.417
5.05 136.568 64.322
5.06 133.725 62.829
5.07 133.490 61.459
5.08 134.136 60.108
5.09 125.483 59.772
5.10 126.125 60.387
5.11 141.681 61.881
5.12 144.669 63.490
5.13 --undefined-- 64.797
5.14 --undefined-- 65.974
5.15 --undefined-- --undefined--
5.16 --undefined-- --undefined--
5.17 --undefined-- --undefined--
5.18 --undefined-- --undefined--
