Time Pitch Intensity
0.01 --undefined-- --undefined--
0.02 260.622 --undefined--
0.03 248.379 --undefined--
0.04 237.990 --undefined--
0.05 230.816 70.379
0.06 224.407 71.116
0.07 219.614 71.238
0.08 216.006 70.865
0.09 213.778 70.325
0.10 212.246 70.088
0.11 210.509 70.189
0.12 208.507 70.182
0.13 206.274 69.760
0.14 204.582 69.305
0.15 204.555 69.196
0.16 204.827 69.242
0.17 205.969 69.352
0.18 209.336 69.667
0.19 212.499 70.034
0.20 212.974 70.377
0.21 212.087 71.267
0.22 211.279 72.314
0.23 209.288 72.451
0.24 206.218 71.415
0.25 205.434 69.983
0.26 204.986 68.664
0.27 203.646 66.838
0.28 202.827 64.036
0.29 202.185 60.326
0.30 --undefined-- 55.728
0.31 --undefined-- 51.830
0.32 --undefined-- 51.657
0.33 --undefined-- 51.709
0.34 --undefined-- 50.202
0.35 --undefined-- 49.420
0.36 --undefined-- 49.973
0.37 --undefined-- 49.819
0.38 --undefined-- 50.029
0.39 --undefined-- 51.395
0.40 --undefined-- 52.117
0.41 --undefined-- 50.590
0.42 --undefined-- 47.191
0.43 --undefined-- 46.105
0.44 --undefined-- 47.327
0.45 --undefined-- 47.369
0.46 --undefined-- 45.837
0.47 --undefined-- 45.760
0.48 --undefined-- 48.520
0.49 --undefined-- 49.801
0.50 --undefined-- 48.103
0.51 --undefined-- 45.156
0.52 --undefined-- 47.119
0.53 --undefined-- 51.200
0.54 --undefined-- 53.586
0.55 --undefined-- 52.818
0.56 --undefined-- 50.279
0.57 --undefined-- 53.139
0.58 --undefined-- 59.613
0.59 --undefined-- 65.903
0.60 162.854 69.998
0.61 164.165 72.159
0.62 165.670 72.851
0.63 167.286 72.459
0.64 166.689 72.709
0.65 165.820 74.287
0.66 164.751 75.480
0.67 164.179 76.116
0.68 163.024 76.442
0.69 160.766 76.356
0.70 156.763 75.665
0.71 150.652 74.352
0.72 285.168 72.607
0.73 255.235 70.769
0.74 235.521 69.632
0.75 220.232 68.934
0.76 206.066 68.164
0.77 200.068 67.868
0.78 197.388 67.828
0.79 195.886 67.624
0.80 195.157 67.129
0.81 196.372 66.205
0.82 203.845 64.685
0.83 219.121 63.660
0.84 228.304 63.671
0.85 240.091 63.147
0.86 239.178 61.912
0.87 237.500 60.955
0.88 232.862 60.206
0.89 263.886 59.734
0.90 277.878 60.387
0.91 286.867 61.775
0.92 298.143 63.413
0.93 177.145 65.437
0.94 189.622 67.653
0.95 194.369 68.774
0.96 198.003 68.065
0.97 207.590 65.873
0.98 210.874 64.146
0.99 209.136 63.979
1.00 202.867 64.174
1.01 197.527 64.055
1.02 191.544 62.668
1.03 188.563 59.222
1.04 191.580 56.195
1.05 188.730 60.093
1.06 177.827 64.904
1.07 168.474 67.491
1.08 166.023 68.609
1.09 167.786 68.978
1.10 172.117 68.794
1.11 176.537 68.199
1.12 177.846 67.227
1.13 175.434 65.474
1.14 174.252 62.027
1.15 --undefined-- 56.945
1.16 --undefined-- 53.447
1.17 --undefined-- 56.680
1.18 --undefined-- 62.635
1.19 253.227 66.116
1.20 235.962 67.186
1.21 218.519 66.767
1.22 211.772 65.834
1.23 220.874 64.881
1.24 225.412 63.542
1.25 225.358 61.300
1.26 211.116 57.745
1.27 225.292 52.938
1.28 --undefined-- 49.200
1.29 --undefined-- 50.273
1.30 --undefined-- 54.676
1.31 --undefined-- 60.962
1.32 159.765 65.033
1.33 161.863 66.839
1.34 165.335 67.323
1.35 164.660 66.820
1.36 160.310 64.763
1.37 159.050 60.403
1.38 167.436 55.839
1.39 --undefined-- 55.639
1.40 --undefined-- 55.145
1.41 --undefined-- 53.984
1.42 --undefined-- 52.565
1.43 --undefined-- 50.225
1.44 --undefined-- 49.902
1.45 --undefined-- 53.797
1.46 166.126 60.168
1.47 155.914 64.737
1.48 154.472 67.335
1.49 158.860 68.883
1.50 162.389 69.935
1.51 164.430 70.580
1.52 165.623 70.931
1.53 166.082 71.181
1.54 165.954 71.378
1.55 165.506 71.577
1.56 164.008 71.841
1.57 160.888 71.963
1.58 155.780 71.392
1.59 295.680 69.558
1.60 280.169 66.376
1.61 270.781 62.481
1.62 269.508 60.249
1.63 245.579 60.942
1.64 225.442 63.047
1.65 222.505 65.014
1.66 218.812 66.012
1.67 215.090 65.947
1.68 213.489 65.345
1.69 215.609 64.933
1.70 217.263 64.698
1.71 221.214 64.630
1.72 223.437 64.642
1.73 221.531 64.011
1.74 214.897 62.381
1.75 222.023 62.547
1.76 227.810 65.405
1.77 226.515 67.152
1.78 220.389 67.742
1.79 216.481 67.947
1.80 214.738 67.692
1.81 213.589 67.146
1.82 213.713 66.727
1.83 215.169 66.067
1.84 214.653 64.414
1.85 213.323 61.340
1.86 214.364 57.286
1.87 214.189 55.227
1.88 --undefined-- 55.102
1.89 --undefined-- 53.203
1.90 --undefined-- 49.898
1.91 --undefined-- 49.379
1.92 --undefined-- 51.236
1.93 --undefined-- 50.918
1.94 --undefined-- 49.039
1.95 --undefined-- 48.073
1.96 --undefined-- 47.395
1.97 --undefined-- 46.302
1.98 --undefined-- 46.720
1.99 --undefined-- 49.762
2.00 --undefined-- 52.519
2.01 --undefined-- 55.558
2.02 --undefined-- 58.201
2.03 --undefined-- 62.361
2.04 177.144 66.588
2.05 171.890 68.641
2.06 158.351 68.866
2.07 153.138 68.403
2.08 151.037 67.669
2.09 149.565 66.653
2.10 148.098 65.718
2.11 148.153 65.020
2.12 150.542 64.850
2.13 153.166 65.563
2.14 154.624 66.576
2.15 156.283 67.140
2.16 158.668 67.270
2.17 162.201 67.182
2.18 166.371 66.771
2.19 175.356 66.210
2.20 187.833 66.000
2.21 200.857 65.603
2.22 214.660 64.418
2.23 228.078 63.336
2.24 242.007 63.303
2.25 256.429 63.826
2.26 270.979 64.578
2.27 282.293 65.418
2.28 294.436 66.115
2.29 299.264 66.096
2.30 296.406 65.236
2.31 287.900 64.019
2.32 279.849 62.577
2.33 275.414 60.944
2.34 260.444 59.573
2.35 255.866 59.187
2.36 273.562 60.151
2.37 261.952 61.625
2.38 263.938 63.014
2.39 290.528 64.108
2.40 268.664 65.249
2.41 247.969 67.486
2.42 238.849 70.051
2.43 233.446 71.376
2.44 --undefined-- 70.960
2.45 --undefined-- 69.025
2.46 --undefined-- 66.358
2.47 --undefined-- 63.754
2.48 --undefined-- 61.545
2.49 --undefined-- 60.296
2.50 --undefined-- 58.034
2.51 --undefined-- 52.966
2.52 --undefined-- 51.333
2.53 --undefined-- 57.390
2.54 --undefined-- 61.458
2.55 --undefined-- 63.338
2.56 236.627 64.471
2.57 241.379 65.792
2.58 247.892 67.171
2.59 249.312 67.815
2.60 247.829 67.551
2.61 244.326 67.357
2.62 239.914 67.983
2.63 235.166 68.570
2.64 227.788 68.442
2.65 218.747 67.936
2.66 211.103 67.183
2.67 198.397 66.147
2.68 186.033 64.962
2.69 181.264 62.615
2.70 179.947 58.017
2.71 --undefined-- 52.524
2.72 --undefined-- 50.178
2.73 --undefined-- 49.500
2.74 --undefined-- 49.735
2.75 --undefined-- 49.488
2.76 --undefined-- 48.632
2.77 --undefined-- 47.281
2.78 --undefined-- 45.616
2.79 --undefined-- 45.881
2.80 --undefined-- 47.147
2.81 --undefined-- 48.820
2.82 --undefined-- 50.912
2.83 --undefined-- 52.947
2.84 --undefined-- 54.050
2.85 --undefined-- 53.843
2.86 --undefined-- 54.104
2.87 222.286 57.042
2.88 206.566 60.565
2.89 185.606 63.686
2.90 184.382 65.840
2.91 181.001 66.699
2.92 175.209 66.601
2.93 173.742 66.162
2.94 173.485 65.649
2.95 174.076 65.020
2.96 176.158 64.184
2.97 177.381 62.679
2.98 176.990 59.910
2.99 175.641 56.302
3.00 --undefined-- 53.217
3.01 --undefined-- 50.882
3.02 --undefined-- 48.769
3.03 --undefined-- 46.320
3.04 --undefined-- 49.421
3.05 --undefined-- 54.540
3.06 --undefined-- 57.603
3.07 --undefined-- 60.418
3.08 --undefined-- 63.564
3.09 203.216 65.523
3.10 198.162 66.380
3.11 192.081 66.226
3.12 187.558 64.230
3.13 --undefined-- 59.858
3.14 --undefined-- 55.537
3.15 --undefined-- 54.160
3.16 --undefined-- 52.595
3.17 --undefined-- 51.674
3.18 --undefined-- 52.859
3.19 --undefined-- 55.157
3.20 --undefined-- 56.786
3.21 --undefined-- 55.582
3.22 --undefined-- 52.197
3.23 --undefined-- 51.028
3.24 --undefined-- 51.550
3.25 --undefined-- 52.313
3.26 --undefined-- 53.130
3.27 --undefined-- 53.609
3.28 --undefined-- 53.556
3.29 --undefined-- 54.074
3.30 --undefined-- 54.624
3.31 --undefined-- 54.575
3.32 --undefined-- 54.443
3.33 --undefined-- 54.196
3.34 --undefined-- 54.869
3.35 --undefined-- 57.190
3.36 --undefined-- 59.051
3.37 --undefined-- 60.341
3.38 193.544 63.625
3.39 193.581 67.523
3.40 191.636 70.171
3.41 190.805 71.405
3.42 189.977 71.712
3.43 189.368 71.699
3.44 189.019 71.292
3.45 187.591 70.252
3.46 184.702 68.977
3.47 181.772 67.701
3.48 179.073 66.422
3.49 177.990 65.395
3.50 178.609 65.010
3.51 180.631 65.426
3.52 184.053 66.189
3.53 187.195 66.986
3.54 188.867 67.791
3.55 188.841 68.308
3.56 188.834 68.188
3.57 190.322 67.562
3.58 190.405 66.242
3.59 189.063 63.483
3.60 189.014 59.318
3.61 189.630 55.437
3.62 189.873 54.259
3.63 --undefined-- 54.538
3.64 --undefined-- 52.958
3.65 --undefined-- 49.478
3.66 --undefined-- 54.594
3.67 --undefined-- 62.148
3.68 215.679 66.693
3.69 214.016 68.597
3.70 212.554 68.814
3.71 213.126 68.394
3.72 212.257 67.874
3.73 209.314 67.488
3.74 205.447 67.448
3.75 195.878 67.234
3.76 191.742 65.896
3.77 190.105 62.953
3.78 189.654 58.731
3.79 --undefined-- 57.779
3.80 --undefined-- 61.611
3.81 189.650 64.865
3.82 202.461 66.528
3.83 211.072 67.757
3.84 202.607 69.323
3.85 203.328 70.695
3.86 202.890 71.844
3.87 200.576 72.337
3.88 196.839 72.161
3.89 192.115 72.019
3.90 187.609 72.055
3.91 179.579 72.057
3.92 --undefined-- 71.696
3.93 --undefined-- 70.465
3.94 --undefined-- 68.416
3.95 --undefined-- 65.674
3.96 --undefined-- 62.392
3.97 --undefined-- 58.787
3.98 --undefined-- 54.857
3.99 --undefined-- 52.732
4.00 --undefined-- 54.034
4.01 --undefined-- 54.988
4.02 --undefined-- 53.825
4.03 --undefined-- 52.573
4.04 --undefined-- 55.066
4.05 --undefined-- 56.416
4.06 --undefined-- 55.639
4.07 --undefined-- 53.822
4.08 --undefined-- 52.360
4.09 --undefined-- 51.250
4.10 --undefined-- 51.456
4.11 --undefined-- 53.347
4.12 --undefined-- 53.158
4.13 --undefined-- 50.835
4.14 --undefined-- 49.168
4.15 --undefined-- 48.747
4.16 --undefined-- 49.529
4.17 --undefined-- 52.347
4.18 283.441 54.405
4.19 277.672 54.276
4.20 --undefined-- 53.654
4.21 --undefined-- 53.173
4.22 --undefined-- 51.559
4.23 --undefined-- 49.556
4.24 --undefined-- 48.310
4.25 --undefined-- 47.310
4.26 --undefined-- 47.514
4.27 --undefined-- 48.344
4.28 --undefined-- 49.789
4.29 --undefined-- 51.500
4.30 --undefined-- 51.967
4.31 --undefined-- 54.105
4.32 --undefined-- 57.170
4.33 --undefined-- 59.223
4.34 --undefined-- 64.533
4.35 172.513 69.231
4.36 174.768 71.208
4.37 175.854 71.500
4.38 177.213 71.460
4.39 179.105 71.922
4.40 180.501 72.736
4.41 181.030 73.419
4.42 181.361 73.758
4.43 181.892 73.831
4.44 182.523 73.889
4.45 183.483 74.076
4.46 184.279 74.290
4.47 184.166 74.362
4.48 182.475 73.962
4.49 179.011 72.431
4.50 172.874 69.031
4.51 154.972 63.547
4.52 174.737 57.366
4.53 175.795 54.563
4.54 175.353 53.761
4.55 --undefined-- 51.613
4.56 --undefined-- 51.782
4.57 --undefined-- 59.005
4.58 179.319 65.428
4.59 183.030 69.334
4.60 188.659 71.592
4.61 194.240 72.497
4.62 200.250 72.003
4.63 205.469 70.513
4.64 206.584 69.528
4.65 204.243 69.853
4.66 202.829 70.205
4.67 202.105 69.781
4.68 202.399 68.674
4.69 200.636 68.021
4.70 192.935 68.980
4.71 181.743 70.315
4.72 --undefined-- 70.508
4.73 287.413 69.637
4.74 265.230 68.518
4.75 254.916 67.118
4.76 249.381 64.792
4.77 242.689 61.160
4.78 --undefined-- 56.490
4.79 --undefined-- 52.108
4.80 --undefined-- 47.904
4.81 --undefined-- 46.686
4.82 --undefined-- 51.152
4.83 --undefined-- 57.540
4.84 --undefined-- 63.488
4.85 252.651 67.068
4.86 258.203 68.332
4.87 265.652 68.256
4.88 279.660 67.885
4.89 295.609 67.504
4.90 151.647 66.099
4.91 149.683 62.370
4.92 --undefined-- 55.701
4.93 --undefined-- 48.803
4.94 --undefined-- 48.719
4.95 --undefined-- 50.088
4.96 --undefined-- 53.821
4.97 290.123 58.563
4.98 290.002 60.869
4.99 264.423 60.591
5.00 264.964 61.793
5.01 232.346 64.370
5.02 221.330 --undefined--
5.03 215.583 --undefined--
5.04 --undefined-- --undefined--
5.05 --undefined-- --undefined--
