Time Pitch Intensity
0.01 --undefined-- --undefined--
0.02 114.001 --undefined--
0.03 111.977 --undefined--
0.04 110.554 --undefined--
0.05 110.617 71.811
0.06 113.172 72.231
0.07 116.548 72.717
0.08 118.876 73.023
0.09 128.575 73.025
0.10 133.912 72.962
0.11 140.487 72.886
0.12 143.336 72.475
0.13 144.283 70.837
0.14 143.311 67.215
0.15 138.855 61.539
0.16 --undefined-- 54.504
0.17 --undefined-- 47.705
0.18 --undefined-- 46.426
0.19 --undefined-- 49.497
0.20 --undefined-- 53.414
0.21 --undefined-- 61.555
0.22 --undefined-- 68.400
0.23 170.792 72.428
0.24 160.337 74.620
0.25 155.593 75.647
0.26 153.789 75.799
0.27 154.319 75.479
0.28 155.239 74.974
0.29 154.875 74.399
0.30 153.469 73.930
0.31 154.502 73.850
0.32 158.141 74.067
0.33 159.544 74.231
0.34 159.472 74.183
0.35 158.961 73.938
0.36 158.340 73.555
0.37 157.882 73.067
0.38 156.514 72.440
0.39 152.888 71.515
0.40 148.185 69.994
0.41 140.696 67.438
0.42 --undefined-- 63.540
0.43 --undefined-- 58.794
0.44 --undefined-- 54.916
0.45 --undefined-- 52.029
0.46 --undefined-- 49.242
0.47 --undefined-- 44.936
0.48 --undefined-- 39.538
0.49 --undefined-- 37.803
0.50 --undefined-- 37.965
0.51 --undefined-- 38.577
0.52 --undefined-- 38.460
0.53 --undefined-- 37.989
0.54 --undefined-- 38.486
0.55 --undefined-- 39.159
0.56 --undefined-- 43.306
0.57 --undefined-- 51.102
0.58 --undefined-- 58.290
0.59 --undefined-- 64.533
0.60 127.204 68.761
0.61 125.947 70.842
0.62 123.103 71.392
0.63 122.203 71.573
0.64 124.210 71.840
0.65 122.386 71.757
0.66 122.070 71.527
0.67 121.713 71.438
0.68 123.280 71.781
0.69 119.502 72.758
0.70 118.593 73.764
0.71 116.393 74.121
0.72 115.432 73.696
0.73 115.463 72.611
0.74 114.271 71.285
0.75 111.147 70.200
0.76 111.166 69.342
0.77 115.608 68.291
0.78 116.859 66.680
0.79 115.334 64.784
0.80 113.295 63.524
0.81 111.222 63.539
0.82 110.823 65.042
0.83 113.433 67.486
0.84 115.364 69.841
0.85 116.698 71.640
0.86 117.911 72.873
0.87 118.147 73.658
0.88 117.777 74.113
0.89 116.806 74.247
0.90 116.188 73.971
0.91 116.175 73.293
0.92 115.373 72.549
0.93 113.699 72.385
0.94 119.060 72.671
0.95 120.456 72.632
0.96 120.840 72.131
0.97 120.830 71.215
0.98 122.378 69.693
0.99 124.466 67.180
1.00 123.263 63.661
1.01 110.346 60.948
1.02 79.034 61.041
1.03 --undefined-- 63.927
1.04 133.181 67.267
1.05 134.190 70.267
1.06 130.944 72.601
1.07 130.744 74.052
1.08 129.053 74.828
1.09 127.610 75.159
1.10 126.214 75.239
1.11 126.263 75.317
1.12 126.744 75.436
1.13 127.091 75.345
1.14 127.899 74.976
1.15 129.276 74.383
1.16 129.383 73.538
1.17 127.279 72.980
1.18 130.623 72.881
1.19 130.105 72.588
1.20 129.337 72.117
1.21 131.205 71.894
1.22 125.947 71.854
1.23 121.480 71.185
1.24 114.161 68.820
1.25 97.071 64.317
1.26 88.911 58.527
1.27 86.709 54.855
1.28 --undefined-- 55.159
1.29 118.447 59.228
1.30 119.473 63.963
1.31 120.668 67.617
1.32 119.122 70.101
1.33 117.561 71.619
1.34 117.667 72.349
1.35 116.704 72.357
1.36 117.330 72.112
1.37 119.156 72.191
1.38 120.789 72.398
1.39 126.015 72.413
1.40 132.169 72.492
1.41 142.643 72.919
1.42 151.150 73.206
1.43 160.384 72.919
1.44 165.092 72.415
1.45 165.934 71.392
1.46 164.924 69.226
1.47 160.106 66.234
1.48 151.827 64.383
1.49 145.418 65.367
1.50 143.438 68.601
1.51 145.378 71.770
1.52 143.648 73.194
1.53 138.038 72.743
1.54 131.905 71.551
1.55 123.745 70.205
1.56 --undefined-- 67.702
1.57 --undefined-- 63.549
1.58 --undefined-- 58.536
1.59 --undefined-- 52.921
1.60 --undefined-- 46.468
1.61 --undefined-- 42.646
1.62 --undefined-- 40.830
1.63 --undefined-- 39.636
1.64 --undefined-- 39.726
1.65 --undefined-- 41.139
1.66 --undefined-- 48.236
1.67 --undefined-- 54.472
1.68 --undefined-- 58.117
1.69 --undefined-- 60.521
1.70 --undefined-- 61.510
1.71 --undefined-- 60.403
1.72 --undefined-- 57.649
1.73 --undefined-- 54.824
1.74 --undefined-- 59.663
1.75 195.104 66.371
1.76 175.125 69.751
1.77 165.129 70.575
1.78 160.424 70.259
1.79 156.885 70.161
1.80 154.631 70.567
1.81 153.982 71.190
1.82 155.496 71.779
1.83 156.716 72.026
1.84 155.279 71.537
1.85 150.981 69.973
1.86 145.138 67.070
1.87 138.815 62.872
1.88 --undefined-- 57.839
1.89 --undefined-- 52.394
1.90 --undefined-- 47.681
1.91 --undefined-- 45.808
1.92 --undefined-- 47.534
1.93 --undefined-- 53.922
1.94 --undefined-- 62.737
1.95 --undefined-- 68.526
1.96 --undefined-- 71.043
1.97 --undefined-- 71.365
1.98 --undefined-- 70.622
1.99 101.901 69.393
2.00 99.310 68.078
2.01 97.443 66.681
2.02 94.063 65.646
2.03 93.089 65.412
2.04 93.297 65.205
2.05 93.462 64.773
2.06 94.401 64.669
2.07 96.413 64.928
2.08 98.641 65.206
2.09 100.985 65.283
2.10 101.887 65.126
2.11 101.192 64.932
2.12 103.913 64.792
2.13 --undefined-- 63.816
2.14 --undefined-- 61.727
2.15 --undefined-- 59.231
2.16 --undefined-- 54.844
2.17 --undefined-- 47.802
2.18 --undefined-- 44.230
2.19 --undefined-- 44.867
2.20 --undefined-- 44.882
2.21 --undefined-- 43.520
2.22 --undefined-- 41.069
2.23 --undefined-- 39.266
2.24 --undefined-- 38.642
2.25 --undefined-- 38.757
2.26 --undefined-- 38.612
2.27 --undefined-- 38.322
2.28 --undefined-- 38.722
2.29 --undefined-- 38.431
2.30 --undefined-- 37.904
2.31 --undefined-- 38.572
2.32 --undefined-- 39.075
2.33 --undefined-- 39.945
2.34 --undefined-- 40.185
2.35 --undefined-- 39.598
2.36 --undefined-- 39.931
2.37 --undefined-- 41.603
2.38 --undefined-- 41.801
2.39 --undefined-- 39.853
2.40 --undefined-- 38.018
2.41 --undefined-- 37.938
2.42 --undefined-- 38.402
2.43 --undefined-- 39.206
2.44 --undefined-- 40.550
2.45 --undefined-- 41.129
2.46 --undefined-- 40.970
2.47 --undefined-- 41.513
2.48 --undefined-- 42.551
2.49 --undefined-- 42.759
2.50 --undefined-- 41.918
2.51 --undefined-- 40.961
2.52 --undefined-- 40.298
2.53 --undefined-- 39.325
2.54 --undefined-- 38.161
2.55 --undefined-- 37.748
2.56 --undefined-- 38.330
2.57 --undefined-- 38.263
2.58 --undefined-- 37.238
2.59 --undefined-- 36.128
2.60 --undefined-- 37.447
2.61 --undefined-- 41.541
2.62 --undefined-- 46.289
2.63 --undefined-- 50.767
2.64 --undefined-- 55.293
2.65 --undefined-- 63.868
2.66 --undefined-- 71.508
2.67 202.972 75.992
2.68 202.950 77.733
2.69 209.879 77.662
2.70 218.163 77.146
2.71 214.974 76.096
2.72 226.130 74.262
2.73 213.747 73.004
2.74 208.378 72.380
2.75 204.087 71.902
2.76 199.763 71.839
2.77 197.113 72.617
2.78 192.887 74.140
2.79 188.538 75.144
2.80 184.770 74.153
2.81 170.049 71.027
2.82 160.909 68.032
2.83 160.500 67.944
2.84 166.769 71.330
2.85 158.405 75.007
2.86 158.887 77.283
2.87 152.443 78.187
2.88 146.106 77.699
2.89 143.792 76.024
2.90 138.681 73.959
2.91 136.307 72.374
2.92 131.744 72.278
2.93 133.368 73.313
2.94 135.927 73.979
2.95 135.923 73.956
2.96 135.644 73.535
2.97 135.382 72.736
2.98 133.418 71.052
2.99 129.690 67.772
3.00 115.738 62.365
3.01 --undefined-- 55.145
3.02 --undefined-- 49.448
3.03 --undefined-- 58.071
3.04 --undefined-- 67.703
3.05 --undefined-- 73.724
3.06 151.067 77.062
3.07 143.552 78.557
3.08 139.739 78.784
3.09 137.314 78.480
3.10 136.285 78.278
3.11 136.758 78.113
3.12 136.761 77.650
3.13 136.371 76.762
3.14 135.992 75.730
3.15 135.511 74.986
3.16 135.321 74.731
3.17 136.138 74.797
3.18 137.737 74.741
3.19 138.269 74.337
3.20 138.187 73.726
3.21 138.815 72.854
3.22 139.203 71.389
3.23 137.709 68.947
3.24 --undefined-- 65.523
3.25 --undefined-- 61.678
3.26 --undefined-- 57.245
3.27 --undefined-- 53.443
3.28 --undefined-- 52.474
3.29 --undefined-- 51.706
3.30 --undefined-- 53.519
3.31 191.537 56.476
3.32 182.628 57.063
3.33 172.118 54.838
3.34 --undefined-- 49.966
3.35 --undefined-- 44.734
3.36 --undefined-- 43.384
3.37 --undefined-- 44.497
3.38 --undefined-- 48.241
3.39 --undefined-- 58.735
3.40 201.430 67.022
3.41 191.958 71.747
3.42 180.651 74.112
3.43 177.148 75.537
3.44 175.766 76.921
3.45 175.766 77.967
3.46 178.089 78.160
3.47 179.423 77.556
3.48 179.115 76.664
3.49 177.505 75.974
3.50 174.735 75.282
3.51 170.078 74.576
3.52 164.342 74.088
3.53 156.619 73.712
3.54 149.406 73.450
3.55 140.766 73.175
3.56 131.470 72.584
3.57 118.870 71.720
3.58 110.859 71.009
3.59 105.042 70.402
3.60 99.717 69.688
3.61 99.008 69.017
3.62 97.200 68.282
3.63 96.291 67.430
3.64 94.595 66.718
3.65 95.622 65.766
3.66 95.508 63.452
3.67 89.377 58.878
3.68 --undefined-- 52.217
3.69 --undefined-- 45.310
3.70 --undefined-- 41.850
3.71 --undefined-- 45.122
3.72 --undefined-- 48.997
3.73 --undefined-- 55.260
3.74 165.473 63.533
3.75 161.897 69.202
3.76 153.084 72.272
3.77 149.160 73.687
3.78 147.981 74.232
3.79 147.579 74.406
3.80 147.977 74.607
3.81 148.727 74.841
3.82 148.977 74.736
3.83 147.623 73.613
3.84 143.346 70.547
3.85 128.685 64.857
3.86 --undefined-- 57.035
3.87 --undefined-- 50.287
3.88 --undefined-- 47.281
3.89 --undefined-- 52.515
3.90 --undefined-- 62.730
3.91 --undefined-- 69.787
3.92 --undefined-- 73.363
3.93 --undefined-- 74.158
3.94 --undefined-- 73.011
3.95 --undefined-- 70.809
3.96 101.943 68.269
3.97 96.715 65.837
3.98 97.022 63.827
3.99 96.851 61.676
4.00 106.711 57.941
4.01 --undefined-- 51.698
4.02 --undefined-- 43.651
4.03 --undefined-- 41.516
4.04 --undefined-- 43.243
4.05 --undefined-- 43.771
4.06 --undefined-- 42.653
4.07 --undefined-- 42.165
4.08 --undefined-- 47.042
4.09 --undefined-- 58.685
4.10 --undefined-- 66.993
4.11 161.107 71.603
4.12 157.971 73.757
4.13 155.303 74.639
4.14 156.300 75.127
4.15 157.647 75.185
4.16 158.821 74.320
4.17 164.537 72.508
4.18 163.128 70.632
4.19 154.583 69.153
4.20 149.177 67.067
4.21 143.481 63.442
4.22 141.819 58.059
4.23 --undefined-- 51.794
4.24 --undefined-- 45.979
4.25 --undefined-- 42.389
4.26 --undefined-- 39.911
4.27 --undefined-- 38.120
4.28 --undefined-- 39.432
4.29 --undefined-- 40.819
4.30 --undefined-- 40.370
4.31 --undefined-- 38.821
4.32 --undefined-- 37.689
4.33 --undefined-- 38.154
4.34 --undefined-- 38.198
4.35 --undefined-- 38.755
4.36 --undefined-- 40.241
4.37 --undefined-- 40.747
4.38 --undefined-- 40.669
4.39 --undefined-- 40.276
4.40 --undefined-- 39.631
4.41 --undefined-- 37.790
4.42 --undefined-- 35.778
4.43 --undefined-- 35.899
4.44 --undefined-- 38.046
4.45 --undefined-- 39.877
4.46 --undefined-- 39.455
4.47 --undefined-- 38.253
4.48 --undefined-- 38.287
4.49 --undefined-- 37.383
4.50 --undefined-- 34.788
4.51 --undefined-- 34.667
4.52 --undefined-- 36.731
4.53 --undefined-- 36.912
4.54 --undefined-- 35.464
4.55 --undefined-- 35.793
4.56 --undefined-- 38.901
4.57 --undefined-- 40.691
4.58 --undefined-- 40.668
4.59 --undefined-- 39.359
4.60 --undefined-- 37.594
4.61 --undefined-- 38.548
4.62 --undefined-- 40.538
4.63 --undefined-- 40.700
4.64 --undefined-- 39.063
4.65 --undefined-- 38.795
4.66 --undefined-- 41.626
4.67 --undefined-- 46.482
4.68 --undefined-- 53.698
4.69 --undefined-- 62.470
4.70 144.763 68.416
4.71 126.857 71.235
4.72 121.871 71.853
4.73 115.733 71.500
4.74 112.098 71.076
4.75 111.389 70.729
4.76 112.024 70.306
4.77 111.313 69.820
4.78 110.535 69.437
4.79 110.462 69.335
4.80 111.757 69.580
4.81 114.029 70.173
4.82 114.650 71.060
4.83 114.756 72.050
4.84 115.382 72.778
4.85 116.579 73.017
4.86 118.334 73.035
4.87 121.799 73.401
4.88 123.493 73.780
4.89 121.634 73.054
4.90 120.284 70.433
4.91 116.604 65.611
4.92 --undefined-- 58.886
4.93 --undefined-- 51.991
4.94 --undefined-- 49.387
4.95 --undefined-- 49.323
4.96 --undefined-- 50.251
4.97 --undefined-- 55.337
4.98 --undefined-- 63.821
4.99 151.897 69.596
5.00 131.472 72.429
5.01 124.452 73.302
5.02 124.110 73.317
5.03 124.188 72.656
5.04 --undefined-- 71.030
5.05 --undefined-- 68.854
5.06 --undefined-- 65.579
5.07 --undefined-- 61.317
5.08 120.249 59.362
5.09 125.777 59.893
5.10 127.310 61.283
5.11 122.193 62.970
5.12 117.322 63.414
5.13 102.715 61.762
5.14 94.335 58.103
5.15 85.437 54.305
5.16 86.724 56.412
5.17 105.552 62.217
5.18 128.966 66.650
5.19 122.005 69.344
5.20 121.434 71.096
5.21 120.124 72.207
5.22 118.832 72.810
5.23 117.565 73.058
5.24 116.091 73.023
5.25 115.706 72.810
5.26 115.202 72.315
5.27 113.573 71.432
5.28 112.394 70.401
5.29 110.784 69.533
5.30 109.697 69.055
5.31 107.729 68.842
5.32 106.757 68.697
5.33 107.507 68.608
5.34 108.331 68.337
5.35 110.480 67.576
5.36 113.192 66.399
5.37 112.316 64.723
5.38 116.075 62.534
5.39 119.165 59.210
5.40 --undefined-- 54.246
5.41 --undefined-- 47.291
5.42 --undefined-- 40.733
5.43 --undefined-- 39.314
5.44 --undefined-- 39.796
5.45 --undefined-- 45.142
5.46 --undefined-- 51.824
5.47 118.036 56.699
5.48 119.306 60.339
5.49 115.968 63.285
5.50 112.263 65.493
5.51 107.857 66.871
5.52 105.423 67.613
5.53 106.417 68.139
5.54 107.253 68.598
5.55 107.021 69.202
5.56 109.719 70.029
5.57 110.743 70.510
5.58 111.065 70.599
5.59 112.134 71.029
5.60 115.377 72.215
5.61 118.539 73.387
5.62 119.993 73.905
5.63 121.441 73.658
5.64 122.500 72.782
5.65 121.573 71.185
5.66 117.662 68.099
5.67 118.543 62.946
5.68 --undefined-- 55.696
5.69 --undefined-- 50.830
5.70 --undefined-- 59.273
5.71 188.436 68.119
5.72 166.014 73.214
5.73 161.437 75.286
5.74 154.204 75.195
5.75 146.217 74.237
5.76 145.820 74.139
5.77 146.694 74.794
5.78 146.046 75.245
5.79 144.874 75.472
5.80 143.888 75.592
5.81 143.499 75.617
5.82 143.140 75.567
5.83 142.971 75.445
5.84 142.619 75.110
5.85 141.903 74.254
5.86 140.495 72.417
5.87 139.483 68.871
5.88 144.317 63.028
5.89 --undefined-- 54.740
5.90 --undefined-- 46.845
5.91 --undefined-- 43.577
5.92 --undefined-- 54.038
5.93 --undefined-- 64.192
5.94 --undefined-- 69.923
5.95 --undefined-- 72.107
5.96 116.816 71.683
5.97 110.978 70.280
5.98 109.012 69.690
5.99 108.462 69.640
6.00 108.052 69.600
6.01 108.055 69.602
6.02 106.524 --undefined--
6.03 105.268 --undefined--
6.04 --undefined-- --undefined--
6.05 --undefined-- --undefined--
