Time Pitch Intensity
0.01 --undefined-- --undefined--
0.02 159.042 --undefined--
0.03 158.018 --undefined--
0.04 158.740 --undefined--
0.05 157.357 56.101
0.06 155.937 53.842
0.07 --undefined-- 50.310
0.08 --undefined-- 50.322
0.09 --undefined-- 59.417
0.10 --undefined-- 66.422
0.11 --undefined-- 70.024
0.12 --undefined-- 71.142
0.13 --undefined-- 70.740
0.14 124.243 69.470
0.15 122.889 68.418
0.16 122.921 67.734
0.17 123.283 65.824
0.18 119.128 61.981
0.19 127.384 58.885
0.20 129.342 59.383
0.21 129.425 60.033
0.22 129.600 60.061
0.23 129.132 59.578
0.24 129.187 58.854
0.25 129.982 58.363
0.26 131.859 57.976
0.27 132.418 57.555
0.28 132.106 57.426
0.29 131.460 57.790
0.30 131.070 60.254
0.31 139.764 65.018
0.32 131.324 68.535
0.33 130.114 69.713
0.34 130.312 69.010
0.35 131.065 67.206
0.36 132.538 65.362
0.37 135.025 64.599
0.38 137.100 64.741
0.39 138.061 64.550
0.40 137.762 63.648
0.41 139.360 63.143
0.42 141.692 63.752
0.43 144.193 64.786
0.44 152.954 67.170
0.45 154.243 69.811
0.46 154.638 71.050
0.47 155.440 70.781
0.48 155.368 69.113
0.49 153.909 66.004
0.50 152.323 61.287
0.51 --undefined-- 55.678
0.52 --undefined-- 56.676
0.53 --undefined-- 62.734
0.54 154.236 66.916
0.55 146.436 69.327
0.56 142.255 70.557
0.57 139.435 70.513
0.58 138.563 69.466
0.59 138.481 68.264
0.60 138.819 67.158
0.61 139.288 65.727
0.62 139.172 63.708
0.63 139.741 60.717
0.64 140.234 56.545
0.65 --undefined-- 51.457
0.66 --undefined-- 46.504
0.67 --undefined-- 43.275
0.68 --undefined-- 42.967
0.69 --undefined-- 44.884
0.70 --undefined-- 47.954
0.71 --undefined-- 50.746
0.72 --undefined-- 52.610
0.73 --undefined-- 53.302
0.74 --undefined-- 53.291
0.75 --undefined-- 52.895
0.76 --undefined-- 52.573
0.77 --undefined-- 53.448
0.78 --undefined-- 54.387
0.79 --undefined-- 55.586
0.80 --undefined-- 57.696
0.81 --undefined-- 58.536
0.82 --undefined-- 57.330
0.83 --undefined-- 55.055
0.84 --undefined-- 54.121
0.85 --undefined-- 55.362
0.86 --undefined-- 56.223
0.87 --undefined-- 55.431
0.88 --undefined-- 53.225
0.89 --undefined-- 51.286
0.90 --undefined-- 50.356
0.91 --undefined-- 48.551
0.92 --undefined-- 45.223
0.93 --undefined-- 42.266
0.94 --undefined-- 40.768
0.95 --undefined-- 42.164
0.96 --undefined-- 47.271
0.97 --undefined-- 51.869
0.98 --undefined-- 54.472
0.99 --undefined-- 55.811
1.00 --undefined-- 56.745
1.01 --undefined-- 57.633
1.02 --undefined-- 61.284
1.03 --undefined-- 67.947
1.04 --undefined-- 72.511
1.05 --undefined-- 74.591
1.06 --undefined-- 74.781
1.07 --undefined-- 73.692
1.08 --undefined-- 71.785
1.09 120.824 69.064
1.10 119.940 65.220
1.11 119.140 60.257
1.12 118.499 55.667
1.13 115.859 52.978
1.14 --undefined-- 51.594
1.15 --undefined-- 50.604
1.16 --undefined-- 48.872
1.17 --undefined-- 47.532
1.18 --undefined-- 46.706
1.19 --undefined-- 46.181
1.20 --undefined-- 46.801
1.21 --undefined-- 51.558
1.22 --undefined-- 58.813
1.23 --undefined-- 64.030
1.24 144.536 66.431
1.25 139.996 67.096
1.26 139.340 67.577
1.27 138.370 67.661
1.28 137.653 66.658
1.29 137.416 64.672
1.30 138.244 62.739
1.31 138.520 61.832
1.32 137.675 60.991
1.33 135.948 58.689
1.34 --undefined-- 53.917
1.35 --undefined-- 47.325
1.36 --undefined-- 45.274
1.37 --undefined-- 49.994
1.38 --undefined-- 55.191
1.39 --undefined-- 57.990
1.40 --undefined-- 58.691
1.41 --undefined-- 60.127
1.42 --undefined-- 63.156
1.43 --undefined-- 65.082
1.44 --undefined-- 65.370
1.45 --undefined-- 64.008
1.46 --undefined-- 62.144
1.47 --undefined-- 63.637
1.48 155.633 66.585
1.49 152.506 68.157
1.50 150.528 68.475
1.51 150.791 67.950
1.52 152.007 66.678
1.53 154.453 64.941
1.54 159.282 62.999
1.55 166.858 61.237
1.56 186.539 60.488
1.57 195.160 61.335
1.58 197.369 63.141
1.59 204.787 65.695
1.60 205.110 67.870
1.61 201.766 69.362
1.62 198.487 70.426
1.63 194.865 70.558
1.64 189.455 69.179
1.65 183.549 65.743
1.66 --undefined-- 59.953
1.67 --undefined-- 54.711
1.68 --undefined-- 54.129
1.69 --undefined-- 54.440
1.70 --undefined-- 54.589
1.71 --undefined-- 54.521
1.72 --undefined-- 53.755
1.73 --undefined-- 58.150
1.74 218.515 65.814
1.75 210.848 69.944
1.76 205.308 70.537
1.77 203.314 68.603
1.78 203.182 66.334
1.79 201.333 65.405
1.80 198.159 64.625
1.81 195.325 62.966
1.82 195.654 59.696
1.83 200.165 55.794
1.84 206.495 54.491
1.85 207.723 53.617
1.86 188.231 52.560
1.87 186.916 52.989
1.88 190.523 54.597
1.89 189.471 57.098
1.90 190.549 60.459
1.91 186.197 63.204
1.92 178.158 64.767
1.93 170.162 65.391
1.94 163.825 65.455
1.95 160.627 65.233
1.96 156.811 64.743
1.97 153.764 64.057
1.98 151.298 63.090
1.99 148.643 61.772
2.00 146.934 60.260
2.01 147.219 58.974
2.02 148.928 58.579
2.03 149.551 58.396
2.04 150.122 57.404
2.05 149.121 55.162
2.06 145.624 51.761
2.07 --undefined-- 47.870
2.08 --undefined-- 45.137
2.09 --undefined-- 44.219
2.10 --undefined-- 46.414
2.11 --undefined-- 50.915
2.12 --undefined-- 56.014
2.13 193.652 60.819
2.14 183.847 63.875
2.15 181.478 65.520
2.16 179.559 66.770
2.17 179.841 68.382
2.18 181.160 70.243
2.19 181.348 71.291
2.20 177.759 70.796
2.21 172.523 69.265
2.22 170.118 68.016
2.23 168.637 67.235
2.24 167.409 66.229
2.25 166.803 64.747
2.26 167.916 63.064
2.27 168.311 61.495
2.28 169.184 59.614
2.29 169.907 56.857
2.30 169.255 53.003
2.31 --undefined-- 48.615
2.32 --undefined-- 44.570
2.33 --undefined-- 41.215
2.34 --undefined-- 40.170
2.35 --undefined-- 40.923
2.36 --undefined-- 41.800
2.37 --undefined-- 43.230
2.38 --undefined-- 45.311
2.39 --undefined-- 46.690
2.40 --undefined-- 47.701
2.41 --undefined-- 48.144
2.42 --undefined-- 47.920
2.43 --undefined-- 47.845
2.44 --undefined-- 47.825
2.45 --undefined-- 47.568
2.46 --undefined-- 47.494
2.47 --undefined-- 47.659
2.48 --undefined-- 48.003
2.49 --undefined-- 48.320
2.50 --undefined-- 48.040
2.51 --undefined-- 48.240
2.52 --undefined-- 48.874
2.53 --undefined-- 49.069
2.54 --undefined-- 49.156
2.55 --undefined-- 48.873
2.56 --undefined-- 48.424
2.57 --undefined-- 48.734
2.58 --undefined-- 48.845
2.59 --undefined-- 48.584
2.60 --undefined-- 48.748
2.61 --undefined-- 49.130
2.62 --undefined-- 49.271
2.63 --undefined-- 48.939
2.64 --undefined-- 48.836
2.65 --undefined-- 49.476
2.66 --undefined-- 50.068
2.67 --undefined-- 49.978
2.68 --undefined-- 48.878
2.69 --undefined-- 47.546
2.70 --undefined-- 46.758
2.71 --undefined-- 46.466
2.72 --undefined-- 46.738
2.73 --undefined-- 46.661
2.74 --undefined-- 45.466
2.75 --undefined-- 42.998
2.76 --undefined-- 40.366
2.77 --undefined-- 39.402
2.78 --undefined-- 38.535
2.79 --undefined-- 37.253
2.80 --undefined-- 37.061
2.81 --undefined-- 39.528
2.82 --undefined-- 48.169
2.83 --undefined-- 55.684
2.84 --undefined-- 59.957
2.85 --undefined-- 63.386
2.86 --undefined-- 68.735
2.87 --undefined-- 72.415
2.88 --undefined-- 73.057
2.89 234.564 70.733
2.90 238.743 65.856
2.91 251.456 63.415
2.92 255.477 64.919
2.93 258.884 65.860
2.94 260.191 66.438
2.95 266.587 67.140
2.96 278.544 67.842
2.97 291.398 68.393
2.98 298.853 68.774
2.99 152.348 69.046
3.00 153.783 69.183
3.01 154.006 69.199
3.02 152.985 69.394
3.03 150.362 69.796
3.04 293.515 70.362
3.05 282.547 70.733
3.06 269.594 70.161
3.07 256.949 67.867
3.08 247.128 63.442
3.09 261.560 57.938
3.10 --undefined-- 53.363
3.11 --undefined-- 51.528
3.12 --undefined-- 56.868
3.13 --undefined-- 64.306
3.14 --undefined-- 69.712
3.15 209.689 72.162
3.16 196.182 72.378
3.17 184.046 71.724
3.18 176.904 71.290
3.19 170.530 70.982
3.20 164.977 70.219
3.21 159.490 68.957
3.22 153.823 67.894
3.23 150.902 67.139
3.24 149.055 66.505
3.25 149.079 66.208
3.26 149.493 66.132
3.27 150.393 66.143
3.28 151.177 66.197
3.29 151.493 66.163
3.30 151.658 65.837
3.31 151.515 65.284
3.32 151.301 64.643
3.33 151.188 63.893
3.34 151.910 62.856
3.35 152.649 61.533
3.36 154.310 60.243
3.37 158.579 59.305
3.38 162.232 59.075
3.39 --undefined-- 59.176
3.40 --undefined-- 59.486
3.41 --undefined-- 60.138
3.42 194.505 58.935
3.43 --undefined-- 54.506
3.44 --undefined-- 48.039
3.45 --undefined-- 43.700
3.46 --undefined-- 41.250
3.47 --undefined-- 39.973
3.48 --undefined-- 39.849
3.49 --undefined-- 39.690
3.50 --undefined-- 40.204
3.51 --undefined-- 40.566
3.52 --undefined-- 39.507
3.53 --undefined-- 37.604
3.54 --undefined-- 37.377
3.55 --undefined-- 38.396
3.56 --undefined-- 38.723
3.57 --undefined-- 37.901
3.58 --undefined-- 36.570
3.59 --undefined-- 36.745
3.60 --undefined-- 37.912
3.61 --undefined-- 38.215
3.62 --undefined-- 38.148
3.63 --undefined-- 38.266
3.64 --undefined-- 39.320
3.65 --undefined-- 40.357
3.66 --undefined-- 40.101
3.67 --undefined-- 39.671
3.68 --undefined-- 39.790
3.69 --undefined-- 41.387
3.70 --undefined-- 44.572
3.71 --undefined-- 51.505
3.72 --undefined-- 59.029
3.73 --undefined-- 64.181
3.74 --undefined-- 69.105
3.75 241.624 73.156
3.76 231.653 74.494
3.77 218.931 73.041
3.78 215.464 69.729
3.79 249.196 68.141
3.80 259.668 69.340
3.81 268.353 69.864
3.82 281.787 69.383
3.83 298.433 68.449
3.84 --undefined-- 67.629
3.85 179.054 68.132
3.86 184.611 70.272
3.87 186.774 72.364
3.88 184.740 73.289
3.89 180.026 73.213
3.90 172.130 72.603
3.91 165.691 72.024
3.92 157.901 71.785
3.93 288.102 71.829
3.94 258.158 72.355
3.95 234.667 72.759
3.96 213.833 72.468
3.97 --undefined-- 72.201
3.98 --undefined-- 72.343
3.99 --undefined-- 71.623
4.00 132.909 69.583
4.01 129.982 66.973
4.02 124.935 63.521
4.03 122.672 58.794
4.04 124.664 54.371
4.05 --undefined-- 51.632
4.06 --undefined-- 51.476
4.07 --undefined-- 52.389
4.08 --undefined-- 54.983
4.09 --undefined-- 60.288
4.10 --undefined-- 64.387
4.11 --undefined-- 65.882
4.12 --undefined-- 65.607
4.13 139.227 67.235
4.14 138.919 69.791
4.15 138.826 71.091
4.16 138.029 71.292
4.17 136.697 70.824
4.18 138.323 70.369
4.19 142.467 70.191
4.20 148.054 69.881
4.21 155.980 69.353
4.22 164.966 69.081
4.23 173.971 69.056
4.24 182.231 68.655
4.25 190.810 67.974
4.26 197.425 67.645
4.27 204.510 68.121
4.28 212.308 69.178
4.29 218.430 70.206
4.30 223.213 70.802
4.31 226.807 70.771
4.32 227.830 69.983
4.33 225.026 68.276
4.34 219.028 65.105
4.35 211.451 59.437
4.36 --undefined-- 52.229
4.37 --undefined-- 52.763
4.38 --undefined-- 61.440
4.39 --undefined-- 68.208
4.40 --undefined-- 71.357
4.41 --undefined-- 72.087
4.42 --undefined-- 71.799
4.43 --undefined-- 71.127
4.44 --undefined-- 70.706
4.45 --undefined-- 70.384
4.46 --undefined-- 68.273
4.47 --undefined-- 63.190
4.48 --undefined-- 55.247
4.49 --undefined-- 48.676
4.50 --undefined-- 46.548
4.51 --undefined-- 45.665
4.52 --undefined-- 44.957
4.53 --undefined-- 43.838
4.54 --undefined-- 43.015
4.55 --undefined-- 42.789
4.56 --undefined-- 44.548
4.57 --undefined-- 56.399
4.58 --undefined-- 66.766
4.59 --undefined-- 72.362
4.60 279.735 73.992
4.61 275.900 72.012
4.62 268.569 66.956
4.63 --undefined-- 59.727
4.64 --undefined-- 51.268
4.65 --undefined-- 45.878
4.66 --undefined-- 44.534
4.67 --undefined-- 44.120
4.68 --undefined-- 43.859
4.69 --undefined-- 43.519
4.70 --undefined-- 43.326
4.71 --undefined-- 47.726
4.72 --undefined-- 54.664
4.73 --undefined-- 60.546
4.74 280.935 66.047
4.75 276.769 70.009
4.76 274.092 72.045
4.77 272.862 72.681
4.78 270.908 72.666
4.79 267.549 72.216
4.80 262.623 70.999
4.81 256.239 68.978
4.82 250.112 67.393
4.83 248.643 66.721
4.84 241.653 65.569
4.85 234.584 64.243
4.86 232.362 64.952
4.87 230.006 67.782
4.88 211.857 70.143
4.89 195.393 71.158
4.90 183.700 70.221
4.91 172.355 66.757
4.92 --undefined-- 60.905
4.93 --undefined-- 55.107
4.94 --undefined-- 53.487
4.95 --undefined-- 53.233
4.96 --undefined-- 54.778
4.97 --undefined-- 62.656
4.98 --undefined-- 68.858
4.99 --undefined-- 71.835
5.00 --undefined-- 72.061
5.01 --undefined-- 70.296
5.02 --undefined-- 68.014
5.03 77.983 65.376
5.04 77.185 62.608
5.05 76.336 62.112
5.06 76.270 61.302
5.07 --undefined-- 59.453
5.08 --undefined-- 57.445
5.09 --undefined-- 54.537
5.10 --undefined-- 49.905
5.11 --undefined-- 46.120
5.12 --undefined-- 44.492
5.13 --undefined-- 47.755
5.14 --undefined-- 54.294
5.15 --undefined-- 59.694
5.16 131.371 63.056
5.17 131.085 64.469
5.18 130.806 64.484
5.19 130.656 63.549
5.20 130.848 62.154
5.21 130.895 60.451
5.22 129.986 57.783
5.23 --undefined-- 53.641
5.24 --undefined-- 49.086
5.25 --undefined-- 48.701
5.26 --undefined-- 51.816
5.27 --undefined-- 53.848
5.28 --undefined-- 57.282
5.29 --undefined-- 62.697
5.30 144.016 66.541
5.31 141.430 68.411
5.32 139.527 68.784
5.33 138.561 68.755
5.34 138.586 68.805
5.35 138.436 68.587
5.36 139.185 68.049
5.37 140.431 67.145
5.38 141.562 --undefined--
5.39 143.735 --undefined--
5.40 --undefined-- --undefined--
5.41 --undefined-- --undefined--
