Time Pitch Intensity
0.01 --undefined-- --undefined--
0.02 180.328 --undefined--
0.03 176.903 --undefined--
0.04 173.507 --undefined--
0.05 171.378 73.010
0.06 169.448 73.060
0.07 168.919 73.128
0.08 168.582 73.148
0.09 167.815 72.934
0.10 168.440 72.333
0.11 168.538 71.724
0.12 167.401 71.649
0.13 166.770 71.983
0.14 166.068 72.401
0.15 166.355 72.842
0.16 166.679 73.170
0.17 167.758 73.255
0.18 169.393 73.130
0.19 170.136 72.830
0.20 170.311 72.544
0.21 170.353 72.500
0.22 170.022 72.598
0.23 169.600 72.723
0.24 168.215 72.952
0.25 166.960 73.197
0.26 164.250 73.111
0.27 162.901 72.111
0.28 171.630 69.705
0.29 175.669 65.658
0.30 175.746 59.716
0.31 168.824 52.781
0.32 --undefined-- 47.712
0.33 --undefined-- 48.850
0.34 --undefined-- 56.448
0.35 --undefined-- 62.817
0.36 --undefined-- 67.458
0.37 --undefined-- 70.442
0.38 165.629 71.724
0.39 167.094 71.704
0.40 164.638 71.138
0.41 158.068 70.668
0.42 154.668 70.469
0.43 152.284 70.578
0.44 152.400 71.203
0.45 154.288 72.012
0.46 156.717 72.615
0.47 158.992 72.893
0.48 159.727 72.883
0.49 160.282 72.757
0.50 159.549 72.428
0.51 158.239 71.730
0.52 157.099 70.825
0.53 155.766 69.949
0.54 155.012 69.669
0.55 157.353 70.383
0.56 160.867 71.684
0.57 162.580 72.844
0.58 163.609 73.519
0.59 163.534 73.711
0.60 163.454 73.530
0.61 164.109 73.179
0.62 165.425 72.855
0.63 167.540 72.460
0.64 167.470 71.202
0.65 165.940 68.036
0.66 166.743 62.538
0.67 169.135 55.804
0.68 166.577 51.797
0.69 160.561 50.997
0.70 --undefined-- 51.637
0.71 --undefined-- 54.301
0.72 --undefined-- 57.440
0.73 --undefined-- 58.822
0.74 --undefined-- 58.540
0.75 --undefined-- 60.358
0.76 241.139 65.114
0.77 252.094 68.553
0.78 255.080 70.380
0.79 255.411 71.314
0.80 251.461 71.639
0.81 245.501 71.369
0.82 236.021 71.000
0.83 231.283 71.037
0.84 228.137 71.086
0.85 226.161 70.990
0.86 224.851 71.017
0.87 225.210 71.234
0.88 225.860 71.471
0.89 225.971 71.599
0.90 226.031 71.602
0.91 225.612 71.448
0.92 224.990 71.102
0.93 225.269 70.338
0.94 224.418 68.505
0.95 216.658 65.201
0.96 --undefined-- 63.865
0.97 --undefined-- 66.091
0.98 --undefined-- 66.553
0.99 --undefined-- 64.498
1.00 --undefined-- 61.419
1.01 232.739 64.452
1.02 227.382 68.786
1.03 220.666 70.711
1.04 204.986 70.734
1.05 190.821 69.640
1.06 171.850 67.914
1.07 145.276 66.575
1.08 134.461 65.983
1.09 127.896 65.354
1.10 119.513 64.502
1.11 113.413 63.611
1.12 111.707 62.799
1.13 --undefined-- 62.211
1.14 93.649 61.719
1.15 92.804 61.477
1.16 92.476 61.203
1.17 92.651 61.149
1.18 95.157 61.717
1.19 96.384 62.484
1.20 --undefined-- 63.040
1.21 --undefined-- 63.705
1.22 122.985 64.169
1.23 120.198 63.583
1.24 139.049 61.391
1.25 --undefined-- 60.390
1.26 --undefined-- 65.309
1.27 --undefined-- 69.918
1.28 163.936 72.230
1.29 161.414 72.719
1.30 158.352 72.428
1.31 157.184 72.094
1.32 157.278 71.684
1.33 158.271 70.878
1.34 157.555 69.311
1.35 153.859 66.713
1.36 155.158 62.691
1.37 156.200 57.150
1.38 154.245 51.493
1.39 --undefined-- 48.109
1.40 --undefined-- 46.969
1.41 --undefined-- 46.336
1.42 --undefined-- 46.424
1.43 --undefined-- 48.604
1.44 --undefined-- 53.174
1.45 --undefined-- 61.226
1.46 217.201 67.921
1.47 208.226 71.540
1.48 200.735 72.765
1.49 195.976 72.596
1.50 192.937 71.945
1.51 190.151 71.335
1.52 188.778 70.828
1.53 188.043 70.396
1.54 188.035 70.248
1.55 189.548 70.628
1.56 190.871 71.293
1.57 192.317 71.864
1.58 193.511 72.139
1.59 195.422 72.006
1.60 200.273 71.365
1.61 204.327 69.950
1.62 200.321 67.210
1.63 198.428 62.803
1.64 200.986 57.071
1.65 203.414 51.401
1.66 --undefined-- 48.377
1.67 --undefined-- 50.377
1.68 --undefined-- 58.684
1.69 246.614 66.648
1.70 232.530 71.290
1.71 223.428 73.191
1.72 213.335 73.247
1.73 207.588 72.190
1.74 204.199 70.041
1.75 192.594 66.125
1.76 191.283 60.183
1.77 --undefined-- 52.791
1.78 --undefined-- 46.752
1.79 --undefined-- 45.577
1.80 --undefined-- 44.622
1.81 --undefined-- 42.811
1.82 --undefined-- 41.488
1.83 --undefined-- 40.769
1.84 --undefined-- 39.589
1.85 --undefined-- 39.699
1.86 --undefined-- 48.741
1.87 --undefined-- 58.385
1.88 --undefined-- 66.083
1.89 --undefined-- 70.764
1.90 190.372 72.480
1.91 184.400 72.490
1.92 180.494 72.373
1.93 175.965 72.299
1.94 169.364 72.055
1.95 --undefined-- 71.485
1.96 --undefined-- 70.169
1.97 --undefined-- 67.656
1.98 --undefined-- 63.533
1.99 --undefined-- 57.267
2.00 --undefined-- 49.348
2.01 --undefined-- 44.239
2.02 --undefined-- 41.789
2.03 --undefined-- 40.831
2.04 --undefined-- 40.871
2.05 --undefined-- 42.072
2.06 --undefined-- 43.765
2.07 --undefined-- 45.158
2.08 --undefined-- 46.707
2.09 --undefined-- 47.823
2.10 --undefined-- 47.987
2.11 --undefined-- 48.125
2.12 --undefined-- 48.349
2.13 --undefined-- 48.517
2.14 --undefined-- 48.928
2.15 --undefined-- 49.290
2.16 --undefined-- 49.683
2.17 --undefined-- 49.985
2.18 --undefined-- 50.126
2.19 --undefined-- 50.426
2.20 --undefined-- 50.292
2.21 --undefined-- 50.044
2.22 --undefined-- 50.514
2.23 --undefined-- 50.984
2.24 --undefined-- 51.513
2.25 --undefined-- 51.819
2.26 --undefined-- 51.379
2.27 --undefined-- 51.341
2.28 --undefined-- 51.042
2.29 --undefined-- 49.483
2.30 --undefined-- 47.817
2.31 --undefined-- 46.719
2.32 --undefined-- 45.468
2.33 --undefined-- 44.034
2.34 --undefined-- 42.851
2.35 --undefined-- 41.937
2.36 --undefined-- 41.143
2.37 --undefined-- 39.542
2.38 --undefined-- 39.044
2.39 --undefined-- 44.679
2.40 --undefined-- 53.644
2.41 --undefined-- 63.075
2.42 233.139 69.667
2.43 229.027 73.099
2.44 235.725 73.858
2.45 239.704 72.765
2.46 249.848 71.915
2.47 257.908 72.156
2.48 270.687 72.201
2.49 288.202 72.291
2.50 --undefined-- 72.645
2.51 162.685 72.963
2.52 172.602 73.360
2.53 175.477 73.318
2.54 178.645 72.232
2.55 180.502 70.053
2.56 154.220 67.163
2.57 158.294 63.879
2.58 166.973 59.362
2.59 169.587 54.802
2.60 --undefined-- 61.195
2.61 --undefined-- 69.133
2.62 174.408 73.183
2.63 172.878 74.302
2.64 171.057 74.093
2.65 167.775 73.945
2.66 165.091 74.011
2.67 163.336 74.033
2.68 162.130 73.787
2.69 159.896 72.880
2.70 155.171 70.720
2.71 140.389 66.870
2.72 127.579 61.403
2.73 113.909 54.753
2.74 110.037 49.506
2.75 110.793 50.159
2.76 --undefined-- 54.680
2.77 --undefined-- 59.540
2.78 --undefined-- 65.291
2.79 154.070 69.729
2.80 --undefined-- 71.832
2.81 293.595 72.279
2.82 288.615 71.917
2.83 287.281 71.261
2.84 285.660 70.627
2.85 285.655 70.300
2.86 286.456 70.168
2.87 283.599 69.743
2.88 279.236 68.847
2.89 273.085 67.521
2.90 266.408 65.928
2.91 270.665 65.341
2.92 280.645 67.736
2.93 275.227 70.554
2.94 270.817 72.046
2.95 261.861 72.648
2.96 249.785 72.985
2.97 236.390 73.250
2.98 226.012 73.433
2.99 220.830 73.260
3.00 216.887 72.238
3.01 214.644 69.796
3.02 208.252 65.770
3.03 207.486 60.976
3.04 216.641 55.562
3.05 --undefined-- 50.794
3.06 --undefined-- 52.803
3.07 --undefined-- 55.257
3.08 --undefined-- 55.920
3.09 --undefined-- 56.086
3.10 182.524 60.171
3.11 188.307 64.631
3.12 188.286 67.080
3.13 182.626 68.057
3.14 171.512 68.237
3.15 159.571 67.947
3.16 149.594 67.201
3.17 143.944 66.350
3.18 140.767 65.627
3.19 140.564 65.053
3.20 142.105 64.957
3.21 143.358 65.153
3.22 144.009 65.240
3.23 145.436 65.121
3.24 146.052 64.636
3.25 144.762 63.584
3.26 142.880 61.645
3.27 146.148 58.370
3.28 --undefined-- 54.944
3.29 --undefined-- 58.019
3.30 --undefined-- 63.538
3.31 204.889 66.846
3.32 204.906 67.937
3.33 192.390 67.633
3.34 183.399 67.321
3.35 180.833 68.335
3.36 174.151 70.145
3.37 158.747 71.542
3.38 154.573 72.134
3.39 155.436 72.173
3.40 158.057 72.136
3.41 161.413 72.247
3.42 165.902 72.422
3.43 171.909 72.124
3.44 180.006 71.199
3.45 189.247 70.772
3.46 195.945 71.220
3.47 202.941 71.679
3.48 208.756 72.085
3.49 213.702 72.418
3.50 215.743 72.798
3.51 216.461 73.298
3.52 215.720 73.379
3.53 213.053 72.864
3.54 210.445 72.278
3.55 208.632 72.045
3.56 206.510 71.936
3.57 203.955 71.786
3.58 201.947 71.726
3.59 199.756 71.749
3.60 197.118 71.807
3.61 195.004 71.892
3.62 192.428 71.968
3.63 190.656 71.933
3.64 189.264 71.681
3.65 187.916 71.285
3.66 186.720 70.801
3.67 185.438 69.763
3.68 174.907 67.745
3.69 175.422 64.962
3.70 174.129 61.211
3.71 178.921 55.838
3.72 --undefined-- 49.575
3.73 --undefined-- 48.785
3.74 --undefined-- 53.517
3.75 --undefined-- 61.469
3.76 --undefined-- 67.491
3.77 198.597 70.814
3.78 197.205 72.257
3.79 194.497 72.455
3.80 192.015 71.716
3.81 186.634 70.516
3.82 186.455 69.869
3.83 187.721 69.963
3.84 188.560 70.140
3.85 188.127 70.115
3.86 187.333 69.812
3.87 185.651 69.014
3.88 181.702 67.341
3.89 179.298 64.464
3.90 196.346 61.423
3.91 213.545 63.767
3.92 229.178 68.639
3.93 209.350 71.573
3.94 203.600 72.440
3.95 194.243 72.255
3.96 189.936 71.993
3.97 187.292 71.849
3.98 185.547 71.766
3.99 186.074 71.704
4.00 187.092 71.384
4.01 187.050 70.808
4.02 186.499 70.620
4.03 185.697 70.989
4.04 185.466 71.397
4.05 184.425 71.652
4.06 182.877 71.576
4.07 179.423 71.242
4.08 169.732 71.345
4.09 163.922 71.561
4.10 154.368 70.913
4.11 146.574 69.667
4.12 143.351 68.377
4.13 141.377 66.831
4.14 132.029 64.950
4.15 136.012 64.183
4.16 142.420 64.803
4.17 149.274 65.571
4.18 146.272 65.948
4.19 150.535 66.100
4.20 148.975 66.318
4.21 150.143 66.312
4.22 153.147 65.928
4.23 150.672 65.511
4.24 152.628 65.328
4.25 152.498 64.769
4.26 151.149 63.395
4.27 150.705 61.022
4.28 158.383 57.336
4.29 --undefined-- 51.929
4.30 --undefined-- 46.962
4.31 --undefined-- 44.427
4.32 --undefined-- 42.409
4.33 --undefined-- 42.989
4.34 --undefined-- 45.127
4.35 --undefined-- 46.072
4.36 --undefined-- 46.207
4.37 --undefined-- 47.430
4.38 --undefined-- 52.117
4.39 --undefined-- 60.792
4.40 --undefined-- 67.333
4.41 175.769 71.047
4.42 173.109 72.733
4.43 171.781 73.355
4.44 170.332 73.495
4.45 168.786 73.443
4.46 167.723 73.310
4.47 166.503 73.142
4.48 166.269 72.970
4.49 165.695 72.790
4.50 164.487 72.608
4.51 164.143 72.361
4.52 163.999 72.020
4.53 162.863 71.362
4.54 161.340 69.914
4.55 157.910 67.219
4.56 155.819 62.860
4.57 163.555 57.251
4.58 162.678 51.891
4.59 --undefined-- 48.767
4.60 --undefined-- 46.302
4.61 --undefined-- 44.129
4.62 --undefined-- 43.373
4.63 --undefined-- 47.289
4.64 --undefined-- 57.414
4.65 --undefined-- 65.726
4.66 203.435 70.292
4.67 200.870 71.682
4.68 194.731 70.918
4.69 184.484 68.981
4.70 167.700 66.784
4.71 163.990 65.420
4.72 160.855 64.518
4.73 161.011 64.134
4.74 161.942 64.874
4.75 160.506 65.978
4.76 167.366 67.509
4.77 171.897 68.955
4.78 176.351 69.853
4.79 180.487 70.570
4.80 184.377 71.311
4.81 187.564 71.554
4.82 190.374 70.638
4.83 188.047 68.202
4.84 178.803 64.011
4.85 169.482 57.844
4.86 --undefined-- 51.128
4.87 --undefined-- 49.256
4.88 --undefined-- 54.668
4.89 --undefined-- 59.960
4.90 --undefined-- 62.305
4.91 --undefined-- 62.061
4.92 --undefined-- 64.075
4.93 274.376 69.222
4.94 256.256 72.250
4.95 255.652 73.408
4.96 255.786 73.591
4.97 255.868 73.130
4.98 254.174 72.222
4.99 253.005 71.468
5.00 254.296 71.262
5.01 254.389 71.389
5.02 252.687 71.665
5.03 249.542 72.087
5.04 246.241 72.587
5.05 242.153 72.986
5.06 236.368 73.110
5.07 230.779 72.891
5.08 225.302 72.364
5.09 217.016 71.718
5.10 214.062 71.370
5.11 212.751 71.377
5.12 212.141 71.318
5.13 213.161 71.076
5.14 214.843 --undefined--
5.15 216.725 --undefined--
5.16 --undefined-- --undefined--
5.17 --undefined-- --undefined--
