Time Pitch Intensity
0.01 --undefined-- --undefined--
0.02 187.429 --undefined--
0.03 190.095 --undefined--
0.04 190.370 --undefined--
0.05 193.919 59.924
0.06 --undefined-- 58.542
0.07 --undefined-- 58.727
0.08 --undefined-- 58.195
0.09 --undefined-- 59.085
0.10 --undefined-- 61.245
0.11 --undefined-- 62.825
0.12 --undefined-- 62.609
0.13 --undefined-- 61.000
0.14 --undefined-- 65.773
0.15 --undefined-- 72.297
0.16 181.035 75.481
0.17 170.023 75.710
0.18 155.555 74.350
0.19 155.610 73.434
0.20 157.032 73.431
0.21 158.039 73.935
0.22 160.838 74.275
0.23 164.881 73.417
0.24 168.689 71.176
0.25 171.041 68.666
0.26 174.416 66.175
0.27 179.313 63.381
0.28 179.019 62.924
0.29 182.277 66.666
0.30 184.222 71.016
0.31 183.737 73.705
0.32 181.363 74.226
0.33 178.378 72.354
0.34 177.173 67.836
0.35 177.486 60.264
0.36 --undefined-- 52.074
0.37 --undefined-- 48.164
0.38 --undefined-- 47.373
0.39 --undefined-- 53.306
0.40 --undefined-- 57.851
0.41 --undefined-- 60.941
0.42 --undefined-- 65.619
0.43 162.723 69.116
0.44 160.943 70.200
0.45 153.426 69.774
0.46 152.021 69.493
0.47 150.715 69.768
0.48 149.944 70.093
0.49 148.159 70.070
0.50 145.773 69.379
0.51 142.352 67.857
0.52 140.526 65.923
0.53 140.089 64.238
0.54 140.505 63.002
0.55 140.301 62.127
0.56 142.780 61.493
0.57 146.379 61.099
0.58 147.414 60.808
0.59 146.886 60.289
0.60 146.728 59.469
0.61 146.195 58.511
0.62 145.577 57.707
0.63 145.175 57.873
0.64 146.518 62.175
0.65 154.433 69.570
0.66 163.675 74.769
0.67 164.180 77.198
0.68 165.781 77.626
0.69 166.949 77.099
0.70 165.736 76.090
0.71 162.068 74.510
0.72 156.978 71.749
0.73 147.156 67.073
0.74 145.590 61.805
0.75 143.576 60.272
0.76 142.013 60.376
0.77 141.724 60.245
0.78 142.574 59.899
0.79 142.922 59.699
0.80 143.087 59.775
0.81 144.763 59.952
0.82 146.894 59.891
0.83 147.085 59.396
0.84 147.425 58.736
0.85 147.450 58.497
0.86 147.129 59.243
0.87 146.625 61.432
0.88 144.377 64.453
0.89 142.543 66.479
0.90 140.995 66.644
0.91 140.819 65.546
0.92 140.041 64.490
0.93 138.157 63.890
0.94 133.991 63.502
0.95 131.209 63.340
0.96 130.455 63.397
0.97 127.566 64.078
0.98 129.317 64.789
0.99 --undefined-- 64.015
1.00 79.763 62.572
1.01 79.476 63.173
1.02 77.177 64.982
1.03 --undefined-- 67.370
1.04 --undefined-- 69.345
1.05 --undefined-- 70.244
1.06 107.619 70.530
1.07 105.154 70.246
1.08 104.328 69.214
1.09 103.054 67.315
1.10 101.160 63.717
1.11 --undefined-- 57.692
1.12 --undefined-- 49.474
1.13 --undefined-- 41.401
1.14 --undefined-- 37.916
1.15 --undefined-- 37.864
1.16 --undefined-- 46.768
1.17 --undefined-- 57.591
1.18 --undefined-- 64.422
1.19 --undefined-- 67.091
1.20 --undefined-- 65.910
1.21 --undefined-- 62.599
1.22 --undefined-- 66.615
1.23 --undefined-- 71.646
1.24 --undefined-- 73.899
1.25 142.907 74.425
1.26 138.199 74.497
1.27 136.484 74.651
1.28 136.062 74.883
1.29 135.301 74.893
1.30 136.124 74.534
1.31 139.341 74.399
1.32 141.944 74.956
1.33 144.525 75.473
1.34 145.640 75.476
1.35 147.571 75.237
1.36 153.205 75.301
1.37 159.890 75.728
1.38 164.874 75.683
1.39 --undefined-- 74.871
1.40 --undefined-- 74.289
1.41 204.444 74.017
1.42 214.125 72.693
1.43 228.169 69.873
1.44 239.769 65.626
1.45 244.528 60.279
1.46 250.980 55.209
1.47 --undefined-- 50.470
1.48 --undefined-- 44.442
1.49 --undefined-- 38.796
1.50 --undefined-- 36.619
1.51 --undefined-- 36.093
1.52 --undefined-- 35.915
1.53 --undefined-- 36.256
1.54 --undefined-- 37.069
1.55 --undefined-- 36.803
1.56 --undefined-- 35.995
1.57 --undefined-- 36.855
1.58 --undefined-- 36.894
1.59 --undefined-- 35.685
1.60 --undefined-- 34.563
1.61 --undefined-- 33.987
1.62 --undefined-- 34.887
1.63 --undefined-- 36.193
1.64 --undefined-- 36.232
1.65 --undefined-- 35.463
1.66 --undefined-- 35.666
1.67 --undefined-- 36.953
1.68 --undefined-- 37.914
1.69 --undefined-- 38.066
1.70 --undefined-- 38.938
1.71 --undefined-- 40.446
1.72 --undefined-- 41.228
1.73 --undefined-- 41.532
1.74 --undefined-- 42.169
1.75 --undefined-- 42.529
1.76 --undefined-- 42.000
1.77 --undefined-- 41.797
1.78 --undefined-- 42.473
1.79 --undefined-- 42.949
1.80 --undefined-- 43.107
1.81 --undefined-- 42.880
1.82 --undefined-- 42.063
1.83 --undefined-- 40.732
1.84 --undefined-- 40.366
1.85 --undefined-- 42.541
1.86 --undefined-- 44.437
1.87 --undefined-- 44.126
1.88 --undefined-- 42.510
1.89 --undefined-- 40.783
1.90 --undefined-- 39.053
1.91 --undefined-- 37.606
1.92 --undefined-- 36.537
1.93 --undefined-- 36.157
1.94 --undefined-- 36.247
1.95 --undefined-- 35.857
1.96 --undefined-- 35.493
1.97 --undefined-- 35.482
1.98 --undefined-- 39.573
1.99 --undefined-- 53.743
2.00 --undefined-- 63.632
2.01 165.150 69.451
2.02 167.127 72.428
2.03 168.009 73.814
2.04 169.132 74.513
2.05 170.782 75.029
2.06 173.343 75.238
2.07 175.671 74.623
2.08 176.418 73.131
2.09 179.126 71.753
2.10 180.366 70.950
2.11 180.091 69.516
2.12 178.991 66.651
2.13 178.936 62.798
2.14 --undefined-- 58.729
2.15 --undefined-- 54.326
2.16 --undefined-- 51.470
2.17 --undefined-- 51.891
2.18 --undefined-- 53.230
2.19 --undefined-- 54.442
2.20 --undefined-- 59.686
2.21 --undefined-- 69.060
2.22 --undefined-- 74.945
2.23 --undefined-- 77.479
2.24 187.570 77.671
2.25 185.430 76.519
2.26 182.219 75.096
2.27 179.984 74.365
2.28 178.325 74.219
2.29 176.174 73.548
2.30 173.518 71.329
2.31 177.385 67.986
2.32 178.564 66.155
2.33 179.808 66.130
2.34 182.171 67.363
2.35 190.971 69.841
2.36 193.219 72.275
2.37 196.441 74.100
2.38 200.510 75.232
2.39 205.432 75.823
2.40 210.134 76.248
2.41 214.757 76.625
2.42 219.122 76.819
2.43 222.690 76.539
2.44 225.177 75.232
2.45 230.425 72.174
2.46 232.145 66.757
2.47 221.480 58.719
2.48 --undefined-- 51.044
2.49 --undefined-- 52.890
2.50 --undefined-- 56.096
2.51 --undefined-- 56.907
2.52 --undefined-- 55.523
2.53 --undefined-- 53.811
2.54 --undefined-- 59.963
2.55 --undefined-- 68.677
2.56 195.091 73.721
2.57 185.464 75.864
2.58 175.920 76.112
2.59 171.018 75.496
2.60 168.814 75.120
2.61 167.456 75.056
2.62 167.423 74.916
2.63 169.671 74.711
2.64 173.240 74.265
2.65 172.169 73.051
2.66 172.413 70.463
2.67 173.251 66.225
2.68 175.380 60.540
2.69 --undefined-- 53.780
2.70 --undefined-- 48.054
2.71 --undefined-- 54.294
2.72 --undefined-- 63.369
2.73 203.450 69.680
2.74 199.500 73.751
2.75 197.372 75.745
2.76 194.306 75.905
2.77 190.378 74.957
2.78 186.243 73.660
2.79 185.800 71.833
2.80 186.614 68.637
2.81 200.904 65.507
2.82 204.145 64.990
2.83 204.819 64.953
2.84 204.397 65.150
2.85 203.882 66.043
2.86 201.635 67.267
2.87 193.862 68.220
2.88 184.928 69.736
2.89 --undefined-- 71.764
2.90 --undefined-- 72.748
2.91 --undefined-- 72.868
2.92 --undefined-- 72.628
2.93 90.283 71.574
2.94 --undefined-- 69.700
2.95 --undefined-- 69.015
2.96 --undefined-- 70.257
2.97 --undefined-- 71.200
2.98 --undefined-- 70.684
2.99 148.490 69.257
3.00 144.646 68.092
3.01 142.417 66.684
3.02 151.032 65.722
3.03 168.103 66.990
3.04 164.621 69.258
3.05 156.868 71.127
3.06 156.767 72.206
3.07 157.250 71.868
3.08 159.514 69.709
3.09 159.265 66.020
3.10 157.518 61.604
3.11 161.182 57.178
3.12 --undefined-- 52.248
3.13 --undefined-- 46.307
3.14 --undefined-- 41.981
3.15 --undefined-- 41.817
3.16 --undefined-- 43.974
3.17 --undefined-- 45.700
3.18 --undefined-- 46.083
3.19 --undefined-- 46.021
3.20 --undefined-- 46.821
3.21 --undefined-- 53.736
3.22 --undefined-- 64.143
3.23 --undefined-- 70.884
3.24 204.895 74.172
3.25 213.996 74.431
3.26 197.900 72.143
3.27 192.891 68.981
3.28 190.248 67.060
3.29 195.921 66.066
3.30 199.481 66.264
3.31 203.754 68.046
3.32 203.731 70.755
3.33 --undefined-- 73.220
3.34 165.650 74.714
3.35 162.077 75.082
3.36 158.858 74.686
3.37 151.060 74.003
3.38 145.934 73.329
3.39 144.426 72.667
3.40 144.692 71.718
3.41 145.478 70.515
3.42 146.624 69.358
3.43 149.655 68.976
3.44 155.099 69.778
3.45 158.121 70.425
3.46 159.642 70.480
3.47 160.455 70.675
3.48 162.071 71.973
3.49 166.712 73.871
3.50 168.132 74.389
3.51 166.814 73.095
3.52 168.178 71.708
3.53 168.924 71.521
3.54 170.759 71.658
3.55 172.231 71.676
3.56 174.640 71.924
3.57 176.162 72.341
3.58 176.879 72.696
3.59 177.665 72.837
3.60 177.966 72.801
3.61 178.091 72.824
3.62 177.813 73.033
3.63 177.894 73.334
3.64 177.646 73.131
3.65 175.335 71.527
3.66 172.358 67.946
3.67 172.717 62.346
3.68 --undefined-- 55.247
3.69 --undefined-- 47.281
3.70 --undefined-- 40.482
3.71 --undefined-- 39.836
3.72 --undefined-- 50.325
3.73 --undefined-- 62.590
3.74 166.400 70.006
3.75 165.319 73.506
3.76 155.844 74.005
3.77 150.992 72.930
3.78 152.427 72.298
3.79 155.017 72.481
3.80 157.304 71.948
3.81 156.817 69.222
3.82 158.708 63.958
3.83 163.192 58.824
3.84 164.927 58.507
3.85 176.104 63.455
3.86 176.558 68.071
3.87 177.253 70.583
3.88 177.840 71.571
3.89 179.374 71.891
3.90 180.995 72.104
3.91 183.085 72.264
3.92 185.021 72.253
3.93 185.659 71.942
3.94 185.509 71.138
3.95 184.322 69.611
3.96 182.146 67.465
3.97 178.754 66.090
3.98 172.913 67.722
3.99 167.797 71.521
4.00 165.244 74.850
4.01 160.586 76.469
4.02 154.797 76.666
4.03 153.349 76.046
4.04 151.207 74.744
4.05 148.629 72.494
4.06 142.241 68.809
4.07 142.172 64.072
4.08 141.248 61.135
4.09 140.043 60.157
4.10 139.942 59.552
4.11 141.621 59.338
4.12 143.046 59.333
4.13 143.767 59.361
4.14 144.065 59.440
4.15 144.682 59.504
4.16 144.080 59.611
4.17 141.478 60.011
4.18 141.568 61.005
4.19 140.195 63.032
4.20 138.661 65.454
4.21 138.821 67.287
4.22 137.793 68.633
4.23 135.789 69.841
4.24 134.050 70.760
4.25 133.989 71.206
4.26 134.471 71.088
4.27 --undefined-- 70.469
4.28 --undefined-- 70.095
4.29 --undefined-- 70.800
4.30 --undefined-- 71.752
4.31 --undefined-- 71.902
4.32 --undefined-- 71.302
4.33 270.900 71.047
4.34 270.910 70.997
4.35 268.651 70.584
4.36 260.661 69.730
4.37 --undefined-- 67.505
4.38 --undefined-- 63.537
4.39 --undefined-- 58.078
4.40 --undefined-- 51.764
4.41 --undefined-- 46.340
4.42 --undefined-- 47.803
4.43 --undefined-- 54.100
4.44 --undefined-- 57.637
4.45 --undefined-- 57.989
4.46 --undefined-- 59.208
4.47 --undefined-- 65.383
4.48 --undefined-- 69.206
4.49 145.124 70.769
4.50 143.267 71.874
4.51 144.646 72.737
4.52 146.373 73.065
4.53 149.555 72.881
4.54 152.973 72.488
4.55 155.744 72.501
4.56 159.690 73.089
4.57 163.570 73.679
4.58 166.484 73.471
4.59 169.902 71.969
4.60 172.385 68.885
4.61 175.317 64.485
4.62 175.865 59.222
4.63 --undefined-- 54.157
4.64 --undefined-- 51.683
4.65 --undefined-- 51.736
4.66 --undefined-- 52.962
4.67 --undefined-- 57.054
4.68 --undefined-- 65.500
4.69 --undefined-- 71.338
4.70 163.350 74.378
4.71 162.721 75.469
4.72 159.988 75.161
4.73 154.194 73.838
4.74 151.276 72.328
4.75 148.219 71.371
4.76 145.330 70.780
4.77 143.419 70.074
4.78 143.061 68.825
4.79 143.432 66.546
4.80 --undefined-- 62.858
4.81 --undefined-- 58.069
4.82 --undefined-- 56.301
4.83 --undefined-- 59.170
4.84 --undefined-- 61.955
4.85 --undefined-- 63.314
4.86 --undefined-- 63.826
4.87 --undefined-- 64.639
4.88 --undefined-- 64.947
4.89 --undefined-- 64.502
4.90 --undefined-- 63.855
4.91 --undefined-- 62.910
4.92 --undefined-- 62.665
4.93 --undefined-- 64.584
4.94 --undefined-- 65.749
4.95 --undefined-- 65.228
4.96 --undefined-- 63.893
4.97 --undefined-- 66.735
4.98 --undefined-- 72.495
4.99 --undefined-- 75.443
5.00 141.985 75.975
5.01 136.573 75.573
5.02 132.492 75.275
5.03 130.840 74.692
5.04 129.384 73.288
5.05 130.187 71.493
5.06 132.131 70.128
5.07 133.942 68.656
5.08 136.726 66.267
5.09 145.229 64.708
5.10 148.999 64.669
5.11 152.693 64.608
5.12 155.187 64.476
5.13 160.709 64.788
5.14 162.798 65.592
5.15 164.640 66.258
5.16 166.523 66.237
5.17 167.553 65.526
5.18 176.914 66.271
5.19 181.975 69.321
5.20 187.456 72.002
5.21 192.044 73.808
5.22 199.486 74.823
5.23 204.279 74.761
5.24 207.655 73.251
5.25 208.660 70.056
5.26 202.463 65.248
5.27 206.431 58.897
5.28 --undefined-- 51.376
5.29 --undefined-- 45.024
5.30 --undefined-- 40.473
5.31 --undefined-- 37.317
5.32 --undefined-- 36.675
5.33 --undefined-- 36.684
5.34 --undefined-- 37.631
5.35 --undefined-- 39.719
5.36 --undefined-- 41.297
5.37 --undefined-- 42.105
5.38 --undefined-- 42.839
5.39 --undefined-- 43.250
5.40 --undefined-- 42.940
5.41 --undefined-- 42.711
5.42 --undefined-- 42.457
5.43 --undefined-- 42.398
5.44 --undefined-- 42.862
5.45 --undefined-- 43.437
5.46 --undefined-- 43.565
5.47 --undefined-- 43.141
5.48 --undefined-- 42.828
5.49 --undefined-- 42.679
5.50 --undefined-- 42.593
5.51 --undefined-- 43.121
5.52 --undefined-- 43.127
5.53 --undefined-- 42.345
5.54 --undefined-- 42.516
5.55 --undefined-- 42.887
5.56 --undefined-- 41.898
5.57 --undefined-- 39.914
5.58 --undefined-- 38.569
5.59 --undefined-- 38.369
5.60 --undefined-- 38.739
5.61 --undefined-- 38.785
5.62 --undefined-- 37.477
5.63 --undefined-- 35.547
5.64 --undefined-- 34.958
5.65 --undefined-- 34.783
5.66 --undefined-- 35.170
5.67 --undefined-- 37.281
5.68 --undefined-- 38.649
5.69 --undefined-- 37.997
5.70 --undefined-- 37.328
5.71 --undefined-- 42.252
5.72 --undefined-- 54.216
5.73 --undefined-- 62.632
5.74 153.059 67.624
5.75 156.285 70.483
5.76 157.695 72.239
5.77 159.610 73.412
5.78 161.864 74.031
5.79 163.561 73.745
5.80 163.853 72.097
5.81 164.379 68.931
5.82 165.735 64.954
5.83 169.594 61.836
5.84 175.876 61.086
5.85 187.223 63.725
5.86 192.350 67.846
5.87 197.943 71.272
5.88 202.450 73.470
5.89 206.254 74.549
5.90 209.436 74.636
5.91 209.798 73.905
5.92 207.422 72.692
5.93 201.686 71.095
5.94 197.852 68.427
5.95 197.919 64.211
5.96 199.007 59.936
5.97 --undefined-- --undefined--
5.98 --undefined-- --undefined--
5.99 --undefined-- --undefined--
6.00 --undefined-- --undefined--
