Time Pitch Intensity
0.01 --undefined-- --undefined--
0.02 216.524 --undefined--
0.03 218.677 --undefined--
0.04 221.918 --undefined--
0.05 222.293 72.382
0.06 222.625 71.355
0.07 224.907 70.801
0.08 228.568 70.471
0.09 231.966 70.081
0.10 234.642 69.305
0.11 234.024 67.841
0.12 229.394 66.210
0.13 224.487 64.954
0.14 220.471 63.855
0.15 218.869 62.741
0.16 216.966 62.618
0.17 218.008 66.109
0.18 216.994 70.042
0.19 216.477 72.001
0.20 216.410 72.272
0.21 216.130 71.633
0.22 215.854 70.692
0.23 215.421 69.477
0.24 215.616 67.976
0.25 216.745 66.513
0.26 217.154 65.112
0.27 217.879 63.087
0.28 221.859 60.441
0.29 230.331 58.430
0.30 248.369 56.820
0.31 250.963 54.651
0.32 252.129 51.365
0.33 --undefined-- 46.138
0.34 --undefined-- 38.212
0.35 --undefined-- 29.765
0.36 --undefined-- 29.900
0.37 --undefined-- 35.700
0.38 --undefined-- 41.965
0.39 --undefined-- 49.873
0.40 --undefined-- 57.494
0.41 --undefined-- 62.536
0.42 --undefined-- 65.227
0.43 --undefined-- 66.755
0.44 --undefined-- 67.612
0.45 --undefined-- 67.671
0.46 --undefined-- 67.571
0.47 154.029 67.232
0.48 154.807 66.446
0.49 155.808 65.422
0.50 155.625 63.941
0.51 154.300 62.117
0.52 153.627 60.341
0.53 152.361 58.771
0.54 150.240 57.233
0.55 149.110 55.895
0.56 149.550 55.179
0.57 150.962 55.828
0.58 128.976 58.687
0.59 129.611 62.116
0.60 161.922 65.417
0.61 161.758 67.990
0.62 162.941 69.530
0.63 164.155 70.206
0.64 166.799 70.407
0.65 167.274 70.290
0.66 166.743 69.774
0.67 166.329 69.252
0.68 166.963 68.999
0.69 167.135 68.897
0.70 167.115 68.768
0.71 167.220 68.678
0.72 167.305 68.876
0.73 167.289 69.200
0.74 167.402 69.265
0.75 168.307 68.968
0.76 167.808 68.742
0.77 168.734 68.852
0.78 170.310 69.089
0.79 169.995 69.437
0.80 170.218 69.534
0.81 171.052 69.101
0.82 170.785 68.545
0.83 169.996 68.099
0.84 169.723 67.695
0.85 167.807 67.211
0.86 163.621 66.632
0.87 161.466 65.748
0.88 153.152 64.212
0.89 --undefined-- 61.851
0.90 --undefined-- 58.794
0.91 --undefined-- 56.131
0.92 --undefined-- 54.260
0.93 --undefined-- 53.945
0.94 --undefined-- 57.152
0.95 --undefined-- 59.325
0.96 --undefined-- 57.597
0.97 --undefined-- 51.465
0.98 --undefined-- 41.264
0.99 --undefined-- 32.008
1.00 --undefined-- 30.101
1.01 --undefined-- 41.930
1.02 --undefined-- 54.101
1.03 --undefined-- 62.248
1.04 145.881 66.895
1.05 145.660 68.767
1.06 144.755 68.655
1.07 143.357 68.048
1.08 142.846 67.916
1.09 143.414 67.772
1.10 145.399 67.535
1.11 147.999 67.322
1.12 150.839 66.975
1.13 152.953 66.520
1.14 154.233 65.684
1.15 155.494 64.472
1.16 --undefined-- 64.092
1.17 --undefined-- 65.383
1.18 --undefined-- 67.431
1.19 --undefined-- 67.554
1.20 147.083 65.644
1.21 147.784 63.841
1.22 149.702 61.953
1.23 142.532 59.924
1.24 142.633 59.402
1.25 140.201 59.518
1.26 139.914 59.054
1.27 137.315 57.407
1.28 133.420 55.391
1.29 --undefined-- 58.161
1.30 167.334 62.963
1.31 166.505 66.277
1.32 165.877 67.660
1.33 161.058 67.032
1.34 152.394 64.422
1.35 134.167 60.436
1.36 137.320 57.220
1.37 150.384 55.042
1.38 161.330 53.265
1.39 155.716 52.922
1.40 --undefined-- 50.599
1.41 --undefined-- 44.581
1.42 --undefined-- 40.534
1.43 --undefined-- 47.678
1.44 --undefined-- 52.653
1.45 --undefined-- 55.758
1.46 165.181 58.862
1.47 166.814 62.796
1.48 --undefined-- 66.786
1.49 141.574 69.028
1.50 140.219 69.443
1.51 135.032 69.006
1.52 131.618 68.099
1.53 --undefined-- 66.995
1.54 --undefined-- 67.327
1.55 --undefined-- 67.898
1.56 --undefined-- 66.551
1.57 --undefined-- 64.303
1.58 --undefined-- 63.395
1.59 --undefined-- 63.068
1.60 --undefined-- 61.934
1.61 --undefined-- 58.938
1.62 --undefined-- 55.719
1.63 --undefined-- 56.131
1.64 --undefined-- 59.520
1.65 172.965 64.238
1.66 184.280 68.426
1.67 184.686 70.700
1.68 184.740 71.033
1.69 185.202 70.625
1.70 185.766 70.923
1.71 185.450 71.566
1.72 185.140 71.924
1.73 183.269 72.048
1.74 182.019 71.924
1.75 180.074 71.321
1.76 174.308 70.468
1.77 167.935 69.986
1.78 163.636 69.483
1.79 162.733 67.939
1.80 162.821 65.421
1.81 165.071 63.253
1.82 166.721 62.371
1.83 165.476 62.212
1.84 163.797 62.793
1.85 165.509 65.049
1.86 164.800 67.311
1.87 163.791 68.319
1.88 163.604 68.322
1.89 163.834 67.967
1.90 165.599 67.730
1.91 164.701 67.333
1.92 162.974 66.399
1.93 161.284 65.335
1.94 159.980 65.270
1.95 162.557 66.103
1.96 163.971 66.625
1.97 163.344 66.770
1.98 164.083 66.968
1.99 167.692 67.419
2.00 169.930 67.867
2.01 171.139 67.777
2.02 174.044 66.688
2.03 177.785 63.890
2.04 178.531 58.682
2.05 --undefined-- 50.698
2.06 --undefined-- 44.656
2.07 --undefined-- 46.282
2.08 --undefined-- 47.985
2.09 --undefined-- 49.130
2.10 174.293 49.879
2.11 175.788 49.676
2.12 175.610 48.483
2.13 --undefined-- 48.070
2.14 --undefined-- 53.001
2.15 --undefined-- 59.976
2.16 --undefined-- 64.087
2.17 --undefined-- 64.835
2.18 --undefined-- 65.472
2.19 250.538 68.785
2.20 251.128 71.671
2.21 249.587 73.072
2.22 248.422 73.052
2.23 246.006 72.201
2.24 242.345 71.310
2.25 238.402 70.739
2.26 235.466 70.259
2.27 234.692 69.433
2.28 234.568 68.698
2.29 232.310 68.693
2.30 228.846 69.066
2.31 228.223 69.555
2.32 228.475 70.306
2.33 228.402 70.944
2.34 229.152 70.988
2.35 232.215 70.283
2.36 234.626 68.939
2.37 234.771 66.811
2.38 234.218 63.452
2.39 231.594 58.922
2.40 231.304 54.950
2.41 234.869 51.731
2.42 --undefined-- 48.377
2.43 --undefined-- 50.437
2.44 --undefined-- 53.938
2.45 --undefined-- 56.492
2.46 --undefined-- 57.593
2.47 --undefined-- 56.860
2.48 201.981 56.464
2.49 203.928 56.649
2.50 192.073 56.638
2.51 166.740 57.584
2.52 156.978 58.263
2.53 141.090 57.353
2.54 --undefined-- 55.784
2.55 77.394 55.509
2.56 78.246 55.774
2.57 75.890 55.661
2.58 77.473 55.641
2.59 96.534 56.220
2.60 --undefined-- 57.436
2.61 112.975 58.863
2.62 115.509 59.811
2.63 134.089 60.259
2.64 135.262 60.090
2.65 131.783 59.269
2.66 --undefined-- 60.371
2.67 161.222 63.730
2.68 161.316 66.015
2.69 163.858 67.117
2.70 162.727 67.687
2.71 159.079 68.161
2.72 156.538 68.896
2.73 156.941 69.447
2.74 157.647 69.209
2.75 158.527 68.067
2.76 159.376 66.782
2.77 159.896 66.259
2.78 160.211 65.884
2.79 161.372 65.701
2.80 162.980 65.906
2.81 162.986 65.975
2.82 162.476 65.734
2.83 167.307 65.278
2.84 170.849 64.355
2.85 171.630 62.141
2.86 171.744 58.065
2.87 --undefined-- 54.386
2.88 --undefined-- 54.579
2.89 --undefined-- 55.261
2.90 --undefined-- 54.905
2.91 --undefined-- 54.108
2.92 --undefined-- 53.839
2.93 --undefined-- 53.602
2.94 --undefined-- 58.049
2.95 --undefined-- 64.906
2.96 173.562 69.125
2.97 158.552 71.534
2.98 149.638 72.913
2.99 148.636 73.034
3.00 150.480 71.847
3.01 154.816 69.750
3.02 165.904 67.596
3.03 170.131 66.387
3.04 173.756 65.969
3.05 173.055 66.264
3.06 171.577 66.990
3.07 172.634 67.372
3.08 176.664 67.225
3.09 179.596 66.741
3.10 184.787 65.452
3.11 189.713 62.360
3.12 203.168 58.167
3.13 225.359 56.295
3.14 227.572 56.116
3.15 --undefined-- 56.980
3.16 --undefined-- 57.494
3.17 --undefined-- 56.503
3.18 --undefined-- 55.398
3.19 --undefined-- 54.776
3.20 --undefined-- 53.888
3.21 --undefined-- 52.924
3.22 --undefined-- 52.346
3.23 --undefined-- 53.065
3.24 --undefined-- 55.808
3.25 --undefined-- 59.020
3.26 --undefined-- 60.077
3.27 --undefined-- 60.190
3.28 290.713 64.738
3.29 285.160 68.594
3.30 277.283 70.024
3.31 274.758 70.145
3.32 274.912 69.675
3.33 272.614 68.390
3.34 267.761 66.266
3.35 266.223 63.782
3.36 265.262 61.948
3.37 261.198 61.818
3.38 257.187 62.934
3.39 257.200 63.694
3.40 252.679 63.244
3.41 246.015 62.185
3.42 242.712 61.576
3.43 240.679 61.458
3.44 237.524 61.288
3.45 235.558 60.884
3.46 235.174 60.612
3.47 236.933 60.781
3.48 240.863 61.386
3.49 245.130 62.285
3.50 250.490 63.226
3.51 257.667 63.829
3.52 273.470 63.263
3.53 280.861 60.801
3.54 --undefined-- 57.126
3.55 --undefined-- 53.024
3.56 --undefined-- 49.392
3.57 249.512 49.977
3.58 250.579 50.800
3.59 --undefined-- 50.217
3.60 --undefined-- 48.836
3.61 --undefined-- 48.785
3.62 --undefined-- 57.044
3.63 216.880 64.808
3.64 208.302 69.402
3.65 195.954 71.310
3.66 181.529 71.401
3.67 177.877 70.814
3.68 176.977 70.378
3.69 174.968 70.624
3.70 173.183 71.097
3.71 172.516 70.987
3.72 171.532 69.953
3.73 171.073 67.723
3.74 172.348 64.472
3.75 171.127 60.872
3.76 166.296 56.662
3.77 --undefined-- 50.651
3.78 --undefined-- 41.865
3.79 --undefined-- 30.793
3.80 --undefined-- 26.284
3.81 --undefined-- 26.259
3.82 --undefined-- 26.707
3.83 --undefined-- 28.460
3.84 --undefined-- 32.502
3.85 --undefined-- 37.794
3.86 --undefined-- 42.225
3.87 --undefined-- 44.938
3.88 --undefined-- 46.627
3.89 --undefined-- 48.173
3.90 --undefined-- 49.460
3.91 --undefined-- 50.865
3.92 163.588 54.080
3.93 162.999 59.453
3.94 162.565 63.588
3.95 162.975 65.839
3.96 164.248 66.949
3.97 165.718 67.667
3.98 167.603 68.153
3.99 164.235 68.467
4.00 162.185 68.560
4.01 166.083 67.959
4.02 177.276 66.521
4.03 186.173 65.140
4.04 193.201 64.316
4.05 199.204 62.215
4.06 201.990 57.267
4.07 --undefined-- 49.378
4.08 --undefined-- 41.510
4.09 --undefined-- 35.372
4.10 --undefined-- 29.084
4.11 --undefined-- 38.356
4.12 --undefined-- 49.041
4.13 --undefined-- 54.734
4.14 --undefined-- 57.757
4.15 --undefined-- 60.622
4.16 232.733 63.516
4.17 226.465 65.747
4.18 223.211 67.745
4.19 222.443 69.670
4.20 223.058 71.150
4.21 225.712 72.190
4.22 229.953 72.890
4.23 233.800 73.293
4.24 235.137 73.305
4.25 235.247 72.556
4.26 235.921 71.227
4.27 233.151 70.154
4.28 229.033 69.648
4.29 226.938 68.860
4.30 226.234 66.676
4.31 220.551 62.406
4.32 208.132 56.304
4.33 --undefined-- 49.479
4.34 --undefined-- 43.969
4.35 --undefined-- 42.956
4.36 --undefined-- 50.659
4.37 --undefined-- 59.970
4.38 187.265 66.614
4.39 182.801 70.671
4.40 178.843 72.206
4.41 173.697 72.369
4.42 170.987 72.762
4.43 171.034 73.059
4.44 170.152 72.365
4.45 168.008 71.039
4.46 166.015 70.269
4.47 164.183 70.330
4.48 162.844 69.991
4.49 161.532 68.029
4.50 --undefined-- 64.030
4.51 --undefined-- 58.429
4.52 --undefined-- 51.460
4.53 --undefined-- 46.192
4.54 --undefined-- 45.360
4.55 --undefined-- 43.128
4.56 --undefined-- 41.407
4.57 --undefined-- 45.636
4.58 --undefined-- 49.886
4.59 --undefined-- 52.279
4.60 --undefined-- 53.096
4.61 --undefined-- 53.318
4.62 --undefined-- 53.607
4.63 --undefined-- 53.730
4.64 --undefined-- 54.601
4.65 --undefined-- 55.485
4.66 --undefined-- 54.868
4.67 --undefined-- 52.871
4.68 --undefined-- 51.038
4.69 --undefined-- 51.044
4.70 --undefined-- 52.083
4.71 --undefined-- 52.199
4.72 --undefined-- 51.559
4.73 --undefined-- 50.750
4.74 --undefined-- 49.653
4.75 --undefined-- 48.049
4.76 --undefined-- 45.558
4.77 --undefined-- 41.877
4.78 --undefined-- 36.820
4.79 --undefined-- 31.267
4.80 --undefined-- 28.106
4.81 --undefined-- 27.198
4.82 --undefined-- 26.848
4.83 --undefined-- 26.727
4.84 --undefined-- 26.565
4.85 --undefined-- 26.561
4.86 --undefined-- 26.996
4.87 --undefined-- 35.468
4.88 --undefined-- 46.888
4.89 --undefined-- 53.483
4.90 --undefined-- 56.508
4.91 --undefined-- 57.603
4.92 --undefined-- 57.242
4.93 --undefined-- 56.782
4.94 --undefined-- 57.863
4.95 --undefined-- 58.336
4.96 --undefined-- 58.171
4.97 --undefined-- 58.460
4.98 --undefined-- 59.743
4.99 208.097 63.359
5.00 204.138 66.888
5.01 174.698 68.774
5.02 162.783 69.327
5.03 156.885 68.506
5.04 161.050 66.588
5.05 165.254 65.124
5.06 166.520 64.402
5.07 166.217 63.866
5.08 166.389 63.957
5.09 166.174 64.045
5.10 165.421 63.746
5.11 84.983 63.040
5.12 84.733 61.911
5.13 83.734 60.541
5.14 84.892 58.318
5.15 87.621 55.076
5.16 --undefined-- 50.595
5.17 --undefined-- 45.632
5.18 --undefined-- 48.169
5.19 --undefined-- 53.207
5.20 --undefined-- 55.582
5.21 --undefined-- 55.749
5.22 --undefined-- 56.760
5.23 222.485 60.759
5.24 221.423 63.939
5.25 220.791 65.329
5.26 222.296 65.517
5.27 227.044 65.288
5.28 233.720 65.079
5.29 238.736 65.068
5.30 243.118 65.434
5.31 246.952 66.113
5.32 251.046 66.948
5.33 255.180 --undefined--
5.34 258.021 --undefined--
5.35 --undefined-- --undefined--
5.36 --undefined-- --undefined--
