Time Pitch Intensity
0.01 --undefined-- --undefined--
0.02 191.817 --undefined--
0.03 187.178 --undefined--
0.04 184.722 --undefined--
0.05 182.576 68.883
0.06 180.916 68.436
0.07 180.212 67.744
0.08 179.521 66.548
0.09 176.194 64.496
0.10 161.373 61.365
0.11 128.732 58.350
0.12 85.904 55.904
0.13 --undefined-- 52.335
0.14 --undefined-- 46.850
0.15 --undefined-- 39.606
0.16 --undefined-- 34.096
0.17 --undefined-- 33.940
0.18 --undefined-- 33.974
0.19 --undefined-- 31.731
0.20 --undefined-- 31.543
0.21 --undefined-- 33.639
0.22 --undefined-- 34.236
0.23 --undefined-- 33.937
0.24 --undefined-- 32.037
0.25 --undefined-- 30.224
0.26 --undefined-- 32.534
0.27 --undefined-- 42.419
0.28 --undefined-- 52.691
0.29 --undefined-- 59.531
0.30 189.744 63.852
0.31 186.724 66.590
0.32 193.784 68.545
0.33 194.369 69.631
0.34 192.075 70.085
0.35 189.838 70.461
0.36 187.835 70.677
0.37 185.830 70.495
0.38 184.704 69.948
0.39 184.025 69.179
0.40 183.195 68.374
0.41 182.548 67.816
0.42 182.882 67.657
0.43 184.592 67.624
0.44 185.730 66.996
0.45 183.482 64.927
0.46 187.101 61.109
0.47 --undefined-- 55.438
0.48 --undefined-- 47.311
0.49 --undefined-- 39.030
0.50 --undefined-- 38.589
0.51 --undefined-- 40.926
0.52 --undefined-- 52.605
0.53 --undefined-- 62.833
0.54 249.376 68.998
0.55 246.097 72.270
0.56 244.509 73.760
0.57 242.907 74.371
0.58 241.414 74.611
0.59 240.127 74.609
0.60 239.206 74.306
0.61 238.886 73.723
0.62 239.398 73.159
0.63 240.727 72.779
0.64 243.662 72.374
0.65 247.295 71.784
0.66 247.900 71.119
0.67 245.562 70.475
0.68 240.786 69.878
0.69 233.326 69.291
0.70 223.443 68.610
0.71 213.113 67.791
0.72 206.599 66.862
0.73 196.098 66.671
0.74 182.098 67.808
0.75 169.945 68.511
0.76 158.342 68.193
0.77 146.256 67.685
0.78 137.848 67.933
0.79 133.763 68.648
0.80 129.081 69.119
0.81 124.821 69.098
0.82 121.603 68.724
0.83 123.447 68.271
0.84 127.135 67.679
0.85 130.531 66.780
0.86 131.112 65.509
0.87 129.321 63.604
0.88 125.469 60.862
0.89 126.061 58.116
0.90 139.519 57.836
0.91 140.937 59.399
0.92 148.790 61.735
0.93 164.146 64.555
0.94 171.181 66.656
0.95 170.859 67.749
0.96 166.349 67.871
0.97 162.468 66.497
0.98 156.885 63.108
0.99 150.379 58.194
1.00 --undefined-- 52.916
1.01 --undefined-- 46.761
1.02 --undefined-- 40.182
1.03 --undefined-- 36.939
1.04 --undefined-- 36.901
1.05 --undefined-- 37.340
1.06 --undefined-- 41.143
1.07 --undefined-- 45.105
1.08 --undefined-- 51.254
1.09 --undefined-- 60.141
1.10 170.568 65.829
1.11 175.055 68.805
1.12 177.056 70.391
1.13 175.690 71.401
1.14 173.884 72.111
1.15 172.724 72.727
1.16 171.631 73.229
1.17 171.069 73.456
1.18 170.321 73.423
1.19 167.887 73.002
1.20 --undefined-- 71.743
1.21 --undefined-- 69.531
1.22 --undefined-- 66.656
1.23 --undefined-- 62.666
1.24 --undefined-- 56.178
1.25 --undefined-- 46.710
1.26 --undefined-- 42.517
1.27 --undefined-- 41.908
1.28 --undefined-- 39.659
1.29 --undefined-- 38.651
1.30 --undefined-- 37.486
1.31 --undefined-- 34.534
1.32 --undefined-- 31.680
1.33 --undefined-- 31.178
1.34 --undefined-- 32.352
1.35 --undefined-- 35.544
1.36 --undefined-- 38.042
1.37 --undefined-- 38.106
1.38 --undefined-- 42.523
1.39 --undefined-- 50.572
1.40 --undefined-- 55.172
1.41 --undefined-- 57.514
1.42 109.423 58.959
1.43 113.045 59.929
1.44 119.898 60.642
1.45 124.502 60.958
1.46 128.406 61.009
1.47 130.810 61.293
1.48 132.111 61.749
1.49 133.850 61.808
1.50 134.433 60.886
1.51 132.939 58.697
1.52 130.992 54.945
1.53 --undefined-- 48.975
1.54 --undefined-- 41.873
1.55 --undefined-- 46.323
1.56 --undefined-- 52.085
1.57 --undefined-- 56.240
1.58 142.101 59.893
1.59 140.402 62.608
1.60 141.909 64.554
1.61 145.858 66.141
1.62 141.887 67.133
1.63 135.600 67.523
1.64 131.836 67.604
1.65 129.964 67.726
1.66 129.818 67.920
1.67 130.594 67.957
1.68 131.430 67.867
1.69 132.651 67.694
1.70 134.229 67.372
1.71 134.750 66.802
1.72 133.257 65.509
1.73 128.927 62.769
1.74 125.809 57.979
1.75 --undefined-- 50.844
1.76 --undefined-- 45.804
1.77 --undefined-- 51.489
1.78 --undefined-- 59.560
1.79 212.437 66.481
1.80 209.383 70.509
1.81 208.484 72.220
1.82 209.431 72.720
1.83 210.782 72.972
1.84 211.306 73.290
1.85 211.478 73.362
1.86 212.092 72.709
1.87 214.278 70.910
1.88 210.468 67.747
1.89 209.678 63.545
1.90 226.327 58.739
1.91 --undefined-- 52.600
1.92 --undefined-- 49.768
1.93 --undefined-- 54.592
1.94 --undefined-- 61.426
1.95 227.722 68.400
1.96 228.806 72.622
1.97 227.990 74.554
1.98 226.745 75.271
1.99 225.955 75.522
2.00 224.888 75.361
2.01 222.391 75.030
2.02 222.332 75.734
2.03 225.282 76.967
2.04 224.259 77.586
2.05 222.700 77.711
2.06 220.567 77.652
2.07 217.399 77.418
2.08 213.064 76.875
2.09 207.457 75.864
2.10 199.483 74.283
2.11 188.676 72.397
2.12 181.611 70.601
2.13 173.456 68.454
2.14 160.754 65.897
2.15 154.917 63.881
2.16 146.025 62.411
2.17 144.272 61.723
2.18 142.930 62.321
2.19 143.471 63.633
2.20 145.116 65.095
2.21 146.606 66.432
2.22 147.784 67.572
2.23 149.904 68.808
2.24 152.659 70.215
2.25 153.803 71.252
2.26 152.569 71.679
2.27 153.471 71.902
2.28 154.675 72.114
2.29 155.378 72.289
2.30 156.328 72.432
2.31 158.260 72.373
2.32 160.503 71.894
2.33 163.989 71.345
2.34 170.718 71.488
2.35 176.088 72.190
2.36 180.879 72.768
2.37 187.501 72.853
2.38 195.400 72.296
2.39 207.280 71.367
2.40 208.947 70.340
2.41 208.528 68.792
2.42 207.864 66.262
2.43 --undefined-- 62.601
2.44 --undefined-- 58.215
2.45 --undefined-- 54.331
2.46 --undefined-- 50.311
2.47 --undefined-- 43.917
2.48 --undefined-- 37.749
2.49 --undefined-- 40.533
2.50 --undefined-- 43.776
2.51 --undefined-- 44.042
2.52 --undefined-- 41.905
2.53 --undefined-- 39.107
2.54 --undefined-- 37.764
2.55 --undefined-- 37.016
2.56 --undefined-- 36.793
2.57 --undefined-- 36.915
2.58 --undefined-- 35.622
2.59 --undefined-- 32.615
2.60 --undefined-- 31.683
2.61 --undefined-- 34.392
2.62 --undefined-- 36.864
2.63 --undefined-- 37.042
2.64 --undefined-- 36.390
2.65 --undefined-- 36.679
2.66 --undefined-- 35.385
2.67 --undefined-- 33.737
2.68 --undefined-- 35.278
2.69 --undefined-- 35.316
2.70 --undefined-- 32.543
2.71 --undefined-- 29.348
2.72 --undefined-- 28.804
2.73 --undefined-- 28.769
2.74 --undefined-- 29.188
2.75 --undefined-- 30.648
2.76 --undefined-- 32.036
2.77 --undefined-- 31.440
2.78 --undefined-- 30.528
2.79 --undefined-- 32.792
2.80 --undefined-- 34.366
2.81 --undefined-- 33.677
2.82 --undefined-- 32.269
2.83 --undefined-- 32.727
2.84 --undefined-- 33.266
2.85 --undefined-- 32.312
2.86 --undefined-- 30.778
2.87 --undefined-- 32.020
2.88 --undefined-- 33.893
2.89 --undefined-- 34.850
2.90 --undefined-- 35.861
2.91 --undefined-- 35.833
2.92 --undefined-- 36.849
2.93 --undefined-- 46.465
2.94 --undefined-- 55.201
2.95 --undefined-- 63.976
2.96 242.209 70.629
2.97 230.483 74.548
2.98 227.265 76.641
2.99 225.248 77.872
3.00 224.169 78.704
3.01 223.091 79.203
3.02 221.675 79.132
3.03 221.191 78.449
3.04 220.681 77.746
3.05 220.406 77.262
3.06 222.760 76.728
3.07 226.104 76.237
3.08 227.550 75.890
3.09 227.155 75.572
3.10 225.767 74.968
3.11 220.129 73.339
3.12 207.964 70.094
3.13 211.807 65.270
3.14 --undefined-- 58.824
3.15 --undefined-- 51.435
3.16 --undefined-- 49.448
3.17 --undefined-- 55.355
3.18 --undefined-- 64.612
3.19 221.461 70.217
3.20 212.282 72.580
3.21 205.374 72.922
3.22 202.466 72.557
3.23 199.509 72.159
3.24 196.657 71.898
3.25 194.360 71.767
3.26 192.485 71.764
3.27 191.057 71.868
3.28 190.039 71.838
3.29 187.802 71.568
3.30 185.954 71.266
3.31 184.004 70.958
3.32 180.818 70.384
3.33 178.377 69.324
3.34 177.433 67.812
3.35 177.953 66.454
3.36 173.445 65.653
3.37 169.244 65.136
3.38 166.495 64.848
3.39 163.219 64.817
3.40 160.085 65.009
3.41 157.062 65.269
3.42 153.505 65.469
3.43 151.316 65.598
3.44 150.386 65.657
3.45 149.795 65.592
3.46 149.725 65.576
3.47 151.083 65.609
3.48 152.066 65.143
3.49 152.252 63.540
3.50 150.930 60.446
3.51 --undefined-- 55.657
3.52 --undefined-- 48.730
3.53 --undefined-- 43.238
3.54 --undefined-- 48.840
3.55 --undefined-- 52.484
3.56 --undefined-- 52.596
3.57 --undefined-- 52.135
3.58 153.148 54.197
3.59 151.631 56.690
3.60 151.287 59.443
3.61 158.404 62.072
3.62 162.081 63.992
3.63 154.554 64.999
3.64 142.430 65.424
3.65 139.607 65.695
3.66 138.510 65.883
3.67 138.714 65.886
3.68 139.487 65.737
3.69 140.221 65.545
3.70 141.268 65.332
3.71 141.516 65.133
3.72 141.073 64.960
3.73 140.248 64.816
3.74 139.538 64.660
3.75 139.300 64.564
3.76 139.056 64.661
3.77 139.198 64.852
3.78 139.699 65.023
3.79 140.421 65.209
3.80 141.769 65.400
3.81 142.461 65.588
3.82 143.303 65.746
3.83 143.831 65.907
3.84 143.870 66.063
3.85 143.643 66.106
3.86 142.855 66.051
3.87 141.651 65.762
3.88 138.584 65.263
3.89 --undefined-- 64.649
3.90 --undefined-- 62.718
3.91 --undefined-- 58.428
3.92 --undefined-- 53.088
3.93 --undefined-- 47.594
3.94 --undefined-- 41.618
3.95 --undefined-- 37.951
3.96 --undefined-- 37.217
3.97 --undefined-- 42.730
3.98 --undefined-- 48.465
3.99 --undefined-- 55.469
4.00 168.056 61.000
4.01 176.977 64.496
4.02 182.619 66.789
4.03 185.502 68.036
4.04 189.304 67.902
4.05 190.538 65.965
4.06 187.513 61.807
4.07 --undefined-- 55.284
4.08 --undefined-- 46.245
4.09 --undefined-- 42.318
4.10 --undefined-- 49.754
4.11 --undefined-- 54.177
4.12 --undefined-- 55.576
4.13 --undefined-- 57.964
4.14 208.491 64.321
4.15 209.561 68.828
4.16 201.686 70.796
4.17 189.711 71.243
4.18 179.561 71.401
4.19 175.977 71.457
4.20 173.788 70.580
4.21 172.542 67.862
4.22 --undefined-- 62.537
4.23 --undefined-- 54.455
4.24 --undefined-- 46.617
4.25 --undefined-- 42.658
4.26 --undefined-- 40.060
4.27 --undefined-- 42.977
4.28 --undefined-- 45.008
4.29 --undefined-- 44.248
4.30 --undefined-- 41.994
4.31 --undefined-- 40.520
4.32 --undefined-- 40.021
4.33 --undefined-- 39.958
4.34 --undefined-- 40.179
4.35 --undefined-- 40.760
4.36 --undefined-- 41.289
4.37 --undefined-- 40.351
4.38 --undefined-- 38.617
4.39 --undefined-- 38.855
4.40 --undefined-- 43.681
4.41 --undefined-- 54.949
4.42 208.691 63.067
4.43 206.891 67.582
4.44 203.920 69.450
4.45 200.874 70.154
4.46 198.637 70.519
4.47 195.841 70.549
4.48 193.427 70.312
4.49 191.613 69.977
4.50 190.689 69.654
4.51 190.649 69.420
4.52 190.251 69.237
4.53 189.323 69.030
4.54 188.703 68.506
4.55 186.306 67.112
4.56 180.686 64.453
4.57 184.350 60.579
4.58 --undefined-- 54.923
4.59 --undefined-- 46.874
4.60 --undefined-- 42.905
4.61 --undefined-- 50.321
4.62 --undefined-- 58.221
4.63 --undefined-- 64.604
4.64 207.154 68.444
4.65 202.123 69.699
4.66 196.478 69.570
4.67 193.336 69.280
4.68 190.646 68.965
4.69 187.505 68.366
4.70 185.455 67.852
4.71 184.517 67.895
4.72 184.701 68.286
4.73 184.930 68.540
4.74 185.904 68.545
4.75 187.224 68.484
4.76 188.885 68.542
4.77 189.915 68.655
4.78 190.393 68.525
4.79 190.661 67.688
4.80 189.209 65.675
4.81 181.917 62.285
4.82 181.003 59.356
4.83 --undefined-- 58.951
4.84 --undefined-- 58.642
4.85 181.574 59.221
4.86 190.729 60.568
4.87 191.137 60.895
4.88 191.342 59.769
4.89 --undefined-- 58.081
4.90 --undefined-- 56.945
4.91 --undefined-- 56.061
4.92 262.083 57.818
4.93 263.194 64.433
4.94 259.494 69.339
4.95 258.189 72.078
4.96 257.105 73.483
4.97 254.477 74.223
4.98 249.830 74.795
4.99 248.167 75.371
5.00 246.732 75.773
5.01 244.648 75.968
5.02 242.137 75.994
5.03 238.826 75.789
5.04 234.038 75.297
5.05 227.622 74.662
5.06 220.285 74.144
5.07 214.797 73.543
5.08 201.600 72.097
5.09 179.462 70.030
5.10 167.117 68.712
5.11 157.540 68.120
5.12 147.329 67.646
5.13 135.348 67.404
5.14 133.067 67.447
5.15 129.680 67.718
5.16 128.043 68.033
5.17 127.415 68.175
5.18 127.066 68.088
5.19 127.615 67.807
5.20 127.690 67.482
5.21 127.270 67.177
5.22 128.241 66.815
5.23 130.349 66.256
5.24 132.233 65.378
5.25 133.043 64.180
5.26 132.992 62.665
5.27 133.025 60.726
5.28 134.464 58.839
5.29 146.043 59.064
5.30 150.658 61.607
5.31 151.550 64.573
5.32 153.846 66.824
5.33 157.193 68.180
5.34 160.179 68.817
5.35 164.025 69.082
5.36 169.842 69.293
5.37 175.472 69.617
5.38 180.792 69.871
5.39 186.575 69.475
5.40 188.358 67.469
5.41 183.591 63.060
5.42 --undefined-- 56.168
5.43 --undefined-- 47.060
5.44 --undefined-- 40.873
5.45 --undefined-- 49.158
5.46 --undefined-- 59.475
5.47 --undefined-- 65.795
5.48 165.348 68.711
5.49 159.489 69.313
5.50 154.004 69.004
5.51 151.498 68.705
5.52 152.689 68.382
5.53 156.527 68.007
5.54 161.976 67.951
5.55 169.357 68.445
5.56 176.835 69.180
5.57 182.354 69.761
5.58 186.630 70.085
5.59 190.454 70.164
5.60 193.564 69.869
5.61 196.135 68.916
5.62 201.122 66.889
5.63 210.464 63.220
5.64 --undefined-- 56.881
5.65 --undefined-- 48.864
5.66 --undefined-- 50.009
5.67 --undefined-- 55.725
5.68 --undefined-- 63.487
5.69 230.634 68.683
5.70 229.769 71.162
5.71 227.697 71.915
5.72 226.060 71.966
5.73 224.697 71.907
5.74 224.276 71.884
5.75 224.028 71.786
5.76 223.415 71.483
5.77 221.211 70.785
5.78 216.519 69.210
5.79 211.072 66.051
5.80 213.654 60.621
5.81 --undefined-- 52.859
5.82 --undefined-- 47.521
5.83 --undefined-- 49.323
5.84 --undefined-- 51.932
5.85 --undefined-- 56.566
5.86 209.678 63.383
5.87 212.028 --undefined--
5.88 210.071 --undefined--
5.89 --undefined-- --undefined--
5.90 --undefined-- --undefined--
