Time Pitch Intensity
0.01 --undefined-- --undefined--
0.02 --undefined-- --undefined--
0.03 --undefined-- --undefined--
0.04 --undefined-- --undefined--
0.05 --undefined-- 61.076
0.06 289.338 62.966
0.07 289.388 61.765
0.08 290.981 57.566
0.09 --undefined-- 51.564
0.10 --undefined-- 50.534
0.11 --undefined-- 56.417
0.12 273.840 60.494
0.13 275.225 61.393
0.14 273.173 59.168
0.15 289.959 54.703
0.16 275.815 51.241
0.17 284.672 51.218
0.18 291.685 54.940
0.19 282.939 59.056
0.20 282.758 60.406
0.21 282.219 58.603
0.22 --undefined-- 55.819
0.23 --undefined-- 57.292
0.24 --undefined-- 58.883
0.25 --undefined-- 57.982
0.26 --undefined-- 55.703
0.27 --undefined-- 55.484
0.28 --undefined-- 57.297
0.29 --undefined-- 59.468
0.30 --undefined-- 62.278
0.31 --undefined-- 64.768
0.32 --undefined-- 65.580
0.33 --undefined-- 64.050
0.34 --undefined-- 60.437
0.35 --undefined-- 57.846
0.36 --undefined-- 61.586
0.37 --undefined-- 68.924
0.38 190.798 74.036
0.39 193.514 76.546
0.40 197.234 77.101
0.41 199.248 76.417
0.42 200.214 75.155
0.43 200.194 73.298
0.44 200.594 70.924
0.45 201.350 69.427
0.46 202.926 69.164
0.47 204.390 69.175
0.48 206.172 69.185
0.49 206.016 69.359
0.50 204.174 69.646
0.51 201.169 70.044
0.52 195.882 70.720
0.53 189.106 71.545
0.54 181.400 72.028
0.55 169.711 72.302
0.56 157.689 73.117
0.57 290.530 73.778
0.58 265.937 73.524
0.59 246.973 72.492
0.60 232.708 70.549
0.61 --undefined-- 67.467
0.62 --undefined-- 63.745
0.63 --undefined-- 60.211
0.64 --undefined-- 57.657
0.65 --undefined-- 55.795
0.66 --undefined-- 54.467
0.67 --undefined-- 57.636
0.68 --undefined-- 60.557
0.69 --undefined-- 60.764
0.70 --undefined-- 58.331
0.71 --undefined-- 54.243
0.72 --undefined-- 52.500
0.73 --undefined-- 52.151
0.74 --undefined-- 52.821
0.75 --undefined-- 54.088
0.76 --undefined-- 53.686
0.77 --undefined-- 53.849
0.78 --undefined-- 55.009
0.79 --undefined-- 56.985
0.80 --undefined-- 58.188
0.81 --undefined-- 56.942
0.82 --undefined-- 54.747
0.83 --undefined-- 58.009
0.84 202.714 62.600
0.85 190.851 65.519
0.86 188.152 66.920
0.87 183.548 67.190
0.88 178.680 66.754
0.89 175.876 66.061
0.90 174.778 65.518
0.91 176.407 65.322
0.92 179.801 65.485
0.93 182.233 65.317
0.94 182.370 64.896
0.95 192.458 65.819
0.96 197.350 67.186
0.97 210.922 68.499
0.98 229.852 71.266
0.99 240.275 74.350
1.00 248.761 76.030
1.01 264.031 76.307
1.02 279.780 75.737
1.03 296.741 74.590
1.04 160.435 73.552
1.05 162.408 73.145
1.06 161.690 73.147
1.07 158.563 73.305
1.08 154.560 73.074
1.09 151.576 72.051
1.10 158.169 70.071
1.11 163.874 66.955
1.12 163.559 62.633
1.13 --undefined-- 60.803
1.14 --undefined-- 64.023
1.15 --undefined-- 66.425
1.16 --undefined-- 67.315
1.17 --undefined-- 67.247
1.18 --undefined-- 66.750
1.19 --undefined-- 66.133
1.20 223.725 66.252
1.21 210.812 66.627
1.22 203.088 66.189
1.23 191.632 65.443
1.24 186.379 65.084
1.25 180.668 64.611
1.26 180.626 64.041
1.27 195.207 63.901
1.28 196.944 63.599
1.29 197.771 62.838
1.30 197.999 62.031
1.31 198.592 61.538
1.32 198.180 62.042
1.33 195.144 63.612
1.34 187.169 64.312
1.35 181.134 62.848
1.36 171.462 59.182
1.37 171.666 54.982
1.38 171.220 54.064
1.39 168.299 55.202
1.40 167.100 57.556
1.41 --undefined-- 59.022
1.42 187.153 58.724
1.43 188.702 59.413
1.44 188.556 62.417
1.45 164.013 65.451
1.46 162.113 67.422
1.47 162.260 68.113
1.48 164.417 68.308
1.49 168.425 69.402
1.50 174.702 71.484
1.51 181.335 73.224
1.52 187.495 73.837
1.53 195.685 73.217
1.54 208.603 71.691
1.55 219.207 70.176
1.56 234.175 69.311
1.57 243.352 69.037
1.58 252.189 69.142
1.59 260.789 69.607
1.60 266.344 70.646
1.61 269.801 72.504
1.62 262.675 74.380
1.63 251.101 75.490
1.64 239.816 75.731
1.65 230.697 75.033
1.66 212.404 73.743
1.67 195.160 72.458
1.68 185.297 71.278
1.69 175.054 70.279
1.70 170.404 69.158
1.71 162.672 67.203
1.72 159.665 64.901
1.73 160.769 63.835
1.74 162.843 63.363
1.75 165.430 62.360
1.76 168.765 62.244
1.77 171.257 63.640
1.78 173.531 66.202
1.79 173.604 70.035
1.80 --undefined-- 73.654
1.81 --undefined-- 75.847
1.82 --undefined-- 76.348
1.83 --undefined-- 75.423
1.84 256.450 73.949
1.85 254.739 72.993
1.86 242.343 72.291
1.87 243.093 71.137
1.88 242.384 70.202
1.89 242.367 70.629
1.90 244.745 71.721
1.91 248.824 72.755
1.92 252.922 73.660
1.93 256.588 74.345
1.94 260.517 74.596
1.95 264.338 74.291
1.96 268.042 73.655
1.97 270.129 72.964
1.98 271.690 72.143
1.99 272.570 71.171
2.00 273.132 70.550
2.01 274.256 70.748
2.02 275.706 71.648
2.03 277.344 72.995
2.04 277.007 74.420
2.05 275.349 75.189
2.06 273.112 74.816
2.07 275.251 73.287
2.08 279.673 70.590
2.09 281.007 66.711
2.10 268.461 62.064
2.11 256.667 60.674
2.12 --undefined-- 64.729
2.13 224.634 68.139
2.14 220.697 70.108
2.15 213.586 70.957
2.16 218.222 71.138
2.17 200.966 71.395
2.18 180.633 72.512
2.19 170.495 73.888
2.20 166.549 74.413
2.21 164.470 73.546
2.22 162.716 71.162
2.23 160.816 68.115
2.24 157.900 69.230
2.25 154.209 72.648
2.26 158.555 74.578
2.27 162.677 74.721
2.28 161.275 73.306
2.29 160.439 70.859
2.30 160.888 67.925
2.31 160.354 66.695
2.32 158.438 69.212
2.33 158.999 71.786
2.34 161.089 72.964
2.35 161.632 72.600
2.36 159.246 70.883
2.37 156.491 69.143
2.38 154.875 69.651
2.39 154.297 71.830
2.40 155.008 74.410
2.41 156.339 76.413
2.42 156.839 77.266
2.43 159.333 76.982
2.44 159.852 75.732
2.45 160.514 73.675
2.46 161.080 71.052
2.47 159.897 68.394
2.48 158.674 67.696
2.49 156.437 70.148
2.50 151.845 72.315
2.51 --undefined-- 73.296
2.52 --undefined-- 73.930
2.53 --undefined-- 74.949
2.54 --undefined-- 75.908
2.55 --undefined-- 76.179
2.56 --undefined-- 75.868
2.57 --undefined-- 75.346
2.58 --undefined-- 74.857
2.59 --undefined-- 74.174
2.60 228.151 72.475
2.61 184.998 69.016
2.62 192.484 65.071
2.63 195.919 65.361
2.64 185.264 68.026
2.65 177.901 70.481
2.66 172.386 71.483
2.67 166.521 70.656
2.68 161.306 68.677
2.69 158.874 67.897
2.70 158.213 69.102
2.71 158.695 70.112
2.72 158.910 70.059
2.73 159.209 69.253
2.74 159.522 68.643
2.75 159.420 69.547
2.76 158.869 71.155
2.77 156.156 72.257
2.78 156.306 73.152
2.79 161.357 74.278
2.80 172.325 75.052
2.81 173.490 74.624
2.82 175.173 72.446
2.83 175.022 68.509
2.84 171.803 63.776
2.85 169.454 63.664
2.86 --undefined-- 67.927
2.87 --undefined-- 71.312
2.88 --undefined-- 72.815
2.89 182.399 72.339
2.90 183.227 70.272
2.91 185.962 67.099
2.92 185.395 63.956
2.93 182.451 62.896
2.94 163.079 63.437
2.95 159.254 64.184
2.96 159.169 65.586
2.97 158.960 67.421
2.98 158.450 68.509
2.99 157.397 69.157
3.00 155.971 70.739
3.01 155.026 72.657
3.02 154.359 73.407
3.03 155.448 72.479
3.04 156.659 70.105
3.05 157.525 67.296
3.06 160.217 65.834
3.07 162.885 66.638
3.08 165.351 68.907
3.09 167.150 70.990
3.10 167.750 71.812
3.11 168.933 70.843
3.12 --undefined-- 67.710
3.13 --undefined-- 62.395
3.14 --undefined-- 58.392
3.15 --undefined-- 61.005
3.16 --undefined-- 63.622
3.17 --undefined-- 64.724
3.18 --undefined-- 64.989
3.19 272.230 66.854
3.20 266.699 70.500
3.21 267.546 73.187
3.22 272.715 74.779
3.23 274.086 76.097
3.24 273.335 77.377
3.25 272.811 78.031
3.26 273.976 77.568
3.27 277.662 76.435
3.28 278.149 75.756
3.29 278.685 75.768
3.30 277.862 75.855
3.31 278.354 75.641
3.32 278.806 75.091
3.33 278.761 74.075
3.34 276.089 72.257
3.35 271.070 69.870
3.36 263.584 69.252
3.37 251.760 71.504
3.38 238.121 73.733
3.39 239.568 74.811
3.40 251.997 74.623
3.41 281.549 73.142
3.42 --undefined-- 70.366
3.43 --undefined-- 66.256
3.44 --undefined-- 61.783
3.45 --undefined-- 63.838
3.46 --undefined-- 68.829
3.47 --undefined-- 71.910
3.48 --undefined-- 73.157
3.49 --undefined-- 72.956
3.50 --undefined-- 71.740
3.51 292.916 69.998
3.52 294.346 67.682
3.53 295.977 64.496
3.54 --undefined-- 60.724
3.55 252.111 57.351
3.56 254.627 56.307
3.57 253.948 60.324
3.58 251.228 64.116
3.59 --undefined-- 66.086
3.60 --undefined-- 66.811
3.61 --undefined-- 67.184
3.62 --undefined-- 67.859
3.63 --undefined-- 68.493
3.64 --undefined-- 68.251
3.65 --undefined-- 66.661
3.66 --undefined-- 64.711
3.67 --undefined-- 64.068
3.68 --undefined-- 63.984
3.69 --undefined-- 63.551
3.70 --undefined-- 63.059
3.71 --undefined-- 62.137
3.72 268.026 62.228
3.73 249.928 63.812
3.74 238.522 65.741
3.75 241.949 67.890
3.76 244.788 69.713
3.77 244.487 70.687
3.78 237.381 70.271
3.79 225.473 68.441
3.80 222.735 66.078
3.81 --undefined-- 65.271
3.82 --undefined-- 66.001
3.83 290.337 67.074
3.84 272.045 69.038
3.85 270.906 71.207
3.86 270.561 72.527
3.87 268.204 73.100
3.88 265.408 73.331
3.89 265.293 73.154
3.90 267.170 72.145
3.91 277.472 70.395
3.92 275.440 68.685
3.93 269.373 67.476
3.94 260.580 66.931
3.95 255.118 67.239
3.96 250.734 68.579
3.97 246.255 70.587
3.98 242.910 72.189
3.99 238.988 72.820
4.00 235.136 72.617
4.01 231.288 71.951
4.02 229.155 71.135
4.03 227.820 69.933
4.04 227.358 67.997
4.05 226.429 66.309
4.06 202.094 67.081
4.07 --undefined-- 68.768
4.08 --undefined-- 70.154
4.09 --undefined-- 71.076
4.10 --undefined-- 71.118
4.11 --undefined-- 70.146
4.12 --undefined-- 68.750
4.13 273.815 69.042
4.14 271.988 70.962
4.15 270.081 72.612
4.16 269.713 73.651
4.17 270.160 73.932
4.18 271.393 73.656
4.19 273.302 73.308
4.20 275.190 73.228
4.21 276.370 73.168
4.22 277.025 72.785
4.23 277.028 72.257
4.24 275.516 71.904
4.25 272.764 71.426
4.26 269.372 70.536
4.27 268.185 69.498
4.28 272.034 68.344
4.29 276.017 67.092
4.30 283.778 67.004
4.31 288.926 68.147
4.32 284.166 68.677
4.33 275.702 67.715
4.34 263.554 65.023
4.35 246.360 60.969
4.36 --undefined-- 57.521
4.37 --undefined-- 56.991
4.38 235.223 61.703
4.39 215.355 65.462
4.40 193.799 67.160
4.41 184.006 68.027
4.42 173.698 68.461
4.43 172.511 68.419
4.44 175.129 68.268
4.45 177.247 68.630
4.46 176.834 69.254
4.47 176.923 69.548
4.48 177.426 69.533
4.49 177.865 69.360
4.50 176.149 69.026
4.51 176.103 68.967
4.52 177.567 69.499
4.53 179.316 69.921
4.54 183.165 69.588
4.55 186.424 68.374
4.56 182.235 66.534
4.57 178.997 64.841
4.58 --undefined-- 63.013
4.59 --undefined-- 60.579
4.60 --undefined-- 57.631
4.61 --undefined-- 55.020
4.62 --undefined-- 55.734
4.63 --undefined-- 60.992
4.64 241.578 66.030
4.65 236.492 68.787
4.66 235.437 69.925
4.67 237.423 70.316
4.68 239.742 70.342
4.69 243.034 70.143
4.70 249.136 69.964
4.71 254.343 69.762
4.72 257.328 68.979
4.73 257.403 67.508
4.74 254.806 67.228
4.75 252.107 68.198
4.76 244.156 68.710
4.77 234.465 68.897
4.78 225.989 69.016
4.79 201.613 69.152
4.80 --undefined-- 69.377
4.81 --undefined-- 69.145
4.82 --undefined-- 67.740
4.83 --undefined-- 65.055
4.84 --undefined-- 62.617
4.85 --undefined-- 62.036
4.86 --undefined-- 62.688
4.87 --undefined-- 63.705
4.88 --undefined-- 64.192
4.89 --undefined-- 63.941
4.90 --undefined-- 63.146
4.91 --undefined-- 62.146
4.92 173.127 --undefined--
4.93 190.689 --undefined--
4.94 --undefined-- --undefined--
4.95 --undefined-- --undefined--
