Time Pitch Intensity
0.01 --undefined-- --undefined--
0.02 168.731 --undefined--
0.03 172.979 --undefined--
0.04 174.280 --undefined--
0.05 172.353 73.501
0.06 171.424 71.061
0.07 174.808 67.374
0.08 185.600 62.042
0.09 182.883 56.796
0.10 --undefined-- 52.496
0.11 --undefined-- 46.797
0.12 --undefined-- 42.631
0.13 --undefined-- 41.502
0.14 --undefined-- 41.554
0.15 --undefined-- 40.792
0.16 --undefined-- 38.841
0.17 --undefined-- 36.956
0.18 --undefined-- 37.687
0.19 --undefined-- 39.445
0.20 --undefined-- 40.671
0.21 --undefined-- 41.896
0.22 --undefined-- 42.003
0.23 --undefined-- 40.930
0.24 --undefined-- 40.345
0.25 --undefined-- 39.201
0.26 --undefined-- 37.059
0.27 --undefined-- 36.888
0.28 --undefined-- 41.054
0.29 --undefined-- 51.353
0.30 --undefined-- 60.546
0.31 145.100 66.081
0.32 141.086 68.528
0.33 139.713 68.653
0.34 145.145 68.202
0.35 150.020 68.396
0.36 153.618 68.525
0.37 156.824 68.223
0.38 160.826 68.114
0.39 168.003 68.315
0.40 167.930 67.541
0.41 153.257 64.678
0.42 147.188 59.488
0.43 --undefined-- 53.076
0.44 --undefined-- 49.279
0.45 --undefined-- 48.363
0.46 --undefined-- 51.738
0.47 --undefined-- 60.627
0.48 --undefined-- 66.886
0.49 129.512 69.964
0.50 125.258 71.123
0.51 122.025 71.953
0.52 123.203 73.122
0.53 128.740 74.291
0.54 132.343 75.096
0.55 134.788 75.490
0.56 137.058 75.231
0.57 142.114 74.264
0.58 146.110 73.104
0.59 148.869 71.439
0.60 148.523 68.858
0.61 151.607 66.127
0.62 145.366 64.848
0.63 140.912 65.277
0.64 142.309 66.944
0.65 137.608 69.220
0.66 137.324 71.233
0.67 136.585 72.350
0.68 135.552 72.521
0.69 135.254 72.317
0.70 135.754 72.172
0.71 137.130 72.198
0.72 138.910 72.458
0.73 140.146 72.858
0.74 141.966 73.259
0.75 143.820 73.544
0.76 144.911 73.549
0.77 145.593 73.067
0.78 144.980 71.850
0.79 139.114 69.836
0.80 145.589 67.426
0.81 157.912 64.906
0.82 169.755 61.520
0.83 --undefined-- 56.651
0.84 --undefined-- 52.729
0.85 --undefined-- 50.597
0.86 --undefined-- 46.885
0.87 --undefined-- 43.737
0.88 --undefined-- 41.715
0.89 --undefined-- 40.185
0.90 --undefined-- 39.437
0.91 --undefined-- 37.902
0.92 --undefined-- 36.926
0.93 --undefined-- 36.734
0.94 --undefined-- 36.619
0.95 --undefined-- 36.571
0.96 --undefined-- 36.830
0.97 --undefined-- 36.738
0.98 --undefined-- 36.186
0.99 --undefined-- 35.909
1.00 --undefined-- 36.654
1.01 --undefined-- 38.364
1.02 --undefined-- 41.420
1.03 --undefined-- 49.134
1.04 --undefined-- 60.514
1.05 --undefined-- 68.411
1.06 174.169 73.062
1.07 170.223 75.624
1.08 169.862 77.330
1.09 170.812 78.670
1.10 171.310 79.512
1.11 171.078 79.696
1.12 170.704 79.376
1.13 170.685 78.740
1.14 171.399 77.862
1.15 172.969 77.039
1.16 173.457 76.431
1.17 173.906 75.498
1.18 174.739 73.986
1.19 174.811 72.575
1.20 175.164 71.697
1.21 175.132 70.977
1.22 177.069 70.238
1.23 177.328 69.430
1.24 173.744 68.298
1.25 168.557 66.343
1.26 163.523 62.922
1.27 154.958 57.727
1.28 --undefined-- 51.119
1.29 --undefined-- 44.431
1.30 --undefined-- 44.798
1.31 --undefined-- 54.647
1.32 --undefined-- 62.472
1.33 --undefined-- 68.110
1.34 156.432 72.417
1.35 146.556 75.453
1.36 143.769 77.179
1.37 144.458 77.456
1.38 149.282 76.626
1.39 157.971 75.546
1.40 164.299 74.464
1.41 168.212 72.950
1.42 171.242 71.077
1.43 168.462 68.773
1.44 162.722 65.546
1.45 163.742 61.885
1.46 106.940 59.330
1.47 101.324 58.224
1.48 --undefined-- 57.955
1.49 --undefined-- 58.421
1.50 162.654 60.046
1.51 152.864 63.242
1.52 150.525 66.837
1.53 149.505 70.033
1.54 147.912 72.228
1.55 144.466 73.144
1.56 140.912 73.256
1.57 139.822 73.401
1.58 138.636 73.658
1.59 137.147 73.631
1.60 135.410 72.922
1.61 131.632 71.299
1.62 127.459 69.573
1.63 127.603 69.603
1.64 129.534 71.366
1.65 130.680 73.543
1.66 129.750 74.928
1.67 125.034 75.072
1.68 122.630 74.510
1.69 121.810 74.091
1.70 121.463 73.688
1.71 120.901 73.143
1.72 119.537 72.490
1.73 118.967 71.733
1.74 121.555 70.967
1.75 121.723 69.732
1.76 118.868 67.121
1.77 111.066 62.658
1.78 --undefined-- 56.556
1.79 --undefined-- 50.500
1.80 --undefined-- 53.717
1.81 --undefined-- 58.212
1.82 --undefined-- 59.640
1.83 --undefined-- 59.123
1.84 --undefined-- 63.193
1.85 143.393 68.272
1.86 135.666 70.621
1.87 132.571 71.291
1.88 129.816 71.971
1.89 129.025 73.244
1.90 128.133 74.504
1.91 126.589 74.963
1.92 127.892 74.336
1.93 129.769 73.698
1.94 131.280 74.144
1.95 133.727 74.485
1.96 142.291 73.877
1.97 142.628 72.393
1.98 139.456 69.560
1.99 129.783 64.614
2.00 --undefined-- 58.353
2.01 --undefined-- 53.386
2.02 --undefined-- 51.822
2.03 --undefined-- 56.373
2.04 --undefined-- 63.750
2.05 149.705 68.975
2.06 142.985 71.809
2.07 134.076 73.115
2.08 130.672 73.661
2.09 126.053 73.536
2.10 119.562 73.221
2.11 117.668 73.311
2.12 117.625 73.358
2.13 119.058 73.232
2.14 119.903 72.989
2.15 120.051 72.335
2.16 120.328 71.681
2.17 120.806 71.564
2.18 121.986 71.611
2.19 122.899 71.211
2.20 122.644 70.172
2.21 122.036 68.788
2.22 123.215 67.250
2.23 121.064 64.951
2.24 112.414 60.932
2.25 --undefined-- 54.811
2.26 --undefined-- 47.996
2.27 --undefined-- 45.116
2.28 --undefined-- 44.868
2.29 --undefined-- 46.454
2.30 --undefined-- 53.100
2.31 --undefined-- 62.637
2.32 --undefined-- 69.019
2.33 --undefined-- 72.243
2.34 --undefined-- 73.254
2.35 --undefined-- 72.996
2.36 --undefined-- 71.879
2.37 --undefined-- 69.723
2.38 --undefined-- 66.071
2.39 --undefined-- 60.435
2.40 --undefined-- 53.245
2.41 --undefined-- 47.313
2.42 --undefined-- 43.858
2.43 --undefined-- 41.744
2.44 --undefined-- 40.284
2.45 --undefined-- 38.704
2.46 --undefined-- 38.412
2.47 --undefined-- 38.901
2.48 --undefined-- 42.155
2.49 --undefined-- 53.371
2.50 --undefined-- 62.179
2.51 --undefined-- 67.331
2.52 133.491 69.743
2.53 124.550 70.650
2.54 120.574 71.007
2.55 118.608 71.202
2.56 116.995 71.125
2.57 117.024 70.645
2.58 118.540 70.079
2.59 118.319 69.183
2.60 114.152 67.440
2.61 115.459 65.918
2.62 118.578 65.799
2.63 119.263 66.114
2.64 119.022 65.852
2.65 118.381 64.277
2.66 120.533 60.795
2.67 --undefined-- 55.458
2.68 --undefined-- 52.589
2.69 --undefined-- 54.492
2.70 --undefined-- 56.120
2.71 --undefined-- 56.327
2.72 --undefined-- 55.603
2.73 --undefined-- 55.295
2.74 --undefined-- 57.089
2.75 --undefined-- 62.859
2.76 --undefined-- 67.996
2.77 158.553 70.673
2.78 153.074 71.107
2.79 150.736 70.006
2.80 149.165 67.791
2.81 147.761 63.851
2.82 --undefined-- 57.464
2.83 --undefined-- 49.021
2.84 --undefined-- 42.820
2.85 --undefined-- 42.819
2.86 --undefined-- 46.638
2.87 --undefined-- 50.305
2.88 --undefined-- 52.353
2.89 --undefined-- 52.398
2.90 --undefined-- 50.307
2.91 --undefined-- 46.779
2.92 --undefined-- 44.466
2.93 --undefined-- 45.697
2.94 --undefined-- 48.017
2.95 --undefined-- 50.731
2.96 --undefined-- 58.302
2.97 149.959 65.057
2.98 139.642 68.938
2.99 137.394 70.693
3.00 135.609 71.240
3.01 133.595 71.289
3.02 132.758 71.300
3.03 132.147 71.459
3.04 131.379 71.717
3.05 131.446 71.994
3.06 131.973 72.153
3.07 133.287 72.114
3.08 135.189 71.927
3.09 136.907 71.645
3.10 138.140 71.255
3.11 138.285 70.600
3.12 137.309 69.624
3.13 132.453 68.427
3.14 124.616 67.063
3.15 123.789 65.131
3.16 129.673 62.048
3.17 --undefined-- 57.888
3.18 --undefined-- 52.318
3.19 --undefined-- 45.388
3.20 --undefined-- 41.388
3.21 --undefined-- 40.731
3.22 --undefined-- 39.489
3.23 --undefined-- 37.812
3.24 --undefined-- 37.597
3.25 --undefined-- 37.684
3.26 --undefined-- 36.405
3.27 --undefined-- 36.302
3.28 --undefined-- 38.873
3.29 --undefined-- 39.744
3.30 --undefined-- 38.642
3.31 --undefined-- 37.262
3.32 --undefined-- 36.766
3.33 --undefined-- 38.081
3.34 --undefined-- 38.711
3.35 --undefined-- 38.620
3.36 --undefined-- 38.995
3.37 --undefined-- 37.554
3.38 --undefined-- 34.475
3.39 --undefined-- 34.528
3.40 --undefined-- 36.579
3.41 --undefined-- 37.447
3.42 --undefined-- 38.411
3.43 --undefined-- 38.848
3.44 --undefined-- 37.746
3.45 --undefined-- 38.122
3.46 --undefined-- 38.758
3.47 --undefined-- 38.152
3.48 --undefined-- 38.698
3.49 --undefined-- 39.699
3.50 --undefined-- 39.870
3.51 --undefined-- 39.565
3.52 --undefined-- 38.687
3.53 --undefined-- 37.142
3.54 --undefined-- 36.375
3.55 --undefined-- 37.925
3.56 --undefined-- 38.778
3.57 --undefined-- 37.759
3.58 --undefined-- 35.718
3.59 --undefined-- 35.151
3.60 --undefined-- 36.131
3.61 --undefined-- 37.563
3.62 --undefined-- 38.136
3.63 --undefined-- 37.331
3.64 --undefined-- 36.552
3.65 --undefined-- 36.614
3.66 --undefined-- 38.412
3.67 --undefined-- 40.333
3.68 --undefined-- 40.237
3.69 --undefined-- 39.331
3.70 --undefined-- 39.041
3.71 --undefined-- 38.718
3.72 --undefined-- 38.255
3.73 --undefined-- 38.819
3.74 --undefined-- 39.939
3.75 --undefined-- 40.114
3.76 --undefined-- 39.582
3.77 --undefined-- 40.742
3.78 --undefined-- 42.721
3.79 --undefined-- 43.672
3.80 --undefined-- 43.745
3.81 --undefined-- 43.258
3.82 --undefined-- 42.763
3.83 --undefined-- 42.970
3.84 --undefined-- 43.605
3.85 --undefined-- 44.383
3.86 --undefined-- 44.844
3.87 --undefined-- 44.967
3.88 --undefined-- 44.696
3.89 --undefined-- 44.576
3.90 --undefined-- 44.426
3.91 --undefined-- 43.721
3.92 --undefined-- 43.343
3.93 --undefined-- 42.855
3.94 --undefined-- 42.102
3.95 --undefined-- 42.313
3.96 --undefined-- 42.648
3.97 --undefined-- 42.276
3.98 --undefined-- 41.141
3.99 --undefined-- 39.706
4.00 --undefined-- 39.273
4.01 --undefined-- 39.803
4.02 --undefined-- 39.854
4.03 --undefined-- 39.562
4.04 --undefined-- 39.113
4.05 --undefined-- 38.674
4.06 --undefined-- 39.791
4.07 --undefined-- 40.357
4.08 --undefined-- 39.297
4.09 --undefined-- 37.918
4.10 --undefined-- 37.503
4.11 --undefined-- 37.500
4.12 --undefined-- 36.759
4.13 --undefined-- 36.034
4.14 --undefined-- 36.148
4.15 --undefined-- 37.697
4.16 --undefined-- 39.753
4.17 --undefined-- 41.747
4.18 --undefined-- 54.402
4.19 --undefined-- 65.141
4.20 183.243 72.280
4.21 176.742 76.792
4.22 174.856 79.435
4.23 175.852 80.959
4.24 178.637 81.843
4.25 180.609 82.164
4.26 181.934 81.743
4.27 181.424 80.136
4.28 178.044 77.206
4.29 179.904 74.350
4.30 182.875 73.024
4.31 184.078 72.307
4.32 185.585 71.723
4.33 186.451 71.160
4.34 186.633 70.694
4.35 185.776 70.393
4.36 183.627 69.935
4.37 177.457 68.884
4.38 168.904 66.843
4.39 159.673 63.173
4.40 157.779 57.817
4.41 --undefined-- 51.655
4.42 --undefined-- 48.826
4.43 --undefined-- 51.122
4.44 --undefined-- 60.343
4.45 --undefined-- 67.992
4.46 --undefined-- 72.295
4.47 --undefined-- 73.934
4.48 --undefined-- 73.606
4.49 --undefined-- 72.410
4.50 115.257 71.351
4.51 110.168 70.301
4.52 109.123 69.307
4.53 107.775 68.686
4.54 108.144 68.399
4.55 108.582 68.351
4.56 109.365 68.463
4.57 110.600 68.653
4.58 111.355 68.740
4.59 111.937 68.708
4.60 112.910 68.687
4.61 113.506 68.572
4.62 113.479 68.328
4.63 113.048 68.096
4.64 112.757 67.901
4.65 112.403 67.655
4.66 110.297 67.274
4.67 109.220 66.420
4.68 --undefined-- 65.111
4.69 --undefined-- 63.527
4.70 --undefined-- 60.247
4.71 --undefined-- 54.830
4.72 --undefined-- 50.494
4.73 --undefined-- 50.985
4.74 --undefined-- 50.417
4.75 --undefined-- 52.890
4.76 150.489 57.422
4.77 135.360 60.406
4.78 147.295 62.765
4.79 157.436 66.031
4.80 159.557 70.039
4.81 163.342 73.310
4.82 169.166 75.411
4.83 174.303 76.719
4.84 178.252 77.207
4.85 179.679 76.851
4.86 179.517 76.710
4.87 178.714 77.602
4.88 175.726 78.265
4.89 171.331 77.771
4.90 168.608 76.083
4.91 161.683 73.043
4.92 154.595 68.136
4.93 159.522 61.118
4.94 --undefined-- 54.065
4.95 --undefined-- 48.598
4.96 --undefined-- 44.283
4.97 --undefined-- 42.466
4.98 --undefined-- 46.034
4.99 --undefined-- 54.521
5.00 176.220 62.535
5.01 157.174 67.926
5.02 144.286 70.669
5.03 135.153 71.531
5.04 128.242 71.709
5.05 126.756 71.884
5.06 126.361 71.647
5.07 124.571 70.472
5.08 120.926 68.768
5.09 121.217 67.811
5.10 122.356 67.705
5.11 121.433 67.506
5.12 119.823 66.722
5.13 116.300 65.082
5.14 113.750 62.097
5.15 --undefined-- 57.493
5.16 --undefined-- 51.429
5.17 --undefined-- 46.502
5.18 --undefined-- 44.332
5.19 --undefined-- 43.741
5.20 --undefined-- 43.964
5.21 --undefined-- 49.541
5.22 --undefined-- 59.228
5.23 151.933 65.648
5.24 140.698 68.985
5.25 134.228 70.288
5.26 129.741 70.655
5.27 127.926 70.839
5.28 127.041 71.034
5.29 127.482 71.187
5.30 127.825 71.298
5.31 127.840 71.386
5.32 127.617 71.441
5.33 127.367 71.479
5.34 127.990 71.526
5.35 128.526 71.536
5.36 128.859 71.398
5.37 129.243 71.093
5.38 129.333 70.665
5.39 128.447 70.042
5.40 126.282 69.149
5.41 123.440 68.131
5.42 120.250 67.342
5.43 113.003 66.721
5.44 112.338 65.617
5.45 113.876 62.929
5.46 --undefined-- 57.766
5.47 --undefined-- 50.953
5.48 --undefined-- 48.392
5.49 --undefined-- 46.128
5.50 --undefined-- 41.690
5.51 --undefined-- 38.740
5.52 --undefined-- 37.823
5.53 --undefined-- 37.434
5.54 --undefined-- 37.630
5.55 --undefined-- 39.212
5.56 --undefined-- 40.600
5.57 --undefined-- 40.282
5.58 --undefined-- 39.511
5.59 --undefined-- 39.124
5.60 --undefined-- 39.982
5.61 --undefined-- 43.602
5.62 --undefined-- 47.878
5.63 --undefined-- 50.955
5.64 --undefined-- 53.418
5.65 --undefined-- 55.025
5.66 --undefined-- 55.892
5.67 --undefined-- 56.655
5.68 --undefined-- 57.247
5.69 --undefined-- 57.013
5.70 --undefined-- 56.036
5.71 --undefined-- 59.503
5.72 161.568 65.796
5.73 151.872 69.745
5.74 140.377 71.684
5.75 136.599 72.468
5.76 132.585 72.843
5.77 132.126 73.378
5.78 130.120 73.920
5.79 127.931 73.963
5.80 128.144 73.644
5.81 129.576 73.907
5.82 130.285 74.522
5.83 132.443 74.623
5.84 136.577 74.489
5.85 137.052 74.581
5.86 136.804 74.430
5.87 135.971 73.312
5.88 135.244 70.781
5.89 129.535 66.823
5.90 121.789 62.370
5.91 111.955 57.962
5.92 --undefined-- 55.313
5.93 --undefined-- 57.114
5.94 --undefined-- 61.689
5.95 --undefined-- 68.062
5.96 172.212 72.861
5.97 160.321 75.723
5.98 156.881 77.206
5.99 151.487 78.022
6.00 151.546 78.747
6.01 153.864 78.990
6.02 158.802 78.313
6.03 166.939 77.448
6.04 173.923 77.428
6.05 183.311 77.809
6.06 196.719 77.609
6.07 204.460 76.566
6.08 209.096 75.032
6.09 213.787 73.946
6.10 212.790 73.284
6.11 210.255 72.010
6.12 208.065 70.056
6.13 204.959 68.154
6.14 199.746 66.841
6.15 187.352 67.023
6.16 173.023 68.903
6.17 164.456 70.567
6.18 155.056 70.961
6.19 146.838 71.228
6.20 145.160 72.348
6.21 143.782 72.883
6.22 140.919 72.410
6.23 140.648 71.973
6.24 139.609 71.877
6.25 138.542 71.614
6.26 138.159 71.518
6.27 136.924 71.592
6.28 135.909 71.317
6.29 134.267 70.901
6.30 136.464 70.803
6.31 140.074 --undefined--
6.32 144.167 --undefined--
6.33 --undefined-- --undefined--
6.34 --undefined-- --undefined--
