Time Pitch Intensity
0.01 --undefined-- --undefined--
0.02 170.383 --undefined--
0.03 168.803 --undefined--
0.04 167.707 --undefined--
0.05 171.612 57.942
0.06 170.997 60.629
0.07 157.292 63.576
0.08 150.638 65.608
0.09 147.053 66.992
0.10 144.388 67.956
0.11 141.867 68.086
0.12 137.091 66.989
0.13 134.184 65.856
0.14 136.631 66.855
0.15 134.251 67.919
0.16 130.141 68.049
0.17 127.598 67.751
0.18 127.080 67.683
0.19 127.615 68.611
0.20 125.814 70.118
0.21 123.960 70.892
0.22 123.014 71.169
0.23 122.862 71.064
0.24 123.166 69.945
0.25 126.249 67.901
0.26 127.955 65.546
0.27 129.972 63.228
0.28 132.867 61.244
0.29 136.212 60.314
0.30 139.312 59.721
0.31 135.227 57.864
0.32 127.839 53.828
0.33 --undefined-- 48.424
0.34 --undefined-- 44.952
0.35 --undefined-- 44.339
0.36 --undefined-- 46.353
0.37 --undefined-- 51.038
0.38 --undefined-- 55.222
0.39 --undefined-- 62.728
0.40 --undefined-- 69.554
0.41 --undefined-- 72.782
0.42 --undefined-- 72.426
0.43 --undefined-- 69.271
0.44 --undefined-- 65.091
0.45 --undefined-- 61.260
0.46 --undefined-- 57.644
0.47 --undefined-- 56.196
0.48 --undefined-- 56.890
0.49 --undefined-- 56.930
0.50 --undefined-- 56.119
0.51 --undefined-- 55.394
0.52 --undefined-- 55.335
0.53 --undefined-- 56.539
0.54 --undefined-- 58.209
0.55 --undefined-- 59.064
0.56 --undefined-- 58.675
0.57 --undefined-- 57.383
0.58 --undefined-- 55.144
0.59 --undefined-- 53.123
0.60 --undefined-- 51.942
0.61 --undefined-- 51.257
0.62 --undefined-- 53.277
0.63 246.880 57.646
0.64 250.811 59.827
0.65 249.652 60.479
0.66 243.443 60.871
0.67 231.283 59.572
0.68 --undefined-- 56.524
0.69 --undefined-- 54.332
0.70 --undefined-- 53.220
0.71 --undefined-- 51.448
0.72 --undefined-- 49.432
0.73 --undefined-- 47.633
0.74 --undefined-- 46.136
0.75 --undefined-- 45.011
0.76 --undefined-- 49.601
0.77 --undefined-- 55.844
0.78 --undefined-- 60.286
0.79 88.301 63.334
0.80 90.066 64.921
0.81 93.217 65.609
0.82 96.743 66.391
0.83 --undefined-- 66.074
0.84 --undefined-- 63.812
0.85 --undefined-- 61.002
0.86 --undefined-- 58.013
0.87 --undefined-- 53.095
0.88 --undefined-- 48.607
0.89 --undefined-- 45.724
0.90 --undefined-- 42.726
0.91 --undefined-- 40.282
0.92 --undefined-- 39.103
0.93 --undefined-- 38.993
0.94 --undefined-- 39.033
0.95 --undefined-- 38.184
0.96 --undefined-- 38.749
0.97 --undefined-- 40.565
0.98 --undefined-- 41.381
0.99 --undefined-- 41.063
1.00 --undefined-- 40.017
1.01 --undefined-- 38.583
1.02 --undefined-- 37.604
1.03 --undefined-- 41.045
1.04 --undefined-- 50.637
1.05 --undefined-- 57.120
1.06 --undefined-- 61.220
1.07 --undefined-- 66.607
1.08 215.207 71.187
1.09 217.635 72.977
1.10 217.693 71.951
1.11 219.815 68.401
1.12 222.397 65.109
1.13 227.607 65.432
1.14 232.974 66.355
1.15 238.637 66.973
1.16 247.464 67.480
1.17 258.719 68.154
1.18 270.187 68.661
1.19 281.808 68.592
1.20 290.112 68.127
1.21 294.764 67.601
1.22 296.377 67.270
1.23 295.963 67.115
1.24 295.162 66.775
1.25 293.997 66.343
1.26 292.519 65.975
1.27 291.534 65.638
1.28 290.873 65.362
1.29 290.450 65.127
1.30 290.914 65.071
1.31 291.812 65.095
1.32 289.246 64.626
1.33 286.421 63.192
1.34 --undefined-- 60.606
1.35 --undefined-- 56.748
1.36 --undefined-- 52.189
1.37 --undefined-- 47.590
1.38 --undefined-- 43.262
1.39 --undefined-- 41.846
1.40 --undefined-- 42.112
1.41 --undefined-- 41.634
1.42 --undefined-- 40.591
1.43 --undefined-- 39.639
1.44 --undefined-- 39.317
1.45 --undefined-- 39.994
1.46 --undefined-- 39.558
1.47 --undefined-- 38.223
1.48 --undefined-- 38.232
1.49 --undefined-- 38.629
1.50 --undefined-- 38.354
1.51 --undefined-- 38.677
1.52 --undefined-- 41.816
1.53 --undefined-- 45.807
1.54 --undefined-- 48.031
1.55 --undefined-- 51.494
1.56 --undefined-- 56.734
1.57 --undefined-- 59.897
1.58 --undefined-- 60.469
1.59 --undefined-- 59.369
1.60 --undefined-- 59.477
1.61 209.720 62.238
1.62 213.108 65.620
1.63 193.483 69.307
1.64 175.502 72.274
1.65 161.280 73.463
1.66 146.961 72.907
1.67 137.800 71.021
1.68 133.566 67.833
1.69 131.066 62.743
1.70 --undefined-- 55.675
1.71 --undefined-- 50.548
1.72 --undefined-- 50.994
1.73 --undefined-- 53.331
1.74 --undefined-- 56.101
1.75 --undefined-- 59.837
1.76 147.901 63.783
1.77 148.144 66.846
1.78 150.024 69.112
1.79 151.614 70.525
1.80 152.587 70.244
1.81 150.517 67.493
1.82 --undefined-- 61.895
1.83 --undefined-- 55.068
1.84 --undefined-- 52.260
1.85 --undefined-- 51.891
1.86 --undefined-- 54.018
1.87 --undefined-- 55.454
1.88 --undefined-- 55.325
1.89 --undefined-- 59.445
1.90 --undefined-- 66.092
1.91 --undefined-- 70.159
1.92 154.766 71.674
1.93 151.143 71.668
1.94 148.595 71.277
1.95 149.140 70.938
1.96 151.108 70.620
1.97 152.786 70.383
1.98 154.674 69.939
1.99 157.783 68.882
2.00 164.429 67.551
2.01 172.216 66.539
2.02 180.625 65.353
2.03 188.133 63.820
2.04 198.013 62.944
2.05 206.742 62.851
2.06 215.668 61.943
2.07 221.678 59.188
2.08 211.660 55.424
2.09 --undefined-- 52.899
2.10 --undefined-- 51.810
2.11 --undefined-- 50.901
2.12 --undefined-- 50.813
2.13 --undefined-- 51.849
2.14 --undefined-- 52.396
2.15 --undefined-- 52.346
2.16 --undefined-- 53.964
2.17 --undefined-- 57.925
2.18 165.698 61.300
2.19 158.189 62.809
2.20 152.060 62.236
2.21 144.568 59.954
2.22 141.784 56.834
2.23 142.737 55.070
2.24 156.309 60.261
2.25 154.716 66.860
2.26 156.161 71.032
2.27 156.230 72.526
2.28 154.127 71.797
2.29 152.293 69.596
2.30 149.651 66.261
2.31 144.303 61.646
2.32 139.646 56.368
2.33 --undefined-- 52.230
2.34 --undefined-- 50.376
2.35 --undefined-- 49.540
2.36 --undefined-- 49.220
2.37 --undefined-- 49.593
2.38 --undefined-- 51.444
2.39 --undefined-- 59.383
2.40 --undefined-- 66.442
2.41 209.091 70.080
2.42 202.667 71.320
2.43 198.364 71.336
2.44 194.997 70.452
2.45 193.074 68.188
2.46 194.479 64.488
2.47 194.090 61.495
2.48 193.312 60.629
2.49 192.153 60.280
2.50 190.094 59.846
2.51 188.031 59.245
2.52 185.900 58.690
2.53 182.613 58.378
2.54 181.048 58.254
2.55 178.706 57.738
2.56 174.701 56.890
2.57 169.988 58.284
2.58 169.947 63.223
2.59 169.825 67.602
2.60 165.931 69.706
2.61 150.837 70.223
2.62 141.560 70.185
2.63 136.482 69.288
2.64 --undefined-- 67.963
2.65 --undefined-- 67.045
2.66 --undefined-- 64.993
2.67 --undefined-- 59.764
2.68 --undefined-- 50.523
2.69 --undefined-- 43.656
2.70 --undefined-- 42.176
2.71 --undefined-- 42.115
2.72 --undefined-- 42.254
2.73 --undefined-- 41.670
2.74 --undefined-- 41.489
2.75 --undefined-- 42.435
2.76 --undefined-- 42.770
2.77 --undefined-- 41.723
2.78 --undefined-- 40.220
2.79 --undefined-- 39.400
2.80 --undefined-- 38.950
2.81 --undefined-- 38.705
2.82 --undefined-- 39.534
2.83 --undefined-- 40.459
2.84 --undefined-- 40.157
2.85 --undefined-- 39.142
2.86 --undefined-- 40.180
2.87 --undefined-- 47.828
2.88 --undefined-- 55.684
2.89 --undefined-- 60.103
2.90 --undefined-- 60.914
2.91 193.710 58.980
2.92 189.987 57.321
2.93 187.233 63.509
2.94 208.258 70.773
2.95 221.670 74.661
2.96 232.848 75.711
2.97 238.752 74.613
2.98 245.936 71.713
2.99 256.366 67.684
3.00 260.118 64.629
3.01 261.401 62.787
3.02 261.177 60.916
3.03 256.128 59.038
3.04 252.195 57.205
3.05 254.103 55.150
3.06 253.483 52.866
3.07 246.311 52.397
3.08 232.685 59.895
3.09 243.363 67.419
3.10 224.354 71.462
3.11 209.907 72.898
3.12 200.863 73.288
3.13 195.802 73.661
3.14 192.215 73.929
3.15 189.875 73.970
3.16 187.853 73.772
3.17 186.426 73.402
3.18 185.053 72.906
3.19 183.459 72.398
3.20 181.763 72.078
3.21 180.166 71.897
3.22 178.498 71.764
3.23 176.782 71.675
3.24 175.631 71.554
3.25 174.573 71.426
3.26 173.058 71.352
3.27 171.460 71.194
3.28 170.160 70.833
3.29 169.067 70.477
3.30 167.864 70.404
3.31 167.287 70.484
3.32 166.581 70.330
3.33 165.995 69.912
3.34 166.476 69.562
3.35 168.248 69.379
3.36 170.204 69.339
3.37 172.634 69.499
3.38 174.828 69.377
3.39 175.972 68.423
3.40 175.314 66.162
3.41 172.621 61.974
3.42 171.161 56.521
3.43 174.374 53.955
3.44 --undefined-- 53.834
3.45 --undefined-- 54.148
3.46 --undefined-- 54.542
3.47 --undefined-- 54.409
3.48 --undefined-- 54.047
3.49 --undefined-- 54.435
3.50 --undefined-- 54.548
3.51 --undefined-- 52.420
3.52 --undefined-- 47.413
3.53 --undefined-- 41.880
3.54 --undefined-- 39.356
3.55 --undefined-- 38.439
3.56 --undefined-- 38.522
3.57 --undefined-- 41.201
3.58 --undefined-- 52.862
3.59 --undefined-- 62.003
3.60 --undefined-- 67.570
3.61 155.512 70.234
3.62 156.379 70.482
3.63 155.293 69.411
3.64 153.094 67.996
3.65 150.857 65.672
3.66 --undefined-- 61.537
3.67 152.929 58.064
3.68 153.515 59.614
3.69 153.786 61.003
3.70 151.852 62.016
3.71 151.467 63.442
3.72 157.778 65.771
3.73 159.832 68.079
3.74 155.887 68.980
3.75 152.065 68.693
3.76 149.858 67.367
3.77 146.237 64.059
3.78 --undefined-- 57.648
3.79 --undefined-- 47.783
3.80 --undefined-- 44.117
3.81 --undefined-- 45.062
3.82 --undefined-- 43.787
3.83 --undefined-- 42.243
3.84 --undefined-- 41.800
3.85 --undefined-- 41.189
3.86 --undefined-- 41.543
3.87 --undefined-- 48.987
3.88 --undefined-- 58.515
3.89 --undefined-- 65.257
3.90 --undefined-- 69.803
3.91 --undefined-- 71.932
3.92 161.869 71.741
3.93 154.592 70.451
3.94 150.099 69.494
3.95 148.115 69.154
3.96 148.173 69.255
3.97 148.031 68.862
3.98 147.277 67.075
3.99 147.256 64.020
4.00 149.061 61.628
4.01 151.922 61.867
4.02 154.135 62.765
4.03 154.409 62.417
4.04 153.466 60.630
4.05 152.787 57.666
4.06 155.266 53.189
4.07 --undefined-- 47.744
4.08 --undefined-- 45.243
4.09 --undefined-- 44.471
4.10 --undefined-- 43.486
4.11 --undefined-- 47.995
4.12 --undefined-- 57.718
4.13 --undefined-- 63.359
4.14 --undefined-- 65.541
4.15 --undefined-- 67.075
4.16 --undefined-- 70.295
4.17 184.219 72.343
4.18 177.308 72.876
4.19 174.079 72.671
4.20 172.694 71.775
4.21 171.423 69.998
4.22 168.016 67.549
4.23 164.330 64.496
4.24 160.867 60.342
4.25 --undefined-- 54.540
4.26 --undefined-- 48.743
4.27 --undefined-- 49.948
4.28 --undefined-- 53.403
4.29 --undefined-- 57.580
4.30 188.761 62.375
4.31 181.544 65.768
4.32 180.333 67.386
4.33 184.079 68.039
4.34 191.302 68.750
4.35 198.613 69.616
4.36 202.527 69.466
4.37 203.474 67.781
4.38 203.145 65.170
4.39 198.787 62.201
4.40 194.763 59.237
4.41 192.421 56.435
4.42 217.150 54.920
4.43 213.589 57.993
4.44 198.204 62.682
4.45 190.955 65.647
4.46 182.684 66.700
4.47 171.991 66.275
4.48 164.305 64.712
4.49 159.632 62.174
4.50 169.039 61.238
4.51 177.429 63.247
4.52 183.982 64.887
4.53 188.330 65.655
4.54 191.733 65.836
4.55 192.812 65.795
4.56 194.130 66.708
4.57 197.803 69.662
4.58 194.421 72.007
4.59 188.728 72.582
4.60 177.248 72.938
4.61 173.113 73.688
4.62 168.623 73.046
4.63 151.775 71.285
4.64 146.962 70.697
4.65 143.402 70.744
4.66 140.893 70.183
4.67 139.961 69.363
4.68 139.189 68.571
4.69 140.168 67.863
4.70 142.660 67.005
4.71 148.489 65.603
4.72 154.263 63.992
4.73 159.351 63.083
4.74 164.285 63.039
4.75 167.235 63.032
4.76 168.624 62.868
4.77 169.606 62.645
4.78 170.226 62.532
4.79 174.732 63.952
4.80 172.714 65.836
4.81 169.119 66.740
4.82 165.043 67.244
4.83 161.861 67.776
4.84 157.655 68.025
4.85 153.723 68.024
4.86 150.151 67.230
4.87 147.194 65.178
4.88 144.580 63.211
4.89 142.944 64.175
4.90 141.338 67.358
4.91 139.968 69.970
4.92 138.263 70.952
4.93 136.547 70.728
4.94 134.269 70.261
4.95 132.894 69.813
4.96 131.084 69.532
4.97 131.659 69.494
4.98 133.046 69.337
4.99 133.100 69.014
5.00 132.606 68.678
5.01 133.196 68.299
5.02 134.258 67.480
5.03 136.634 66.254
5.04 140.426 65.154
5.05 145.556 64.362
5.06 --undefined-- 62.935
5.07 --undefined-- 59.347
5.08 --undefined-- 53.034
5.09 --undefined-- 46.172
5.10 --undefined-- 42.816
5.11 --undefined-- 42.410
5.12 --undefined-- 42.903
5.13 --undefined-- 43.569
5.14 --undefined-- 46.390
5.15 --undefined-- 49.586
5.16 --undefined-- 51.247
5.17 --undefined-- 51.809
5.18 --undefined-- 52.022
5.19 --undefined-- 51.694
5.20 --undefined-- 51.019
5.21 --undefined-- 50.722
5.22 --undefined-- 50.907
5.23 --undefined-- 51.546
5.24 --undefined-- 51.698
5.25 --undefined-- 51.121
5.26 --undefined-- 50.955
5.27 --undefined-- 50.705
5.28 --undefined-- 49.647
5.29 --undefined-- 48.272
5.30 --undefined-- 48.577
5.31 --undefined-- 49.795
5.32 --undefined-- 49.889
5.33 --undefined-- 48.894
5.34 --undefined-- 47.716
5.35 --undefined-- 46.500
5.36 --undefined-- 45.004
5.37 --undefined-- 43.304
5.38 --undefined-- 41.826
5.39 --undefined-- 40.645
5.40 --undefined-- 39.421
5.41 --undefined-- 38.302
5.42 --undefined-- 38.315
5.43 --undefined-- 38.965
5.44 --undefined-- 41.599
5.45 --undefined-- 45.986
5.46 --undefined-- 49.999
5.47 --undefined-- 52.307
5.48 --undefined-- 53.795
5.49 --undefined-- 56.545
5.50 --undefined-- 62.937
5.51 --undefined-- 69.535
5.52 175.921 73.007
5.53 178.587 74.001
5.54 185.527 73.930
5.55 188.963 73.312
5.56 191.807 71.831
5.57 196.065 70.846
5.58 196.329 71.561
5.59 202.140 72.014
5.60 210.492 71.323
5.61 211.652 --undefined--
5.62 208.197 --undefined--
5.63 --undefined-- --undefined--
5.64 --undefined-- --undefined--
