Time Pitch Intensity
0.01 --undefined-- --undefined--
0.02 253.626 --undefined--
0.03 253.572 --undefined--
0.04 254.029 --undefined--
0.05 254.767 68.987
0.06 255.067 69.065
0.07 256.465 69.049
0.08 259.616 68.597
0.09 260.668 67.792
0.10 259.378 66.971
0.11 258.069 66.424
0.12 257.797 66.142
0.13 258.383 65.968
0.14 258.329 65.798
0.15 259.178 65.700
0.16 260.570 65.763
0.17 260.931 65.983
0.18 259.452 66.240
0.19 256.983 66.215
0.20 254.702 65.041
0.21 252.079 61.648
0.22 224.656 55.643
0.23 --undefined-- 51.446
0.24 --undefined-- 56.341
0.25 --undefined-- 61.541
0.26 205.758 64.774
0.27 188.050 66.383
0.28 173.643 66.974
0.29 167.307 66.957
0.30 164.400 66.693
0.31 166.136 66.482
0.32 168.343 66.241
0.33 170.075 65.850
0.34 172.607 65.399
0.35 174.264 64.953
0.36 175.942 64.778
0.37 179.022 65.228
0.38 182.286 66.123
0.39 186.566 67.099
0.40 191.869 67.974
0.41 195.991 68.348
0.42 201.601 68.105
0.43 205.842 67.768
0.44 209.579 67.612
0.45 213.648 67.385
0.46 216.298 66.369
0.47 219.052 63.529
0.48 --undefined-- 58.055
0.49 --undefined-- 50.315
0.50 --undefined-- 44.297
0.51 --undefined-- 44.820
0.52 --undefined-- 52.577
0.53 --undefined-- 60.370
0.54 271.468 65.347
0.55 264.672 67.544
0.56 261.041 67.880
0.57 261.840 67.610
0.58 262.999 67.549
0.59 264.503 67.756
0.60 265.573 67.927
0.61 266.425 67.971
0.62 267.371 67.936
0.63 268.389 67.855
0.64 270.100 67.783
0.65 272.402 67.823
0.66 274.114 67.980
0.67 274.998 68.136
0.68 274.312 68.189
0.69 274.195 68.048
0.70 274.141 67.625
0.71 273.207 66.975
0.72 273.261 66.153
0.73 272.120 64.783
0.74 267.408 62.004
0.75 252.463 57.196
0.76 --undefined-- 51.901
0.77 --undefined-- 50.027
0.78 --undefined-- 51.159
0.79 --undefined-- 54.876
0.80 --undefined-- 59.732
0.81 287.148 64.013
0.82 276.282 66.357
0.83 271.000 67.083
0.84 268.143 66.998
0.85 265.560 66.428
0.86 262.399 65.303
0.87 258.216 64.027
0.88 256.261 63.635
0.89 259.365 64.046
0.90 260.483 64.347
0.91 260.234 64.379
0.92 260.133 64.314
0.93 259.907 64.152
0.94 259.309 64.037
0.95 258.348 64.151
0.96 257.499 64.464
0.97 256.657 64.733
0.98 254.647 64.836
0.99 252.845 64.814
1.00 250.158 64.672
1.01 246.572 64.323
1.02 241.475 63.774
1.03 236.292 63.512
1.04 227.154 64.106
1.05 218.829 64.918
1.06 210.894 65.374
1.07 201.754 65.911
1.08 195.654 66.492
1.09 190.170 66.775
1.10 185.698 66.728
1.11 183.805 66.064
1.12 182.539 64.534
1.13 181.760 62.630
1.14 184.758 61.679
1.15 184.788 61.821
1.16 184.318 62.134
1.17 185.413 62.309
1.18 187.208 62.437
1.19 187.532 62.525
1.20 187.582 62.530
1.21 188.031 62.578
1.22 188.001 62.610
1.23 189.173 62.596
1.24 190.028 62.725
1.25 191.129 62.869
1.26 192.087 62.905
1.27 192.353 62.860
1.28 192.511 62.618
1.29 192.466 61.730
1.30 189.937 59.439
1.31 186.317 55.352
1.32 --undefined-- 51.933
1.33 --undefined-- 51.989
1.34 --undefined-- 52.633
1.35 --undefined-- 52.940
1.36 --undefined-- 53.157
1.37 --undefined-- 53.615
1.38 --undefined-- 53.919
1.39 --undefined-- 53.392
1.40 --undefined-- 52.359
1.41 --undefined-- 51.301
1.42 --undefined-- 51.140
1.43 --undefined-- 54.328
1.44 176.496 59.129
1.45 177.340 62.335
1.46 173.944 63.773
1.47 171.642 64.031
1.48 169.460 63.931
1.49 168.354 63.964
1.50 168.071 64.090
1.51 168.805 64.140
1.52 168.669 63.947
1.53 167.875 63.169
1.54 160.848 61.067
1.55 158.165 57.074
1.56 159.851 52.139
1.57 159.063 51.319
1.58 181.861 55.361
1.59 187.242 58.946
1.60 182.142 60.721
1.61 174.635 61.233
1.62 170.896 61.012
1.63 167.068 60.281
1.64 163.566 59.427
1.65 160.293 58.704
1.66 160.353 58.345
1.67 160.473 58.421
1.68 158.469 58.655
1.69 157.167 58.982
1.70 155.772 59.586
1.71 153.396 60.384
1.72 152.745 61.153
1.73 151.932 61.639
1.74 76.937 61.696
1.75 81.194 61.451
1.76 78.219 60.949
1.77 77.656 60.613
1.78 76.054 60.668
1.79 156.435 60.810
1.80 156.529 60.794
1.81 155.704 60.332
1.82 152.354 59.081
1.83 150.481 57.291
1.84 --undefined-- 55.736
1.85 --undefined-- 54.974
1.86 --undefined-- 55.253
1.87 --undefined-- 55.429
1.88 --undefined-- 55.704
1.89 --undefined-- 56.391
1.90 --undefined-- 58.601
1.91 --undefined-- 61.578
1.92 177.286 63.456
1.93 166.622 64.467
1.94 159.423 64.398
1.95 155.396 63.570
1.96 154.471 63.153
1.97 155.072 63.809
1.98 158.704 65.451
1.99 161.905 66.565
2.00 166.669 66.990
2.01 175.341 67.703
2.02 185.969 68.435
2.03 197.655 68.546
2.04 210.764 67.781
2.05 226.928 66.415
2.06 226.969 64.057
2.07 217.186 59.544
2.08 --undefined-- 52.669
2.09 --undefined-- 46.177
2.10 --undefined-- 47.149
2.11 --undefined-- 56.443
2.12 282.879 64.209
2.13 261.264 68.755
2.14 243.330 71.023
2.15 234.504 71.923
2.16 227.539 71.538
2.17 219.285 69.731
2.18 211.043 67.106
2.19 209.794 65.255
2.20 210.394 64.841
2.21 207.236 64.725
2.22 206.249 64.810
2.23 203.107 65.436
2.24 201.111 66.416
2.25 199.012 67.258
2.26 196.982 67.965
2.27 194.831 68.602
2.28 193.372 68.623
2.29 191.092 67.028
2.30 188.754 63.107
2.31 192.034 58.162
2.32 --undefined-- 55.408
2.33 --undefined-- 53.623
2.34 --undefined-- 51.955
2.35 --undefined-- 49.276
2.36 --undefined-- 53.775
2.37 --undefined-- 62.020
2.38 --undefined-- 67.071
2.39 193.975 69.711
2.40 190.489 70.929
2.41 188.982 71.334
2.42 188.473 71.292
2.43 189.147 71.215
2.44 190.179 71.393
2.45 191.054 71.870
2.46 191.656 72.432
2.47 191.138 72.819
2.48 190.160 72.959
2.49 189.492 72.821
2.50 189.303 72.183
2.51 190.291 70.655
2.52 191.068 67.812
2.53 188.713 63.525
2.54 184.734 58.828
2.55 182.864 55.230
2.56 187.731 51.953
2.57 --undefined-- 48.440
2.58 --undefined-- 48.087
2.59 --undefined-- 53.099
2.60 --undefined-- 57.666
2.61 --undefined-- 62.409
2.62 208.030 66.547
2.63 204.143 69.704
2.64 200.214 72.038
2.65 197.414 73.403
2.66 194.897 74.073
2.67 194.234 74.511
2.68 194.147 74.916
2.69 194.701 75.344
2.70 195.330 75.635
2.71 196.257 75.245
2.72 198.622 73.784
2.73 200.992 71.771
2.74 202.303 70.697
2.75 202.928 71.201
2.76 203.116 72.299
2.77 202.827 73.095
2.78 202.207 73.280
2.79 200.493 72.876
2.80 197.326 71.694
2.81 189.564 69.338
2.82 --undefined-- 65.933
2.83 --undefined-- 61.969
2.84 --undefined-- 57.107
2.85 --undefined-- 52.866
2.86 --undefined-- 51.432
2.87 --undefined-- 50.117
2.88 --undefined-- 49.120
2.89 --undefined-- 48.743
2.90 --undefined-- 49.608
2.91 --undefined-- 50.575
2.92 --undefined-- 51.528
2.93 --undefined-- 52.250
2.94 --undefined-- 52.055
2.95 --undefined-- 50.984
2.96 --undefined-- 49.709
2.97 --undefined-- 49.199
2.98 --undefined-- 48.882
2.99 --undefined-- 48.434
3.00 --undefined-- 47.858
3.01 --undefined-- 47.975
3.02 --undefined-- 48.384
3.03 --undefined-- 49.344
3.04 --undefined-- 50.191
3.05 --undefined-- 49.581
3.06 --undefined-- 47.751
3.07 --undefined-- 45.482
3.08 --undefined-- 44.267
3.09 --undefined-- 43.693
3.10 --undefined-- 42.625
3.11 --undefined-- 42.429
3.12 --undefined-- 44.230
3.13 --undefined-- 44.240
3.14 --undefined-- 42.758
3.15 --undefined-- 49.769
3.16 --undefined-- 58.160
3.17 247.087 63.278
3.18 226.706 65.630
3.19 213.360 66.449
3.20 210.929 66.962
3.21 210.299 67.652
3.22 212.198 68.615
3.23 217.158 69.933
3.24 227.867 71.293
3.25 238.154 72.305
3.26 250.273 72.906
3.27 252.379 72.934
3.28 255.739 71.896
3.29 254.207 69.373
3.30 247.706 65.963
3.31 248.359 63.254
3.32 249.224 61.624
3.33 249.933 61.203
3.34 251.914 64.125
3.35 295.992 69.070
3.36 --undefined-- 72.346
3.37 188.548 74.357
3.38 193.391 75.530
3.39 195.514 75.216
3.40 198.018 73.700
3.41 200.897 71.736
3.42 202.798 70.091
3.43 199.102 68.870
3.44 193.451 66.636
3.45 --undefined-- 62.455
3.46 --undefined-- 57.470
3.47 --undefined-- 54.034
3.48 --undefined-- 52.528
3.49 --undefined-- 53.449
3.50 --undefined-- 56.709
3.51 --undefined-- 60.932
3.52 260.814 66.308
3.53 249.324 70.432
3.54 242.800 72.677
3.55 237.597 73.326
3.56 235.344 72.987
3.57 235.995 71.983
3.58 239.085 70.252
3.59 245.438 68.175
3.60 254.458 66.838
3.61 258.958 66.327
3.62 262.398 65.911
3.63 268.169 65.686
3.64 272.621 65.160
3.65 269.438 63.096
3.66 254.029 58.780
3.67 --undefined-- 53.333
3.68 --undefined-- 49.726
3.69 --undefined-- 51.860
3.70 --undefined-- 60.693
3.71 --undefined-- 66.530
3.72 156.320 69.190
3.73 155.990 69.959
3.74 155.826 70.280
3.75 155.963 70.727
3.76 156.445 71.189
3.77 157.358 71.561
3.78 157.984 71.846
3.79 158.493 72.188
3.80 159.586 72.587
3.81 160.925 72.450
3.82 162.648 71.332
3.83 165.104 69.998
3.84 165.900 69.259
3.85 167.459 68.400
3.86 166.376 66.875
3.87 158.802 64.276
3.88 161.030 60.045
3.89 --undefined-- 54.171
3.90 --undefined-- 52.058
3.91 --undefined-- 57.898
3.92 --undefined-- 61.260
3.93 --undefined-- 61.501
3.94 --undefined-- 59.588
3.95 --undefined-- 56.595
3.96 --undefined-- 57.001
3.97 252.827 61.054
3.98 252.913 64.046
3.99 246.693 65.571
4.00 230.453 66.260
4.01 224.074 66.554
4.02 217.705 66.290
4.03 211.355 65.318
4.04 206.067 64.199
4.05 204.609 63.925
4.06 209.543 64.399
4.07 208.718 64.746
4.08 206.237 64.807
4.09 203.115 64.573
4.10 199.440 64.182
4.11 196.315 63.953
4.12 192.073 64.154
4.13 186.970 64.772
4.14 182.593 65.569
4.15 179.355 66.518
4.16 177.287 67.635
4.17 175.395 68.681
4.18 174.930 69.633
4.19 175.293 70.500
4.20 175.407 71.259
4.21 175.735 71.557
4.22 175.337 71.165
4.23 175.229 70.606
4.24 175.680 70.361
4.25 176.936 70.222
4.26 178.285 69.643
4.27 179.056 68.193
4.28 181.496 66.173
4.29 183.867 64.489
4.30 183.077 63.617
4.31 186.807 63.642
4.32 189.445 64.034
4.33 191.691 64.145
4.34 194.603 63.898
4.35 198.233 63.180
4.36 201.793 61.860
4.37 203.358 59.601
4.38 203.713 56.144
4.39 --undefined-- 52.103
4.40 --undefined-- 48.786
4.41 --undefined-- 47.622
4.42 --undefined-- 49.826
4.43 --undefined-- 58.197
4.44 297.824 64.727
4.45 276.532 67.975
4.46 275.921 68.977
4.47 277.252 69.221
4.48 279.058 69.734
4.49 281.316 70.485
4.50 286.383 71.313
4.51 290.131 71.990
4.52 293.092 72.369
4.53 294.762 72.487
4.54 294.697 72.292
4.55 293.836 71.783
4.56 291.754 70.952
4.57 286.710 69.634
4.58 274.507 67.721
4.59 266.294 65.434
4.60 251.775 62.616
4.61 221.555 59.339
4.62 --undefined-- 56.529
4.63 --undefined-- 55.513
4.64 --undefined-- 55.184
4.65 --undefined-- 53.364
4.66 --undefined-- 49.730
4.67 --undefined-- 45.109
4.68 --undefined-- 43.492
4.69 --undefined-- 47.751
4.70 --undefined-- 54.242
4.71 --undefined-- 59.995
4.72 --undefined-- 64.000
4.73 186.620 65.955
4.74 185.892 66.653
4.75 179.298 66.745
4.76 182.623 65.763
4.77 182.955 62.989
4.78 180.519 58.139
4.79 --undefined-- 52.188
4.80 --undefined-- 49.131
4.81 --undefined-- 56.066
4.82 242.676 62.614
4.83 224.172 65.956
4.84 219.464 66.888
4.85 219.468 66.904
4.86 221.527 67.197
4.87 223.094 67.739
4.88 224.925 68.192
4.89 226.108 68.624
4.90 227.456 69.237
4.91 229.222 69.889
4.92 231.513 70.276
4.93 233.278 70.337
4.94 234.862 70.211
4.95 236.033 69.986
4.96 236.544 69.499
4.97 236.876 68.309
4.98 236.991 65.689
4.99 233.836 60.968
5.00 236.802 54.177
5.01 --undefined-- 49.583
5.02 --undefined-- --undefined--
5.03 --undefined-- --undefined--
5.04 --undefined-- --undefined--
5.05 --undefined-- --undefined--
