Time Pitch Intensity
0.01 --undefined-- --undefined--
0.02 200.315 --undefined--
0.03 191.319 --undefined--
0.04 182.961 --undefined--
0.05 177.416 67.462
0.06 172.890 66.680
0.07 170.732 66.350
0.08 169.029 65.936
0.09 168.696 65.208
0.10 170.149 65.012
0.11 170.662 65.334
0.12 170.882 65.611
0.13 171.570 65.727
0.14 172.234 65.735
0.15 171.580 66.040
0.16 170.949 65.945
0.17 170.508 65.133
0.18 169.281 64.560
0.19 169.343 64.132
0.20 168.110 63.522
0.21 168.113 63.098
0.22 168.381 62.600
0.23 167.735 61.273
0.24 --undefined-- 59.817
0.25 --undefined-- 59.771
0.26 --undefined-- 59.541
0.27 --undefined-- 61.565
0.28 195.795 65.251
0.29 188.152 67.416
0.30 178.793 68.780
0.31 173.219 70.207
0.32 171.781 71.341
0.33 169.610 71.898
0.34 170.718 72.140
0.35 177.773 72.413
0.36 184.601 72.957
0.37 193.200 73.369
0.38 203.015 73.249
0.39 211.694 72.997
0.40 219.485 72.826
0.41 232.241 72.680
0.42 238.556 71.922
0.43 246.683 70.213
0.44 256.877 69.097
0.45 263.578 69.134
0.46 280.360 69.887
0.47 288.265 71.221
0.48 289.856 72.382
0.49 291.547 73.075
0.50 290.984 73.476
0.51 290.065 73.589
0.52 287.053 73.433
0.53 280.932 73.573
0.54 275.040 73.777
0.55 266.350 73.279
0.56 250.448 73.012
0.57 237.433 73.384
0.58 221.807 73.446
0.59 208.799 73.225
0.60 199.232 72.792
0.61 193.817 71.949
0.62 193.087 70.989
0.63 194.426 70.232
0.64 194.848 69.542
0.65 195.318 68.806
0.66 196.107 68.360
0.67 198.274 67.955
0.68 201.642 67.699
0.69 205.329 68.244
0.70 208.264 68.989
0.71 211.834 69.209
0.72 214.854 69.439
0.73 217.369 69.745
0.74 225.113 70.129
0.75 228.260 71.024
0.76 227.647 71.933
0.77 228.788 72.629
0.78 230.383 73.236
0.79 232.222 73.482
0.80 233.948 73.376
0.81 235.146 73.320
0.82 235.749 73.188
0.83 235.909 72.659
0.84 235.511 71.744
0.85 235.714 70.724
0.86 235.721 69.917
0.87 235.335 69.432
0.88 235.884 69.300
0.89 239.112 68.945
0.90 248.048 67.678
0.91 252.773 65.799
0.92 246.215 63.375
0.93 232.153 59.896
0.94 234.551 57.532
0.95 --undefined-- 58.192
0.96 --undefined-- 59.921
0.97 --undefined-- 63.807
0.98 256.026 67.063
0.99 246.122 68.278
1.00 238.435 68.335
1.01 233.823 68.426
1.02 230.728 68.847
1.03 228.734 69.424
1.04 227.772 69.667
1.05 227.402 69.506
1.06 227.754 69.657
1.07 227.999 70.087
1.08 228.621 70.125
1.09 230.638 69.811
1.10 235.888 69.385
1.11 238.066 68.777
1.12 239.154 68.071
1.13 240.991 67.220
1.14 242.897 66.059
1.15 242.277 64.488
1.16 238.587 61.637
1.17 224.211 57.335
1.18 --undefined-- 55.067
1.19 --undefined-- 53.788
1.20 --undefined-- 53.667
1.21 275.768 57.535
1.22 278.027 59.840
1.23 273.099 60.297
1.24 --undefined-- 61.128
1.25 --undefined-- 61.583
1.26 --undefined-- 60.520
1.27 --undefined-- 58.477
1.28 --undefined-- 57.347
1.29 --undefined-- 57.687
1.30 --undefined-- 58.024
1.31 --undefined-- 58.039
1.32 218.827 59.755
1.33 203.607 62.283
1.34 192.226 64.533
1.35 184.900 66.091
1.36 180.996 66.839
1.37 179.110 67.018
1.38 178.307 66.824
1.39 178.106 66.580
1.40 178.457 66.632
1.41 181.385 67.081
1.42 186.565 67.886
1.43 188.795 68.881
1.44 193.524 69.563
1.45 200.529 69.162
1.46 206.136 67.798
1.47 222.377 67.126
1.48 234.688 67.302
1.49 247.679 67.085
1.50 257.979 66.930
1.51 265.900 67.319
1.52 277.097 68.064
1.53 287.791 69.059
1.54 295.857 69.779
1.55 152.329 69.978
1.56 157.055 70.277
1.57 161.604 71.073
1.58 164.635 71.950
1.59 169.752 72.691
1.60 170.024 73.002
1.61 165.196 72.824
1.62 161.909 72.389
1.63 158.103 71.334
1.64 151.350 69.420
1.65 291.117 68.090
1.66 285.907 67.944
1.67 282.333 68.078
1.68 265.955 68.797
1.69 249.176 69.981
1.70 221.918 71.436
1.71 212.928 72.697
1.72 203.129 73.248
1.73 195.203 73.331
1.74 191.982 73.313
1.75 188.599 72.744
1.76 181.577 70.937
1.77 --undefined-- 68.375
1.78 --undefined-- 65.678
1.79 --undefined-- 62.144
1.80 --undefined-- 58.359
1.81 --undefined-- 55.731
1.82 --undefined-- 53.436
1.83 --undefined-- 51.541
1.84 --undefined-- 52.037
1.85 --undefined-- 53.396
1.86 --undefined-- 54.756
1.87 --undefined-- 58.786
1.88 --undefined-- 62.162
1.89 179.088 63.843
1.90 183.772 64.840
1.91 182.342 65.610
1.92 179.709 65.918
1.93 179.362 65.926
1.94 174.467 65.845
1.95 170.389 65.710
1.96 165.497 65.719
1.97 161.443 65.156
1.98 154.815 63.825
1.99 151.612 62.882
2.00 149.810 62.178
2.01 149.964 61.891
2.02 153.989 63.154
2.03 158.252 64.578
2.04 159.333 65.554
2.05 159.841 66.245
2.06 161.034 66.236
2.07 168.943 65.830
2.08 170.931 65.666
2.09 171.394 65.006
2.10 164.420 62.914
2.11 163.147 59.354
2.12 172.237 56.152
2.13 171.388 57.012
2.14 --undefined-- 59.127
2.15 --undefined-- 59.978
2.16 248.471 60.907
2.17 248.108 63.694
2.18 230.610 66.690
2.19 214.957 68.259
2.20 209.192 69.346
2.21 204.490 70.415
2.22 198.788 71.057
2.23 195.067 71.458
2.24 194.183 71.604
2.25 194.107 71.316
2.26 194.834 70.595
2.27 196.194 69.338
2.28 198.041 67.850
2.29 201.332 66.907
2.30 203.535 66.312
2.31 208.370 65.832
2.32 211.632 66.057
2.33 212.509 66.183
2.34 211.306 65.254
2.35 207.830 62.784
2.36 202.683 58.657
2.37 --undefined-- 55.218
2.38 --undefined-- 53.456
2.39 --undefined-- 53.039
2.40 --undefined-- 54.838
2.41 --undefined-- 55.215
2.42 --undefined-- 56.467
2.43 --undefined-- 57.841
2.44 --undefined-- 57.094
2.45 --undefined-- 57.188
2.46 --undefined-- 58.710
2.47 --undefined-- 59.812
2.48 229.999 62.244
2.49 185.788 65.023
2.50 173.969 66.658
2.51 167.260 66.918
2.52 163.691 66.352
2.53 160.511 65.918
2.54 158.700 66.162
2.55 157.017 66.165
2.56 156.815 65.788
2.57 157.311 66.607
2.58 158.244 67.927
2.59 158.716 67.970
2.60 160.625 66.938
2.61 165.884 66.561
2.62 172.119 67.951
2.63 176.519 69.947
2.64 184.123 71.661
2.65 191.915 72.540
2.66 199.895 71.911
2.67 218.208 70.178
2.68 233.278 68.895
2.69 247.732 68.154
2.70 261.994 67.938
2.71 268.135 67.631
2.72 268.692 65.612
2.73 255.323 61.171
2.74 250.732 56.785
2.75 --undefined-- 57.059
2.76 --undefined-- 57.319
2.77 --undefined-- 57.674
2.78 --undefined-- 59.789
2.79 --undefined-- 60.529
2.80 --undefined-- 58.228
2.81 --undefined-- 53.209
2.82 --undefined-- 51.022
2.83 --undefined-- 55.198
2.84 296.097 59.986
2.85 277.042 62.763
2.86 228.739 63.756
2.87 218.762 64.744
2.88 209.046 66.749
2.89 205.881 68.919
2.90 204.926 70.322
2.91 205.017 70.627
2.92 204.424 70.276
2.93 203.150 70.522
2.94 201.983 72.037
2.95 199.347 74.166
2.96 195.037 76.177
2.97 192.227 77.562
2.98 191.126 77.890
2.99 190.700 76.735
3.00 190.240 73.936
3.01 188.170 69.864
3.02 186.657 65.306
3.03 191.048 61.542
3.04 191.701 60.970
3.05 254.513 62.865
3.06 255.776 63.290
3.07 258.169 60.767
3.08 259.385 55.344
3.09 --undefined-- 52.196
3.10 --undefined-- 57.382
3.11 --undefined-- 62.525
3.12 --undefined-- 64.728
3.13 --undefined-- 63.678
3.14 --undefined-- 60.756
3.15 --undefined-- 60.918
3.16 --undefined-- 62.672
3.17 --undefined-- 64.755
3.18 --undefined-- 65.896
3.19 --undefined-- 65.162
3.20 --undefined-- 64.768
3.21 --undefined-- 65.508
3.22 --undefined-- 64.926
3.23 --undefined-- 63.081
3.24 --undefined-- 61.507
3.25 --undefined-- 61.344
3.26 172.488 62.781
3.27 170.334 63.881
3.28 167.888 64.237
3.29 167.498 64.649
3.30 166.563 65.388
3.31 166.591 66.169
3.32 167.692 66.545
3.33 171.844 66.854
3.34 176.181 67.714
3.35 181.545 68.579
3.36 188.102 68.829
3.37 192.864 68.008
3.38 202.979 65.926
3.39 204.931 63.360
3.40 203.766 63.470
3.41 204.373 65.751
3.42 --undefined-- 65.847
3.43 --undefined-- 63.500
3.44 --undefined-- 61.566
3.45 --undefined-- 60.576
3.46 --undefined-- 59.519
3.47 --undefined-- 61.648
3.48 --undefined-- 66.026
3.49 240.051 69.694
3.50 228.168 71.779
3.51 213.891 72.497
3.52 195.927 72.449
3.53 184.405 71.988
3.54 177.355 70.748
3.55 176.154 69.132
3.56 176.748 67.958
3.57 178.313 67.286
3.58 179.848 66.897
3.59 180.351 65.971
3.60 179.710 63.668
3.61 180.337 61.147
3.62 179.892 59.243
3.63 --undefined-- 56.731
3.64 --undefined-- 58.802
3.65 --undefined-- 63.646
3.66 193.066 66.741
3.67 182.996 68.242
3.68 181.304 68.305
3.69 179.021 67.519
3.70 177.912 66.763
3.71 176.307 65.948
3.72 175.030 65.380
3.73 177.067 65.436
3.74 175.594 65.347
3.75 173.005 64.815
3.76 171.509 64.289
3.77 170.580 64.575
3.78 171.055 65.497
3.79 171.364 65.874
3.80 162.433 66.088
3.81 162.799 66.860
3.82 164.783 67.450
3.83 164.412 67.508
3.84 162.935 67.206
3.85 161.546 66.853
3.86 161.061 66.737
3.87 161.190 67.245
3.88 162.383 67.890
3.89 165.559 67.901
3.90 168.717 67.380
3.91 168.475 66.032
3.92 165.667 62.917
3.93 166.017 58.639
3.94 168.103 58.065
3.95 --undefined-- 59.925
3.96 --undefined-- 61.492
3.97 --undefined-- 61.623
3.98 --undefined-- 60.802
3.99 --undefined-- 62.573
4.00 --undefined-- 66.777
4.01 231.250 70.086
4.02 229.453 71.450
4.03 229.108 71.289
4.04 228.808 70.688
4.05 227.334 70.553
4.06 224.734 70.746
4.07 224.112 70.533
4.08 231.612 69.665
4.09 230.980 68.710
4.10 232.577 68.599
4.11 234.614 68.320
4.12 234.943 66.766
4.13 233.388 63.871
4.14 219.875 59.753
4.15 234.925 57.474
4.16 --undefined-- 58.633
4.17 --undefined-- 58.742
4.18 --undefined-- 56.799
4.19 --undefined-- 56.493
4.20 240.192 61.500
4.21 245.887 65.625
4.22 257.174 67.693
4.23 261.042 68.352
4.24 261.768 68.179
4.25 259.715 67.700
4.26 257.289 67.642
4.27 255.587 68.304
4.28 253.223 69.112
4.29 251.026 69.276
4.30 248.271 69.078
4.31 242.703 69.316
4.32 236.711 70.285
4.33 230.306 71.799
4.34 222.553 72.850
4.35 208.368 72.538
4.36 193.220 71.076
4.37 182.616 69.608
4.38 178.139 67.910
4.39 159.059 65.239
4.40 --undefined-- 62.765
4.41 --undefined-- 60.861
4.42 --undefined-- 59.851
4.43 --undefined-- 60.761
4.44 --undefined-- 61.701
4.45 --undefined-- 62.811
4.46 --undefined-- 64.363
4.47 --undefined-- 63.972
4.48 --undefined-- 62.941
4.49 --undefined-- 62.825
4.50 --undefined-- 60.681
4.51 --undefined-- 56.042
4.52 --undefined-- 56.080
4.53 --undefined-- 59.858
4.54 --undefined-- 61.727
4.55 --undefined-- 61.109
4.56 --undefined-- 60.502
4.57 --undefined-- 62.325
4.58 --undefined-- 62.245
4.59 --undefined-- 59.999
4.60 --undefined-- 59.235
4.61 --undefined-- 58.857
4.62 --undefined-- 56.831
4.63 --undefined-- 55.902
4.64 --undefined-- 54.777
4.65 --undefined-- 52.597
4.66 --undefined-- 54.322
4.67 --undefined-- 58.730
4.68 274.641 62.806
4.69 297.890 64.435
4.70 291.741 63.833
4.71 293.839 63.816
4.72 271.565 64.298
4.73 290.369 62.661
4.74 289.111 58.662
4.75 --undefined-- 55.026
4.76 --undefined-- 57.326
4.77 278.392 61.306
4.78 294.052 63.152
4.79 243.077 62.327
4.80 238.565 60.938
4.81 264.666 60.408
4.82 292.399 58.389
4.83 289.098 57.438
4.84 274.101 58.909
4.85 278.006 59.205
4.86 264.517 59.840
4.87 268.039 60.507
4.88 --undefined-- 59.272
4.89 --undefined-- 56.179
4.90 --undefined-- 53.626
4.91 --undefined-- 57.550
4.92 --undefined-- --undefined--
4.93 126.118 --undefined--
4.94 --undefined-- --undefined--
4.95 --undefined-- --undefined--
