Time Pitch Intensity
0.01 --undefined-- --undefined--
0.02 236.067 --undefined--
0.03 250.044 --undefined--
0.04 261.955 --undefined--
0.05 --undefined-- 63.850
0.06 --undefined-- 63.857
0.07 --undefined-- 61.611
0.08 --undefined-- 57.054
0.09 --undefined-- 53.018
0.10 --undefined-- 48.839
0.11 --undefined-- 45.973
0.12 --undefined-- 44.423
0.13 --undefined-- 43.594
0.14 --undefined-- 42.113
0.15 --undefined-- 40.171
0.16 --undefined-- 39.597
0.17 --undefined-- 40.075
0.18 --undefined-- 40.388
0.19 --undefined-- 40.145
0.20 --undefined-- 39.477
0.21 --undefined-- 38.656
0.22 --undefined-- 38.289
0.23 --undefined-- 38.852
0.24 --undefined-- 39.785
0.25 --undefined-- 40.370
0.26 --undefined-- 41.242
0.27 --undefined-- 41.996
0.28 --undefined-- 41.932
0.29 --undefined-- 41.600
0.30 --undefined-- 41.187
0.31 --undefined-- 39.958
0.32 --undefined-- 38.131
0.33 --undefined-- 38.239
0.34 --undefined-- 39.280
0.35 --undefined-- 39.102
0.36 --undefined-- 38.777
0.37 --undefined-- 39.402
0.38 --undefined-- 39.484
0.39 --undefined-- 40.538
0.40 --undefined-- 49.358
0.41 --undefined-- 57.642
0.42 --undefined-- 63.430
0.43 --undefined-- 66.463
0.44 --undefined-- 67.339
0.45 --undefined-- 67.447
0.46 --undefined-- 67.943
0.47 --undefined-- 70.770
0.48 220.556 73.422
0.49 212.747 74.705
0.50 214.340 75.440
0.51 217.269 75.869
0.52 220.400 75.176
0.53 232.550 72.594
0.54 249.814 68.360
0.55 253.407 64.418
0.56 249.482 61.346
0.57 227.542 58.785
0.58 --undefined-- 58.554
0.59 --undefined-- 58.042
0.60 --undefined-- 58.671
0.61 271.505 63.187
0.62 271.431 67.002
0.63 269.330 69.221
0.64 261.697 70.977
0.65 247.051 72.721
0.66 227.181 73.265
0.67 198.771 72.581
0.68 178.000 71.664
0.69 157.537 70.529
0.70 149.408 68.842
0.71 145.499 66.760
0.72 141.975 64.757
0.73 139.647 63.193
0.74 136.689 61.651
0.75 134.575 59.682
0.76 132.188 57.108
0.77 130.660 54.992
0.78 --undefined-- 57.263
0.79 --undefined-- 58.621
0.80 --undefined-- 56.843
0.81 --undefined-- 54.387
0.82 --undefined-- 53.693
0.83 --undefined-- 54.950
0.84 173.939 57.772
0.85 168.728 62.807
0.86 157.157 67.475
0.87 150.327 70.202
0.88 145.558 71.308
0.89 143.071 71.494
0.90 143.164 71.002
0.91 143.386 69.202
0.92 141.714 65.179
0.93 --undefined-- 60.017
0.94 177.313 61.757
0.95 178.131 65.389
0.96 179.164 67.385
0.97 182.513 68.270
0.98 187.694 68.591
0.99 195.181 68.895
1.00 204.212 69.504
1.01 212.773 69.963
1.02 225.187 70.024
1.03 232.757 70.046
1.04 231.896 70.456
1.05 228.150 71.217
1.06 222.777 72.105
1.07 216.588 72.943
1.08 210.857 73.487
1.09 205.165 73.620
1.10 199.412 73.309
1.11 193.296 72.209
1.12 187.675 69.922
1.13 181.411 66.159
1.14 173.006 60.703
1.15 --undefined-- 54.730
1.16 --undefined-- 51.378
1.17 --undefined-- 50.775
1.18 --undefined-- 51.070
1.19 --undefined-- 50.757
1.20 --undefined-- 54.569
1.21 --undefined-- 63.074
1.22 --undefined-- 68.485
1.23 --undefined-- 70.786
1.24 --undefined-- 71.004
1.25 --undefined-- 69.610
1.26 --undefined-- 66.525
1.27 76.966 63.605
1.28 89.935 63.084
1.29 90.152 61.751
1.30 --undefined-- 58.389
1.31 --undefined-- 55.879
1.32 --undefined-- 57.523
1.33 --undefined-- 59.242
1.34 113.408 60.474
1.35 112.422 60.832
1.36 113.836 59.462
1.37 112.746 56.308
1.38 --undefined-- 51.890
1.39 --undefined-- 47.969
1.40 --undefined-- 46.849
1.41 --undefined-- 46.774
1.42 --undefined-- 46.482
1.43 --undefined-- 45.349
1.44 --undefined-- 44.124
1.45 --undefined-- 44.754
1.46 --undefined-- 46.486
1.47 --undefined-- 47.530
1.48 --undefined-- 50.166
1.49 --undefined-- 56.652
1.50 153.503 62.200
1.51 152.711 66.360
1.52 151.063 69.784
1.53 151.984 72.208
1.54 153.291 73.216
1.55 154.073 72.675
1.56 153.453 70.370
1.57 151.139 65.971
1.58 159.147 61.552
1.59 176.485 63.849
1.60 179.531 67.407
1.61 177.111 68.674
1.62 173.673 67.689
1.63 170.068 65.030
1.64 165.379 61.201
1.65 165.519 56.622
1.66 --undefined-- 53.948
1.67 --undefined-- 54.945
1.68 --undefined-- 55.985
1.69 --undefined-- 56.543
1.70 --undefined-- 58.088
1.71 188.873 61.382
1.72 185.181 65.767
1.73 173.413 69.451
1.74 167.717 71.334
1.75 163.967 71.565
1.76 162.297 70.739
1.77 162.040 69.641
1.78 162.163 69.194
1.79 161.280 69.491
1.80 159.679 70.018
1.81 158.590 70.359
1.82 157.782 70.192
1.83 157.572 69.413
1.84 156.896 68.328
1.85 157.061 67.949
1.86 158.728 68.926
1.87 156.981 69.566
1.88 --undefined-- 68.823
1.89 --undefined-- 67.596
1.90 --undefined-- 65.277
1.91 --undefined-- 60.740
1.92 --undefined-- 55.651
1.93 --undefined-- 51.012
1.94 --undefined-- 50.547
1.95 --undefined-- 51.025
1.96 --undefined-- 52.772
1.97 --undefined-- 58.120
1.98 --undefined-- 61.814
1.99 --undefined-- 63.375
2.00 --undefined-- 63.243
2.01 --undefined-- 62.589
2.02 --undefined-- 63.046
2.03 --undefined-- 66.157
2.04 218.400 69.721
2.05 210.255 71.682
2.06 206.108 72.560
2.07 201.134 72.839
2.08 196.944 72.586
2.09 193.948 72.018
2.10 192.689 71.381
2.11 192.257 70.822
2.12 192.823 69.853
2.13 196.463 67.767
2.14 206.771 64.704
2.15 209.396 62.009
2.16 206.506 60.164
2.17 206.773 59.459
2.18 205.735 60.317
2.19 207.204 60.977
2.20 209.983 61.827
2.21 213.794 64.100
2.22 213.930 67.172
2.23 208.646 69.380
2.24 203.573 70.190
2.25 201.077 69.988
2.26 198.361 69.299
2.27 192.523 68.250
2.28 187.106 66.733
2.29 181.648 64.261
2.30 175.080 60.291
2.31 --undefined-- 54.887
2.32 --undefined-- 53.210
2.33 --undefined-- 56.062
2.34 --undefined-- 57.856
2.35 --undefined-- 61.920
2.36 --undefined-- 66.819
2.37 159.801 69.513
2.38 154.052 70.115
2.39 150.658 68.729
2.40 150.275 66.784
2.41 151.820 67.687
2.42 154.022 68.860
2.43 157.555 68.802
2.44 161.139 67.612
2.45 163.607 64.850
2.46 162.040 59.906
2.47 --undefined-- 52.987
2.48 --undefined-- 51.318
2.49 --undefined-- 58.183
2.50 --undefined-- 64.297
2.51 --undefined-- 68.013
2.52 --undefined-- 69.310
2.53 134.669 68.964
2.54 130.330 68.059
2.55 128.590 67.334
2.56 127.782 66.486
2.57 126.752 64.566
2.58 124.849 60.980
2.59 120.413 55.569
2.60 --undefined-- 49.321
2.61 --undefined-- 46.111
2.62 --undefined-- 46.358
2.63 --undefined-- 46.944
2.64 --undefined-- 46.936
2.65 --undefined-- 49.530
2.66 166.531 54.722
2.67 165.627 58.419
2.68 165.559 60.250
2.69 166.531 60.917
2.70 167.835 62.354
2.71 161.239 64.981
2.72 151.124 66.955
2.73 145.694 67.713
2.74 142.621 67.607
2.75 141.059 67.288
2.76 139.514 67.243
2.77 138.042 67.582
2.78 137.356 67.845
2.79 137.082 67.450
2.80 136.719 66.585
2.81 137.413 65.849
2.82 136.635 65.531
2.83 135.468 65.547
2.84 134.877 65.674
2.85 133.432 65.568
2.86 133.489 65.094
2.87 134.523 64.687
2.88 136.467 65.022
2.89 137.227 65.789
2.90 136.792 66.502
2.91 135.963 67.824
2.92 135.709 69.182
2.93 130.556 69.701
2.94 128.099 69.883
2.95 126.935 70.004
2.96 127.270 70.038
2.97 129.191 69.807
2.98 132.127 69.023
2.99 136.603 68.102
3.00 142.849 67.790
3.01 145.367 67.007
3.02 145.653 64.594
3.03 145.547 60.140
3.04 --undefined-- 53.681
3.05 --undefined-- 48.652
3.06 --undefined-- 46.566
3.07 --undefined-- 45.773
3.08 --undefined-- 45.983
3.09 --undefined-- 45.341
3.10 --undefined-- 44.221
3.11 --undefined-- 43.435
3.12 --undefined-- 42.024
3.13 --undefined-- 40.424
3.14 --undefined-- 40.080
3.15 --undefined-- 40.418
3.16 --undefined-- 40.107
3.17 --undefined-- 39.086
3.18 --undefined-- 38.618
3.19 --undefined-- 39.639
3.20 --undefined-- 42.470
3.21 --undefined-- 46.820
3.22 --undefined-- 50.735
3.23 --undefined-- 58.287
3.24 --undefined-- 65.771
3.25 --undefined-- 70.309
3.26 179.550 72.216
3.27 177.727 72.521
3.28 172.495 72.528
3.29 166.798 72.451
3.30 165.277 71.410
3.31 165.134 68.471
3.32 164.385 62.848
3.33 --undefined-- 54.228
3.34 --undefined-- 47.379
3.35 --undefined-- 45.779
3.36 --undefined-- 45.744
3.37 --undefined-- 52.896
3.38 --undefined-- 62.244
3.39 --undefined-- 68.073
3.40 --undefined-- 70.659
3.41 152.214 70.819
3.42 146.438 69.438
3.43 141.022 66.898
3.44 137.067 63.393
3.45 138.266 60.461
3.46 142.441 58.533
3.47 --undefined-- 55.660
3.48 --undefined-- 51.650
3.49 --undefined-- 49.198
3.50 --undefined-- 49.696
3.51 --undefined-- 50.752
3.52 --undefined-- 50.042
3.53 --undefined-- 48.622
3.54 --undefined-- 48.434
3.55 --undefined-- 49.341
3.56 --undefined-- 50.840
3.57 --undefined-- 53.116
3.58 196.592 56.091
3.59 196.861 57.641
3.60 195.946 57.648
3.61 196.355 57.531
3.62 197.588 57.951
3.63 198.701 58.426
3.64 198.391 58.688
3.65 198.421 58.916
3.66 199.116 59.771
3.67 203.530 62.943
3.68 214.350 68.165
3.69 221.291 72.208
3.70 223.593 73.748
3.71 216.106 73.310
3.72 209.266 72.819
3.73 206.847 72.422
3.74 203.381 70.653
3.75 200.425 67.107
3.76 199.755 61.625
3.77 208.544 54.989
3.78 207.542 50.469
3.79 --undefined-- 47.226
3.80 --undefined-- 43.982
3.81 --undefined-- 42.065
3.82 --undefined-- 42.871
3.83 --undefined-- 44.565
3.84 --undefined-- 45.137
3.85 --undefined-- 43.786
3.86 --undefined-- 41.890
3.87 --undefined-- 40.677
3.88 --undefined-- 39.985
3.89 --undefined-- 45.821
3.90 --undefined-- 55.085
3.91 --undefined-- 59.901
3.92 --undefined-- 61.794
3.93 --undefined-- 64.841
3.94 177.835 68.740
3.95 176.074 71.075
3.96 171.770 71.090
3.97 162.207 69.190
3.98 157.638 67.717
3.99 155.246 67.796
4.00 153.350 68.000
4.01 151.207 68.069
4.02 150.079 68.207
4.03 149.197 68.617
4.04 148.084 68.954
4.05 147.262 68.954
4.06 146.114 68.601
4.07 145.201 68.063
4.08 144.683 67.852
4.09 144.833 68.149
4.10 145.606 68.521
4.11 145.717 68.729
4.12 145.567 68.485
4.13 145.897 67.464
4.14 147.712 65.780
4.15 148.427 64.179
4.16 --undefined-- 63.967
4.17 --undefined-- 64.427
4.18 84.198 63.611
4.19 83.121 61.667
4.20 --undefined-- 59.596
4.21 --undefined-- 59.163
4.22 186.513 58.823
4.23 180.347 55.449
4.24 --undefined-- 48.945
4.25 --undefined-- 43.929
4.26 --undefined-- 43.141
4.27 --undefined-- 46.123
4.28 --undefined-- 49.981
4.29 --undefined-- 52.156
4.30 --undefined-- 53.745
4.31 --undefined-- 55.236
4.32 190.144 56.287
4.33 189.297 57.106
4.34 187.356 58.001
4.35 185.770 59.383
4.36 183.687 61.854
4.37 183.329 64.936
4.38 180.782 67.328
4.39 175.252 69.174
4.40 172.096 70.108
4.41 169.485 68.698
4.42 165.055 64.159
4.43 155.325 59.802
4.44 150.381 60.563
4.45 145.611 59.843
4.46 --undefined-- 56.448
4.47 --undefined-- 50.951
4.48 --undefined-- 46.619
4.49 --undefined-- 45.845
4.50 --undefined-- 46.336
4.51 --undefined-- 45.963
4.52 --undefined-- 44.508
4.53 --undefined-- 49.564
4.54 --undefined-- 55.551
4.55 --undefined-- 59.035
4.56 --undefined-- 61.754
4.57 --undefined-- 62.844
4.58 146.566 62.153
4.59 137.107 61.124
4.60 132.306 60.358
4.61 130.233 59.616
4.62 130.166 58.362
4.63 --undefined-- 56.258
4.64 --undefined-- 55.601
4.65 --undefined-- 58.078
4.66 133.741 59.633
4.67 132.946 59.675
4.68 138.675 59.098
4.69 145.768 58.520
4.70 151.244 58.197
4.71 156.462 57.911
4.72 161.411 57.592
4.73 162.972 58.022
4.74 163.878 59.607
4.75 --undefined-- 62.642
4.76 --undefined-- 66.807
4.77 --undefined-- 68.688
4.78 --undefined-- 67.088
4.79 --undefined-- 62.582
4.80 --undefined-- 59.789
4.81 --undefined-- 60.096
4.82 --undefined-- 60.596
4.83 --undefined-- 61.719
4.84 --undefined-- 62.532
4.85 --undefined-- 63.342
4.86 --undefined-- 67.176
4.87 --undefined-- 70.304
4.88 177.677 71.034
4.89 166.574 70.068
4.90 153.554 68.715
4.91 146.289 67.868
4.92 139.878 67.858
4.93 135.752 68.525
4.94 132.408 68.989
4.95 130.365 68.670
4.96 128.686 67.314
4.97 126.732 65.334
4.98 126.223 63.462
4.99 125.435 61.930
5.00 124.470 60.350
5.01 --undefined-- 58.637
5.02 --undefined-- 56.860
5.03 --undefined-- 54.428
5.04 --undefined-- 51.621
5.05 --undefined-- 47.542
5.06 --undefined-- 42.613
5.07 --undefined-- 40.183
5.08 --undefined-- 39.799
5.09 --undefined-- 40.116
5.10 --undefined-- 39.114
5.11 --undefined-- 38.018
5.12 --undefined-- 38.719
5.13 --undefined-- 41.791
5.14 --undefined-- 45.096
5.15 --undefined-- 45.436
5.16 --undefined-- 43.323
5.17 --undefined-- 43.021
5.18 --undefined-- 44.897
5.19 --undefined-- 45.696
5.20 --undefined-- 45.843
5.21 --undefined-- 46.241
5.22 --undefined-- 46.640
5.23 --undefined-- 46.940
5.24 --undefined-- 47.554
5.25 --undefined-- 48.012
5.26 --undefined-- 48.506
5.27 --undefined-- 48.990
5.28 --undefined-- 48.750
5.29 --undefined-- 48.655
5.30 --undefined-- 48.689
5.31 --undefined-- 48.522
5.32 --undefined-- 48.565
5.33 --undefined-- 48.764
5.34 --undefined-- 49.360
5.35 --undefined-- 50.366
5.36 --undefined-- 50.937
5.37 --undefined-- 51.010
5.38 --undefined-- 51.223
5.39 --undefined-- 51.457
5.40 --undefined-- 51.354
5.41 --undefined-- 50.967
5.42 --undefined-- 50.695
5.43 --undefined-- 50.361
5.44 --undefined-- 49.666
5.45 --undefined-- --undefined--
5.46 --undefined-- --undefined--
5.47 --undefined-- --undefined--
5.48 --undefined-- --undefined--
