Time Pitch Intensity
0.01 --undefined-- --undefined--
0.02 --undefined-- --undefined--
0.03 --undefined-- --undefined--
0.04 --undefined-- --undefined--
0.05 --undefined-- 65.376
0.06 163.080 71.639
0.07 151.352 76.200
0.08 138.880 77.930
0.09 132.233 78.207
0.10 129.573 78.299
0.11 127.523 78.146
0.12 124.060 77.430
0.13 121.028 76.261
0.14 119.937 75.219
0.15 119.986 74.689
0.16 119.564 74.705
0.17 119.708 75.133
0.18 117.948 75.873
0.19 116.595 76.794
0.20 114.991 77.611
0.21 114.730 78.075
0.22 114.543 78.305
0.23 118.490 78.564
0.24 120.263 78.811
0.25 121.183 78.670
0.26 123.437 78.163
0.27 126.429 77.639
0.28 126.202 76.773
0.29 125.151 75.249
0.30 128.801 73.679
0.31 129.871 72.624
0.32 130.648 72.384
0.33 143.230 74.751
0.34 147.061 77.687
0.35 145.216 79.027
0.36 144.873 78.868
0.37 143.330 77.466
0.38 136.512 74.385
0.39 134.516 70.066
0.40 146.586 69.663
0.41 145.640 73.684
0.42 142.660 76.767
0.43 136.093 78.187
0.44 133.077 78.590
0.45 121.181 78.699
0.46 117.002 78.644
0.47 112.073 78.069
0.48 --undefined-- 76.599
0.49 --undefined-- 73.831
0.50 --undefined-- 71.070
0.51 --undefined-- 69.208
0.52 --undefined-- 65.591
0.53 --undefined-- 60.380
0.54 --undefined-- 61.709
0.55 --undefined-- 63.618
0.56 --undefined-- 62.041
0.57 --undefined-- 64.155
0.58 --undefined-- 69.099
0.59 --undefined-- 72.501
0.60 --undefined-- 74.513
0.61 --undefined-- 75.327
0.62 122.165 75.511
0.63 119.721 75.388
0.64 119.193 75.163
0.65 118.033 75.058
0.66 118.331 75.331
0.67 118.881 75.748
0.68 119.078 75.986
0.69 118.479 76.086
0.70 117.429 76.066
0.71 116.943 76.087
0.72 118.039 76.355
0.73 119.853 76.353
0.74 120.549 74.977
0.75 118.917 71.367
0.76 104.977 65.139
0.77 115.576 57.457
0.78 119.469 53.121
0.79 --undefined-- 51.490
0.80 --undefined-- 50.053
0.81 --undefined-- 48.471
0.82 --undefined-- 46.777
0.83 --undefined-- 47.223
0.84 --undefined-- 57.263
0.85 --undefined-- 65.660
0.86 --undefined-- 70.525
0.87 126.214 73.277
0.88 127.278 75.033
0.89 126.812 76.236
0.90 126.648 77.001
0.91 124.846 77.374
0.92 121.962 77.488
0.93 120.205 77.368
0.94 119.212 76.546
0.95 119.352 74.658
0.96 119.133 71.975
0.97 118.529 68.873
0.98 113.246 65.511
0.99 112.796 62.845
1.00 115.634 63.480
1.01 140.426 67.952
1.02 133.917 71.889
1.03 119.912 74.000
1.04 109.832 75.216
1.05 108.426 76.476
1.06 106.149 77.532
1.07 105.045 77.959
1.08 105.331 77.862
1.09 104.740 77.660
1.10 105.187 77.595
1.11 105.772 77.619
1.12 105.762 77.551
1.13 103.915 77.321
1.14 103.975 77.197
1.15 106.134 77.265
1.16 106.265 77.216
1.17 105.972 76.805
1.18 106.079 75.626
1.19 105.292 73.013
1.20 101.644 68.439
1.21 --undefined-- 63.829
1.22 --undefined-- 64.767
1.23 --undefined-- 66.132
1.24 --undefined-- 68.732
1.25 --undefined-- 74.288
1.26 143.915 77.688
1.27 130.704 78.513
1.28 127.486 77.995
1.29 126.010 77.043
1.30 123.035 75.170
1.31 121.760 71.597
1.32 --undefined-- 66.272
1.33 --undefined-- 61.008
1.34 --undefined-- 58.564
1.35 --undefined-- 57.716
1.36 --undefined-- 56.538
1.37 --undefined-- 55.336
1.38 --undefined-- 53.647
1.39 --undefined-- 51.799
1.40 --undefined-- 51.062
1.41 --undefined-- 51.191
1.42 --undefined-- 52.778
1.43 --undefined-- 57.871
1.44 --undefined-- 66.878
1.45 --undefined-- 73.371
1.46 131.574 76.474
1.47 124.535 77.265
1.48 111.756 77.097
1.49 108.299 76.895
1.50 105.540 77.093
1.51 104.497 77.723
1.52 105.361 78.185
1.53 104.399 78.158
1.54 103.599 77.993
1.55 103.931 77.791
1.56 103.411 77.612
1.57 103.367 77.610
1.58 104.188 77.438
1.59 103.685 76.834
1.60 101.816 75.852
1.61 100.130 74.216
1.62 98.257 71.589
1.63 96.958 68.254
1.64 --undefined-- 66.008
1.65 141.959 68.075
1.66 139.589 72.037
1.67 112.115 75.515
1.68 104.324 77.390
1.69 103.309 78.026
1.70 104.904 78.162
1.71 104.562 77.874
1.72 105.571 77.338
1.73 107.225 77.438
1.74 109.452 78.355
1.75 110.484 79.023
1.76 106.893 79.045
1.77 106.140 79.089
1.78 105.668 79.269
1.79 103.934 79.265
1.80 102.003 78.819
1.81 101.125 77.712
1.82 100.781 76.150
1.83 101.710 74.375
1.84 108.690 72.279
1.85 109.176 69.358
1.86 112.733 64.718
1.87 --undefined-- 58.084
1.88 --undefined-- 53.467
1.89 --undefined-- 54.358
1.90 --undefined-- 55.815
1.91 --undefined-- 56.640
1.92 --undefined-- 57.530
1.93 --undefined-- 58.332
1.94 --undefined-- 58.325
1.95 --undefined-- 57.867
1.96 --undefined-- 56.959
1.97 --undefined-- 55.949
1.98 --undefined-- 55.637
1.99 --undefined-- 56.006
2.00 --undefined-- 56.319
2.01 --undefined-- 55.865
2.02 --undefined-- 55.709
2.03 --undefined-- 56.226
2.04 --undefined-- 56.165
2.05 --undefined-- 55.667
2.06 170.624 56.990
2.07 169.823 59.675
2.08 161.816 61.747
2.09 160.172 62.887
2.10 152.585 63.331
2.11 148.799 63.034
2.12 141.371 62.832
2.13 142.334 67.098
2.14 153.470 72.281
2.15 140.318 75.327
2.16 127.781 76.715
2.17 124.081 77.411
2.18 124.388 77.931
2.19 126.069 78.326
2.20 127.690 78.383
2.21 128.023 78.084
2.22 134.123 77.983
2.23 140.058 78.138
2.24 142.065 78.247
2.25 145.694 78.414
2.26 151.170 78.685
2.27 156.339 78.838
2.28 162.276 78.597
2.29 165.382 77.792
2.30 164.207 76.478
2.31 166.317 75.469
2.32 168.979 75.089
2.33 172.407 74.585
2.34 172.991 73.967
2.35 172.355 73.405
2.36 170.437 72.524
2.37 162.683 70.909
2.38 153.648 68.481
2.39 145.969 65.789
2.40 147.185 65.129
2.41 138.494 68.785
2.42 165.500 73.883
2.43 149.307 77.041
2.44 145.928 78.478
2.45 144.502 79.189
2.46 144.957 79.436
2.47 145.826 79.091
2.48 146.969 78.470
2.49 148.927 77.830
2.50 149.869 77.013
2.51 151.802 76.036
2.52 154.044 74.788
2.53 154.768 72.595
2.54 158.544 68.804
2.55 150.923 63.622
2.56 153.266 58.992
2.57 153.284 56.573
2.58 152.028 56.067
2.59 --undefined-- 57.244
2.60 --undefined-- 58.990
2.61 --undefined-- 65.219
2.62 --undefined-- 72.661
2.63 162.932 76.854
2.64 155.478 78.179
2.65 147.831 77.993
2.66 141.491 77.764
2.67 138.304 77.875
2.68 134.657 77.853
2.69 129.291 77.640
2.70 126.206 77.454
2.71 125.654 77.235
2.72 126.755 77.234
2.73 129.001 77.432
2.74 128.733 77.091
2.75 124.707 75.484
2.76 118.801 72.020
2.77 111.891 66.394
2.78 --undefined-- 59.877
2.79 --undefined-- 58.798
2.80 --undefined-- 64.362
2.81 --undefined-- 71.462
2.82 148.857 76.090
2.83 136.863 77.934
2.84 131.942 78.223
2.85 128.595 78.245
2.86 126.224 78.117
2.87 124.203 77.586
2.88 123.215 76.664
2.89 123.394 75.715
2.90 124.681 75.415
2.91 127.215 76.052
2.92 128.746 77.019
2.93 127.722 77.746
2.94 126.900 78.092
2.95 126.103 77.985
2.96 124.510 77.134
2.97 122.231 74.921
2.98 121.100 70.555
2.99 124.732 63.724
3.00 123.275 57.822
3.01 125.384 56.747
3.02 125.932 56.234
3.03 --undefined-- 55.373
3.04 --undefined-- 54.548
3.05 --undefined-- 58.266
3.06 --undefined-- 67.166
3.07 --undefined-- 73.228
3.08 --undefined-- 76.274
3.09 107.369 77.315
3.10 99.537 77.552
3.11 99.943 77.519
3.12 100.774 77.198
3.13 98.813 77.126
3.14 95.656 77.278
3.15 96.045 77.406
3.16 98.032 77.699
3.17 99.817 78.107
3.18 100.636 78.369
3.19 102.609 78.442
3.20 106.664 78.571
3.21 110.987 78.878
3.22 115.049 79.127
3.23 122.943 79.323
3.24 126.816 79.375
3.25 131.457 79.371
3.26 135.818 79.514
3.27 140.386 79.550
3.28 144.231 79.278
3.29 147.716 78.842
3.30 149.874 78.256
3.31 150.770 77.060
3.32 149.596 75.057
3.33 147.216 72.877
3.34 144.703 71.288
3.35 142.012 70.518
3.36 140.233 70.445
3.37 138.682 70.887
3.38 135.951 71.851
3.39 135.091 73.357
3.40 136.274 75.123
3.41 136.731 76.564
3.42 136.093 77.337
3.43 134.454 77.435
3.44 133.295 76.684
3.45 127.974 74.496
3.46 123.500 70.364
3.47 133.530 64.546
3.48 133.243 58.822
3.49 --undefined-- 59.738
3.50 --undefined-- 68.538
3.51 160.743 74.530
3.52 159.137 77.307
3.53 158.561 77.909
3.54 159.704 77.306
3.55 158.776 75.899
3.56 154.574 74.148
3.57 165.380 74.369
3.58 171.151 76.202
3.59 169.782 77.166
3.60 166.446 77.300
3.61 161.117 77.287
3.62 154.308 77.325
3.63 148.382 77.512
3.64 138.575 77.641
3.65 126.836 77.537
3.66 120.046 77.653
3.67 113.934 77.843
3.68 104.286 77.824
3.69 97.495 77.515
3.70 95.692 77.012
3.71 98.495 76.531
3.72 98.203 76.120
3.73 97.541 75.902
3.74 98.262 75.455
3.75 97.441 73.786
3.76 93.192 70.755
3.77 94.000 67.446
3.78 --undefined-- 64.151
3.79 --undefined-- 62.172
3.80 --undefined-- 69.196
3.81 --undefined-- 75.660
3.82 137.830 78.689
3.83 123.881 79.390
3.84 122.490 79.351
3.85 121.397 79.202
3.86 118.965 78.582
3.87 --undefined-- 77.148
3.88 --undefined-- 74.578
3.89 --undefined-- 70.856
3.90 --undefined-- 68.087
3.91 --undefined-- 66.507
3.92 --undefined-- 64.115
3.93 --undefined-- 63.129
3.94 --undefined-- 64.727
3.95 81.915 68.292
3.96 80.365 72.681
3.97 89.162 75.843
3.98 119.036 77.878
3.99 127.218 78.884
4.00 128.342 79.289
4.01 127.847 79.468
4.02 124.795 79.397
4.03 121.834 79.135
4.04 120.355 78.694
4.05 119.237 78.110
4.06 118.751 77.635
4.07 119.373 77.558
4.08 120.979 77.702
4.09 121.756 77.208
4.10 119.343 74.883
4.11 111.405 70.058
4.12 105.210 63.287
4.13 122.173 59.155
4.14 --undefined-- 60.279
4.15 --undefined-- 66.995
4.16 --undefined-- 73.929
4.17 155.514 77.440
4.18 147.246 78.142
4.19 144.594 77.676
4.20 143.884 77.493
4.21 143.860 77.465
4.22 144.219 77.527
4.23 144.583 77.721
4.24 144.027 77.679
4.25 142.788 77.097
4.26 140.428 76.082
4.27 139.171 74.490
4.28 141.789 71.699
4.29 --undefined-- 67.369
4.30 --undefined-- 62.693
4.31 --undefined-- 59.708
4.32 --undefined-- 59.489
4.33 --undefined-- 60.430
4.34 --undefined-- 65.328
4.35 175.726 72.785
4.36 174.233 76.679
4.37 155.279 77.220
4.38 148.951 75.776
4.39 147.728 73.808
4.40 139.325 72.433
4.41 146.051 73.915
4.42 147.369 76.081
4.43 148.100 77.342
4.44 148.578 77.910
4.45 148.584 78.137
4.46 148.047 78.132
4.47 147.602 78.012
4.48 146.107 77.857
4.49 143.793 77.613
4.50 141.882 77.280
4.51 140.272 76.853
4.52 137.490 76.184
4.53 132.197 75.444
4.54 128.030 75.658
4.55 126.382 76.888
4.56 124.227 77.994
4.57 122.441 78.600
4.58 118.824 78.922
4.59 113.672 79.086
4.60 110.010 78.821
4.61 109.137 77.725
4.62 96.134 75.647
4.63 --undefined-- 73.534
4.64 --undefined-- 71.821
4.65 --undefined-- 68.032
4.66 --undefined-- 60.474
4.67 --undefined-- 53.053
4.68 --undefined-- 54.068
4.69 --undefined-- 54.286
4.70 --undefined-- 51.211
4.71 --undefined-- 46.250
4.72 --undefined-- 46.416
4.73 --undefined-- 49.755
4.74 --undefined-- 51.887
4.75 --undefined-- 53.136
4.76 --undefined-- 53.826
4.77 --undefined-- 53.374
4.78 --undefined-- 52.505
4.79 --undefined-- 52.331
4.80 --undefined-- 52.490
4.81 --undefined-- 52.486
4.82 --undefined-- 52.690
4.83 --undefined-- 53.223
4.84 --undefined-- 53.342
4.85 --undefined-- 53.355
4.86 --undefined-- 53.078
4.87 --undefined-- 52.552
4.88 --undefined-- 53.063
4.89 134.554 54.400
4.90 133.717 55.025
4.91 --undefined-- 53.953
4.92 --undefined-- 51.042
4.93 --undefined-- 47.781
4.94 --undefined-- 46.238
4.95 --undefined-- 47.098
4.96 --undefined-- 50.440
4.97 --undefined-- 60.972
4.98 --undefined-- 70.265
4.99 --undefined-- 75.441
5.00 142.985 77.850
5.01 140.708 --undefined--
5.02 138.045 --undefined--
5.03 --undefined-- --undefined--
5.04 --undefined-- --undefined--
