Time Pitch Intensity
0.01 --undefined-- --undefined--
0.02 158.327 --undefined--
0.03 159.699 --undefined--
0.04 160.585 --undefined--
0.05 160.238 72.866
0.06 158.821 75.032
0.07 159.986 76.199
0.08 161.853 76.819
0.09 163.753 77.191
0.10 166.019 77.429
0.11 166.934 77.196
0.12 168.298 76.518
0.13 171.370 75.777
0.14 174.761 75.009
0.15 184.211 74.468
0.16 192.425 74.196
0.17 207.907 73.542
0.18 213.032 72.427
0.19 215.864 70.868
0.20 217.314 68.858
0.21 221.880 66.990
0.22 226.505 65.053
0.23 231.824 62.055
0.24 --undefined-- 56.850
0.25 --undefined-- 49.487
0.26 --undefined-- 42.108
0.27 --undefined-- 37.084
0.28 --undefined-- 34.903
0.29 --undefined-- 35.502
0.30 --undefined-- 36.607
0.31 --undefined-- 36.469
0.32 --undefined-- 36.578
0.33 --undefined-- 37.978
0.34 --undefined-- 40.219
0.35 --undefined-- 41.996
0.36 --undefined-- 43.043
0.37 --undefined-- 43.756
0.38 --undefined-- 44.345
0.39 --undefined-- 44.780
0.40 --undefined-- 45.304
0.41 --undefined-- 46.107
0.42 --undefined-- 47.273
0.43 --undefined-- 48.834
0.44 --undefined-- 49.521
0.45 --undefined-- 49.412
0.46 --undefined-- 50.183
0.47 --undefined-- 51.028
0.48 --undefined-- 51.012
0.49 --undefined-- 50.661
0.50 --undefined-- 50.275
0.51 --undefined-- 50.177
0.52 --undefined-- 49.897
0.53 --undefined-- 49.057
0.54 --undefined-- 49.076
0.55 --undefined-- 49.988
0.56 --undefined-- 49.530
0.57 --undefined-- 47.760
0.58 --undefined-- 47.642
0.59 --undefined-- 48.407
0.60 --undefined-- 46.939
0.61 --undefined-- 42.603
0.62 --undefined-- 38.104
0.63 --undefined-- 35.210
0.64 --undefined-- 33.438
0.65 --undefined-- 36.123
0.66 --undefined-- 51.713
0.67 --undefined-- 62.469
0.68 --undefined-- 67.577
0.69 --undefined-- 68.673
0.70 --undefined-- 70.537
0.71 --undefined-- 75.547
0.72 253.459 78.454
0.73 258.586 78.876
0.74 264.099 77.081
0.75 286.624 73.152
0.76 296.358 68.772
0.77 159.556 67.650
0.78 164.432 68.713
0.79 169.369 69.498
0.80 174.042 69.206
0.81 174.172 67.956
0.82 173.717 66.539
0.83 174.602 65.539
0.84 176.687 65.555
0.85 176.378 67.753
0.86 172.514 70.575
0.87 172.765 72.259
0.88 174.891 73.268
0.89 174.550 74.828
0.90 174.536 76.510
0.91 175.359 77.464
0.92 176.565 77.717
0.93 177.779 77.682
0.94 178.752 77.480
0.95 179.819 77.024
0.96 180.353 76.544
0.97 178.727 76.484
0.98 174.741 76.843
0.99 164.032 77.063
1.00 --undefined-- 76.457
1.01 294.246 74.669
1.02 285.660 72.316
1.03 281.123 70.454
1.04 267.864 68.919
1.05 248.218 67.083
1.06 231.676 64.898
1.07 215.081 63.256
1.08 194.494 65.512
1.09 192.430 70.860
1.10 189.168 74.838
1.11 185.222 76.773
1.12 173.441 77.414
1.13 160.216 77.453
1.14 157.581 76.567
1.15 145.991 74.503
1.16 134.923 72.693
1.17 130.201 72.015
1.18 126.151 71.612
1.19 117.755 71.073
1.20 114.965 70.479
1.21 115.032 69.924
1.22 117.763 69.362
1.23 122.840 68.623
1.24 127.727 67.661
1.25 134.501 66.622
1.26 134.745 64.593
1.27 --undefined-- 60.404
1.28 --undefined-- 55.007
1.29 --undefined-- 52.652
1.30 --undefined-- 52.385
1.31 --undefined-- 52.715
1.32 --undefined-- 54.000
1.33 --undefined-- 56.337
1.34 --undefined-- 57.866
1.35 --undefined-- 58.155
1.36 --undefined-- 63.814
1.37 --undefined-- 70.453
1.38 121.575 73.773
1.39 120.558 74.623
1.40 119.541 74.531
1.41 119.592 74.502
1.42 120.560 74.399
1.43 120.973 73.831
1.44 120.108 72.694
1.45 118.546 71.031
1.46 233.015 68.487
1.47 225.138 64.459
1.48 208.646 59.571
1.49 200.080 58.650
1.50 216.959 66.854
1.51 218.371 73.694
1.52 215.023 77.086
1.53 207.986 77.478
1.54 189.732 76.463
1.55 186.104 76.441
1.56 184.603 76.830
1.57 182.467 76.606
1.58 178.254 75.509
1.59 169.738 72.931
1.60 166.575 68.115
1.61 --undefined-- 60.753
1.62 --undefined-- 53.427
1.63 --undefined-- 51.077
1.64 --undefined-- 54.438
1.65 167.551 61.697
1.66 161.083 67.520
1.67 156.271 71.009
1.68 153.469 72.646
1.69 153.678 73.272
1.70 154.079 73.512
1.71 154.597 73.339
1.72 155.664 72.757
1.73 157.469 72.010
1.74 159.599 71.295
1.75 161.068 70.559
1.76 165.518 69.468
1.77 171.064 67.386
1.78 177.131 63.426
1.79 --undefined-- 57.002
1.80 --undefined-- 48.528
1.81 --undefined-- 41.416
1.82 --undefined-- 39.265
1.83 --undefined-- 42.613
1.84 --undefined-- 51.890
1.85 --undefined-- 57.529
1.86 --undefined-- 60.012
1.87 --undefined-- 61.679
1.88 --undefined-- 66.025
1.89 --undefined-- 73.213
1.90 219.853 77.699
1.91 214.833 79.160
1.92 212.306 78.607
1.93 211.755 77.449
1.94 212.387 76.725
1.95 213.874 76.548
1.96 215.940 76.569
1.97 218.075 76.490
1.98 219.246 76.252
1.99 219.580 75.942
2.00 219.831 75.663
2.01 220.336 75.422
2.02 221.127 75.164
2.03 221.506 74.734
2.04 221.955 73.818
2.05 222.333 72.119
2.06 221.986 70.016
2.07 220.738 69.635
2.08 219.961 72.392
2.09 220.659 75.492
2.10 221.045 77.251
2.11 220.131 77.967
2.12 217.568 78.539
2.13 216.607 79.136
2.14 215.997 79.088
2.15 214.714 78.103
2.16 211.657 76.803
2.17 210.208 75.590
2.18 209.036 73.493
2.19 207.868 70.271
2.20 205.853 67.756
2.21 204.545 66.034
2.22 205.271 63.643
2.23 214.673 61.423
2.24 214.180 61.024
2.25 211.857 61.269
2.26 209.346 61.377
2.27 206.692 61.367
2.28 203.512 61.241
2.29 197.819 61.063
2.30 194.827 61.119
2.31 190.219 62.431
2.32 179.101 65.563
2.33 171.708 69.502
2.34 169.094 72.947
2.35 166.287 74.989
2.36 163.405 75.535
2.37 161.905 75.196
2.38 161.904 74.588
2.39 162.478 73.510
2.40 161.793 71.547
2.41 155.990 68.773
2.42 151.829 65.034
2.43 150.881 59.560
2.44 --undefined-- 52.401
2.45 --undefined-- 48.688
2.46 --undefined-- 49.729
2.47 --undefined-- 50.143
2.48 --undefined-- 49.756
2.49 --undefined-- 49.571
2.50 --undefined-- 49.485
2.51 --undefined-- 49.504
2.52 --undefined-- 50.143
2.53 --undefined-- 51.139
2.54 --undefined-- 51.544
2.55 --undefined-- 53.767
2.56 --undefined-- 59.087
2.57 --undefined-- 63.089
2.58 105.620 65.218
2.59 97.379 66.788
2.60 119.040 68.480
2.61 119.911 69.399
2.62 --undefined-- 68.390
2.63 --undefined-- 65.120
2.64 --undefined-- 62.771
2.65 --undefined-- 64.389
2.66 --undefined-- 66.448
2.67 --undefined-- 67.722
2.68 --undefined-- 67.998
2.69 --undefined-- 67.420
2.70 --undefined-- 66.966
2.71 --undefined-- 67.843
2.72 --undefined-- 69.386
2.73 --undefined-- 70.645
2.74 --undefined-- 71.708
2.75 100.965 72.658
2.76 100.784 72.259
2.77 --undefined-- 70.877
2.78 --undefined-- 70.856
2.79 250.571 71.685
2.80 244.878 71.839
2.81 93.382 70.423
2.82 93.133 67.710
2.83 96.026 65.599
2.84 97.871 65.755
2.85 107.797 67.132
2.86 109.081 68.556
2.87 113.430 69.669
2.88 --undefined-- 70.928
2.89 --undefined-- 72.558
2.90 --undefined-- 74.319
2.91 161.588 75.623
2.92 162.908 75.839
2.93 171.337 75.199
2.94 177.476 74.563
2.95 184.392 74.626
2.96 188.679 74.943
2.97 194.193 75.119
2.98 201.003 75.450
2.99 206.131 75.572
3.00 207.605 74.568
3.01 207.507 71.997
3.02 206.549 67.903
3.03 204.180 62.333
3.04 --undefined-- 55.301
3.05 --undefined-- 47.539
3.06 --undefined-- 40.969
3.07 --undefined-- 36.747
3.08 --undefined-- 35.048
3.09 --undefined-- 36.536
3.10 --undefined-- 38.974
3.11 --undefined-- 41.335
3.12 --undefined-- 43.020
3.13 --undefined-- 43.673
3.14 --undefined-- 43.872
3.15 --undefined-- 43.986
3.16 --undefined-- 44.176
3.17 --undefined-- 43.716
3.18 --undefined-- 42.611
3.19 --undefined-- 42.335
3.20 --undefined-- 42.641
3.21 --undefined-- 42.922
3.22 --undefined-- 43.248
3.23 --undefined-- 43.236
3.24 --undefined-- 43.053
3.25 --undefined-- 42.558
3.26 --undefined-- 41.966
3.27 --undefined-- 41.683
3.28 --undefined-- 41.106
3.29 --undefined-- 40.095
3.30 --undefined-- 39.382
3.31 --undefined-- 39.086
3.32 --undefined-- 38.544
3.33 --undefined-- 38.086
3.34 --undefined-- 37.573
3.35 --undefined-- 36.217
3.36 --undefined-- 34.642
3.37 --undefined-- 34.310
3.38 --undefined-- 34.734
3.39 --undefined-- 34.707
3.40 --undefined-- 34.601
3.41 --undefined-- 34.140
3.42 --undefined-- 32.911
3.43 --undefined-- 32.885
3.44 --undefined-- 34.671
3.45 --undefined-- 36.861
3.46 --undefined-- 38.599
3.47 --undefined-- 39.166
3.48 --undefined-- 40.522
3.49 --undefined-- 44.349
3.50 --undefined-- 49.952
3.51 --undefined-- 59.918
3.52 --undefined-- 68.917
3.53 --undefined-- 74.159
3.54 --undefined-- 76.269
3.55 --undefined-- 76.391
3.56 281.454 75.854
3.57 281.938 75.053
3.58 280.953 73.670
3.59 278.189 71.627
3.60 286.804 68.541
3.61 288.909 64.489
3.62 --undefined-- 61.583
3.63 --undefined-- 60.535
3.64 --undefined-- 59.807
3.65 --undefined-- 60.758
3.66 --undefined-- 63.658
3.67 --undefined-- 66.587
3.68 --undefined-- 68.733
3.69 --undefined-- 70.059
3.70 --undefined-- 70.431
3.71 --undefined-- 72.909
3.72 --undefined-- 76.037
3.73 281.408 77.218
3.74 277.893 77.241
3.75 276.538 76.876
3.76 275.984 76.615
3.77 274.298 76.541
3.78 270.349 76.157
3.79 263.423 75.292
3.80 --undefined-- 74.045
3.81 --undefined-- 72.365
3.82 --undefined-- 70.206
3.83 --undefined-- 67.516
3.84 100.120 64.717
3.85 94.446 62.930
3.86 183.721 62.618
3.87 170.196 63.444
3.88 164.066 64.926
3.89 161.533 66.512
3.90 159.267 67.592
3.91 152.288 68.036
3.92 147.565 68.106
3.93 141.404 67.994
3.94 136.079 67.676
3.95 131.553 67.209
3.96 127.577 66.482
3.97 125.291 65.309
3.98 122.216 63.709
3.99 119.947 62.054
4.00 116.406 60.801
4.01 113.626 60.150
4.02 107.434 60.393
4.03 278.584 61.199
4.04 284.756 61.524
4.05 286.940 61.425
4.06 280.798 61.265
4.07 285.164 61.828
4.08 256.309 65.113
4.09 241.235 70.514
4.10 254.638 74.623
4.11 266.255 76.399
4.12 132.111 76.345
4.13 131.275 75.518
4.14 131.745 74.706
4.15 129.848 74.219
4.16 120.448 73.729
4.17 119.874 72.955
4.18 121.577 72.482
4.19 126.854 72.734
4.20 131.311 73.618
4.21 132.127 74.656
4.22 133.412 74.857
4.23 135.600 73.629
4.24 139.332 71.545
4.25 142.910 70.431
4.26 146.808 70.351
4.27 150.007 70.057
4.28 152.461 69.475
4.29 154.977 68.877
4.30 157.511 68.401
4.31 160.058 68.075
4.32 163.155 67.712
4.33 167.668 67.339
4.34 171.039 67.221
4.35 172.014 67.480
4.36 173.327 68.149
4.37 175.125 69.299
4.38 175.981 70.914
4.39 175.824 72.848
4.40 174.866 74.484
4.41 173.750 75.355
4.42 171.793 75.618
4.43 167.933 76.073
4.44 165.055 76.865
4.45 162.943 77.061
4.46 157.948 76.673
4.47 154.600 76.900
4.48 152.979 77.413
4.49 150.525 77.107
4.50 146.081 76.036
4.51 141.208 75.213
4.52 137.587 75.150
4.53 134.911 75.257
4.54 133.484 75.310
4.55 132.129 75.270
4.56 128.036 74.710
4.57 --undefined-- 73.320
4.58 294.566 71.060
4.59 290.299 67.629
4.60 282.315 62.651
4.61 284.456 57.948
4.62 --undefined-- 53.111
4.63 --undefined-- 45.972
4.64 --undefined-- 40.483
4.65 --undefined-- 47.510
4.66 --undefined-- 54.512
4.67 --undefined-- 58.732
4.68 --undefined-- 61.462
4.69 --undefined-- 62.440
4.70 --undefined-- 62.362
4.71 --undefined-- 62.016
4.72 --undefined-- 62.158
4.73 --undefined-- 63.474
4.74 --undefined-- 64.111
4.75 --undefined-- 64.248
4.76 --undefined-- 64.333
4.77 --undefined-- 63.617
4.78 --undefined-- 63.676
4.79 --undefined-- 64.239
4.80 --undefined-- 65.599
4.81 192.510 69.624
4.82 194.605 72.971
4.83 169.547 74.387
4.84 160.575 74.046
4.85 159.767 73.275
4.86 159.408 73.439
4.87 157.967 73.782
4.88 154.819 73.660
4.89 152.250 72.927
4.90 150.829 71.482
4.91 150.097 69.658
4.92 149.864 68.296
4.93 149.372 67.925
4.94 148.575 68.448
4.95 147.680 69.121
4.96 147.384 69.401
4.97 147.472 69.391
4.98 147.108 69.413
4.99 147.706 69.621
5.00 150.176 70.002
5.01 148.987 70.313
5.02 147.338 70.477
5.03 148.431 71.151
5.04 149.334 72.827
5.05 149.891 74.663
5.06 154.755 75.513
5.07 150.793 75.130
5.08 145.215 75.031
5.09 145.081 75.340
5.10 143.858 74.500
5.11 140.664 72.508
5.12 139.627 70.857
5.13 138.304 70.851
5.14 135.302 71.471
5.15 132.366 71.047
5.16 127.633 69.750
5.17 125.879 67.924
5.18 126.159 64.747
5.19 --undefined-- 59.828
5.20 --undefined-- 53.907
5.21 --undefined-- 48.508
5.22 --undefined-- 43.071
5.23 --undefined-- 37.915
5.24 --undefined-- 35.430
5.25 --undefined-- 35.483
5.26 --undefined-- 35.607
5.27 --undefined-- 35.796
5.28 --undefined-- 36.706
5.29 --undefined-- 37.506
5.30 --undefined-- 38.309
5.31 --undefined-- 39.090
5.32 --undefined-- 39.888
5.33 --undefined-- 40.482
5.34 --undefined-- 41.129
5.35 --undefined-- 41.727
5.36 --undefined-- 41.765
5.37 --undefined-- 41.992
5.38 --undefined-- 42.964
5.39 --undefined-- 44.444
5.40 --undefined-- 45.288
5.41 --undefined-- 45.643
5.42 --undefined-- 45.765
5.43 --undefined-- 45.334
5.44 --undefined-- 45.155
5.45 --undefined-- 45.106
5.46 --undefined-- 45.116
5.47 --undefined-- 45.547
5.48 --undefined-- 45.525
5.49 --undefined-- 44.961
5.50 --undefined-- 44.668
5.51 --undefined-- 44.629
5.52 --undefined-- 43.596
5.53 --undefined-- 41.462
5.54 --undefined-- 39.513
5.55 --undefined-- 38.820
5.56 --undefined-- 38.519
5.57 --undefined-- 37.433
5.58 --undefined-- 36.562
5.59 --undefined-- 35.586
5.60 --undefined-- 34.514
5.61 --undefined-- 34.221
5.62 --undefined-- 34.547
5.63 --undefined-- 35.327
5.64 --undefined-- 35.811
5.65 --undefined-- 35.981
5.66 --undefined-- 35.711
5.67 --undefined-- 35.694
5.68 --undefined-- 45.215
5.69 --undefined-- 56.172
5.70 --undefined-- 63.191
5.71 97.208 67.645
5.72 95.603 70.655
5.73 98.947 72.519
5.74 205.031 73.328
5.75 215.967 73.661
5.76 221.461 74.145
5.77 231.561 74.579
5.78 238.006 74.570
5.79 241.956 74.209
5.80 246.728 73.914
5.81 249.936 73.682
5.82 252.079 73.064
5.83 252.531 72.005
5.84 254.307 70.631
5.85 255.852 68.078
5.86 257.600 63.674
5.87 257.952 57.338
5.88 --undefined-- 50.360
5.89 --undefined-- 47.502
5.90 --undefined-- 54.706
5.91 --undefined-- 67.025
5.92 --undefined-- --undefined--
5.93 --undefined-- --undefined--
5.94 --undefined-- --undefined--
5.95 --undefined-- --undefined--
