Time Pitch Intensity
0.01 --undefined-- --undefined--
0.02 --undefined-- --undefined--
0.03 --undefined-- --undefined--
0.04 --undefined-- --undefined--
0.05 --undefined-- 54.490
0.06 --undefined-- 63.736
0.07 --undefined-- 70.384
0.08 --undefined-- 74.160
0.09 149.042 75.778
0.10 147.327 76.027
0.11 147.901 75.540
0.12 148.421 74.974
0.13 149.148 74.030
0.14 150.047 72.078
0.15 150.687 68.715
0.16 --undefined-- 63.154
0.17 --undefined-- 54.336
0.18 --undefined-- 44.096
0.19 --undefined-- 39.554
0.20 --undefined-- 38.574
0.21 --undefined-- 39.961
0.22 --undefined-- 41.659
0.23 --undefined-- 43.272
0.24 --undefined-- 45.764
0.25 --undefined-- 50.653
0.26 --undefined-- 56.382
0.27 --undefined-- 61.256
0.28 --undefined-- 66.566
0.29 --undefined-- 71.474
0.30 149.948 74.284
0.31 145.854 74.905
0.32 137.027 74.176
0.33 133.819 73.337
0.34 131.964 72.707
0.35 130.203 71.604
0.36 127.598 69.812
0.37 125.733 67.107
0.38 --undefined-- 62.865
0.39 --undefined-- 58.313
0.40 --undefined-- 58.509
0.41 --undefined-- 59.542
0.42 --undefined-- 59.490
0.43 --undefined-- 59.487
0.44 --undefined-- 60.096
0.45 --undefined-- 60.833
0.46 --undefined-- 61.625
0.47 --undefined-- 62.424
0.48 --undefined-- 63.291
0.49 --undefined-- 65.948
0.50 144.880 68.522
0.51 144.205 70.053
0.52 143.297 71.194
0.53 141.849 72.073
0.54 140.965 72.382
0.55 138.829 72.247
0.56 136.706 72.055
0.57 135.668 72.209
0.58 131.876 72.886
0.59 131.124 72.997
0.60 126.835 72.138
0.61 123.908 71.596
0.62 123.539 71.969
0.63 122.488 72.204
0.64 121.133 71.878
0.65 118.733 71.213
0.66 115.574 70.468
0.67 112.998 69.545
0.68 110.447 68.248
0.69 107.480 66.058
0.70 105.161 62.125
0.71 --undefined-- 55.601
0.72 --undefined-- 46.272
0.73 --undefined-- 38.733
0.74 --undefined-- 41.436
0.75 --undefined-- 52.834
0.76 --undefined-- 60.131
0.77 --undefined-- 64.144
0.78 --undefined-- 66.646
0.79 --undefined-- 68.185
0.80 --undefined-- 68.554
0.81 --undefined-- 68.414
0.82 --undefined-- 69.110
0.83 133.587 70.162
0.84 133.344 71.080
0.85 134.283 71.957
0.86 132.364 72.453
0.87 131.481 72.351
0.88 130.984 72.030
0.89 --undefined-- 71.846
0.90 --undefined-- 71.539
0.91 --undefined-- 70.336
0.92 --undefined-- 67.876
0.93 --undefined-- 65.158
0.94 --undefined-- 65.857
0.95 123.040 69.413
0.96 123.739 72.066
0.97 124.848 73.035
0.98 119.956 72.806
0.99 119.519 72.582
1.00 113.306 72.511
1.01 112.380 72.074
1.02 112.042 71.277
1.03 112.108 69.845
1.04 112.079 67.114
1.05 106.432 63.051
1.06 107.561 58.485
1.07 --undefined-- 53.442
1.08 --undefined-- 49.276
1.09 --undefined-- 48.732
1.10 --undefined-- 51.741
1.11 --undefined-- 55.831
1.12 --undefined-- 58.258
1.13 --undefined-- 59.460
1.14 --undefined-- 60.520
1.15 --undefined-- 61.837
1.16 --undefined-- 62.441
1.17 --undefined-- 62.559
1.18 --undefined-- 63.763
1.19 --undefined-- 65.147
1.20 --undefined-- 65.354
1.21 --undefined-- 65.341
1.22 --undefined-- 66.126
1.23 --undefined-- 67.405
1.24 --undefined-- 68.807
1.25 113.924 69.733
1.26 113.916 69.904
1.27 114.157 69.372
1.28 --undefined-- 68.389
1.29 111.340 67.517
1.30 108.713 67.728
1.31 108.105 68.870
1.32 102.550 69.840
1.33 96.994 69.928
1.34 95.247 69.484
1.35 91.325 68.844
1.36 91.306 67.446
1.37 88.080 65.673
1.38 85.634 64.495
1.39 --undefined-- 62.351
1.40 --undefined-- 57.783
1.41 --undefined-- 51.078
1.42 --undefined-- 47.815
1.43 --undefined-- 51.038
1.44 97.350 53.597
1.45 102.771 55.225
1.46 107.131 58.313
1.47 109.520 64.624
1.48 113.494 69.683
1.49 113.264 72.102
1.50 114.257 72.558
1.51 114.838 72.247
1.52 115.323 72.010
1.53 115.314 71.875
1.54 114.967 71.776
1.55 115.641 71.752
1.56 116.031 71.762
1.57 115.882 71.475
1.58 115.561 70.327
1.59 114.806 67.459
1.60 --undefined-- 61.992
1.61 --undefined-- 53.293
1.62 --undefined-- 43.502
1.63 --undefined-- 41.645
1.64 --undefined-- 41.975
1.65 --undefined-- 41.319
1.66 --undefined-- 44.953
1.67 --undefined-- 55.459
1.68 --undefined-- 62.218
1.69 --undefined-- 66.080
1.70 --undefined-- 68.953
1.71 128.217 70.545
1.72 125.046 70.556
1.73 124.006 70.200
1.74 123.963 70.399
1.75 124.017 70.693
1.76 123.852 70.941
1.77 123.633 71.249
1.78 123.834 71.544
1.79 124.364 71.672
1.80 124.736 71.523
1.81 125.308 71.173
1.82 125.904 70.835
1.83 126.230 70.600
1.84 126.212 70.481
1.85 125.797 70.529
1.86 125.524 70.659
1.87 125.437 70.746
1.88 125.450 70.722
1.89 125.201 70.637
1.90 125.069 70.660
1.91 125.146 70.824
1.92 125.162 70.974
1.93 125.165 71.148
1.94 125.516 71.326
1.95 125.947 71.317
1.96 126.186 71.134
1.97 126.279 70.932
1.98 126.039 70.748
1.99 126.120 70.607
2.00 126.320 70.587
2.01 126.335 70.661
2.02 126.165 70.664
2.03 126.350 70.566
2.04 126.400 70.515
2.05 126.467 70.611
2.06 126.752 70.783
2.07 126.466 70.832
2.08 126.037 70.776
2.09 126.036 70.754
2.10 125.987 70.783
2.11 125.804 70.828
2.12 125.507 70.879
2.13 125.514 70.879
2.14 125.287 70.814
2.15 125.227 70.703
2.16 124.814 70.498
2.17 124.283 70.181
2.18 123.580 69.767
2.19 123.446 69.333
2.20 123.406 68.689
2.21 123.212 67.096
2.22 118.228 63.607
2.23 --undefined-- 57.475
2.24 --undefined-- 48.795
2.25 --undefined-- 42.129
2.26 --undefined-- 39.801
2.27 --undefined-- 38.635
2.28 --undefined-- 38.556
2.29 --undefined-- 45.371
2.30 --undefined-- 56.829
2.31 --undefined-- 64.180
2.32 --undefined-- 68.230
2.33 --undefined-- 70.392
2.34 113.437 71.647
2.35 110.490 72.064
2.36 105.785 71.513
2.37 100.475 70.030
2.38 101.971 67.894
2.39 100.240 65.048
2.40 --undefined-- 60.864
2.41 --undefined-- 54.538
2.42 --undefined-- 45.956
2.43 --undefined-- 39.777
2.44 --undefined-- 38.422
2.45 --undefined-- 38.562
2.46 --undefined-- 45.060
2.47 --undefined-- 56.261
2.48 --undefined-- 65.457
2.49 --undefined-- 71.360
2.50 128.494 73.857
2.51 127.378 73.759
2.52 124.972 72.746
2.53 121.327 72.004
2.54 119.520 70.662
2.55 115.183 67.571
2.56 --undefined-- 62.889
2.57 --undefined-- 58.532
2.58 --undefined-- 55.448
2.59 --undefined-- 51.794
2.60 --undefined-- 49.518
2.61 --undefined-- 48.912
2.62 --undefined-- 48.148
2.63 --undefined-- 47.448
2.64 --undefined-- 46.106
2.65 --undefined-- 43.631
2.66 --undefined-- 42.022
2.67 --undefined-- 41.753
2.68 --undefined-- 39.714
2.69 --undefined-- 36.509
2.70 --undefined-- 35.368
2.71 --undefined-- 36.319
2.72 --undefined-- 36.591
2.73 --undefined-- 35.468
2.74 --undefined-- 34.331
2.75 --undefined-- 35.883
2.76 --undefined-- 37.421
2.77 --undefined-- 39.604
2.78 --undefined-- 44.635
2.79 --undefined-- 49.727
2.80 --undefined-- 54.816
2.81 --undefined-- 59.456
2.82 --undefined-- 62.821
2.83 100.666 65.080
2.84 99.816 66.041
2.85 99.572 65.172
2.86 95.872 62.974
2.87 91.653 60.704
2.88 --undefined-- 57.648
2.89 --undefined-- 52.501
2.90 --undefined-- 46.666
2.91 --undefined-- 48.028
2.92 --undefined-- 51.302
2.93 --undefined-- 52.742
2.94 --undefined-- 52.786
2.95 --undefined-- 53.065
2.96 89.785 53.195
2.97 89.084 53.188
2.98 95.656 54.132
2.99 93.390 56.023
3.00 95.408 60.085
3.01 97.069 64.699
3.02 97.856 67.661
3.03 98.467 68.854
3.04 98.338 69.010
3.05 97.939 68.877
3.06 96.986 68.375
3.07 97.775 67.502
3.08 97.610 66.159
3.09 96.358 63.397
3.10 --undefined-- 58.295
3.11 --undefined-- 51.641
3.12 --undefined-- 49.613
3.13 92.108 50.311
3.14 91.165 50.629
3.15 89.017 50.615
3.16 88.854 50.577
3.17 86.332 50.332
3.18 83.391 50.177
3.19 83.701 50.121
3.20 81.715 49.774
3.21 --undefined-- 48.713
3.22 --undefined-- 47.391
3.23 --undefined-- 47.179
3.24 --undefined-- 47.372
3.25 --undefined-- 47.099
3.26 --undefined-- 47.150
3.27 --undefined-- 47.004
3.28 --undefined-- 46.240
3.29 --undefined-- 44.824
3.30 --undefined-- 42.922
3.31 --undefined-- 41.095
3.32 --undefined-- 40.659
3.33 --undefined-- 46.343
3.34 --undefined-- 54.303
3.35 --undefined-- 59.415
3.36 --undefined-- 63.039
3.37 --undefined-- 65.811
3.38 --undefined-- 67.377
3.39 --undefined-- 68.412
3.40 --undefined-- 69.550
3.41 --undefined-- 70.608
3.42 --undefined-- 70.813
3.43 105.244 69.913
3.44 105.612 68.740
3.45 104.589 67.720
3.46 102.710 66.312
3.47 100.654 63.853
3.48 98.959 60.532
3.49 97.501 57.568
3.50 --undefined-- 55.235
3.51 --undefined-- 54.436
3.52 --undefined-- 56.049
3.53 --undefined-- 57.755
3.54 --undefined-- 58.650
3.55 --undefined-- 59.406
3.56 --undefined-- 61.258
3.57 --undefined-- 63.579
3.58 --undefined-- 65.124
3.59 --undefined-- 67.279
3.60 --undefined-- 70.518
3.61 --undefined-- 72.217
3.62 --undefined-- 71.285
3.63 --undefined-- 67.382
3.64 --undefined-- 59.993
3.65 --undefined-- 48.840
3.66 --undefined-- 40.343
3.67 --undefined-- 39.507
3.68 --undefined-- 38.472
3.69 --undefined-- 36.831
3.70 --undefined-- 36.648
3.71 --undefined-- 37.500
3.72 --undefined-- 36.930
3.73 --undefined-- 35.927
3.74 --undefined-- 36.090
3.75 --undefined-- 36.100
3.76 --undefined-- 38.774
3.77 --undefined-- 48.795
3.78 --undefined-- 58.584
3.79 --undefined-- 66.686
3.80 --undefined-- 71.628
3.81 --undefined-- 73.563
3.82 --undefined-- 73.437
3.83 102.788 72.268
3.84 101.218 70.788
3.85 102.147 69.692
3.86 102.048 69.348
3.87 100.057 69.422
3.88 99.110 69.256
3.89 98.857 68.337
3.90 98.735 66.667
3.91 97.889 64.753
3.92 96.704 62.809
3.93 96.383 60.354
3.94 95.079 56.856
3.95 --undefined-- 52.515
3.96 --undefined-- 48.581
3.97 --undefined-- 46.993
3.98 --undefined-- 47.309
3.99 --undefined-- 48.010
4.00 --undefined-- 48.155
4.01 --undefined-- 48.008
4.02 --undefined-- 47.167
4.03 --undefined-- 44.405
4.04 --undefined-- 40.481
4.05 --undefined-- 38.157
4.06 --undefined-- 37.580
4.07 --undefined-- 36.500
4.08 --undefined-- 35.445
4.09 --undefined-- 35.706
4.10 --undefined-- 35.763
4.11 --undefined-- 34.836
4.12 --undefined-- 33.949
4.13 --undefined-- 34.141
4.14 --undefined-- 38.593
4.15 --undefined-- 42.853
4.16 --undefined-- 43.901
4.17 --undefined-- 42.321
4.18 --undefined-- 39.533
4.19 --undefined-- 36.880
4.20 --undefined-- 35.896
4.21 --undefined-- 37.498
4.22 --undefined-- 38.632
4.23 --undefined-- 37.831
4.24 --undefined-- 37.753
4.25 --undefined-- 47.095
4.26 --undefined-- 55.703
4.27 --undefined-- 60.084
4.28 --undefined-- 63.237
4.29 129.252 67.171
4.30 128.618 69.742
4.31 126.988 70.451
4.32 124.456 69.945
4.33 123.147 69.564
4.34 122.282 69.937
4.35 121.418 70.104
4.36 120.547 69.263
4.37 119.865 66.980
4.38 --undefined-- 62.658
4.39 --undefined-- 55.355
4.40 --undefined-- 46.021
4.41 --undefined-- 40.944
4.42 --undefined-- 38.232
4.43 --undefined-- 39.085
4.44 --undefined-- 44.358
4.45 --undefined-- 48.895
4.46 --undefined-- 52.193
4.47 --undefined-- 54.198
4.48 --undefined-- 55.841
4.49 --undefined-- 57.888
4.50 --undefined-- 60.529
4.51 --undefined-- 63.525
4.52 --undefined-- 65.923
4.53 --undefined-- 67.258
4.54 --undefined-- 67.838
4.55 --undefined-- 67.682
4.56 107.498 66.977
4.57 109.043 65.862
4.58 108.477 63.791
4.59 --undefined-- 60.270
4.60 --undefined-- 54.708
4.61 --undefined-- 47.149
4.62 --undefined-- 42.021
4.63 --undefined-- 44.906
4.64 --undefined-- 50.485
4.65 --undefined-- 55.972
4.66 --undefined-- 60.305
4.67 --undefined-- 64.766
4.68 --undefined-- 70.047
4.69 --undefined-- 73.227
4.70 --undefined-- 73.975
4.71 --undefined-- 73.346
4.72 --undefined-- 72.668
4.73 104.204 71.924
4.74 103.148 70.848
4.75 103.081 70.036
4.76 103.068 69.657
4.77 103.489 69.586
4.78 102.354 68.862
4.79 101.978 66.765
4.80 100.334 63.386
4.81 --undefined-- 58.270
4.82 --undefined-- 50.662
4.83 --undefined-- 40.485
4.84 --undefined-- 37.443
4.85 --undefined-- 39.455
4.86 --undefined-- 39.101
4.87 --undefined-- 37.352
4.88 --undefined-- 35.889
4.89 --undefined-- 33.955
4.90 --undefined-- 32.620
4.91 --undefined-- 31.280
4.92 --undefined-- 30.454
4.93 --undefined-- 31.077
4.94 --undefined-- 31.831
4.95 --undefined-- 32.046
4.96 --undefined-- 32.479
4.97 --undefined-- 33.233
4.98 --undefined-- 33.437
4.99 --undefined-- 33.584
5.00 --undefined-- 39.473
5.01 --undefined-- 51.220
5.02 --undefined-- 59.900
5.03 --undefined-- 67.079
5.04 --undefined-- 71.994
5.05 119.810 74.090
5.06 117.899 73.909
5.07 115.849 72.521
5.08 115.577 71.210
5.09 116.847 70.275
5.10 117.859 69.228
5.11 119.401 68.615
5.12 120.284 68.919
5.13 119.926 68.761
5.14 118.905 67.120
5.15 116.486 63.972
5.16 115.334 59.599
5.17 --undefined-- 54.659
5.18 --undefined-- 50.198
5.19 --undefined-- 45.496
5.20 --undefined-- 40.114
5.21 --undefined-- 39.817
5.22 --undefined-- 46.313
5.23 --undefined-- 56.094
5.24 --undefined-- 62.566
5.25 --undefined-- 65.199
5.26 --undefined-- 64.601
5.27 --undefined-- 62.868
5.28 --undefined-- 64.198
5.29 --undefined-- 67.605
5.30 --undefined-- 70.266
5.31 --undefined-- 71.356
5.32 109.115 70.874
5.33 107.370 69.074
5.34 105.642 66.502
5.35 106.410 63.910
5.36 106.993 61.659
5.37 107.368 59.614
5.38 106.407 57.789
5.39 108.410 56.146
5.40 109.504 54.512
5.41 --undefined-- 52.127
5.42 --undefined-- 49.609
5.43 --undefined-- 48.980
5.44 109.875 49.486
5.45 108.083 51.493
5.46 --undefined-- 57.867
5.47 --undefined-- 63.781
5.48 --undefined-- 67.158
5.49 --undefined-- 68.500
5.50 --undefined-- 68.841
5.51 --undefined-- 68.623
5.52 --undefined-- 67.973
5.53 80.343 67.480
5.54 80.286 67.270
5.55 --undefined-- 67.366
5.56 --undefined-- 67.613
5.57 --undefined-- 67.536
5.58 --undefined-- 66.909
5.59 75.668 66.637
5.60 78.366 66.473
5.61 76.185 65.698
5.62 75.110 64.692
5.63 --undefined-- 63.522
5.64 84.283 62.297
5.65 86.721 61.776
5.66 87.488 61.581
5.67 87.369 61.207
5.68 86.129 60.758
5.69 85.995 60.818
5.70 85.988 61.933
5.71 87.614 63.207
5.72 --undefined-- 63.387
5.73 --undefined-- 63.195
5.74 --undefined-- 64.112
5.75 107.857 65.680
5.76 108.750 67.185
5.77 111.268 68.725
5.78 113.149 70.148
5.79 113.970 70.651
5.80 113.566 70.043
5.81 111.605 68.734
5.82 107.879 67.182
5.83 105.020 65.787
5.84 102.004 65.045
5.85 99.887 64.950
5.86 99.301 64.590
5.87 98.271 63.125
5.88 97.081 60.280
5.89 97.030 57.265
5.90 96.529 56.013
5.91 95.411 55.597
5.92 93.803 55.084
5.93 --undefined-- 53.876
5.94 --undefined-- 51.048
5.95 --undefined-- 46.821
5.96 --undefined-- 43.353
5.97 --undefined-- 39.966
5.98 --undefined-- 35.671
5.99 --undefined-- 33.836
6.00 --undefined-- 35.761
6.01 --undefined-- 37.692
6.02 --undefined-- 38.857
6.03 --undefined-- --undefined--
6.04 --undefined-- --undefined--
6.05 --undefined-- --undefined--
6.06 --undefined-- --undefined--
