Time Pitch Intensity
0.01 --undefined-- --undefined--
0.02 108.538 --undefined--
0.03 108.876 --undefined--
0.04 109.942 --undefined--
0.05 --undefined-- 55.529
0.06 --undefined-- 60.015
0.07 163.418 66.190
0.08 138.653 70.393
0.09 128.613 72.701
0.10 122.569 73.425
0.11 119.674 72.491
0.12 122.289 70.097
0.13 122.478 66.622
0.14 129.440 62.994
0.15 --undefined-- 62.424
0.16 --undefined-- 64.860
0.17 --undefined-- 70.562
0.18 204.535 76.251
0.19 188.747 79.320
0.20 182.419 80.174
0.21 182.341 79.825
0.22 182.905 79.213
0.23 183.124 78.619
0.24 181.059 77.823
0.25 175.399 75.931
0.26 165.685 72.011
0.27 --undefined-- 66.023
0.28 --undefined-- 59.051
0.29 --undefined-- 52.109
0.30 --undefined-- 45.862
0.31 --undefined-- 42.426
0.32 --undefined-- 41.886
0.33 --undefined-- 40.694
0.34 --undefined-- 38.917
0.35 --undefined-- 39.183
0.36 --undefined-- 41.043
0.37 --undefined-- 42.316
0.38 --undefined-- 43.932
0.39 --undefined-- 48.570
0.40 --undefined-- 54.228
0.41 --undefined-- 58.652
0.42 --undefined-- 61.048
0.43 --undefined-- 61.136
0.44 --undefined-- 59.417
0.45 --undefined-- 62.104
0.46 --undefined-- 67.627
0.47 --undefined-- 70.713
0.48 111.367 72.091
0.49 102.647 73.003
0.50 102.797 73.466
0.51 102.765 73.287
0.52 102.784 72.932
0.53 103.544 72.739
0.54 104.149 72.491
0.55 102.568 71.487
0.56 101.677 69.268
0.57 107.446 66.077
0.58 106.638 62.768
0.59 107.720 61.910
0.60 136.155 65.588
0.61 143.634 69.859
0.62 131.124 72.693
0.63 124.284 74.290
0.64 126.300 75.077
0.65 130.403 75.424
0.66 135.386 75.581
0.67 141.295 75.547
0.68 149.131 75.250
0.69 155.989 75.048
0.70 161.332 75.019
0.71 165.339 74.682
0.72 167.574 74.043
0.73 166.493 73.451
0.74 163.858 72.891
0.75 161.779 72.102
0.76 157.201 70.957
0.77 151.449 69.467
0.78 141.746 67.710
0.79 131.144 66.404
0.80 132.568 66.842
0.81 135.706 68.490
0.82 136.194 70.324
0.83 138.397 72.241
0.84 143.036 74.014
0.85 147.857 75.573
0.86 150.030 76.770
0.87 151.684 77.198
0.88 152.403 76.805
0.89 153.516 76.162
0.90 153.832 75.927
0.91 152.318 75.821
0.92 147.927 75.334
0.93 140.129 74.691
0.94 133.344 74.073
0.95 125.383 73.147
0.96 115.911 72.040
0.97 111.711 71.246
0.98 104.074 70.684
0.99 101.047 70.141
1.00 99.058 69.814
1.01 98.425 69.560
1.02 97.098 69.181
1.03 96.800 68.901
1.04 97.425 68.784
1.05 97.259 68.583
1.06 97.025 68.219
1.07 97.035 67.799
1.08 96.809 67.573
1.09 97.156 67.711
1.10 97.546 68.062
1.11 97.762 68.601
1.12 98.811 69.408
1.13 100.884 70.376
1.14 103.020 71.451
1.15 104.793 72.514
1.16 106.169 73.455
1.17 107.501 74.300
1.18 110.555 75.106
1.19 113.562 75.948
1.20 117.382 76.730
1.21 120.170 77.182
1.22 122.674 77.173
1.23 125.236 76.699
1.24 125.620 75.578
1.25 125.203 73.448
1.26 120.836 70.112
1.27 119.034 65.553
1.28 --undefined-- 59.565
1.29 --undefined-- 53.383
1.30 --undefined-- 49.899
1.31 --undefined-- 47.206
1.32 --undefined-- 44.773
1.33 --undefined-- 44.987
1.34 --undefined-- 50.762
1.35 --undefined-- 61.768
1.36 --undefined-- 70.468
1.37 162.170 75.476
1.38 153.512 77.824
1.39 138.504 78.779
1.40 131.963 78.949
1.41 129.286 78.695
1.42 128.207 78.521
1.43 127.198 78.425
1.44 126.718 78.306
1.45 126.300 78.183
1.46 125.637 78.071
1.47 124.359 77.963
1.48 123.264 77.721
1.49 122.533 77.181
1.50 122.788 76.440
1.51 122.449 75.803
1.52 121.451 75.299
1.53 120.430 74.803
1.54 121.516 74.375
1.55 123.850 74.095
1.56 124.914 73.833
1.57 124.895 73.467
1.58 125.158 73.005
1.59 126.190 72.775
1.60 125.943 73.498
1.61 123.053 74.688
1.62 123.193 75.407
1.63 121.131 75.549
1.64 119.205 75.381
1.65 117.486 75.199
1.66 118.079 75.263
1.67 118.247 75.469
1.68 117.983 75.564
1.69 117.693 75.425
1.70 119.102 75.193
1.71 120.693 75.051
1.72 120.460 75.057
1.73 121.781 75.349
1.74 118.716 75.954
1.75 118.266 76.624
1.76 119.002 77.083
1.77 120.095 77.256
1.78 122.252 76.985
1.79 121.986 75.775
1.80 116.968 72.984
1.81 111.822 68.428
1.82 112.475 63.057
1.83 105.024 58.768
1.84 --undefined-- 58.545
1.85 --undefined-- 60.782
1.86 --undefined-- 62.165
1.87 --undefined-- 62.237
1.88 --undefined-- 63.109
1.89 142.481 67.596
1.90 111.136 70.630
1.91 106.255 71.552
1.92 101.238 71.647
1.93 98.617 71.605
1.94 100.519 71.579
1.95 102.558 71.196
1.96 100.838 69.970
1.97 99.516 68.126
1.98 105.218 66.746
1.99 112.528 67.361
2.00 116.792 69.815
2.01 119.941 72.250
2.02 117.914 73.729
2.03 115.488 74.394
2.04 114.280 74.753
2.05 116.057 75.086
2.06 116.685 75.211
2.07 117.660 75.133
2.08 118.808 74.916
2.09 119.159 74.464
2.10 119.554 73.852
2.11 118.696 73.218
2.12 116.478 72.548
2.13 114.261 71.916
2.14 112.599 71.670
2.15 112.177 72.041
2.16 113.471 72.940
2.17 114.441 74.211
2.18 113.192 75.459
2.19 110.722 76.398
2.20 109.362 76.954
2.21 109.112 77.113
2.22 110.798 76.909
2.23 111.296 76.306
2.24 111.672 75.170
2.25 111.533 73.277
2.26 109.874 70.591
2.27 109.995 67.615
2.28 --undefined-- 65.038
2.29 --undefined-- 63.682
2.30 --undefined-- 63.887
2.31 --undefined-- 64.226
2.32 --undefined-- 63.741
2.33 --undefined-- 63.139
2.34 --undefined-- 64.547
2.35 175.286 69.582
2.36 162.422 73.762
2.37 143.444 75.881
2.38 132.034 76.690
2.39 123.106 76.688
2.40 122.241 76.127
2.41 121.155 75.265
2.42 123.620 74.410
2.43 125.016 73.894
2.44 124.912 73.687
2.45 124.369 73.515
2.46 123.852 73.363
2.47 123.400 73.211
2.48 123.403 73.296
2.49 126.898 74.043
2.50 126.691 75.122
2.51 123.368 75.768
2.52 121.708 75.719
2.53 119.072 75.260
2.54 118.249 74.884
2.55 117.864 74.891
2.56 117.375 75.115
2.57 117.010 75.298
2.58 117.191 75.288
2.59 117.066 74.845
2.60 114.546 74.004
2.61 117.413 73.699
2.62 119.111 73.918
2.63 119.734 74.054
2.64 119.610 74.123
2.65 119.272 74.238
2.66 118.148 74.449
2.67 116.379 74.693
2.68 114.721 74.950
2.69 113.536 75.272
2.70 115.347 75.527
2.71 114.331 75.478
2.72 111.834 75.418
2.73 112.747 75.648
2.74 113.974 75.957
2.75 115.517 76.144
2.76 117.414 76.185
2.77 118.569 76.231
2.78 118.945 76.203
2.79 117.440 75.682
2.80 114.172 74.399
2.81 110.462 72.728
2.82 109.997 71.718
2.83 110.285 71.704
2.84 111.325 72.415
2.85 111.408 73.470
2.86 110.364 74.180
2.87 108.513 74.338
2.88 107.152 74.233
2.89 105.764 74.061
2.90 104.691 73.921
2.91 104.682 74.003
2.92 105.810 74.226
2.93 106.860 74.409
2.94 107.953 74.488
2.95 108.694 74.314
2.96 109.547 73.663
2.97 109.106 72.240
2.98 106.798 69.950
2.99 104.283 67.221
3.00 111.393 66.772
3.01 135.164 70.464
3.02 128.553 73.913
3.03 120.544 75.605
3.04 118.177 76.218
3.05 117.367 76.533
3.06 116.640 76.478
3.07 115.893 76.153
3.08 115.803 76.031
3.09 116.458 76.090
3.10 116.712 76.068
3.11 116.662 75.963
3.12 117.337 75.855
3.13 118.196 75.703
3.14 117.668 75.392
3.15 116.409 74.626
3.16 116.629 72.973
3.17 119.309 70.223
3.18 119.617 66.449
3.19 115.875 61.653
3.20 --undefined-- 56.011
3.21 --undefined-- 52.121
3.22 --undefined-- 56.573
3.23 --undefined-- 66.353
3.24 151.685 72.878
3.25 131.320 76.317
3.26 131.610 77.700
3.27 132.305 78.045
3.28 133.614 78.035
3.29 134.311 77.769
3.30 135.038 77.080
3.31 137.113 76.197
3.32 138.362 75.653
3.33 138.885 75.500
3.34 139.906 75.613
3.35 140.211 75.857
3.36 139.199 76.252
3.37 138.138 77.001
3.38 137.498 77.850
3.39 135.140 78.359
3.40 130.336 78.478
3.41 125.402 78.416
3.42 121.289 78.082
3.43 117.936 77.477
3.44 115.873 76.844
3.45 114.306 76.397
3.46 114.574 76.213
3.47 113.995 76.164
3.48 115.135 76.208
3.49 115.419 76.287
3.50 114.828 76.257
3.51 114.275 76.104
3.52 113.188 75.868
3.53 112.412 75.494
3.54 112.244 74.870
3.55 111.943 73.846
3.56 108.056 72.395
3.57 106.929 70.547
3.58 98.991 67.765
3.59 94.766 63.554
3.60 --undefined-- 58.223
3.61 --undefined-- 52.264
3.62 --undefined-- 47.927
3.63 --undefined-- 46.199
3.64 --undefined-- 47.237
3.65 --undefined-- 50.112
3.66 --undefined-- 52.660
3.67 --undefined-- 54.858
3.68 --undefined-- 59.839
3.69 --undefined-- 67.348
3.70 --undefined-- 72.594
3.71 115.957 75.416
3.72 115.895 76.410
3.73 116.263 75.894
3.74 114.386 73.773
3.75 105.056 69.690
3.76 110.252 63.800
3.77 108.398 57.645
3.78 --undefined-- 52.505
3.79 --undefined-- 47.997
3.80 --undefined-- 46.427
3.81 --undefined-- 47.226
3.82 --undefined-- 47.267
3.83 --undefined-- 46.976
3.84 --undefined-- 48.257
3.85 --undefined-- 50.663
3.86 --undefined-- 51.961
3.87 --undefined-- 53.732
3.88 --undefined-- 57.840
3.89 --undefined-- 67.266
3.90 224.222 74.213
3.91 197.908 77.533
3.92 185.509 78.294
3.93 182.847 77.927
3.94 180.150 77.211
3.95 176.664 76.055
3.96 175.544 75.087
3.97 178.284 74.710
3.98 178.987 74.539
3.99 180.018 74.531
4.00 180.593 74.607
4.01 182.127 74.750
4.02 183.505 74.993
4.03 183.488 75.218
4.04 181.390 75.336
4.05 177.936 75.329
4.06 173.032 75.119
4.07 166.951 74.633
4.08 159.362 73.890
4.09 150.895 72.958
4.10 141.892 72.705
4.11 144.552 74.652
4.12 141.747 76.923
4.13 135.005 77.982
4.14 128.601 77.894
4.15 122.293 76.854
4.16 118.870 74.628
4.17 108.497 70.749
4.18 106.295 65.556
4.19 112.945 62.060
4.20 121.894 60.871
4.21 --undefined-- 61.693
4.22 --undefined-- 63.595
4.23 --undefined-- 64.246
4.24 --undefined-- 65.492
4.25 146.283 70.750
4.26 138.896 74.742
4.27 122.113 76.236
4.28 118.646 76.338
4.29 118.598 76.225
4.30 115.756 76.134
4.31 114.242 75.896
4.32 116.140 75.661
4.33 117.286 75.394
4.34 118.046 74.790
4.35 117.506 73.606
4.36 117.012 71.617
4.37 116.043 68.373
4.38 116.253 63.846
4.39 123.121 59.588
4.40 123.412 57.161
4.41 --undefined-- 54.844
4.42 --undefined-- 55.239
4.43 --undefined-- 60.554
4.44 205.221 69.668
4.45 201.140 76.303
4.46 188.690 79.906
4.47 183.582 81.366
4.48 185.257 81.638
4.49 189.909 81.443
4.50 197.856 81.097
4.51 201.547 80.532
4.52 202.811 79.648
4.53 201.314 78.423
4.54 196.459 76.631
4.55 178.886 73.857
4.56 155.628 69.306
4.57 --undefined-- 62.325
4.58 --undefined-- 53.890
4.59 --undefined-- 50.575
4.60 --undefined-- 48.970
4.61 --undefined-- 47.505
4.62 --undefined-- 47.587
4.63 --undefined-- 48.683
4.64 --undefined-- 49.134
4.65 --undefined-- 49.264
4.66 --undefined-- 49.731
4.67 --undefined-- 50.161
4.68 --undefined-- 49.975
4.69 --undefined-- 49.775
4.70 --undefined-- 49.955
4.71 --undefined-- 49.702
4.72 --undefined-- 49.554
4.73 --undefined-- 49.461
4.74 --undefined-- 49.138
4.75 --undefined-- 48.844
4.76 --undefined-- 48.536
4.77 --undefined-- 48.763
4.78 --undefined-- 49.491
4.79 --undefined-- 49.947
4.80 --undefined-- 49.956
4.81 --undefined-- 49.569
4.82 --undefined-- 49.259
4.83 --undefined-- 48.875
4.84 --undefined-- 48.138
4.85 --undefined-- 47.291
4.86 --undefined-- 47.135
4.87 --undefined-- 47.279
4.88 --undefined-- 46.518
4.89 --undefined-- 44.406
4.90 --undefined-- 42.370
4.91 --undefined-- 41.717
4.92 --undefined-- 42.583
4.93 --undefined-- 44.493
4.94 --undefined-- 49.111
4.95 --undefined-- 52.348
4.96 --undefined-- 51.988
4.97 --undefined-- 48.401
4.98 --undefined-- 46.202
4.99 --undefined-- 51.069
5.00 --undefined-- 56.222
5.01 --undefined-- 59.919
5.02 --undefined-- 63.969
5.03 --undefined-- 69.935
5.04 --undefined-- 75.170
5.05 134.804 78.612
5.06 134.403 80.779
5.07 135.885 81.944
5.08 139.054 82.364
5.09 145.150 82.204
5.10 155.880 81.610
5.11 164.316 --undefined--
5.12 166.964 --undefined--
5.13 --undefined-- --undefined--
5.14 --undefined-- --undefined--
