Time Pitch Intensity
0.01 --undefined-- --undefined--
0.02 --undefined-- --undefined--
0.03 --undefined-- --undefined--
0.04 --undefined-- --undefined--
0.05 --undefined-- 55.178
0.06 --undefined-- 53.981
0.07 --undefined-- 51.684
0.08 --undefined-- 49.020
0.09 --undefined-- 47.086
0.10 --undefined-- 45.739
0.11 --undefined-- 45.789
0.12 --undefined-- 51.873
0.13 --undefined-- 57.080
0.14 --undefined-- 61.643
0.15 --undefined-- 69.884
0.16 --undefined-- 76.318
0.17 150.670 79.373
0.18 148.427 80.026
0.19 151.263 79.940
0.20 155.959 79.713
0.21 164.999 79.108
0.22 174.938 78.830
0.23 179.550 78.882
0.24 181.140 78.645
0.25 180.810 78.097
0.26 184.494 77.066
0.27 188.643 75.572
0.28 177.789 73.729
0.29 161.074 71.471
0.30 154.053 68.347
0.31 155.761 63.731
0.32 --undefined-- 58.767
0.33 --undefined-- 57.990
0.34 --undefined-- 60.409
0.35 --undefined-- 67.709
0.36 --undefined-- 74.344
0.37 153.899 77.845
0.38 151.169 78.703
0.39 139.768 78.136
0.40 140.506 77.674
0.41 147.145 77.574
0.42 154.086 77.615
0.43 163.001 77.832
0.44 169.679 77.483
0.45 170.799 75.482
0.46 163.527 71.220
0.47 --undefined-- 65.029
0.48 --undefined-- 62.232
0.49 --undefined-- 66.388
0.50 213.337 72.832
0.51 208.174 76.582
0.52 207.364 77.801
0.53 206.360 77.882
0.54 204.991 77.929
0.55 203.648 78.103
0.56 202.878 78.101
0.57 201.058 77.856
0.58 199.347 77.544
0.59 198.949 77.330
0.60 198.245 77.278
0.61 197.630 77.291
0.62 197.447 77.059
0.63 194.773 76.078
0.64 184.657 73.816
0.65 179.387 69.969
0.66 --undefined-- 64.557
0.67 --undefined-- 58.874
0.68 --undefined-- 56.502
0.69 --undefined-- 56.593
0.70 --undefined-- 57.603
0.71 --undefined-- 59.126
0.72 --undefined-- 60.437
0.73 --undefined-- 62.860
0.74 --undefined-- 69.013
0.75 206.470 74.210
0.76 205.728 76.468
0.77 202.992 76.427
0.78 199.610 74.993
0.79 195.413 73.273
0.80 194.301 72.822
0.81 193.913 73.407
0.82 193.418 74.139
0.83 192.852 74.744
0.84 191.664 75.114
0.85 189.141 75.272
0.86 185.722 75.227
0.87 180.959 74.945
0.88 173.481 74.550
0.89 162.225 74.735
0.90 153.064 76.119
0.91 145.943 77.577
0.92 140.280 78.173
0.93 134.033 77.898
0.94 126.826 77.355
0.95 122.288 76.873
0.96 117.584 75.650
0.97 112.125 72.647
0.98 102.250 68.022
0.99 104.897 65.745
1.00 104.913 67.170
1.01 105.045 68.978
1.02 105.961 70.005
1.03 107.232 70.121
1.04 108.956 69.647
1.05 111.592 69.116
1.06 118.114 69.129
1.07 126.276 68.688
1.08 131.223 66.446
1.09 123.418 67.180
1.10 159.355 73.473
1.11 160.218 77.478
1.12 159.019 79.043
1.13 157.312 78.667
1.14 154.596 76.271
1.15 147.981 71.820
1.16 152.470 67.013
1.17 151.310 63.487
1.18 156.066 59.428
1.19 154.208 55.053
1.20 --undefined-- 51.834
1.21 --undefined-- 50.301
1.22 --undefined-- 57.309
1.23 --undefined-- 65.980
1.24 138.012 72.150
1.25 118.841 75.280
1.26 116.584 75.896
1.27 107.369 74.974
1.28 102.516 73.611
1.29 102.063 71.678
1.30 96.054 68.408
1.31 95.368 63.717
1.32 102.079 58.250
1.33 --undefined-- 52.749
1.34 --undefined-- 49.092
1.35 --undefined-- 48.083
1.36 --undefined-- 47.228
1.37 --undefined-- 46.475
1.38 --undefined-- 49.294
1.39 --undefined-- 53.976
1.40 --undefined-- 56.847
1.41 --undefined-- 60.111
1.42 --undefined-- 68.011
1.43 --undefined-- 74.042
1.44 133.492 76.795
1.45 121.119 77.100
1.46 117.336 75.988
1.47 111.734 73.952
1.48 105.670 71.259
1.49 110.221 70.352
1.50 112.065 71.560
1.51 111.997 72.414
1.52 111.645 72.765
1.53 111.515 72.900
1.54 111.174 72.774
1.55 110.524 72.071
1.56 106.339 70.570
1.57 100.588 68.427
1.58 100.023 66.231
1.59 --undefined-- 65.527
1.60 --undefined-- 66.758
1.61 --undefined-- 67.656
1.62 --undefined-- 68.320
1.63 --undefined-- 71.855
1.64 --undefined-- 75.160
1.65 119.232 76.168
1.66 107.067 75.685
1.67 106.965 74.757
1.68 99.889 73.972
1.69 98.154 73.442
1.70 97.246 72.828
1.71 96.881 72.295
1.72 96.386 72.154
1.73 95.527 71.684
1.74 93.365 70.327
1.75 92.290 68.072
1.76 84.776 65.345
1.77 80.400 62.932
1.78 --undefined-- 60.950
1.79 --undefined-- 59.320
1.80 --undefined-- 57.893
1.81 --undefined-- 55.274
1.82 --undefined-- 50.662
1.83 --undefined-- 47.270
1.84 --undefined-- 51.360
1.85 --undefined-- 53.835
1.86 --undefined-- 53.143
1.87 --undefined-- 51.552
1.88 --undefined-- 51.452
1.89 --undefined-- 51.932
1.90 --undefined-- 52.529
1.91 --undefined-- 53.257
1.92 --undefined-- 53.995
1.93 --undefined-- 54.245
1.94 --undefined-- 53.951
1.95 --undefined-- 53.829
1.96 --undefined-- 53.802
1.97 --undefined-- 52.806
1.98 --undefined-- 51.353
1.99 --undefined-- 50.458
2.00 --undefined-- 48.869
2.01 --undefined-- 45.949
2.02 --undefined-- 45.175
2.03 --undefined-- 46.608
2.04 --undefined-- 50.859
2.05 --undefined-- 62.396
2.06 --undefined-- 70.821
2.07 141.403 75.905
2.08 140.156 78.526
2.09 140.240 79.532
2.10 144.056 79.826
2.11 148.663 79.979
2.12 154.335 80.015
2.13 159.966 80.035
2.14 161.848 80.072
2.15 159.701 79.100
2.16 149.864 76.087
2.17 147.349 71.476
2.18 149.640 70.196
2.19 157.630 75.181
2.20 154.430 78.789
2.21 138.588 79.514
2.22 130.933 78.049
2.23 124.665 75.764
2.24 114.330 73.172
2.25 108.302 69.930
2.26 108.926 67.383
2.27 110.536 67.429
2.28 110.501 68.102
2.29 109.937 68.525
2.30 109.122 69.178
2.31 109.531 69.784
2.32 108.707 69.525
2.33 105.870 67.901
2.34 102.897 65.151
2.35 100.646 62.820
2.36 --undefined-- 64.799
2.37 --undefined-- 69.597
2.38 115.951 72.692
2.39 112.129 73.819
2.40 112.272 73.815
2.41 112.683 72.989
2.42 112.071 71.205
2.43 108.033 68.966
2.44 109.989 67.789
2.45 111.906 68.374
2.46 111.832 69.213
2.47 112.141 69.704
2.48 112.450 69.860
2.49 111.781 69.807
2.50 111.943 70.058
2.51 113.660 71.051
2.52 113.133 72.062
2.53 114.085 72.603
2.54 119.092 72.845
2.55 120.437 72.965
2.56 126.233 73.188
2.57 132.152 73.842
2.58 140.353 74.740
2.59 148.109 75.331
2.60 155.548 75.577
2.61 161.703 75.800
2.62 167.906 76.068
2.63 174.612 76.315
2.64 180.584 76.936
2.65 182.995 77.911
2.66 182.123 77.869
2.67 179.649 75.600
2.68 171.176 70.474
2.69 172.902 62.571
2.70 --undefined-- 55.957
2.71 --undefined-- 55.658
2.72 --undefined-- 57.715
2.73 --undefined-- 60.931
2.74 --undefined-- 67.780
2.75 159.840 73.790
2.76 147.266 76.648
2.77 134.228 76.865
2.78 125.807 75.590
2.79 113.639 74.043
2.80 104.741 72.964
2.81 98.942 72.460
2.82 96.379 72.072
2.83 98.280 71.582
2.84 98.863 71.420
2.85 99.661 71.698
2.86 99.315 71.875
2.87 102.101 71.685
2.88 99.227 71.313
2.89 103.725 71.120
2.90 105.235 70.994
2.91 108.062 71.003
2.92 110.367 71.835
2.93 112.720 73.308
2.94 114.903 74.439
2.95 111.768 74.647
2.96 109.160 74.191
2.97 108.201 73.763
2.98 107.610 73.706
2.99 107.596 73.890
3.00 107.022 74.044
3.01 107.240 73.968
3.02 108.135 73.560
3.03 109.121 73.029
3.04 111.069 72.750
3.05 113.891 72.566
3.06 115.425 71.861
3.07 114.496 70.449
3.08 112.841 69.020
3.09 109.970 68.062
3.10 107.012 67.728
3.11 107.498 69.215
3.12 110.708 71.810
3.13 108.497 73.739
3.14 107.997 74.484
3.15 105.096 74.275
3.16 100.213 73.629
3.17 98.684 73.181
3.18 98.212 72.879
3.19 97.987 72.079
3.20 96.532 70.527
3.21 97.242 69.016
3.22 101.013 68.956
3.23 101.921 69.499
3.24 102.336 69.704
3.25 102.563 69.719
3.26 102.915 69.759
3.27 103.459 69.813
3.28 104.039 69.741
3.29 104.206 69.288
3.30 102.724 68.131
3.31 100.689 66.469
3.32 101.264 66.401
3.33 106.624 69.326
3.34 107.988 72.212
3.35 106.647 73.474
3.36 99.968 73.353
3.37 96.304 72.641
3.38 92.425 71.768
3.39 93.327 70.791
3.40 93.233 69.686
3.41 93.786 68.869
3.42 90.818 68.676
3.43 90.802 68.823
3.44 93.620 69.002
3.45 95.811 69.144
3.46 98.113 68.976
3.47 101.291 68.369
3.48 102.453 67.971
3.49 104.893 68.691
3.50 105.896 70.493
3.51 106.161 72.326
3.52 106.439 73.367
3.53 106.901 73.283
3.54 113.213 71.810
3.55 --undefined-- 68.661
3.56 --undefined-- 65.871
3.57 --undefined-- 68.377
3.58 --undefined-- 70.435
3.59 --undefined-- 70.342
3.60 --undefined-- 69.293
3.61 --undefined-- 69.225
3.62 --undefined-- 72.986
3.63 --undefined-- 75.704
3.64 112.607 75.827
3.65 107.886 74.640
3.66 103.889 73.721
3.67 105.730 73.985
3.68 116.167 75.303
3.69 125.667 76.900
3.70 133.840 78.265
3.71 145.963 79.446
3.72 154.214 80.345
3.73 163.274 80.674
3.74 168.558 80.468
3.75 176.771 79.686
3.76 190.473 78.126
3.77 201.231 76.024
3.78 196.605 74.205
3.79 181.828 73.400
3.80 170.898 72.860
3.81 156.531 71.560
3.82 --undefined-- 68.927
3.83 --undefined-- 65.287
3.84 --undefined-- 62.433
3.85 --undefined-- 59.246
3.86 --undefined-- 55.828
3.87 --undefined-- 54.188
3.88 --undefined-- 53.726
3.89 --undefined-- 56.080
3.90 --undefined-- 59.856
3.91 135.837 64.051
3.92 144.805 67.571
3.93 150.662 70.076
3.94 152.812 71.620
3.95 152.137 72.205
3.96 150.340 71.926
3.97 147.576 70.868
3.98 146.595 69.089
3.99 150.109 66.687
4.00 152.712 63.554
4.01 152.012 60.293
4.02 --undefined-- 64.229
4.03 --undefined-- 71.323
4.04 166.570 75.800
4.05 159.197 77.703
4.06 141.230 77.433
4.07 133.997 76.305
4.08 133.692 75.623
4.09 133.451 75.263
4.10 134.439 75.007
4.11 135.107 74.715
4.12 133.667 74.287
4.13 129.773 73.688
4.14 121.731 72.617
4.15 115.862 71.444
4.16 113.013 70.860
4.17 108.696 70.489
4.18 104.661 70.102
4.19 101.405 69.665
4.20 99.494 69.171
4.21 98.119 68.832
4.22 97.894 68.675
4.23 98.988 68.627
4.24 100.205 68.608
4.25 101.043 68.364
4.26 100.384 67.562
4.27 98.000 66.014
4.28 96.838 63.838
4.29 101.334 61.623
4.30 105.256 59.899
4.31 105.699 59.216
4.32 --undefined-- 60.358
4.33 --undefined-- 62.874
4.34 --undefined-- 69.245
4.35 --undefined-- 75.068
4.36 163.881 77.922
4.37 161.799 78.430
4.38 157.978 77.303
4.39 154.008 75.389
4.40 153.925 74.358
4.41 155.724 74.690
4.42 157.348 75.242
4.43 159.105 75.493
4.44 160.055 75.458
4.45 160.924 75.195
4.46 160.817 74.876
4.47 159.640 75.060
4.48 161.361 76.466
4.49 158.293 78.160
4.50 155.104 79.049
4.51 151.374 79.249
4.52 146.167 79.128
4.53 138.674 78.680
4.54 133.481 77.893
4.55 127.518 77.204
4.56 122.151 76.565
4.57 119.237 74.883
4.58 111.229 71.244
4.59 105.488 65.839
4.60 114.367 60.154
4.61 --undefined-- 55.566
4.62 --undefined-- 51.351
4.63 --undefined-- 48.512
4.64 --undefined-- 48.581
4.65 --undefined-- 58.671
4.66 --undefined-- 68.612
4.67 173.086 74.549
4.68 162.095 77.567
4.69 157.625 78.544
4.70 154.906 78.302
4.71 151.363 77.310
4.72 148.907 76.149
4.73 147.760 75.201
4.74 145.988 74.777
4.75 142.622 75.380
4.76 140.170 76.525
4.77 138.230 77.390
4.78 134.384 77.771
4.79 129.331 77.884
4.80 125.125 77.979
4.81 122.351 78.150
4.82 120.689 78.195
4.83 119.629 77.711
4.84 118.227 76.447
4.85 115.256 74.209
4.86 108.998 70.691
4.87 109.373 65.849
4.88 114.499 61.191
4.89 115.725 56.606
4.90 --undefined-- 52.149
4.91 --undefined-- 55.240
4.92 --undefined-- 62.739
4.93 --undefined-- 68.942
4.94 --undefined-- 72.298
4.95 108.963 73.100
4.96 107.306 72.259
4.97 96.731 70.699
4.98 95.005 69.068
4.99 96.240 68.147
5.00 100.136 68.445
5.01 106.729 69.606
5.02 110.909 70.919
5.03 118.320 72.046
5.04 125.068 72.985
5.05 129.068 73.877
5.06 131.351 74.652
5.07 132.972 75.137
5.08 134.266 --undefined--
5.09 132.955 --undefined--
5.10 --undefined-- --undefined--
5.11 --undefined-- --undefined--
