Time Pitch Intensity
0.01 --undefined-- --undefined--
0.02 --undefined-- --undefined--
0.03 --undefined-- --undefined--
0.04 --undefined-- --undefined--
0.05 --undefined-- 56.690
0.06 --undefined-- 59.140
0.07 --undefined-- 59.540
0.08 --undefined-- 57.770
0.09 --undefined-- 55.224
0.10 --undefined-- 59.600
0.11 --undefined-- 64.224
0.12 97.055 65.859
0.13 92.171 65.189
0.14 88.244 63.652
0.15 84.815 62.446
0.16 --undefined-- 60.942
0.17 --undefined-- 57.880
0.18 --undefined-- 52.936
0.19 --undefined-- 47.243
0.20 --undefined-- 44.361
0.21 --undefined-- 44.400
0.22 --undefined-- 45.244
0.23 --undefined-- 46.323
0.24 --undefined-- 48.591
0.25 --undefined-- 50.826
0.26 --undefined-- 51.933
0.27 --undefined-- 52.157
0.28 --undefined-- 51.772
0.29 --undefined-- 51.664
0.30 --undefined-- 51.848
0.31 --undefined-- 51.200
0.32 --undefined-- 49.492
0.33 --undefined-- 47.617
0.34 --undefined-- 47.534
0.35 --undefined-- 48.924
0.36 --undefined-- 52.057
0.37 --undefined-- 54.020
0.38 --undefined-- 54.925
0.39 --undefined-- 56.509
0.40 --undefined-- 58.254
0.41 86.194 60.381
0.42 88.476 63.286
0.43 89.212 66.357
0.44 86.997 68.618
0.45 85.184 69.496
0.46 83.472 68.889
0.47 82.513 67.211
0.48 82.873 65.499
0.49 84.015 64.347
0.50 86.051 63.543
0.51 88.935 63.085
0.52 89.849 62.945
0.53 90.014 63.071
0.54 90.434 63.860
0.55 92.727 64.852
0.56 90.981 65.524
0.57 88.694 65.977
0.58 87.683 66.015
0.59 87.288 65.057
0.60 84.594 62.714
0.61 --undefined-- 59.926
0.62 --undefined-- 57.368
0.63 --undefined-- 54.742
0.64 --undefined-- 54.665
0.65 --undefined-- 55.564
0.66 --undefined-- 57.017
0.67 --undefined-- 58.216
0.68 --undefined-- 58.559
0.69 --undefined-- 58.465
0.70 --undefined-- 58.091
0.71 --undefined-- 58.169
0.72 --undefined-- 57.919
0.73 --undefined-- 57.383
0.74 --undefined-- 56.856
0.75 --undefined-- 56.045
0.76 --undefined-- 55.913
0.77 --undefined-- 57.714
0.78 --undefined-- 60.609
0.79 81.749 61.913
0.80 78.645 62.248
0.81 78.605 62.926
0.82 --undefined-- 63.329
0.83 --undefined-- 63.131
0.84 --undefined-- 62.239
0.85 --undefined-- 59.423
0.86 --undefined-- 54.284
0.87 --undefined-- 49.390
0.88 --undefined-- 46.585
0.89 --undefined-- 43.875
0.90 --undefined-- 40.256
0.91 --undefined-- 37.042
0.92 --undefined-- 35.684
0.93 --undefined-- 35.851
0.94 --undefined-- 36.746
0.95 --undefined-- 37.532
0.96 --undefined-- 37.283
0.97 --undefined-- 35.874
0.98 --undefined-- 35.143
0.99 --undefined-- 35.259
1.00 --undefined-- 34.887
1.01 --undefined-- 34.509
1.02 --undefined-- 34.648
1.03 --undefined-- 35.114
1.04 --undefined-- 35.358
1.05 --undefined-- 35.503
1.06 --undefined-- 35.388
1.07 --undefined-- 39.266
1.08 --undefined-- 51.801
1.09 --undefined-- 59.468
1.10 --undefined-- 62.689
1.11 --undefined-- 62.586
1.12 --undefined-- 59.974
1.13 --undefined-- 56.382
1.14 --undefined-- 57.513
1.15 --undefined-- 62.044
1.16 --undefined-- 65.542
1.17 92.123 67.600
1.18 89.027 68.879
1.19 86.090 70.074
1.20 83.163 70.654
1.21 80.767 70.264
1.22 80.759 69.713
1.23 79.257 69.249
1.24 78.104 69.126
1.25 78.641 69.370
1.26 79.547 68.981
1.27 79.941 67.670
1.28 80.194 66.469
1.29 81.700 67.133
1.30 81.308 68.161
1.31 81.022 68.031
1.32 80.726 67.822
1.33 81.033 68.324
1.34 79.893 68.963
1.35 79.671 69.173
1.36 79.506 68.973
1.37 79.365 68.743
1.38 79.248 68.245
1.39 78.731 67.435
1.40 78.798 66.528
1.41 78.901 65.402
1.42 79.044 64.039
1.43 78.984 61.607
1.44 79.506 57.153
1.45 79.864 52.221
1.46 --undefined-- 49.220
1.47 --undefined-- 47.128
1.48 --undefined-- 44.439
1.49 --undefined-- 40.720
1.50 --undefined-- 38.539
1.51 --undefined-- 40.070
1.52 --undefined-- 41.424
1.53 --undefined-- 40.286
1.54 --undefined-- 39.387
1.55 --undefined-- 40.844
1.56 --undefined-- 41.910
1.57 --undefined-- 41.914
1.58 --undefined-- 42.225
1.59 --undefined-- 43.658
1.60 --undefined-- 44.415
1.61 --undefined-- 44.026
1.62 --undefined-- 43.747
1.63 --undefined-- 46.723
1.64 --undefined-- 49.939
1.65 96.551 51.661
1.66 92.114 52.752
1.67 86.679 54.056
1.68 --undefined-- 55.017
1.69 82.219 55.137
1.70 78.652 55.149
1.71 76.146 55.720
1.72 76.294 56.159
1.73 76.660 55.921
1.74 77.405 56.317
1.75 77.327 57.434
1.76 77.351 58.253
1.77 77.510 58.514
1.78 75.470 58.414
1.79 76.570 57.938
1.80 74.497 56.912
1.81 74.751 55.943
1.82 74.626 55.854
1.83 75.738 55.826
1.84 75.398 55.238
1.85 75.057 54.462
1.86 75.419 53.559
1.87 75.090 52.664
1.88 74.808 51.878
1.89 --undefined-- 50.995
1.90 --undefined-- 50.087
1.91 --undefined-- 48.841
1.92 --undefined-- 46.993
1.93 --undefined-- 45.211
1.94 --undefined-- 43.639
1.95 --undefined-- 42.772
1.96 --undefined-- 43.026
1.97 --undefined-- 43.734
1.98 --undefined-- 44.024
1.99 --undefined-- 43.734
2.00 --undefined-- 43.119
2.01 --undefined-- 42.518
2.02 --undefined-- 41.465
2.03 --undefined-- 39.493
2.04 --undefined-- 38.371
2.05 --undefined-- 38.283
2.06 --undefined-- 36.834
2.07 --undefined-- 34.385
2.08 --undefined-- 33.395
2.09 --undefined-- 38.505
2.10 --undefined-- 44.663
2.11 --undefined-- 47.764
2.12 --undefined-- 48.923
2.13 --undefined-- 49.917
2.14 --undefined-- 54.064
2.15 109.287 59.352
2.16 108.660 63.857
2.17 108.061 67.732
2.18 108.186 70.808
2.19 108.568 72.865
2.20 108.281 73.864
2.21 107.249 73.384
2.22 105.707 71.253
2.23 104.913 67.551
2.24 104.709 62.609
2.25 106.113 59.187
2.26 110.036 58.405
2.27 110.679 58.186
2.28 110.881 57.843
2.29 109.869 57.417
2.30 107.590 56.931
2.31 105.604 56.145
2.32 103.137 55.460
2.33 103.332 55.192
2.34 100.049 54.227
2.35 --undefined-- 54.474
2.36 --undefined-- 60.968
2.37 --undefined-- 65.521
2.38 --undefined-- 66.087
2.39 --undefined-- 63.544
2.40 --undefined-- 65.679
2.41 109.275 70.138
2.42 102.296 72.393
2.43 101.647 72.969
2.44 100.387 72.673
2.45 99.982 72.290
2.46 99.291 71.950
2.47 98.809 71.519
2.48 98.703 70.891
2.49 98.368 69.828
2.50 98.465 68.533
2.51 98.392 67.166
2.52 95.407 65.712
2.53 95.655 64.398
2.54 99.577 62.785
2.55 97.562 60.887
2.56 97.157 58.805
2.57 --undefined-- 56.724
2.58 --undefined-- 57.657
2.59 --undefined-- 60.046
2.60 --undefined-- 60.427
2.61 --undefined-- 58.742
2.62 --undefined-- 57.790
2.63 --undefined-- 60.499
2.64 --undefined-- 63.031
2.65 --undefined-- 63.830
2.66 --undefined-- 63.902
2.67 --undefined-- 64.045
2.68 --undefined-- 63.415
2.69 --undefined-- 61.706
2.70 --undefined-- 59.354
2.71 --undefined-- 56.625
2.72 --undefined-- 53.904
2.73 --undefined-- 51.519
2.74 --undefined-- 49.242
2.75 --undefined-- 46.098
2.76 --undefined-- 43.011
2.77 --undefined-- 40.186
2.78 --undefined-- 36.460
2.79 --undefined-- 33.882
2.80 --undefined-- 34.474
2.81 --undefined-- 34.556
2.82 --undefined-- 33.600
2.83 --undefined-- 34.631
2.84 --undefined-- 36.429
2.85 --undefined-- 37.584
2.86 --undefined-- 39.134
2.87 --undefined-- 40.758
2.88 --undefined-- 42.058
2.89 --undefined-- 43.287
2.90 --undefined-- 44.028
2.91 --undefined-- 44.775
2.92 --undefined-- 46.466
2.93 --undefined-- 51.055
2.94 --undefined-- 56.815
2.95 --undefined-- 60.628
2.96 --undefined-- 61.722
2.97 --undefined-- 59.865
2.98 --undefined-- 57.340
2.99 --undefined-- 58.784
3.00 --undefined-- 59.617
3.01 --undefined-- 58.940
3.02 --undefined-- 58.941
3.03 --undefined-- 59.332
3.04 --undefined-- 59.166
3.05 --undefined-- 58.233
3.06 --undefined-- 57.282
3.07 --undefined-- 56.996
3.08 --undefined-- 56.749
3.09 --undefined-- 55.806
3.10 --undefined-- 54.674
3.11 --undefined-- 54.128
3.12 --undefined-- 53.735
3.13 --undefined-- 53.652
3.14 --undefined-- 53.673
3.15 --undefined-- 52.928
3.16 --undefined-- 51.510
3.17 --undefined-- 49.371
3.18 --undefined-- 46.232
3.19 --undefined-- 42.551
3.20 --undefined-- 39.226
3.21 --undefined-- 39.964
3.22 --undefined-- 47.035
3.23 --undefined-- 53.612
3.24 --undefined-- 57.801
3.25 --undefined-- 63.295
3.26 --undefined-- 70.884
3.27 148.435 75.687
3.28 144.708 77.221
3.29 144.111 75.588
3.30 --undefined-- 70.619
3.31 --undefined-- 62.024
3.32 --undefined-- 53.048
3.33 --undefined-- 56.143
3.34 --undefined-- 60.087
3.35 --undefined-- 61.036
3.36 --undefined-- 63.735
3.37 --undefined-- 68.841
3.38 193.731 72.854
3.39 190.717 75.482
3.40 187.662 76.945
3.41 185.086 77.502
3.42 181.821 77.343
3.43 177.277 76.737
3.44 172.962 76.002
3.45 168.058 75.243
3.46 162.176 74.355
3.47 155.369 73.438
3.48 148.973 72.776
3.49 --undefined-- 72.088
3.50 --undefined-- 71.062
3.51 --undefined-- 69.742
3.52 --undefined-- 67.737
3.53 116.387 65.130
3.54 112.625 63.156
3.55 112.035 62.103
3.56 110.358 60.898
3.57 109.606 60.342
3.58 110.152 62.658
3.59 109.158 67.170
3.60 110.098 70.925
3.61 112.196 73.272
3.62 114.988 74.622
3.63 117.645 75.316
3.64 118.946 75.388
3.65 119.096 74.367
3.66 --undefined-- 71.200
3.67 --undefined-- 65.067
3.68 --undefined-- 62.951
3.69 --undefined-- 68.948
3.70 116.834 72.899
3.71 113.095 74.617
3.72 110.969 74.822
3.73 105.768 74.144
3.74 104.397 72.974
3.75 103.578 71.833
3.76 101.673 71.169
3.77 101.276 71.244
3.78 101.080 71.865
3.79 99.170 72.178
3.80 100.219 72.381
3.81 99.675 73.420
3.82 99.128 74.522
3.83 98.775 74.683
3.84 98.573 74.130
3.85 99.692 73.885
3.86 99.739 73.826
3.87 99.061 73.530
3.88 98.432 73.342
3.89 98.395 73.327
3.90 98.872 73.107
3.91 99.183 72.567
3.92 98.996 71.833
3.93 98.393 70.837
3.94 97.866 69.832
3.95 96.926 68.964
3.96 96.208 67.577
3.97 91.126 65.480
3.98 90.608 62.215
3.99 --undefined-- 56.771
4.00 --undefined-- 49.123
4.01 --undefined-- 44.179
4.02 --undefined-- 43.932
4.03 --undefined-- 43.374
4.04 --undefined-- 42.316
4.05 --undefined-- 40.934
4.06 --undefined-- 39.093
4.07 --undefined-- 36.616
4.08 --undefined-- 34.243
4.09 --undefined-- 33.188
4.10 --undefined-- 32.797
4.11 --undefined-- 32.347
4.12 --undefined-- 32.353
4.13 --undefined-- 34.633
4.14 --undefined-- 45.998
4.15 --undefined-- 57.072
4.16 --undefined-- 65.760
4.17 --undefined-- 71.376
4.18 125.011 74.339
4.19 113.161 75.319
4.20 116.171 75.402
4.21 115.799 75.409
4.22 119.567 75.252
4.23 122.218 74.164
4.24 126.382 71.343
4.25 130.218 66.780
4.26 145.562 62.746
4.27 149.846 61.831
4.28 151.928 62.093
4.29 160.227 61.741
4.30 161.056 60.441
4.31 163.055 58.873
4.32 163.489 57.871
4.33 158.390 58.559
4.34 --undefined-- 61.703
4.35 --undefined-- 63.412
4.36 --undefined-- 62.450
4.37 --undefined-- 63.294
4.38 --undefined-- 65.967
4.39 132.733 68.220
4.40 132.175 69.977
4.41 131.885 71.462
4.42 132.351 72.701
4.43 133.194 73.472
4.44 134.805 73.569
4.45 137.933 72.805
4.46 140.346 70.747
4.47 145.092 67.523
4.48 145.295 64.220
4.49 152.306 61.292
4.50 148.695 58.381
4.51 --undefined-- 54.600
4.52 --undefined-- 49.522
4.53 --undefined-- 44.517
4.54 --undefined-- 41.542
4.55 --undefined-- 41.722
4.56 --undefined-- 47.299
4.57 --undefined-- 52.180
4.58 --undefined-- 55.835
4.59 --undefined-- 56.998
4.60 --undefined-- 54.667
4.61 --undefined-- 50.948
4.62 --undefined-- 53.828
4.63 --undefined-- 58.570
4.64 104.789 61.655
4.65 105.786 63.439
4.66 108.269 64.506
4.67 110.295 65.223
4.68 113.220 66.003
4.69 117.239 67.029
4.70 120.796 68.575
4.71 126.571 70.643
4.72 128.187 72.550
4.73 127.850 73.430
4.74 126.164 72.819
4.75 121.142 71.359
4.76 116.945 70.534
4.77 --undefined-- 72.109
4.78 --undefined-- 74.378
4.79 103.537 75.222
4.80 98.086 75.178
4.81 97.275 74.788
4.82 95.598 73.991
4.83 94.849 72.969
4.84 94.202 70.999
4.85 92.461 67.725
4.86 --undefined-- 63.287
4.87 --undefined-- 56.207
4.88 --undefined-- 47.646
4.89 --undefined-- 52.773
4.90 --undefined-- 60.713
4.91 --undefined-- 67.176
4.92 --undefined-- 71.833
4.93 120.914 74.548
4.94 120.032 75.743
4.95 119.909 76.065
4.96 119.173 75.506
4.97 117.797 73.665
4.98 115.688 70.508
4.99 113.546 66.639
5.00 --undefined-- 62.147
5.01 --undefined-- 58.465
5.02 --undefined-- 58.794
5.03 --undefined-- 60.328
5.04 --undefined-- 61.024
5.05 --undefined-- 61.563
5.06 --undefined-- 61.887
5.07 --undefined-- 61.011
5.08 --undefined-- 60.018
5.09 --undefined-- 61.560
5.10 --undefined-- 66.893
5.11 112.673 71.642
5.12 112.827 74.328
5.13 106.341 75.448
5.14 105.054 75.266
5.15 100.567 73.643
5.16 --undefined-- 70.168
5.17 --undefined-- 64.412
5.18 --undefined-- 60.038
5.19 92.227 63.416
5.20 91.877 66.772
5.21 87.761 68.258
5.22 86.489 67.941
5.23 85.665 66.718
5.24 85.500 65.589
5.25 86.043 64.716
5.26 85.418 63.777
5.27 84.598 62.716
5.28 84.574 61.496
5.29 84.624 59.529
5.30 --undefined-- 55.645
5.31 --undefined-- 48.381
5.32 --undefined-- 39.552
5.33 --undefined-- 37.156
5.34 --undefined-- 39.611
5.35 --undefined-- 47.470
5.36 --undefined-- 54.495
5.37 --undefined-- 59.613
5.38 --undefined-- 62.820
5.39 --undefined-- 64.290
5.40 --undefined-- 65.383
5.41 --undefined-- 68.582
5.42 --undefined-- 71.119
5.43 89.912 71.792
5.44 85.070 71.656
5.45 81.980 71.475
5.46 81.534 70.956
5.47 82.586 70.278
5.48 82.709 69.655
5.49 82.679 68.978
5.50 84.920 68.202
5.51 86.483 67.028
5.52 89.707 66.238
5.53 90.848 66.344
5.54 92.697 66.322
5.55 95.755 66.210
5.56 98.455 66.289
5.57 99.915 --undefined--
5.58 102.011 --undefined--
5.59 --undefined-- --undefined--
5.60 --undefined-- --undefined--
