Time Pitch Intensity
0.01 --undefined-- --undefined--
0.02 101.105 --undefined--
0.03 99.669 --undefined--
0.04 102.636 --undefined--
0.05 101.766 60.755
0.06 112.530 63.498
0.07 108.847 65.320
0.08 107.835 66.616
0.09 108.721 68.090
0.10 111.585 69.932
0.11 115.112 71.703
0.12 119.465 73.109
0.13 123.938 73.959
0.14 125.759 74.444
0.15 131.489 75.216
0.16 136.581 76.062
0.17 139.673 76.658
0.18 147.055 76.867
0.19 149.579 76.591
0.20 150.835 76.509
0.21 153.391 76.842
0.22 155.051 77.136
0.23 157.222 77.546
0.24 159.780 77.990
0.25 160.465 78.336
0.26 157.722 78.467
0.27 154.125 77.638
0.28 152.209 74.985
0.29 152.413 70.765
0.30 153.230 66.736
0.31 153.738 63.039
0.32 156.588 58.987
0.33 150.478 57.510
0.34 --undefined-- 63.178
0.35 --undefined-- 70.684
0.36 --undefined-- 74.658
0.37 131.596 75.692
0.38 125.624 75.638
0.39 121.375 75.902
0.40 120.597 76.226
0.41 120.092 76.092
0.42 119.739 75.432
0.43 122.006 74.771
0.44 124.117 74.063
0.45 121.402 72.119
0.46 121.253 68.629
0.47 121.425 65.156
0.48 120.186 61.994
0.49 117.079 57.890
0.50 118.977 54.210
0.51 120.295 53.105
0.52 120.657 52.971
0.53 120.383 54.869
0.54 --undefined-- 59.014
0.55 --undefined-- 62.610
0.56 --undefined-- 65.075
0.57 --undefined-- 69.765
0.58 --undefined-- 74.389
0.59 145.838 76.089
0.60 140.887 75.123
0.61 131.040 72.756
0.62 128.953 71.258
0.63 130.582 71.876
0.64 131.579 73.142
0.65 132.976 74.055
0.66 134.081 74.751
0.67 134.352 75.119
0.68 134.365 75.098
0.69 134.544 75.012
0.70 134.521 75.122
0.71 134.022 75.360
0.72 133.258 75.533
0.73 132.306 75.628
0.74 131.868 75.680
0.75 132.101 75.704
0.76 132.258 75.749
0.77 131.714 75.800
0.78 130.659 75.814
0.79 129.224 75.828
0.80 131.965 76.035
0.81 128.940 76.147
0.82 128.061 75.784
0.83 128.216 75.455
0.84 128.682 75.450
0.85 129.526 75.574
0.86 130.445 75.633
0.87 130.663 75.633
0.88 130.451 75.619
0.89 129.881 75.636
0.90 129.091 75.766
0.91 128.019 75.746
0.92 126.784 75.033
0.93 124.542 73.166
0.94 122.936 70.129
0.95 125.562 66.733
0.96 128.242 63.749
0.97 128.583 60.588
0.98 129.343 56.367
0.99 --undefined-- 50.881
1.00 --undefined-- 46.762
1.01 --undefined-- 51.857
1.02 --undefined-- 57.576
1.03 --undefined-- 63.699
1.04 --undefined-- 70.518
1.05 188.617 74.649
1.06 188.439 76.046
1.07 188.991 76.101
1.08 188.606 76.189
1.09 188.162 76.240
1.10 187.966 75.892
1.11 191.845 75.584
1.12 196.052 75.721
1.13 198.090 76.081
1.14 198.747 76.547
1.15 199.230 77.019
1.16 199.201 77.379
1.17 198.443 77.660
1.18 196.982 77.912
1.19 195.821 78.081
1.20 194.310 78.004
1.21 190.072 77.350
1.22 181.378 75.664
1.23 169.794 72.745
1.24 162.534 68.899
1.25 168.211 64.306
1.26 --undefined-- 58.167
1.27 --undefined-- 56.080
1.28 --undefined-- 64.998
1.29 171.748 72.121
1.30 160.081 76.011
1.31 151.472 76.969
1.32 143.399 75.595
1.33 131.762 73.568
1.34 130.288 73.020
1.35 129.198 73.575
1.36 128.632 74.288
1.37 128.401 74.847
1.38 127.959 75.232
1.39 128.133 75.400
1.40 128.991 75.373
1.41 129.143 75.284
1.42 129.945 74.937
1.43 133.248 73.965
1.44 136.552 72.477
1.45 137.138 70.906
1.46 137.660 69.603
1.47 138.333 68.925
1.48 140.126 69.534
1.49 144.398 71.851
1.50 156.523 74.880
1.51 165.088 76.973
1.52 167.496 77.630
1.53 169.302 77.188
1.54 168.117 76.027
1.55 160.999 74.893
1.56 162.940 75.768
1.57 164.331 77.388
1.58 163.356 78.284
1.59 160.321 78.307
1.60 155.799 77.449
1.61 152.906 76.013
1.62 150.626 74.557
1.63 150.157 73.340
1.64 151.018 72.298
1.65 149.424 71.625
1.66 150.040 71.554
1.67 151.039 72.057
1.68 152.760 72.933
1.69 152.975 73.915
1.70 151.855 74.754
1.71 149.760 75.231
1.72 146.264 75.129
1.73 142.791 74.159
1.74 139.935 71.935
1.75 136.216 67.820
1.76 --undefined-- 61.434
1.77 --undefined-- 54.305
1.78 --undefined-- 50.563
1.79 --undefined-- 47.444
1.80 --undefined-- 44.296
1.81 --undefined-- 44.261
1.82 --undefined-- 46.255
1.83 --undefined-- 49.893
1.84 --undefined-- 54.067
1.85 --undefined-- 61.460
1.86 --undefined-- 69.327
1.87 --undefined-- 73.548
1.88 132.001 74.615
1.89 120.570 73.959
1.90 119.898 73.126
1.91 119.159 72.374
1.92 115.629 71.625
1.93 117.214 71.317
1.94 115.269 71.382
1.95 113.238 71.501
1.96 111.881 71.597
1.97 111.021 71.693
1.98 110.441 71.849
1.99 109.950 71.978
2.00 109.686 72.002
2.01 108.708 71.633
2.02 105.207 70.454
2.03 96.237 68.238
2.04 99.617 64.947
2.05 101.012 60.462
2.06 103.891 55.158
2.07 --undefined-- 51.108
2.08 --undefined-- 49.738
2.09 --undefined-- 51.124
2.10 --undefined-- 55.882
2.11 --undefined-- 62.910
2.12 --undefined-- 67.731
2.13 99.095 70.394
2.14 99.763 71.886
2.15 102.022 73.056
2.16 107.445 74.346
2.17 114.164 75.680
2.18 120.279 76.760
2.19 127.401 77.001
2.20 130.269 76.239
2.21 129.753 75.741
2.22 128.412 76.213
2.23 126.055 76.241
2.24 118.004 75.641
2.25 --undefined-- 74.653
2.26 --undefined-- 72.509
2.27 --undefined-- 69.631
2.28 --undefined-- 67.283
2.29 --undefined-- 64.355
2.30 --undefined-- 59.980
2.31 --undefined-- 55.130
2.32 --undefined-- 52.194
2.33 --undefined-- 51.232
2.34 --undefined-- 50.466
2.35 --undefined-- 49.954
2.36 --undefined-- 49.604
2.37 --undefined-- 49.531
2.38 --undefined-- 50.025
2.39 --undefined-- 50.615
2.40 --undefined-- 51.032
2.41 --undefined-- 51.511
2.42 --undefined-- 52.053
2.43 --undefined-- 52.653
2.44 --undefined-- 52.785
2.45 --undefined-- 52.427
2.46 --undefined-- 52.134
2.47 --undefined-- 51.650
2.48 --undefined-- 51.177
2.49 --undefined-- 50.983
2.50 --undefined-- 50.410
2.51 --undefined-- 49.368
2.52 --undefined-- 48.389
2.53 --undefined-- 47.053
2.54 --undefined-- 45.086
2.55 --undefined-- 43.129
2.56 --undefined-- 42.958
2.57 --undefined-- 48.696
2.58 --undefined-- 54.925
2.59 --undefined-- 60.165
2.60 --undefined-- 66.462
2.61 --undefined-- 71.410
2.62 122.653 73.678
2.63 118.304 74.198
2.64 124.713 74.571
2.65 129.607 75.254
2.66 137.877 75.726
2.67 140.214 75.357
2.68 141.045 74.325
2.69 145.437 74.099
2.70 147.685 74.972
2.71 147.536 76.043
2.72 148.018 76.947
2.73 154.698 77.574
2.74 150.571 77.489
2.75 144.641 76.611
2.76 141.600 75.884
2.77 139.981 75.820
2.78 139.247 76.043
2.79 138.391 76.277
2.80 136.829 76.177
2.81 140.751 75.969
2.82 143.408 75.864
2.83 144.406 74.756
2.84 146.296 71.502
2.85 139.838 66.030
2.86 143.472 59.875
2.87 --undefined-- 55.254
2.88 --undefined-- 57.457
2.89 --undefined-- 62.033
2.90 --undefined-- 66.338
2.91 164.038 69.826
2.92 158.089 71.735
2.93 162.096 72.985
2.94 172.849 74.672
2.95 188.884 76.590
2.96 199.865 77.895
2.97 206.041 78.064
2.98 208.932 77.387
2.99 211.260 76.567
3.00 211.693 75.911
3.01 209.976 75.626
3.02 209.010 75.576
3.03 209.613 75.363
3.04 209.067 75.069
3.05 206.313 75.056
3.06 204.611 75.282
3.07 203.051 75.255
3.08 194.723 74.395
3.09 184.226 72.504
3.10 181.999 69.478
3.11 173.727 65.366
3.12 --undefined-- 63.642
3.13 --undefined-- 64.511
3.14 --undefined-- 67.279
3.15 177.326 72.683
3.16 164.839 76.093
3.17 156.765 77.246
3.18 152.122 76.993
3.19 147.444 76.420
3.20 148.753 76.523
3.21 151.512 76.799
3.22 152.800 76.410
3.23 157.466 75.534
3.24 166.889 74.656
3.25 170.874 73.215
3.26 168.074 70.756
3.27 162.516 67.396
3.28 177.807 63.464
3.29 170.579 59.985
3.30 157.560 56.954
3.31 152.926 54.595
3.32 154.726 54.384
3.33 --undefined-- 58.813
3.34 --undefined-- 63.693
3.35 --undefined-- 67.960
3.36 --undefined-- 71.708
3.37 123.840 74.090
3.38 125.398 74.945
3.39 125.007 75.059
3.40 124.023 75.248
3.41 124.006 75.494
3.42 125.064 75.726
3.43 126.004 75.817
3.44 127.040 75.684
3.45 127.925 75.466
3.46 128.573 75.292
3.47 129.305 75.230
3.48 130.395 75.020
3.49 130.931 73.884
3.50 128.081 71.007
3.51 128.919 66.361
3.52 134.993 61.212
3.53 --undefined-- 56.931
3.54 --undefined-- 57.640
3.55 --undefined-- 66.094
3.56 --undefined-- 72.979
3.57 163.425 76.404
3.58 159.581 77.002
3.59 151.296 75.991
3.60 148.165 75.129
3.61 147.847 74.835
3.62 148.201 74.666
3.63 149.777 74.748
3.64 151.842 75.043
3.65 153.987 75.498
3.66 154.824 75.872
3.67 150.112 75.400
3.68 143.185 73.409
3.69 --undefined-- 69.935
3.70 --undefined-- 66.392
3.71 --undefined-- 63.355
3.72 --undefined-- 58.430
3.73 --undefined-- 52.699
3.74 --undefined-- 50.990
3.75 --undefined-- 50.157
3.76 --undefined-- 48.675
3.77 --undefined-- 47.280
3.78 --undefined-- 46.117
3.79 --undefined-- 45.685
3.80 --undefined-- 51.017
3.81 --undefined-- 57.306
3.82 --undefined-- 59.968
3.83 --undefined-- 60.121
3.84 --undefined-- 61.325
3.85 123.335 64.573
3.86 131.652 67.768
3.87 130.562 69.819
3.88 127.966 71.108
3.89 127.977 72.434
3.90 129.454 73.494
3.91 131.312 73.932
3.92 133.070 74.182
3.93 134.245 74.641
3.94 135.352 75.279
3.95 137.246 75.893
3.96 138.508 76.135
3.97 140.023 76.034
3.98 141.755 75.907
3.99 139.623 75.126
4.00 136.889 72.659
4.01 131.476 68.365
4.02 135.462 63.006
4.03 --undefined-- 57.605
4.04 --undefined-- 59.335
4.05 --undefined-- 63.700
4.06 --undefined-- 64.901
4.07 --undefined-- 62.992
4.08 --undefined-- 60.279
4.09 --undefined-- 64.808
4.10 170.355 72.162
4.11 179.377 76.172
4.12 182.557 77.376
4.13 184.069 77.078
4.14 182.863 76.364
4.15 173.933 75.381
4.16 163.119 73.403
4.17 154.873 69.571
4.18 179.578 63.656
4.19 --undefined-- 56.876
4.20 --undefined-- 50.681
4.21 --undefined-- 47.988
4.22 --undefined-- 47.684
4.23 --undefined-- 47.418
4.24 --undefined-- 46.149
4.25 --undefined-- 43.235
4.26 --undefined-- 40.980
4.27 --undefined-- 43.964
4.28 --undefined-- 50.883
4.29 --undefined-- 56.023
4.30 --undefined-- 58.838
4.31 129.396 60.353
4.32 118.380 60.923
4.33 120.827 61.492
4.34 118.807 62.579
4.35 118.178 64.015
4.36 118.088 65.434
4.37 118.439 66.580
4.38 118.684 67.459
4.39 119.253 68.299
4.40 119.418 69.091
4.41 119.875 69.839
4.42 120.347 70.517
4.43 120.568 71.101
4.44 120.554 71.600
4.45 120.527 72.110
4.46 120.624 72.670
4.47 120.757 73.203
4.48 120.408 73.688
4.49 121.025 74.253
4.50 121.922 74.939
4.51 122.680 75.568
4.52 123.738 75.537
4.53 123.489 73.908
4.54 116.789 70.336
4.55 123.833 65.891
4.56 120.907 61.244
4.57 --undefined-- 58.047
4.58 --undefined-- 64.860
4.59 --undefined-- 71.606
4.60 --undefined-- 75.245
4.61 135.816 75.926
4.62 131.259 74.856
4.63 129.224 73.654
4.64 129.641 72.705
4.65 126.779 71.412
4.66 121.446 69.424
4.67 --undefined-- 67.101
4.68 --undefined-- 65.504
4.69 --undefined-- 64.376
4.70 --undefined-- 63.335
4.71 --undefined-- 63.715
4.72 98.651 64.923
4.73 107.984 66.407
4.74 112.688 68.057
4.75 111.662 69.492
4.76 107.581 70.361
4.77 103.608 70.631
4.78 99.906 70.630
4.79 98.467 70.755
4.80 99.478 70.899
4.81 92.092 70.852
4.82 89.865 70.585
4.83 86.252 69.962
4.84 87.247 69.237
4.85 86.959 68.498
4.86 86.835 67.792
4.87 89.639 67.672
4.88 91.407 68.057
4.89 92.314 68.381
4.90 92.896 68.501
4.91 93.887 68.664
4.92 94.784 68.994
4.93 96.017 69.272
4.94 96.749 69.070
4.95 96.371 68.030
4.96 96.523 65.979
4.97 97.510 63.297
4.98 99.990 63.260
4.99 97.722 67.735
5.00 124.652 71.992
5.01 120.461 74.437
5.02 117.471 75.172
5.03 115.920 74.991
5.04 116.299 74.822
5.05 116.647 74.817
5.06 116.832 74.797
5.07 117.414 74.839
5.08 118.188 74.912
5.09 118.878 --undefined--
5.10 119.538 --undefined--
5.11 --undefined-- --undefined--
5.12 --undefined-- --undefined--
