Time Pitch Intensity
0.01 --undefined-- --undefined--
0.02 130.486 --undefined--
0.03 130.572 --undefined--
0.04 130.178 --undefined--
0.05 127.501 69.930
0.06 123.512 67.973
0.07 --undefined-- 65.282
0.08 135.189 62.326
0.09 130.764 59.166
0.10 --undefined-- 54.780
0.11 --undefined-- 51.622
0.12 --undefined-- 48.812
0.13 --undefined-- 43.514
0.14 --undefined-- 39.147
0.15 --undefined-- 38.387
0.16 --undefined-- 38.298
0.17 --undefined-- 36.265
0.18 --undefined-- 34.182
0.19 --undefined-- 34.744
0.20 --undefined-- 36.501
0.21 --undefined-- 37.016
0.22 --undefined-- 35.619
0.23 --undefined-- 34.956
0.24 --undefined-- 36.631
0.25 --undefined-- 46.550
0.26 --undefined-- 55.085
0.27 125.248 60.024
0.28 126.221 62.999
0.29 118.679 65.448
0.30 118.990 67.372
0.31 120.504 68.509
0.32 122.070 69.197
0.33 123.482 69.643
0.34 124.481 69.930
0.35 124.961 70.198
0.36 125.256 70.553
0.37 126.496 70.931
0.38 128.485 71.275
0.39 130.080 71.689
0.40 132.575 72.225
0.41 134.783 72.778
0.42 137.131 73.540
0.43 143.517 75.122
0.44 144.359 77.224
0.45 144.799 78.649
0.46 144.042 78.986
0.47 145.172 78.733
0.48 146.973 78.450
0.49 147.872 78.096
0.50 147.496 77.603
0.51 144.009 76.844
0.52 141.306 75.833
0.53 137.266 75.025
0.54 134.923 74.724
0.55 133.176 74.542
0.56 128.583 74.122
0.57 125.490 73.382
0.58 125.332 72.446
0.59 126.545 71.889
0.60 132.932 71.911
0.61 136.016 72.236
0.62 141.696 72.649
0.63 140.707 72.566
0.64 136.837 71.745
0.65 143.521 71.090
0.66 157.315 71.171
0.67 159.391 71.586
0.68 165.754 71.582
0.69 167.292 69.906
0.70 169.679 65.741
0.71 155.743 59.329
0.72 --undefined-- 52.547
0.73 --undefined-- 46.294
0.74 --undefined-- 41.932
0.75 --undefined-- 41.006
0.76 --undefined-- 50.949
0.77 --undefined-- 59.708
0.78 --undefined-- 64.498
0.79 --undefined-- 67.708
0.80 207.763 71.399
0.81 196.030 73.707
0.82 191.502 74.248
0.83 188.265 74.026
0.84 184.720 73.526
0.85 184.064 73.119
0.86 184.878 73.005
0.87 184.464 72.966
0.88 183.480 72.982
0.89 181.668 73.142
0.90 178.191 73.478
0.91 173.404 73.748
0.92 164.923 73.251
0.93 152.556 71.457
0.94 139.220 68.507
0.95 129.902 65.425
0.96 129.339 64.732
0.97 140.068 67.169
0.98 137.164 70.457
0.99 134.363 73.212
1.00 129.506 74.642
1.01 125.452 74.840
1.02 118.663 74.513
1.03 118.197 74.235
1.04 118.410 74.183
1.05 121.494 74.268
1.06 125.166 74.413
1.07 133.735 74.536
1.08 139.340 73.644
1.09 139.730 70.364
1.10 133.673 64.102
1.11 --undefined-- 55.753
1.12 --undefined-- 50.241
1.13 --undefined-- 50.819
1.14 --undefined-- 54.632
1.15 --undefined-- 62.695
1.16 211.214 70.667
1.17 196.758 75.556
1.18 189.639 77.976
1.19 185.919 79.116
1.20 184.934 79.723
1.21 186.483 79.796
1.22 186.777 79.213
1.23 186.256 77.772
1.24 188.747 75.542
1.25 187.992 73.659
1.26 185.974 72.624
1.27 185.882 71.943
1.28 183.544 71.230
1.29 179.491 70.308
1.30 172.485 69.076
1.31 165.070 67.562
1.32 --undefined-- 65.764
1.33 --undefined-- 63.212
1.34 245.506 59.983
1.35 226.447 58.124
1.36 215.671 56.016
1.37 --undefined-- 51.461
1.38 --undefined-- 44.501
1.39 --undefined-- 40.037
1.40 --undefined-- 39.413
1.41 --undefined-- 39.225
1.42 --undefined-- 38.513
1.43 --undefined-- 38.472
1.44 --undefined-- 39.474
1.45 --undefined-- 39.816
1.46 --undefined-- 39.784
1.47 --undefined-- 39.813
1.48 --undefined-- 39.541
1.49 --undefined-- 40.286
1.50 --undefined-- 41.342
1.51 --undefined-- 41.459
1.52 --undefined-- 41.680
1.53 --undefined-- 41.933
1.54 --undefined-- 41.542
1.55 --undefined-- 40.920
1.56 --undefined-- 40.410
1.57 --undefined-- 39.802
1.58 --undefined-- 39.614
1.59 --undefined-- 39.940
1.60 --undefined-- 39.612
1.61 --undefined-- 38.382
1.62 --undefined-- 38.056
1.63 --undefined-- 39.405
1.64 --undefined-- 40.414
1.65 --undefined-- 39.298
1.66 --undefined-- 36.269
1.67 --undefined-- 35.157
1.68 --undefined-- 36.168
1.69 --undefined-- 36.662
1.70 --undefined-- 37.566
1.71 --undefined-- 38.468
1.72 --undefined-- 39.435
1.73 --undefined-- 40.648
1.74 --undefined-- 40.486
1.75 --undefined-- 38.700
1.76 --undefined-- 37.368
1.77 --undefined-- 40.042
1.78 --undefined-- 49.858
1.79 193.115 57.509
1.80 163.404 62.142
1.81 143.137 65.006
1.82 142.550 66.970
1.83 146.438 68.314
1.84 148.329 69.313
1.85 152.301 70.330
1.86 159.468 71.615
1.87 165.103 73.714
1.88 175.726 76.575
1.89 179.152 78.763
1.90 173.376 79.482
1.91 171.345 79.580
1.92 166.702 79.654
1.93 165.083 79.460
1.94 163.885 79.084
1.95 163.305 78.091
1.96 162.687 76.581
1.97 162.303 75.570
1.98 162.672 75.392
1.99 162.666 75.727
2.00 161.509 76.086
2.01 157.925 75.919
2.02 152.307 75.249
2.03 146.240 74.428
2.04 143.547 73.468
2.05 137.066 72.257
2.06 136.367 71.120
2.07 142.645 70.743
2.08 146.845 71.411
2.09 153.913 72.843
2.10 155.889 74.359
2.11 156.505 75.332
2.12 158.624 75.585
2.13 164.870 75.231
2.14 173.833 74.800
2.15 181.049 74.683
2.16 195.894 75.017
2.17 203.848 75.700
2.18 213.259 76.104
2.19 217.687 75.893
2.20 217.946 74.863
2.21 218.898 72.724
2.22 227.924 69.177
2.23 237.229 63.678
2.24 --undefined-- 56.448
2.25 --undefined-- 50.790
2.26 --undefined-- 47.436
2.27 --undefined-- 45.045
2.28 --undefined-- 51.153
2.29 --undefined-- 61.180
2.30 --undefined-- 67.981
2.31 168.629 72.365
2.32 167.407 75.032
2.33 167.552 76.294
2.34 166.484 76.416
2.35 164.836 75.867
2.36 162.937 75.264
2.37 160.742 75.078
2.38 159.700 75.325
2.39 159.232 75.724
2.40 159.061 76.009
2.41 159.377 76.113
2.42 160.176 76.141
2.43 161.476 76.216
2.44 162.253 76.268
2.45 163.457 76.078
2.46 163.938 75.152
2.47 160.302 72.638
2.48 148.624 67.891
2.49 145.295 61.449
2.50 --undefined-- 55.475
2.51 --undefined-- 50.292
2.52 --undefined-- 46.866
2.53 --undefined-- 50.628
2.54 --undefined-- 60.815
2.55 217.014 69.069
2.56 203.546 73.863
2.57 194.365 76.004
2.58 185.958 76.424
2.59 179.819 76.164
2.60 178.215 76.150
2.61 177.134 76.409
2.62 177.594 76.277
2.63 179.876 75.505
2.64 177.437 74.662
2.65 174.060 73.208
2.66 169.085 69.946
2.67 146.311 64.747
2.68 143.244 60.522
2.69 146.928 63.181
2.70 148.048 68.944
2.71 148.900 73.343
2.72 143.657 75.570
2.73 136.541 76.136
2.74 130.809 75.585
2.75 127.064 74.100
2.76 119.271 71.782
2.77 115.922 68.238
2.78 --undefined-- 62.540
2.79 --undefined-- 54.717
2.80 --undefined-- 49.409
2.81 --undefined-- 48.069
2.82 --undefined-- 46.806
2.83 --undefined-- 46.206
2.84 --undefined-- 48.566
2.85 --undefined-- 53.341
2.86 --undefined-- 59.988
2.87 117.472 64.847
2.88 114.189 67.302
2.89 107.599 68.402
2.90 107.816 69.327
2.91 108.267 70.557
2.92 112.056 72.027
2.93 116.501 73.160
2.94 123.634 73.551
2.95 132.135 73.740
2.96 140.383 73.863
2.97 146.310 73.481
2.98 146.157 73.018
2.99 145.550 73.341
3.00 146.282 74.971
3.01 146.562 77.089
3.02 145.035 77.922
3.03 136.961 76.655
3.04 128.232 74.111
3.05 117.403 71.537
3.06 113.458 68.249
3.07 --undefined-- 63.054
3.08 --undefined-- 55.429
3.09 --undefined-- 48.223
3.10 --undefined-- 48.364
3.11 --undefined-- 54.338
3.12 --undefined-- 58.900
3.13 --undefined-- 62.549
3.14 --undefined-- 65.854
3.15 112.841 68.263
3.16 115.981 70.123
3.17 113.698 71.277
3.18 112.106 71.727
3.19 110.880 71.973
3.20 110.921 72.324
3.21 111.175 72.920
3.22 111.101 73.480
3.23 112.016 73.383
3.24 115.545 72.418
3.25 114.605 70.613
3.26 112.497 69.592
3.27 118.394 70.885
3.28 122.570 72.316
3.29 122.576 73.128
3.30 122.067 73.679
3.31 123.353 74.113
3.32 119.512 74.361
3.33 116.128 74.473
3.34 115.974 74.381
3.35 115.685 74.122
3.36 115.640 73.832
3.37 115.339 73.600
3.38 115.018 73.453
3.39 114.515 73.308
3.40 114.219 73.001
3.41 113.164 72.262
3.42 108.943 71.150
3.43 110.215 70.296
3.44 111.167 69.827
3.45 112.043 69.224
3.46 111.341 68.044
3.47 --undefined-- 65.878
3.48 --undefined-- 62.720
3.49 --undefined-- 59.051
3.50 --undefined-- 54.820
3.51 --undefined-- 51.157
3.52 --undefined-- 46.703
3.53 --undefined-- 40.347
3.54 --undefined-- 37.842
3.55 --undefined-- 38.229
3.56 --undefined-- 39.786
3.57 --undefined-- 41.911
3.58 --undefined-- 41.687
3.59 --undefined-- 39.588
3.60 --undefined-- 38.331
3.61 --undefined-- 36.896
3.62 --undefined-- 35.659
3.63 --undefined-- 36.459
3.64 --undefined-- 37.049
3.65 --undefined-- 37.123
3.66 --undefined-- 38.170
3.67 --undefined-- 38.605
3.68 --undefined-- 37.396
3.69 --undefined-- 36.558
3.70 --undefined-- 37.674
3.71 --undefined-- 39.017
3.72 --undefined-- 38.910
3.73 --undefined-- 37.799
3.74 --undefined-- 36.601
3.75 --undefined-- 36.645
3.76 --undefined-- 37.606
3.77 --undefined-- 37.477
3.78 --undefined-- 37.405
3.79 --undefined-- 38.558
3.80 --undefined-- 40.030
3.81 --undefined-- 41.149
3.82 --undefined-- 41.538
3.83 --undefined-- 41.227
3.84 --undefined-- 40.103
3.85 --undefined-- 38.358
3.86 --undefined-- 39.534
3.87 --undefined-- 43.664
3.88 --undefined-- 44.998
3.89 --undefined-- 42.823
3.90 --undefined-- 39.317
3.91 --undefined-- 38.848
3.92 --undefined-- 41.339
3.93 --undefined-- 50.621
3.94 --undefined-- 60.412
3.95 156.327 67.035
3.96 129.731 70.716
3.97 124.718 72.428
3.98 124.544 73.090
3.99 124.228 73.086
4.00 123.423 72.798
4.01 122.516 72.876
4.02 123.946 73.288
4.03 125.535 73.399
4.04 125.354 72.923
4.05 121.617 71.645
4.06 114.622 69.233
4.07 111.820 65.480
4.08 --undefined-- 60.169
4.09 --undefined-- 55.713
4.10 --undefined-- 57.540
4.11 --undefined-- 60.427
4.12 --undefined-- 65.966
4.13 150.829 71.199
4.14 144.444 74.178
4.15 139.051 75.332
4.16 138.509 75.634
4.17 139.804 75.755
4.18 144.370 75.973
4.19 146.876 75.775
4.20 148.926 75.083
4.21 151.084 74.059
4.22 151.720 72.429
4.23 154.120 70.250
4.24 153.840 67.676
4.25 148.024 65.157
4.26 141.707 63.354
4.27 136.890 62.727
4.28 134.263 63.428
4.29 131.803 65.174
4.30 128.789 67.294
4.31 128.473 69.160
4.32 123.879 70.299
4.33 122.948 70.801
4.34 122.056 71.070
4.35 121.728 71.393
4.36 121.558 71.706
4.37 121.750 71.928
4.38 122.281 72.064
4.39 125.041 72.030
4.40 126.049 71.822
4.41 126.779 71.634
4.42 128.141 71.571
4.43 131.740 71.664
4.44 133.473 71.773
4.45 135.804 71.393
4.46 135.448 69.889
4.47 133.638 66.938
4.48 124.670 62.463
4.49 --undefined-- 56.277
4.50 --undefined-- 49.896
4.51 --undefined-- 47.685
4.52 --undefined-- 46.681
4.53 --undefined-- 44.985
4.54 --undefined-- 43.545
4.55 --undefined-- 45.128
4.56 --undefined-- 47.874
4.57 --undefined-- 54.110
4.58 --undefined-- 63.309
4.59 --undefined-- 69.066
4.60 134.520 71.728
4.61 121.992 72.109
4.62 113.321 70.935
4.63 104.989 68.979
4.64 98.261 67.869
4.65 100.339 68.071
4.66 100.871 68.425
4.67 103.206 68.821
4.68 106.741 69.470
4.69 109.559 70.288
4.70 111.443 71.155
4.71 114.146 71.938
4.72 115.968 72.393
4.73 117.419 72.259
4.74 115.736 71.197
4.75 111.191 68.646
4.76 101.762 64.122
4.77 --undefined-- 57.614
4.78 --undefined-- 50.284
4.79 --undefined-- 46.184
4.80 --undefined-- 45.613
4.81 --undefined-- 47.415
4.82 --undefined-- 56.229
4.83 --undefined-- 64.668
4.84 137.000 69.616
4.85 131.108 71.898
4.86 128.887 72.516
4.87 128.920 72.703
4.88 129.553 73.039
4.89 131.776 73.515
4.90 134.219 74.136
4.91 139.200 75.019
4.92 143.203 76.026
4.93 145.640 76.991
4.94 148.202 77.589
4.95 150.375 77.498
4.96 151.161 76.403
4.97 149.841 74.007
4.98 143.874 70.210
4.99 138.550 65.121
5.00 --undefined-- 58.820
5.01 --undefined-- 53.036
5.02 --undefined-- 51.207
5.03 --undefined-- 51.235
5.04 --undefined-- 50.956
5.05 --undefined-- 50.473
5.06 --undefined-- 49.786
5.07 --undefined-- 49.587
5.08 --undefined-- 53.169
5.09 --undefined-- 60.286
5.10 133.749 65.697
5.11 128.394 68.950
5.12 125.895 70.929
5.13 124.997 72.191
5.14 124.985 73.140
5.15 125.094 73.888
5.16 125.620 74.434
5.17 126.436 74.733
5.18 128.537 74.575
5.19 129.468 73.436
5.20 127.909 70.737
5.21 113.534 66.370
5.22 108.390 61.599
5.23 --undefined-- 59.447
5.24 --undefined-- 64.268
5.25 --undefined-- 70.963
5.26 143.666 75.046
5.27 137.919 76.455
5.28 130.808 76.026
5.29 126.495 74.742
5.30 120.766 73.154
5.31 117.401 72.278
5.32 121.216 72.649
5.33 121.448 72.908
5.34 122.103 72.758
5.35 123.003 72.209
5.36 123.334 71.191
5.37 120.316 69.551
5.38 114.995 67.114
5.39 109.878 63.909
5.40 --undefined-- 64.500
5.41 136.843 69.816
5.42 137.366 73.894
5.43 136.867 76.341
5.44 133.794 77.200
5.45 128.982 76.701
5.46 125.847 75.140
5.47 122.642 73.036
5.48 120.550 70.706
5.49 113.422 67.237
5.50 112.143 61.709
5.51 --undefined-- 55.767
5.52 --undefined-- 54.268
5.53 --undefined-- 54.703
5.54 --undefined-- 55.144
5.55 --undefined-- 54.719
5.56 --undefined-- 55.611
5.57 121.108 60.927
5.58 118.880 66.029
5.59 117.860 69.233
5.60 108.464 70.828
5.61 111.590 71.509
5.62 109.000 71.711
5.63 111.274 71.967
5.64 114.736 72.645
5.65 119.354 73.436
5.66 125.424 73.939
5.67 134.635 74.281
5.68 141.203 74.764
5.69 148.652 74.685
5.70 153.994 73.918
5.71 152.317 72.761
5.72 149.382 71.463
5.73 147.890 70.984
5.74 146.489 72.158
5.75 146.205 74.564
5.76 145.729 76.490
5.77 139.733 76.812
5.78 131.906 76.219
5.79 126.227 75.698
5.80 123.530 74.703
5.81 117.281 72.813
5.82 115.851 70.201
5.83 116.951 66.855
5.84 83.101 62.301
5.85 77.055 56.396
5.86 --undefined-- 51.243
5.87 --undefined-- 47.315
5.88 --undefined-- 44.829
5.89 --undefined-- 43.578
5.90 --undefined-- 41.302
5.91 --undefined-- 39.324
5.92 --undefined-- 39.339
5.93 --undefined-- 41.237
5.94 --undefined-- 42.833
5.95 --undefined-- 42.138
5.96 --undefined-- 41.122
5.97 --undefined-- 41.961
5.98 --undefined-- 44.147
5.99 --undefined-- 52.756
6.00 --undefined-- 61.874
6.01 131.747 67.537
6.02 127.751 --undefined--
6.03 115.427 --undefined--
6.04 --undefined-- --undefined--
6.05 --undefined-- --undefined--
