Time Pitch Intensity
0.01 --undefined-- --undefined--
0.02 85.459 --undefined--
0.03 86.035 --undefined--
0.04 --undefined-- --undefined--
0.05 --undefined-- 60.137
0.06 --undefined-- 60.507
0.07 --undefined-- 60.691
0.08 --undefined-- 61.549
0.09 --undefined-- 62.465
0.10 --undefined-- 62.705
0.11 --undefined-- 62.816
0.12 --undefined-- 62.848
0.13 --undefined-- 62.864
0.14 --undefined-- 63.206
0.15 102.224 63.495
0.16 101.719 64.291
0.17 100.974 65.027
0.18 100.358 64.533
0.19 99.756 62.440
0.20 98.155 59.109
0.21 96.987 56.102
0.22 93.302 55.806
0.23 96.213 58.265
0.24 99.269 62.326
0.25 102.965 66.040
0.26 105.758 68.302
0.27 106.482 69.098
0.28 106.736 69.065
0.29 105.244 68.603
0.30 108.520 68.044
0.31 109.192 68.253
0.32 109.054 68.825
0.33 108.492 69.091
0.34 107.859 68.942
0.35 107.858 68.510
0.36 107.358 67.760
0.37 102.221 66.645
0.38 --undefined-- 66.158
0.39 --undefined-- 65.524
0.40 --undefined-- 63.161
0.41 --undefined-- 61.174
0.42 --undefined-- 62.358
0.43 --undefined-- 63.574
0.44 --undefined-- 64.099
0.45 --undefined-- 64.522
0.46 --undefined-- 65.092
0.47 --undefined-- 65.219
0.48 --undefined-- 64.789
0.49 --undefined-- 64.575
0.50 --undefined-- 64.583
0.51 --undefined-- 64.640
0.52 --undefined-- 66.663
0.53 120.365 69.704
0.54 120.588 71.349
0.55 120.440 71.712
0.56 120.277 71.724
0.57 119.991 71.838
0.58 124.630 71.721
0.59 117.274 71.217
0.60 117.341 71.547
0.61 116.646 72.360
0.62 116.570 72.042
0.63 116.762 70.931
0.64 117.476 70.454
0.65 117.428 70.594
0.66 116.401 70.576
0.67 116.331 70.182
0.68 116.228 68.995
0.69 116.555 66.898
0.70 115.364 64.960
0.71 113.908 63.916
0.72 113.263 63.091
0.73 112.804 61.584
0.74 111.296 58.886
0.75 110.501 55.211
0.76 --undefined-- 50.992
0.77 --undefined-- 45.611
0.78 --undefined-- 39.374
0.79 --undefined-- 37.841
0.80 --undefined-- 39.849
0.81 --undefined-- 42.560
0.82 --undefined-- 43.718
0.83 --undefined-- 42.277
0.84 --undefined-- 39.748
0.85 --undefined-- 38.777
0.86 --undefined-- 38.475
0.87 --undefined-- 38.830
0.88 --undefined-- 42.591
0.89 --undefined-- 55.413
0.90 --undefined-- 63.377
0.91 --undefined-- 66.646
0.92 --undefined-- 67.150
0.93 --undefined-- 67.250
0.94 --undefined-- 67.031
0.95 --undefined-- 66.249
0.96 --undefined-- 64.699
0.97 --undefined-- 62.692
0.98 --undefined-- 61.673
0.99 --undefined-- 60.969
1.00 --undefined-- 61.557
1.01 123.511 64.928
1.02 122.706 67.759
1.03 120.826 68.847
1.04 119.935 68.194
1.05 119.117 67.141
1.06 118.710 67.037
1.07 118.854 67.376
1.08 118.923 68.078
1.09 118.940 68.909
1.10 119.219 69.779
1.11 119.120 70.541
1.12 118.783 71.100
1.13 119.127 71.657
1.14 119.970 72.112
1.15 120.161 72.215
1.16 120.279 71.873
1.17 119.800 71.348
1.18 119.495 70.909
1.19 119.272 70.345
1.20 119.339 69.831
1.21 119.548 70.010
1.22 119.424 70.578
1.23 118.554 70.821
1.24 117.105 70.383
1.25 116.183 69.071
1.26 113.805 66.705
1.27 110.200 63.885
1.28 109.479 63.053
1.29 108.905 63.598
1.30 105.396 63.716
1.31 102.169 63.756
1.32 100.023 65.725
1.33 103.579 68.835
1.34 103.115 70.676
1.35 99.734 70.854
1.36 95.619 70.066
1.37 92.289 69.232
1.38 92.124 68.961
1.39 94.342 69.353
1.40 95.741 69.631
1.41 96.098 69.254
1.42 95.392 68.292
1.43 94.256 66.813
1.44 93.949 65.045
1.45 94.470 63.148
1.46 93.005 61.075
1.47 --undefined-- 58.176
1.48 --undefined-- 52.589
1.49 --undefined-- 43.360
1.50 --undefined-- 37.651
1.51 --undefined-- 37.082
1.52 --undefined-- 36.943
1.53 --undefined-- 42.668
1.54 --undefined-- 50.606
1.55 --undefined-- 56.838
1.56 --undefined-- 62.559
1.57 119.210 66.340
1.58 95.533 67.640
1.59 94.699 67.059
1.60 93.059 65.446
1.61 90.767 63.503
1.62 89.288 61.755
1.63 89.930 61.341
1.64 93.985 61.903
1.65 95.199 62.306
1.66 96.832 63.596
1.67 98.089 65.940
1.68 97.808 68.280
1.69 98.733 70.047
1.70 99.781 71.080
1.71 101.618 71.121
1.72 102.556 69.549
1.73 --undefined-- 65.566
1.74 --undefined-- 58.338
1.75 --undefined-- 47.621
1.76 --undefined-- 41.999
1.77 --undefined-- 45.999
1.78 --undefined-- 56.491
1.79 --undefined-- 63.383
1.80 --undefined-- 68.328
1.81 --undefined-- 71.843
1.82 --undefined-- 72.824
1.83 --undefined-- 71.036
1.84 --undefined-- 67.859
1.85 90.691 66.052
1.86 91.894 65.497
1.87 92.287 64.780
1.88 96.040 64.300
1.89 --undefined-- 63.307
1.90 106.585 60.943
1.91 109.849 57.870
1.92 110.904 55.415
1.93 --undefined-- 54.145
1.94 --undefined-- 53.282
1.95 --undefined-- 52.938
1.96 --undefined-- 51.376
1.97 --undefined-- 51.112
1.98 --undefined-- 57.612
1.99 --undefined-- 62.465
2.00 --undefined-- 64.779
2.01 --undefined-- 64.948
2.02 --undefined-- 65.561
2.03 --undefined-- 67.443
2.04 --undefined-- 67.936
2.05 --undefined-- 66.571
2.06 --undefined-- 63.645
2.07 --undefined-- 59.493
2.08 --undefined-- 55.120
2.09 --undefined-- 51.048
2.10 --undefined-- 46.760
2.11 --undefined-- 44.041
2.12 --undefined-- 44.770
2.13 --undefined-- 46.247
2.14 --undefined-- 46.719
2.15 --undefined-- 46.795
2.16 --undefined-- 48.042
2.17 --undefined-- 49.143
2.18 --undefined-- 49.194
2.19 --undefined-- 50.939
2.20 91.327 55.281
2.21 89.520 58.847
2.22 89.634 60.578
2.23 90.369 60.847
2.24 90.437 60.595
2.25 90.415 60.389
2.26 91.909 60.265
2.27 93.234 60.080
2.28 90.283 59.122
2.29 87.697 56.585
2.30 87.568 52.643
2.31 --undefined-- 49.636
2.32 --undefined-- 52.375
2.33 --undefined-- 55.904
2.34 --undefined-- 57.400
2.35 --undefined-- 58.501
2.36 --undefined-- 60.428
2.37 96.494 63.092
2.38 96.391 65.261
2.39 96.618 65.187
2.40 --undefined-- 62.551
2.41 --undefined-- 57.573
2.42 --undefined-- 50.622
2.43 --undefined-- 43.317
2.44 --undefined-- 38.979
2.45 --undefined-- 37.469
2.46 --undefined-- 36.929
2.47 --undefined-- 37.864
2.48 --undefined-- 42.561
2.49 --undefined-- 49.629
2.50 --undefined-- 57.550
2.51 --undefined-- 64.409
2.52 --undefined-- 68.031
2.53 --undefined-- 68.541
2.54 --undefined-- 67.926
2.55 --undefined-- 68.427
2.56 118.745 68.876
2.57 119.410 68.614
2.58 119.449 67.712
2.59 117.270 65.822
2.60 --undefined-- 63.472
2.61 --undefined-- 62.313
2.62 --undefined-- 64.049
2.63 --undefined-- 68.355
2.64 --undefined-- 71.554
2.65 --undefined-- 73.152
2.66 --undefined-- 72.475
2.67 --undefined-- 69.838
2.68 --undefined-- 68.243
2.69 --undefined-- 66.256
2.70 --undefined-- 62.329
2.71 --undefined-- 63.403
2.72 102.851 65.844
2.73 95.285 66.606
2.74 94.575 66.700
2.75 93.420 66.777
2.76 91.446 66.720
2.77 91.910 66.320
2.78 91.568 65.521
2.79 91.480 63.772
2.80 92.116 60.730
2.81 94.969 57.765
2.82 95.520 56.293
2.83 96.225 55.380
2.84 99.753 57.568
2.85 99.210 61.711
2.86 99.273 64.543
2.87 99.330 65.871
2.88 99.651 66.072
2.89 97.374 65.682
2.90 --undefined-- 64.558
2.91 --undefined-- 61.535
2.92 --undefined-- 55.364
2.93 --undefined-- 45.303
2.94 --undefined-- 37.818
2.95 --undefined-- 40.046
2.96 --undefined-- 47.817
2.97 --undefined-- 58.410
2.98 --undefined-- 66.113
2.99 --undefined-- 70.488
3.00 --undefined-- 71.690
3.01 --undefined-- 70.424
3.02 --undefined-- 70.220
3.03 111.833 71.751
3.04 106.653 71.826
3.05 102.197 70.206
3.06 100.980 67.549
3.07 100.806 65.150
3.08 101.570 63.186
3.09 102.070 61.184
3.10 99.935 59.913
3.11 99.094 59.238
3.12 98.777 58.649
3.13 99.687 58.867
3.14 --undefined-- 59.032
3.15 --undefined-- 56.556
3.16 --undefined-- 50.287
3.17 --undefined-- 52.651
3.18 --undefined-- 62.834
3.19 --undefined-- 69.001
3.20 --undefined-- 71.435
3.21 --undefined-- 70.683
3.22 --undefined-- 69.004
3.23 --undefined-- 70.403
3.24 --undefined-- 72.077
3.25 --undefined-- 71.981
3.26 --undefined-- 70.000
3.27 109.899 66.374
3.28 109.387 61.450
3.29 111.180 57.226
3.30 112.964 57.019
3.31 114.858 58.093
3.32 115.267 59.348
3.33 115.266 61.925
3.34 114.706 65.316
3.35 111.781 67.783
3.36 108.326 69.069
3.37 106.144 69.074
3.38 102.709 67.516
3.39 --undefined-- 64.697
3.40 --undefined-- 62.090
3.41 --undefined-- 59.462
3.42 --undefined-- 56.093
3.43 --undefined-- 53.384
3.44 --undefined-- 49.978
3.45 --undefined-- 45.535
3.46 --undefined-- 42.292
3.47 --undefined-- 40.485
3.48 --undefined-- 39.659
3.49 --undefined-- 41.289
3.50 --undefined-- 43.506
3.51 --undefined-- 45.238
3.52 --undefined-- 47.098
3.53 --undefined-- 48.628
3.54 --undefined-- 49.716
3.55 --undefined-- 50.661
3.56 --undefined-- 50.945
3.57 --undefined-- 50.477
3.58 --undefined-- 50.061
3.59 --undefined-- 50.001
3.60 --undefined-- 49.702
3.61 --undefined-- 49.810
3.62 --undefined-- 50.971
3.63 --undefined-- 51.656
3.64 --undefined-- 51.162
3.65 --undefined-- 50.355
3.66 --undefined-- 49.671
3.67 --undefined-- 48.895
3.68 --undefined-- 47.621
3.69 --undefined-- 44.547
3.70 --undefined-- 40.297
3.71 --undefined-- 39.621
3.72 --undefined-- 40.903
3.73 --undefined-- 40.773
3.74 --undefined-- 39.199
3.75 --undefined-- 38.151
3.76 --undefined-- 38.193
3.77 --undefined-- 38.748
3.78 --undefined-- 39.708
3.79 --undefined-- 47.442
3.80 --undefined-- 58.693
3.81 --undefined-- 66.923
3.82 134.837 72.007
3.83 126.170 74.483
3.84 125.665 75.036
3.85 124.594 74.478
3.86 124.051 73.809
3.87 123.026 73.230
3.88 122.730 72.154
3.89 124.046 70.422
3.90 124.398 68.576
3.91 124.617 66.902
3.92 124.608 64.685
3.93 123.370 61.102
3.94 --undefined-- 55.560
3.95 --undefined-- 48.011
3.96 --undefined-- 40.974
3.97 --undefined-- 37.662
3.98 --undefined-- 37.376
3.99 --undefined-- 38.277
4.00 --undefined-- 38.843
4.01 --undefined-- 46.637
4.02 --undefined-- 58.929
4.03 --undefined-- 66.577
4.04 241.949 69.848
4.05 260.079 69.400
4.06 --undefined-- 65.448
4.07 --undefined-- 61.591
4.08 --undefined-- 65.411
4.09 --undefined-- 69.340
4.10 124.628 70.871
4.11 123.895 70.618
4.12 122.606 69.746
4.13 123.584 69.198
4.14 124.370 68.991
4.15 123.798 68.663
4.16 123.214 67.835
4.17 121.879 66.055
4.18 121.763 62.632
4.19 122.414 57.920
4.20 119.968 56.364
4.21 --undefined-- 61.191
4.22 --undefined-- 65.950
4.23 --undefined-- 67.885
4.24 --undefined-- 67.351
4.25 82.104 66.102
4.26 82.606 65.543
4.27 82.763 65.133
4.28 --undefined-- 64.684
4.29 --undefined-- 63.340
4.30 --undefined-- 60.411
4.31 --undefined-- 57.803
4.32 --undefined-- 54.641
4.33 --undefined-- 47.980
4.34 --undefined-- 39.780
4.35 --undefined-- 40.742
4.36 --undefined-- 48.961
4.37 --undefined-- 55.789
4.38 --undefined-- 61.043
4.39 --undefined-- 64.827
4.40 --undefined-- 66.897
4.41 117.063 68.086
4.42 116.769 68.806
4.43 116.896 69.168
4.44 116.441 69.252
4.45 115.352 69.125
4.46 114.372 68.744
4.47 112.851 68.103
4.48 112.006 67.546
4.49 111.210 67.375
4.50 110.528 67.374
4.51 110.487 67.450
4.52 110.271 67.586
4.53 110.930 67.651
4.54 112.879 67.701
4.55 113.200 67.764
4.56 113.474 67.817
4.57 113.228 67.736
4.58 112.143 67.483
4.59 111.655 67.160
4.60 112.149 66.785
4.61 112.030 66.468
4.62 111.891 66.312
4.63 110.221 66.183
4.64 109.820 66.021
4.65 109.776 66.046
4.66 109.433 66.151
4.67 109.334 65.854
4.68 109.281 64.952
4.69 108.535 63.487
4.70 107.247 61.292
4.71 106.470 59.337
4.72 106.070 58.631
4.73 105.830 57.883
4.74 104.655 56.992
4.75 104.131 56.742
4.76 99.780 56.838
4.77 99.024 56.871
4.78 98.058 57.236
4.79 101.567 57.824
4.80 101.103 57.901
4.81 99.583 56.871
4.82 98.507 54.696
4.83 --undefined-- 50.885
4.84 --undefined-- 45.828
4.85 --undefined-- 41.379
4.86 --undefined-- 37.875
4.87 --undefined-- 37.367
4.88 --undefined-- 38.797
4.89 --undefined-- 39.172
4.90 --undefined-- 38.804
4.91 --undefined-- 40.704
4.92 --undefined-- 42.432
4.93 --undefined-- 42.473
4.94 --undefined-- 41.912
4.95 --undefined-- 42.728
4.96 --undefined-- 46.438
4.97 --undefined-- 50.212
4.98 --undefined-- 53.257
4.99 119.643 55.675
5.00 116.924 57.005
5.01 116.350 57.562
5.02 113.774 58.068
5.03 112.551 58.318
5.04 109.110 58.536
5.05 107.916 59.120
5.06 106.941 59.382
5.07 103.429 59.112
5.08 100.236 61.937
5.09 --undefined-- 68.126
5.10 --undefined-- 71.909
5.11 100.456 72.724
5.12 100.416 71.544
5.13 96.384 69.195
5.14 94.221 66.133
5.15 94.057 63.523
5.16 93.358 61.917
5.17 96.752 61.209
5.18 97.965 61.112
5.19 97.373 61.219
5.20 97.303 61.490
5.21 97.099 61.302
5.22 96.636 60.466
5.23 96.605 58.985
5.24 --undefined-- 55.947
5.25 --undefined-- 50.433
5.26 --undefined-- 42.515
5.27 --undefined-- 37.350
5.28 --undefined-- 36.426
5.29 --undefined-- 36.548
5.30 --undefined-- 46.413
5.31 --undefined-- 58.136
5.32 --undefined-- 65.185
5.33 --undefined-- 69.089
5.34 --undefined-- 70.088
5.35 --undefined-- 68.321
5.36 93.275 65.512
5.37 93.366 63.587
5.38 96.385 62.266
5.39 93.827 61.404
5.40 93.977 60.252
5.41 94.647 58.809
5.42 92.854 58.083
5.43 92.404 58.286
5.44 92.262 59.223
5.45 --undefined-- 61.675
5.46 --undefined-- 65.681
5.47 --undefined-- 68.221
5.48 --undefined-- 68.719
5.49 --undefined-- 69.853
5.50 --undefined-- 71.950
5.51 --undefined-- 72.858
5.52 --undefined-- 72.549
5.53 --undefined-- 71.477
5.54 --undefined-- 71.125
5.55 --undefined-- 71.016
5.56 --undefined-- 69.606
5.57 --undefined-- 67.263
5.58 --undefined-- 65.204
5.59 100.926 65.800
5.60 100.519 66.272
5.61 99.775 64.260
5.62 95.848 61.259
5.63 96.323 59.713
5.64 97.878 --undefined--
5.65 98.934 --undefined--
5.66 --undefined-- --undefined--
5.67 --undefined-- --undefined--
