Time Pitch Intensity
0.01 --undefined-- --undefined--
0.02 200.902 --undefined--
0.03 201.678 --undefined--
0.04 202.425 --undefined--
0.05 203.053 69.640
0.06 205.245 68.501
0.07 206.388 66.268
0.08 201.709 62.104
0.09 --undefined-- 58.249
0.10 --undefined-- 57.713
0.11 --undefined-- 56.413
0.12 --undefined-- 53.493
0.13 --undefined-- 50.150
0.14 --undefined-- 47.307
0.15 --undefined-- 45.811
0.16 --undefined-- 47.883
0.17 --undefined-- 53.446
0.18 --undefined-- 58.977
0.19 --undefined-- 62.324
0.20 --undefined-- 64.015
0.21 199.546 65.996
0.22 195.104 68.375
0.23 193.707 70.359
0.24 193.278 71.683
0.25 193.992 72.511
0.26 195.970 73.058
0.27 197.888 73.703
0.28 195.734 75.117
0.29 194.955 76.282
0.30 197.607 75.906
0.31 204.714 73.931
0.32 212.723 71.666
0.33 230.522 70.430
0.34 239.510 70.078
0.35 244.531 70.549
0.36 256.779 72.569
0.37 261.674 74.778
0.38 264.785 75.478
0.39 268.116 74.830
0.40 269.899 74.116
0.41 269.493 73.843
0.42 268.734 73.213
0.43 268.512 71.672
0.44 269.393 69.125
0.45 270.867 65.608
0.46 268.234 62.337
0.47 268.738 61.114
0.48 271.538 59.038
0.49 271.475 57.554
0.50 271.097 60.133
0.51 278.951 62.233
0.52 --undefined-- 64.856
0.53 --undefined-- 68.413
0.54 152.442 70.517
0.55 149.771 71.272
0.56 147.600 71.363
0.57 147.344 71.128
0.58 147.870 70.926
0.59 149.320 70.967
0.60 150.958 71.207
0.61 151.937 71.865
0.62 152.303 72.593
0.63 152.470 72.928
0.64 151.882 72.975
0.65 150.776 72.821
0.66 299.073 72.350
0.67 296.619 71.686
0.68 294.596 71.153
0.69 293.940 70.589
0.70 294.238 69.626
0.71 296.054 68.037
0.72 297.719 66.272
0.73 296.094 65.791
0.74 293.876 66.200
0.75 286.365 66.751
0.76 284.545 67.732
0.77 280.952 68.446
0.78 274.166 68.298
0.79 262.655 67.503
0.80 244.401 66.711
0.81 228.737 66.843
0.82 212.581 67.592
0.83 202.649 67.868
0.84 198.674 68.041
0.85 189.774 68.631
0.86 185.009 68.715
0.87 179.386 67.286
0.88 168.378 64.949
0.89 166.681 63.703
0.90 165.508 63.606
0.91 164.863 63.410
0.92 165.470 63.089
0.93 165.582 62.667
0.94 165.389 61.895
0.95 164.239 61.616
0.96 167.523 62.427
0.97 172.057 63.154
0.98 177.471 63.613
0.99 183.418 64.725
1.00 188.569 66.006
1.01 194.704 66.537
1.02 205.546 66.952
1.03 219.141 68.338
1.04 229.119 69.737
1.05 233.815 71.011
1.06 237.778 72.174
1.07 243.212 72.713
1.08 250.521 72.929
1.09 254.695 73.595
1.10 256.084 74.431
1.11 253.859 74.471
1.12 247.341 73.253
1.13 228.860 71.440
1.14 207.432 71.071
1.15 195.048 71.470
1.16 --undefined-- 70.550
1.17 --undefined-- 67.978
1.18 --undefined-- 64.321
1.19 --undefined-- 61.852
1.20 --undefined-- 61.992
1.21 --undefined-- 61.950
1.22 --undefined-- 59.632
1.23 --undefined-- 56.578
1.24 --undefined-- 57.033
1.25 --undefined-- 56.275
1.26 --undefined-- 53.454
1.27 --undefined-- 53.399
1.28 --undefined-- 56.841
1.29 --undefined-- 59.538
1.30 --undefined-- 60.272
1.31 --undefined-- 58.670
1.32 --undefined-- 57.700
1.33 --undefined-- 60.664
1.34 --undefined-- 63.635
1.35 --undefined-- 65.045
1.36 --undefined-- 64.383
1.37 --undefined-- 64.444
1.38 --undefined-- 66.717
1.39 --undefined-- 66.875
1.40 --undefined-- 63.935
1.41 --undefined-- 58.822
1.42 --undefined-- 58.288
1.43 --undefined-- 60.958
1.44 --undefined-- 61.287
1.45 --undefined-- 60.605
1.46 --undefined-- 61.710
1.47 --undefined-- 64.911
1.48 167.550 69.294
1.49 169.039 71.832
1.50 172.509 72.380
1.51 172.827 71.591
1.52 --undefined-- 69.481
1.53 --undefined-- 66.036
1.54 172.682 62.087
1.55 171.331 60.437
1.56 173.494 63.733
1.57 172.475 68.381
1.58 162.772 70.590
1.59 151.599 70.434
1.60 294.215 69.229
1.61 287.267 68.363
1.62 280.401 67.973
1.63 275.445 67.759
1.64 268.870 67.218
1.65 264.713 66.532
1.66 260.855 66.832
1.67 256.314 67.226
1.68 251.267 66.707
1.69 241.662 65.862
1.70 231.123 65.757
1.71 221.434 66.654
1.72 208.999 68.235
1.73 200.339 69.942
1.74 197.303 70.930
1.75 198.367 70.402
1.76 210.900 68.888
1.77 209.564 68.608
1.78 209.438 70.206
1.79 207.774 71.991
1.80 201.955 72.601
1.81 91.672 72.086
1.82 93.650 71.627
1.83 95.101 71.631
1.84 96.382 71.408
1.85 199.083 71.035
1.86 199.379 70.458
1.87 201.512 69.831
1.88 203.542 69.623
1.89 202.431 68.512
1.90 202.864 66.475
1.91 199.148 65.566
1.92 193.539 64.580
1.93 194.644 62.428
1.94 196.387 61.157
1.95 217.791 62.481
1.96 219.902 64.757
1.97 243.708 66.568
1.98 232.724 67.934
1.99 214.062 69.094
2.00 213.035 69.612
2.01 213.868 69.553
2.02 216.823 69.337
2.03 227.986 69.116
2.04 238.176 69.086
2.05 248.493 68.728
2.06 272.236 68.382
2.07 292.531 69.278
2.08 153.302 70.879
2.09 158.598 71.932
2.10 159.605 71.618
2.11 158.158 69.372
2.12 296.005 65.107
2.13 299.993 62.421
2.14 --undefined-- 63.782
2.15 --undefined-- 63.509
2.16 --undefined-- 62.471
2.17 --undefined-- 63.756
2.18 --undefined-- 64.007
2.19 --undefined-- 62.579
2.20 --undefined-- 62.802
2.21 --undefined-- 67.142
2.22 179.261 71.190
2.23 178.425 72.963
2.24 178.420 73.148
2.25 179.489 73.087
2.26 179.653 73.217
2.27 179.888 72.993
2.28 179.515 72.099
2.29 179.337 70.191
2.30 180.524 66.901
2.31 167.687 63.523
2.32 176.545 65.391
2.33 174.611 69.337
2.34 163.376 72.032
2.35 --undefined-- 73.249
2.36 291.360 73.094
2.37 275.860 72.084
2.38 268.769 69.871
2.39 258.852 65.490
2.40 262.034 59.705
2.41 267.529 57.900
2.42 272.115 58.600
2.43 280.490 57.101
2.44 --undefined-- 54.703
2.45 --undefined-- 55.743
2.46 --undefined-- 59.552
2.47 199.904 62.765
2.48 198.796 63.847
2.49 188.071 63.392
2.50 198.866 63.729
2.51 203.031 65.064
2.52 206.879 65.539
2.53 205.796 65.772
2.54 185.553 67.188
2.55 183.435 68.650
2.56 184.607 69.487
2.57 186.965 70.175
2.58 188.658 71.036
2.59 190.018 72.050
2.60 197.166 72.570
2.61 202.090 71.677
2.62 221.797 69.430
2.63 225.288 66.922
2.64 220.873 64.146
2.65 210.775 60.669
2.66 --undefined-- 56.417
2.67 --undefined-- 52.470
2.68 --undefined-- 51.919
2.69 --undefined-- 56.748
2.70 281.348 63.182
2.71 248.001 67.053
2.72 229.483 68.669
2.73 219.247 69.363
2.74 206.871 69.755
2.75 200.681 69.635
2.76 199.499 68.958
2.77 200.944 68.486
2.78 200.087 69.050
2.79 196.605 69.753
2.80 191.935 69.165
2.81 189.878 66.701
2.82 191.098 63.027
2.83 --undefined-- 62.084
2.84 --undefined-- 62.892
2.85 --undefined-- 60.995
2.86 --undefined-- 56.358
2.87 --undefined-- 54.692
2.88 --undefined-- 58.678
2.89 --undefined-- 61.814
2.90 --undefined-- 62.331
2.91 --undefined-- 59.742
2.92 --undefined-- 55.967
2.93 --undefined-- 56.137
2.94 --undefined-- 57.676
2.95 --undefined-- 59.471
2.96 --undefined-- 60.213
2.97 --undefined-- 60.351
2.98 292.556 63.930
2.99 275.675 68.033
3.00 274.798 70.601
3.01 278.883 72.265
3.02 282.501 73.256
3.03 285.806 73.619
3.04 288.564 73.510
3.05 290.539 72.943
3.06 292.036 71.987
3.07 292.874 70.842
3.08 291.941 69.456
3.09 279.213 68.430
3.10 272.718 68.732
3.11 269.161 68.871
3.12 266.499 68.404
3.13 261.111 67.660
3.14 253.955 67.087
3.15 246.742 67.994
3.16 246.429 70.331
3.17 225.150 72.468
3.18 213.073 73.903
3.19 202.947 74.924
3.20 194.651 75.704
3.21 189.182 76.119
3.22 185.180 75.616
3.23 179.797 74.375
3.24 177.499 73.820
3.25 176.111 73.930
3.26 175.102 74.061
3.27 174.616 74.391
3.28 174.284 74.554
3.29 174.179 74.078
3.30 175.357 72.976
3.31 177.507 71.606
3.32 178.136 70.548
3.33 179.118 70.253
3.34 180.449 70.342
3.35 181.366 70.410
3.36 183.098 70.832
3.37 184.840 71.802
3.38 187.518 72.845
3.39 188.431 73.493
3.40 188.020 73.577
3.41 188.977 73.216
3.42 190.944 72.858
3.43 190.439 73.146
3.44 189.498 74.551
3.45 189.637 76.088
3.46 187.738 76.386
3.47 183.143 75.389
3.48 176.005 74.250
3.49 171.154 73.459
3.50 167.272 71.899
3.51 163.673 68.882
3.52 --undefined-- 65.090
3.53 --undefined-- 62.899
3.54 --undefined-- 62.779
3.55 --undefined-- 61.488
3.56 --undefined-- 57.807
3.57 --undefined-- 54.313
3.58 --undefined-- 54.286
3.59 --undefined-- 55.515
3.60 --undefined-- 56.695
3.61 --undefined-- 57.940
3.62 --undefined-- 61.913
3.63 --undefined-- 65.067
3.64 --undefined-- 64.997
3.65 --undefined-- 62.676
3.66 --undefined-- 61.151
3.67 --undefined-- 60.528
3.68 --undefined-- 61.726
3.69 --undefined-- 63.111
3.70 --undefined-- 62.478
3.71 --undefined-- 61.498
3.72 --undefined-- 62.178
3.73 --undefined-- 62.558
3.74 248.221 62.316
3.75 231.617 63.645
3.76 226.107 66.201
3.77 223.606 68.739
3.78 213.883 70.639
3.79 211.889 71.718
3.80 213.931 72.049
3.81 217.789 72.168
3.82 223.145 72.642
3.83 235.213 72.800
3.84 246.477 71.926
3.85 268.756 70.807
3.86 286.533 70.713
3.87 --undefined-- 71.207
3.88 159.411 71.582
3.89 166.706 71.839
3.90 169.796 71.741
3.91 166.578 71.681
3.92 167.417 72.431
3.93 171.441 72.761
3.94 173.620 72.085
3.95 172.671 70.775
3.96 169.023 69.525
3.97 164.849 69.261
3.98 161.578 69.577
3.99 157.971 69.211
4.00 291.863 68.839
4.01 272.289 70.428
4.02 260.076 71.635
4.03 241.433 71.239
4.04 226.463 70.286
4.05 210.966 69.849
4.06 203.048 69.892
4.07 196.662 69.719
4.08 189.172 69.556
4.09 185.808 69.788
4.10 184.511 69.950
4.11 183.756 69.910
4.12 182.545 69.975
4.13 181.386 69.895
4.14 181.619 69.299
4.15 181.584 68.285
4.16 179.810 66.604
4.17 178.483 64.149
4.18 178.452 62.755
4.19 179.078 62.908
4.20 180.194 62.551
4.21 179.624 61.737
4.22 181.563 61.271
4.23 189.321 61.355
4.24 199.205 62.243
4.25 212.530 64.709
4.26 215.674 67.210
4.27 215.262 68.284
4.28 217.483 69.328
4.29 222.275 71.590
4.30 226.915 73.946
4.31 228.196 75.181
4.32 227.113 75.031
4.33 225.875 74.450
4.34 224.982 74.235
4.35 223.763 74.347
4.36 222.979 74.504
4.37 222.386 74.393
4.38 221.948 73.986
4.39 221.265 73.449
4.40 220.922 72.986
4.41 221.139 72.396
4.42 222.412 71.245
4.43 224.732 69.518
4.44 224.758 67.349
4.45 221.829 64.130
4.46 219.837 59.905
4.47 222.376 55.907
4.48 --undefined-- 54.285
4.49 --undefined-- 54.075
4.50 --undefined-- 55.816
4.51 253.114 60.703
4.52 234.072 65.167
4.53 216.873 67.819
4.54 209.321 69.086
4.55 205.560 69.418
4.56 206.873 69.302
4.57 213.392 69.434
4.58 221.970 69.668
4.59 232.363 69.390
4.60 241.111 68.018
4.61 249.291 65.798
4.62 267.160 65.219
4.63 280.428 66.416
4.64 298.456 67.540
4.65 163.637 69.213
4.66 168.615 71.244
4.67 168.131 72.277
4.68 168.315 72.675
4.69 168.450 73.015
4.70 167.681 73.096
4.71 166.711 72.706
4.72 164.824 71.705
4.73 160.476 70.173
4.74 157.015 68.524
4.75 151.128 67.355
4.76 288.654 67.218
4.77 267.084 68.294
4.78 247.420 70.122
4.79 232.959 71.005
4.80 215.273 70.463
4.81 205.701 68.815
4.82 199.083 66.681
4.83 189.264 65.708
4.84 185.235 66.042
4.85 179.239 66.307
4.86 172.868 65.884
4.87 169.522 64.507
4.88 169.588 63.221
4.89 169.089 62.551
4.90 169.824 62.239
4.91 171.806 62.086
4.92 170.870 61.248
4.93 --undefined-- --undefined--
4.94 --undefined-- --undefined--
4.95 --undefined-- --undefined--
4.96 --undefined-- --undefined--
