Time Pitch Intensity
0.01 --undefined-- --undefined--
0.02 116.640 --undefined--
0.03 114.391 --undefined--
0.04 110.472 --undefined--
0.05 --undefined-- 53.979
0.06 --undefined-- 46.142
0.07 --undefined-- 40.370
0.08 --undefined-- 38.453
0.09 --undefined-- 36.757
0.10 --undefined-- 33.960
0.11 --undefined-- 30.426
0.12 --undefined-- 30.684
0.13 --undefined-- 32.696
0.14 --undefined-- 33.819
0.15 --undefined-- 34.185
0.16 --undefined-- 33.950
0.17 --undefined-- 33.764
0.18 --undefined-- 34.714
0.19 --undefined-- 35.635
0.20 --undefined-- 36.505
0.21 --undefined-- 37.288
0.22 --undefined-- 36.537
0.23 --undefined-- 34.056
0.24 --undefined-- 31.503
0.25 --undefined-- 31.204
0.26 --undefined-- 32.260
0.27 --undefined-- 32.801
0.28 --undefined-- 32.874
0.29 --undefined-- 33.335
0.30 --undefined-- 33.924
0.31 --undefined-- 33.794
0.32 --undefined-- 33.283
0.33 --undefined-- 33.908
0.34 --undefined-- 35.351
0.35 --undefined-- 35.935
0.36 --undefined-- 35.633
0.37 --undefined-- 34.831
0.38 --undefined-- 34.034
0.39 --undefined-- 33.794
0.40 --undefined-- 33.633
0.41 --undefined-- 33.355
0.42 --undefined-- 33.860
0.43 --undefined-- 34.583
0.44 --undefined-- 34.047
0.45 --undefined-- 32.710
0.46 --undefined-- 32.170
0.47 --undefined-- 31.638
0.48 --undefined-- 30.293
0.49 --undefined-- 27.945
0.50 --undefined-- 25.266
0.51 --undefined-- 24.192
0.52 --undefined-- 24.984
0.53 --undefined-- 27.029
0.54 --undefined-- 28.473
0.55 --undefined-- 28.573
0.56 --undefined-- 27.742
0.57 --undefined-- 26.458
0.58 --undefined-- 25.273
0.59 --undefined-- 25.563
0.60 --undefined-- 26.931
0.61 --undefined-- 27.946
0.62 --undefined-- 28.408
0.63 --undefined-- 28.237
0.64 --undefined-- 32.384
0.65 --undefined-- 40.064
0.66 --undefined-- 45.423
0.67 --undefined-- 53.687
0.68 --undefined-- 64.148
0.69 --undefined-- 71.048
0.70 --undefined-- 74.919
0.71 77.516 77.226
0.72 77.908 78.406
0.73 78.139 77.816
0.74 79.961 76.364
0.75 144.488 75.369
0.76 144.811 73.798
0.77 138.578 70.910
0.78 138.713 66.348
0.79 --undefined-- 60.297
0.80 --undefined-- 55.616
0.81 --undefined-- 52.675
0.82 --undefined-- 49.345
0.83 --undefined-- 44.929
0.84 --undefined-- 42.922
0.85 --undefined-- 52.385
0.86 --undefined-- 59.417
0.87 --undefined-- 63.678
0.88 --undefined-- 65.504
0.89 --undefined-- 65.508
0.90 --undefined-- 67.237
0.91 178.352 70.844
0.92 183.243 73.376
0.93 188.615 73.948
0.94 193.302 72.776
0.95 194.520 70.100
0.96 191.726 65.311
0.97 --undefined-- 57.583
0.98 --undefined-- 49.846
0.99 --undefined-- 46.834
1.00 --undefined-- 44.519
1.01 --undefined-- 41.770
1.02 --undefined-- 42.364
1.03 --undefined-- 49.187
1.04 --undefined-- 55.532
1.05 230.923 60.161
1.06 231.598 62.718
1.07 232.332 63.381
1.08 230.755 62.908
1.09 227.801 62.203
1.10 222.649 61.286
1.11 219.281 59.710
1.12 205.479 57.248
1.13 192.837 54.111
1.14 --undefined-- 50.378
1.15 --undefined-- 45.476
1.16 --undefined-- 39.593
1.17 --undefined-- 38.991
1.18 --undefined-- 42.604
1.19 --undefined-- 45.827
1.20 --undefined-- 54.556
1.21 --undefined-- 63.312
1.22 --undefined-- 68.507
1.23 --undefined-- 70.347
1.24 --undefined-- 69.287
1.25 --undefined-- 65.797
1.26 --undefined-- 60.357
1.27 --undefined-- 55.292
1.28 --undefined-- 54.266
1.29 --undefined-- 56.681
1.30 134.373 61.399
1.31 133.761 65.281
1.32 133.653 66.796
1.33 129.641 66.358
1.34 --undefined-- 65.768
1.35 --undefined-- 65.508
1.36 --undefined-- 63.822
1.37 --undefined-- 60.495
1.38 119.890 58.754
1.39 120.652 58.509
1.40 120.151 57.865
1.41 122.125 56.375
1.42 --undefined-- 53.588
1.43 --undefined-- 49.204
1.44 --undefined-- 44.978
1.45 --undefined-- 42.379
1.46 --undefined-- 40.542
1.47 --undefined-- 42.317
1.48 --undefined-- 50.993
1.49 178.180 58.178
1.50 192.645 62.311
1.51 193.613 63.895
1.52 191.969 63.716
1.53 189.242 62.232
1.54 180.967 59.474
1.55 169.596 55.280
1.56 --undefined-- 49.494
1.57 --undefined-- 42.104
1.58 --undefined-- 33.910
1.59 --undefined-- 29.591
1.60 --undefined-- 30.331
1.61 --undefined-- 30.047
1.62 --undefined-- 28.172
1.63 --undefined-- 30.232
1.64 --undefined-- 35.027
1.65 --undefined-- 38.209
1.66 --undefined-- 40.556
1.67 --undefined-- 42.611
1.68 --undefined-- 44.146
1.69 --undefined-- 45.709
1.70 --undefined-- 46.643
1.71 --undefined-- 46.423
1.72 --undefined-- 47.010
1.73 --undefined-- 49.237
1.74 --undefined-- 51.717
1.75 114.697 53.878
1.76 114.717 55.332
1.77 114.208 56.024
1.78 109.806 56.319
1.79 109.577 56.410
1.80 106.019 56.457
1.81 105.737 56.968
1.82 105.077 57.584
1.83 105.004 57.424
1.84 104.526 55.957
1.85 --undefined-- 52.665
1.86 --undefined-- 47.434
1.87 --undefined-- 43.539
1.88 --undefined-- 42.414
1.89 --undefined-- 40.527
1.90 --undefined-- 40.372
1.91 --undefined-- 45.442
1.92 --undefined-- 55.623
1.93 --undefined-- 64.130
1.94 --undefined-- 69.067
1.95 --undefined-- 70.984
1.96 --undefined-- 70.490
1.97 --undefined-- 67.925
1.98 --undefined-- 63.588
1.99 --undefined-- 57.821
2.00 --undefined-- 51.921
2.01 99.135 53.160
2.02 100.754 56.431
2.03 103.680 59.146
2.04 106.800 60.258
2.05 108.069 58.633
2.06 --undefined-- 53.915
2.07 --undefined-- 46.200
2.08 --undefined-- 36.777
2.09 --undefined-- 32.404
2.10 --undefined-- 33.235
2.11 --undefined-- 35.485
2.12 --undefined-- 37.509
2.13 --undefined-- 39.651
2.14 --undefined-- 42.068
2.15 --undefined-- 45.566
2.16 --undefined-- 49.741
2.17 --undefined-- 52.863
2.18 --undefined-- 53.951
2.19 --undefined-- 52.741
2.20 --undefined-- 52.074
2.21 --undefined-- 58.020
2.22 136.346 63.950
2.23 127.302 67.065
2.24 126.034 67.644
2.25 116.525 66.163
2.26 112.770 63.301
2.27 109.679 59.910
2.28 108.953 56.232
2.29 103.994 53.373
2.30 107.840 53.323
2.31 106.213 54.400
2.32 109.310 55.134
2.33 105.706 55.555
2.34 110.065 55.594
2.35 106.795 55.483
2.36 108.032 55.341
2.37 102.885 55.332
2.38 108.328 55.522
2.39 100.513 55.447
2.40 105.188 54.833
2.41 99.650 53.770
2.42 --undefined-- 52.379
2.43 --undefined-- 51.072
2.44 --undefined-- 49.257
2.45 --undefined-- 47.153
2.46 --undefined-- 47.255
2.47 --undefined-- 48.730
2.48 --undefined-- 50.544
2.49 --undefined-- 53.768
2.50 --undefined-- 56.133
2.51 --undefined-- 56.697
2.52 --undefined-- 55.580
2.53 --undefined-- 53.954
2.54 --undefined-- 51.672
2.55 --undefined-- 48.760
2.56 --undefined-- 46.428
2.57 --undefined-- 43.805
2.58 --undefined-- 39.846
2.59 --undefined-- 33.813
2.60 --undefined-- 26.425
2.61 --undefined-- 24.445
2.62 --undefined-- 25.982
2.63 --undefined-- 26.197
2.64 --undefined-- 26.127
2.65 --undefined-- 25.944
2.66 --undefined-- 26.564
2.67 --undefined-- 28.268
2.68 --undefined-- 28.467
2.69 --undefined-- 26.993
2.70 --undefined-- 26.641
2.71 --undefined-- 27.484
2.72 --undefined-- 27.317
2.73 --undefined-- 26.214
2.74 --undefined-- 26.361
2.75 --undefined-- 27.129
2.76 --undefined-- 27.130
2.77 --undefined-- 26.392
2.78 --undefined-- 27.041
2.79 --undefined-- 36.021
2.80 --undefined-- 48.366
2.81 --undefined-- 56.841
2.82 139.297 61.884
2.83 137.993 64.888
2.84 136.726 68.518
2.85 149.419 72.835
2.86 159.573 75.444
2.87 162.637 76.071
2.88 166.634 76.004
2.89 173.092 76.564
2.90 177.896 77.478
2.91 181.458 78.002
2.92 182.279 77.792
2.93 182.342 77.009
2.94 123.776 75.864
2.95 127.498 74.820
2.96 128.000 74.509
2.97 126.461 74.619
2.98 119.624 74.831
2.99 120.075 75.552
3.00 121.305 76.613
3.01 122.955 77.470
3.02 123.156 78.108
3.03 121.994 78.394
3.04 121.476 77.748
3.05 120.571 75.541
3.06 111.840 71.922
3.07 108.126 69.113
3.08 106.891 68.122
3.09 104.988 67.581
3.10 102.270 67.000
3.11 98.865 66.364
3.12 95.844 65.671
3.13 92.790 64.759
3.14 88.514 63.687
3.15 89.935 63.145
3.16 88.219 63.055
3.17 --undefined-- 62.645
3.18 --undefined-- 62.547
3.19 173.336 64.825
3.20 174.934 68.217
3.21 177.605 70.663
3.22 178.337 72.003
3.23 177.050 72.646
3.24 175.750 72.968
3.25 175.326 73.263
3.26 174.331 73.731
3.27 173.157 73.882
3.28 172.341 73.177
3.29 171.464 71.863
3.30 170.882 70.511
3.31 170.233 69.316
3.32 168.471 68.182
3.33 167.879 67.292
3.34 167.250 67.059
3.35 165.758 67.144
3.36 165.301 67.352
3.37 165.158 67.608
3.38 164.291 67.573
3.39 162.740 67.153
3.40 160.306 65.722
3.41 153.101 62.287
3.42 139.870 56.498
3.43 --undefined-- 49.299
3.44 --undefined-- 42.053
3.45 --undefined-- 35.874
3.46 --undefined-- 31.897
3.47 --undefined-- 32.209
3.48 --undefined-- 46.689
3.49 --undefined-- 61.400
3.50 --undefined-- 70.360
3.51 142.067 75.142
3.52 137.687 76.676
3.53 133.412 75.660
3.54 127.442 73.259
3.55 127.521 72.141
3.56 130.498 72.816
3.57 131.943 73.344
3.58 135.147 73.127
3.59 140.837 72.183
3.60 151.487 71.155
3.61 160.035 71.054
3.62 166.980 71.875
3.63 173.631 72.723
3.64 179.751 73.062
3.65 186.481 72.953
3.66 192.832 72.649
3.67 197.063 72.274
3.68 199.191 71.753
3.69 198.575 70.584
3.70 195.279 67.958
3.71 183.823 63.097
3.72 --undefined-- 55.844
3.73 --undefined-- 47.826
3.74 --undefined-- 41.216
3.75 --undefined-- 37.767
3.76 --undefined-- 38.519
3.77 --undefined-- 40.022
3.78 --undefined-- 41.755
3.79 --undefined-- 43.757
3.80 --undefined-- 45.534
3.81 --undefined-- 46.951
3.82 --undefined-- 48.489
3.83 --undefined-- 53.120
3.84 --undefined-- 59.972
3.85 165.002 65.632
3.86 165.147 69.381
3.87 162.493 71.431
3.88 160.348 72.110
3.89 156.654 71.823
3.90 155.064 71.265
3.91 155.421 70.845
3.92 155.755 70.101
3.93 156.052 68.679
3.94 154.819 66.558
3.95 156.476 64.950
3.96 157.936 65.136
3.97 158.639 65.667
3.98 159.118 66.041
3.99 159.262 66.443
4.00 157.582 66.717
4.01 157.258 66.537
4.02 156.231 64.864
4.03 148.251 60.563
4.04 --undefined-- 53.525
4.05 --undefined-- 44.796
4.06 --undefined-- 42.977
4.07 --undefined-- 49.769
4.08 --undefined-- 55.600
4.09 --undefined-- 62.379
4.10 200.510 69.606
4.11 195.546 74.331
4.12 189.520 76.836
4.13 185.983 78.157
4.14 183.639 78.769
4.15 183.084 78.474
4.16 183.366 77.173
4.17 182.604 74.974
4.18 182.119 72.365
4.19 181.280 70.979
4.20 180.867 70.547
4.21 181.612 70.012
4.22 182.400 69.455
4.23 182.645 68.752
4.24 182.834 67.496
4.25 181.860 65.719
4.26 --undefined-- 63.804
4.27 --undefined-- 61.715
4.28 110.686 59.323
4.29 109.120 57.315
4.30 --undefined-- 55.551
4.31 --undefined-- 54.748
4.32 --undefined-- 54.815
4.33 --undefined-- 53.901
4.34 --undefined-- 52.176
4.35 --undefined-- 49.885
4.36 --undefined-- 48.307
4.37 --undefined-- 47.341
4.38 --undefined-- 46.367
4.39 --undefined-- 45.260
4.40 --undefined-- 44.179
4.41 --undefined-- 42.841
4.42 --undefined-- 40.987
4.43 --undefined-- 38.655
4.44 --undefined-- 35.733
4.45 --undefined-- 32.081
4.46 --undefined-- 29.541
4.47 --undefined-- 30.322
4.48 --undefined-- 31.592
4.49 --undefined-- 32.995
4.50 --undefined-- 35.048
4.51 --undefined-- 36.788
4.52 --undefined-- 37.693
4.53 --undefined-- 38.256
4.54 --undefined-- 38.670
4.55 --undefined-- 38.563
4.56 --undefined-- 38.119
4.57 --undefined-- 38.004
4.58 --undefined-- 38.464
4.59 --undefined-- 38.998
4.60 --undefined-- 39.072
4.61 --undefined-- 38.281
4.62 --undefined-- 37.495
4.63 --undefined-- 39.336
4.64 --undefined-- 44.392
4.65 --undefined-- 48.483
4.66 --undefined-- 52.041
4.67 --undefined-- 56.448
4.68 --undefined-- 59.523
4.69 --undefined-- 60.356
4.70 --undefined-- 64.831
4.71 --undefined-- 70.847
4.72 --undefined-- 74.456
4.73 180.353 76.288
4.74 181.211 76.872
4.75 184.631 76.362
4.76 190.129 74.791
4.77 196.946 72.217
4.78 203.409 69.591
4.79 204.921 68.271
4.80 206.310 67.825
4.81 207.829 67.354
4.82 206.281 66.420
4.83 202.961 65.255
4.84 199.510 63.708
4.85 197.238 60.311
4.86 --undefined-- 53.851
4.87 --undefined-- 44.795
4.88 --undefined-- 41.735
4.89 --undefined-- 44.756
4.90 --undefined-- 49.109
4.91 --undefined-- 53.078
4.92 --undefined-- 55.206
4.93 --undefined-- 55.355
4.94 --undefined-- 54.987
4.95 159.159 57.047
4.96 160.811 60.607
4.97 158.435 63.232
4.98 155.908 64.482
4.99 153.428 64.724
5.00 150.902 64.346
5.01 151.647 63.498
5.02 152.561 62.457
5.03 152.856 61.111
5.04 146.865 59.002
5.05 143.438 56.754
5.06 --undefined-- 54.308
5.07 --undefined-- 50.507
5.08 --undefined-- 45.679
5.09 --undefined-- 40.896
5.10 --undefined-- 37.117
5.11 --undefined-- 45.326
5.12 --undefined-- 56.322
5.13 148.220 63.643
5.14 147.857 67.846
5.15 137.871 69.200
5.16 126.927 68.257
5.17 123.462 65.807
5.18 120.480 63.271
5.19 119.619 62.104
5.20 119.685 61.210
5.21 120.492 60.116
5.22 118.862 59.496
5.23 115.189 59.219
5.24 115.302 58.521
5.25 113.814 56.570
5.26 --undefined-- 53.334
5.27 --undefined-- 50.383
5.28 --undefined-- 49.320
5.29 --undefined-- 49.872
5.30 --undefined-- 50.011
5.31 --undefined-- 49.238
5.32 --undefined-- 47.660
5.33 --undefined-- 47.759
5.34 --undefined-- 53.948
5.35 153.450 61.456
5.36 157.494 67.308
5.37 160.755 71.398
5.38 161.111 73.678
5.39 161.098 74.434
5.40 162.112 74.203
5.41 162.231 73.484
5.42 161.915 72.335
5.43 161.763 70.560
5.44 160.829 68.348
5.45 159.508 66.008
5.46 157.171 63.011
5.47 150.144 58.637
5.48 --undefined-- 52.727
5.49 --undefined-- 46.822
5.50 --undefined-- 43.099
5.51 --undefined-- 40.248
5.52 --undefined-- 38.318
5.53 --undefined-- 39.675
5.54 --undefined-- 41.589
5.55 --undefined-- 44.332
5.56 --undefined-- 53.469
5.57 --undefined-- 63.362
5.58 --undefined-- 69.776
5.59 169.135 73.165
5.60 163.570 74.607
5.61 159.501 75.220
5.62 156.472 75.669
5.63 155.001 75.717
5.64 153.983 75.350
5.65 153.384 74.706
5.66 152.992 73.703
5.67 152.535 72.564
5.68 151.602 71.491
5.69 150.592 70.241
5.70 148.272 68.528
5.71 148.736 66.551
5.72 --undefined-- 63.981
5.73 --undefined-- 60.835
5.74 --undefined-- 58.799
5.75 --undefined-- 58.047
5.76 --undefined-- 55.763
5.77 --undefined-- 49.973
5.78 --undefined-- 44.406
5.79 --undefined-- 45.007
5.80 --undefined-- 46.013
5.81 --undefined-- 46.671
5.82 --undefined-- 47.021
5.83 --undefined-- 46.740
5.84 --undefined-- 45.667
5.85 --undefined-- 44.576
5.86 --undefined-- 44.284
5.87 --undefined-- 45.470
5.88 --undefined-- 47.359
5.89 --undefined-- 47.743
5.90 --undefined-- 46.665
5.91 --undefined-- 48.050
5.92 --undefined-- 55.185
5.93 --undefined-- 61.487
5.94 153.169 65.366
5.95 156.949 67.675
5.96 155.105 68.836
5.97 152.271 68.971
5.98 150.010 68.394
5.99 150.471 67.348
6.00 150.342 65.893
6.01 150.840 64.480
6.02 150.927 63.348
6.03 149.450 61.619
6.04 146.286 58.185
6.05 --undefined-- 52.932
6.06 --undefined-- 48.328
6.07 --undefined-- 47.438
6.08 --undefined-- 53.306
6.09 --undefined-- 60.309
6.10 --undefined-- 65.169
6.11 145.419 67.624
6.12 144.051 68.242
6.13 141.081 67.798
6.14 140.490 67.110
6.15 141.338 66.514
6.16 141.873 66.110
6.17 140.738 65.991
6.18 139.888 66.037
6.19 139.608 65.892
6.20 135.000 64.759
6.21 129.408 62.065
6.22 --undefined-- 58.046
6.23 --undefined-- 54.264
6.24 --undefined-- 51.549
6.25 --undefined-- 50.858
6.26 --undefined-- 52.728
6.27 --undefined-- 56.577
6.28 --undefined-- 63.118
6.29 182.260 69.833
6.30 175.150 73.978
6.31 170.459 75.611
6.32 168.634 75.167
6.33 168.332 73.232
6.34 168.319 70.355
6.35 169.393 66.480
6.36 170.006 62.703
6.37 168.158 61.140
6.38 166.352 60.771
6.39 163.423 60.239
6.40 161.572 58.708
6.41 --undefined-- 55.291
6.42 --undefined-- 50.155
6.43 --undefined-- 47.584
6.44 --undefined-- 49.859
6.45 --undefined-- 50.904
6.46 --undefined-- 51.620
6.47 --undefined-- 57.349
6.48 151.308 63.869
6.49 145.400 68.028
6.50 142.445 69.879
6.51 140.141 69.732
6.52 137.865 68.144
6.53 140.723 66.546
6.54 142.422 65.746
6.55 148.812 64.884
6.56 150.126 63.801
6.57 149.091 61.734
6.58 --undefined-- 57.403
6.59 --undefined-- 50.999
6.60 --undefined-- 44.500
6.61 --undefined-- 38.569
6.62 --undefined-- 33.832
6.63 --undefined-- 33.586
6.64 --undefined-- 33.590
6.65 --undefined-- 33.321
6.66 --undefined-- 35.670
6.67 --undefined-- 47.821
6.68 --undefined-- 57.936
6.69 --undefined-- 63.553
6.70 --undefined-- 66.197
6.71 136.775 67.516
6.72 135.233 68.269
6.73 137.478 68.782
6.74 138.030 69.041
6.75 139.224 68.279
6.76 141.276 66.096
6.77 146.608 63.066
6.78 149.738 60.998
6.79 152.337 61.080
6.80 155.339 62.474
6.81 156.128 64.416
6.82 157.540 66.223
6.83 151.605 --undefined--
6.84 144.984 --undefined--
6.85 --undefined-- --undefined--
6.86 --undefined-- --undefined--
