Time Pitch Intensity
0.01 --undefined-- --undefined--
0.02 --undefined-- --undefined--
0.03 --undefined-- --undefined--
0.04 --undefined-- --undefined--
0.05 --undefined-- 64.625
0.06 --undefined-- 65.044
0.07 --undefined-- 63.359
0.08 --undefined-- 60.101
0.09 --undefined-- 55.015
0.10 --undefined-- 46.383
0.11 --undefined-- 37.174
0.12 --undefined-- 35.693
0.13 --undefined-- 35.202
0.14 --undefined-- 35.151
0.15 --undefined-- 35.232
0.16 --undefined-- 36.022
0.17 --undefined-- 37.224
0.18 --undefined-- 37.162
0.19 --undefined-- 36.129
0.20 --undefined-- 41.975
0.21 --undefined-- 51.670
0.22 196.965 57.735
0.23 199.496 60.551
0.24 204.706 60.728
0.25 207.778 58.965
0.26 207.839 55.909
0.27 202.746 51.976
0.28 --undefined-- 48.911
0.29 --undefined-- 53.149
0.30 --undefined-- 58.506
0.31 --undefined-- 60.721
0.32 --undefined-- 60.401
0.33 --undefined-- 59.278
0.34 --undefined-- 60.001
0.35 212.547 63.745
0.36 219.026 67.450
0.37 218.976 70.856
0.38 --undefined-- 73.308
0.39 --undefined-- 73.877
0.40 --undefined-- 72.906
0.41 141.259 71.409
0.42 135.680 69.814
0.43 130.814 67.403
0.44 128.860 63.700
0.45 127.719 58.778
0.46 --undefined-- 53.532
0.47 --undefined-- 51.259
0.48 --undefined-- 52.339
0.49 --undefined-- 54.240
0.50 --undefined-- 55.463
0.51 --undefined-- 56.397
0.52 --undefined-- 61.187
0.53 168.556 66.581
0.54 166.907 70.248
0.55 167.638 71.667
0.56 168.032 71.477
0.57 173.009 71.428
0.58 178.059 71.738
0.59 183.656 71.708
0.60 190.345 71.081
0.61 195.369 68.955
0.62 198.160 64.326
0.63 --undefined-- 56.636
0.64 --undefined-- 49.252
0.65 --undefined-- 47.216
0.66 --undefined-- 49.078
0.67 --undefined-- 57.401
0.68 --undefined-- 65.104
0.69 --undefined-- 69.570
0.70 --undefined-- 70.895
0.71 188.173 70.240
0.72 179.817 68.967
0.73 171.216 67.066
0.74 163.168 65.207
0.75 157.570 65.102
0.76 153.985 65.670
0.77 150.351 66.033
0.78 148.335 66.284
0.79 147.308 66.670
0.80 146.493 67.255
0.81 143.850 67.195
0.82 141.305 66.117
0.83 138.516 64.165
0.84 136.484 61.016
0.85 --undefined-- 56.180
0.86 --undefined-- 51.990
0.87 --undefined-- 50.265
0.88 --undefined-- 48.984
0.89 --undefined-- 48.707
0.90 --undefined-- 48.593
0.91 --undefined-- 47.887
0.92 --undefined-- 47.443
0.93 --undefined-- 49.358
0.94 --undefined-- 52.129
0.95 --undefined-- 53.366
0.96 --undefined-- 56.165
0.97 --undefined-- 62.542
0.98 142.216 67.164
0.99 138.995 69.346
1.00 136.080 69.517
1.01 --undefined-- 67.543
1.02 --undefined-- 63.678
1.03 --undefined-- 60.906
1.04 --undefined-- 59.625
1.05 --undefined-- 58.391
1.06 --undefined-- 57.503
1.07 --undefined-- 57.165
1.08 --undefined-- 59.011
1.09 --undefined-- 62.697
1.10 --undefined-- 66.015
1.11 --undefined-- 68.142
1.12 129.898 69.099
1.13 130.602 69.306
1.14 130.368 68.806
1.15 130.402 67.721
1.16 129.363 66.116
1.17 128.580 63.042
1.18 126.175 57.611
1.19 --undefined-- 50.334
1.20 --undefined-- 47.858
1.21 --undefined-- 54.697
1.22 --undefined-- 61.935
1.23 152.528 66.386
1.24 151.316 68.687
1.25 153.306 70.053
1.26 155.716 70.938
1.27 157.769 71.297
1.28 159.734 71.284
1.29 161.800 70.952
1.30 164.341 70.263
1.31 168.001 69.278
1.32 173.087 68.425
1.33 176.332 67.976
1.34 178.825 67.671
1.35 180.346 67.389
1.36 180.434 67.103
1.37 180.277 66.644
1.38 181.297 66.505
1.39 185.183 67.798
1.40 184.224 69.885
1.41 178.812 71.261
1.42 171.178 71.577
1.43 165.540 70.922
1.44 160.114 69.102
1.45 153.871 65.757
1.46 --undefined-- 60.626
1.47 --undefined-- 55.195
1.48 --undefined-- 53.447
1.49 --undefined-- 53.370
1.50 --undefined-- 53.669
1.51 --undefined-- 53.726
1.52 --undefined-- 54.126
1.53 --undefined-- 55.473
1.54 --undefined-- 61.067
1.55 --undefined-- 67.346
1.56 166.820 70.289
1.57 158.707 70.544
1.58 153.699 69.596
1.59 150.865 68.181
1.60 147.728 66.278
1.61 146.763 64.243
1.62 144.736 62.254
1.63 144.016 60.511
1.64 142.512 58.163
1.65 --undefined-- 54.078
1.66 --undefined-- 48.604
1.67 --undefined-- 44.465
1.68 --undefined-- 43.393
1.69 --undefined-- 42.822
1.70 --undefined-- 41.631
1.71 --undefined-- 40.604
1.72 --undefined-- 40.822
1.73 --undefined-- 43.220
1.74 --undefined-- 45.439
1.75 --undefined-- 47.793
1.76 --undefined-- 50.665
1.77 --undefined-- 53.283
1.78 --undefined-- 54.665
1.79 --undefined-- 54.439
1.80 --undefined-- 54.882
1.81 --undefined-- 56.848
1.82 141.271 58.200
1.83 140.908 59.055
1.84 139.790 59.870
1.85 138.532 60.625
1.86 138.463 60.929
1.87 138.484 60.801
1.88 140.094 60.713
1.89 141.946 60.609
1.90 144.892 60.119
1.91 149.091 59.089
1.92 153.129 57.385
1.93 160.753 54.776
1.94 172.738 51.933
1.95 --undefined-- 49.707
1.96 --undefined-- 46.579
1.97 --undefined-- 42.110
1.98 --undefined-- 40.568
1.99 --undefined-- 43.482
2.00 --undefined-- 46.108
2.01 --undefined-- 47.100
2.02 --undefined-- 47.828
2.03 --undefined-- 49.163
2.04 --undefined-- 50.456
2.05 --undefined-- 51.612
2.06 --undefined-- 52.352
2.07 --undefined-- 52.744
2.08 --undefined-- 53.119
2.09 --undefined-- 53.322
2.10 --undefined-- 53.343
2.11 --undefined-- 53.431
2.12 --undefined-- 54.005
2.13 --undefined-- 55.115
2.14 --undefined-- 55.670
2.15 --undefined-- 55.827
2.16 --undefined-- 56.950
2.17 --undefined-- 59.057
2.18 --undefined-- 60.834
2.19 --undefined-- 60.645
2.20 --undefined-- 58.163
2.21 --undefined-- 55.233
2.22 --undefined-- 54.042
2.23 --undefined-- 52.934
2.24 --undefined-- 51.574
2.25 --undefined-- 50.830
2.26 --undefined-- 49.676
2.27 --undefined-- 47.175
2.28 --undefined-- 43.730
2.29 --undefined-- 40.522
2.30 --undefined-- 38.359
2.31 --undefined-- 38.212
2.32 --undefined-- 42.994
2.33 --undefined-- 48.820
2.34 --undefined-- 52.232
2.35 --undefined-- 58.540
2.36 --undefined-- 65.626
2.37 --undefined-- 69.252
2.38 --undefined-- 69.730
2.39 --undefined-- 68.533
2.40 --undefined-- 67.534
2.41 --undefined-- 67.298
2.42 193.330 69.155
2.43 189.602 71.496
2.44 183.449 72.748
2.45 181.207 73.129
2.46 180.417 73.340
2.47 181.862 72.858
2.48 186.991 70.929
2.49 188.103 67.980
2.50 186.919 65.392
2.51 186.307 63.919
2.52 187.272 63.430
2.53 189.630 63.565
2.54 191.914 63.737
2.55 196.373 63.641
2.56 201.921 63.889
2.57 205.063 64.616
2.58 208.812 65.041
2.59 212.943 66.263
2.60 216.960 68.652
2.61 217.862 70.528
2.62 217.443 71.697
2.63 217.595 72.255
2.64 217.859 72.306
2.65 219.625 72.332
2.66 219.244 72.152
2.67 217.673 70.697
2.68 216.751 67.136
2.69 219.971 61.425
2.70 --undefined-- 55.911
2.71 --undefined-- 54.598
2.72 --undefined-- 58.507
2.73 --undefined-- 61.319
2.74 --undefined-- 62.277
2.75 --undefined-- 63.202
2.76 --undefined-- 63.746
2.77 --undefined-- 64.181
2.78 --undefined-- 67.164
2.79 241.696 71.118
2.80 235.302 73.422
2.81 227.771 73.590
2.82 224.503 72.215
2.83 226.493 70.252
2.84 223.789 67.644
2.85 208.271 65.928
2.86 188.397 66.336
2.87 182.337 66.239
2.88 175.822 64.842
2.89 169.673 62.298
2.90 165.361 59.870
2.91 159.465 59.607
2.92 158.104 59.732
2.93 155.845 59.248
2.94 153.035 59.310
2.95 152.067 60.186
2.96 150.684 60.745
2.97 148.564 60.416
2.98 145.650 58.893
2.99 141.747 56.098
3.00 --undefined-- 54.831
3.01 --undefined-- 58.860
3.02 --undefined-- 61.801
3.03 --undefined-- 63.167
3.04 --undefined-- 66.664
3.05 163.431 70.080
3.06 160.046 71.090
3.07 154.725 70.870
3.08 153.458 71.270
3.09 152.662 71.821
3.10 152.564 71.945
3.11 153.479 71.913
3.12 155.791 72.013
3.13 157.799 72.002
3.14 159.828 71.730
3.15 162.647 71.334
3.16 165.861 70.600
3.17 171.349 69.515
3.18 178.488 69.307
3.19 180.823 69.424
3.20 183.021 67.859
3.21 188.276 63.674
3.22 --undefined-- 56.618
3.23 --undefined-- 49.293
3.24 --undefined-- 48.408
3.25 --undefined-- 52.373
3.26 --undefined-- 58.223
3.27 --undefined-- 61.742
3.28 --undefined-- 64.107
3.29 --undefined-- 67.930
3.30 168.136 70.322
3.31 154.073 70.354
3.32 144.917 69.196
3.33 139.650 67.791
3.34 139.358 66.980
3.35 139.548 67.317
3.36 139.235 67.691
3.37 140.465 67.565
3.38 142.708 67.026
3.39 144.738 66.223
3.40 147.505 65.345
3.41 151.015 64.816
3.42 156.678 64.969
3.43 163.945 65.662
3.44 171.746 66.424
3.45 177.474 66.383
3.46 182.369 65.149
3.47 191.055 63.595
3.48 199.394 61.900
3.49 --undefined-- 58.413
3.50 --undefined-- 52.528
3.51 --undefined-- 47.837
3.52 --undefined-- 48.089
3.53 --undefined-- 47.779
3.54 --undefined-- 45.203
3.55 --undefined-- 41.758
3.56 --undefined-- 39.455
3.57 --undefined-- 38.196
3.58 --undefined-- 38.564
3.59 --undefined-- 39.147
3.60 --undefined-- 40.265
3.61 --undefined-- 42.229
3.62 --undefined-- 44.052
3.63 --undefined-- 46.186
3.64 --undefined-- 48.855
3.65 --undefined-- 51.879
3.66 --undefined-- 55.880
3.67 --undefined-- 58.512
3.68 --undefined-- 58.254
3.69 --undefined-- 55.704
3.70 --undefined-- 53.676
3.71 --undefined-- 53.479
3.72 177.042 54.539
3.73 169.408 56.167
3.74 167.748 57.796
3.75 166.874 59.308
3.76 165.452 60.627
3.77 164.214 61.909
3.78 163.268 63.773
3.79 163.752 66.768
3.80 166.377 69.357
3.81 165.735 69.841
3.82 159.971 68.060
3.83 155.136 65.430
3.84 154.283 64.758
3.85 154.909 66.499
3.86 154.224 68.351
3.87 150.828 69.776
3.88 149.480 71.078
3.89 149.479 72.272
3.90 149.995 73.205
3.91 150.625 73.644
3.92 151.974 73.610
3.93 153.789 73.290
3.94 156.719 72.883
3.95 159.971 72.374
3.96 164.710 71.658
3.97 169.686 70.599
3.98 172.573 68.934
3.99 172.697 66.283
4.00 --undefined-- 61.548
4.01 --undefined-- 53.979
4.02 --undefined-- 47.875
4.03 --undefined-- 48.917
4.04 --undefined-- 52.260
4.05 --undefined-- 54.116
4.06 --undefined-- 54.624
4.07 --undefined-- 56.946
4.08 194.823 60.999
4.09 201.241 64.607
4.10 199.531 67.426
4.11 --undefined-- 69.159
4.12 --undefined-- 69.674
4.13 194.740 69.578
4.14 180.053 68.595
4.15 --undefined-- 65.870
4.16 --undefined-- 61.533
4.17 --undefined-- 57.277
4.18 --undefined-- 55.585
4.19 --undefined-- 57.861
4.20 --undefined-- 61.831
4.21 --undefined-- 64.334
4.22 --undefined-- 64.445
4.23 --undefined-- 61.751
4.24 --undefined-- 55.839
4.25 --undefined-- 51.740
4.26 --undefined-- 53.922
4.27 --undefined-- 53.874
4.28 --undefined-- 54.406
4.29 --undefined-- 61.834
4.30 --undefined-- 68.493
4.31 206.685 72.173
4.32 201.569 73.271
4.33 197.844 72.840
4.34 194.692 72.122
4.35 192.789 71.791
4.36 191.433 71.664
4.37 190.349 71.550
4.38 188.825 71.643
4.39 186.991 71.830
4.40 184.560 71.348
4.41 182.647 69.662
4.42 181.419 67.264
4.43 179.798 65.201
4.44 178.398 63.260
4.45 177.401 60.760
4.46 179.396 60.054
4.47 182.164 62.982
4.48 180.945 66.434
4.49 176.588 69.647
4.50 172.918 72.155
4.51 169.647 72.792
4.52 160.451 71.756
4.53 156.538 71.250
4.54 156.101 71.804
4.55 155.690 72.030
4.56 154.964 71.726
4.57 154.514 71.069
4.58 155.002 70.077
4.59 157.914 68.973
4.60 160.145 67.882
4.61 160.239 65.776
4.62 159.728 61.274
4.63 --undefined-- 54.475
4.64 --undefined-- 50.890
4.65 --undefined-- 53.212
4.66 --undefined-- 59.798
4.67 --undefined-- 66.514
4.68 179.329 70.680
4.69 173.012 72.305
4.70 167.666 72.449
4.71 166.506 72.169
4.72 166.627 71.928
4.73 167.207 71.742
4.74 167.529 71.339
4.75 169.178 70.273
4.76 --undefined-- 68.071
4.77 --undefined-- 64.667
4.78 --undefined-- 60.796
4.79 --undefined-- 57.803
4.80 --undefined-- 57.834
4.81 --undefined-- 59.681
4.82 --undefined-- 60.994
4.83 --undefined-- 61.763
4.84 --undefined-- 63.395
4.85 --undefined-- 66.706
4.86 --undefined-- 69.641
4.87 --undefined-- 70.882
4.88 154.168 70.721
4.89 148.396 70.216
4.90 142.814 70.298
4.91 140.114 70.800
4.92 138.149 70.975
4.93 137.229 70.273
4.94 139.430 69.161
4.95 140.353 68.559
4.96 139.394 67.989
4.97 138.728 66.422
4.98 138.779 63.271
4.99 137.855 58.500
5.00 138.904 52.916
5.01 138.247 49.181
5.02 --undefined-- 47.476
5.03 --undefined-- 48.992
5.04 --undefined-- 55.102
5.05 --undefined-- 58.761
5.06 --undefined-- 61.199
5.07 --undefined-- 65.281
5.08 138.283 68.568
5.09 140.351 70.453
5.10 140.933 71.849
5.11 140.041 72.696
5.12 139.394 72.866
5.13 140.320 72.734
5.14 143.612 72.644
5.15 146.626 72.362
5.16 148.649 71.627
5.17 150.408 70.626
5.18 150.773 69.261
5.19 153.564 68.024
5.20 156.706 68.160
5.21 158.638 69.296
5.22 163.047 --undefined--
5.23 167.057 --undefined--
5.24 --undefined-- --undefined--
5.25 --undefined-- --undefined--
