Time Pitch Intensity
0.01 --undefined-- --undefined--
0.02 174.808 --undefined--
0.03 164.082 --undefined--
0.04 156.067 --undefined--
0.05 152.488 69.855
0.06 148.085 69.660
0.07 143.224 68.985
0.08 132.867 68.327
0.09 122.369 67.814
0.10 121.171 66.436
0.11 115.213 64.683
0.12 113.492 64.022
0.13 111.849 64.233
0.14 110.905 64.501
0.15 107.278 64.713
0.16 100.050 65.289
0.17 99.944 65.471
0.18 93.255 64.813
0.19 86.730 63.863
0.20 81.935 62.773
0.21 75.399 61.242
0.22 --undefined-- 59.848
0.23 --undefined-- 59.113
0.24 --undefined-- 57.522
0.25 --undefined-- 54.295
0.26 --undefined-- 50.293
0.27 --undefined-- 46.439
0.28 --undefined-- 42.971
0.29 --undefined-- 40.358
0.30 --undefined-- 37.383
0.31 --undefined-- 34.444
0.32 --undefined-- 35.405
0.33 --undefined-- 38.624
0.34 --undefined-- 40.494
0.35 --undefined-- 40.919
0.36 --undefined-- 41.493
0.37 --undefined-- 42.574
0.38 --undefined-- 43.621
0.39 --undefined-- 44.179
0.40 --undefined-- 44.535
0.41 --undefined-- 45.161
0.42 --undefined-- 45.345
0.43 --undefined-- 44.536
0.44 --undefined-- 43.434
0.45 --undefined-- 42.441
0.46 --undefined-- 41.527
0.47 --undefined-- 40.569
0.48 --undefined-- 39.227
0.49 --undefined-- 38.103
0.50 --undefined-- 36.469
0.51 --undefined-- 33.838
0.52 --undefined-- 31.906
0.53 --undefined-- 30.812
0.54 --undefined-- 29.926
0.55 --undefined-- 30.201
0.56 --undefined-- 41.134
0.57 --undefined-- 51.440
0.58 --undefined-- 58.084
0.59 144.444 62.489
0.60 145.150 65.584
0.61 142.320 67.646
0.62 143.319 69.087
0.63 145.062 70.268
0.64 143.264 70.981
0.65 144.940 71.164
0.66 147.375 70.957
0.67 152.068 70.776
0.68 155.478 71.008
0.69 158.342 71.256
0.70 164.692 71.126
0.71 170.220 70.879
0.72 174.499 70.536
0.73 193.421 70.473
0.74 202.008 70.797
0.75 206.200 70.318
0.76 206.342 68.382
0.77 202.351 65.042
0.78 204.826 60.964
0.79 203.899 56.140
0.80 --undefined-- 50.367
0.81 --undefined-- 47.251
0.82 --undefined-- 47.332
0.83 --undefined-- 52.088
0.84 214.536 60.375
0.85 213.088 65.564
0.86 197.232 67.891
0.87 --undefined-- 68.755
0.88 --undefined-- 68.785
0.89 --undefined-- 67.919
0.90 121.619 67.080
0.91 116.172 66.192
0.92 111.331 64.739
0.93 104.220 63.679
0.94 102.102 63.657
0.95 100.370 63.791
0.96 99.345 63.681
0.97 99.323 63.340
0.98 106.329 63.054
0.99 117.737 63.593
1.00 127.262 64.854
1.01 137.270 66.523
1.02 142.743 68.449
1.03 146.191 69.835
1.04 150.968 70.190
1.05 153.252 70.141
1.06 156.445 70.155
1.07 160.120 69.986
1.08 162.756 69.463
1.09 165.220 68.736
1.10 166.873 68.254
1.11 166.553 67.680
1.12 161.383 65.976
1.13 161.733 62.833
1.14 163.080 58.981
1.15 162.172 55.590
1.16 164.907 54.499
1.17 172.328 58.031
1.18 170.008 62.598
1.19 157.107 65.687
1.20 147.747 67.118
1.21 138.274 67.388
1.22 129.702 67.332
1.23 124.593 66.959
1.24 119.168 66.204
1.25 115.805 65.749
1.26 114.895 65.650
1.27 115.145 65.720
1.28 116.034 65.897
1.29 116.352 66.002
1.30 117.027 65.765
1.31 117.753 65.427
1.32 117.553 65.365
1.33 117.046 65.553
1.34 117.294 65.798
1.35 117.701 66.010
1.36 117.860 66.353
1.37 117.717 66.705
1.38 117.105 66.638
1.39 114.224 66.098
1.40 112.475 65.538
1.41 111.718 65.168
1.42 112.406 64.790
1.43 114.029 64.564
1.44 115.159 64.373
1.45 115.723 63.695
1.46 115.699 62.089
1.47 119.264 59.338
1.48 122.011 55.453
1.49 122.502 50.905
1.50 119.620 48.231
1.51 117.288 48.206
1.52 117.873 47.907
1.53 --undefined-- 46.592
1.54 --undefined-- 45.033
1.55 --undefined-- 43.987
1.56 --undefined-- 43.236
1.57 --undefined-- 42.470
1.58 --undefined-- 46.220
1.59 --undefined-- 55.733
1.60 --undefined-- 62.139
1.61 125.066 65.336
1.62 120.992 66.298
1.63 115.750 66.136
1.64 114.526 65.657
1.65 113.502 65.343
1.66 113.646 65.551
1.67 113.388 65.923
1.68 113.271 66.043
1.69 113.750 65.865
1.70 114.440 65.622
1.71 114.958 65.385
1.72 115.550 64.833
1.73 115.881 63.660
1.74 115.510 61.706
1.75 111.243 58.734
1.76 110.682 54.822
1.77 114.215 50.520
1.78 --undefined-- 46.408
1.79 --undefined-- 44.349
1.80 --undefined-- 43.922
1.81 --undefined-- 43.786
1.82 --undefined-- 45.693
1.83 --undefined-- 47.582
1.84 --undefined-- 46.771
1.85 --undefined-- 47.648
1.86 --undefined-- 54.496
1.87 118.758 59.865
1.88 115.517 63.163
1.89 112.006 64.866
1.90 109.134 65.352
1.91 105.290 65.126
1.92 104.083 64.799
1.93 103.597 64.564
1.94 102.744 64.209
1.95 102.209 63.553
1.96 101.414 62.707
1.97 100.948 61.799
1.98 99.544 60.830
1.99 98.754 60.630
2.00 103.717 61.978
2.01 107.845 63.689
2.02 111.241 64.927
2.03 114.870 65.796
2.04 118.618 66.404
2.05 123.559 66.824
2.06 129.197 67.365
2.07 135.689 67.932
2.08 135.583 68.183
2.09 136.701 68.346
2.10 139.004 68.630
2.11 142.084 68.949
2.12 144.469 69.217
2.13 147.686 69.376
2.14 150.475 69.353
2.15 152.958 69.197
2.16 154.828 69.072
2.17 156.268 68.636
2.18 158.204 67.663
2.19 160.054 66.358
2.20 160.910 64.987
2.21 160.427 63.496
2.22 159.057 61.107
2.23 158.067 56.946
2.24 --undefined-- 50.666
2.25 --undefined-- 44.762
2.26 --undefined-- 42.837
2.27 --undefined-- 41.156
2.28 --undefined-- 44.781
2.29 --undefined-- 53.781
2.30 --undefined-- 59.788
2.31 132.102 63.015
2.32 130.105 64.183
2.33 125.861 64.090
2.34 124.612 63.956
2.35 129.230 64.036
2.36 131.017 64.263
2.37 137.227 65.237
2.38 145.693 66.522
2.39 148.619 67.072
2.40 148.586 66.396
2.41 148.055 64.417
2.42 148.246 61.119
2.43 153.952 56.821
2.44 159.142 52.384
2.45 --undefined-- 47.814
2.46 --undefined-- 50.358
2.47 --undefined-- 59.422
2.48 --undefined-- 65.551
2.49 162.591 68.769
2.50 160.285 69.822
2.51 153.785 69.908
2.52 150.196 69.977
2.53 148.752 69.975
2.54 147.859 69.984
2.55 147.036 70.051
2.56 145.108 69.881
2.57 143.776 69.157
2.58 142.218 68.107
2.59 140.623 67.486
2.60 138.670 67.399
2.61 134.680 67.413
2.62 130.447 67.308
2.63 126.777 67.043
2.64 122.522 66.579
2.65 115.013 66.039
2.66 112.986 65.541
2.67 107.584 64.635
2.68 99.937 63.404
2.69 95.626 63.031
2.70 97.129 63.613
2.71 100.221 63.892
2.72 104.232 64.083
2.73 107.006 64.650
2.74 109.564 65.177
2.75 113.666 65.443
2.76 117.529 65.429
2.77 118.147 65.246
2.78 120.370 65.130
2.79 123.324 65.152
2.80 125.224 65.364
2.81 127.261 65.783
2.82 129.412 66.286
2.83 131.983 66.664
2.84 134.365 66.825
2.85 136.688 66.931
2.86 138.745 67.096
2.87 139.912 67.259
2.88 141.018 67.445
2.89 138.767 67.462
2.90 136.721 66.702
2.91 133.243 64.833
2.92 135.777 62.104
2.93 140.133 58.916
2.94 160.406 55.870
2.95 162.930 53.609
2.96 160.885 50.708
2.97 --undefined-- 46.101
2.98 --undefined-- 42.594
2.99 --undefined-- 41.206
3.00 --undefined-- 38.688
3.01 --undefined-- 35.852
3.02 --undefined-- 34.290
3.03 --undefined-- 33.838
3.04 --undefined-- 33.357
3.05 --undefined-- 33.466
3.06 --undefined-- 34.398
3.07 --undefined-- 39.519
3.08 --undefined-- 45.952
3.09 --undefined-- 49.902
3.10 --undefined-- 51.314
3.11 --undefined-- 51.094
3.12 --undefined-- 50.209
3.13 --undefined-- 49.380
3.14 --undefined-- 48.924
3.15 --undefined-- 47.943
3.16 --undefined-- 46.769
3.17 --undefined-- 45.901
3.18 --undefined-- 44.978
3.19 --undefined-- 45.287
3.20 --undefined-- 46.337
3.21 --undefined-- 46.549
3.22 --undefined-- 45.271
3.23 --undefined-- 41.446
3.24 --undefined-- 34.988
3.25 --undefined-- 31.061
3.26 --undefined-- 30.704
3.27 --undefined-- 30.467
3.28 --undefined-- 29.264
3.29 --undefined-- 29.708
3.30 --undefined-- 30.438
3.31 --undefined-- 28.932
3.32 --undefined-- 32.026
3.33 --undefined-- 47.425
3.34 --undefined-- 57.643
3.35 --undefined-- 63.298
3.36 127.212 66.057
3.37 131.348 67.559
3.38 131.387 68.573
3.39 130.571 68.980
3.40 129.271 68.831
3.41 127.162 68.373
3.42 124.753 67.920
3.43 121.581 67.713
3.44 118.265 67.345
3.45 116.177 66.332
3.46 114.882 65.305
3.47 114.185 64.804
3.48 113.446 64.463
3.49 113.094 64.299
3.50 112.937 64.193
3.51 113.483 64.116
3.52 113.928 64.289
3.53 114.345 64.975
3.54 114.822 66.086
3.55 122.807 66.855
3.56 127.247 66.177
3.57 127.901 63.861
3.58 129.521 60.949
3.59 128.266 58.087
3.60 125.058 56.219
3.61 134.847 57.542
3.62 164.509 61.904
3.63 187.403 66.266
3.64 183.676 69.140
3.65 169.234 70.669
3.66 166.440 71.252
3.67 167.788 71.503
3.68 169.297 71.836
3.69 171.438 72.110
3.70 172.710 72.349
3.71 173.176 72.653
3.72 173.255 72.829
3.73 171.692 73.004
3.74 168.834 73.181
3.75 168.724 72.906
3.76 168.264 72.281
3.77 164.283 71.454
3.78 158.586 70.286
3.79 153.654 69.118
3.80 146.141 68.126
3.81 134.640 67.227
3.82 124.546 66.586
3.83 116.376 66.302
3.84 110.028 65.852
3.85 101.811 64.723
3.86 97.489 63.779
3.87 97.324 63.397
3.88 97.672 63.117
3.89 99.538 63.305
3.90 102.224 63.743
3.91 104.626 63.956
3.92 107.952 63.953
3.93 111.379 63.639
3.94 112.317 63.171
3.95 111.322 62.869
3.96 113.316 62.684
3.97 115.472 62.740
3.98 121.000 63.111
3.99 124.225 63.893
4.00 122.079 65.286
4.01 118.419 66.338
4.02 117.737 66.452
4.03 120.316 66.619
4.04 123.447 67.686
4.05 126.172 68.672
4.06 128.532 68.969
4.07 133.963 69.278
4.08 137.219 69.760
4.09 139.717 69.825
4.10 144.858 69.557
4.11 146.891 68.926
4.12 148.940 67.944
4.13 154.522 67.254
4.14 157.518 66.995
4.15 162.068 67.631
4.16 169.620 69.359
4.17 169.268 71.065
4.18 169.806 71.984
4.19 169.391 72.175
4.20 169.899 72.106
4.21 165.322 71.793
4.22 158.978 70.850
4.23 161.201 68.848
4.24 162.915 64.995
4.25 161.073 58.828
4.26 163.846 53.934
4.27 160.881 54.184
4.28 --undefined-- 57.914
4.29 116.699 63.254
4.30 115.908 66.788
4.31 119.614 68.038
4.32 131.564 67.792
4.33 133.188 67.480
4.34 132.146 67.081
4.35 127.024 66.639
4.36 123.623 66.020
4.37 120.176 65.279
4.38 118.183 64.990
4.39 116.651 64.678
4.40 115.307 64.740
4.41 115.006 65.348
4.42 115.456 65.638
4.43 117.568 65.731
4.44 122.452 66.273
4.45 125.664 66.805
4.46 129.577 66.885
4.47 136.046 66.906
4.48 143.184 67.349
4.49 149.205 68.386
4.50 149.707 69.360
4.51 149.798 70.039
4.52 151.623 70.720
4.53 153.142 71.399
4.54 150.197 71.686
4.55 148.019 71.576
4.56 145.518 71.495
4.57 144.553 71.438
4.58 144.807 71.192
4.59 145.102 70.759
4.60 145.584 70.426
4.61 146.519 70.456
4.62 146.932 70.643
4.63 146.655 70.644
4.64 146.309 70.391
4.65 146.310 70.070
4.66 146.353 69.899
4.67 145.475 69.744
4.68 143.654 69.141
4.69 139.620 67.848
4.70 111.842 66.022
4.71 111.928 63.393
4.72 112.301 59.085
4.73 --undefined-- 53.765
4.74 --undefined-- 50.017
4.75 --undefined-- 47.430
4.76 --undefined-- 44.392
4.77 --undefined-- 40.972
4.78 --undefined-- 38.684
4.79 --undefined-- 37.928
4.80 --undefined-- 37.359
4.81 --undefined-- 36.311
4.82 --undefined-- 35.986
4.83 --undefined-- 35.576
4.84 --undefined-- 37.473
4.85 --undefined-- 41.755
4.86 --undefined-- 43.727
4.87 --undefined-- 43.183
4.88 --undefined-- 41.107
4.89 --undefined-- 37.798
4.90 --undefined-- 34.069
4.91 --undefined-- 32.701
4.92 --undefined-- 32.315
4.93 --undefined-- 31.437
4.94 --undefined-- 31.002
4.95 --undefined-- 31.176
4.96 --undefined-- 31.319
4.97 --undefined-- 29.964
4.98 --undefined-- 27.932
4.99 --undefined-- 27.204
5.00 --undefined-- 28.210
5.01 --undefined-- 32.781
5.02 --undefined-- 47.848
5.03 --undefined-- 58.200
5.04 --undefined-- 63.970
5.05 --undefined-- 66.647
5.06 159.520 67.787
5.07 165.266 68.277
5.08 167.743 67.757
5.09 166.925 65.813
5.10 165.930 63.132
5.11 169.246 61.141
5.12 174.080 59.330
5.13 173.242 56.730
5.14 167.255 52.873
5.15 173.539 49.466
5.16 --undefined-- 54.545
5.17 --undefined-- 62.045
5.18 --undefined-- 66.889
5.19 155.216 69.316
5.20 151.944 70.058
5.21 143.975 69.868
5.22 137.978 69.410
5.23 130.434 68.710
5.24 128.367 67.532
5.25 124.644 66.575
5.26 125.838 66.764
5.27 125.911 67.226
5.28 125.773 67.535
5.29 126.170 67.791
5.30 127.699 67.826
5.31 127.859 67.326
5.32 123.285 65.817
5.33 117.186 62.514
5.34 118.233 57.062
5.35 125.101 50.885
5.36 --undefined-- 48.880
5.37 --undefined-- 50.447
5.38 142.168 54.289
5.39 142.219 58.343
5.40 135.452 61.102
5.41 126.791 62.994
5.42 106.961 63.886
5.43 106.456 63.317
5.44 95.165 61.520
5.45 92.757 59.866
5.46 81.253 59.424
5.47 --undefined-- 59.779
5.48 --undefined-- 60.038
5.49 --undefined-- 59.557
5.50 76.935 58.958
5.51 79.177 58.775
5.52 87.669 59.155
5.53 99.138 59.748
5.54 106.393 60.441
5.55 116.594 61.749
5.56 128.800 63.177
5.57 137.538 64.582
5.58 145.619 66.091
5.59 150.102 67.189
5.60 150.283 67.751
5.61 149.555 68.238
5.62 147.606 68.194
5.63 147.878 67.020
5.64 149.159 --undefined--
5.65 147.969 --undefined--
5.66 --undefined-- --undefined--
5.67 --undefined-- --undefined--
