Time Pitch Intensity
0.01 --undefined-- --undefined--
0.02 --undefined-- --undefined--
0.03 --undefined-- --undefined--
0.04 --undefined-- --undefined--
0.05 --undefined-- 45.265
0.06 --undefined-- 45.221
0.07 --undefined-- 44.851
0.08 --undefined-- 44.100
0.09 --undefined-- 43.331
0.10 --undefined-- 42.327
0.11 --undefined-- 41.692
0.12 --undefined-- 43.585
0.13 --undefined-- 45.936
0.14 --undefined-- 46.871
0.15 --undefined-- 46.754
0.16 --undefined-- 46.228
0.17 --undefined-- 45.622
0.18 --undefined-- 45.242
0.19 --undefined-- 45.168
0.20 --undefined-- 45.574
0.21 --undefined-- 45.949
0.22 --undefined-- 47.404
0.23 --undefined-- 53.113
0.24 --undefined-- 57.057
0.25 --undefined-- 57.852
0.26 --undefined-- 60.112
0.27 --undefined-- 63.569
0.28 112.153 65.081
0.29 112.301 64.701
0.30 111.813 62.572
0.31 115.211 59.449
0.32 122.014 58.545
0.33 122.437 59.640
0.34 127.353 60.418
0.35 130.686 61.067
0.36 136.017 62.007
0.37 137.878 62.845
0.38 140.845 63.295
0.39 142.413 63.391
0.40 142.326 63.295
0.41 141.220 63.318
0.42 141.868 63.882
0.43 143.014 64.677
0.44 143.951 65.487
0.45 143.927 66.172
0.46 143.774 66.300
0.47 143.354 66.062
0.48 143.098 65.812
0.49 142.817 65.615
0.50 142.513 64.968
0.51 141.605 63.006
0.52 134.974 59.450
0.53 132.724 54.977
0.54 --undefined-- 50.764
0.55 --undefined-- 47.369
0.56 --undefined-- 44.249
0.57 --undefined-- 39.781
0.58 --undefined-- 36.932
0.59 --undefined-- 37.772
0.60 --undefined-- 37.303
0.61 --undefined-- 43.610
0.62 --undefined-- 56.743
0.63 --undefined-- 64.020
0.64 --undefined-- 66.585
0.65 --undefined-- 66.821
0.66 127.577 68.535
0.67 122.251 70.390
0.68 120.263 71.120
0.69 116.975 70.943
0.70 115.996 70.113
0.71 115.894 68.820
0.72 115.807 67.117
0.73 115.921 65.448
0.74 116.418 64.878
0.75 115.841 65.159
0.76 115.388 65.319
0.77 115.064 65.467
0.78 115.051 65.811
0.79 115.061 66.175
0.80 114.667 66.567
0.81 114.881 67.182
0.82 114.566 67.597
0.83 114.882 67.522
0.84 115.481 66.927
0.85 115.340 65.383
0.86 114.555 62.101
0.87 --undefined-- 56.707
0.88 --undefined-- 51.029
0.89 --undefined-- 47.296
0.90 --undefined-- 44.124
0.91 --undefined-- 41.670
0.92 --undefined-- 39.650
0.93 --undefined-- 36.832
0.94 --undefined-- 34.558
0.95 --undefined-- 40.740
0.96 --undefined-- 52.554
0.97 --undefined-- 62.304
0.98 --undefined-- 68.504
0.99 --undefined-- 71.254
1.00 116.245 71.451
1.01 116.299 70.475
1.02 115.395 69.224
1.03 115.058 67.970
1.04 115.398 66.876
1.05 115.914 65.957
1.06 116.148 65.295
1.07 115.510 64.949
1.08 115.471 64.489
1.09 115.212 63.123
1.10 --undefined-- 60.065
1.11 --undefined-- 54.780
1.12 --undefined-- 49.366
1.13 --undefined-- 49.750
1.14 --undefined-- 52.855
1.15 --undefined-- 55.015
1.16 --undefined-- 57.499
1.17 --undefined-- 59.946
1.18 --undefined-- 60.568
1.19 --undefined-- 60.477
1.20 --undefined-- 62.001
1.21 115.752 65.180
1.22 115.437 68.087
1.23 119.371 69.428
1.24 123.237 69.196
1.25 125.402 67.271
1.26 --undefined-- 62.954
1.27 --undefined-- 55.791
1.28 --undefined-- 48.413
1.29 --undefined-- 44.511
1.30 --undefined-- 43.915
1.31 --undefined-- 52.509
1.32 --undefined-- 61.028
1.33 --undefined-- 67.039
1.34 --undefined-- 70.634
1.35 119.590 72.067
1.36 115.982 71.547
1.37 109.488 69.443
1.38 106.940 67.260
1.39 106.411 66.348
1.40 107.821 66.040
1.41 109.207 65.744
1.42 108.791 65.342
1.43 108.085 64.793
1.44 107.865 63.730
1.45 --undefined-- 61.406
1.46 --undefined-- 56.671
1.47 --undefined-- 48.665
1.48 --undefined-- 45.983
1.49 --undefined-- 54.331
1.50 --undefined-- 61.746
1.51 --undefined-- 66.552
1.52 --undefined-- 68.743
1.53 --undefined-- 68.822
1.54 95.462 67.665
1.55 92.902 66.030
1.56 90.455 64.368
1.57 91.064 63.557
1.58 92.817 63.822
1.59 94.166 64.230
1.60 93.267 63.750
1.61 91.729 62.177
1.62 94.996 60.555
1.63 97.296 59.853
1.64 94.966 60.971
1.65 --undefined-- 65.361
1.66 103.116 69.199
1.67 106.076 71.338
1.68 108.490 72.481
1.69 110.801 72.980
1.70 112.086 72.847
1.71 112.380 72.437
1.72 112.996 72.017
1.73 113.236 71.545
1.74 112.396 70.692
1.75 110.547 68.986
1.76 109.186 66.431
1.77 108.099 63.001
1.78 105.052 58.290
1.79 --undefined-- 52.216
1.80 --undefined-- 45.200
1.81 --undefined-- 40.309
1.82 --undefined-- 40.140
1.83 --undefined-- 39.515
1.84 --undefined-- 38.184
1.85 --undefined-- 38.294
1.86 --undefined-- 37.897
1.87 --undefined-- 37.208
1.88 --undefined-- 36.395
1.89 --undefined-- 35.048
1.90 --undefined-- 34.713
1.91 --undefined-- 34.962
1.92 --undefined-- 34.395
1.93 --undefined-- 33.417
1.94 --undefined-- 32.921
1.95 --undefined-- 33.314
1.96 --undefined-- 35.451
1.97 --undefined-- 38.140
1.98 --undefined-- 39.636
1.99 --undefined-- 39.575
2.00 --undefined-- 39.146
2.01 --undefined-- 39.852
2.02 --undefined-- 40.776
2.03 --undefined-- 40.497
2.04 --undefined-- 39.717
2.05 --undefined-- 39.483
2.06 --undefined-- 38.701
2.07 --undefined-- 37.675
2.08 --undefined-- 37.568
2.09 --undefined-- 38.006
2.10 --undefined-- 41.015
2.11 --undefined-- 46.275
2.12 --undefined-- 49.214
2.13 --undefined-- 53.484
2.14 --undefined-- 61.485
2.15 --undefined-- 66.989
2.16 --undefined-- 70.158
2.17 --undefined-- 71.588
2.18 --undefined-- 71.519
2.19 --undefined-- 70.514
2.20 --undefined-- 69.296
2.21 --undefined-- 68.822
2.22 --undefined-- 69.064
2.23 --undefined-- 69.003
2.24 --undefined-- 68.622
2.25 --undefined-- 68.439
2.26 --undefined-- 69.135
2.27 --undefined-- 70.052
2.28 --undefined-- 70.601
2.29 --undefined-- 71.599
2.30 --undefined-- 72.296
2.31 --undefined-- 71.202
2.32 --undefined-- 68.037
2.33 --undefined-- 64.564
2.34 122.732 63.125
2.35 123.512 63.586
2.36 122.826 65.072
2.37 122.547 67.132
2.38 123.129 69.507
2.39 124.809 71.500
2.40 127.242 72.871
2.41 130.285 73.785
2.42 132.665 74.179
2.43 133.757 73.712
2.44 133.618 71.527
2.45 --undefined-- 66.649
2.46 --undefined-- 58.329
2.47 --undefined-- 47.354
2.48 --undefined-- 42.625
2.49 --undefined-- 41.218
2.50 --undefined-- 39.949
2.51 --undefined-- 42.527
2.52 --undefined-- 51.498
2.53 --undefined-- 58.433
2.54 --undefined-- 63.844
2.55 --undefined-- 68.052
2.56 --undefined-- 70.442
2.57 117.605 70.828
2.58 114.972 69.682
2.59 113.210 68.514
2.60 112.204 68.358
2.61 111.190 68.843
2.62 110.749 69.461
2.63 111.061 69.832
2.64 111.438 69.953
2.65 111.632 70.045
2.66 111.780 70.052
2.67 112.179 70.024
2.68 112.462 69.979
2.69 111.750 69.820
2.70 111.208 69.720
2.71 110.723 69.751
2.72 111.341 69.653
2.73 111.975 69.423
2.74 113.135 69.195
2.75 112.249 68.296
2.76 --undefined-- 66.177
2.77 273.143 63.688
2.78 274.921 60.704
2.79 --undefined-- 55.103
2.80 --undefined-- 46.347
2.81 --undefined-- 40.447
2.82 --undefined-- 44.760
2.83 --undefined-- 51.218
2.84 --undefined-- 54.987
2.85 --undefined-- 55.751
2.86 --undefined-- 54.523
2.87 --undefined-- 52.478
2.88 --undefined-- 50.827
2.89 --undefined-- 50.649
2.90 --undefined-- 51.848
2.91 --undefined-- 54.137
2.92 --undefined-- 56.044
2.93 --undefined-- 57.408
2.94 --undefined-- 58.390
2.95 --undefined-- 59.322
2.96 --undefined-- 60.614
2.97 --undefined-- 61.590
2.98 --undefined-- 63.760
2.99 --undefined-- 66.689
3.00 128.785 68.989
3.01 127.492 70.431
3.02 123.955 71.051
3.03 124.051 71.155
3.04 123.523 70.670
3.05 123.055 70.329
3.06 122.813 70.820
3.07 121.950 71.167
3.08 121.128 70.861
3.09 120.368 70.137
3.10 119.901 69.343
3.11 119.861 68.434
3.12 120.138 66.789
3.13 120.051 63.533
3.14 --undefined-- 57.928
3.15 --undefined-- 50.205
3.16 --undefined-- 44.859
3.17 --undefined-- 42.454
3.18 --undefined-- 44.903
3.19 --undefined-- 52.749
3.20 --undefined-- 57.583
3.21 --undefined-- 60.749
3.22 --undefined-- 64.476
3.23 --undefined-- 67.482
3.24 --undefined-- 68.786
3.25 --undefined-- 69.139
3.26 --undefined-- 68.764
3.27 --undefined-- 66.672
3.28 --undefined-- 64.125
3.29 --undefined-- 64.702
3.30 127.910 66.693
3.31 126.890 67.581
3.32 124.200 67.324
3.33 122.011 67.315
3.34 121.436 67.552
3.35 120.927 67.318
3.36 120.847 66.735
3.37 120.526 66.194
3.38 120.344 65.916
3.39 120.516 65.964
3.40 120.614 65.863
3.41 117.155 64.522
3.42 --undefined-- 61.240
3.43 --undefined-- 56.244
3.44 --undefined-- 51.341
3.45 --undefined-- 51.917
3.46 --undefined-- 56.838
3.47 --undefined-- 58.921
3.48 --undefined-- 58.075
3.49 --undefined-- 56.788
3.50 --undefined-- 58.526
3.51 --undefined-- 62.555
3.52 --undefined-- 65.285
3.53 --undefined-- 65.769
3.54 --undefined-- 63.865
3.55 --undefined-- 59.187
3.56 --undefined-- 51.336
3.57 --undefined-- 44.304
3.58 --undefined-- 47.109
3.59 --undefined-- 52.811
3.60 --undefined-- 58.862
3.61 --undefined-- 62.606
3.62 96.436 63.871
3.63 97.315 63.315
3.64 99.726 62.014
3.65 99.649 61.041
3.66 99.372 60.446
3.67 98.833 59.508
3.68 96.951 57.309
3.69 --undefined-- 52.978
3.70 --undefined-- 46.402
3.71 --undefined-- 40.994
3.72 --undefined-- 39.363
3.73 --undefined-- 37.530
3.74 --undefined-- 40.620
3.75 --undefined-- 45.737
3.76 --undefined-- 48.696
3.77 --undefined-- 51.579
3.78 --undefined-- 54.109
3.79 --undefined-- 55.180
3.80 --undefined-- 55.813
3.81 --undefined-- 57.552
3.82 --undefined-- 60.812
3.83 107.576 63.354
3.84 101.879 64.027
3.85 100.866 63.270
3.86 99.005 61.600
3.87 98.386 58.896
3.88 --undefined-- 54.798
3.89 --undefined-- 49.608
3.90 --undefined-- 50.071
3.91 --undefined-- 54.983
3.92 --undefined-- 58.169
3.93 --undefined-- 60.896
3.94 --undefined-- 65.198
3.95 97.422 68.297
3.96 93.427 69.137
3.97 92.258 68.537
3.98 93.704 67.907
3.99 94.417 67.573
4.00 97.553 67.130
4.01 98.119 66.912
4.02 101.918 67.489
4.03 103.866 68.275
4.04 105.152 68.555
4.05 106.537 68.471
4.06 108.614 68.030
4.07 109.835 67.526
4.08 111.235 67.280
4.09 114.147 67.395
4.10 116.276 67.478
4.11 118.974 67.018
4.12 120.409 65.333
4.13 117.339 61.769
4.14 116.954 57.986
4.15 117.879 59.045
4.16 119.305 61.352
4.17 118.906 62.643
4.18 116.867 62.779
4.19 113.639 61.938
4.20 107.201 61.833
4.21 105.745 64.913
4.22 106.871 67.914
4.23 100.920 69.077
4.24 96.629 68.555
4.25 93.635 67.234
4.26 92.087 66.393
4.27 91.551 66.308
4.28 91.769 66.726
4.29 92.116 67.382
4.30 92.249 67.743
4.31 92.273 67.504
4.32 92.369 66.537
4.33 91.453 64.919
4.34 91.581 63.074
4.35 92.116 60.994
4.36 92.282 59.124
4.37 97.091 58.356
4.38 95.996 57.314
4.39 --undefined-- 54.426
4.40 --undefined-- 49.144
4.41 --undefined-- 42.002
4.42 --undefined-- 37.840
4.43 --undefined-- 35.940
4.44 --undefined-- 38.007
4.45 --undefined-- 48.122
4.46 --undefined-- 54.918
4.47 --undefined-- 58.815
4.48 100.154 62.186
4.49 98.668 64.873
4.50 97.077 66.012
4.51 94.985 65.766
4.52 93.714 64.441
4.53 92.193 62.389
4.54 91.379 60.204
4.55 89.636 57.827
4.56 88.372 54.933
4.57 89.330 53.520
4.58 92.000 54.347
4.59 97.093 56.293
4.60 100.841 59.761
4.61 99.789 62.923
4.62 99.475 64.863
4.63 98.232 65.744
4.64 96.387 65.915
4.65 95.832 65.650
4.66 95.985 65.273
4.67 97.711 64.823
4.68 99.569 64.202
4.69 100.137 63.622
4.70 100.684 62.907
4.71 101.469 61.538
4.72 100.587 59.298
4.73 97.755 56.700
4.74 95.260 54.683
4.75 92.539 53.533
4.76 90.074 53.308
4.77 89.524 54.072
4.78 91.252 55.680
4.79 92.198 57.519
4.80 94.296 58.885
4.81 94.548 59.567
4.82 95.275 59.480
4.83 94.465 58.638
4.84 93.186 57.492
4.85 92.312 56.330
4.86 90.065 54.984
4.87 --undefined-- 53.571
4.88 --undefined-- 51.971
4.89 --undefined-- 50.350
4.90 --undefined-- 50.521
4.91 --undefined-- 51.735
4.92 --undefined-- 53.480
4.93 99.213 55.349
4.94 100.419 56.813
4.95 102.843 57.790
4.96 103.061 57.868
4.97 103.244 56.706
4.98 101.589 54.032
4.99 --undefined-- 49.802
5.00 --undefined-- 45.137
5.01 --undefined-- 41.620
5.02 --undefined-- 39.215
5.03 --undefined-- 42.449
5.04 --undefined-- 46.323
5.05 --undefined-- 48.939
5.06 --undefined-- 52.592
5.07 --undefined-- 55.568
5.08 --undefined-- 57.900
5.09 --undefined-- 60.118
5.10 --undefined-- 61.266
5.11 --undefined-- 61.482
5.12 --undefined-- 62.875
5.13 114.904 64.448
5.14 113.562 64.607
5.15 113.397 63.606
5.16 111.506 61.965
5.17 109.274 59.473
5.18 109.136 55.787
5.19 --undefined-- 50.748
5.20 --undefined-- 44.383
5.21 --undefined-- 40.717
5.22 --undefined-- 44.958
5.23 --undefined-- 54.307
5.24 --undefined-- 62.505
5.25 --undefined-- 66.603
5.26 --undefined-- 67.066
5.27 --undefined-- 66.307
5.28 --undefined-- 67.612
5.29 116.957 68.504
5.30 113.957 68.194
5.31 111.393 67.554
5.32 108.996 66.309
5.33 106.387 63.600
5.34 106.674 59.519
5.35 110.173 56.803
5.36 109.592 56.411
5.37 107.794 55.709
5.38 108.227 54.696
5.39 107.458 53.497
5.40 108.290 52.909
5.41 109.298 53.767
5.42 109.025 55.105
5.43 108.410 58.057
5.44 108.979 62.681
5.45 108.226 65.950
5.46 107.142 67.219
5.47 106.360 67.393
5.48 105.985 67.520
5.49 104.942 67.500
5.50 103.890 67.050
5.51 --undefined-- 65.937
5.52 --undefined-- 63.216
5.53 --undefined-- 58.430
5.54 --undefined-- 52.088
5.55 --undefined-- 45.249
5.56 --undefined-- 39.619
5.57 --undefined-- 35.772
5.58 --undefined-- 35.680
5.59 --undefined-- 36.335
5.60 --undefined-- 36.495
5.61 --undefined-- 37.567
5.62 --undefined-- 39.159
5.63 --undefined-- 40.333
5.64 --undefined-- 41.383
5.65 --undefined-- 42.315
5.66 --undefined-- 43.049
5.67 --undefined-- 44.309
5.68 --undefined-- 45.860
5.69 --undefined-- 47.104
5.70 --undefined-- 48.189
5.71 --undefined-- 48.314
5.72 --undefined-- 47.073
5.73 --undefined-- 45.971
5.74 --undefined-- --undefined--
5.75 --undefined-- --undefined--
5.76 --undefined-- --undefined--
5.77 --undefined-- --undefined--
