Time Pitch Intensity
0.01 --undefined-- --undefined--
0.02 173.764 --undefined--
0.03 175.812 --undefined--
0.04 178.424 --undefined--
0.05 180.593 76.757
0.06 183.053 77.234
0.07 187.052 77.452
0.08 191.015 77.198
0.09 190.790 76.361
0.10 186.481 75.209
0.11 180.238 74.901
0.12 184.395 75.506
0.13 178.735 76.004
0.14 177.545 76.190
0.15 174.449 75.822
0.16 170.392 75.421
0.17 169.657 75.457
0.18 168.929 75.598
0.19 168.532 75.636
0.20 168.202 75.424
0.21 167.467 75.041
0.22 166.492 74.517
0.23 162.989 73.393
0.24 162.288 71.319
0.25 144.209 68.817
0.26 145.215 67.253
0.27 146.258 66.846
0.28 144.953 66.510
0.29 143.530 66.188
0.30 140.553 66.894
0.31 150.406 68.801
0.32 157.254 71.173
0.33 166.964 73.202
0.34 174.760 74.604
0.35 177.555 75.356
0.36 177.513 75.468
0.37 174.998 74.902
0.38 172.128 73.615
0.39 166.940 71.502
0.40 160.284 68.353
0.41 151.227 64.041
0.42 148.544 59.210
0.43 148.120 56.518
0.44 152.323 55.880
0.45 156.779 54.479
0.46 155.950 52.385
0.47 --undefined-- 49.603
0.48 --undefined-- 48.560
0.49 --undefined-- 51.918
0.50 --undefined-- 56.141
0.51 --undefined-- 58.997
0.52 --undefined-- 60.344
0.53 --undefined-- 61.922
0.54 --undefined-- 63.718
0.55 --undefined-- 65.793
0.56 --undefined-- 69.841
0.57 --undefined-- 72.908
0.58 120.904 73.459
0.59 108.783 72.545
0.60 107.808 72.163
0.61 108.660 72.893
0.62 113.720 74.080
0.63 120.186 75.022
0.64 124.313 75.331
0.65 127.892 75.151
0.66 133.938 74.866
0.67 138.254 74.502
0.68 138.641 73.122
0.69 133.136 69.752
0.70 144.337 64.655
0.71 147.210 60.057
0.72 147.597 56.727
0.73 153.585 53.625
0.74 --undefined-- 51.315
0.75 --undefined-- 53.353
0.76 --undefined-- 55.405
0.77 --undefined-- 54.987
0.78 --undefined-- 54.245
0.79 --undefined-- 55.247
0.80 --undefined-- 56.112
0.81 --undefined-- 56.374
0.82 --undefined-- 56.916
0.83 --undefined-- 57.732
0.84 --undefined-- 58.528
0.85 --undefined-- 58.926
0.86 --undefined-- 59.180
0.87 --undefined-- 59.237
0.88 --undefined-- 58.986
0.89 --undefined-- 59.136
0.90 --undefined-- 60.014
0.91 --undefined-- 60.778
0.92 --undefined-- 61.252
0.93 92.802 62.212
0.94 92.950 63.810
0.95 92.158 65.299
0.96 96.289 67.036
0.97 98.791 69.090
0.98 101.362 70.979
0.99 104.496 72.642
1.00 107.886 74.118
1.01 110.723 75.430
1.02 114.372 76.444
1.03 118.399 76.921
1.04 124.725 77.078
1.05 130.336 77.306
1.06 135.225 77.429
1.07 138.950 77.007
1.08 141.227 75.438
1.09 141.146 71.965
1.10 144.608 66.484
1.11 145.294 61.502
1.12 139.817 61.582
1.13 --undefined-- 69.041
1.14 --undefined-- 74.208
1.15 --undefined-- 76.163
1.16 --undefined-- 75.838
1.17 117.159 74.443
1.18 111.611 72.980
1.19 102.108 71.770
1.20 97.478 70.884
1.21 93.738 70.471
1.22 90.902 70.395
1.23 88.693 70.136
1.24 87.633 69.430
1.25 88.167 68.765
1.26 89.410 68.530
1.27 91.076 68.311
1.28 92.686 67.780
1.29 93.601 66.669
1.30 93.077 64.512
1.31 92.064 61.321
1.32 91.293 58.179
1.33 90.711 55.802
1.34 98.527 53.335
1.35 --undefined-- 53.661
1.36 --undefined-- 60.988
1.37 --undefined-- 67.112
1.38 104.503 70.482
1.39 103.325 71.741
1.40 100.284 71.756
1.41 99.515 71.305
1.42 98.637 70.919
1.43 98.686 70.933
1.44 98.431 71.254
1.45 97.940 71.469
1.46 97.199 71.444
1.47 96.997 71.446
1.48 96.912 71.662
1.49 96.679 71.903
1.50 96.255 71.860
1.51 96.111 71.429
1.52 96.363 71.127
1.53 96.330 71.233
1.54 96.706 71.457
1.55 96.697 71.566
1.56 96.028 71.275
1.57 95.914 69.897
1.58 89.427 66.702
1.59 93.909 61.836
1.60 92.910 56.871
1.61 --undefined-- 52.963
1.62 --undefined-- 50.447
1.63 --undefined-- 52.429
1.64 --undefined-- 58.749
1.65 --undefined-- 66.731
1.66 --undefined-- 71.905
1.67 124.664 74.009
1.68 122.513 74.155
1.69 118.460 73.396
1.70 111.968 72.591
1.71 108.955 72.441
1.72 106.890 72.471
1.73 105.295 72.347
1.74 104.422 72.401
1.75 103.278 72.590
1.76 102.856 72.408
1.77 101.745 72.028
1.78 101.689 71.996
1.79 100.745 72.169
1.80 98.928 72.336
1.81 98.964 72.611
1.82 99.028 72.883
1.83 99.377 72.955
1.84 99.129 72.605
1.85 97.995 71.936
1.86 101.538 71.802
1.87 103.609 72.147
1.88 106.448 72.390
1.89 110.045 73.072
1.90 115.626 74.341
1.91 117.883 74.890
1.92 118.947 74.603
1.93 119.697 74.213
1.94 119.068 73.349
1.95 116.282 71.224
1.96 110.334 67.677
1.97 106.899 63.507
1.98 109.552 61.804
1.99 113.502 65.836
2.00 111.528 70.440
2.01 109.854 73.026
2.02 106.605 73.818
2.03 103.330 73.678
2.04 101.599 73.204
2.05 100.249 72.480
2.06 99.157 70.758
2.07 93.802 67.450
2.08 95.470 63.832
2.09 98.502 61.206
2.10 103.660 58.164
2.11 103.925 54.264
2.12 --undefined-- 55.439
2.13 --undefined-- 62.879
2.14 --undefined-- 68.556
2.15 128.462 72.181
2.16 122.930 73.687
2.17 109.245 73.578
2.18 101.159 73.032
2.19 93.990 72.702
2.20 92.722 71.900
2.21 92.217 69.939
2.22 94.806 66.912
2.23 92.449 63.047
2.24 94.138 58.269
2.25 98.028 53.866
2.26 --undefined-- 49.705
2.27 --undefined-- 45.692
2.28 --undefined-- 44.310
2.29 --undefined-- 44.427
2.30 --undefined-- 44.450
2.31 --undefined-- 47.133
2.32 --undefined-- 53.173
2.33 --undefined-- 57.707
2.34 --undefined-- 63.219
2.35 --undefined-- 69.531
2.36 --undefined-- 73.067
2.37 119.698 73.976
2.38 114.454 73.504
2.39 107.050 72.929
2.40 106.314 72.629
2.41 105.860 72.588
2.42 105.086 72.635
2.43 104.393 72.212
2.44 100.449 70.711
2.45 95.945 67.855
2.46 90.769 64.250
2.47 94.111 61.928
2.48 95.909 63.595
2.49 100.900 68.406
2.50 104.097 71.819
2.51 104.072 73.186
2.52 104.206 73.469
2.53 104.869 73.589
2.54 105.114 73.628
2.55 105.148 73.949
2.56 105.469 74.337
2.57 104.607 74.181
2.58 103.412 73.519
2.59 101.923 72.631
2.60 98.757 71.681
2.61 96.973 70.915
2.62 95.879 71.017
2.63 99.989 72.428
2.64 102.427 73.714
2.65 97.936 73.752
2.66 95.294 73.074
2.67 92.635 72.423
2.68 90.995 71.763
2.69 87.586 70.745
2.70 84.235 69.518
2.71 83.236 68.722
2.72 83.236 68.230
2.73 86.085 67.874
2.74 86.198 67.416
2.75 85.967 66.217
2.76 83.504 64.164
2.77 87.691 62.763
2.78 88.885 63.003
2.79 88.692 63.963
2.80 91.870 65.346
2.81 94.362 66.673
2.82 92.961 67.555
2.83 90.789 67.947
2.84 88.729 68.030
2.85 86.860 68.144
2.86 89.206 68.696
2.87 --undefined-- 69.385
2.88 --undefined-- 69.377
2.89 --undefined-- 68.438
2.90 --undefined-- 66.697
2.91 81.428 65.174
2.92 90.212 64.764
2.93 91.546 65.131
2.94 95.846 66.597
2.95 99.649 67.985
2.96 102.466 68.601
2.97 104.883 69.152
2.98 107.551 70.167
2.99 109.833 71.174
3.00 111.410 72.006
3.01 113.421 72.736
3.02 114.730 73.242
3.03 117.247 73.593
3.04 119.218 73.870
3.05 119.228 73.785
3.06 117.400 72.926
3.07 119.073 71.589
3.08 123.217 71.258
3.09 127.492 72.712
3.10 128.941 74.213
3.11 126.835 74.896
3.12 123.651 74.750
3.13 120.414 73.262
3.14 111.535 70.531
3.15 110.404 68.910
3.16 106.822 69.110
3.17 105.249 69.928
3.18 106.473 71.326
3.19 99.634 72.531
3.20 99.031 72.801
3.21 99.147 72.664
3.22 100.496 72.828
3.23 102.789 73.275
3.24 105.844 73.556
3.25 109.126 73.026
3.26 108.815 70.991
3.27 103.681 67.256
3.28 106.454 63.350
3.29 --undefined-- 62.648
3.30 --undefined-- 64.498
3.31 --undefined-- 67.851
3.32 125.484 71.719
3.33 113.145 73.891
3.34 109.901 74.324
3.35 108.627 73.802
3.36 107.525 72.763
3.37 105.618 71.417
3.38 104.628 69.524
3.39 103.275 66.580
3.40 104.165 62.811
3.41 106.254 59.088
3.42 105.497 55.707
3.43 105.035 53.242
3.44 --undefined-- 58.795
3.45 --undefined-- 67.642
3.46 --undefined-- 72.515
3.47 133.845 74.088
3.48 131.282 73.768
3.49 128.996 73.200
3.50 128.332 73.122
3.51 127.171 73.257
3.52 125.972 73.030
3.53 121.003 72.207
3.54 122.743 71.475
3.55 122.898 71.277
3.56 121.330 71.358
3.57 118.721 71.560
3.58 117.739 71.915
3.59 113.829 72.486
3.60 109.044 72.895
3.61 106.431 72.898
3.62 103.256 72.622
3.63 101.258 72.074
3.64 100.000 71.119
3.65 97.753 69.834
3.66 98.514 68.971
3.67 98.863 68.397
3.68 96.586 67.048
3.69 95.110 64.736
3.70 94.137 61.669
3.71 93.868 58.278
3.72 --undefined-- 57.939
3.73 --undefined-- 61.124
3.74 --undefined-- 63.733
3.75 --undefined-- 64.579
3.76 --undefined-- 64.565
3.77 --undefined-- 65.859
3.78 93.820 68.312
3.79 99.791 70.994
3.80 106.274 73.372
3.81 114.699 74.957
3.82 120.539 75.664
3.83 125.434 75.603
3.84 127.667 74.548
3.85 124.107 71.690
3.86 120.797 66.517
3.87 122.197 63.778
3.88 133.650 69.219
3.89 123.007 73.394
3.90 118.147 74.737
3.91 113.224 74.100
3.92 105.262 73.003
3.93 103.145 72.194
3.94 100.339 70.949
3.95 97.789 68.576
3.96 96.890 65.328
3.97 97.841 63.524
3.98 101.026 64.825
3.99 104.328 67.686
4.00 107.087 70.415
4.01 106.667 71.968
4.02 104.856 72.517
4.03 103.487 72.507
4.04 102.192 72.020
4.05 102.266 71.553
4.06 103.117 71.372
4.07 102.177 70.747
4.08 100.885 69.561
4.09 100.996 69.099
4.10 100.213 69.710
4.11 97.569 69.843
4.12 95.193 69.519
4.13 94.023 69.086
4.14 92.522 68.361
4.15 91.235 67.324
4.16 90.047 65.783
4.17 84.359 63.451
4.18 88.292 61.909
4.19 90.625 62.456
4.20 89.816 63.350
4.21 87.748 63.668
4.22 86.124 63.585
4.23 86.527 63.814
4.24 87.124 64.307
4.25 78.655 64.739
4.26 78.538 64.875
4.27 --undefined-- 64.118
4.28 --undefined-- 62.468
4.29 --undefined-- 61.745
4.30 --undefined-- 62.295
4.31 83.907 63.239
4.32 91.977 63.746
4.33 97.574 63.776
4.34 103.526 64.294
4.35 109.438 65.681
4.36 116.789 67.452
4.37 121.717 69.160
4.38 126.885 70.630
4.39 134.712 72.274
4.40 140.856 73.816
4.41 145.769 74.906
4.42 152.789 75.535
4.43 156.566 75.827
4.44 161.230 75.825
4.45 161.613 75.395
4.46 159.784 74.283
4.47 156.692 72.160
4.48 155.670 68.390
4.49 155.994 62.220
4.50 153.490 55.500
4.51 156.876 53.793
4.52 159.960 53.106
4.53 162.967 52.959
4.54 --undefined-- 52.771
4.55 --undefined-- 52.474
4.56 --undefined-- 52.679
4.57 --undefined-- 52.678
4.58 --undefined-- 52.523
4.59 --undefined-- 52.959
4.60 --undefined-- 53.698
4.61 --undefined-- 54.105
4.62 --undefined-- 54.178
4.63 --undefined-- 54.153
4.64 --undefined-- 54.787
4.65 --undefined-- 55.777
4.66 --undefined-- 56.404
4.67 --undefined-- 56.352
4.68 --undefined-- 55.435
4.69 --undefined-- 54.550
4.70 --undefined-- 54.021
4.71 --undefined-- 53.493
4.72 --undefined-- 52.770
4.73 --undefined-- 51.949
4.74 --undefined-- 50.838
4.75 --undefined-- 49.221
4.76 --undefined-- 47.214
4.77 --undefined-- 44.359
4.78 --undefined-- 41.356
4.79 --undefined-- 45.097
4.80 --undefined-- 50.812
4.81 --undefined-- 54.224
4.82 --undefined-- 56.808
4.83 --undefined-- 60.692
4.84 --undefined-- 66.027
4.85 --undefined-- 70.229
4.86 120.715 72.384
4.87 123.675 73.731
4.88 126.327 74.906
4.89 130.245 75.517
4.90 140.298 75.764
4.91 --undefined-- 76.310
4.92 --undefined-- 76.641
4.93 --undefined-- 76.307
4.94 225.960 76.715
4.95 236.588 77.643
4.96 242.189 78.192
4.97 247.729 78.235
4.98 248.184 77.189
4.99 247.506 --undefined--
5.00 253.660 --undefined--
5.01 --undefined-- --undefined--
5.02 --undefined-- --undefined--
