Time Pitch Intensity
0.01 --undefined-- --undefined--
0.02 171.136 --undefined--
0.03 165.541 --undefined--
0.04 162.228 --undefined--
0.05 160.079 69.075
0.06 158.046 67.254
0.07 152.608 64.291
0.08 149.642 60.210
0.09 155.566 55.545
0.10 --undefined-- 49.663
0.11 --undefined-- 42.283
0.12 --undefined-- 39.764
0.13 --undefined-- 45.749
0.14 --undefined-- 51.865
0.15 --undefined-- 59.092
0.16 194.004 64.755
0.17 177.131 67.400
0.18 169.767 67.912
0.19 165.572 67.699
0.20 162.693 67.606
0.21 161.510 67.757
0.22 160.834 67.973
0.23 160.087 68.071
0.24 159.403 68.115
0.25 158.530 68.204
0.26 157.549 68.213
0.27 157.455 68.182
0.28 158.064 68.011
0.29 157.974 67.048
0.30 155.329 64.343
0.31 151.299 59.137
0.32 --undefined-- 50.736
0.33 --undefined-- 40.988
0.34 --undefined-- 39.356
0.35 --undefined-- 41.051
0.36 --undefined-- 49.775
0.37 --undefined-- 59.766
0.38 181.758 65.385
0.39 177.860 67.485
0.40 168.480 67.884
0.41 162.408 68.204
0.42 151.448 68.429
0.43 139.691 68.318
0.44 129.922 67.540
0.45 133.000 65.958
0.46 129.937 64.260
0.47 124.176 63.590
0.48 121.633 64.048
0.49 130.019 64.591
0.50 131.613 64.915
0.51 134.879 65.044
0.52 136.861 65.381
0.53 131.020 66.184
0.54 134.043 66.800
0.55 134.074 67.077
0.56 131.408 67.463
0.57 127.874 67.984
0.58 124.728 68.362
0.59 121.884 68.454
0.60 120.868 68.339
0.61 121.440 68.187
0.62 122.499 68.163
0.63 124.201 68.164
0.64 125.888 68.049
0.65 127.267 67.747
0.66 128.706 67.118
0.67 129.794 65.989
0.68 131.335 64.477
0.69 139.688 63.770
0.70 146.603 65.083
0.71 144.334 66.420
0.72 142.615 66.767
0.73 139.788 66.632
0.74 135.995 66.163
0.75 132.238 65.210
0.76 130.406 64.287
0.77 129.832 63.902
0.78 130.910 64.024
0.79 130.695 64.381
0.80 128.309 64.764
0.81 122.346 65.291
0.82 119.175 65.878
0.83 116.161 65.980
0.84 111.353 65.320
0.85 104.825 64.157
0.86 100.884 62.835
0.87 96.182 61.170
0.88 83.699 59.163
0.89 --undefined-- 57.407
0.90 --undefined-- 55.721
0.91 --undefined-- 53.430
0.92 --undefined-- 50.916
0.93 --undefined-- 47.052
0.94 --undefined-- 40.722
0.95 --undefined-- 36.036
0.96 --undefined-- 33.925
0.97 --undefined-- 32.009
0.98 --undefined-- 31.621
0.99 --undefined-- 32.956
1.00 --undefined-- 35.373
1.01 --undefined-- 35.611
1.02 --undefined-- 33.336
1.03 --undefined-- 30.530
1.04 --undefined-- 31.384
1.05 --undefined-- 34.034
1.06 --undefined-- 36.113
1.07 --undefined-- 36.691
1.08 --undefined-- 36.096
1.09 --undefined-- 35.337
1.10 --undefined-- 34.793
1.11 --undefined-- 35.108
1.12 --undefined-- 36.543
1.13 --undefined-- 37.710
1.14 --undefined-- 38.019
1.15 --undefined-- 37.451
1.16 --undefined-- 36.091
1.17 --undefined-- 35.868
1.18 --undefined-- 34.696
1.19 --undefined-- 30.945
1.20 --undefined-- 29.769
1.21 --undefined-- 32.337
1.22 --undefined-- 32.546
1.23 --undefined-- 31.678
1.24 --undefined-- 34.188
1.25 --undefined-- 36.263
1.26 --undefined-- 36.123
1.27 --undefined-- 34.239
1.28 --undefined-- 32.662
1.29 --undefined-- 32.919
1.30 --undefined-- 33.415
1.31 --undefined-- 35.738
1.32 --undefined-- 37.734
1.33 --undefined-- 38.859
1.34 --undefined-- 40.024
1.35 --undefined-- 40.064
1.36 --undefined-- 39.692
1.37 --undefined-- 39.675
1.38 --undefined-- 38.870
1.39 --undefined-- 38.764
1.40 --undefined-- 38.909
1.41 --undefined-- 38.483
1.42 --undefined-- 39.424
1.43 --undefined-- 40.776
1.44 --undefined-- 40.888
1.45 --undefined-- 39.297
1.46 --undefined-- 37.377
1.47 --undefined-- 37.219
1.48 --undefined-- 37.194
1.49 --undefined-- 35.348
1.50 --undefined-- 32.309
1.51 --undefined-- 30.751
1.52 --undefined-- 31.712
1.53 --undefined-- 34.183
1.54 --undefined-- 34.564
1.55 --undefined-- 32.860
1.56 --undefined-- 38.206
1.57 --undefined-- 45.946
1.58 --undefined-- 49.795
1.59 --undefined-- 51.410
1.60 --undefined-- 58.122
1.61 212.764 65.512
1.62 196.387 69.577
1.63 180.418 71.204
1.64 176.337 71.609
1.65 176.116 71.186
1.66 175.258 69.405
1.67 169.201 65.874
1.68 170.136 60.963
1.69 172.084 55.081
1.70 --undefined-- 47.857
1.71 --undefined-- 51.547
1.72 --undefined-- 61.091
1.73 179.898 66.826
1.74 166.812 69.440
1.75 164.918 70.155
1.76 162.823 70.209
1.77 162.527 70.235
1.78 163.565 70.285
1.79 166.062 70.407
1.80 169.416 70.597
1.81 174.924 70.815
1.82 182.736 71.068
1.83 190.780 71.209
1.84 197.308 70.913
1.85 200.961 69.776
1.86 198.560 67.342
1.87 198.986 63.120
1.88 --undefined-- 56.610
1.89 --undefined-- 47.904
1.90 --undefined-- 42.739
1.91 --undefined-- 42.255
1.92 --undefined-- 41.117
1.93 --undefined-- 40.451
1.94 --undefined-- 40.421
1.95 --undefined-- 41.238
1.96 --undefined-- 48.133
1.97 --undefined-- 58.206
1.98 193.353 64.839
1.99 179.970 68.417
2.00 175.562 70.066
2.01 171.896 70.682
2.02 169.670 70.728
2.03 166.808 70.505
2.04 165.030 70.226
2.05 164.023 69.890
2.06 163.016 69.395
2.07 162.138 68.925
2.08 161.170 68.672
2.09 160.137 68.514
2.10 159.401 68.364
2.11 158.555 68.243
2.12 158.103 68.125
2.13 157.508 67.969
2.14 157.206 67.703
2.15 157.060 67.081
2.16 156.522 65.931
2.17 156.708 64.438
2.18 --undefined-- 62.728
2.19 --undefined-- 60.309
2.20 --undefined-- 56.150
2.21 --undefined-- 49.031
2.22 --undefined-- 39.346
2.23 --undefined-- 37.804
2.24 --undefined-- 40.897
2.25 --undefined-- 42.041
2.26 --undefined-- 42.180
2.27 --undefined-- 42.179
2.28 --undefined-- 41.029
2.29 --undefined-- 39.554
2.30 --undefined-- 39.126
2.31 --undefined-- 38.882
2.32 --undefined-- 38.205
2.33 --undefined-- 36.743
2.34 --undefined-- 35.476
2.35 --undefined-- 35.687
2.36 --undefined-- 35.050
2.37 --undefined-- 32.735
2.38 --undefined-- 31.800
2.39 --undefined-- 33.505
2.40 --undefined-- 35.325
2.41 --undefined-- 36.196
2.42 --undefined-- 36.359
2.43 --undefined-- 36.001
2.44 --undefined-- 35.866
2.45 --undefined-- 36.922
2.46 --undefined-- 39.196
2.47 --undefined-- 40.085
2.48 --undefined-- 38.233
2.49 --undefined-- 34.801
2.50 --undefined-- 33.236
2.51 --undefined-- 36.057
2.52 --undefined-- 44.151
2.53 --undefined-- 51.938
2.54 --undefined-- 56.254
2.55 --undefined-- 57.535
2.56 --undefined-- 56.694
2.57 --undefined-- 60.111
2.58 289.593 67.361
2.59 282.074 71.667
2.60 279.368 73.624
2.61 277.897 74.439
2.62 276.326 74.967
2.63 275.721 75.645
2.64 274.945 76.418
2.65 274.011 77.051
2.66 272.616 77.400
2.67 271.779 77.375
2.68 271.982 76.865
2.69 273.763 75.981
2.70 276.189 75.099
2.71 278.729 74.368
2.72 280.903 73.779
2.73 283.156 73.468
2.74 282.752 73.711
2.75 280.105 74.515
2.76 277.805 75.396
2.77 273.410 76.060
2.78 267.430 76.561
2.79 259.520 76.857
2.80 249.875 76.701
2.81 239.305 75.726
2.82 226.446 73.773
2.83 212.115 71.525
2.84 200.640 69.892
2.85 187.040 68.689
2.86 176.409 68.056
2.87 168.405 67.873
2.88 160.929 67.721
2.89 154.449 67.456
2.90 150.400 67.051
2.91 149.602 66.349
2.92 149.009 64.609
2.93 143.544 61.139
2.94 138.761 55.788
2.95 --undefined-- 48.484
2.96 --undefined-- 43.317
2.97 --undefined-- 47.498
2.98 --undefined-- 51.504
2.99 --undefined-- 57.506
3.00 170.889 63.332
3.01 167.590 66.853
3.02 167.160 68.678
3.03 165.808 69.444
3.04 157.158 69.236
3.05 150.008 68.406
3.06 149.418 67.860
3.07 150.738 67.795
3.08 150.670 67.764
3.09 150.397 67.533
3.10 150.493 67.020
3.11 150.745 66.301
3.12 150.312 65.678
3.13 152.625 65.181
3.14 152.715 64.404
3.15 153.354 63.655
3.16 156.377 63.855
3.17 160.813 65.020
3.18 169.124 66.918
3.19 171.358 68.929
3.20 171.354 70.216
3.21 171.275 70.780
3.22 171.747 71.100
3.23 172.410 71.375
3.24 172.840 71.553
3.25 172.899 71.641
3.26 172.934 71.641
3.27 173.133 71.593
3.28 173.432 71.529
3.29 173.817 71.412
3.30 173.260 71.087
3.31 171.424 70.770
3.32 172.872 70.930
3.33 173.364 71.215
3.34 174.135 71.369
3.35 174.285 71.387
3.36 174.310 71.300
3.37 174.144 71.179
3.38 173.446 71.045
3.39 172.089 70.859
3.40 170.414 70.641
3.41 170.629 70.514
3.42 168.707 70.516
3.43 166.030 70.477
3.44 163.282 70.261
3.45 160.442 69.974
3.46 158.497 69.666
3.47 155.995 69.313
3.48 153.850 69.006
3.49 152.225 68.781
3.50 150.586 68.515
3.51 149.079 68.184
3.52 148.088 67.831
3.53 143.079 67.709
3.54 143.501 67.960
3.55 146.571 68.085
3.56 146.719 68.078
3.57 147.628 68.142
3.58 148.673 68.283
3.59 149.357 68.417
3.60 149.390 68.465
3.61 149.350 68.383
3.62 149.134 68.121
3.63 147.983 67.580
3.64 144.986 66.652
3.65 139.532 65.056
3.66 134.340 62.400
3.67 128.677 58.205
3.68 --undefined-- 51.941
3.69 --undefined-- 43.728
3.70 --undefined-- 37.043
3.71 --undefined-- 36.439
3.72 --undefined-- 41.755
3.73 --undefined-- 48.744
3.74 --undefined-- 54.312
3.75 --undefined-- 56.791
3.76 --undefined-- 57.249
3.77 --undefined-- 61.986
3.78 202.540 67.332
3.79 196.930 70.253
3.80 183.455 71.603
3.81 178.414 72.187
3.82 175.302 71.511
3.83 172.526 68.578
3.84 171.594 62.917
3.85 --undefined-- 55.003
3.86 --undefined-- 46.347
3.87 --undefined-- 39.828
3.88 --undefined-- 39.763
3.89 --undefined-- 43.759
3.90 --undefined-- 45.756
3.91 --undefined-- 44.579
3.92 --undefined-- 40.645
3.93 --undefined-- 36.578
3.94 --undefined-- 36.323
3.95 --undefined-- 41.145
3.96 --undefined-- 49.126
3.97 --undefined-- 53.969
3.98 --undefined-- 55.989
3.99 --undefined-- 61.031
4.00 202.045 67.479
4.01 192.435 70.913
4.02 185.548 71.944
4.03 185.097 71.760
4.04 188.427 71.342
4.05 192.760 70.940
4.06 193.981 70.013
4.07 189.655 67.747
4.08 185.433 64.448
4.09 185.816 61.197
4.10 186.905 58.294
4.11 212.912 62.209
4.12 207.091 67.811
4.13 194.186 70.274
4.14 185.342 70.583
4.15 177.768 70.302
4.16 173.551 70.019
4.17 169.987 69.170
4.18 166.292 67.044
4.19 160.270 63.236
4.20 162.871 57.632
4.21 --undefined-- 50.021
4.22 --undefined-- 40.678
4.23 --undefined-- 39.204
4.24 --undefined-- 44.648
4.25 --undefined-- 50.784
4.26 --undefined-- 59.001
4.27 199.895 65.044
4.28 194.086 67.882
4.29 190.065 68.722
4.30 189.250 68.991
4.31 188.210 69.155
4.32 187.252 69.107
4.33 185.865 68.894
4.34 184.482 68.722
4.35 183.703 68.673
4.36 183.315 68.643
4.37 182.994 68.563
4.38 183.008 68.514
4.39 183.473 68.543
4.40 183.919 68.600
4.41 184.838 68.640
4.42 185.946 68.685
4.43 186.524 68.745
4.44 187.040 68.738
4.45 188.022 68.628
4.46 188.847 68.271
4.47 188.176 67.219
4.48 184.559 64.726
4.49 176.004 59.920
4.50 --undefined-- 52.086
4.51 --undefined-- 41.999
4.52 --undefined-- 36.809
4.53 --undefined-- 37.330
4.54 --undefined-- 38.145
4.55 --undefined-- 39.669
4.56 --undefined-- 46.191
4.57 --undefined-- 55.274
4.58 --undefined-- 63.276
4.59 233.359 68.102
4.60 232.714 70.423
4.61 232.799 71.150
4.62 233.673 71.268
4.63 234.531 71.248
4.64 235.037 71.213
4.65 235.119 71.235
4.66 234.574 71.300
4.67 234.385 71.378
4.68 234.715 71.505
4.69 235.689 71.684
4.70 236.827 71.890
4.71 237.535 72.045
4.72 237.754 72.038
4.73 236.667 71.516
4.74 233.506 70.006
4.75 228.276 67.409
4.76 231.266 63.404
4.77 --undefined-- 56.913
4.78 --undefined-- 47.445
4.79 --undefined-- 41.103
4.80 --undefined-- 43.086
4.81 --undefined-- 47.119
4.82 --undefined-- 48.623
4.83 --undefined-- 47.993
4.84 --undefined-- 48.551
4.85 --undefined-- 52.549
4.86 185.339 57.133
4.87 183.797 60.626
4.88 184.238 63.073
4.89 182.192 64.728
4.90 175.972 65.464
4.91 161.052 65.371
4.92 145.264 64.922
4.93 137.463 64.670
4.94 136.824 64.577
4.95 136.204 64.453
4.96 135.357 64.510
4.97 136.936 64.846
4.98 138.298 65.275
4.99 139.938 65.726
5.00 141.303 66.230
5.01 142.006 66.682
5.02 142.292 66.958
5.03 141.875 67.150
5.04 141.404 67.287
5.05 141.196 67.357
5.06 140.296 67.431
5.07 139.389 67.532
5.08 138.454 67.604
5.09 139.042 67.502
5.10 139.380 67.294
5.11 138.560 67.103
5.12 136.694 66.828
5.13 132.323 66.360
5.14 126.662 65.131
5.15 --undefined-- 62.289
5.16 --undefined-- 57.327
5.17 --undefined-- 50.241
5.18 --undefined-- 42.589
5.19 --undefined-- 40.602
5.20 --undefined-- 41.266
5.21 --undefined-- 42.983
5.22 --undefined-- 44.733
5.23 --undefined-- 45.268
5.24 --undefined-- 44.897
5.25 --undefined-- 44.997
5.26 --undefined-- 46.371
5.27 --undefined-- 48.418
5.28 --undefined-- 52.640
5.29 --undefined-- 61.109
5.30 207.191 66.945
5.31 199.896 69.801
5.32 197.395 70.643
5.33 194.459 70.732
5.34 191.654 70.770
5.35 189.253 70.803
5.36 186.572 70.670
5.37 184.206 70.308
5.38 184.546 69.928
5.39 185.879 69.751
5.40 185.181 69.621
5.41 185.068 69.337
5.42 185.009 68.926
5.43 184.267 68.380
5.44 182.610 67.628
5.45 179.979 66.701
5.46 178.516 66.111
5.47 179.433 66.414
5.48 178.603 67.139
5.49 178.041 67.781
5.50 177.099 68.350
5.51 174.264 68.922
5.52 169.093 69.605
5.53 165.657 70.462
5.54 163.202 71.432
5.55 161.422 72.402
5.56 159.971 73.057
5.57 158.681 73.168
5.58 158.228 73.004
5.59 158.687 72.892
5.60 159.441 72.813
5.61 160.908 72.703
5.62 163.384 72.509
5.63 165.574 71.966
5.64 167.451 70.831
5.65 170.436 69.539
5.66 174.059 69.013
5.67 177.759 69.486
5.68 182.178 70.302
5.69 184.857 70.946
5.70 187.350 71.421
5.71 191.378 71.736
5.72 195.086 71.821
5.73 198.054 71.559
5.74 199.320 70.645
5.75 199.695 68.840
5.76 203.109 66.939
5.77 219.127 68.039
5.78 227.282 70.671
5.79 228.770 71.888
5.80 226.232 71.702
5.81 223.701 70.773
5.82 220.968 68.812
5.83 213.674 64.793
5.84 219.002 58.115
5.85 --undefined-- 49.201
5.86 --undefined-- 42.875
5.87 --undefined-- 39.884
5.88 --undefined-- 39.305
5.89 --undefined-- 42.591
5.90 --undefined-- 47.200
5.91 --undefined-- 53.209
5.92 --undefined-- 59.974
5.93 205.035 65.815
5.94 199.857 69.028
5.95 193.132 70.221
5.96 187.536 70.502
5.97 183.899 70.653
5.98 181.243 70.810
5.99 179.098 70.969
6.00 177.529 71.121
6.01 176.019 71.179
6.02 174.667 71.101
6.03 173.761 70.904
6.04 173.003 70.740
6.05 172.494 70.735
6.06 172.570 70.861
6.07 173.393 71.092
6.08 173.740 71.299
6.09 173.817 71.331
6.10 174.202 71.133
6.11 174.939 70.656
6.12 175.530 69.669
6.13 174.235 67.696
6.14 170.934 64.496
6.15 172.908 60.922
6.16 173.216 56.760
6.17 --undefined-- 50.628
6.18 --undefined-- 41.366
6.19 --undefined-- 34.749
6.20 --undefined-- 36.464
6.21 --undefined-- 36.693
6.22 --undefined-- 38.066
6.23 --undefined-- 45.111
6.24 --undefined-- 50.569
6.25 --undefined-- --undefined--
6.26 --undefined-- --undefined--
6.27 --undefined-- --undefined--
6.28 --undefined-- --undefined--
