Time Pitch Intensity
0.01 --undefined-- --undefined--
0.02 --undefined-- --undefined--
0.03 --undefined-- --undefined--
0.04 --undefined-- --undefined--
0.05 --undefined-- 53.594
0.06 142.225 58.666
0.07 145.387 62.982
0.08 146.862 66.393
0.09 146.300 68.585
0.10 142.127 69.496
0.11 134.638 68.964
0.12 131.625 67.138
0.13 128.537 64.952
0.14 127.482 63.386
0.15 127.857 61.927
0.16 127.889 60.280
0.17 127.987 59.066
0.18 128.153 58.486
0.19 127.838 57.552
0.20 125.446 55.130
0.21 --undefined-- 50.725
0.22 --undefined-- 44.709
0.23 --undefined-- 39.051
0.24 --undefined-- 34.936
0.25 --undefined-- 31.154
0.26 --undefined-- 30.366
0.27 --undefined-- 33.897
0.28 --undefined-- 44.683
0.29 --undefined-- 56.490
0.30 --undefined-- 65.105
0.31 --undefined-- 70.136
0.32 133.875 72.043
0.33 131.018 71.392
0.34 126.052 69.422
0.35 124.632 68.040
0.36 123.217 67.442
0.37 122.020 66.681
0.38 120.925 65.788
0.39 120.149 64.886
0.40 120.055 64.063
0.41 119.733 63.336
0.42 119.719 62.716
0.43 119.441 62.459
0.44 119.403 62.545
0.45 118.747 62.521
0.46 118.478 62.392
0.47 118.641 62.198
0.48 119.125 61.836
0.49 119.691 61.600
0.50 120.142 61.731
0.51 120.459 61.977
0.52 120.645 61.989
0.53 121.087 61.827
0.54 121.391 61.690
0.55 121.643 61.682
0.56 121.307 61.637
0.57 120.999 61.483
0.58 120.926 61.291
0.59 121.172 61.176
0.60 121.775 61.344
0.61 122.455 61.545
0.62 123.600 61.694
0.63 124.160 61.742
0.64 124.209 61.642
0.65 124.469 61.746
0.66 124.389 62.067
0.67 124.290 62.017
0.68 --undefined-- 60.366
0.69 --undefined-- 55.836
0.70 --undefined-- 47.497
0.71 --undefined-- 36.023
0.72 --undefined-- 29.928
0.73 --undefined-- 27.885
0.74 --undefined-- 29.917
0.75 --undefined-- 34.117
0.76 --undefined-- 37.013
0.77 --undefined-- 38.072
0.78 --undefined-- 37.764
0.79 --undefined-- 36.657
0.80 --undefined-- 34.733
0.81 --undefined-- 32.432
0.82 --undefined-- 31.676
0.83 --undefined-- 31.678
0.84 --undefined-- 31.542
0.85 --undefined-- 32.274
0.86 --undefined-- 35.527
0.87 --undefined-- 40.449
0.88 --undefined-- 44.585
0.89 --undefined-- 47.560
0.90 --undefined-- 49.761
0.91 --undefined-- 51.921
0.92 --undefined-- 53.912
0.93 114.662 55.399
0.94 113.945 56.751
0.95 113.288 58.186
0.96 112.429 59.455
0.97 111.799 60.246
0.98 110.836 60.292
0.99 110.367 59.245
1.00 109.680 57.126
1.01 112.184 55.450
1.02 113.084 55.594
1.03 113.075 56.158
1.04 113.207 56.440
1.05 113.386 56.819
1.06 113.763 57.430
1.07 114.433 57.998
1.08 114.979 58.782
1.09 115.315 59.973
1.10 115.074 61.126
1.11 114.582 62.224
1.12 113.600 63.352
1.13 112.566 64.204
1.14 112.068 65.553
1.15 --undefined-- 68.215
1.16 --undefined-- 70.910
1.17 --undefined-- 72.115
1.18 --undefined-- 71.273
1.19 97.369 68.848
1.20 99.272 66.078
1.21 103.496 65.608
1.22 108.298 67.493
1.23 112.316 69.429
1.24 118.284 71.237
1.25 122.238 72.964
1.26 124.443 74.263
1.27 125.629 74.955
1.28 127.564 75.152
1.29 129.309 74.670
1.30 130.212 72.982
1.31 130.754 69.771
1.32 133.792 66.277
1.33 135.355 65.137
1.34 136.649 65.292
1.35 137.768 65.301
1.36 139.350 64.974
1.37 141.343 64.003
1.38 142.445 62.043
1.39 143.058 59.188
1.40 143.530 55.954
1.41 --undefined-- 52.268
1.42 --undefined-- 47.475
1.43 --undefined-- 44.557
1.44 --undefined-- 44.473
1.45 --undefined-- 44.918
1.46 --undefined-- 45.022
1.47 --undefined-- 44.496
1.48 --undefined-- 44.167
1.49 --undefined-- 44.199
1.50 --undefined-- 43.875
1.51 --undefined-- 43.133
1.52 --undefined-- 42.238
1.53 --undefined-- 41.348
1.54 --undefined-- 40.477
1.55 --undefined-- 39.859
1.56 --undefined-- 39.290
1.57 --undefined-- 39.184
1.58 --undefined-- 40.229
1.59 --undefined-- 40.820
1.60 --undefined-- 39.970
1.61 --undefined-- 38.603
1.62 --undefined-- 37.911
1.63 --undefined-- 37.176
1.64 --undefined-- 35.759
1.65 --undefined-- 34.552
1.66 --undefined-- 34.787
1.67 --undefined-- 35.549
1.68 --undefined-- 36.100
1.69 --undefined-- 35.829
1.70 --undefined-- 36.572
1.71 --undefined-- 47.308
1.72 --undefined-- 56.625
1.73 --undefined-- 62.240
1.74 --undefined-- 65.852
1.75 --undefined-- 69.427
1.76 --undefined-- 73.347
1.77 --undefined-- 76.307
1.78 142.306 78.172
1.79 140.846 79.202
1.80 140.325 79.424
1.81 139.273 79.074
1.82 136.533 78.168
1.83 133.348 76.446
1.84 129.565 73.664
1.85 124.852 69.505
1.86 --undefined-- 64.016
1.87 --undefined-- 58.338
1.88 --undefined-- 54.364
1.89 --undefined-- 52.167
1.90 --undefined-- 52.724
1.91 138.416 57.169
1.92 147.225 62.987
1.93 151.797 67.570
1.94 152.913 70.312
1.95 152.413 71.297
1.96 151.149 70.702
1.97 149.365 69.221
1.98 148.438 68.038
1.99 148.644 66.821
2.00 152.568 64.843
2.01 153.162 62.919
2.02 152.576 61.655
2.03 151.006 60.062
2.04 148.210 57.018
2.05 --undefined-- 51.750
2.06 --undefined-- 44.919
2.07 --undefined-- 40.934
2.08 --undefined-- 45.176
2.09 --undefined-- 54.772
2.10 --undefined-- 61.984
2.11 155.423 66.522
2.12 153.862 68.945
2.13 150.106 69.489
2.14 145.897 68.700
2.15 144.267 67.791
2.16 145.813 67.283
2.17 149.333 66.523
2.18 152.542 65.229
2.19 153.494 63.767
2.20 154.845 62.734
2.21 157.331 62.567
2.22 160.758 63.299
2.23 162.620 63.942
2.24 164.164 63.550
2.25 166.005 62.221
2.26 167.717 60.463
2.27 167.884 57.817
2.28 --undefined-- 54.515
2.29 --undefined-- 58.049
2.30 176.571 64.606
2.31 182.685 68.794
2.32 183.456 70.914
2.33 183.830 71.591
2.34 184.737 71.346
2.35 185.793 70.595
2.36 186.030 69.681
2.37 185.612 68.799
2.38 184.441 67.711
2.39 183.008 65.559
2.40 178.733 61.331
2.41 --undefined-- 54.490
2.42 --undefined-- 46.168
2.43 --undefined-- 40.644
2.44 --undefined-- 39.248
2.45 --undefined-- 38.865
2.46 --undefined-- 38.793
2.47 --undefined-- 45.422
2.48 --undefined-- 52.599
2.49 --undefined-- 56.400
2.50 --undefined-- 57.803
2.51 --undefined-- 59.942
2.52 153.284 62.667
2.53 148.512 64.925
2.54 145.242 67.915
2.55 145.616 70.522
2.56 144.714 72.205
2.57 142.959 73.411
2.58 142.173 74.323
2.59 142.511 74.541
2.60 141.839 73.654
2.61 135.058 71.202
2.62 --undefined-- 66.360
2.63 --undefined-- 58.226
2.64 --undefined-- 48.781
2.65 --undefined-- 47.099
2.66 --undefined-- 48.276
2.67 --undefined-- 50.957
2.68 --undefined-- 52.353
2.69 --undefined-- 51.577
2.70 --undefined-- 50.109
2.71 --undefined-- 49.564
2.72 --undefined-- 49.116
2.73 --undefined-- 48.301
2.74 --undefined-- 47.999
2.75 --undefined-- 48.710
2.76 --undefined-- 54.525
2.77 --undefined-- 60.651
2.78 --undefined-- 63.992
2.79 --undefined-- 65.848
2.80 --undefined-- 66.945
2.81 --undefined-- 66.476
2.82 --undefined-- 65.435
2.83 --undefined-- 65.096
2.84 --undefined-- 64.024
2.85 --undefined-- 62.699
2.86 --undefined-- 62.453
2.87 --undefined-- 61.395
2.88 --undefined-- 59.780
2.89 --undefined-- 59.559
2.90 138.437 61.369
2.91 140.439 64.551
2.92 143.172 68.204
2.93 145.254 71.594
2.94 146.918 74.075
2.95 148.335 75.118
2.96 --undefined-- 74.401
2.97 --undefined-- 71.612
2.98 --undefined-- 66.432
2.99 --undefined-- 59.213
3.00 --undefined-- 53.768
3.01 --undefined-- 53.060
3.02 --undefined-- 55.184
3.03 153.206 59.519
3.04 158.033 64.229
3.05 160.530 67.931
3.06 158.859 69.901
3.07 154.952 69.900
3.08 148.911 68.370
3.09 149.305 65.937
3.10 150.492 62.456
3.11 139.057 57.619
3.12 --undefined-- 51.744
3.13 --undefined-- 51.394
3.14 --undefined-- 59.190
3.15 149.230 65.284
3.16 149.511 68.627
3.17 142.991 69.477
3.18 136.695 68.509
3.19 129.335 66.054
3.20 --undefined-- 61.687
3.21 --undefined-- 56.001
3.22 --undefined-- 53.580
3.23 126.134 56.824
3.24 129.197 60.528
3.25 130.024 62.871
3.26 132.862 63.835
3.27 138.065 63.685
3.28 147.142 63.225
3.29 158.202 63.287
3.30 166.944 63.673
3.31 172.770 64.038
3.32 176.037 63.572
3.33 174.967 60.881
3.34 --undefined-- 55.012
3.35 --undefined-- 50.807
3.36 --undefined-- 60.046
3.37 192.765 66.756
3.38 195.867 70.014
3.39 196.688 70.844
3.40 196.870 70.506
3.41 196.665 69.993
3.42 196.861 69.593
3.43 196.110 68.525
3.44 194.749 65.378
3.45 --undefined-- 59.138
3.46 --undefined-- 50.487
3.47 --undefined-- 45.369
3.48 --undefined-- 44.653
3.49 --undefined-- 51.928
3.50 163.411 59.835
3.51 161.173 64.725
3.52 143.136 67.096
3.53 140.053 67.623
3.54 133.941 66.946
3.55 130.415 66.036
3.56 128.423 65.404
3.57 126.937 64.208
3.58 124.920 61.202
3.59 --undefined-- 55.456
3.60 --undefined-- 47.001
3.61 --undefined-- 43.723
3.62 --undefined-- 52.031
3.63 --undefined-- 58.743
3.64 120.482 62.319
3.65 121.261 63.595
3.66 118.479 63.574
3.67 118.104 63.059
3.68 118.160 62.768
3.69 118.556 62.966
3.70 122.040 63.256
3.71 127.278 63.409
3.72 127.385 63.026
3.73 125.101 61.884
3.74 125.436 59.890
3.75 123.648 56.445
3.76 --undefined-- 51.182
3.77 --undefined-- 48.572
3.78 --undefined-- 55.694
3.79 152.632 63.487
3.80 157.760 69.186
3.81 157.677 72.566
3.82 154.800 74.103
3.83 151.690 74.368
3.84 150.922 73.513
3.85 148.810 71.260
3.86 143.865 67.841
3.87 139.388 64.358
3.88 136.417 61.171
3.89 131.634 57.498
3.90 --undefined-- 53.140
3.91 --undefined-- 49.258
3.92 --undefined-- 49.564
3.93 --undefined-- 52.297
3.94 --undefined-- 56.480
3.95 142.067 63.351
3.96 142.315 69.114
3.97 140.663 72.693
3.98 136.721 74.048
3.99 131.480 73.375
4.00 126.535 70.771
4.01 --undefined-- 65.883
4.02 --undefined-- 57.725
4.03 --undefined-- 46.729
4.04 --undefined-- 42.079
4.05 --undefined-- 41.324
4.06 --undefined-- 40.475
4.07 --undefined-- 39.037
4.08 --undefined-- 37.255
4.09 --undefined-- 37.644
4.10 --undefined-- 47.553
4.11 --undefined-- 56.022
4.12 130.068 61.271
4.13 131.469 64.174
4.14 131.120 65.691
4.15 131.100 66.130
4.16 133.091 65.795
4.17 135.573 65.184
4.18 143.946 65.100
4.19 151.293 66.058
4.20 154.235 67.024
4.21 160.255 67.495
4.22 166.865 67.739
4.23 175.901 67.806
4.24 179.431 67.610
4.25 182.912 67.141
4.26 185.212 66.278
4.27 185.402 64.773
4.28 184.083 62.122
4.29 --undefined-- 57.443
4.30 --undefined-- 50.091
4.31 --undefined-- 40.717
4.32 --undefined-- 35.447
4.33 --undefined-- 33.312
4.34 --undefined-- 31.869
4.35 --undefined-- 31.826
4.36 --undefined-- 34.520
4.37 --undefined-- 36.269
4.38 --undefined-- 36.097
4.39 --undefined-- 34.633
4.40 --undefined-- 35.015
4.41 --undefined-- 37.837
4.42 --undefined-- 43.540
4.43 --undefined-- 51.871
4.44 192.220 57.933
4.45 191.738 61.586
4.46 191.416 63.392
4.47 189.057 64.540
4.48 186.429 66.246
4.49 184.261 68.258
4.50 183.497 69.880
4.51 180.007 71.586
4.52 170.464 73.457
4.53 --undefined-- 74.399
4.54 --undefined-- 74.237
4.55 --undefined-- 72.595
4.56 --undefined-- 68.726
4.57 --undefined-- 64.095
4.58 --undefined-- 63.009
4.59 --undefined-- 62.190
4.60 --undefined-- 58.741
4.61 --undefined-- 52.449
4.62 --undefined-- 45.207
4.63 --undefined-- 39.363
4.64 --undefined-- 34.658
4.65 --undefined-- 34.333
4.66 --undefined-- 36.251
4.67 --undefined-- 38.928
4.68 --undefined-- 41.497
4.69 --undefined-- 43.548
4.70 --undefined-- 44.883
4.71 --undefined-- 46.080
4.72 --undefined-- 46.942
4.73 --undefined-- 46.852
4.74 --undefined-- 47.511
4.75 --undefined-- 51.138
4.76 --undefined-- 54.972
4.77 --undefined-- 56.769
4.78 --undefined-- 56.348
4.79 --undefined-- 54.399
4.80 --undefined-- 56.101
4.81 138.583 62.049
4.82 138.121 66.668
4.83 135.947 69.798
4.84 132.166 71.665
4.85 129.159 72.240
4.86 126.939 71.818
4.87 130.044 72.397
4.88 138.374 73.968
4.89 142.376 74.409
4.90 139.115 73.169
4.91 134.562 70.710
4.92 128.175 67.413
4.93 129.266 62.646
4.94 --undefined-- 56.089
4.95 --undefined-- 49.139
4.96 --undefined-- 45.573
4.97 --undefined-- 43.833
4.98 --undefined-- 41.370
4.99 --undefined-- 38.761
5.00 --undefined-- 39.100
5.01 --undefined-- 40.593
5.02 --undefined-- 43.192
5.03 --undefined-- 47.253
5.04 --undefined-- 50.898
5.05 120.286 53.417
5.06 118.395 57.127
5.07 114.678 64.305
5.08 114.176 69.625
5.09 114.022 72.361
5.10 114.064 73.442
5.11 111.654 73.603
5.12 111.160 73.427
5.13 111.327 73.148
5.14 111.205 72.783
5.15 110.566 72.347
5.16 109.408 71.873
5.17 108.551 71.550
5.18 107.626 71.414
5.19 106.687 71.494
5.20 105.966 71.923
5.21 106.222 72.544
5.22 106.437 73.243
5.23 106.233 73.885
5.24 106.142 74.268
5.25 106.890 74.461
5.26 106.958 74.446
5.27 105.429 73.880
5.28 104.698 72.835
5.29 103.357 71.245
5.30 102.317 68.454
5.31 --undefined-- 63.454
5.32 --undefined-- 56.187
5.33 --undefined-- 48.075
5.34 --undefined-- 41.944
5.35 --undefined-- 37.615
5.36 --undefined-- 38.078
5.37 --undefined-- 41.666
5.38 --undefined-- 43.460
5.39 --undefined-- 43.603
5.40 --undefined-- 42.923
5.41 --undefined-- 41.658
5.42 --undefined-- 38.970
5.43 --undefined-- 35.342
5.44 --undefined-- 34.883
5.45 --undefined-- 35.174
5.46 --undefined-- 34.323
5.47 --undefined-- 33.839
5.48 --undefined-- 36.436
5.49 --undefined-- 41.520
5.50 --undefined-- 50.967
5.51 --undefined-- 61.126
5.52 182.836 67.837
5.53 182.136 71.590
5.54 179.947 73.279
5.55 176.709 73.993
5.56 174.205 74.201
5.57 170.634 73.021
5.58 164.090 69.598
5.59 --undefined-- 63.905
5.60 --undefined-- 57.141
5.61 --undefined-- 53.216
5.62 --undefined-- 56.396
5.63 --undefined-- 61.176
5.64 --undefined-- 63.657
5.65 --undefined-- 64.653
5.66 --undefined-- 65.612
5.67 --undefined-- 64.948
5.68 --undefined-- 60.896
5.69 --undefined-- 53.890
5.70 --undefined-- 48.791
5.71 --undefined-- 45.607
5.72 --undefined-- 42.121
5.73 --undefined-- 41.874
5.74 --undefined-- 42.298
5.75 --undefined-- 41.392
5.76 --undefined-- 39.686
5.77 --undefined-- 37.903
5.78 --undefined-- 35.761
5.79 --undefined-- 34.627
5.80 --undefined-- 40.608
5.81 --undefined-- 50.924
5.82 --undefined-- 57.699
5.83 --undefined-- 61.966
5.84 --undefined-- 64.982
5.85 126.091 66.601
5.86 102.170 66.531
5.87 102.170 65.720
5.88 102.134 65.024
5.89 105.238 62.734
5.90 105.983 59.405
5.91 --undefined-- 62.001
5.92 --undefined-- 68.124
5.93 113.919 71.921
5.94 115.549 73.531
5.95 119.552 73.971
5.96 120.376 73.866
5.97 121.583 72.691
5.98 125.568 70.063
5.99 127.811 66.177
6.00 135.312 63.317
6.01 139.929 63.926
6.02 144.458 64.904
6.03 150.514 65.835
6.04 156.431 66.873
6.05 161.192 67.689
6.06 163.594 68.193
6.07 163.597 67.955
6.08 161.167 65.933
6.09 --undefined-- 61.229
6.10 --undefined-- 53.363
6.11 --undefined-- 46.664
6.12 --undefined-- 47.346
6.13 --undefined-- 51.070
6.14 --undefined-- 57.150
6.15 --undefined-- 66.374
6.16 --undefined-- 73.335
6.17 --undefined-- 76.754
6.18 --undefined-- 76.775
6.19 --undefined-- 73.426
6.20 --undefined-- 67.242
6.21 --undefined-- 61.356
6.22 --undefined-- --undefined--
6.23 --undefined-- --undefined--
6.24 --undefined-- --undefined--
6.25 --undefined-- --undefined--
