Time Pitch Intensity
0.01 --undefined-- --undefined--
0.02 179.699 --undefined--
0.03 188.681 --undefined--
0.04 198.257 --undefined--
0.05 205.343 67.691
0.06 211.698 66.687
0.07 225.190 65.644
0.08 231.502 64.070
0.09 234.481 61.220
0.10 236.228 57.209
0.11 235.630 53.896
0.12 234.556 51.413
0.13 --undefined-- 50.111
0.14 --undefined-- 51.320
0.15 --undefined-- 57.676
0.16 157.634 63.467
0.17 153.956 66.487
0.18 149.789 67.296
0.19 298.937 66.813
0.20 298.785 65.349
0.21 295.882 62.579
0.22 292.535 58.832
0.23 299.210 56.773
0.24 --undefined-- 55.534
0.25 --undefined-- 52.961
0.26 --undefined-- 49.992
0.27 --undefined-- 50.997
0.28 --undefined-- 53.897
0.29 --undefined-- 54.548
0.30 --undefined-- 54.741
0.31 --undefined-- 56.516
0.32 --undefined-- 56.753
0.33 --undefined-- 54.350
0.34 --undefined-- 51.707
0.35 --undefined-- 50.137
0.36 --undefined-- 48.200
0.37 --undefined-- 48.240
0.38 --undefined-- 53.187
0.39 --undefined-- 56.920
0.40 --undefined-- 57.407
0.41 254.898 56.206
0.42 260.371 58.312
0.43 284.210 62.246
0.44 285.449 65.531
0.45 284.803 68.094
0.46 281.804 69.896
0.47 280.162 70.605
0.48 280.651 70.000
0.49 281.906 68.436
0.50 280.654 66.894
0.51 275.883 65.949
0.52 274.638 65.562
0.53 281.473 65.862
0.54 285.581 66.609
0.55 286.382 67.053
0.56 286.325 67.084
0.57 285.748 66.984
0.58 284.129 66.876
0.59 282.291 66.721
0.60 281.400 66.504
0.61 280.925 66.311
0.62 280.671 66.163
0.63 280.748 66.152
0.64 280.880 66.262
0.65 280.931 66.370
0.66 280.754 66.325
0.67 279.685 66.174
0.68 280.085 66.307
0.69 278.795 66.531
0.70 274.543 66.016
0.71 268.046 63.902
0.72 250.157 59.841
0.73 243.601 55.233
0.74 278.862 52.436
0.75 285.248 54.075
0.76 --undefined-- 56.961
0.77 268.462 60.530
0.78 249.270 64.421
0.79 228.387 66.752
0.80 212.028 67.656
0.81 203.123 68.085
0.82 196.165 68.380
0.83 192.100 68.481
0.84 190.405 68.185
0.85 189.829 67.453
0.86 189.296 66.799
0.87 191.004 66.512
0.88 192.666 66.432
0.89 193.656 66.398
0.90 194.774 66.071
0.91 196.134 65.444
0.92 197.349 64.828
0.93 199.568 64.248
0.94 202.849 63.395
0.95 205.840 62.633
0.96 209.105 62.704
0.97 211.903 63.035
0.98 213.815 63.045
0.99 212.557 62.244
1.00 207.150 60.048
1.01 202.262 56.779
1.02 200.870 55.286
1.03 --undefined-- 57.017
1.04 --undefined-- 56.789
1.05 239.748 57.043
1.06 237.180 60.311
1.07 240.571 62.440
1.08 248.896 63.499
1.09 253.220 64.540
1.10 256.404 65.653
1.11 258.363 66.318
1.12 257.529 66.364
1.13 256.981 65.739
1.14 258.403 64.639
1.15 260.550 64.190
1.16 260.396 64.536
1.17 259.802 64.805
1.18 258.879 64.845
1.19 257.648 64.722
1.20 256.949 64.611
1.21 257.481 64.533
1.22 258.635 64.389
1.23 259.596 64.238
1.24 260.563 64.189
1.25 261.426 64.281
1.26 262.304 64.426
1.27 262.851 64.483
1.28 260.459 64.286
1.29 254.041 63.545
1.30 244.935 61.678
1.31 237.544 58.909
1.32 --undefined-- 56.559
1.33 --undefined-- 54.245
1.34 --undefined-- 54.853
1.35 --undefined-- 60.931
1.36 --undefined-- 65.314
1.37 --undefined-- 67.497
1.38 --undefined-- 68.765
1.39 175.973 69.031
1.40 178.097 68.506
1.41 177.974 68.504
1.42 178.949 68.631
1.43 179.467 68.485
1.44 180.327 68.142
1.45 181.645 67.884
1.46 182.261 68.151
1.47 182.764 68.693
1.48 183.279 68.944
1.49 182.713 68.808
1.50 181.161 68.451
1.51 179.780 67.837
1.52 179.352 66.840
1.53 179.342 65.595
1.54 178.579 64.334
1.55 177.261 63.128
1.56 174.877 61.867
1.57 173.957 60.281
1.58 179.087 58.129
1.59 178.651 55.794
1.60 177.182 56.726
1.61 182.241 59.501
1.62 --undefined-- 60.022
1.63 --undefined-- 57.948
1.64 --undefined-- 56.311
1.65 --undefined-- 57.389
1.66 --undefined-- 57.706
1.67 --undefined-- 56.761
1.68 --undefined-- 54.104
1.69 --undefined-- 49.559
1.70 --undefined-- 47.044
1.71 --undefined-- 46.824
1.72 --undefined-- 46.291
1.73 --undefined-- 45.763
1.74 --undefined-- 45.995
1.75 --undefined-- 46.244
1.76 --undefined-- 46.201
1.77 --undefined-- 48.602
1.78 --undefined-- 51.368
1.79 --undefined-- 51.883
1.80 --undefined-- 51.858
1.81 --undefined-- 54.927
1.82 --undefined-- 58.196
1.83 --undefined-- 59.842
1.84 --undefined-- 59.565
1.85 --undefined-- 57.789
1.86 --undefined-- 56.343
1.87 --undefined-- 57.231
1.88 --undefined-- 58.054
1.89 --undefined-- 57.200
1.90 --undefined-- 55.459
1.91 --undefined-- 54.503
1.92 --undefined-- 57.253
1.93 --undefined-- 60.376
1.94 --undefined-- 60.724
1.95 --undefined-- 58.907
1.96 206.655 59.668
1.97 219.269 63.345
1.98 226.597 66.419
1.99 222.204 68.780
2.00 217.034 70.499
2.01 216.515 71.382
2.02 216.469 71.614
2.03 216.778 71.619
2.04 217.640 71.627
2.05 217.253 71.699
2.06 218.085 71.658
2.07 220.748 71.566
2.08 221.396 71.883
2.09 220.185 72.391
2.10 219.175 72.223
2.11 220.884 70.999
2.12 222.557 69.161
2.13 222.502 67.578
2.14 222.657 66.728
2.15 225.658 66.402
2.16 228.978 66.510
2.17 231.696 67.088
2.18 234.296 67.688
2.19 236.472 68.030
2.20 236.478 67.878
2.21 235.116 66.968
2.22 232.908 65.063
2.23 230.505 61.703
2.24 229.903 56.696
2.25 --undefined-- 51.988
2.26 --undefined-- 53.588
2.27 289.873 55.986
2.28 286.518 56.117
2.29 287.383 56.742
2.30 --undefined-- 57.254
2.31 --undefined-- 56.300
2.32 --undefined-- 54.904
2.33 --undefined-- 52.551
2.34 --undefined-- 52.224
2.35 --undefined-- 57.332
2.36 174.881 63.153
2.37 172.038 66.979
2.38 170.749 68.778
2.39 172.251 69.309
2.40 173.868 69.215
2.41 174.783 68.839
2.42 174.290 68.420
2.43 172.807 68.108
2.44 172.789 67.909
2.45 172.322 67.805
2.46 172.362 67.866
2.47 171.878 68.317
2.48 170.435 69.210
2.49 170.742 69.879
2.50 171.162 69.859
2.51 172.144 69.362
2.52 173.705 68.601
2.53 175.190 67.662
2.54 175.999 66.925
2.55 175.768 66.848
2.56 175.002 67.209
2.57 173.788 67.481
2.58 171.447 67.254
2.59 167.180 66.416
2.60 160.482 64.999
2.61 159.708 62.471
2.62 171.209 58.507
2.63 170.288 55.318
2.64 170.637 55.594
2.65 --undefined-- 57.339
2.66 --undefined-- 57.306
2.67 --undefined-- 54.808
2.68 --undefined-- 52.209
2.69 --undefined-- 50.859
2.70 --undefined-- 49.431
2.71 --undefined-- 50.155
2.72 --undefined-- 55.903
2.73 257.313 62.009
2.74 228.807 65.944
2.75 219.275 68.285
2.76 212.797 69.933
2.77 208.286 71.016
2.78 205.549 71.285
2.79 203.306 71.073
2.80 201.740 70.978
2.81 201.078 71.093
2.82 200.111 71.257
2.83 199.990 71.355
2.84 201.227 71.491
2.85 202.626 71.793
2.86 204.715 72.084
2.87 207.248 71.832
2.88 210.225 70.872
2.89 210.509 69.453
2.90 208.956 67.065
2.91 206.955 63.127
2.92 205.190 58.230
2.93 201.960 53.440
2.94 204.709 51.698
2.95 208.894 54.568
2.96 --undefined-- 59.012
2.97 --undefined-- 62.881
2.98 --undefined-- 65.303
2.99 --undefined-- 66.047
3.00 --undefined-- 65.685
3.01 170.373 65.026
3.02 173.281 64.673
3.03 182.513 64.699
3.04 184.805 65.160
3.05 192.179 65.548
3.06 202.098 65.164
3.07 211.234 64.527
3.08 216.074 64.913
3.09 220.171 65.853
3.10 225.827 66.422
3.11 231.220 66.505
3.12 234.544 66.235
3.13 234.924 65.480
3.14 230.548 63.660
3.15 218.594 60.251
3.16 219.190 58.163
3.17 266.328 62.237
3.18 243.288 66.588
3.19 234.727 68.968
3.20 215.992 69.485
3.21 211.251 69.406
3.22 204.949 69.532
3.23 195.622 69.735
3.24 192.661 70.361
3.25 190.454 70.844
3.26 190.135 70.484
3.27 190.863 69.663
3.28 190.665 69.119
3.29 190.387 68.758
3.30 190.296 68.306
3.31 190.578 67.748
3.32 191.884 67.113
3.33 193.337 66.439
3.34 194.288 65.622
3.35 191.519 64.251
3.36 189.464 62.338
3.37 192.574 60.382
3.38 193.422 58.015
3.39 268.663 56.144
3.40 271.331 58.619
3.41 276.806 61.556
3.42 262.976 64.227
3.43 248.782 66.885
3.44 245.906 68.462
3.45 246.620 68.804
3.46 248.015 68.106
3.47 248.941 66.484
3.48 249.059 64.277
3.49 245.273 62.109
3.50 246.022 60.170
3.51 248.458 57.367
3.52 250.535 53.343
3.53 --undefined-- 51.571
3.54 --undefined-- 50.771
3.55 --undefined-- 51.296
3.56 --undefined-- 54.360
3.57 --undefined-- 55.998
3.58 --undefined-- 55.299
3.59 --undefined-- 54.123
3.60 --undefined-- 54.809
3.61 --undefined-- 58.167
3.62 238.082 63.031
3.63 219.982 66.506
3.64 209.907 68.352
3.65 203.536 69.054
3.66 196.918 69.534
3.67 194.027 70.384
3.68 191.640 70.998
3.69 189.943 70.838
3.70 188.626 70.244
3.71 189.295 70.078
3.72 190.438 70.256
3.73 190.486 70.464
3.74 190.204 70.656
3.75 190.027 70.642
3.76 189.735 70.339
3.77 189.284 69.935
3.78 188.872 69.667
3.79 189.499 69.553
3.80 190.726 69.407
3.81 192.548 69.049
3.82 194.499 68.281
3.83 194.829 66.740
3.84 193.155 64.207
3.85 194.257 60.843
3.86 193.710 56.959
3.87 193.718 54.105
3.88 --undefined-- 54.540
3.89 --undefined-- 53.759
3.90 --undefined-- 51.585
3.91 --undefined-- 53.557
3.92 --undefined-- 55.282
3.93 --undefined-- 55.260
3.94 --undefined-- 55.600
3.95 --undefined-- 56.372
3.96 --undefined-- 57.619
3.97 --undefined-- 58.615
3.98 --undefined-- 57.272
3.99 --undefined-- 53.336
4.00 --undefined-- 51.193
4.01 --undefined-- 52.351
4.02 --undefined-- 54.515
4.03 --undefined-- 55.389
4.04 --undefined-- 54.937
4.05 --undefined-- 54.068
4.06 --undefined-- 54.340
4.07 --undefined-- 55.287
4.08 --undefined-- 54.297
4.09 --undefined-- 56.524
4.10 --undefined-- 60.990
4.11 276.633 62.804
4.12 276.636 62.372
4.13 256.693 61.605
4.14 211.114 62.682
4.15 220.984 65.524
4.16 222.090 67.784
4.17 218.739 68.892
4.18 217.074 69.535
4.19 216.498 69.992
4.20 216.712 70.297
4.21 215.455 70.636
4.22 216.110 70.869
4.23 215.751 71.014
4.24 214.602 71.099
4.25 214.157 70.912
4.26 215.114 70.789
4.27 215.979 70.904
4.28 216.296 70.599
4.29 216.783 69.837
4.30 219.926 69.424
4.31 222.851 69.349
4.32 225.991 69.085
4.33 227.829 68.557
4.34 229.780 68.162
4.35 231.670 68.282
4.36 232.570 68.647
4.37 233.649 68.942
4.38 234.369 69.174
4.39 236.357 69.212
4.40 237.458 68.586
4.41 234.897 66.796
4.42 230.535 63.494
4.43 229.478 58.765
4.44 231.677 56.520
4.45 232.256 56.857
4.46 253.181 55.436
4.47 255.623 53.657
4.48 --undefined-- 54.197
4.49 --undefined-- 57.286
4.50 193.150 62.690
4.51 194.021 67.271
4.52 193.850 69.796
4.53 192.928 70.414
4.54 189.986 69.128
4.55 185.847 65.739
4.56 193.289 60.938
4.57 192.703 58.435
4.58 192.821 58.242
4.59 194.603 57.717
4.60 197.170 56.721
4.61 --undefined-- 55.683
4.62 --undefined-- 52.701
4.63 --undefined-- 48.119
4.64 --undefined-- 49.038
4.65 --undefined-- 53.914
4.66 --undefined-- 57.048
4.67 --undefined-- 57.558
4.68 --undefined-- 56.235
4.69 --undefined-- 55.990
4.70 --undefined-- 55.875
4.71 --undefined-- 53.954
4.72 --undefined-- 50.722
4.73 --undefined-- 49.521
4.74 --undefined-- 54.800
4.75 --undefined-- 58.924
4.76 --undefined-- 62.489
4.77 --undefined-- 66.112
4.78 96.056 68.268
4.79 94.916 69.148
4.80 93.364 69.432
4.81 93.070 69.468
4.82 92.501 69.572
4.83 92.656 70.000
4.84 186.769 70.750
4.85 189.925 71.525
4.86 194.810 71.774
4.87 200.202 71.259
4.88 209.326 70.313
4.89 222.747 69.760
4.90 228.288 69.670
4.91 236.995 69.501
4.92 248.007 69.607
4.93 261.321 69.932
4.94 269.785 70.339
4.95 277.661 70.924
4.96 284.204 71.733
4.97 288.967 --undefined--
4.98 291.800 --undefined--
4.99 --undefined-- --undefined--
5.00 --undefined-- --undefined--
