Time Pitch Intensity
0.01 --undefined-- --undefined--
0.02 216.102 --undefined--
0.03 200.506 --undefined--
0.04 192.280 --undefined--
0.05 187.986 73.075
0.06 183.221 73.936
0.07 178.696 74.278
0.08 175.926 74.215
0.09 173.600 73.969
0.10 170.651 73.675
0.11 168.420 73.293
0.12 166.742 72.705
0.13 165.262 71.867
0.14 165.183 70.899
0.15 166.453 69.715
0.16 164.475 67.832
0.17 156.474 65.050
0.18 151.260 61.762
0.19 --undefined-- 58.181
0.20 --undefined-- 54.407
0.21 --undefined-- 50.192
0.22 --undefined-- 46.334
0.23 --undefined-- 48.177
0.24 --undefined-- 51.497
0.25 --undefined-- 53.028
0.26 --undefined-- 53.859
0.27 --undefined-- 54.812
0.28 --undefined-- 55.408
0.29 --undefined-- 56.396
0.30 --undefined-- 58.585
0.31 --undefined-- 62.560
0.32 198.421 66.869
0.33 192.392 69.524
0.34 180.134 70.974
0.35 168.862 72.032
0.36 164.047 72.710
0.37 160.189 72.543
0.38 159.220 71.416
0.39 163.222 70.282
0.40 162.977 69.673
0.41 162.779 69.145
0.42 162.497 68.850
0.43 162.879 68.748
0.44 162.323 68.542
0.45 162.511 68.189
0.46 163.940 67.778
0.47 165.571 67.358
0.48 166.804 66.900
0.49 167.607 66.241
0.50 168.615 65.151
0.51 171.011 63.392
0.52 168.685 60.717
0.53 169.652 56.900
0.54 171.739 53.158
0.55 174.413 51.221
0.56 177.065 49.270
0.57 --undefined-- 46.185
0.58 --undefined-- 42.957
0.59 --undefined-- 42.026
0.60 --undefined-- 43.058
0.61 --undefined-- 44.152
0.62 --undefined-- 49.410
0.63 --undefined-- 59.254
0.64 196.427 66.025
0.65 187.733 69.454
0.66 178.476 70.413
0.67 167.815 69.947
0.68 158.149 68.947
0.69 149.103 68.188
0.70 147.291 68.162
0.71 144.690 67.991
0.72 144.347 67.435
0.73 144.805 67.237
0.74 142.858 67.186
0.75 141.117 66.776
0.76 140.779 66.403
0.77 140.499 66.318
0.78 140.954 66.199
0.79 142.550 66.344
0.80 147.632 66.796
0.81 149.929 67.216
0.82 153.363 67.724
0.83 156.123 68.291
0.84 158.291 68.766
0.85 160.241 69.065
0.86 161.191 69.017
0.87 161.827 68.205
0.88 161.553 65.903
0.89 150.001 61.335
0.90 155.388 55.376
0.91 165.855 55.352
0.92 --undefined-- 59.923
0.93 --undefined-- 63.464
0.94 --undefined-- 65.240
0.95 --undefined-- 65.441
0.96 --undefined-- 66.022
0.97 --undefined-- 69.469
0.98 186.809 72.335
0.99 181.205 73.433
1.00 171.054 73.743
1.01 165.400 73.608
1.02 160.103 72.654
1.03 159.282 71.580
1.04 161.524 71.701
1.05 163.579 72.834
1.06 164.508 73.962
1.07 166.243 74.265
1.08 170.330 74.035
1.09 173.329 74.179
1.10 180.248 74.423
1.11 183.134 74.522
1.12 183.865 74.549
1.13 183.652 73.899
1.14 183.417 72.181
1.15 178.926 69.396
1.16 173.199 65.343
1.17 179.507 60.055
1.18 179.076 55.309
1.19 176.217 52.668
1.20 175.820 50.443
1.21 --undefined-- 47.970
1.22 --undefined-- 45.446
1.23 --undefined-- 43.474
1.24 --undefined-- 42.205
1.25 --undefined-- 41.013
1.26 --undefined-- 38.895
1.27 --undefined-- 35.566
1.28 --undefined-- 31.524
1.29 --undefined-- 27.976
1.30 --undefined-- 26.992
1.31 --undefined-- 26.301
1.32 --undefined-- 24.399
1.33 --undefined-- 23.840
1.34 --undefined-- 24.273
1.35 --undefined-- 24.694
1.36 --undefined-- 26.355
1.37 --undefined-- 27.398
1.38 --undefined-- 27.775
1.39 --undefined-- 28.678
1.40 --undefined-- 28.541
1.41 --undefined-- 27.611
1.42 --undefined-- 28.048
1.43 --undefined-- 29.060
1.44 --undefined-- 29.348
1.45 --undefined-- 28.234
1.46 --undefined-- 25.947
1.47 --undefined-- 25.292
1.48 --undefined-- 26.174
1.49 --undefined-- 26.981
1.50 --undefined-- 27.657
1.51 --undefined-- 28.303
1.52 --undefined-- 29.353
1.53 --undefined-- 29.636
1.54 --undefined-- 28.998
1.55 --undefined-- 28.768
1.56 --undefined-- 29.218
1.57 --undefined-- 29.328
1.58 --undefined-- 28.109
1.59 --undefined-- 26.350
1.60 --undefined-- 25.891
1.61 --undefined-- 25.925
1.62 --undefined-- 26.196
1.63 --undefined-- 26.582
1.64 --undefined-- 25.663
1.65 --undefined-- 23.922
1.66 --undefined-- 24.718
1.67 --undefined-- 27.152
1.68 --undefined-- 28.207
1.69 --undefined-- 27.350
1.70 --undefined-- 26.356
1.71 --undefined-- 27.217
1.72 --undefined-- 29.569
1.73 --undefined-- 33.791
1.74 --undefined-- 36.559
1.75 --undefined-- 36.725
1.76 --undefined-- 36.437
1.77 --undefined-- 36.259
1.78 --undefined-- 35.990
1.79 --undefined-- 41.859
1.80 --undefined-- 53.436
1.81 225.984 61.085
1.82 194.740 65.746
1.83 184.817 69.007
1.84 181.267 71.376
1.85 176.089 72.815
1.86 173.144 73.586
1.87 173.313 73.901
1.88 174.234 73.785
1.89 175.412 73.510
1.90 178.006 73.502
1.91 181.302 73.840
1.92 183.777 74.194
1.93 186.303 74.268
1.94 192.908 73.991
1.95 202.826 73.610
1.96 214.317 73.734
1.97 223.164 74.346
1.98 228.288 75.168
1.99 233.160 76.219
2.00 237.225 76.760
2.01 241.334 76.215
2.02 244.010 74.618
2.03 244.609 71.794
2.04 238.347 67.250
2.05 239.844 60.859
2.06 240.594 53.803
2.07 --undefined-- 49.241
2.08 --undefined-- 47.848
2.09 --undefined-- 49.784
2.10 --undefined-- 52.619
2.11 --undefined-- 58.129
2.12 --undefined-- 64.703
2.13 232.412 70.209
2.14 227.697 73.712
2.15 216.137 75.517
2.16 209.944 76.235
2.17 206.690 76.340
2.18 204.752 76.228
2.19 204.562 76.114
2.20 204.976 75.996
2.21 205.868 75.696
2.22 206.316 75.193
2.23 204.438 74.514
2.24 200.503 73.321
2.25 195.243 70.940
2.26 182.615 67.100
2.27 189.108 61.980
2.28 204.011 55.574
2.29 202.304 53.726
2.30 200.685 62.369
2.31 256.090 69.926
2.32 231.569 74.056
2.33 215.503 75.409
2.34 209.940 75.269
2.35 207.274 74.987
2.36 206.098 74.854
2.37 204.657 74.676
2.38 203.989 74.551
2.39 203.459 74.588
2.40 203.833 74.732
2.41 204.320 74.809
2.42 204.465 74.632
2.43 201.593 74.406
2.44 204.875 74.519
2.45 206.336 74.567
2.46 207.462 74.361
2.47 207.623 74.057
2.48 206.385 73.673
2.49 203.894 73.388
2.50 198.714 73.876
2.51 192.527 74.885
2.52 190.436 75.134
2.53 186.541 74.324
2.54 183.127 72.638
2.55 176.986 70.064
2.56 167.534 67.124
2.57 168.160 64.275
2.58 176.441 60.064
2.59 --undefined-- 54.551
2.60 --undefined-- 53.230
2.61 --undefined-- 52.724
2.62 --undefined-- 49.731
2.63 --undefined-- 45.038
2.64 --undefined-- 42.504
2.65 --undefined-- 44.533
2.66 --undefined-- 48.603
2.67 --undefined-- 52.411
2.68 --undefined-- 54.357
2.69 --undefined-- 54.836
2.70 --undefined-- 55.872
2.71 --undefined-- 60.883
2.72 212.324 66.982
2.73 184.653 70.516
2.74 169.526 71.638
2.75 163.174 71.150
2.76 160.331 69.795
2.77 158.798 68.305
2.78 157.434 67.740
2.79 157.753 68.147
2.80 158.529 68.816
2.81 158.722 69.397
2.82 156.873 69.558
2.83 154.993 68.761
2.84 154.396 66.137
2.85 150.753 61.005
2.86 160.291 54.468
2.87 160.636 51.021
2.88 163.650 49.580
2.89 --undefined-- 49.376
2.90 --undefined-- 50.801
2.91 --undefined-- 55.218
2.92 --undefined-- 63.878
2.93 215.526 70.144
2.94 198.789 73.351
2.95 189.123 74.614
2.96 181.553 74.854
2.97 173.709 74.365
2.98 172.501 73.730
2.99 177.547 73.441
3.00 183.767 73.284
3.01 194.954 73.250
3.02 203.630 73.347
3.03 208.950 73.087
3.04 211.326 71.795
3.05 207.952 69.244
3.06 213.167 66.493
3.07 220.332 64.690
3.08 229.172 64.473
3.09 241.138 66.538
3.10 252.335 69.593
3.11 258.740 72.147
3.12 264.243 73.642
3.13 266.879 74.392
3.14 269.071 74.705
3.15 272.281 74.632
3.16 276.118 74.444
3.17 279.158 74.544
3.18 280.532 74.740
3.19 281.214 74.472
3.20 283.218 73.236
3.21 272.129 70.639
3.22 262.027 66.611
3.23 --undefined-- 61.863
3.24 --undefined-- 58.984
3.25 --undefined-- 58.417
3.26 --undefined-- 58.925
3.27 --undefined-- 59.305
3.28 --undefined-- 62.771
3.29 266.302 69.350
3.30 266.616 73.517
3.31 253.811 75.255
3.32 236.395 75.540
3.33 227.260 75.225
3.34 222.492 74.692
3.35 219.797 74.040
3.36 220.510 73.498
3.37 223.065 73.239
3.38 226.615 73.201
3.39 229.972 73.401
3.40 230.811 73.603
3.41 228.687 73.079
3.42 225.971 70.783
3.43 209.609 65.972
3.44 --undefined-- 59.325
3.45 --undefined-- 54.073
3.46 --undefined-- 50.918
3.47 --undefined-- 51.256
3.48 --undefined-- 57.760
3.49 --undefined-- 67.078
3.50 298.726 73.160
3.51 288.523 75.905
3.52 283.066 76.332
3.53 281.123 75.667
3.54 280.763 74.699
3.55 279.890 73.585
3.56 277.503 72.204
3.57 273.559 70.943
3.58 278.204 70.883
3.59 280.748 71.448
3.60 283.442 71.873
3.61 286.818 72.087
3.62 289.881 72.082
3.63 293.413 71.830
3.64 295.328 71.244
3.65 295.099 70.036
3.66 289.812 67.712
3.67 280.181 63.670
3.68 283.345 57.600
3.69 287.162 51.248
3.70 --undefined-- 48.509
3.71 --undefined-- 47.857
3.72 --undefined-- 51.335
3.73 --undefined-- 57.655
3.74 --undefined-- 64.507
3.75 --undefined-- 70.833
3.76 152.483 74.217
3.77 149.982 74.864
3.78 147.769 73.998
3.79 147.166 73.004
3.80 147.806 72.539
3.81 149.071 72.571
3.82 150.566 72.831
3.83 151.639 73.232
3.84 152.816 73.864
3.85 153.459 74.458
3.86 153.127 74.387
3.87 150.620 73.009
3.88 296.110 69.737
3.89 278.139 64.084
3.90 273.031 57.468
3.91 291.148 55.785
3.92 289.899 55.195
3.93 --undefined-- 53.747
3.94 --undefined-- 53.020
3.95 --undefined-- 55.088
3.96 --undefined-- 63.146
3.97 253.386 69.727
3.98 229.388 73.013
3.99 211.476 73.906
4.00 --undefined-- 73.561
4.01 --undefined-- 72.542
4.02 138.704 70.905
4.03 136.156 69.046
4.04 130.907 67.307
4.05 126.759 65.403
4.06 126.902 63.245
4.07 135.048 61.437
4.08 137.657 61.419
4.09 137.740 62.108
4.10 141.248 62.186
4.11 150.116 61.323
4.12 155.641 60.037
4.13 167.801 59.831
4.14 168.244 59.534
4.15 157.914 57.287
4.16 --undefined-- 52.861
4.17 --undefined-- 46.657
4.18 --undefined-- 45.843
4.19 --undefined-- 52.586
4.20 --undefined-- 55.950
4.21 --undefined-- 56.794
4.22 --undefined-- 62.380
4.23 248.472 69.355
4.24 246.073 73.654
4.25 248.373 75.867
4.26 248.958 76.854
4.27 248.713 77.180
4.28 247.706 76.769
4.29 247.275 75.567
4.30 248.836 74.278
4.31 251.850 73.626
4.32 255.029 73.578
4.33 258.966 73.635
4.34 262.183 73.728
4.35 265.294 73.783
4.36 268.635 73.504
4.37 270.445 72.912
4.38 269.163 72.478
4.39 270.943 72.721
4.40 272.664 73.162
4.41 272.080 73.202
4.42 269.882 72.373
4.43 266.113 69.796
4.44 256.214 64.630
4.45 --undefined-- 56.216
4.46 --undefined-- 49.125
4.47 --undefined-- 51.467
4.48 --undefined-- 54.994
4.49 --undefined-- 57.900
4.50 --undefined-- 59.651
4.51 --undefined-- 60.474
4.52 --undefined-- 63.807
4.53 240.975 68.579
4.54 228.719 71.255
4.55 225.609 71.980
4.56 220.410 71.711
4.57 216.467 71.196
4.58 214.646 70.561
4.59 212.153 69.200
4.60 201.043 66.341
4.61 191.352 61.852
4.62 --undefined-- 55.594
4.63 --undefined-- 47.510
4.64 --undefined-- 45.207
4.65 --undefined-- 49.798
4.66 --undefined-- 56.886
4.67 --undefined-- 65.448
4.68 235.241 70.995
4.69 223.276 73.244
4.70 215.023 73.404
4.71 211.144 73.222
4.72 209.439 73.543
4.73 207.736 73.910
4.74 205.315 74.106
4.75 203.039 74.178
4.76 201.117 73.881
4.77 199.426 72.896
4.78 198.094 71.005
4.79 192.999 67.810
4.80 189.310 62.891
4.81 202.019 55.988
4.82 200.449 50.983
4.83 197.497 50.595
4.84 198.626 50.456
4.85 --undefined-- 50.730
4.86 --undefined-- 52.899
4.87 --undefined-- 58.543
4.88 250.061 66.230
4.89 231.367 71.548
4.90 217.349 74.148
4.91 210.782 75.300
4.92 205.802 75.709
4.93 200.980 75.542
4.94 199.045 75.053
4.95 196.683 74.081
4.96 191.224 72.249
4.97 --undefined-- 69.610
4.98 --undefined-- 66.434
4.99 --undefined-- 62.482
5.00 --undefined-- 57.764
5.01 --undefined-- 53.465
5.02 --undefined-- 50.229
5.03 --undefined-- 50.746
5.04 177.043 53.490
5.05 180.406 56.187
5.06 193.412 58.819
5.07 197.607 61.086
5.08 194.847 62.844
5.09 190.166 64.402
5.10 184.760 66.305
5.11 180.171 68.525
5.12 176.292 70.589
5.13 173.239 71.932
5.14 172.292 72.553
5.15 171.736 72.711
5.16 172.240 72.700
5.17 174.016 72.572
5.18 179.004 72.496
5.19 185.877 72.872
5.20 192.509 73.385
5.21 200.146 73.282
5.22 213.145 72.464
5.23 229.940 71.717
5.24 240.701 71.735
5.25 245.674 72.174
5.26 248.074 72.548
5.27 248.284 72.601
5.28 246.869 72.144
5.29 242.865 71.312
5.30 239.289 70.214
5.31 236.182 68.914
5.32 232.832 67.673
5.33 228.759 66.535
5.34 223.874 65.675
5.35 219.469 65.584
5.36 216.035 66.222
5.37 210.995 66.876
5.38 205.042 67.327
5.39 198.967 67.772
5.40 192.633 68.377
5.41 188.805 69.175
5.42 185.794 69.928
5.43 183.921 70.426
5.44 183.388 70.697
5.45 182.972 71.062
5.46 181.951 71.558
5.47 180.012 71.946
5.48 179.280 72.091
5.49 180.262 71.975
5.50 182.244 71.692
5.51 183.779 71.346
5.52 186.605 70.885
5.53 190.211 70.122
5.54 192.458 --undefined--
5.55 193.573 --undefined--
5.56 --undefined-- --undefined--
5.57 --undefined-- --undefined--
