Time Pitch Intensity
0.01 --undefined-- --undefined--
0.02 93.826 --undefined--
0.03 94.127 --undefined--
0.04 94.162 --undefined--
0.05 93.756 70.156
0.06 94.545 70.386
0.07 95.012 70.135
0.08 92.505 69.772
0.09 90.777 69.774
0.10 90.219 69.344
0.11 80.715 67.664
0.12 81.836 64.917
0.13 --undefined-- 61.768
0.14 --undefined-- 58.457
0.15 --undefined-- 56.073
0.16 --undefined-- 52.986
0.17 --undefined-- 46.698
0.18 --undefined-- 40.541
0.19 --undefined-- 37.648
0.20 --undefined-- 35.990
0.21 --undefined-- 34.808
0.22 --undefined-- 33.663
0.23 --undefined-- 33.865
0.24 --undefined-- 34.295
0.25 --undefined-- 35.846
0.26 --undefined-- 39.634
0.27 --undefined-- 40.899
0.28 --undefined-- 38.541
0.29 --undefined-- 34.671
0.30 --undefined-- 34.316
0.31 --undefined-- 41.022
0.32 --undefined-- 47.407
0.33 --undefined-- 49.332
0.34 --undefined-- 47.446
0.35 --undefined-- 45.708
0.36 --undefined-- 47.224
0.37 --undefined-- 48.225
0.38 --undefined-- 49.179
0.39 --undefined-- 51.282
0.40 --undefined-- 57.101
0.41 114.197 62.965
0.42 112.358 66.761
0.43 110.571 68.231
0.44 110.862 67.600
0.45 113.324 65.323
0.46 --undefined-- 61.373
0.47 --undefined-- 55.064
0.48 --undefined-- 46.976
0.49 --undefined-- 42.342
0.50 --undefined-- 42.177
0.51 --undefined-- 46.028
0.52 --undefined-- 50.364
0.53 --undefined-- 53.508
0.54 --undefined-- 60.461
0.55 132.939 66.943
0.56 129.174 70.851
0.57 127.414 72.701
0.58 128.744 73.008
0.59 130.877 72.376
0.60 134.425 71.617
0.61 140.892 70.952
0.62 145.357 69.497
0.63 145.740 66.112
0.64 133.630 60.194
0.65 143.165 54.233
0.66 149.773 56.605
0.67 155.044 61.572
0.68 157.919 65.317
0.69 160.171 67.742
0.70 164.337 69.011
0.71 166.318 69.457
0.72 167.495 69.440
0.73 168.189 69.129
0.74 169.086 68.411
0.75 169.891 67.232
0.76 171.430 65.771
0.77 171.570 63.992
0.78 171.879 61.427
0.79 172.256 57.564
0.80 --undefined-- 52.436
0.81 --undefined-- 47.824
0.82 --undefined-- 45.313
0.83 --undefined-- 43.544
0.84 --undefined-- 42.726
0.85 --undefined-- 42.525
0.86 --undefined-- 42.246
0.87 --undefined-- 41.973
0.88 --undefined-- 41.721
0.89 --undefined-- 42.279
0.90 --undefined-- 47.462
0.91 --undefined-- 54.296
0.92 --undefined-- 58.930
0.93 139.434 61.475
0.94 132.983 62.710
0.95 128.693 63.268
0.96 130.320 63.621
0.97 130.229 63.857
0.98 128.013 64.060
0.99 128.223 64.435
1.00 128.050 64.596
1.01 128.936 64.467
1.02 129.850 64.300
1.03 130.004 64.093
1.04 129.586 63.853
1.05 129.996 63.604
1.06 130.674 63.373
1.07 130.456 63.233
1.08 132.511 63.090
1.09 133.627 62.959
1.10 132.477 63.000
1.11 134.980 63.147
1.12 134.554 63.141
1.13 135.219 62.771
1.14 135.235 62.294
1.15 136.092 62.267
1.16 137.460 62.520
1.17 137.620 62.676
1.18 137.977 62.841
1.19 138.409 63.052
1.20 137.043 62.991
1.21 136.769 62.589
1.22 135.713 61.928
1.23 135.777 61.082
1.24 136.263 60.154
1.25 135.514 58.994
1.26 132.628 57.213
1.27 133.284 54.387
1.28 --undefined-- 50.911
1.29 --undefined-- 47.813
1.30 --undefined-- 44.240
1.31 --undefined-- 40.039
1.32 --undefined-- 36.774
1.33 --undefined-- 34.850
1.34 --undefined-- 34.911
1.35 --undefined-- 37.121
1.36 --undefined-- 37.764
1.37 --undefined-- 36.492
1.38 --undefined-- 35.135
1.39 --undefined-- 34.095
1.40 --undefined-- 32.531
1.41 --undefined-- 32.416
1.42 --undefined-- 33.291
1.43 --undefined-- 33.571
1.44 --undefined-- 33.817
1.45 --undefined-- 33.861
1.46 --undefined-- 32.429
1.47 --undefined-- 31.885
1.48 --undefined-- 32.639
1.49 --undefined-- 31.954
1.50 --undefined-- 32.175
1.51 --undefined-- 33.996
1.52 --undefined-- 34.114
1.53 --undefined-- 32.017
1.54 --undefined-- 31.174
1.55 --undefined-- 32.685
1.56 --undefined-- 32.669
1.57 --undefined-- 32.307
1.58 --undefined-- 32.835
1.59 --undefined-- 32.707
1.60 --undefined-- 32.390
1.61 --undefined-- 33.280
1.62 --undefined-- 33.779
1.63 --undefined-- 32.200
1.64 --undefined-- 29.663
1.65 --undefined-- 30.161
1.66 --undefined-- 34.320
1.67 --undefined-- 40.124
1.68 --undefined-- 51.590
1.69 --undefined-- 61.015
1.70 171.486 66.697
1.71 178.853 69.538
1.72 180.838 70.454
1.73 181.725 70.078
1.74 181.447 68.555
1.75 179.612 66.564
1.76 180.948 66.485
1.77 178.359 68.423
1.78 173.773 70.385
1.79 169.583 71.864
1.80 164.947 73.412
1.81 --undefined-- 74.468
1.82 --undefined-- 74.108
1.83 --undefined-- 72.689
1.84 --undefined-- 71.212
1.85 --undefined-- 69.332
1.86 --undefined-- 66.289
1.87 --undefined-- 63.202
1.88 --undefined-- 62.601
1.89 --undefined-- 62.206
1.90 --undefined-- 61.631
1.91 --undefined-- 62.633
1.92 --undefined-- 63.848
1.93 --undefined-- 65.501
1.94 --undefined-- 66.624
1.95 --undefined-- 67.309
1.96 99.515 68.069
1.97 102.793 68.890
1.98 103.396 69.684
1.99 102.673 70.346
2.00 103.807 70.550
2.01 104.121 70.101
2.02 104.771 69.276
2.03 105.766 68.627
2.04 107.001 68.440
2.05 108.622 68.603
2.06 108.573 69.107
2.07 107.340 69.489
2.08 100.835 69.403
2.09 107.263 69.442
2.10 105.496 69.661
2.11 105.712 69.649
2.12 106.577 69.181
2.13 108.226 67.712
2.14 111.779 65.393
2.15 111.904 62.409
2.16 109.366 58.236
2.17 --undefined-- 52.777
2.18 --undefined-- 46.824
2.19 --undefined-- 42.313
2.20 --undefined-- 39.579
2.21 --undefined-- 42.664
2.22 --undefined-- 54.711
2.23 --undefined-- 63.529
2.24 --undefined-- 68.424
2.25 --undefined-- 70.222
2.26 --undefined-- 70.009
2.27 106.212 69.125
2.28 106.828 68.673
2.29 108.177 69.149
2.30 108.600 69.929
2.31 107.986 70.169
2.32 107.877 69.677
2.33 108.430 68.609
2.34 108.899 67.057
2.35 109.407 64.884
2.36 104.348 61.656
2.37 --undefined-- 56.695
2.38 --undefined-- 50.415
2.39 --undefined-- 46.420
2.40 --undefined-- 47.711
2.41 --undefined-- 52.022
2.42 --undefined-- 59.107
2.43 --undefined-- 64.547
2.44 --undefined-- 67.358
2.45 --undefined-- 68.694
2.46 --undefined-- 69.252
2.47 106.857 68.974
2.48 106.847 67.244
2.49 --undefined-- 63.218
2.50 --undefined-- 56.360
2.51 --undefined-- 48.590
2.52 --undefined-- 45.576
2.53 --undefined-- 48.481
2.54 --undefined-- 57.669
2.55 --undefined-- 64.635
2.56 117.163 67.895
2.57 116.322 68.200
2.58 114.381 67.263
2.59 113.949 66.744
2.60 113.478 66.752
2.61 113.785 67.214
2.62 113.530 67.594
2.63 113.034 67.376
2.64 111.726 66.607
2.65 110.725 65.740
2.66 111.232 64.669
2.67 111.515 62.767
2.68 111.933 60.169
2.69 112.981 57.936
2.70 117.232 57.017
2.71 117.112 56.401
2.72 116.621 54.651
2.73 115.644 51.401
2.74 --undefined-- 46.757
2.75 --undefined-- 43.008
2.76 --undefined-- 43.170
2.77 --undefined-- 45.452
2.78 --undefined-- 47.254
2.79 --undefined-- 47.179
2.80 --undefined-- 45.692
2.81 --undefined-- 44.227
2.82 --undefined-- 43.285
2.83 --undefined-- 46.250
2.84 --undefined-- 52.349
2.85 124.358 56.853
2.86 118.058 59.888
2.87 116.481 61.774
2.88 111.770 62.470
2.89 108.396 62.178
2.90 105.260 61.383
2.91 104.423 60.504
2.92 101.339 59.453
2.93 100.571 58.639
2.94 99.605 58.977
2.95 100.046 60.037
2.96 100.684 61.003
2.97 101.450 61.897
2.98 98.694 62.945
2.99 97.084 63.837
3.00 95.524 63.910
3.01 94.752 62.961
3.02 --undefined-- 62.271
3.03 --undefined-- 61.375
3.04 --undefined-- 58.627
3.05 --undefined-- 57.328
3.06 --undefined-- 57.148
3.07 --undefined-- 56.030
3.08 --undefined-- 54.812
3.09 --undefined-- 53.430
3.10 --undefined-- 54.514
3.11 --undefined-- 55.325
3.12 --undefined-- 55.046
3.13 --undefined-- 56.919
3.14 101.238 60.395
3.15 101.538 63.217
3.16 98.707 64.971
3.17 103.829 66.425
3.18 102.571 67.562
3.19 103.540 68.034
3.20 103.017 67.912
3.21 105.484 67.712
3.22 107.127 68.061
3.23 107.920 68.719
3.24 108.505 69.211
3.25 109.148 69.414
3.26 109.503 69.166
3.27 112.249 68.591
3.28 107.644 68.085
3.29 110.528 67.872
3.30 110.457 68.021
3.31 110.054 68.420
3.32 108.935 68.941
3.33 107.359 69.235
3.34 106.497 68.891
3.35 107.662 67.968
3.36 108.431 66.701
3.37 108.469 64.687
3.38 108.804 61.286
3.39 110.306 56.756
3.40 113.113 54.055
3.41 115.483 53.808
3.42 116.370 53.719
3.43 118.033 53.415
3.44 119.977 53.053
3.45 121.446 52.766
3.46 122.877 52.550
3.47 123.802 52.132
3.48 124.165 51.127
3.49 --undefined-- 49.319
3.50 --undefined-- 46.377
3.51 --undefined-- 42.794
3.52 --undefined-- 46.045
3.53 --undefined-- 52.388
3.54 --undefined-- 57.937
3.55 --undefined-- 62.630
3.56 --undefined-- 64.738
3.57 --undefined-- 63.570
3.58 --undefined-- 59.373
3.59 --undefined-- 54.011
3.60 --undefined-- 53.181
3.61 114.630 56.384
3.62 106.761 59.013
3.63 102.660 60.292
3.64 102.532 60.215
3.65 98.389 59.471
3.66 95.457 58.995
3.67 93.809 58.594
3.68 93.508 58.042
3.69 --undefined-- 57.396
3.70 --undefined-- 56.791
3.71 --undefined-- 56.332
3.72 --undefined-- 54.092
3.73 --undefined-- 50.226
3.74 --undefined-- 50.130
3.75 --undefined-- 51.910
3.76 --undefined-- 52.568
3.77 --undefined-- 51.947
3.78 --undefined-- 50.636
3.79 --undefined-- 47.734
3.80 --undefined-- 45.991
3.81 --undefined-- 45.902
3.82 --undefined-- 44.970
3.83 --undefined-- 46.281
3.84 --undefined-- 50.716
3.85 --undefined-- 57.618
3.86 --undefined-- 62.833
3.87 --undefined-- 66.680
3.88 --undefined-- 69.055
3.89 --undefined-- 69.782
3.90 90.185 69.357
3.91 90.671 68.643
3.92 95.906 67.863
3.93 100.156 66.711
3.94 99.969 65.204
3.95 100.183 63.528
3.96 103.538 61.656
3.97 --undefined-- 59.850
3.98 --undefined-- 58.158
3.99 --undefined-- 55.904
4.00 --undefined-- 52.787
4.01 --undefined-- 48.238
4.02 --undefined-- 43.732
4.03 --undefined-- 50.025
4.04 --undefined-- 58.759
4.05 --undefined-- 64.633
4.06 117.020 67.438
4.07 113.871 68.151
4.08 110.542 67.733
4.09 112.215 66.852
4.10 113.216 66.564
4.11 113.444 67.245
4.12 114.242 68.145
4.13 113.560 68.493
4.14 112.810 68.009
4.15 113.216 67.035
4.16 114.116 66.013
4.17 115.310 64.752
4.18 115.798 62.762
4.19 117.084 59.849
4.20 119.410 56.787
4.21 121.100 54.228
4.22 122.165 50.813
4.23 --undefined-- 46.109
4.24 --undefined-- 41.497
4.25 --undefined-- 39.995
4.26 --undefined-- 40.714
4.27 --undefined-- 42.307
4.28 --undefined-- 44.761
4.29 --undefined-- 46.402
4.30 --undefined-- 46.003
4.31 --undefined-- 44.133
4.32 --undefined-- 46.731
4.33 --undefined-- 52.884
4.34 132.760 56.717
4.35 125.842 58.477
4.36 125.186 58.961
4.37 115.588 58.573
4.38 113.669 57.486
4.39 113.091 55.539
4.40 114.092 52.494
4.41 --undefined-- 49.027
4.42 --undefined-- 46.809
4.43 --undefined-- 46.091
4.44 --undefined-- 46.274
4.45 --undefined-- 45.903
4.46 --undefined-- 46.895
4.47 --undefined-- 52.269
4.48 115.018 57.328
4.49 111.862 60.763
4.50 104.995 63.104
4.51 101.943 64.872
4.52 100.220 65.961
4.53 98.878 66.220
4.54 98.744 66.032
4.55 98.532 65.765
4.56 98.060 65.374
4.57 96.834 64.801
4.58 95.307 63.810
4.59 93.599 62.259
4.60 93.670 60.466
4.61 93.880 59.290
4.62 95.006 58.678
4.63 91.307 57.496
4.64 94.437 55.640
4.65 91.810 54.244
4.66 --undefined-- 53.291
4.67 --undefined-- 52.015
4.68 --undefined-- 49.713
4.69 --undefined-- 46.871
4.70 --undefined-- 42.780
4.71 --undefined-- 37.552
4.72 --undefined-- 35.905
4.73 --undefined-- 35.998
4.74 --undefined-- 35.248
4.75 --undefined-- 33.746
4.76 --undefined-- 32.346
4.77 --undefined-- 31.600
4.78 --undefined-- 31.870
4.79 --undefined-- 33.388
4.80 --undefined-- 34.417
4.81 --undefined-- 34.781
4.82 --undefined-- 35.323
4.83 --undefined-- 35.813
4.84 --undefined-- 35.840
4.85 --undefined-- 35.473
4.86 --undefined-- 35.728
4.87 --undefined-- 36.377
4.88 --undefined-- 36.812
4.89 --undefined-- 36.918
4.90 --undefined-- 36.755
4.91 --undefined-- 36.475
4.92 --undefined-- 35.777
4.93 --undefined-- 35.632
4.94 --undefined-- 36.829
4.95 --undefined-- 37.162
4.96 --undefined-- 36.145
4.97 --undefined-- 35.280
4.98 --undefined-- 34.821
4.99 --undefined-- 35.033
5.00 --undefined-- 35.909
5.01 --undefined-- 35.681
5.02 --undefined-- 34.240
5.03 --undefined-- 33.872
5.04 --undefined-- 35.242
5.05 --undefined-- 35.744
5.06 --undefined-- 34.748
5.07 --undefined-- 34.339
5.08 --undefined-- 34.680
5.09 --undefined-- 35.004
5.10 --undefined-- 35.172
5.11 --undefined-- 34.293
5.12 --undefined-- 32.676
5.13 --undefined-- 31.423
5.14 --undefined-- 31.388
5.15 --undefined-- 32.033
5.16 --undefined-- 32.652
5.17 --undefined-- 33.387
5.18 --undefined-- 33.570
5.19 --undefined-- 32.428
5.20 --undefined-- 31.576
5.21 --undefined-- 30.843
5.22 --undefined-- 31.580
5.23 --undefined-- 33.460
5.24 --undefined-- 33.453
5.25 --undefined-- 32.011
5.26 --undefined-- 31.446
5.27 --undefined-- 33.236
5.28 --undefined-- 41.664
5.29 --undefined-- 48.751
5.30 --undefined-- 53.123
5.31 --undefined-- 58.495
5.32 --undefined-- 65.015
5.33 --undefined-- 68.851
5.34 98.060 69.889
5.35 92.243 69.129
5.36 89.424 67.301
5.37 88.553 64.996
5.38 88.666 63.216
5.39 88.222 62.297
5.40 86.996 62.910
5.41 87.810 64.246
5.42 --undefined-- 64.591
5.43 --undefined-- 63.427
5.44 --undefined-- 62.241
5.45 93.573 63.368
5.46 94.416 65.172
5.47 95.865 66.531
5.48 97.472 67.615
5.49 102.005 68.079
5.50 106.437 67.769
5.51 106.539 66.955
5.52 107.593 65.988
5.53 107.346 65.166
5.54 112.043 64.272
5.55 112.126 62.990
5.56 112.402 61.250
5.57 111.453 59.214
5.58 108.893 57.525
5.59 107.544 57.475
5.60 107.354 59.611
5.61 107.875 62.510
5.62 107.914 64.557
5.63 --undefined-- 65.411
5.64 --undefined-- 65.565
5.65 --undefined-- 64.984
5.66 83.226 63.700
5.67 82.406 63.242
5.68 88.155 64.154
5.69 88.453 65.155
5.70 --undefined-- 65.751
5.71 --undefined-- 65.560
5.72 --undefined-- 65.347
5.73 --undefined-- 65.105
5.74 --undefined-- 64.574
5.75 --undefined-- 63.896
5.76 --undefined-- 62.733
5.77 --undefined-- 61.983
5.78 --undefined-- 62.029
5.79 --undefined-- 62.311
5.80 --undefined-- 61.513
5.81 --undefined-- 61.202
5.82 --undefined-- 61.275
5.83 --undefined-- 60.937
5.84 --undefined-- 59.405
5.85 --undefined-- 56.600
5.86 --undefined-- 54.666
5.87 --undefined-- 54.282
5.88 --undefined-- 54.522
5.89 --undefined-- 53.744
5.90 117.638 52.957
5.91 117.616 52.845
5.92 120.815 51.906
5.93 123.621 50.134
5.94 --undefined-- 47.426
5.95 --undefined-- 43.687
5.96 --undefined-- 39.746
5.97 --undefined-- 35.963
5.98 --undefined-- 33.792
5.99 --undefined-- 33.570
6.00 --undefined-- 31.757
6.01 --undefined-- 31.073
6.02 --undefined-- 34.385
6.03 --undefined-- 35.889
6.04 --undefined-- 36.764
6.05 --undefined-- 41.419
6.06 --undefined-- 44.658
6.07 --undefined-- 44.648
6.08 --undefined-- 41.774
6.09 --undefined-- 36.878
6.10 --undefined-- 33.090
6.11 --undefined-- 33.546
6.12 --undefined-- 33.989
6.13 --undefined-- 33.514
6.14 --undefined-- 33.046
6.15 --undefined-- 32.697
6.16 --undefined-- 31.803
6.17 --undefined-- 30.760
6.18 --undefined-- 30.884
6.19 --undefined-- 31.199
6.20 --undefined-- 31.728
6.21 --undefined-- 32.479
6.22 --undefined-- 32.912
6.23 --undefined-- 33.063
6.24 --undefined-- 33.964
6.25 --undefined-- 34.695
6.26 --undefined-- 33.946
6.27 --undefined-- 34.034
6.28 --undefined-- 36.056
6.29 --undefined-- 36.115
6.30 --undefined-- 34.007
6.31 --undefined-- 32.667
6.32 --undefined-- 32.075
6.33 --undefined-- 30.912
6.34 --undefined-- 29.700
6.35 --undefined-- 30.086
6.36 --undefined-- 36.906
6.37 --undefined-- 44.603
6.38 --undefined-- 49.582
6.39 --undefined-- 53.504
6.40 --undefined-- 56.940
6.41 99.481 59.743
6.42 99.655 61.781
6.43 99.289 63.031
6.44 98.267 63.528
6.45 97.128 63.140
6.46 97.526 61.710
6.47 99.388 59.216
6.48 101.665 56.339
6.49 --undefined-- 54.698
6.50 --undefined-- 55.142
6.51 --undefined-- --undefined--
6.52 --undefined-- --undefined--
6.53 --undefined-- --undefined--
6.54 --undefined-- --undefined--
