Time Pitch Intensity
0.01 --undefined-- --undefined--
0.02 126.942 --undefined--
0.03 124.928 --undefined--
0.04 120.464 --undefined--
0.05 135.423 71.775
0.06 142.581 73.627
0.07 147.566 76.091
0.08 150.973 77.774
0.09 151.875 78.189
0.10 143.407 77.490
0.11 137.089 76.205
0.12 132.401 74.923
0.13 126.360 73.878
0.14 124.424 73.493
0.15 121.244 73.475
0.16 119.316 73.456
0.17 117.765 73.595
0.18 115.869 74.023
0.19 114.055 74.480
0.20 110.735 74.565
0.21 110.310 73.974
0.22 108.352 72.355
0.23 105.308 69.540
0.24 105.918 66.693
0.25 104.391 65.265
0.26 104.676 64.598
0.27 102.738 64.289
0.28 102.543 64.809
0.29 103.204 66.675
0.30 105.442 69.704
0.31 106.104 72.493
0.32 106.338 74.345
0.33 106.025 75.233
0.34 104.793 75.501
0.35 105.099 75.549
0.36 104.889 75.586
0.37 104.709 75.566
0.38 105.207 75.397
0.39 105.122 74.971
0.40 103.864 74.094
0.41 102.944 72.551
0.42 102.870 70.317
0.43 104.267 67.682
0.44 104.635 65.350
0.45 105.219 64.142
0.46 109.237 63.858
0.47 111.714 63.887
0.48 114.403 64.247
0.49 119.521 65.428
0.50 123.459 67.633
0.51 124.948 70.545
0.52 126.714 73.428
0.53 128.800 75.825
0.54 129.618 77.473
0.55 130.311 78.357
0.56 130.632 78.760
0.57 130.141 79.018
0.58 129.909 79.241
0.59 129.688 79.364
0.60 129.632 79.310
0.61 129.320 79.120
0.62 129.152 78.844
0.63 129.304 78.325
0.64 129.369 77.197
0.65 128.740 74.941
0.66 128.273 71.394
0.67 131.201 67.320
0.68 132.065 63.503
0.69 132.265 59.186
0.70 --undefined-- 55.317
0.71 --undefined-- 60.395
0.72 --undefined-- 68.962
0.73 --undefined-- 74.580
0.74 160.935 76.991
0.75 149.715 76.974
0.76 142.215 75.843
0.77 135.932 75.267
0.78 133.335 75.395
0.79 132.000 75.426
0.80 131.631 75.395
0.81 132.920 75.616
0.82 134.273 75.923
0.83 135.670 75.722
0.84 138.070 75.232
0.85 142.289 75.427
0.86 143.242 75.948
0.87 145.925 76.001
0.88 145.725 76.060
0.89 155.553 76.998
0.90 158.402 78.023
0.91 160.009 78.507
0.92 161.935 78.575
0.93 168.743 78.480
0.94 165.315 78.190
0.95 165.266 77.860
0.96 165.865 77.924
0.97 166.382 78.151
0.98 166.644 78.023
0.99 165.198 77.207
1.00 158.534 76.186
1.01 152.590 75.735
1.02 142.061 75.310
1.03 135.300 74.619
1.04 128.493 74.105
1.05 127.596 74.603
1.06 128.116 75.460
1.07 129.320 75.635
1.08 130.398 75.278
1.09 131.154 74.818
1.10 132.054 74.498
1.11 134.291 74.392
1.12 138.222 74.037
1.13 141.541 73.216
1.14 148.190 73.122
1.15 156.272 74.300
1.16 160.444 75.464
1.17 164.667 75.896
1.18 168.554 75.151
1.19 169.901 72.930
1.20 167.709 69.245
1.21 162.814 64.519
1.22 166.445 59.213
1.23 --undefined-- 54.279
1.24 163.406 53.741
1.25 160.572 53.824
1.26 --undefined-- 51.738
1.27 --undefined-- 48.013
1.28 --undefined-- 44.614
1.29 --undefined-- 42.948
1.30 --undefined-- 41.816
1.31 --undefined-- 42.714
1.32 --undefined-- 53.924
1.33 --undefined-- 64.140
1.34 --undefined-- 71.215
1.35 --undefined-- 75.087
1.36 186.576 76.136
1.37 180.610 75.335
1.38 178.365 74.135
1.39 177.199 73.340
1.40 175.164 72.562
1.41 170.030 72.256
1.42 178.429 73.320
1.43 179.925 74.855
1.44 183.046 76.187
1.45 184.483 77.081
1.46 185.875 77.602
1.47 186.372 77.945
1.48 186.317 78.185
1.49 186.094 78.290
1.50 185.640 78.284
1.51 185.340 78.247
1.52 185.319 78.160
1.53 185.071 77.937
1.54 184.254 77.468
1.55 181.949 76.620
1.56 177.383 75.486
1.57 175.034 74.233
1.58 168.724 72.380
1.59 164.507 69.731
1.60 159.772 66.645
1.61 153.727 62.497
1.62 140.031 57.780
1.63 --undefined-- 61.197
1.64 --undefined-- 69.374
1.65 --undefined-- 74.596
1.66 153.375 76.839
1.67 150.645 76.863
1.68 141.549 75.787
1.69 135.432 75.327
1.70 133.190 75.647
1.71 132.002 75.646
1.72 130.102 75.288
1.73 129.365 75.033
1.74 129.655 74.684
1.75 130.558 73.345
1.76 125.323 70.383
1.77 126.180 65.475
1.78 126.521 59.229
1.79 --undefined-- 55.167
1.80 --undefined-- 53.972
1.81 --undefined-- 53.645
1.82 --undefined-- 54.465
1.83 --undefined-- 56.377
1.84 --undefined-- 60.966
1.85 --undefined-- 69.534
1.86 --undefined-- 75.100
1.87 182.681 77.434
1.88 180.146 77.846
1.89 177.588 77.583
1.90 176.105 77.203
1.91 175.567 77.177
1.92 176.283 77.431
1.93 176.098 77.632
1.94 175.775 77.777
1.95 175.384 77.861
1.96 174.590 77.900
1.97 173.513 77.928
1.98 171.895 77.871
1.99 170.022 77.408
2.00 166.562 76.038
2.01 161.455 73.226
2.02 153.588 68.827
2.03 140.988 63.489
2.04 133.023 62.714
2.05 --undefined-- 69.632
2.06 145.038 74.556
2.07 137.203 76.294
2.08 123.672 75.974
2.09 118.329 75.237
2.10 110.441 74.524
2.11 104.510 73.586
2.12 99.937 72.891
2.13 96.710 72.785
2.14 93.681 72.739
2.15 91.769 72.603
2.16 89.897 72.591
2.17 90.853 72.732
2.18 92.165 73.006
2.19 93.929 73.481
2.20 94.463 73.831
2.21 94.229 73.230
2.22 91.410 70.918
2.23 89.517 66.853
2.24 95.897 62.579
2.25 106.482 59.621
2.26 104.186 56.202
2.27 --undefined-- 51.645
2.28 --undefined-- 48.549
2.29 --undefined-- 49.549
2.30 --undefined-- 53.198
2.31 --undefined-- 58.026
2.32 --undefined-- 65.413
2.33 167.977 72.130
2.34 166.115 76.042
2.35 166.209 77.810
2.36 169.563 78.373
2.37 170.154 78.345
2.38 170.210 78.122
2.39 169.910 77.861
2.40 170.046 77.223
2.41 165.890 76.022
2.42 161.142 75.659
2.43 160.707 76.508
2.44 160.081 77.123
2.45 158.163 77.295
2.46 154.687 77.370
2.47 150.661 77.452
2.48 147.594 77.522
2.49 144.286 77.294
2.50 134.918 76.113
2.51 123.995 74.615
2.52 117.527 73.996
2.53 108.327 73.408
2.54 103.515 72.477
2.55 100.454 71.859
2.56 100.303 71.858
2.57 100.309 71.896
2.58 101.661 71.902
2.59 102.572 72.193
2.60 103.364 72.681
2.61 104.123 72.974
2.62 104.861 72.986
2.63 105.493 73.024
2.64 106.154 73.254
2.65 107.032 73.689
2.66 109.204 74.420
2.67 111.162 75.327
2.68 113.353 75.895
2.69 115.542 75.485
2.70 116.579 73.942
2.71 122.752 73.121
2.72 139.596 75.157
2.73 148.401 77.353
2.74 149.887 78.060
2.75 154.791 77.997
2.76 159.916 78.054
2.77 163.497 78.076
2.78 165.175 77.868
2.79 165.891 77.369
2.80 165.233 76.408
2.81 162.444 74.349
2.82 162.040 70.206
2.83 163.932 63.491
2.84 161.211 57.759
2.85 161.663 57.136
2.86 163.221 55.920
2.87 161.021 53.648
2.88 --undefined-- 52.609
2.89 --undefined-- 52.559
2.90 --undefined-- 52.476
2.91 --undefined-- 52.513
2.92 --undefined-- 52.850
2.93 --undefined-- 53.160
2.94 --undefined-- 53.466
2.95 --undefined-- 53.747
2.96 --undefined-- 53.617
2.97 --undefined-- 53.307
2.98 --undefined-- 53.581
2.99 --undefined-- 53.969
3.00 --undefined-- 54.334
3.01 --undefined-- 54.630
3.02 --undefined-- 54.626
3.03 --undefined-- 54.904
3.04 --undefined-- 54.861
3.05 --undefined-- 53.967
3.06 --undefined-- 52.099
3.07 --undefined-- 48.740
3.08 --undefined-- 46.579
3.09 --undefined-- 56.553
3.10 --undefined-- 64.720
3.11 94.342 70.076
3.12 118.508 73.589
3.13 128.115 75.433
3.14 131.830 75.942
3.15 133.862 75.971
3.16 135.869 76.133
3.17 138.925 76.501
3.18 140.829 77.023
3.19 140.987 77.588
3.20 143.133 78.097
3.21 146.009 78.219
3.22 147.228 77.176
3.23 147.128 74.139
3.24 149.067 69.459
3.25 152.453 65.874
3.26 154.116 68.163
3.27 192.138 73.613
3.28 182.122 76.750
3.29 178.963 77.769
3.30 175.999 77.951
3.31 174.798 77.902
3.32 174.341 77.800
3.33 173.605 78.023
3.34 171.946 78.280
3.35 169.419 78.264
3.36 166.269 78.238
3.37 164.142 78.551
3.38 163.791 78.986
3.39 163.173 79.069
3.40 163.411 78.781
3.41 164.177 78.467
3.42 163.276 78.229
3.43 160.410 77.616
3.44 156.442 76.011
3.45 152.297 72.957
3.46 149.473 68.720
3.47 149.462 65.200
3.48 149.108 62.967
3.49 164.211 60.203
3.50 165.000 56.545
3.51 --undefined-- 52.532
3.52 --undefined-- 48.931
3.53 --undefined-- 47.044
3.54 --undefined-- 45.606
3.55 --undefined-- 46.421
3.56 --undefined-- 56.342
3.57 --undefined-- 65.659
3.58 --undefined-- 71.801
3.59 --undefined-- 75.018
3.60 --undefined-- 75.873
3.61 104.073 75.065
3.62 102.104 73.569
3.63 102.138 72.864
3.64 101.494 73.022
3.65 100.437 73.280
3.66 100.733 73.424
3.67 101.608 73.494
3.68 102.296 73.619
3.69 102.979 73.735
3.70 104.152 73.768
3.71 105.236 73.993
3.72 106.279 74.325
3.73 107.349 74.333
3.74 108.143 73.920
3.75 109.453 73.427
3.76 109.225 72.724
3.77 108.154 71.008
3.78 107.384 68.016
3.79 106.430 64.620
3.80 107.058 62.393
3.81 110.813 62.360
3.82 115.819 65.238
3.83 118.761 69.437
3.84 120.853 72.873
3.85 122.027 74.949
3.86 121.775 75.850
3.87 119.318 75.972
3.88 117.398 75.474
3.89 116.148 74.089
3.90 110.494 71.142
3.91 108.431 66.176
3.92 111.269 60.290
3.93 118.263 55.483
3.94 --undefined-- 51.739
3.95 --undefined-- 49.351
3.96 --undefined-- 49.068
3.97 --undefined-- 56.188
3.98 --undefined-- 66.344
3.99 --undefined-- 72.882
4.00 163.030 76.294
4.01 160.659 77.548
4.02 161.971 77.458
4.03 159.049 76.902
4.04 159.747 76.899
4.05 160.783 76.973
4.06 160.871 76.198
4.07 158.363 75.010
4.08 159.771 75.678
4.09 162.147 77.514
4.10 162.990 78.773
4.11 163.445 79.239
4.12 162.186 79.138
4.13 160.589 78.828
4.14 159.502 78.599
4.15 158.420 78.263
4.16 156.133 77.360
4.17 151.515 75.603
4.18 148.015 72.699
4.19 150.561 68.846
4.20 163.750 68.941
4.21 --undefined-- 73.534
4.22 --undefined-- 75.789
4.23 111.185 75.630
4.24 104.576 74.592
4.25 101.544 74.010
4.26 101.042 74.290
4.27 99.884 74.813
4.28 100.008 75.054
4.29 103.431 75.199
4.30 107.311 75.594
4.31 111.135 76.207
4.32 116.128 76.595
4.33 120.586 76.452
4.34 126.588 76.067
4.35 131.762 76.024
4.36 136.327 76.310
4.37 138.260 76.604
4.38 139.958 76.716
4.39 140.964 76.476
4.40 140.097 76.076
4.41 139.913 76.151
4.42 139.783 76.524
4.43 138.343 76.146
4.44 137.480 74.064
4.45 139.961 69.934
4.46 138.432 65.123
4.47 137.965 61.565
4.48 139.374 57.619
4.49 139.303 52.997
4.50 --undefined-- 53.569
4.51 --undefined-- 64.944
4.52 --undefined-- 72.740
4.53 152.757 76.469
4.54 147.013 77.110
4.55 133.308 76.271
4.56 130.122 75.707
4.57 129.624 75.582
4.58 130.629 75.671
4.59 131.415 75.903
4.60 131.480 76.155
4.61 130.638 76.085
4.62 128.478 74.961
4.63 124.515 72.449
4.64 125.927 68.961
4.65 126.655 65.318
4.66 126.865 61.163
4.67 129.777 56.776
4.68 129.605 53.852
4.69 130.164 52.172
4.70 --undefined-- 50.842
4.71 --undefined-- 56.732
4.72 --undefined-- 64.792
4.73 --undefined-- 69.913
4.74 120.105 72.823
4.75 118.584 74.411
4.76 118.274 75.207
4.77 118.870 75.552
4.78 120.267 75.770
4.79 121.344 75.991
4.80 122.988 76.147
4.81 125.960 76.084
4.82 135.973 75.990
4.83 142.545 76.196
4.84 151.106 76.656
4.85 156.258 77.422
4.86 161.870 78.174
4.87 169.304 78.275
4.88 171.992 77.374
4.89 175.664 75.490
4.90 178.460 72.971
4.91 174.754 70.081
4.92 174.163 67.087
4.93 171.821 64.664
4.94 170.540 67.236
4.95 199.156 73.296
4.96 200.233 77.088
4.97 198.488 78.353
4.98 195.045 77.999
4.99 190.958 76.893
5.00 178.965 75.410
5.01 174.293 74.893
5.02 167.916 76.521
5.03 165.764 77.698
5.04 156.823 77.299
5.05 125.151 --undefined--
5.06 125.641 --undefined--
5.07 --undefined-- --undefined--
5.08 --undefined-- --undefined--
