Time Pitch Intensity
0.01 --undefined-- --undefined--
0.02 119.233 --undefined--
0.03 118.320 --undefined--
0.04 --undefined-- --undefined--
0.05 --undefined-- 65.745
0.06 --undefined-- 63.241
0.07 --undefined-- 60.360
0.08 --undefined-- 56.585
0.09 --undefined-- 49.783
0.10 --undefined-- 40.686
0.11 --undefined-- 39.764
0.12 --undefined-- 49.264
0.13 --undefined-- 57.581
0.14 --undefined-- 61.868
0.15 --undefined-- 63.876
0.16 119.164 65.417
0.17 123.235 66.691
0.18 123.350 67.476
0.19 124.029 67.911
0.20 124.426 67.994
0.21 125.436 67.866
0.22 125.960 67.798
0.23 125.249 67.532
0.24 123.778 66.310
0.25 122.742 63.676
0.26 124.941 59.392
0.27 --undefined-- 53.198
0.28 --undefined-- 46.136
0.29 --undefined-- 43.256
0.30 --undefined-- 43.953
0.31 --undefined-- 46.146
0.32 --undefined-- 48.087
0.33 --undefined-- 48.749
0.34 --undefined-- 48.623
0.35 --undefined-- 54.904
0.36 --undefined-- 62.418
0.37 150.837 66.646
0.38 138.251 68.552
0.39 137.411 69.542
0.40 120.617 70.272
0.41 115.073 70.468
0.42 115.492 70.051
0.43 116.699 69.280
0.44 115.707 68.451
0.45 115.529 67.825
0.46 116.503 67.674
0.47 119.502 68.024
0.48 119.740 68.246
0.49 121.100 68.187
0.50 121.979 68.200
0.51 122.959 68.405
0.52 123.926 68.690
0.53 125.158 68.938
0.54 126.071 69.049
0.55 126.422 69.005
0.56 126.520 68.921
0.57 126.428 68.890
0.58 126.259 68.866
0.59 126.709 68.790
0.60 126.885 68.521
0.61 124.717 67.853
0.62 122.937 66.731
0.63 120.725 64.813
0.64 119.148 61.546
0.65 127.053 57.022
0.66 --undefined-- 52.027
0.67 --undefined-- 48.687
0.68 --undefined-- 51.843
0.69 --undefined-- 54.591
0.70 --undefined-- 54.108
0.71 147.906 51.013
0.72 --undefined-- 46.803
0.73 --undefined-- 42.405
0.74 --undefined-- 37.975
0.75 --undefined-- 36.171
0.76 --undefined-- 39.898
0.77 --undefined-- 49.179
0.78 --undefined-- 58.196
0.79 --undefined-- 63.620
0.80 123.480 66.266
0.81 122.688 67.618
0.82 120.929 68.542
0.83 119.256 68.820
0.84 118.636 68.518
0.85 118.197 68.112
0.86 117.703 67.838
0.87 116.586 67.626
0.88 114.577 67.340
0.89 111.877 66.896
0.90 108.817 66.154
0.91 105.965 64.839
0.92 104.415 63.141
0.93 104.222 62.042
0.94 105.631 62.344
0.95 109.603 63.954
0.96 109.358 65.585
0.97 107.399 66.292
0.98 105.025 66.008
0.99 103.898 65.361
1.00 103.785 64.696
1.01 103.482 63.444
1.02 98.530 60.998
1.03 93.233 57.200
1.04 94.596 52.846
1.05 --undefined-- 48.793
1.06 --undefined-- 44.856
1.07 --undefined-- 40.668
1.08 --undefined-- 41.016
1.09 --undefined-- 50.797
1.10 --undefined-- 59.695
1.11 --undefined-- 65.442
1.12 134.571 68.314
1.13 135.120 68.862
1.14 134.229 67.599
1.15 131.287 64.593
1.16 122.435 59.499
1.17 129.193 52.881
1.18 --undefined-- 47.457
1.19 --undefined-- 44.563
1.20 --undefined-- 44.036
1.21 --undefined-- 45.143
1.22 --undefined-- 46.724
1.23 --undefined-- 52.716
1.24 --undefined-- 59.562
1.25 --undefined-- 63.546
1.26 123.201 65.408
1.27 121.364 66.106
1.28 118.908 66.227
1.29 116.177 66.107
1.30 110.011 66.179
1.31 107.861 66.461
1.32 107.544 67.024
1.33 107.891 67.982
1.34 103.819 68.936
1.35 103.513 69.664
1.36 103.311 70.135
1.37 103.159 70.223
1.38 103.223 69.807
1.39 103.516 68.818
1.40 97.537 66.671
1.41 82.588 62.987
1.42 --undefined-- 57.981
1.43 --undefined-- 51.122
1.44 --undefined-- 43.628
1.45 --undefined-- 40.891
1.46 --undefined-- 40.538
1.47 --undefined-- 40.160
1.48 --undefined-- 39.016
1.49 --undefined-- 37.111
1.50 --undefined-- 34.619
1.51 --undefined-- 33.950
1.52 --undefined-- 35.437
1.53 --undefined-- 36.712
1.54 --undefined-- 37.745
1.55 --undefined-- 37.929
1.56 --undefined-- 37.340
1.57 --undefined-- 37.611
1.58 --undefined-- 38.552
1.59 --undefined-- 39.187
1.60 --undefined-- 39.594
1.61 --undefined-- 39.539
1.62 --undefined-- 38.709
1.63 --undefined-- 37.327
1.64 --undefined-- 36.113
1.65 --undefined-- 36.425
1.66 --undefined-- 37.588
1.67 --undefined-- 38.220
1.68 --undefined-- 38.230
1.69 --undefined-- 37.073
1.70 --undefined-- 34.020
1.71 --undefined-- 31.237
1.72 --undefined-- 33.364
1.73 --undefined-- 36.159
1.74 --undefined-- 37.757
1.75 --undefined-- 37.970
1.76 --undefined-- 35.970
1.77 --undefined-- 31.963
1.78 --undefined-- 31.901
1.79 --undefined-- 35.980
1.80 --undefined-- 39.148
1.81 --undefined-- 39.768
1.82 --undefined-- 40.681
1.83 --undefined-- 51.697
1.84 230.812 59.945
1.85 207.391 64.471
1.86 194.142 66.547
1.87 194.540 67.788
1.88 207.648 68.665
1.89 213.952 69.095
1.90 218.050 69.266
1.91 221.015 69.242
1.92 223.635 69.147
1.93 227.644 68.988
1.94 233.872 68.949
1.95 232.847 69.255
1.96 227.085 69.464
1.97 219.709 69.132
1.98 206.985 68.392
1.99 198.167 67.615
2.00 184.403 66.522
2.01 180.165 64.204
2.02 147.488 60.224
2.03 --undefined-- 54.749
2.04 --undefined-- 47.959
2.05 --undefined-- 41.838
2.06 --undefined-- 40.156
2.07 --undefined-- 40.204
2.08 --undefined-- 38.693
2.09 --undefined-- 35.770
2.10 --undefined-- 34.131
2.11 --undefined-- 35.684
2.12 --undefined-- 40.236
2.13 --undefined-- 51.728
2.14 --undefined-- 60.942
2.15 --undefined-- 66.481
2.16 --undefined-- 69.383
2.17 --undefined-- 70.649
2.18 --undefined-- 70.450
2.19 --undefined-- 68.774
2.20 --undefined-- 66.752
2.21 114.996 65.732
2.22 116.684 65.422
2.23 122.513 64.885
2.24 132.542 64.806
2.25 135.324 66.266
2.26 135.805 68.211
2.27 133.818 69.471
2.28 131.043 69.739
2.29 132.026 69.352
2.30 135.618 68.863
2.31 135.528 68.560
2.32 135.980 68.418
2.33 136.761 68.376
2.34 138.423 68.332
2.35 143.376 67.983
2.36 137.441 66.827
2.37 136.377 64.903
2.38 135.827 63.121
2.39 140.946 62.370
2.40 143.409 62.911
2.41 149.986 64.643
2.42 152.839 66.639
2.43 152.864 67.967
2.44 151.047 68.669
2.45 151.677 69.285
2.46 152.556 69.716
2.47 153.644 69.597
2.48 154.347 68.704
2.49 150.496 66.571
2.50 156.483 62.921
2.51 163.066 58.069
2.52 --undefined-- 51.799
2.53 --undefined-- 45.251
2.54 --undefined-- 43.977
2.55 --undefined-- 45.289
2.56 --undefined-- 47.357
2.57 --undefined-- 48.850
2.58 --undefined-- 50.190
2.59 --undefined-- 56.818
2.60 214.757 63.421
2.61 207.526 67.022
2.62 202.707 68.432
2.63 199.582 68.777
2.64 189.960 68.746
2.65 187.238 68.629
2.66 184.629 68.521
2.67 181.825 68.343
2.68 180.043 68.068
2.69 178.292 67.668
2.70 176.944 67.212
2.71 178.229 66.847
2.72 187.379 66.672
2.73 195.218 67.153
2.74 199.911 67.827
2.75 201.718 67.680
2.76 198.413 66.410
2.77 192.811 63.970
2.78 187.669 60.506
2.79 189.761 56.481
2.80 195.075 51.859
2.81 --undefined-- 46.421
2.82 --undefined-- 46.455
2.83 --undefined-- 56.223
2.84 --undefined-- 63.850
2.85 192.921 68.158
2.86 191.477 69.793
2.87 179.526 69.803
2.88 177.625 69.586
2.89 177.391 69.638
2.90 178.162 69.799
2.91 178.943 69.856
2.92 179.312 69.742
2.93 179.100 69.455
2.94 178.053 69.002
2.95 177.024 68.601
2.96 177.501 68.562
2.97 180.182 69.071
2.98 180.946 69.669
2.99 179.229 69.838
3.00 178.047 69.591
3.01 177.751 69.182
3.02 177.357 68.721
3.03 177.016 68.156
3.04 176.425 67.601
3.05 174.814 67.350
3.06 171.624 67.424
3.07 165.274 67.257
3.08 158.142 66.053
3.09 150.613 63.413
3.10 157.127 59.742
3.11 159.822 56.326
3.12 164.543 53.344
3.13 163.298 48.880
3.14 --undefined-- 42.176
3.15 --undefined-- 45.097
3.16 --undefined-- 54.948
3.17 --undefined-- 61.327
3.18 --undefined-- 64.608
3.19 117.301 65.805
3.20 111.828 65.961
3.21 109.222 65.574
3.22 102.491 64.954
3.23 98.569 64.409
3.24 96.149 63.997
3.25 94.730 63.779
3.26 94.404 63.522
3.27 95.905 63.097
3.28 96.923 62.476
3.29 98.001 61.615
3.30 100.353 60.849
3.31 102.965 60.612
3.32 104.733 60.936
3.33 106.719 61.842
3.34 108.901 63.259
3.35 110.840 64.564
3.36 111.989 65.446
3.37 112.931 65.934
3.38 112.878 66.025
3.39 110.922 65.747
3.40 109.638 65.330
3.41 108.845 65.059
3.42 108.496 65.088
3.43 109.870 65.421
3.44 111.199 65.826
3.45 113.150 66.138
3.46 115.465 66.331
3.47 118.206 66.440
3.48 121.624 66.488
3.49 124.907 66.602
3.50 127.436 66.876
3.51 129.886 67.336
3.52 133.507 67.985
3.53 136.034 68.567
3.54 135.257 68.874
3.55 134.684 69.139
3.56 136.737 69.266
3.57 141.845 68.861
3.58 142.819 68.035
3.59 144.249 67.035
3.60 145.367 65.665
3.61 145.043 63.084
3.62 141.484 58.279
3.63 --undefined-- 50.932
3.64 --undefined-- 43.450
3.65 --undefined-- 39.204
3.66 --undefined-- 35.633
3.67 --undefined-- 32.819
3.68 --undefined-- 30.669
3.69 --undefined-- 29.387
3.70 --undefined-- 32.553
3.71 --undefined-- 36.091
3.72 --undefined-- 37.146
3.73 --undefined-- 37.133
3.74 --undefined-- 42.280
3.75 145.293 47.836
3.76 144.925 50.890
3.77 142.004 51.862
3.78 137.667 51.177
3.79 --undefined-- 50.198
3.80 --undefined-- 56.097
3.81 --undefined-- 62.975
3.82 --undefined-- 66.892
3.83 111.860 68.602
3.84 106.162 68.977
3.85 97.305 68.648
3.86 94.484 68.546
3.87 91.280 68.696
3.88 90.846 68.667
3.89 91.800 68.818
3.90 92.412 69.001
3.91 94.434 69.096
3.92 95.219 69.216
3.93 96.731 69.291
3.94 98.230 69.220
3.95 99.678 68.811
3.96 100.655 67.793
3.97 100.181 66.113
3.98 88.656 63.613
3.99 --undefined-- 59.596
4.00 --undefined-- 53.017
4.01 --undefined-- 45.332
4.02 --undefined-- 41.936
4.03 --undefined-- 39.297
4.04 --undefined-- 36.883
4.05 --undefined-- 35.366
4.06 --undefined-- 35.948
4.07 --undefined-- 37.597
4.08 --undefined-- 38.343
4.09 --undefined-- 38.572
4.10 --undefined-- 37.727
4.11 --undefined-- 36.047
4.12 --undefined-- 37.569
4.13 --undefined-- 39.372
4.14 --undefined-- 39.929
4.15 --undefined-- 39.981
4.16 --undefined-- 39.294
4.17 --undefined-- 38.307
4.18 --undefined-- 38.352
4.19 --undefined-- 39.288
4.20 --undefined-- 40.398
4.21 --undefined-- 41.313
4.22 --undefined-- 41.367
4.23 --undefined-- 40.323
4.24 --undefined-- 38.955
4.25 --undefined-- 38.787
4.26 --undefined-- 39.196
4.27 --undefined-- 38.497
4.28 --undefined-- 36.242
4.29 --undefined-- 33.336
4.30 --undefined-- 33.410
4.31 --undefined-- 35.807
4.32 --undefined-- 37.602
4.33 --undefined-- 37.812
4.34 --undefined-- 36.440
4.35 --undefined-- 35.418
4.36 --undefined-- 38.005
4.37 --undefined-- 41.030
4.38 --undefined-- 42.382
4.39 --undefined-- 42.166
4.40 --undefined-- 41.387
4.41 --undefined-- 40.974
4.42 --undefined-- 41.187
4.43 --undefined-- 41.854
4.44 --undefined-- 47.938
4.45 --undefined-- 58.786
4.46 --undefined-- 66.018
4.47 238.435 70.020
4.48 229.788 71.792
4.49 218.366 72.184
4.50 208.308 71.790
4.51 204.792 71.062
4.52 204.980 70.480
4.53 207.841 70.183
4.54 211.737 69.949
4.55 214.069 69.777
4.56 214.052 69.657
4.57 213.571 69.316
4.58 213.339 68.964
4.59 217.790 69.457
4.60 222.288 70.337
4.61 222.760 70.680
4.62 222.469 70.521
4.63 220.895 70.014
4.64 217.669 68.894
4.65 212.023 66.667
4.66 205.389 62.926
4.67 205.109 57.708
4.68 --undefined-- 51.242
4.69 --undefined-- 45.620
4.70 --undefined-- 45.899
4.71 --undefined-- 48.542
4.72 --undefined-- 49.590
4.73 --undefined-- 52.764
4.74 204.619 59.639
4.75 202.771 64.432
4.76 194.917 66.790
4.77 186.814 68.186
4.78 170.760 69.901
4.79 160.231 71.412
4.80 151.455 72.179
4.81 147.738 72.341
4.82 146.074 72.164
4.83 145.108 72.044
4.84 144.801 72.183
4.85 143.573 72.346
4.86 143.431 72.303
4.87 144.027 71.971
4.88 141.682 71.372
4.89 140.984 70.656
4.90 143.490 70.172
4.91 143.199 69.907
4.92 139.371 69.131
4.93 135.358 67.544
4.94 141.460 66.524
4.95 143.654 67.351
4.96 141.772 68.598
4.97 136.025 69.485
4.98 131.344 70.054
4.99 125.192 70.071
5.00 120.005 69.581
5.01 117.352 68.927
5.02 115.279 68.106
5.03 110.170 66.465
5.04 108.994 63.526
5.05 103.217 59.503
5.06 117.041 54.917
5.07 --undefined-- 49.892
5.08 --undefined-- 43.667
5.09 --undefined-- 39.549
5.10 --undefined-- 39.034
5.11 --undefined-- 38.660
5.12 --undefined-- 45.458
5.13 --undefined-- 54.945
5.14 --undefined-- 61.339
5.15 --undefined-- 64.824
5.16 121.955 66.502
5.17 121.532 67.171
5.18 120.030 67.382
5.19 124.815 67.879
5.20 134.205 68.649
5.21 135.730 69.077
5.22 142.816 68.826
5.23 145.031 67.855
5.24 149.144 66.379
5.25 167.416 65.200
5.26 171.824 65.059
5.27 172.882 65.551
5.28 174.109 66.704
5.29 174.156 68.069
5.30 173.787 69.048
5.31 173.683 69.612
5.32 173.367 69.794
5.33 173.162 69.671
5.34 173.496 69.510
5.35 173.524 69.518
5.36 172.521 69.575
5.37 169.267 69.292
5.38 163.966 68.740
5.39 158.886 68.721
5.40 154.648 69.204
5.41 149.126 69.189
5.42 138.723 68.411
5.43 126.452 67.246
5.44 121.527 65.818
5.45 117.002 63.413
5.46 123.765 60.040
5.47 --undefined-- 56.581
5.48 --undefined-- 52.586
5.49 --undefined-- 47.071
5.50 --undefined-- 41.417
5.51 --undefined-- 42.088
5.52 --undefined-- 44.226
5.53 --undefined-- 45.481
5.54 --undefined-- 47.299
5.55 --undefined-- 49.242
5.56 --undefined-- 50.370
5.57 --undefined-- 49.841
5.58 --undefined-- 50.587
5.59 --undefined-- 58.337
5.60 --undefined-- 64.506
5.61 172.720 67.422
5.62 170.906 68.183
5.63 162.619 68.044
5.64 157.118 67.839
5.65 153.549 67.783
5.66 152.499 67.847
5.67 152.118 67.745
5.68 154.323 67.417
5.69 164.074 67.272
5.70 166.878 67.417
5.71 167.563 67.376
5.72 167.403 66.834
5.73 167.197 65.840
5.74 167.573 64.864
5.75 165.358 64.669
5.76 158.440 65.306
5.77 --undefined-- 65.755
5.78 --undefined-- 65.476
5.79 --undefined-- 64.628
5.80 --undefined-- 63.530
5.81 --undefined-- 62.765
5.82 --undefined-- 62.175
5.83 --undefined-- 61.428
5.84 --undefined-- 60.647
5.85 --undefined-- 59.961
5.86 --undefined-- 58.845
5.87 --undefined-- 56.964
5.88 --undefined-- 54.714
5.89 --undefined-- 52.367
5.90 --undefined-- 50.304
5.91 --undefined-- 46.717
5.92 --undefined-- 40.502
5.93 --undefined-- 36.326
5.94 --undefined-- 38.302
5.95 --undefined-- 41.568
5.96 --undefined-- 43.894
5.97 --undefined-- 45.245
5.98 --undefined-- 46.540
5.99 --undefined-- 47.304
6.00 --undefined-- 47.241
6.01 --undefined-- 53.442
6.02 147.589 60.659
6.03 139.749 64.835
6.04 126.054 66.583
6.05 119.050 67.000
6.06 113.302 66.739
6.07 108.483 65.795
6.08 105.192 64.928
6.09 104.023 64.734
6.10 102.207 64.772
6.11 102.436 64.767
6.12 102.794 64.569
6.13 106.419 64.167
6.14 108.819 --undefined--
6.15 111.942 --undefined--
6.16 --undefined-- --undefined--
6.17 --undefined-- --undefined--
