Time Pitch Intensity
0.01 --undefined-- --undefined--
0.02 90.480 --undefined--
0.03 --undefined-- --undefined--
0.04 --undefined-- --undefined--
0.05 --undefined-- 42.517
0.06 --undefined-- 41.033
0.07 --undefined-- 39.222
0.08 --undefined-- 37.887
0.09 --undefined-- 38.337
0.10 --undefined-- 37.968
0.11 --undefined-- 36.400
0.12 --undefined-- 36.561
0.13 --undefined-- 38.058
0.14 --undefined-- 39.193
0.15 --undefined-- 46.915
0.16 --undefined-- 57.373
0.17 --undefined-- 66.020
0.18 --undefined-- 71.373
0.19 --undefined-- 73.246
0.20 --undefined-- 72.292
0.21 --undefined-- 69.905
0.22 --undefined-- 66.680
0.23 --undefined-- 62.632
0.24 --undefined-- 62.070
0.25 --undefined-- 64.635
0.26 --undefined-- 66.124
0.27 --undefined-- 67.016
0.28 --undefined-- 67.366
0.29 --undefined-- 66.541
0.30 84.260 64.450
0.31 80.621 61.386
0.32 80.188 58.107
0.33 --undefined-- 56.904
0.34 --undefined-- 58.302
0.35 --undefined-- 59.200
0.36 --undefined-- 58.172
0.37 --undefined-- 54.964
0.38 --undefined-- 49.402
0.39 --undefined-- 43.314
0.40 --undefined-- 48.343
0.41 --undefined-- 56.999
0.42 --undefined-- 62.747
0.43 --undefined-- 65.714
0.44 --undefined-- 67.597
0.45 --undefined-- 69.101
0.46 --undefined-- 68.868
0.47 107.098 66.383
0.48 105.930 61.997
0.49 104.170 56.729
0.50 105.887 53.581
0.51 107.015 53.222
0.52 107.553 53.231
0.53 106.394 52.846
0.54 104.655 51.345
0.55 --undefined-- 48.160
0.56 --undefined-- 43.496
0.57 --undefined-- 37.975
0.58 --undefined-- 36.535
0.59 --undefined-- 45.564
0.60 --undefined-- 54.718
0.61 --undefined-- 63.172
0.62 --undefined-- 68.441
0.63 --undefined-- 70.408
0.64 96.924 70.103
0.65 97.577 69.015
0.66 97.860 67.906
0.67 97.230 66.670
0.68 96.524 64.919
0.69 95.528 62.957
0.70 95.394 61.620
0.71 95.624 60.930
0.72 95.228 60.346
0.73 94.838 58.849
0.74 --undefined-- 55.201
0.75 --undefined-- 49.184
0.76 --undefined-- 52.220
0.77 --undefined-- 62.199
0.78 --undefined-- 68.762
0.79 --undefined-- 71.387
0.80 --undefined-- 70.545
0.81 --undefined-- 67.567
0.82 104.045 66.586
0.83 104.049 68.124
0.84 97.566 69.159
0.85 96.756 69.370
0.86 97.343 68.870
0.87 97.581 67.800
0.88 97.764 66.485
0.89 100.846 64.672
0.90 104.235 61.554
0.91 108.792 57.067
0.92 110.961 54.011
0.93 110.975 53.081
0.94 --undefined-- 50.756
0.95 --undefined-- 46.740
0.96 --undefined-- 46.706
0.97 --undefined-- 58.474
0.98 --undefined-- 65.873
0.99 --undefined-- 68.298
1.00 --undefined-- 66.307
1.01 --undefined-- 62.750
1.02 --undefined-- 65.227
1.03 116.584 67.976
1.04 116.340 68.926
1.05 112.855 68.379
1.06 112.213 66.517
1.07 107.613 63.044
1.08 106.411 58.192
1.09 110.902 55.692
1.10 111.818 55.771
1.11 113.038 56.106
1.12 113.508 56.194
1.13 114.147 56.300
1.14 114.924 56.825
1.15 115.513 57.634
1.16 116.136 58.161
1.17 115.859 58.068
1.18 115.132 57.585
1.19 114.330 56.932
1.20 113.693 56.556
1.21 116.253 56.921
1.22 117.399 57.598
1.23 118.155 58.202
1.24 118.301 59.105
1.25 119.261 59.976
1.26 120.177 60.472
1.27 118.524 60.684
1.28 117.869 60.536
1.29 117.502 60.146
1.30 116.620 59.812
1.31 115.486 59.150
1.32 111.763 57.949
1.33 116.617 56.863
1.34 117.431 56.307
1.35 116.181 55.834
1.36 116.884 54.465
1.37 --undefined-- 51.879
1.38 --undefined-- 48.763
1.39 --undefined-- 44.907
1.40 --undefined-- 42.034
1.41 --undefined-- 46.274
1.42 --undefined-- 51.158
1.43 --undefined-- 53.981
1.44 --undefined-- 55.192
1.45 --undefined-- 55.747
1.46 --undefined-- 56.186
1.47 --undefined-- 56.831
1.48 --undefined-- 57.896
1.49 --undefined-- 59.115
1.50 --undefined-- 61.186
1.51 --undefined-- 62.525
1.52 --undefined-- 62.375
1.53 --undefined-- 65.047
1.54 --undefined-- 68.196
1.55 108.968 69.188
1.56 108.277 68.796
1.57 105.276 68.087
1.58 101.915 67.541
1.59 98.477 66.964
1.60 97.185 66.410
1.61 95.974 65.747
1.62 94.151 64.730
1.63 93.615 63.575
1.64 93.946 62.615
1.65 94.891 62.291
1.66 95.396 62.215
1.67 96.169 61.552
1.68 95.552 61.025
1.69 --undefined-- 62.232
1.70 --undefined-- 62.934
1.71 --undefined-- 61.181
1.72 --undefined-- 58.528
1.73 --undefined-- 58.930
1.74 --undefined-- 60.553
1.75 --undefined-- 63.097
1.76 --undefined-- 67.975
1.77 --undefined-- 71.286
1.78 97.193 72.092
1.79 96.362 71.186
1.80 95.228 69.515
1.81 94.688 67.756
1.82 95.693 66.254
1.83 97.870 64.154
1.84 96.847 60.847
1.85 95.568 56.567
1.86 --undefined-- 51.600
1.87 --undefined-- 45.893
1.88 --undefined-- 41.393
1.89 --undefined-- 47.496
1.90 --undefined-- 55.043
1.91 --undefined-- 59.879
1.92 --undefined-- 63.271
1.93 --undefined-- 65.437
1.94 --undefined-- 65.107
1.95 --undefined-- 61.651
1.96 --undefined-- 54.964
1.97 --undefined-- 45.721
1.98 --undefined-- 37.976
1.99 --undefined-- 35.088
2.00 --undefined-- 34.254
2.01 --undefined-- 33.852
2.02 --undefined-- 34.646
2.03 --undefined-- 35.635
2.04 --undefined-- 39.220
2.05 --undefined-- 48.045
2.06 --undefined-- 53.872
2.07 --undefined-- 58.896
2.08 --undefined-- 63.522
2.09 86.900 65.557
2.10 89.470 65.979
2.11 87.842 66.500
2.12 87.121 66.748
2.13 93.238 66.022
2.14 89.701 64.548
2.15 87.038 62.924
2.16 86.751 61.224
2.17 87.570 59.429
2.18 --undefined-- 58.023
2.19 --undefined-- 57.014
2.20 --undefined-- 54.828
2.21 --undefined-- 56.752
2.22 --undefined-- 65.340
2.23 --undefined-- 70.438
2.24 --undefined-- 71.658
2.25 --undefined-- 69.407
2.26 --undefined-- 66.050
2.27 --undefined-- 66.835
2.28 --undefined-- 68.064
2.29 89.269 68.360
2.30 89.151 68.095
2.31 89.542 67.639
2.32 89.835 67.107
2.33 89.980 65.655
2.34 --undefined-- 62.478
2.35 --undefined-- 57.675
2.36 100.512 53.606
2.37 102.138 53.322
2.38 104.843 57.066
2.39 107.752 61.521
2.40 107.698 64.070
2.41 108.330 64.860
2.42 109.058 64.572
2.43 107.201 63.443
2.44 103.793 61.333
2.45 98.234 57.979
2.46 --undefined-- 53.972
2.47 --undefined-- 55.994
2.48 97.376 61.756
2.49 98.718 65.776
2.50 99.397 67.804
2.51 97.339 67.961
2.52 94.211 66.438
2.53 --undefined-- 63.380
2.54 --undefined-- 58.453
2.55 --undefined-- 51.165
2.56 --undefined-- 42.681
2.57 --undefined-- 41.682
2.58 --undefined-- 47.950
2.59 --undefined-- 54.905
2.60 --undefined-- 60.252
2.61 --undefined-- 63.366
2.62 --undefined-- 66.115
2.63 --undefined-- 69.667
2.64 --undefined-- 71.518
2.65 --undefined-- 70.493
2.66 --undefined-- 66.441
2.67 --undefined-- 59.141
2.68 --undefined-- 48.245
2.69 --undefined-- 38.169
2.70 --undefined-- 35.649
2.71 --undefined-- 37.224
2.72 --undefined-- 38.110
2.73 --undefined-- 39.694
2.74 --undefined-- 43.852
2.75 --undefined-- 47.563
2.76 --undefined-- 50.101
2.77 102.967 51.981
2.78 95.866 53.586
2.79 94.695 55.591
2.80 92.691 58.492
2.81 93.301 62.532
2.82 97.105 66.747
2.83 94.985 69.540
2.84 --undefined-- 70.503
2.85 --undefined-- 70.013
2.86 --undefined-- 68.833
2.87 --undefined-- 67.731
2.88 --undefined-- 66.469
2.89 --undefined-- 64.541
2.90 --undefined-- 62.677
2.91 --undefined-- 61.053
2.92 --undefined-- 58.878
2.93 --undefined-- 56.081
2.94 --undefined-- 53.590
2.95 --undefined-- 51.764
2.96 --undefined-- 50.162
2.97 --undefined-- 49.736
2.98 --undefined-- 50.945
2.99 87.727 52.793
3.00 87.699 55.715
3.01 93.012 59.218
3.02 92.495 61.630
3.03 91.674 63.190
3.04 91.759 64.954
3.05 92.368 66.674
3.06 88.919 67.668
3.07 86.169 67.857
3.08 88.159 67.689
3.09 90.573 67.479
3.10 88.906 66.887
3.11 88.691 64.997
3.12 --undefined-- 60.641
3.13 --undefined-- 52.864
3.14 --undefined-- 44.198
3.15 --undefined-- 42.788
3.16 --undefined-- 43.794
3.17 --undefined-- 42.355
3.18 --undefined-- 38.773
3.19 --undefined-- 35.692
3.20 --undefined-- 35.364
3.21 --undefined-- 36.767
3.22 --undefined-- 38.593
3.23 --undefined-- 40.669
3.24 --undefined-- 41.903
3.25 --undefined-- 42.343
3.26 --undefined-- 42.709
3.27 --undefined-- 43.337
3.28 --undefined-- 43.889
3.29 --undefined-- 44.229
3.30 --undefined-- 43.823
3.31 --undefined-- 42.103
3.32 --undefined-- 38.761
3.33 --undefined-- 37.053
3.34 --undefined-- 41.081
3.35 --undefined-- 44.848
3.36 --undefined-- 46.504
3.37 --undefined-- 46.878
3.38 --undefined-- 46.851
3.39 --undefined-- 46.752
3.40 --undefined-- 46.807
3.41 --undefined-- 47.174
3.42 --undefined-- 52.448
3.43 --undefined-- 59.179
3.44 --undefined-- 63.257
3.45 --undefined-- 65.751
3.46 --undefined-- 67.497
3.47 156.931 68.559
3.48 160.775 68.353
3.49 163.106 65.830
3.50 --undefined-- 60.063
3.51 --undefined-- 50.334
3.52 --undefined-- 40.024
3.53 --undefined-- 37.489
3.54 --undefined-- 37.750
3.55 --undefined-- 49.086
3.56 --undefined-- 58.529
3.57 --undefined-- 63.974
3.58 --undefined-- 68.441
3.59 --undefined-- 72.165
3.60 --undefined-- 73.823
3.61 128.834 73.970
3.62 125.897 73.714
3.63 123.902 73.389
3.64 122.653 73.145
3.65 122.473 73.228
3.66 123.974 73.587
3.67 126.364 74.016
3.68 128.093 74.218
3.69 128.707 73.793
3.70 129.720 72.216
3.71 130.789 69.492
3.72 133.269 67.081
3.73 131.031 68.198
3.74 136.266 71.360
3.75 139.028 73.489
3.76 139.341 74.441
3.77 138.826 74.832
3.78 137.466 74.956
3.79 135.985 74.832
3.80 134.167 74.596
3.81 132.886 74.357
3.82 130.663 74.080
3.83 127.882 73.593
3.84 124.499 72.270
3.85 --undefined-- 69.453
3.86 --undefined-- 65.688
3.87 --undefined-- 62.210
3.88 --undefined-- 58.502
3.89 --undefined-- 55.408
3.90 --undefined-- 53.069
3.91 --undefined-- 50.230
3.92 --undefined-- 46.444
3.93 --undefined-- 41.911
3.94 --undefined-- 39.805
3.95 --undefined-- 41.808
3.96 --undefined-- 42.059
3.97 --undefined-- 40.116
3.98 --undefined-- 40.611
3.99 --undefined-- 41.553
4.00 --undefined-- 40.972
4.01 --undefined-- 41.040
4.02 --undefined-- 42.446
4.03 --undefined-- 43.744
4.04 --undefined-- 44.406
4.05 --undefined-- 43.900
4.06 --undefined-- 42.734
4.07 --undefined-- 41.648
4.08 --undefined-- 39.466
4.09 --undefined-- 38.350
4.10 --undefined-- 42.876
4.11 --undefined-- 49.474
4.12 --undefined-- 54.672
4.13 --undefined-- 57.982
4.14 --undefined-- 60.511
4.15 --undefined-- 62.631
4.16 --undefined-- 64.340
4.17 --undefined-- 65.536
4.18 --undefined-- 65.880
4.19 --undefined-- 65.478
4.20 --undefined-- 65.150
4.21 --undefined-- 65.126
4.22 --undefined-- 65.312
4.23 --undefined-- 65.168
4.24 --undefined-- 64.567
4.25 --undefined-- 64.170
4.26 --undefined-- 65.053
4.27 --undefined-- 66.806
4.28 --undefined-- 68.497
4.29 113.932 69.541
4.30 115.191 69.518
4.31 117.781 69.137
4.32 118.614 69.154
4.33 119.647 69.612
4.34 119.711 70.282
4.35 118.918 70.883
4.36 --undefined-- 71.461
4.37 --undefined-- 71.485
4.38 --undefined-- 70.802
4.39 --undefined-- 70.428
4.40 --undefined-- 70.579
4.41 --undefined-- 70.209
4.42 --undefined-- 69.817
4.43 --undefined-- 70.034
4.44 --undefined-- 71.095
4.45 --undefined-- 73.156
4.46 --undefined-- 74.353
4.47 124.901 73.912
4.48 109.717 72.257
4.49 108.760 70.227
4.50 104.042 68.226
4.51 102.432 66.136
4.52 101.645 63.239
4.53 101.152 59.929
4.54 102.179 58.241
4.55 106.164 58.695
4.56 110.927 60.765
4.57 113.829 63.636
4.58 117.414 66.496
4.59 120.472 68.721
4.60 124.190 70.344
4.61 132.815 71.422
4.62 134.560 71.711
4.63 136.140 71.651
4.64 139.793 72.458
4.65 142.349 72.979
4.66 144.407 72.103
4.67 144.805 71.166
4.68 136.092 71.879
4.69 137.601 73.267
4.70 139.066 73.219
4.71 --undefined-- 71.433
4.72 --undefined-- 69.664
4.73 --undefined-- 68.230
4.74 --undefined-- 66.590
4.75 --undefined-- 66.085
4.76 --undefined-- 65.577
4.77 --undefined-- 64.541
4.78 --undefined-- 63.247
4.79 --undefined-- 61.153
4.80 --undefined-- 58.076
4.81 --undefined-- 54.773
4.82 --undefined-- 52.845
4.83 --undefined-- 50.765
4.84 --undefined-- 46.448
4.85 --undefined-- 42.734
4.86 --undefined-- 46.129
4.87 --undefined-- 48.926
4.88 --undefined-- 50.158
4.89 --undefined-- 50.593
4.90 --undefined-- 50.789
4.91 --undefined-- 51.169
4.92 --undefined-- 51.386
4.93 --undefined-- 51.223
4.94 --undefined-- 51.519
4.95 --undefined-- 52.486
4.96 --undefined-- 53.564
4.97 --undefined-- 55.442
4.98 --undefined-- 56.821
4.99 --undefined-- 56.124
5.00 --undefined-- 54.080
5.01 --undefined-- 53.043
5.02 --undefined-- 52.564
5.03 --undefined-- 51.213
5.04 --undefined-- 49.853
5.05 --undefined-- 49.595
5.06 --undefined-- 48.498
5.07 --undefined-- 44.409
5.08 --undefined-- 38.880
5.09 --undefined-- 36.848
5.10 --undefined-- 36.830
5.11 --undefined-- 38.916
5.12 --undefined-- 46.238
5.13 --undefined-- 53.141
5.14 --undefined-- 59.099
5.15 --undefined-- 64.237
5.16 --undefined-- 68.655
5.17 --undefined-- 71.689
5.18 --undefined-- 72.718
5.19 113.724 72.333
5.20 113.673 71.818
5.21 115.799 72.084
5.22 117.404 72.610
5.23 117.687 72.362
5.24 119.233 71.469
5.25 120.831 70.845
5.26 121.840 70.608
5.27 122.376 70.475
5.28 121.840 70.568
5.29 120.607 71.016
5.30 120.217 71.578
5.31 116.109 72.107
5.32 121.091 72.972
5.33 113.720 73.654
5.34 110.475 73.429
5.35 106.605 72.730
5.36 103.604 72.835
5.37 101.489 73.327
5.38 101.073 73.293
5.39 100.699 72.975
5.40 99.210 72.579
5.41 97.958 71.887
5.42 96.386 70.809
5.43 95.946 69.470
5.44 96.625 68.500
5.45 97.779 68.269
5.46 98.494 68.681
5.47 98.935 69.161
5.48 99.471 69.218
5.49 100.170 68.740
5.50 101.535 67.971
5.51 103.237 67.510
5.52 103.155 67.672
5.53 102.896 68.138
5.54 104.245 68.511
5.55 105.216 68.405
5.56 105.903 67.366
5.57 --undefined-- 66.177
5.58 --undefined-- 64.823
5.59 --undefined-- 61.372
5.60 --undefined-- 56.458
5.61 --undefined-- 54.611
5.62 --undefined-- 55.384
5.63 --undefined-- 55.542
5.64 --undefined-- 53.811
5.65 --undefined-- 50.132
5.66 --undefined-- 45.565
5.67 --undefined-- --undefined--
5.68 --undefined-- --undefined--
5.69 --undefined-- --undefined--
5.70 --undefined-- --undefined--
