Time Pitch Intensity
0.01 --undefined-- --undefined--
0.02 --undefined-- --undefined--
0.03 --undefined-- --undefined--
0.04 147.938 --undefined--
0.05 137.266 74.259
0.06 126.736 74.112
0.07 123.142 74.083
0.08 121.458 74.254
0.09 118.250 74.308
0.10 116.838 74.432
0.11 117.327 74.590
0.12 117.967 74.365
0.13 117.099 73.771
0.14 114.628 73.432
0.15 117.158 73.475
0.16 118.847 73.396
0.17 120.314 72.980
0.18 120.717 72.147
0.19 122.283 70.635
0.20 --undefined-- 67.953
0.21 --undefined-- 64.561
0.22 --undefined-- 60.269
0.23 --undefined-- 54.628
0.24 --undefined-- 52.138
0.25 --undefined-- 49.874
0.26 --undefined-- 45.258
0.27 --undefined-- 40.490
0.28 --undefined-- 39.523
0.29 --undefined-- 40.039
0.30 --undefined-- 39.009
0.31 --undefined-- 35.892
0.32 --undefined-- 32.688
0.33 --undefined-- 33.758
0.34 --undefined-- 35.096
0.35 --undefined-- 42.432
0.36 --undefined-- 55.782
0.37 --undefined-- 65.221
0.38 210.314 71.031
0.39 201.856 73.984
0.40 201.238 75.168
0.41 202.505 75.542
0.42 201.099 75.674
0.43 197.344 76.020
0.44 199.005 76.288
0.45 196.279 75.717
0.46 192.270 74.129
0.47 188.035 71.516
0.48 192.351 69.544
0.49 214.126 71.858
0.50 212.385 74.529
0.51 209.179 76.009
0.52 205.653 77.444
0.53 203.009 79.243
0.54 200.350 80.086
0.55 190.205 79.336
0.56 175.281 77.771
0.57 166.094 75.654
0.58 157.606 71.834
0.59 123.452 66.001
0.60 118.847 60.338
0.61 94.340 56.063
0.62 --undefined-- 52.663
0.63 --undefined-- 50.570
0.64 --undefined-- 49.541
0.65 --undefined-- 53.136
0.66 --undefined-- 59.654
0.67 118.254 64.818
0.68 116.307 68.036
0.69 99.740 69.957
0.70 105.790 71.680
0.71 109.349 73.162
0.72 115.105 74.260
0.73 118.260 75.035
0.74 119.829 75.473
0.75 120.869 75.600
0.76 121.763 75.413
0.77 125.139 75.361
0.78 127.703 75.448
0.79 135.210 75.553
0.80 138.470 75.505
0.81 143.300 74.195
0.82 142.868 70.763
0.83 136.820 65.084
0.84 135.650 58.813
0.85 --undefined-- 54.137
0.86 --undefined-- 53.155
0.87 --undefined-- 57.971
0.88 217.982 65.786
0.89 196.279 71.217
0.90 178.871 73.946
0.91 173.366 74.958
0.92 167.271 74.953
0.93 162.725 74.433
0.94 162.419 74.104
0.95 159.563 73.951
0.96 154.536 73.414
0.97 149.117 72.224
0.98 142.440 70.582
0.99 141.364 70.540
1.00 143.601 72.683
1.01 142.196 74.326
1.02 137.079 74.796
1.03 127.897 74.408
1.04 124.308 73.366
1.05 116.755 71.731
1.06 115.971 70.696
1.07 116.672 70.588
1.08 115.679 70.382
1.09 115.442 69.985
1.10 115.929 69.890
1.11 118.734 70.859
1.12 115.793 72.295
1.13 112.037 72.776
1.14 107.291 72.130
1.15 104.580 70.547
1.16 --undefined-- 67.436
1.17 --undefined-- 61.763
1.18 --undefined-- 53.366
1.19 --undefined-- 45.719
1.20 --undefined-- 41.052
1.21 --undefined-- 39.854
1.22 --undefined-- 41.036
1.23 --undefined-- 40.968
1.24 --undefined-- 38.736
1.25 --undefined-- 35.490
1.26 --undefined-- 39.733
1.27 --undefined-- 50.417
1.28 --undefined-- 59.049
1.29 --undefined-- 64.481
1.30 114.452 67.409
1.31 109.354 68.753
1.32 107.770 69.225
1.33 105.705 69.367
1.34 105.322 69.489
1.35 105.354 69.685
1.36 107.675 70.075
1.37 109.620 70.594
1.38 114.209 71.154
1.39 120.681 71.688
1.40 125.289 71.870
1.41 125.357 71.856
1.42 131.572 72.730
1.43 139.882 73.957
1.44 147.039 74.532
1.45 152.062 74.257
1.46 154.130 73.190
1.47 154.393 71.620
1.48 150.882 69.641
1.49 --undefined-- 66.523
1.50 --undefined-- 61.711
1.51 --undefined-- 56.307
1.52 259.996 53.636
1.53 262.088 52.984
1.54 --undefined-- 49.745
1.55 --undefined-- 45.405
1.56 --undefined-- 43.293
1.57 --undefined-- 40.636
1.58 --undefined-- 37.941
1.59 --undefined-- 36.889
1.60 --undefined-- 38.849
1.61 --undefined-- 40.645
1.62 --undefined-- 40.383
1.63 --undefined-- 39.091
1.64 --undefined-- 38.555
1.65 --undefined-- 38.738
1.66 --undefined-- 39.903
1.67 --undefined-- 42.032
1.68 --undefined-- 44.173
1.69 --undefined-- 46.936
1.70 --undefined-- 49.850
1.71 --undefined-- 56.671
1.72 149.361 63.850
1.73 125.029 68.267
1.74 125.920 70.633
1.75 125.526 72.094
1.76 124.675 73.232
1.77 125.910 73.994
1.78 122.753 74.237
1.79 122.736 74.269
1.80 120.409 74.201
1.81 123.568 73.935
1.82 122.486 73.711
1.83 122.067 73.508
1.84 122.529 73.238
1.85 121.451 72.955
1.86 118.235 72.147
1.87 112.090 70.452
1.88 102.718 67.837
1.89 96.397 64.325
1.90 89.998 60.703
1.91 90.838 58.605
1.92 89.020 59.580
1.93 106.747 62.508
1.94 110.260 65.473
1.95 112.133 68.383
1.96 113.942 71.045
1.97 --undefined-- 73.002
1.98 --undefined-- 74.138
1.99 --undefined-- 74.499
2.00 133.439 74.354
2.01 142.409 74.200
2.02 148.148 74.435
2.03 153.843 74.677
2.04 157.618 74.705
2.05 157.734 74.565
2.06 158.966 74.106
2.07 157.222 73.804
2.08 153.189 73.989
2.09 149.935 74.123
2.10 145.441 73.610
2.11 140.977 72.271
2.12 139.595 70.098
2.13 127.420 66.996
2.14 129.396 62.831
2.15 --undefined-- 57.187
2.16 --undefined-- 50.845
2.17 --undefined-- 47.718
2.18 --undefined-- 47.590
2.19 --undefined-- 48.353
2.20 --undefined-- 48.809
2.21 --undefined-- 50.043
2.22 --undefined-- 55.090
2.23 --undefined-- 63.006
2.24 --undefined-- 67.994
2.25 --undefined-- 69.647
2.26 111.134 68.914
2.27 93.928 66.698
2.28 91.156 63.108
2.29 --undefined-- 57.800
2.30 --undefined-- 50.956
2.31 --undefined-- 44.617
2.32 --undefined-- 41.185
2.33 --undefined-- 39.314
2.34 --undefined-- 37.530
2.35 --undefined-- 36.846
2.36 --undefined-- 37.573
2.37 --undefined-- 37.492
2.38 --undefined-- 37.897
2.39 --undefined-- 50.319
2.40 --undefined-- 62.646
2.41 --undefined-- 70.297
2.42 --undefined-- 74.417
2.43 150.001 76.131
2.44 147.635 76.394
2.45 146.948 75.578
2.46 146.373 73.630
2.47 146.276 71.016
2.48 146.216 69.339
2.49 145.319 68.775
2.50 143.481 67.924
2.51 150.926 66.494
2.52 143.788 63.994
2.53 139.350 59.674
2.54 --undefined-- 53.337
2.55 --undefined-- 46.838
2.56 --undefined-- 43.662
2.57 --undefined-- 42.405
2.58 --undefined-- 40.163
2.59 --undefined-- 36.917
2.60 --undefined-- 36.283
2.61 --undefined-- 36.981
2.62 --undefined-- 36.795
2.63 --undefined-- 35.791
2.64 --undefined-- 35.621
2.65 --undefined-- 36.561
2.66 --undefined-- 36.997
2.67 --undefined-- 36.536
2.68 --undefined-- 42.733
2.69 --undefined-- 52.516
2.70 --undefined-- 59.268
2.71 132.609 63.497
2.72 121.860 66.133
2.73 121.246 67.675
2.74 114.391 68.474
2.75 112.709 68.682
2.76 110.029 67.890
2.77 106.137 65.450
2.78 --undefined-- 60.611
2.79 --undefined-- 52.912
2.80 --undefined-- 44.343
2.81 --undefined-- 41.060
2.82 --undefined-- 49.437
2.83 --undefined-- 59.614
2.84 141.623 66.297
2.85 135.530 69.862
2.86 128.479 71.223
2.87 127.019 71.707
2.88 128.939 71.974
2.89 131.788 71.936
2.90 136.125 71.827
2.91 140.816 71.588
2.92 143.568 70.798
2.93 144.044 69.028
2.94 --undefined-- 66.014
2.95 --undefined-- 62.257
2.96 --undefined-- 58.328
2.97 --undefined-- 55.057
2.98 --undefined-- 53.785
2.99 93.766 55.430
3.00 118.282 59.021
3.01 118.664 62.645
3.02 107.963 65.043
3.03 96.659 66.063
3.04 97.972 66.481
3.05 97.991 66.510
3.06 94.277 66.109
3.07 93.891 65.709
3.08 91.794 65.342
3.09 89.595 65.053
3.10 89.639 65.075
3.11 90.569 65.279
3.12 92.826 65.387
3.13 94.941 65.112
3.14 96.769 64.000
3.15 97.463 61.450
3.16 --undefined-- 56.872
3.17 --undefined-- 50.307
3.18 --undefined-- 44.575
3.19 --undefined-- 47.277
3.20 --undefined-- 56.593
3.21 --undefined-- 63.784
3.22 127.772 67.702
3.23 117.377 69.263
3.24 112.102 69.253
3.25 106.422 67.813
3.26 98.783 65.004
3.27 94.604 61.358
3.28 92.589 57.015
3.29 --undefined-- 51.298
3.30 --undefined-- 44.332
3.31 --undefined-- 38.569
3.32 --undefined-- 36.208
3.33 --undefined-- 36.753
3.34 --undefined-- 45.555
3.35 --undefined-- 58.436
3.36 --undefined-- 66.933
3.37 --undefined-- 71.622
3.38 --undefined-- 73.377
3.39 130.963 73.269
3.40 126.880 72.402
3.41 123.235 70.929
3.42 119.691 68.047
3.43 107.930 62.935
3.44 --undefined-- 55.650
3.45 --undefined-- 48.365
3.46 --undefined-- 42.751
3.47 --undefined-- 41.077
3.48 --undefined-- 42.246
3.49 --undefined-- 48.640
3.50 --undefined-- 58.008
3.51 --undefined-- 65.366
3.52 --undefined-- 70.080
3.53 133.987 72.524
3.54 126.608 73.447
3.55 119.994 73.868
3.56 117.614 74.478
3.57 117.809 75.123
3.58 118.948 75.614
3.59 119.522 75.773
3.60 118.678 75.676
3.61 118.265 75.673
3.62 118.311 75.574
3.63 117.623 74.984
3.64 116.282 73.615
3.65 114.137 70.940
3.66 117.776 67.008
3.67 --undefined-- 63.077
3.68 --undefined-- 58.240
3.69 --undefined-- 50.431
3.70 --undefined-- 43.121
3.71 --undefined-- 40.715
3.72 --undefined-- 37.722
3.73 --undefined-- 36.132
3.74 --undefined-- 38.134
3.75 --undefined-- 41.609
3.76 --undefined-- 43.686
3.77 --undefined-- 43.089
3.78 --undefined-- 40.680
3.79 --undefined-- 38.859
3.80 --undefined-- 38.192
3.81 --undefined-- 37.714
3.82 --undefined-- 36.998
3.83 --undefined-- 36.405
3.84 --undefined-- 35.799
3.85 --undefined-- 34.571
3.86 --undefined-- 35.392
3.87 --undefined-- 37.262
3.88 --undefined-- 38.583
3.89 --undefined-- 39.634
3.90 --undefined-- 40.084
3.91 --undefined-- 39.929
3.92 --undefined-- 40.351
3.93 --undefined-- 39.741
3.94 --undefined-- 37.136
3.95 --undefined-- 37.480
3.96 --undefined-- 39.122
3.97 --undefined-- 37.915
3.98 --undefined-- 35.408
3.99 --undefined-- 35.208
4.00 --undefined-- 36.185
4.01 --undefined-- 36.621
4.02 --undefined-- 36.103
4.03 --undefined-- 35.315
4.04 --undefined-- 35.498
4.05 --undefined-- 37.651
4.06 --undefined-- 39.902
4.07 --undefined-- 40.388
4.08 --undefined-- 39.852
4.09 --undefined-- 40.840
4.10 --undefined-- 41.690
4.11 --undefined-- 40.545
4.12 --undefined-- 38.491
4.13 --undefined-- 37.477
4.14 --undefined-- 38.062
4.15 --undefined-- 40.212
4.16 --undefined-- 42.366
4.17 --undefined-- 43.408
4.18 --undefined-- 43.599
4.19 --undefined-- 43.738
4.20 --undefined-- 44.402
4.21 --undefined-- 44.924
4.22 --undefined-- 44.805
4.23 --undefined-- 44.552
4.24 --undefined-- 44.380
4.25 --undefined-- 43.955
4.26 --undefined-- 43.404
4.27 --undefined-- 42.897
4.28 --undefined-- 41.688
4.29 --undefined-- 40.143
4.30 --undefined-- 39.841
4.31 --undefined-- 40.217
4.32 --undefined-- 39.504
4.33 --undefined-- 37.797
4.34 --undefined-- 36.692
4.35 --undefined-- 36.062
4.36 --undefined-- 38.155
4.37 --undefined-- 44.099
4.38 --undefined-- 51.044
4.39 --undefined-- 58.097
4.40 --undefined-- 63.166
4.41 113.416 66.073
4.42 104.416 67.597
4.43 104.011 68.831
4.44 110.644 70.573
4.45 114.786 72.315
4.46 117.351 73.526
4.47 120.060 74.285
4.48 122.918 74.668
4.49 127.016 74.732
4.50 132.644 74.639
4.51 137.035 74.428
4.52 136.533 73.461
4.53 135.462 70.699
4.54 --undefined-- 65.358
4.55 --undefined-- 57.669
4.56 --undefined-- 50.099
4.57 --undefined-- 51.136
4.58 --undefined-- 59.504
4.59 --undefined-- 67.142
4.60 160.128 72.663
4.61 151.172 75.931
4.62 145.119 77.292
4.63 137.735 77.162
4.64 137.646 76.555
4.65 139.424 76.089
4.66 138.420 75.755
4.67 137.290 75.845
4.68 138.957 76.284
4.69 140.065 76.560
4.70 140.221 76.409
4.71 139.301 75.692
4.72 136.219 74.042
4.73 128.515 71.088
4.74 117.302 67.132
4.75 110.676 64.474
4.76 --undefined-- 68.150
4.77 --undefined-- 73.656
4.78 --undefined-- 77.028
4.79 125.664 78.501
4.80 122.522 78.784
4.81 119.635 78.536
4.82 117.710 78.754
4.83 117.021 79.362
4.84 117.524 79.656
4.85 117.902 79.579
4.86 118.201 79.385
4.87 119.077 79.329
4.88 119.914 79.390
4.89 119.327 79.285
4.90 118.747 79.073
4.91 118.681 79.024
4.92 120.155 78.935
4.93 120.788 78.416
4.94 120.492 77.445
4.95 118.416 76.081
4.96 116.804 74.403
4.97 115.586 72.406
4.98 114.333 69.696
4.99 111.682 66.416
5.00 110.998 62.698
5.01 --undefined-- 57.804
5.02 --undefined-- 52.107
5.03 --undefined-- 49.100
5.04 --undefined-- 48.954
5.05 --undefined-- 49.034
5.06 --undefined-- 48.891
5.07 --undefined-- 48.742
5.08 --undefined-- 48.125
5.09 --undefined-- 46.769
5.10 --undefined-- 46.078
5.11 --undefined-- 53.144
5.12 --undefined-- 61.615
5.13 152.474 67.468
5.14 148.813 71.425
5.15 143.415 73.850
5.16 141.489 75.282
5.17 139.425 76.078
5.18 138.796 76.476
5.19 138.291 76.669
5.20 137.998 77.042
5.21 138.627 77.530
5.22 140.557 77.351
5.23 134.365 76.562
5.24 134.418 76.576
5.25 134.867 77.242
5.26 134.390 77.446
5.27 133.335 77.044
5.28 130.093 76.031
5.29 128.837 73.855
5.30 120.566 69.823
5.31 --undefined-- 63.266
5.32 --undefined-- 54.721
5.33 --undefined-- 49.056
5.34 --undefined-- 50.327
5.35 --undefined-- 57.613
5.36 --undefined-- 65.407
5.37 --undefined-- 70.251
5.38 139.863 72.541
5.39 134.672 73.511
5.40 131.459 73.966
5.41 131.413 74.063
5.42 129.654 74.182
5.43 131.498 74.931
5.44 132.438 76.025
5.45 131.616 76.735
5.46 131.156 76.869
5.47 130.898 76.520
5.48 130.612 75.860
5.49 131.694 75.261
5.50 132.879 74.880
5.51 136.276 74.267
5.52 --undefined-- 73.082
5.53 --undefined-- 71.803
5.54 --undefined-- 70.679
5.55 --undefined-- 69.313
5.56 --undefined-- 67.573
5.57 97.495 67.625
5.58 97.779 68.827
5.59 --undefined-- 70.424
5.60 --undefined-- 72.142
5.61 --undefined-- 73.426
5.62 --undefined-- 74.534
5.63 133.356 75.397
5.64 132.817 76.040
5.65 133.146 76.435
5.66 134.493 76.560
5.67 135.654 76.432
5.68 134.935 75.633
5.69 114.433 74.116
5.70 116.031 72.201
5.71 100.356 69.683
5.72 99.301 66.636
5.73 98.429 65.240
5.74 105.792 67.034
5.75 --undefined-- 69.585
5.76 --undefined-- 71.929
5.77 --undefined-- 73.697
5.78 140.231 74.357
5.79 140.031 74.158
5.80 137.842 74.166
5.81 136.758 74.405
5.82 137.194 74.400
5.83 137.436 74.155
5.84 137.072 73.770
5.85 135.838 73.197
5.86 135.416 72.392
5.87 133.790 71.173
5.88 131.274 69.127
5.89 --undefined-- 65.024
5.90 --undefined-- 57.792
5.91 --undefined-- 48.600
5.92 --undefined-- 44.996
5.93 --undefined-- 44.646
5.94 --undefined-- 47.020
5.95 --undefined-- 56.612
5.96 --undefined-- 64.855
5.97 159.866 69.905
5.98 150.529 72.422
5.99 144.857 73.277
6.00 141.565 72.924
6.01 135.008 72.388
6.02 135.022 73.162
6.03 138.043 74.471
6.04 138.818 75.207
6.05 137.934 75.257
6.06 136.767 74.586
6.07 135.764 72.893
6.08 133.210 69.795
6.09 129.359 65.041
6.10 --undefined-- 58.575
6.11 --undefined-- 54.376
6.12 --undefined-- --undefined--
6.13 --undefined-- --undefined--
6.14 --undefined-- --undefined--
6.15 --undefined-- --undefined--
