Time Pitch Intensity
0.01 --undefined-- --undefined--
0.02 120.106 --undefined--
0.03 122.353 --undefined--
0.04 121.905 --undefined--
0.05 137.067 63.091
0.06 139.329 60.398
0.07 141.528 60.081
0.08 142.463 60.322
0.09 143.553 61.003
0.10 143.376 62.050
0.11 141.410 63.178
0.12 139.089 64.882
0.13 136.842 67.168
0.14 133.316 69.356
0.15 131.139 70.891
0.16 130.125 71.704
0.17 123.100 72.363
0.18 121.056 72.847
0.19 120.711 72.950
0.20 120.751 72.764
0.21 120.173 72.361
0.22 119.622 71.691
0.23 119.073 70.465
0.24 117.736 68.581
0.25 117.284 66.477
0.26 117.242 64.925
0.27 116.833 63.862
0.28 113.863 62.376
0.29 112.865 60.935
0.30 111.755 60.551
0.31 110.635 62.976
0.32 --undefined-- 67.544
0.33 --undefined-- 70.424
0.34 108.470 71.353
0.35 108.650 71.189
0.36 109.339 70.794
0.37 111.027 70.696
0.38 112.201 70.764
0.39 114.995 71.101
0.40 116.262 71.736
0.41 118.754 72.199
0.42 120.076 72.170
0.43 123.473 71.634
0.44 127.018 70.750
0.45 128.731 69.616
0.46 129.574 68.631
0.47 130.160 68.092
0.48 130.784 67.379
0.49 130.549 65.637
0.50 129.904 63.402
0.51 128.873 62.290
0.52 128.504 62.912
0.53 131.693 66.239
0.54 132.440 69.517
0.55 132.533 71.075
0.56 131.663 71.722
0.57 131.417 72.063
0.58 131.872 72.080
0.59 132.871 71.848
0.60 133.877 71.513
0.61 134.356 71.106
0.62 136.456 70.567
0.63 137.587 70.096
0.64 139.017 69.641
0.65 140.419 69.061
0.66 141.252 68.244
0.67 141.693 67.179
0.68 141.670 66.663
0.69 141.667 66.775
0.70 140.211 66.666
0.71 137.299 66.396
0.72 135.634 67.171
0.73 133.950 69.542
0.74 132.374 71.539
0.75 129.452 71.983
0.76 127.192 71.496
0.77 124.636 71.157
0.78 119.974 70.873
0.79 114.191 70.248
0.80 114.635 69.140
0.81 110.355 67.936
0.82 109.515 67.296
0.83 105.151 66.824
0.84 --undefined-- 66.040
0.85 --undefined-- 65.123
0.86 --undefined-- 64.982
0.87 --undefined-- 65.466
0.88 --undefined-- 66.301
0.89 --undefined-- 67.508
0.90 --undefined-- 69.170
0.91 --undefined-- 70.540
0.92 --undefined-- 71.419
0.93 --undefined-- 72.255
0.94 --undefined-- 73.197
0.95 --undefined-- 74.025
0.96 --undefined-- 74.337
0.97 116.514 74.514
0.98 115.377 74.470
0.99 116.163 74.344
1.00 116.406 74.164
1.01 116.147 73.592
1.02 116.650 73.160
1.03 116.591 73.195
1.04 116.366 73.200
1.05 116.684 73.324
1.06 117.066 73.235
1.07 117.440 72.782
1.08 118.095 72.572
1.09 119.422 72.628
1.10 120.561 72.592
1.11 121.459 72.413
1.12 121.862 72.123
1.13 122.815 71.821
1.14 123.918 71.220
1.15 124.465 69.813
1.16 124.566 67.296
1.17 124.390 62.786
1.18 --undefined-- 55.750
1.19 --undefined-- 49.079
1.20 --undefined-- 45.924
1.21 --undefined-- 43.460
1.22 --undefined-- 41.491
1.23 --undefined-- 39.012
1.24 --undefined-- 36.268
1.25 --undefined-- 35.612
1.26 --undefined-- 36.525
1.27 --undefined-- 36.933
1.28 --undefined-- 36.505
1.29 --undefined-- 35.281
1.30 --undefined-- 34.411
1.31 --undefined-- 35.295
1.32 --undefined-- 39.304
1.33 --undefined-- 43.340
1.34 --undefined-- 48.717
1.35 --undefined-- 54.827
1.36 --undefined-- 57.769
1.37 --undefined-- 57.935
1.38 --undefined-- 57.113
1.39 --undefined-- 55.796
1.40 --undefined-- 54.438
1.41 296.850 55.149
1.42 297.860 55.544
1.43 --undefined-- 55.113
1.44 --undefined-- 56.144
1.45 294.315 57.315
1.46 292.319 56.514
1.47 --undefined-- 54.039
1.48 --undefined-- 52.173
1.49 --undefined-- 52.705
1.50 293.038 53.989
1.51 296.850 54.592
1.52 290.668 54.711
1.53 288.464 53.224
1.54 --undefined-- 48.895
1.55 --undefined-- 41.867
1.56 --undefined-- 37.024
1.57 --undefined-- 37.217
1.58 --undefined-- 36.910
1.59 --undefined-- 36.291
1.60 --undefined-- 37.052
1.61 --undefined-- 38.303
1.62 --undefined-- 39.808
1.63 --undefined-- 48.514
1.64 --undefined-- 57.768
1.65 --undefined-- 65.069
1.66 182.149 69.795
1.67 169.084 71.747
1.68 168.914 71.226
1.69 167.870 68.581
1.70 161.793 64.948
1.71 163.593 63.735
1.72 160.928 64.359
1.73 158.819 65.609
1.74 157.076 67.840
1.75 154.374 69.590
1.76 142.621 69.958
1.77 141.444 69.311
1.78 132.371 68.269
1.79 126.823 66.383
1.80 119.994 63.104
1.81 --undefined-- 58.622
1.82 --undefined-- 53.357
1.83 --undefined-- 48.254
1.84 --undefined-- 45.758
1.85 --undefined-- 44.653
1.86 --undefined-- 45.259
1.87 --undefined-- 55.914
1.88 --undefined-- 64.732
1.89 --undefined-- 69.020
1.90 --undefined-- 69.379
1.91 --undefined-- 68.429
1.92 --undefined-- 69.911
1.93 --undefined-- 70.951
1.94 99.661 70.859
1.95 99.329 70.671
1.96 --undefined-- 70.715
1.97 --undefined-- 70.973
1.98 114.986 71.695
1.99 119.901 72.326
2.00 122.144 72.002
2.01 --undefined-- 70.030
2.02 134.027 66.409
2.03 142.247 63.112
2.04 148.033 62.127
2.05 150.035 62.221
2.06 150.017 62.286
2.07 148.870 62.470
2.08 147.762 63.847
2.09 146.525 66.019
2.10 147.148 67.299
2.11 131.688 67.549
2.12 --undefined-- 67.203
2.13 --undefined-- 66.901
2.14 --undefined-- 66.844
2.15 --undefined-- 67.501
2.16 --undefined-- 68.761
2.17 --undefined-- 69.171
2.18 --undefined-- 68.495
2.19 --undefined-- 68.352
2.20 117.907 69.684
2.21 115.400 70.704
2.22 111.186 70.746
2.23 109.348 71.015
2.24 107.769 71.381
2.25 107.216 71.098
2.26 105.494 70.739
2.27 105.075 70.711
2.28 105.438 70.811
2.29 106.273 71.041
2.30 110.447 71.754
2.31 111.601 71.853
2.32 113.766 70.570
2.33 114.653 68.628
2.34 112.535 66.806
2.35 112.700 64.702
2.36 112.318 61.990
2.37 111.543 60.977
2.38 112.010 63.502
2.39 112.673 66.580
2.40 --undefined-- 68.131
2.41 --undefined-- 68.503
2.42 --undefined-- 68.164
2.43 95.443 67.067
2.44 93.636 65.516
2.45 92.182 62.893
2.46 --undefined-- 58.559
2.47 --undefined-- 53.358
2.48 91.367 50.966
2.49 91.841 50.859
2.50 92.750 50.755
2.51 --undefined-- 49.956
2.52 --undefined-- 49.706
2.53 --undefined-- 50.782
2.54 --undefined-- 51.517
2.55 --undefined-- 51.428
2.56 --undefined-- 51.284
2.57 --undefined-- 51.808
2.58 97.689 52.141
2.59 97.358 51.676
2.60 --undefined-- 50.473
2.61 --undefined-- 48.194
2.62 --undefined-- 44.357
2.63 --undefined-- 39.407
2.64 --undefined-- 36.391
2.65 --undefined-- 37.262
2.66 --undefined-- 43.602
2.67 --undefined-- 48.831
2.68 --undefined-- 50.000
2.69 --undefined-- 47.795
2.70 --undefined-- 46.190
2.71 --undefined-- 49.082
2.72 --undefined-- 54.699
2.73 --undefined-- 59.380
2.74 --undefined-- 62.375
2.75 --undefined-- 65.405
2.76 148.275 68.418
2.77 148.491 70.035
2.78 147.726 70.234
2.79 146.984 69.889
2.80 146.336 69.514
2.81 144.988 69.052
2.82 144.221 68.191
2.83 143.135 66.339
2.84 136.679 63.130
2.85 132.965 59.010
2.86 129.438 55.170
2.87 --undefined-- 51.351
2.88 --undefined-- 47.511
2.89 --undefined-- 45.065
2.90 --undefined-- 46.169
2.91 --undefined-- 51.072
2.92 --undefined-- 56.307
2.93 --undefined-- 60.021
2.94 --undefined-- 63.872
2.95 142.919 68.079
2.96 136.803 70.774
2.97 131.719 71.561
2.98 125.749 71.116
2.99 125.679 70.453
3.00 127.617 70.308
3.01 130.607 70.748
3.02 131.877 70.803
3.03 132.795 69.917
3.04 129.292 68.172
3.05 128.910 65.473
3.06 122.089 61.138
3.07 --undefined-- 55.166
3.08 --undefined-- 50.427
3.09 --undefined-- 47.513
3.10 --undefined-- 45.100
3.11 --undefined-- 45.111
3.12 --undefined-- 45.255
3.13 --undefined-- 43.671
3.14 --undefined-- 40.732
3.15 --undefined-- 37.950
3.16 --undefined-- 36.493
3.17 --undefined-- 39.989
3.18 --undefined-- 53.490
3.19 --undefined-- 62.611
3.20 --undefined-- 67.093
3.21 --undefined-- 67.588
3.22 --undefined-- 65.262
3.23 --undefined-- 66.158
3.24 --undefined-- 69.122
3.25 90.801 70.005
3.26 90.189 69.266
3.27 90.151 68.232
3.28 92.399 68.478
3.29 91.507 69.095
3.30 --undefined-- 68.873
3.31 --undefined-- 67.448
3.32 105.204 64.120
3.33 110.367 60.509
3.34 118.763 59.666
3.35 125.659 60.458
3.36 129.368 61.707
3.37 131.239 62.354
3.38 132.485 62.588
3.39 134.671 63.793
3.40 135.343 66.164
3.41 134.646 67.867
3.42 133.222 68.380
3.43 131.721 67.638
3.44 129.960 65.239
3.45 128.597 62.120
3.46 130.797 61.163
3.47 130.151 61.265
3.48 130.462 61.756
3.49 133.205 63.730
3.50 133.751 66.729
3.51 133.531 69.081
3.52 134.087 69.997
3.53 134.466 69.562
3.54 134.307 68.596
3.55 133.872 67.452
3.56 133.511 65.633
3.57 133.971 63.817
3.58 135.509 63.513
3.59 136.801 63.993
3.60 138.772 64.583
3.61 140.714 65.087
3.62 141.562 66.268
3.63 141.164 69.828
3.64 140.930 72.848
3.65 141.341 73.547
3.66 138.841 72.398
3.67 136.829 70.132
3.68 130.098 66.795
3.69 --undefined-- 61.977
3.70 --undefined-- 56.249
3.71 --undefined-- 52.425
3.72 --undefined-- 50.756
3.73 --undefined-- 49.713
3.74 --undefined-- 48.806
3.75 --undefined-- 47.693
3.76 --undefined-- 45.963
3.77 --undefined-- 46.085
3.78 --undefined-- 49.167
3.79 --undefined-- 53.502
3.80 116.983 58.807
3.81 111.222 63.417
3.82 108.297 66.480
3.83 108.650 68.132
3.84 104.277 68.983
3.85 102.895 69.323
3.86 101.982 69.158
3.87 102.704 68.756
3.88 103.219 68.657
3.89 103.571 69.032
3.90 104.106 69.564
3.91 104.142 70.028
3.92 104.400 70.367
3.93 104.486 70.674
3.94 103.660 70.921
3.95 104.406 70.881
3.96 106.060 70.144
3.97 106.637 68.397
3.98 107.116 65.688
3.99 --undefined-- 61.648
4.00 --undefined-- 55.190
4.01 --undefined-- 47.645
4.02 --undefined-- 44.349
4.03 --undefined-- 43.103
4.04 --undefined-- 45.376
4.05 --undefined-- 50.385
4.06 --undefined-- 53.338
4.07 --undefined-- 54.184
4.08 --undefined-- 54.031
4.09 --undefined-- 54.148
4.10 --undefined-- 56.057
4.11 --undefined-- 60.156
4.12 --undefined-- 64.309
4.13 124.594 67.406
4.14 122.609 69.733
4.15 122.179 71.135
4.16 121.748 71.419
4.17 120.104 70.728
4.18 117.180 69.377
4.19 113.584 68.202
4.20 111.427 68.324
4.21 109.231 69.078
4.22 105.950 69.134
4.23 102.244 68.540
4.24 98.032 68.100
4.25 93.919 67.728
4.26 89.882 67.325
4.27 89.003 66.788
4.28 81.823 66.165
4.29 84.800 65.624
4.30 84.617 65.327
4.31 82.514 65.697
4.32 82.421 65.770
4.33 85.388 65.509
4.34 86.345 65.722
4.35 --undefined-- 65.709
4.36 --undefined-- 64.406
4.37 --undefined-- 61.092
4.38 --undefined-- 55.377
4.39 --undefined-- 47.299
4.40 --undefined-- 41.533
4.41 --undefined-- 42.117
4.42 --undefined-- 48.359
4.43 284.792 53.867
4.44 285.455 56.299
4.45 285.659 55.610
4.46 --undefined-- 52.704
4.47 --undefined-- 55.339
4.48 --undefined-- 62.128
4.49 117.543 67.057
4.50 113.465 69.902
4.51 113.605 70.965
4.52 113.903 70.704
4.53 116.485 69.900
4.54 117.420 69.398
4.55 118.713 69.362
4.56 119.815 69.662
4.57 121.172 70.125
4.58 123.774 70.603
4.59 125.454 70.842
4.60 125.968 70.805
4.61 126.313 70.688
4.62 126.215 70.401
4.63 125.490 70.171
4.64 124.044 70.582
4.65 123.097 71.242
4.66 121.667 71.300
4.67 118.817 70.437
4.68 116.445 68.742
4.69 115.411 66.812
4.70 115.912 66.666
4.71 117.418 68.568
4.72 118.119 70.008
4.73 118.082 70.387
4.74 117.840 70.163
4.75 117.742 69.851
4.76 117.043 69.615
4.77 116.528 69.341
4.78 116.752 69.217
4.79 117.265 69.614
4.80 118.139 69.977
4.81 118.608 69.534
4.82 119.030 68.578
4.83 118.819 67.973
4.84 118.127 68.343
4.85 117.473 69.588
4.86 117.812 71.077
4.87 117.667 72.092
4.88 117.429 72.459
4.89 117.300 72.959
4.90 115.961 73.647
4.91 115.233 74.049
4.92 114.935 74.176
4.93 114.642 74.182
4.94 114.525 74.034
4.95 115.284 73.506
4.96 115.585 72.738
4.97 114.799 72.212
4.98 114.706 72.104
4.99 115.735 72.236
5.00 115.869 72.401
5.01 116.475 72.260
5.02 117.023 71.679
5.03 117.013 70.636
5.04 116.791 69.317
5.05 117.232 68.372
5.06 117.480 67.204
5.07 117.027 64.428
5.08 --undefined-- 59.611
5.09 --undefined-- 54.556
5.10 --undefined-- 51.534
5.11 --undefined-- 48.273
5.12 --undefined-- 44.206
5.13 --undefined-- 41.181
5.14 --undefined-- 38.827
5.15 --undefined-- 36.873
5.16 --undefined-- 36.397
5.17 --undefined-- 35.891
5.18 --undefined-- 35.350
5.19 --undefined-- 35.457
5.20 --undefined-- 35.030
5.21 --undefined-- 35.122
5.22 --undefined-- 35.352
5.23 --undefined-- 34.981
5.24 --undefined-- 35.765
5.25 --undefined-- 36.760
5.26 --undefined-- 35.813
5.27 --undefined-- 34.181
5.28 --undefined-- 34.421
5.29 --undefined-- 40.966
5.30 --undefined-- 50.221
5.31 --undefined-- 57.993
5.32 --undefined-- 64.689
5.33 --undefined-- 69.383
5.34 166.999 71.751
5.35 166.255 72.245
5.36 165.469 71.151
5.37 163.898 68.621
5.38 163.014 65.339
5.39 163.616 63.136
5.40 165.195 63.259
5.41 165.727 64.138
5.42 165.306 64.714
5.43 164.349 64.968
5.44 163.084 65.067
5.45 161.319 64.769
5.46 158.252 63.399
5.47 151.834 --undefined--
5.48 146.939 --undefined--
5.49 --undefined-- --undefined--
5.50 --undefined-- --undefined--
