Time Pitch Intensity
0.01 --undefined-- --undefined--
0.02 190.798 --undefined--
0.03 186.681 --undefined--
0.04 184.452 --undefined--
0.05 182.438 66.820
0.06 168.580 63.325
0.07 178.380 58.100
0.08 --undefined-- 52.486
0.09 --undefined-- 49.886
0.10 --undefined-- 49.637
0.11 --undefined-- 49.950
0.12 --undefined-- 50.552
0.13 --undefined-- 51.601
0.14 --undefined-- 52.582
0.15 --undefined-- 53.281
0.16 --undefined-- 53.991
0.17 --undefined-- 54.188
0.18 --undefined-- 56.377
0.19 --undefined-- 61.979
0.20 --undefined-- 65.952
0.21 --undefined-- 67.653
0.22 --undefined-- 68.048
0.23 128.758 67.658
0.24 123.395 66.846
0.25 120.455 66.316
0.26 119.612 66.062
0.27 119.213 65.587
0.28 118.934 64.845
0.29 126.147 64.236
0.30 127.072 63.889
0.31 126.886 63.689
0.32 125.664 63.529
0.33 124.190 63.257
0.34 124.497 62.788
0.35 126.236 62.216
0.36 127.844 61.765
0.37 131.235 61.902
0.38 136.825 62.478
0.39 139.744 62.938
0.40 142.496 63.117
0.41 142.267 63.136
0.42 149.027 63.362
0.43 148.514 63.759
0.44 145.543 63.725
0.45 143.932 63.317
0.46 142.886 63.042
0.47 141.879 62.987
0.48 142.332 62.997
0.49 143.311 63.265
0.50 145.710 63.926
0.51 149.194 64.717
0.52 166.461 66.249
0.53 166.430 68.427
0.54 167.989 70.379
0.55 168.122 72.056
0.56 167.397 73.350
0.57 163.975 74.014
0.58 161.413 74.179
0.59 159.374 73.969
0.60 157.654 73.472
0.61 155.569 73.854
0.62 154.349 74.762
0.63 152.327 74.751
0.64 150.707 73.995
0.65 --undefined-- 73.170
0.66 --undefined-- 72.423
0.67 --undefined-- 71.215
0.68 --undefined-- 69.674
0.69 --undefined-- 68.782
0.70 --undefined-- 68.055
0.71 --undefined-- 67.347
0.72 --undefined-- 66.972
0.73 --undefined-- 65.414
0.74 --undefined-- 61.348
0.75 --undefined-- 55.140
0.76 --undefined-- 49.997
0.77 --undefined-- 44.931
0.78 --undefined-- 40.397
0.79 --undefined-- 37.927
0.80 --undefined-- 35.571
0.81 --undefined-- 33.381
0.82 --undefined-- 32.830
0.83 --undefined-- 34.367
0.84 --undefined-- 36.315
0.85 --undefined-- 37.191
0.86 --undefined-- 39.510
0.87 --undefined-- 47.703
0.88 --undefined-- 54.307
0.89 --undefined-- 59.584
0.90 142.827 63.692
0.91 146.597 65.989
0.92 150.349 67.027
0.93 154.872 68.408
0.94 152.185 70.394
0.95 153.628 71.654
0.96 151.492 71.701
0.97 148.143 71.231
0.98 147.408 71.152
0.99 146.744 71.255
1.00 146.629 71.147
1.01 147.583 70.977
1.02 147.725 70.887
1.03 148.176 70.989
1.04 149.539 71.500
1.05 150.473 72.185
1.06 150.708 72.707
1.07 152.467 72.801
1.08 154.243 72.082
1.09 157.888 70.860
1.10 169.141 70.158
1.11 178.096 70.321
1.12 185.712 70.933
1.13 189.368 71.457
1.14 191.318 71.529
1.15 193.334 71.013
1.16 193.757 69.904
1.17 192.763 68.274
1.18 193.309 66.419
1.19 193.754 65.178
1.20 196.908 66.176
1.21 203.718 69.179
1.22 202.106 71.672
1.23 190.321 72.666
1.24 184.246 72.869
1.25 179.619 73.048
1.26 176.818 72.982
1.27 173.997 72.505
1.28 170.659 71.854
1.29 164.545 71.345
1.30 160.824 71.008
1.31 157.805 70.621
1.32 153.043 70.176
1.33 148.772 69.922
1.34 146.923 69.923
1.35 144.876 70.011
1.36 142.250 70.028
1.37 140.972 70.001
1.38 140.529 69.926
1.39 141.614 69.783
1.40 144.323 69.851
1.41 147.888 70.230
1.42 152.057 70.813
1.43 154.234 71.414
1.44 154.094 71.984
1.45 151.516 72.590
1.46 151.254 73.148
1.47 152.389 73.349
1.48 152.767 72.747
1.49 152.619 70.878
1.50 153.535 67.480
1.51 155.665 62.920
1.52 151.871 57.587
1.53 152.344 51.866
1.54 --undefined-- 49.583
1.55 --undefined-- 58.270
1.56 --undefined-- 65.650
1.57 --undefined-- 69.804
1.58 161.411 71.458
1.59 154.938 71.324
1.60 149.440 70.238
1.61 148.763 69.089
1.62 142.545 68.189
1.63 140.015 67.919
1.64 137.574 68.567
1.65 137.975 69.430
1.66 138.549 69.960
1.67 138.371 70.129
1.68 137.271 70.085
1.69 143.679 70.178
1.70 140.556 70.589
1.71 139.196 70.873
1.72 138.813 70.873
1.73 139.633 70.577
1.74 137.748 70.313
1.75 140.696 70.051
1.76 136.705 69.341
1.77 135.572 68.653
1.78 133.237 68.529
1.79 131.943 68.607
1.80 127.049 68.804
1.81 125.550 69.324
1.82 124.353 70.085
1.83 123.498 71.001
1.84 124.110 71.592
1.85 125.577 71.506
1.86 125.351 71.033
1.87 123.997 70.533
1.88 123.036 69.917
1.89 121.753 69.061
1.90 116.327 68.060
1.91 115.047 67.070
1.92 112.727 66.213
1.93 111.811 65.712
1.94 111.989 65.343
1.95 106.802 64.533
1.96 105.068 63.322
1.97 99.505 61.807
1.98 89.159 60.134
1.99 --undefined-- 57.756
2.00 --undefined-- 55.489
2.01 --undefined-- 52.852
2.02 --undefined-- 46.966
2.03 --undefined-- 39.814
2.04 --undefined-- 37.969
2.05 --undefined-- 37.636
2.06 --undefined-- 36.543
2.07 --undefined-- 34.451
2.08 --undefined-- 33.577
2.09 --undefined-- 36.664
2.10 --undefined-- 41.505
2.11 --undefined-- 48.663
2.12 --undefined-- 58.063
2.13 --undefined-- 64.400
2.14 --undefined-- 67.913
2.15 133.008 69.641
2.16 135.691 70.426
2.17 139.418 70.355
2.18 140.918 69.125
2.19 143.231 67.575
2.20 158.722 67.399
2.21 168.697 68.058
2.22 179.574 68.785
2.23 190.067 69.502
2.24 198.424 70.155
2.25 203.966 70.738
2.26 205.082 71.348
2.27 205.784 71.810
2.28 206.396 72.117
2.29 205.012 72.495
2.30 207.407 72.864
2.31 209.463 72.687
2.32 194.334 71.821
2.33 191.149 71.303
2.34 189.472 71.269
2.35 187.339 71.155
2.36 184.124 70.911
2.37 181.643 70.512
2.38 180.846 69.928
2.39 180.320 69.219
2.40 178.268 68.503
2.41 174.912 68.043
2.42 167.781 68.039
2.43 162.260 68.233
2.44 157.111 68.139
2.45 152.922 67.879
2.46 149.305 68.018
2.47 147.006 68.349
2.48 144.171 68.470
2.49 143.285 68.437
2.50 142.938 68.374
2.51 142.539 68.583
2.52 142.259 69.023
2.53 142.775 69.459
2.54 144.056 69.826
2.55 145.059 69.937
2.56 145.526 69.637
2.57 145.590 68.860
2.58 141.953 67.424
2.59 137.944 65.299
2.60 137.006 62.831
2.61 146.954 61.823
2.62 159.278 64.430
2.63 148.692 66.980
2.64 145.737 68.142
2.65 140.773 68.625
2.66 133.573 68.752
2.67 130.991 68.616
2.68 129.487 68.411
2.69 129.055 68.333
2.70 128.969 68.529
2.71 129.034 68.734
2.72 130.040 68.606
2.73 133.228 68.284
2.74 136.339 68.211
2.75 138.441 68.294
2.76 138.040 68.076
2.77 135.426 66.999
2.78 130.280 64.613
2.79 131.124 61.132
2.80 125.104 57.437
2.81 124.666 53.690
2.82 --undefined-- 49.153
2.83 --undefined-- 45.300
2.84 --undefined-- 43.488
2.85 --undefined-- 45.418
2.86 --undefined-- 47.716
2.87 --undefined-- 46.483
2.88 --undefined-- 42.152
2.89 --undefined-- 41.268
2.90 --undefined-- 48.982
2.91 --undefined-- 56.296
2.92 157.589 61.607
2.93 154.301 65.172
2.94 152.278 67.425
2.95 151.447 68.735
2.96 148.643 69.199
2.97 147.095 68.878
2.98 143.969 68.098
2.99 140.249 67.527
3.00 138.742 67.228
3.01 137.503 66.914
3.02 136.905 66.731
3.03 137.178 66.718
3.04 138.393 66.751
3.05 140.016 66.981
3.06 140.390 67.175
3.07 141.568 67.203
3.08 142.815 67.342
3.09 147.590 67.874
3.10 151.749 68.591
3.11 154.407 68.820
3.12 154.200 67.904
3.13 153.791 65.513
3.14 170.573 62.175
3.15 176.904 59.427
3.16 178.883 57.869
3.17 178.922 57.099
3.18 178.535 57.370
3.19 187.128 61.000
3.20 188.616 66.264
3.21 184.447 70.033
3.22 183.265 72.050
3.23 183.326 72.832
3.24 183.574 72.969
3.25 183.115 72.709
3.26 182.243 72.132
3.27 180.119 71.562
3.28 177.744 71.151
3.29 175.545 70.535
3.30 176.354 70.144
3.31 174.397 70.703
3.32 172.916 71.077
3.33 172.031 70.981
3.34 172.171 71.348
3.35 171.706 71.993
3.36 171.509 72.191
3.37 171.257 71.911
3.38 170.465 71.567
3.39 169.826 71.452
3.40 169.246 71.274
3.41 168.046 70.351
3.42 167.046 68.272
3.43 163.146 65.000
3.44 173.444 60.964
3.45 175.854 57.234
3.46 179.207 53.465
3.47 --undefined-- 48.688
3.48 --undefined-- 44.446
3.49 --undefined-- 42.087
3.50 --undefined-- 39.524
3.51 --undefined-- 36.793
3.52 --undefined-- 38.608
3.53 --undefined-- 45.922
3.54 --undefined-- 52.630
3.55 --undefined-- 59.715
3.56 --undefined-- 65.748
3.57 --undefined-- 69.631
3.58 --undefined-- 71.717
3.59 174.023 72.765
3.60 175.506 72.468
3.61 177.226 69.753
3.62 173.380 64.249
3.63 183.058 57.975
3.64 186.569 53.079
3.65 --undefined-- 47.205
3.66 --undefined-- 43.392
3.67 --undefined-- 42.389
3.68 --undefined-- 40.680
3.69 --undefined-- 38.578
3.70 --undefined-- 36.486
3.71 --undefined-- 37.053
3.72 --undefined-- 38.644
3.73 --undefined-- 39.008
3.74 --undefined-- 37.962
3.75 --undefined-- 35.950
3.76 --undefined-- 36.692
3.77 --undefined-- 38.790
3.78 --undefined-- 39.495
3.79 --undefined-- 45.963
3.80 --undefined-- 56.811
3.81 --undefined-- 64.235
3.82 174.965 68.678
3.83 166.909 70.778
3.84 157.191 71.102
3.85 147.532 70.683
3.86 141.820 70.607
3.87 138.023 70.743
3.88 135.517 70.625
3.89 134.739 70.546
3.90 137.601 70.865
3.91 138.569 71.153
3.92 139.388 71.145
3.93 139.752 70.897
3.94 139.281 70.400
3.95 136.932 69.483
3.96 132.610 67.995
3.97 129.811 65.925
3.98 130.611 63.600
3.99 139.983 62.914
4.00 144.813 64.934
4.01 141.426 67.252
4.02 136.015 68.579
4.03 132.064 68.887
4.04 131.006 68.830
4.05 129.897 68.978
4.06 129.237 69.148
4.07 129.891 69.083
4.08 130.981 68.855
4.09 131.328 68.491
4.10 129.619 67.926
4.11 128.343 67.682
4.12 129.663 68.248
4.13 131.845 69.131
4.14 132.465 69.814
4.15 130.256 69.966
4.16 129.646 69.675
4.17 128.622 69.112
4.18 127.087 68.162
4.19 126.007 66.847
4.20 121.562 65.387
4.21 116.247 64.174
4.22 106.412 63.058
4.23 104.842 61.905
4.24 118.034 61.155
4.25 113.703 60.621
4.26 114.026 60.208
4.27 111.341 60.042
4.28 112.316 60.145
4.29 112.733 60.413
4.30 110.592 60.418
4.31 109.131 60.219
4.32 109.728 59.928
4.33 109.294 59.311
4.34 109.249 58.634
4.35 109.345 58.462
4.36 109.654 59.003
4.37 109.411 59.673
4.38 105.389 59.976
4.39 101.003 59.955
4.40 102.240 60.076
4.41 104.362 60.479
4.42 104.744 60.984
4.43 105.189 61.679
4.44 105.637 62.396
4.45 108.466 62.950
4.46 113.834 63.374
4.47 118.559 63.701
4.48 120.532 64.042
4.49 122.945 64.364
4.50 121.329 64.417
4.51 114.305 64.418
4.52 112.435 64.397
4.53 110.064 64.033
4.54 110.262 63.437
4.55 112.940 63.152
4.56 118.574 63.709
4.57 114.199 64.336
4.58 --undefined-- 63.533
4.59 --undefined-- 60.539
4.60 --undefined-- 55.309
4.61 --undefined-- 49.613
4.62 --undefined-- 44.243
4.63 --undefined-- 39.864
4.64 --undefined-- 36.364
4.65 --undefined-- 33.627
4.66 --undefined-- 33.370
4.67 --undefined-- 33.605
4.68 --undefined-- 34.379
4.69 --undefined-- 35.746
4.70 --undefined-- 36.445
4.71 --undefined-- 36.625
4.72 --undefined-- 36.435
4.73 --undefined-- 35.418
4.74 --undefined-- 36.827
4.75 --undefined-- 43.510
4.76 --undefined-- 49.467
4.77 --undefined-- 51.941
4.78 --undefined-- 51.771
4.79 --undefined-- 51.940
4.80 --undefined-- 52.439
4.81 --undefined-- 54.561
4.82 --undefined-- 61.077
4.83 --undefined-- 65.620
4.84 129.132 67.242
4.85 120.130 66.925
4.86 119.511 66.164
4.87 114.619 65.791
4.88 112.890 65.746
4.89 112.202 65.610
4.90 113.892 65.233
4.91 113.111 64.751
4.92 119.315 64.156
4.93 125.235 63.800
4.94 128.407 63.930
4.95 131.818 64.345
4.96 134.797 64.959
4.97 136.695 65.746
4.98 137.778 66.530
4.99 139.966 67.294
5.00 144.850 68.307
5.01 150.316 69.371
5.02 154.315 69.981
5.03 154.837 70.047
5.04 150.893 70.158
5.05 146.801 70.656
5.06 142.585 70.502
5.07 136.918 69.100
5.08 117.268 67.250
5.09 116.987 65.377
5.10 113.153 62.981
5.11 115.145 59.992
5.12 112.434 55.737
5.13 --undefined-- 50.087
5.14 --undefined-- 44.931
5.15 --undefined-- 42.227
5.16 --undefined-- 41.610
5.17 --undefined-- 43.468
5.18 --undefined-- 43.416
5.19 --undefined-- 40.800
5.20 --undefined-- 39.352
5.21 --undefined-- 38.732
5.22 --undefined-- 37.007
5.23 --undefined-- 35.685
5.24 --undefined-- 37.006
5.25 --undefined-- 39.030
5.26 --undefined-- 39.835
5.27 --undefined-- 39.527
5.28 --undefined-- 38.558
5.29 --undefined-- 37.656
5.30 --undefined-- 37.081
5.31 --undefined-- 36.167
5.32 --undefined-- 35.614
5.33 --undefined-- 36.761
5.34 --undefined-- 38.024
5.35 --undefined-- 38.173
5.36 --undefined-- 36.878
5.37 --undefined-- 34.675
5.38 --undefined-- 34.324
5.39 --undefined-- 36.191
5.40 --undefined-- 37.690
5.41 --undefined-- 38.090
5.42 --undefined-- 37.967
5.43 --undefined-- 47.197
5.44 --undefined-- 57.046
5.45 --undefined-- 62.838
5.46 166.588 65.576
5.47 167.420 66.458
5.48 165.756 66.704
5.49 161.616 66.949
5.50 160.216 67.661
5.51 165.701 68.993
5.52 169.949 70.394
5.53 174.609 71.573
5.54 179.618 72.367
5.55 183.507 72.872
5.56 187.687 73.414
5.57 193.273 73.781
5.58 196.310 73.765
5.59 198.130 73.572
5.60 201.046 73.386
5.61 203.424 73.206
5.62 203.659 72.862
5.63 202.823 72.071
5.64 200.432 70.475
5.65 191.441 67.863
5.66 181.945 64.116
5.67 180.309 59.152
5.68 --undefined-- 52.481
5.69 --undefined-- 46.366
5.70 --undefined-- 43.979
5.71 --undefined-- 44.686
5.72 --undefined-- 46.974
5.73 --undefined-- 50.772
5.74 --undefined-- 60.133
5.75 235.098 --undefined--
5.76 222.060 --undefined--
5.77 --undefined-- --undefined--
5.78 --undefined-- --undefined--
