Time Pitch Intensity
0.01 --undefined-- --undefined--
0.02 --undefined-- --undefined--
0.03 --undefined-- --undefined--
0.04 --undefined-- --undefined--
0.05 --undefined-- 67.850
0.06 295.240 72.206
0.07 287.695 74.195
0.08 280.679 74.582
0.09 281.191 74.692
0.10 284.378 74.156
0.11 291.470 72.230
0.12 297.781 70.148
0.13 297.661 69.548
0.14 298.059 69.332
0.15 299.263 69.088
0.16 296.770 68.875
0.17 288.731 67.952
0.18 276.444 65.685
0.19 271.488 62.333
0.20 --undefined-- 60.007
0.21 --undefined-- 59.447
0.22 --undefined-- 58.206
0.23 --undefined-- 58.283
0.24 --undefined-- 61.777
0.25 --undefined-- 62.983
0.26 --undefined-- 61.077
0.27 --undefined-- 58.390
0.28 --undefined-- 57.869
0.29 --undefined-- 56.255
0.30 --undefined-- 54.117
0.31 --undefined-- 60.596
0.32 --undefined-- 67.093
0.33 --undefined-- 70.635
0.34 293.802 72.143
0.35 282.140 72.888
0.36 276.171 73.748
0.37 274.077 74.165
0.38 273.388 73.809
0.39 275.098 73.245
0.40 278.388 72.889
0.41 281.728 72.500
0.42 283.933 71.697
0.43 285.553 70.599
0.44 285.735 69.641
0.45 286.845 68.899
0.46 288.513 68.320
0.47 287.562 67.964
0.48 282.835 67.827
0.49 277.066 68.283
0.50 276.222 68.951
0.51 272.594 68.826
0.52 268.365 67.602
0.53 263.476 65.040
0.54 248.638 62.250
0.55 259.229 64.282
0.56 258.651 68.315
0.57 256.137 71.503
0.58 253.156 73.900
0.59 251.269 75.168
0.60 251.489 75.095
0.61 253.824 74.028
0.62 257.530 72.486
0.63 262.456 70.557
0.64 269.201 68.879
0.65 272.645 68.342
0.66 272.897 68.447
0.67 273.363 68.150
0.68 269.120 67.400
0.69 262.974 66.654
0.70 252.930 65.855
0.71 242.603 65.467
0.72 229.552 65.949
0.73 214.685 66.550
0.74 202.080 67.366
0.75 194.226 69.035
0.76 186.127 70.361
0.77 175.460 70.613
0.78 173.654 70.380
0.79 173.035 70.418
0.80 173.413 70.714
0.81 174.441 71.076
0.82 175.741 71.181
0.83 177.705 70.727
0.84 180.524 70.368
0.85 183.888 70.387
0.86 186.555 69.541
0.87 185.702 67.286
0.88 185.142 63.972
0.89 196.296 60.813
0.90 297.121 59.170
0.91 290.292 58.267
0.92 280.712 59.215
0.93 --undefined-- 61.735
0.94 --undefined-- 63.848
0.95 --undefined-- 66.610
0.96 179.390 68.822
0.97 172.449 69.966
0.98 167.621 70.552
0.99 164.985 70.503
1.00 162.616 69.832
1.01 161.539 69.555
1.02 163.548 70.269
1.03 166.931 71.097
1.04 169.750 71.401
1.05 174.772 71.026
1.06 183.983 70.336
1.07 191.352 69.844
1.08 197.298 69.180
1.09 204.049 67.804
1.10 210.297 65.852
1.11 215.295 64.106
1.12 213.225 63.605
1.13 217.920 64.647
1.14 223.736 66.361
1.15 225.260 68.320
1.16 222.935 70.346
1.17 217.289 72.498
1.18 210.970 74.595
1.19 206.846 76.187
1.20 203.023 76.656
1.21 199.057 76.148
1.22 195.083 75.872
1.23 191.991 76.532
1.24 189.182 77.376
1.25 185.752 77.817
1.26 182.930 77.649
1.27 178.244 76.356
1.28 --undefined-- 73.985
1.29 --undefined-- 71.419
1.30 --undefined-- 68.468
1.31 --undefined-- 64.494
1.32 --undefined-- 61.077
1.33 --undefined-- 60.608
1.34 --undefined-- 59.628
1.35 --undefined-- 57.910
1.36 --undefined-- 58.230
1.37 --undefined-- 57.999
1.38 --undefined-- 56.786
1.39 --undefined-- 55.799
1.40 --undefined-- 54.517
1.41 --undefined-- 54.555
1.42 --undefined-- 56.627
1.43 --undefined-- 57.509
1.44 --undefined-- 55.730
1.45 --undefined-- 52.882
1.46 --undefined-- 52.125
1.47 --undefined-- 52.712
1.48 --undefined-- 54.541
1.49 --undefined-- 55.224
1.50 --undefined-- 55.265
1.51 --undefined-- 55.896
1.52 --undefined-- 58.095
1.53 --undefined-- 58.980
1.54 --undefined-- 57.645
1.55 247.371 58.956
1.56 228.226 62.407
1.57 226.383 64.810
1.58 228.438 66.409
1.59 228.887 67.460
1.60 229.568 67.788
1.61 230.631 67.603
1.62 232.412 67.414
1.63 233.604 67.055
1.64 233.150 66.058
1.65 231.349 64.373
1.66 217.541 62.800
1.67 217.411 60.784
1.68 --undefined-- 57.720
1.69 --undefined-- 61.622
1.70 275.946 67.309
1.71 271.107 70.800
1.72 265.219 72.220
1.73 265.168 72.243
1.74 268.314 71.905
1.75 270.587 71.286
1.76 271.741 69.840
1.77 272.401 68.400
1.78 277.318 69.201
1.79 277.799 70.359
1.80 278.601 70.643
1.81 279.472 70.627
1.82 280.192 70.596
1.83 279.506 70.413
1.84 277.632 70.021
1.85 274.652 69.077
1.86 269.865 66.710
1.87 265.265 62.422
1.88 --undefined-- 58.077
1.89 --undefined-- 56.359
1.90 --undefined-- 61.827
1.91 --undefined-- 68.692
1.92 --undefined-- 72.228
1.93 --undefined-- 73.048
1.94 --undefined-- 71.797
1.95 --undefined-- 69.389
1.96 --undefined-- 68.082
1.97 --undefined-- 68.317
1.98 --undefined-- 68.624
1.99 --undefined-- 68.882
2.00 --undefined-- 69.213
2.01 --undefined-- 68.986
2.02 --undefined-- 68.221
2.03 182.417 67.317
2.04 180.320 65.825
2.05 175.367 62.704
2.06 --undefined-- 58.516
2.07 --undefined-- 57.049
2.08 --undefined-- 56.612
2.09 --undefined-- 57.782
2.10 --undefined-- 63.014
2.11 235.904 67.408
2.12 235.191 70.070
2.13 235.564 71.386
2.14 238.528 71.587
2.15 244.518 71.078
2.16 249.540 70.380
2.17 252.875 69.376
2.18 255.327 68.104
2.19 256.953 66.826
2.20 247.933 65.805
2.21 240.203 64.872
2.22 235.610 63.917
2.23 234.951 63.838
2.24 237.114 64.724
2.25 238.220 66.932
2.26 235.441 69.090
2.27 223.181 69.943
2.28 204.407 70.471
2.29 198.173 71.287
2.30 193.400 71.790
2.31 190.663 71.850
2.32 190.535 71.274
2.33 189.932 70.143
2.34 187.971 69.095
2.35 189.374 68.537
2.36 192.167 68.253
2.37 191.978 68.041
2.38 191.029 68.219
2.39 190.509 68.233
2.40 190.143 67.859
2.41 189.781 67.593
2.42 189.703 67.117
2.43 188.830 66.035
2.44 188.074 64.510
2.45 195.967 63.822
2.46 282.486 63.450
2.47 283.089 63.134
2.48 268.392 62.460
2.49 269.975 62.278
2.50 227.923 64.905
2.51 200.172 67.467
2.52 191.980 69.202
2.53 187.361 70.016
2.54 183.648 69.712
2.55 180.105 68.708
2.56 180.015 67.909
2.57 179.239 67.546
2.58 178.733 67.236
2.59 179.039 66.918
2.60 179.684 67.112
2.61 181.293 67.587
2.62 182.373 67.901
2.63 183.484 67.754
2.64 184.532 66.808
2.65 186.398 64.704
2.66 185.606 61.253
2.67 189.281 58.733
2.68 201.555 59.991
2.69 --undefined-- 60.249
2.70 --undefined-- 59.280
2.71 --undefined-- 58.981
2.72 --undefined-- 56.998
2.73 --undefined-- 53.457
2.74 --undefined-- 52.799
2.75 --undefined-- 57.107
2.76 --undefined-- 63.583
2.77 271.192 67.502
2.78 259.968 69.260
2.79 250.753 70.066
2.80 247.696 70.304
2.81 245.510 70.062
2.82 245.064 69.689
2.83 245.089 69.089
2.84 245.809 68.509
2.85 246.951 68.151
2.86 248.353 67.701
2.87 249.542 67.314
2.88 249.287 66.940
2.89 248.577 66.327
2.90 244.340 65.733
2.91 236.348 64.633
2.92 234.487 62.179
2.93 235.958 58.623
2.94 --undefined-- 59.642
2.95 --undefined-- 64.538
2.96 --undefined-- 66.651
2.97 --undefined-- 65.956
2.98 --undefined-- 65.220
2.99 222.921 67.134
3.00 210.551 68.096
3.01 195.236 67.570
3.02 191.144 67.353
3.03 190.458 68.120
3.04 189.982 69.050
3.05 189.737 69.683
3.06 189.482 69.657
3.07 189.879 69.188
3.08 190.137 68.846
3.09 191.645 68.700
3.10 194.109 68.456
3.11 195.701 67.962
3.12 196.142 67.602
3.13 195.485 67.077
3.14 191.376 65.906
3.15 188.366 64.894
3.16 192.430 65.055
3.17 200.493 64.100
3.18 --undefined-- 61.937
3.19 --undefined-- 63.526
3.20 236.293 66.612
3.21 229.784 68.633
3.22 224.952 69.678
3.23 224.966 70.015
3.24 226.883 70.029
3.25 229.655 69.831
3.26 231.771 68.469
3.27 228.528 65.294
3.28 216.694 60.984
3.29 228.699 57.268
3.30 --undefined-- 56.265
3.31 --undefined-- 58.387
3.32 --undefined-- 58.918
3.33 --undefined-- 57.449
3.34 --undefined-- 55.689
3.35 --undefined-- 55.479
3.36 --undefined-- 60.481
3.37 204.013 65.942
3.38 188.931 69.043
3.39 184.402 70.410
3.40 181.358 70.877
3.41 178.868 70.899
3.42 177.781 70.660
3.43 178.596 70.219
3.44 181.333 69.733
3.45 183.787 69.336
3.46 183.366 68.631
3.47 183.161 67.548
3.48 186.600 66.497
3.49 190.762 65.586
3.50 191.546 64.308
3.51 186.751 62.151
3.52 191.055 59.057
3.53 --undefined-- 55.996
3.54 --undefined-- 55.846
3.55 --undefined-- 56.712
3.56 --undefined-- 61.405
3.57 249.138 67.696
3.58 246.109 71.716
3.59 238.304 73.628
3.60 224.913 74.301
3.61 219.088 74.133
3.62 216.563 72.954
3.63 215.651 70.603
3.64 213.333 67.504
3.65 217.214 66.435
3.66 221.505 67.310
3.67 224.611 67.592
3.68 225.961 66.811
3.69 223.617 65.066
3.70 216.503 63.230
3.71 212.441 62.194
3.72 215.053 61.507
3.73 214.319 60.398
3.74 212.032 59.208
3.75 221.644 60.172
3.76 244.238 62.759
3.77 258.970 65.762
3.78 251.228 68.406
3.79 235.250 69.995
3.80 222.543 70.837
3.81 219.680 71.332
3.82 219.309 71.370
3.83 220.328 71.013
3.84 220.905 70.294
3.85 220.960 69.035
3.86 222.069 67.456
3.87 224.149 65.666
3.88 222.285 62.961
3.89 220.916 59.082
3.90 --undefined-- 54.814
3.91 --undefined-- 51.742
3.92 --undefined-- 49.065
3.93 --undefined-- 47.926
3.94 --undefined-- 52.197
3.95 --undefined-- 56.373
3.96 --undefined-- 57.573
3.97 --undefined-- 57.904
3.98 --undefined-- 62.292
3.99 212.464 66.280
4.00 202.767 68.330
4.01 195.759 69.039
4.02 191.650 69.219
4.03 189.133 69.675
4.04 187.717 70.345
4.05 186.872 70.561
4.06 187.232 70.305
4.07 187.841 70.616
4.08 189.432 72.467
4.09 186.736 74.554
4.10 185.128 75.855
4.11 186.043 76.479
4.12 188.118 76.447
4.13 193.771 75.792
4.14 198.269 75.257
4.15 198.124 75.276
4.16 196.902 75.491
4.17 --undefined-- 75.899
4.18 176.262 75.727
4.19 176.285 75.490
4.20 --undefined-- 75.790
4.21 --undefined-- 74.397
4.22 --undefined-- 70.940
4.23 --undefined-- 66.964
4.24 --undefined-- 64.038
4.25 --undefined-- 61.954
4.26 --undefined-- 58.684
4.27 --undefined-- 56.271
4.28 --undefined-- 56.354
4.29 --undefined-- 57.922
4.30 --undefined-- 59.980
4.31 --undefined-- 60.547
4.32 --undefined-- 58.702
4.33 --undefined-- 54.773
4.34 --undefined-- 52.654
4.35 --undefined-- 50.988
4.36 --undefined-- 49.484
4.37 --undefined-- 54.038
4.38 --undefined-- 57.618
4.39 --undefined-- 58.740
4.40 --undefined-- 58.743
4.41 --undefined-- 57.677
4.42 --undefined-- 55.845
4.43 --undefined-- 54.536
4.44 --undefined-- 53.830
4.45 --undefined-- 55.126
4.46 --undefined-- 56.727
4.47 --undefined-- 57.572
4.48 --undefined-- 58.474
4.49 --undefined-- 58.925
4.50 --undefined-- 58.698
4.51 --undefined-- 59.083
4.52 268.013 59.148
4.53 257.436 59.333
4.54 263.781 59.480
4.55 286.079 59.081
4.56 283.757 59.755
4.57 287.749 61.177
4.58 267.698 61.605
4.59 271.279 61.927
4.60 268.470 61.358
4.61 271.738 59.843
4.62 271.287 58.664
4.63 273.074 57.053
4.64 274.544 57.111
4.65 --undefined-- 59.363
4.66 --undefined-- 59.770
4.67 --undefined-- 58.427
4.68 --undefined-- 59.036
4.69 250.119 61.633
4.70 227.724 65.185
4.71 220.792 68.607
4.72 216.794 70.897
4.73 214.487 72.083
4.74 214.537 72.718
4.75 216.865 73.110
4.76 221.214 73.651
4.77 225.528 74.454
4.78 232.158 75.007
4.79 240.584 75.017
4.80 272.596 74.623
4.81 294.623 73.845
4.82 162.510 72.640
4.83 173.339 71.827
4.84 190.703 72.001
4.85 204.650 72.158
4.86 215.872 71.818
4.87 213.465 71.265
4.88 205.721 69.747
4.89 192.176 66.579
4.90 189.986 62.587
4.91 193.839 59.368
4.92 --undefined-- 56.545
4.93 --undefined-- --undefined--
4.94 --undefined-- --undefined--
4.95 --undefined-- --undefined--
4.96 --undefined-- --undefined--
