Time Pitch Intensity
0.01 --undefined-- --undefined--
0.02 --undefined-- --undefined--
0.03 --undefined-- --undefined--
0.04 112.103 --undefined--
0.05 112.230 67.892
0.06 120.442 67.770
0.07 126.431 66.992
0.08 119.127 65.881
0.09 108.659 64.212
0.10 101.996 62.698
0.11 101.231 62.261
0.12 102.569 62.562
0.13 106.135 63.098
0.14 107.429 63.597
0.15 107.974 64.309
0.16 117.384 65.782
0.17 121.123 67.329
0.18 121.748 68.300
0.19 121.881 69.162
0.20 124.174 70.606
0.21 125.221 72.051
0.22 126.459 73.108
0.23 127.761 73.991
0.24 129.705 74.671
0.25 130.963 74.984
0.26 132.272 74.884
0.27 132.780 74.484
0.28 133.471 73.877
0.29 130.914 72.638
0.30 129.188 70.457
0.31 133.205 68.305
0.32 133.733 66.954
0.33 133.211 65.804
0.34 130.508 64.306
0.35 125.593 62.308
0.36 123.200 59.885
0.37 --undefined-- 56.333
0.38 --undefined-- 50.873
0.39 --undefined-- 45.284
0.40 --undefined-- 42.255
0.41 --undefined-- 41.689
0.42 --undefined-- 41.513
0.43 --undefined-- 40.503
0.44 --undefined-- 38.928
0.45 --undefined-- 37.418
0.46 --undefined-- 36.421
0.47 --undefined-- 37.217
0.48 --undefined-- 37.416
0.49 --undefined-- 37.511
0.50 --undefined-- 38.443
0.51 --undefined-- 38.965
0.52 --undefined-- 39.769
0.53 --undefined-- 40.869
0.54 --undefined-- 40.867
0.55 --undefined-- 39.509
0.56 --undefined-- 38.435
0.57 --undefined-- 38.960
0.58 --undefined-- 39.870
0.59 --undefined-- 40.797
0.60 --undefined-- 41.887
0.61 --undefined-- 41.502
0.62 --undefined-- 39.003
0.63 --undefined-- 36.706
0.64 --undefined-- 36.576
0.65 --undefined-- 36.013
0.66 --undefined-- 35.066
0.67 --undefined-- 34.535
0.68 --undefined-- 34.630
0.69 --undefined-- 36.471
0.70 --undefined-- 38.047
0.71 --undefined-- 38.162
0.72 --undefined-- 37.381
0.73 --undefined-- 37.250
0.74 --undefined-- 37.960
0.75 --undefined-- 38.811
0.76 --undefined-- 38.929
0.77 --undefined-- 37.997
0.78 --undefined-- 35.735
0.79 --undefined-- 33.077
0.80 --undefined-- 33.071
0.81 --undefined-- 34.448
0.82 --undefined-- 36.109
0.83 --undefined-- 38.669
0.84 --undefined-- 39.753
0.85 --undefined-- 41.040
0.86 --undefined-- 54.205
0.87 --undefined-- 65.946
0.88 238.874 73.200
0.89 225.365 77.068
0.90 217.010 78.659
0.91 217.381 79.506
0.92 219.460 80.549
0.93 218.705 81.550
0.94 217.484 82.001
0.95 215.377 81.756
0.96 212.034 80.965
0.97 206.581 79.784
0.98 199.678 78.579
0.99 195.171 77.583
1.00 187.261 76.667
1.01 178.479 76.033
1.02 173.221 75.591
1.03 170.877 75.167
1.04 169.203 74.937
1.05 158.948 74.948
1.06 147.469 74.602
1.07 135.247 73.432
1.08 129.780 72.166
1.09 121.888 71.667
1.10 120.773 71.320
1.11 119.606 70.736
1.12 120.752 69.482
1.13 117.025 66.879
1.14 111.094 62.691
1.15 --undefined-- 57.717
1.16 --undefined-- 53.154
1.17 --undefined-- 49.410
1.18 --undefined-- 46.856
1.19 --undefined-- 54.880
1.20 --undefined-- 64.362
1.21 152.559 70.656
1.22 145.862 74.371
1.23 141.397 75.962
1.24 136.002 75.990
1.25 132.666 75.756
1.26 130.745 76.040
1.27 129.294 76.141
1.28 127.023 75.340
1.29 127.393 73.564
1.30 125.561 70.893
1.31 120.606 66.973
1.32 118.100 62.853
1.33 113.067 60.242
1.34 110.815 58.096
1.35 107.734 56.404
1.36 108.471 56.389
1.37 112.330 58.368
1.38 121.678 62.861
1.39 144.726 68.083
1.40 149.769 72.336
1.41 156.020 75.432
1.42 161.633 77.615
1.43 168.193 79.116
1.44 175.326 80.121
1.45 180.968 80.756
1.46 184.872 80.913
1.47 186.532 80.309
1.48 184.691 78.485
1.49 179.510 75.053
1.50 178.496 71.062
1.51 175.529 69.055
1.52 172.222 68.216
1.53 175.482 67.694
1.54 178.058 67.378
1.55 181.676 67.308
1.56 183.418 67.367
1.57 180.569 67.205
1.58 174.777 66.303
1.59 167.155 63.956
1.60 165.767 59.465
1.61 --undefined-- 52.500
1.62 --undefined-- 46.681
1.63 --undefined-- 47.359
1.64 --undefined-- 53.117
1.65 --undefined-- 62.398
1.66 --undefined-- 68.625
1.67 --undefined-- 71.503
1.68 --undefined-- 71.985
1.69 117.626 71.128
1.70 108.125 69.322
1.71 98.702 67.025
1.72 100.303 65.862
1.73 106.097 65.887
1.74 108.750 65.702
1.75 111.996 65.056
1.76 112.844 63.919
1.77 106.776 61.641
1.78 102.495 58.416
1.79 --undefined-- 55.721
1.80 --undefined-- 56.510
1.81 --undefined-- 61.751
1.82 135.214 66.278
1.83 133.327 68.895
1.84 131.718 69.872
1.85 129.551 69.606
1.86 125.181 68.677
1.87 119.002 67.741
1.88 120.850 66.498
1.89 111.180 64.494
1.90 92.941 62.174
1.91 92.435 60.998
1.92 100.713 62.357
1.93 114.535 64.682
1.94 124.330 66.061
1.95 118.233 66.091
1.96 111.023 65.302
1.97 102.785 64.368
1.98 102.856 63.544
1.99 101.489 62.837
2.00 101.245 62.382
2.01 100.306 62.071
2.02 100.416 61.702
2.03 100.804 61.206
2.04 99.864 60.685
2.05 99.684 60.442
2.06 101.107 60.691
2.07 100.801 61.428
2.08 101.860 62.666
2.09 98.650 63.937
2.10 106.542 65.312
2.11 107.582 66.589
2.12 110.089 67.457
2.13 108.779 67.508
2.14 105.737 67.035
2.15 104.346 66.408
2.16 102.945 65.476
2.17 102.504 64.702
2.18 102.428 64.376
2.19 102.526 64.261
2.20 101.916 64.116
2.21 100.499 63.891
2.22 99.014 63.330
2.23 98.966 62.443
2.24 102.930 61.498
2.25 --undefined-- 59.788
2.26 --undefined-- 56.868
2.27 --undefined-- 53.507
2.28 --undefined-- 50.161
2.29 --undefined-- 47.189
2.30 --undefined-- 43.239
2.31 --undefined-- 39.181
2.32 --undefined-- 37.934
2.33 --undefined-- 37.804
2.34 --undefined-- 38.818
2.35 --undefined-- 39.301
2.36 --undefined-- 44.576
2.37 --undefined-- 52.188
2.38 --undefined-- 56.200
2.39 --undefined-- 59.257
2.40 199.831 65.352
2.41 173.598 70.036
2.42 155.888 72.464
2.43 151.987 73.453
2.44 148.275 73.912
2.45 144.250 74.339
2.46 142.273 74.617
2.47 140.608 74.740
2.48 140.630 74.624
2.49 142.310 74.279
2.50 144.839 74.224
2.51 147.684 74.351
2.52 149.860 74.337
2.53 148.401 73.975
2.54 148.307 72.889
2.55 148.298 71.058
2.56 145.985 69.048
2.57 143.401 67.685
2.58 138.913 67.024
2.59 133.931 66.634
2.60 126.406 66.475
2.61 123.826 66.685
2.62 120.348 67.132
2.63 117.388 67.631
2.64 114.391 68.003
2.65 112.736 68.163
2.66 112.218 68.168
2.67 112.576 68.351
2.68 112.967 68.873
2.69 116.269 69.296
2.70 116.579 69.192
2.71 114.447 68.227
2.72 105.570 66.187
2.73 96.500 64.198
2.74 94.309 63.817
2.75 91.867 64.177
2.76 92.411 64.878
2.77 98.092 66.095
2.78 106.384 67.306
2.79 113.525 68.151
2.80 116.289 68.670
2.81 114.932 68.835
2.82 112.633 68.827
2.83 110.936 68.821
2.84 110.008 68.700
2.85 110.651 68.558
2.86 116.312 68.762
2.87 123.104 69.118
2.88 127.774 69.263
2.89 132.076 69.104
2.90 135.749 68.623
2.91 137.035 67.641
2.92 136.130 65.644
2.93 132.543 62.293
2.94 146.161 59.157
2.95 157.586 60.758
2.96 166.229 65.068
2.97 162.427 69.211
2.98 153.788 72.792
2.99 146.955 75.373
3.00 142.011 76.439
3.01 132.234 75.877
3.02 121.723 74.672
3.03 117.591 73.909
3.04 114.129 73.139
3.05 112.533 71.722
3.06 114.239 70.256
3.07 116.127 69.104
3.08 119.025 67.415
3.09 124.399 64.140
3.10 --undefined-- 58.250
3.11 --undefined-- 49.401
3.12 --undefined-- 42.133
3.13 --undefined-- 40.764
3.14 --undefined-- 48.755
3.15 --undefined-- 57.713
3.16 --undefined-- 65.045
3.17 145.641 70.079
3.18 142.998 72.802
3.19 137.252 73.765
3.20 131.548 73.852
3.21 128.514 73.730
3.22 127.265 73.344
3.23 126.941 72.927
3.24 127.320 72.834
3.25 127.686 72.826
3.26 128.464 72.823
3.27 129.772 72.944
3.28 131.716 72.966
3.29 133.463 72.537
3.30 132.409 71.381
3.31 129.232 69.176
3.32 124.209 65.725
3.33 --undefined-- 60.632
3.34 --undefined-- 53.447
3.35 --undefined-- 46.373
3.36 --undefined-- 41.713
3.37 --undefined-- 40.953
3.38 --undefined-- 42.077
3.39 --undefined-- 40.845
3.40 --undefined-- 37.320
3.41 --undefined-- 37.369
3.42 --undefined-- 39.314
3.43 --undefined-- 38.816
3.44 --undefined-- 38.279
3.45 --undefined-- 39.240
3.46 --undefined-- 39.098
3.47 --undefined-- 37.793
3.48 --undefined-- 36.937
3.49 --undefined-- 36.946
3.50 --undefined-- 38.615
3.51 --undefined-- 41.216
3.52 --undefined-- 43.149
3.53 --undefined-- 43.333
3.54 --undefined-- 41.827
3.55 --undefined-- 39.479
3.56 --undefined-- 36.734
3.57 --undefined-- 36.253
3.58 --undefined-- 37.654
3.59 --undefined-- 39.071
3.60 --undefined-- 40.161
3.61 --undefined-- 40.564
3.62 --undefined-- 40.244
3.63 --undefined-- 38.585
3.64 --undefined-- 37.198
3.65 --undefined-- 38.062
3.66 --undefined-- 39.370
3.67 --undefined-- 40.031
3.68 --undefined-- 40.069
3.69 --undefined-- 40.321
3.70 --undefined-- 40.120
3.71 --undefined-- 39.458
3.72 --undefined-- 39.191
3.73 --undefined-- 38.478
3.74 --undefined-- 38.648
3.75 --undefined-- 40.014
3.76 --undefined-- 40.855
3.77 --undefined-- 41.062
3.78 --undefined-- 40.110
3.79 --undefined-- 39.167
3.80 --undefined-- 40.086
3.81 --undefined-- 40.831
3.82 --undefined-- 41.584
3.83 --undefined-- 41.555
3.84 --undefined-- 40.830
3.85 --undefined-- 40.338
3.86 --undefined-- 41.422
3.87 --undefined-- 42.043
3.88 --undefined-- 39.788
3.89 --undefined-- 37.451
3.90 --undefined-- 41.548
3.91 --undefined-- 45.373
3.92 --undefined-- 46.363
3.93 --undefined-- 45.394
3.94 --undefined-- 42.979
3.95 --undefined-- 41.141
3.96 --undefined-- 41.226
3.97 --undefined-- 40.866
3.98 --undefined-- 40.270
3.99 --undefined-- 40.005
4.00 --undefined-- 40.499
4.01 --undefined-- 41.165
4.02 --undefined-- 41.745
4.03 --undefined-- 42.463
4.04 --undefined-- 42.799
4.05 --undefined-- 42.749
4.06 --undefined-- 43.029
4.07 --undefined-- 43.165
4.08 --undefined-- 42.769
4.09 --undefined-- 42.266
4.10 --undefined-- 41.753
4.11 --undefined-- 41.605
4.12 --undefined-- 41.472
4.13 --undefined-- 40.776
4.14 --undefined-- 39.974
4.15 --undefined-- 39.935
4.16 --undefined-- 40.901
4.17 --undefined-- 41.442
4.18 --undefined-- 41.255
4.19 --undefined-- 40.937
4.20 --undefined-- 40.534
4.21 --undefined-- 39.940
4.22 --undefined-- 38.932
4.23 --undefined-- 37.536
4.24 --undefined-- 37.628
4.25 --undefined-- 39.174
4.26 --undefined-- 39.749
4.27 --undefined-- 38.627
4.28 --undefined-- 37.423
4.29 --undefined-- 38.154
4.30 --undefined-- 40.124
4.31 --undefined-- 41.423
4.32 --undefined-- 40.700
4.33 --undefined-- 38.389
4.34 --undefined-- 37.288
4.35 --undefined-- 38.494
4.36 --undefined-- 39.386
4.37 --undefined-- 39.918
4.38 --undefined-- 40.097
4.39 --undefined-- 39.405
4.40 --undefined-- 39.231
4.41 --undefined-- 39.674
4.42 --undefined-- 39.105
4.43 --undefined-- 36.951
4.44 --undefined-- 35.872
4.45 --undefined-- 38.061
4.46 --undefined-- 40.821
4.47 --undefined-- 50.459
4.48 --undefined-- 61.139
4.49 199.705 68.525
4.50 191.439 73.151
4.51 159.543 75.881
4.52 161.882 77.737
4.53 159.049 78.937
4.54 156.171 79.707
4.55 150.463 80.459
4.56 150.554 80.978
4.57 151.245 80.899
4.58 148.575 80.398
4.59 148.415 79.966
4.60 149.969 79.441
4.61 151.323 78.586
4.62 151.312 76.560
4.63 149.859 72.198
4.64 140.940 65.131
4.65 --undefined-- 58.506
4.66 --undefined-- 55.513
4.67 --undefined-- 58.059
4.68 204.947 65.061
4.69 190.036 70.701
4.70 183.820 73.960
4.71 181.431 75.370
4.72 180.629 75.819
4.73 179.257 76.011
4.74 179.718 76.074
4.75 179.940 75.419
4.76 179.531 73.040
4.77 166.502 67.984
4.78 --undefined-- 59.779
4.79 --undefined-- 50.259
4.80 --undefined-- 54.807
4.81 --undefined-- 65.198
4.82 238.207 72.236
4.83 214.157 76.083
4.84 206.918 77.392
4.85 202.556 77.297
4.86 197.486 76.871
4.87 191.767 75.536
4.88 187.236 72.402
4.89 176.422 68.137
4.90 86.151 65.122
4.91 83.642 64.242
4.92 80.514 65.391
4.93 76.982 67.832
4.94 148.604 71.086
4.95 142.271 74.046
4.96 141.866 75.814
4.97 133.264 76.348
4.98 131.559 76.300
4.99 129.052 76.412
5.00 128.405 76.745
5.01 127.903 76.938
5.02 127.297 76.848
5.03 126.248 76.724
5.04 125.620 76.697
5.05 124.156 76.569
5.06 122.979 76.280
5.07 122.509 76.042
5.08 122.008 75.904
5.09 121.296 75.746
5.10 120.701 75.434
5.11 119.682 74.645
5.12 120.378 73.263
5.13 --undefined-- 71.382
5.14 --undefined-- 68.893
5.15 --undefined-- 66.002
5.16 --undefined-- 61.795
5.17 --undefined-- 57.578
5.18 --undefined-- 54.436
5.19 --undefined-- 51.763
5.20 --undefined-- 49.778
5.21 --undefined-- 46.775
5.22 --undefined-- 42.098
5.23 --undefined-- 37.204
5.24 --undefined-- 36.159
5.25 --undefined-- 38.945
5.26 --undefined-- 41.656
5.27 --undefined-- 42.378
5.28 --undefined-- 42.033
5.29 --undefined-- 42.196
5.30 --undefined-- 41.772
5.31 --undefined-- 40.216
5.32 --undefined-- 39.216
5.33 --undefined-- 39.519
5.34 --undefined-- 39.636
5.35 --undefined-- 38.394
5.36 --undefined-- 36.423
5.37 --undefined-- 36.223
5.38 --undefined-- 37.493
5.39 --undefined-- 37.761
5.40 --undefined-- 43.323
5.41 --undefined-- 51.308
5.42 --undefined-- 56.202
5.43 --undefined-- 57.852
5.44 --undefined-- 60.349
5.45 163.956 66.748
5.46 166.853 71.180
5.47 157.270 73.348
5.48 148.368 74.144
5.49 147.954 73.888
5.50 149.721 72.383
5.51 144.039 69.650
5.52 138.676 66.346
5.53 138.776 64.750
5.54 145.942 67.632
5.55 157.924 71.570
5.56 162.556 74.394
5.57 161.205 76.324
5.58 155.538 77.284
5.59 150.790 76.451
5.60 148.061 72.984
5.61 122.564 66.655
5.62 115.377 59.047
5.63 --undefined-- 53.255
5.64 --undefined-- 48.802
5.65 --undefined-- 49.419
5.66 --undefined-- 52.294
5.67 --undefined-- 55.305
5.68 --undefined-- 62.269
5.69 163.731 68.666
5.70 153.641 72.200
5.71 140.620 73.654
5.72 129.104 74.252
5.73 125.664 74.502
5.74 122.130 74.195
5.75 119.444 73.552
5.76 119.657 73.022
5.77 120.543 72.725
5.78 120.540 72.733
5.79 121.842 72.804
5.80 123.580 72.438
5.81 122.584 71.155
5.82 118.972 68.577
5.83 114.049 64.516
5.84 --undefined-- 59.082
5.85 --undefined-- 52.952
5.86 --undefined-- 51.145
5.87 --undefined-- 57.772
5.88 --undefined-- 66.066
5.89 169.170 71.929
5.90 151.618 75.196
5.91 142.601 76.580
5.92 133.682 76.684
5.93 129.940 76.187
5.94 129.184 75.667
5.95 129.906 75.353
5.96 130.834 75.255
5.97 130.912 75.334
5.98 131.040 75.260
5.99 132.032 74.757
6.00 134.261 73.900
6.01 133.900 72.741
6.02 132.497 71.141
6.03 --undefined-- 68.937
6.04 --undefined-- 65.690
6.05 --undefined-- 60.667
6.06 --undefined-- 54.833
6.07 --undefined-- 50.610
6.08 --undefined-- 46.353
6.09 --undefined-- 44.939
6.10 --undefined-- 45.290
6.11 --undefined-- 43.014
6.12 --undefined-- 39.108
6.13 --undefined-- 36.173
6.14 --undefined-- 35.975
6.15 --undefined-- 36.847
6.16 --undefined-- 37.094
6.17 --undefined-- 36.912
6.18 --undefined-- 36.907
6.19 --undefined-- 36.887
6.20 --undefined-- 35.732
6.21 --undefined-- 34.229
6.22 --undefined-- 33.961
6.23 --undefined-- 33.437
6.24 --undefined-- 34.064
6.25 --undefined-- 36.063
6.26 --undefined-- 39.622
6.27 --undefined-- 49.447
6.28 --undefined-- 57.176
6.29 139.565 61.681
6.30 124.609 64.238
6.31 126.624 65.880
6.32 129.980 66.995
6.33 131.469 67.809
6.34 131.902 68.380
6.35 133.137 68.690
6.36 135.080 68.795
6.37 136.294 68.937
6.38 137.008 69.255
6.39 136.415 69.671
6.40 136.736 70.115
6.41 137.396 70.859
6.42 140.265 72.009
6.43 140.628 72.666
6.44 127.574 72.248
6.45 129.224 71.379
6.46 124.157 70.934
6.47 131.806 71.500
6.48 144.282 72.494
6.49 150.682 73.551
6.50 155.075 74.782
6.51 152.261 75.735
6.52 146.706 76.158
6.53 141.714 76.278
6.54 138.673 76.295
6.55 137.814 76.380
6.56 137.116 76.092
6.57 137.553 75.109
6.58 137.414 73.730
6.59 135.861 72.056
6.60 --undefined-- 70.744
6.61 240.891 69.685
6.62 251.128 67.360
6.63 260.687 63.496
6.64 --undefined-- 58.156
6.65 --undefined-- 51.517
6.66 --undefined-- 44.638
6.67 --undefined-- 52.053
6.68 --undefined-- 61.403
6.69 161.702 67.331
6.70 160.255 71.146
6.71 162.247 73.656
6.72 158.316 75.331
6.73 156.575 76.283
6.74 154.506 76.658
6.75 152.964 76.536
6.76 151.692 76.150
6.77 151.618 75.784
6.78 152.597 75.512
6.79 154.224 75.273
6.80 155.829 74.960
6.81 156.999 74.123
6.82 155.498 71.684
6.83 143.761 66.680
6.84 --undefined-- 59.509
6.85 --undefined-- 52.362
6.86 --undefined-- --undefined--
6.87 --undefined-- --undefined--
6.88 --undefined-- --undefined--
6.89 --undefined-- --undefined--
