Time Pitch Intensity
0.01 --undefined-- --undefined--
0.02 --undefined-- --undefined--
0.03 --undefined-- --undefined--
0.04 --undefined-- --undefined--
0.05 --undefined-- 38.894
0.06 --undefined-- 37.382
0.07 --undefined-- 44.804
0.08 --undefined-- 57.113
0.09 --undefined-- 64.739
0.10 168.794 68.805
0.11 167.366 70.153
0.12 152.488 69.766
0.13 150.290 68.773
0.14 146.918 67.942
0.15 144.091 67.087
0.16 142.427 65.891
0.17 140.130 64.704
0.18 137.149 64.038
0.19 135.460 63.772
0.20 135.836 63.835
0.21 137.995 64.107
0.22 141.464 64.503
0.23 143.387 65.181
0.24 145.612 65.882
0.25 149.906 66.278
0.26 151.909 66.399
0.27 152.787 66.187
0.28 156.416 65.935
0.29 161.551 65.963
0.30 166.452 66.191
0.31 168.784 66.500
0.32 169.332 66.697
0.33 169.846 66.922
0.34 170.082 67.847
0.35 172.552 69.302
0.36 174.602 69.835
0.37 164.632 69.020
0.38 168.419 68.104
0.39 184.391 68.026
0.40 196.786 68.481
0.41 203.403 68.725
0.42 209.754 68.245
0.43 217.119 67.703
0.44 220.231 67.640
0.45 221.922 67.712
0.46 221.656 67.767
0.47 219.958 67.859
0.48 217.185 68.179
0.49 214.549 68.737
0.50 211.340 69.475
0.51 208.237 70.342
0.52 204.907 70.813
0.53 200.791 70.485
0.54 196.975 69.674
0.55 193.631 69.064
0.56 190.685 68.678
0.57 188.358 68.091
0.58 185.036 67.338
0.59 182.242 66.841
0.60 179.068 66.713
0.61 175.085 66.789
0.62 170.792 66.835
0.63 167.226 66.798
0.64 165.206 66.852
0.65 162.873 66.833
0.66 155.226 66.348
0.67 146.243 65.332
0.68 128.326 64.075
0.69 123.715 63.045
0.70 121.718 62.297
0.71 121.481 62.232
0.72 123.447 62.981
0.73 127.507 64.025
0.74 130.313 64.851
0.75 134.808 65.426
0.76 138.478 66.069
0.77 144.836 66.563
0.78 157.042 66.835
0.79 167.146 66.952
0.80 173.833 66.370
0.81 182.508 64.524
0.82 194.221 61.346
0.83 196.861 56.826
0.84 --undefined-- 50.378
0.85 --undefined-- 44.598
0.86 --undefined-- 46.866
0.87 --undefined-- 49.165
0.88 --undefined-- 50.416
0.89 --undefined-- 53.935
0.90 212.549 60.075
0.91 206.582 64.504
0.92 194.793 66.644
0.93 182.619 67.036
0.94 167.694 66.046
0.95 152.394 63.548
0.96 135.679 60.103
0.97 --undefined-- 57.868
0.98 --undefined-- 57.542
0.99 --undefined-- 56.630
1.00 --undefined-- 53.609
1.01 --undefined-- 49.889
1.02 --undefined-- 48.100
1.03 --undefined-- 44.854
1.04 --undefined-- 40.950
1.05 --undefined-- 41.345
1.06 --undefined-- 42.627
1.07 --undefined-- 43.421
1.08 --undefined-- 44.008
1.09 --undefined-- 44.335
1.10 --undefined-- 44.772
1.11 --undefined-- 48.026
1.12 --undefined-- 54.842
1.13 180.135 60.188
1.14 167.773 62.993
1.15 163.377 64.126
1.16 156.506 64.672
1.17 150.770 65.008
1.18 148.731 65.082
1.19 148.014 64.971
1.20 148.790 64.901
1.21 151.106 65.084
1.22 151.835 65.331
1.23 153.409 65.358
1.24 154.788 65.119
1.25 155.282 64.674
1.26 155.593 64.293
1.27 156.174 64.353
1.28 156.947 64.821
1.29 158.195 65.402
1.30 159.230 65.986
1.31 159.560 66.460
1.32 160.170 66.653
1.33 161.463 66.745
1.34 162.250 66.930
1.35 161.712 67.031
1.36 161.720 66.878
1.37 161.869 66.558
1.38 161.972 66.426
1.39 161.661 66.711
1.40 160.559 67.320
1.41 159.276 67.858
1.42 157.485 67.909
1.43 154.929 67.718
1.44 152.714 68.035
1.45 143.985 68.479
1.46 142.244 68.299
1.47 143.466 67.656
1.48 146.790 66.916
1.49 152.530 65.843
1.50 152.417 63.544
1.51 145.959 59.888
1.52 166.127 56.351
1.53 171.168 54.203
1.54 177.502 53.033
1.55 182.651 52.741
1.56 198.853 55.478
1.57 193.401 60.632
1.58 193.336 64.316
1.59 196.446 66.246
1.60 196.180 66.968
1.61 194.532 67.028
1.62 195.036 66.691
1.63 195.425 65.995
1.64 191.865 65.033
1.65 188.674 64.038
1.66 187.418 63.409
1.67 188.548 63.620
1.68 187.193 64.568
1.69 180.383 65.854
1.70 162.550 66.781
1.71 148.137 66.307
1.72 133.142 64.614
1.73 129.965 63.687
1.74 130.129 63.887
1.75 133.295 64.684
1.76 139.812 65.865
1.77 147.986 66.632
1.78 156.039 66.368
1.79 164.087 65.018
1.80 167.157 62.952
1.81 167.922 60.131
1.82 166.606 56.258
1.83 169.071 51.860
1.84 --undefined-- 47.912
1.85 --undefined-- 45.736
1.86 --undefined-- 50.546
1.87 --undefined-- 59.157
1.88 --undefined-- 64.558
1.89 --undefined-- 67.004
1.90 --undefined-- 67.439
1.91 --undefined-- 66.376
1.92 --undefined-- 63.784
1.93 --undefined-- 59.433
1.94 --undefined-- 53.170
1.95 --undefined-- 47.892
1.96 --undefined-- 46.224
1.97 --undefined-- 44.783
1.98 --undefined-- 46.660
1.99 109.875 50.670
2.00 109.189 53.950
2.01 123.859 56.658
2.02 128.206 59.448
2.03 133.126 62.095
2.04 134.872 63.903
2.05 135.018 64.819
2.06 134.057 64.925
2.07 131.120 64.246
2.08 132.421 62.974
2.09 128.383 61.155
2.10 122.750 59.050
2.11 122.259 57.913
2.12 118.618 58.044
2.13 113.945 58.082
2.14 110.341 57.874
2.15 105.599 57.628
2.16 99.784 57.342
2.17 95.566 57.163
2.18 91.079 56.914
2.19 89.326 56.596
2.20 87.037 56.479
2.21 86.601 56.527
2.22 88.151 56.290
2.23 88.674 55.890
2.24 91.580 55.590
2.25 94.414 55.266
2.26 96.604 54.985
2.27 100.086 55.182
2.28 102.698 56.227
2.29 106.278 57.486
2.30 107.460 58.125
2.31 111.510 58.414
2.32 112.855 58.993
2.33 119.702 59.969
2.34 119.591 60.835
2.35 122.200 61.329
2.36 122.643 61.609
2.37 121.894 61.170
2.38 121.851 60.221
2.39 127.365 60.324
2.40 132.574 61.400
2.41 139.060 62.632
2.42 145.828 63.931
2.43 151.429 65.469
2.44 153.338 67.274
2.45 155.089 68.658
2.46 158.174 68.961
2.47 162.967 68.432
2.48 173.526 68.152
2.49 193.228 68.504
2.50 197.307 68.768
2.51 202.952 68.563
2.52 203.912 68.393
2.53 201.272 67.814
2.54 186.921 66.386
2.55 184.500 64.730
2.56 171.785 63.685
2.57 171.146 63.053
2.58 177.948 61.171
2.59 185.267 57.056
2.60 185.092 52.477
2.61 192.328 57.854
2.62 237.409 65.386
2.63 226.541 69.342
2.64 215.445 70.163
2.65 202.811 69.056
2.66 194.292 68.456
2.67 189.178 68.748
2.68 186.783 68.407
2.69 187.402 67.571
2.70 191.466 66.682
2.71 198.735 66.529
2.72 201.404 67.835
2.73 200.916 69.273
2.74 200.409 69.474
2.75 204.434 68.240
2.76 208.887 66.764
2.77 209.213 65.554
2.78 209.109 63.939
2.79 209.149 62.991
2.80 210.109 63.452
2.81 210.007 64.722
2.82 216.859 66.766
2.83 226.489 68.608
2.84 222.097 68.925
2.85 219.252 68.366
2.86 218.378 68.045
2.87 214.881 67.403
2.88 208.251 66.114
2.89 197.740 64.611
2.90 256.840 63.090
2.91 258.121 61.136
2.92 254.426 58.046
2.93 --undefined-- 53.890
2.94 --undefined-- 51.958
2.95 --undefined-- 53.921
2.96 --undefined-- 56.835
2.97 146.370 60.189
2.98 154.159 63.475
2.99 162.268 66.128
3.00 163.069 67.994
3.01 158.022 69.148
3.02 154.327 69.656
3.03 151.771 69.449
3.04 152.878 68.907
3.05 153.707 68.305
3.06 156.408 67.941
3.07 159.375 67.838
3.08 165.596 67.678
3.09 168.695 67.381
3.10 172.401 67.184
3.11 177.610 67.122
3.12 182.393 66.687
3.13 189.735 66.370
3.14 193.364 66.747
3.15 193.977 66.808
3.16 192.438 66.540
3.17 189.843 66.859
3.18 186.612 67.031
3.19 184.362 66.536
3.20 175.516 66.680
3.21 172.356 67.015
3.22 170.198 66.623
3.23 170.127 65.564
3.24 166.495 63.661
3.25 166.098 60.481
3.26 171.543 55.841
3.27 175.127 50.869
3.28 171.703 47.230
3.29 --undefined-- 45.089
3.30 --undefined-- 43.158
3.31 --undefined-- 40.597
3.32 --undefined-- 42.218
3.33 --undefined-- 48.363
3.34 121.743 52.401
3.35 111.329 54.451
3.36 103.544 55.583
3.37 98.269 56.291
3.38 96.825 56.528
3.39 96.630 56.033
3.40 94.785 54.839
3.41 93.674 53.382
3.42 94.766 51.882
3.43 97.377 50.524
3.44 101.512 49.982
3.45 107.676 49.721
3.46 --undefined-- 51.458
3.47 --undefined-- 56.473
3.48 145.370 60.258
3.49 144.255 62.110
3.50 130.769 62.569
3.51 129.965 62.247
3.52 128.782 62.094
3.53 129.023 62.517
3.54 130.400 62.949
3.55 131.197 62.899
3.56 132.683 62.451
3.57 134.743 62.083
3.58 135.903 61.972
3.59 139.630 62.122
3.60 147.060 62.738
3.61 158.127 64.285
3.62 162.325 66.386
3.63 167.504 68.458
3.64 172.272 70.137
3.65 178.543 71.204
3.66 209.535 71.670
3.67 209.432 71.587
3.68 207.991 71.372
3.69 211.028 71.345
3.70 212.099 71.508
3.71 210.547 71.501
3.72 208.617 70.821
3.73 206.919 69.143
3.74 205.524 66.411
3.75 200.663 64.327
3.76 191.395 63.861
3.77 184.358 63.181
3.78 173.389 63.850
3.79 169.779 65.723
3.80 162.889 66.270
3.81 151.902 65.667
3.82 148.152 65.194
3.83 145.352 65.143
3.84 142.406 65.226
3.85 141.355 65.056
3.86 142.624 64.749
3.87 143.992 64.303
3.88 144.209 63.726
3.89 143.407 63.416
3.90 142.485 63.199
3.91 143.633 62.882
3.92 144.602 62.868
3.93 144.490 63.076
3.94 144.429 62.961
3.95 145.059 62.810
3.96 145.098 63.178
3.97 146.984 64.094
3.98 147.701 64.893
3.99 148.344 65.082
4.00 148.137 64.922
4.01 147.376 64.691
4.02 145.045 64.468
4.03 142.939 64.825
4.04 142.623 66.057
4.05 137.318 67.309
4.06 136.393 67.701
4.07 135.781 67.262
4.08 136.876 66.507
4.09 140.297 66.035
4.10 145.888 65.856
4.11 147.130 65.249
4.12 156.196 64.970
4.13 168.283 65.066
4.14 179.664 64.415
4.15 187.466 63.448
4.16 197.127 62.670
4.17 203.308 62.441
4.18 213.460 63.676
4.19 220.415 65.514
4.20 229.596 67.229
4.21 232.660 68.796
4.22 230.427 69.917
4.23 224.471 70.469
4.24 218.409 70.591
4.25 201.385 70.053
4.26 189.523 68.628
4.27 179.536 67.405
4.28 174.782 67.676
4.29 169.566 68.459
4.30 167.710 68.642
4.31 167.744 67.952
4.32 169.446 66.963
4.33 172.248 66.663
4.34 173.154 67.138
4.35 174.812 67.250
4.36 176.753 66.016
4.37 178.964 63.283
4.38 179.757 59.719
4.39 177.953 55.548
4.40 175.198 51.117
4.41 172.540 47.731
4.42 174.422 46.718
4.43 --undefined-- 47.026
4.44 --undefined-- 47.204
4.45 --undefined-- 47.969
4.46 --undefined-- 49.576
4.47 --undefined-- 50.427
4.48 --undefined-- 50.689
4.49 --undefined-- 51.477
4.50 --undefined-- 52.243
4.51 --undefined-- 52.392
4.52 --undefined-- 51.336
4.53 --undefined-- 49.763
4.54 --undefined-- 48.650
4.55 --undefined-- 47.141
4.56 --undefined-- 45.188
4.57 --undefined-- 43.823
4.58 --undefined-- 43.369
4.59 --undefined-- 43.447
4.60 --undefined-- 43.482
4.61 --undefined-- 44.235
4.62 --undefined-- 46.568
4.63 --undefined-- 49.719
4.64 --undefined-- 53.905
4.65 --undefined-- 61.270
4.66 --undefined-- 67.341
4.67 245.729 70.166
4.68 237.486 70.654
4.69 235.553 70.298
4.70 229.735 70.266
4.71 226.361 70.569
4.72 228.182 70.886
4.73 231.162 71.255
4.74 234.095 71.164
4.75 235.397 70.841
4.76 233.849 71.041
4.77 232.648 71.131
4.78 235.189 71.108
4.79 232.464 71.710
4.80 221.079 72.240
4.81 215.335 72.060
4.82 214.022 71.125
4.83 216.747 69.975
4.84 211.153 69.400
4.85 203.992 69.224
4.86 195.425 68.839
4.87 190.950 68.067
4.88 187.504 66.713
4.89 176.998 65.721
4.90 165.258 66.761
4.91 156.822 67.113
4.92 152.189 66.204
4.93 144.915 65.385
4.94 141.474 64.718
4.95 133.243 64.030
4.96 128.893 63.091
4.97 125.031 61.351
4.98 115.856 59.872
4.99 112.035 59.752
5.00 111.516 59.655
5.01 111.183 59.447
5.02 112.843 59.568
5.03 116.316 60.096
5.04 122.499 61.479
5.05 129.734 63.777
5.06 137.318 66.108
5.07 146.274 --undefined--
5.08 158.334 --undefined--
5.09 --undefined-- --undefined--
5.10 --undefined-- --undefined--
