Time Pitch Intensity
0.01 --undefined-- --undefined--
0.02 --undefined-- --undefined--
0.03 --undefined-- --undefined--
0.04 --undefined-- --undefined--
0.05 --undefined-- 57.293
0.06 --undefined-- 62.507
0.07 109.889 65.249
0.08 108.333 66.286
0.09 107.414 66.498
0.10 106.635 66.026
0.11 105.868 64.466
0.12 103.801 61.775
0.13 103.249 59.245
0.14 106.659 59.109
0.15 106.615 59.785
0.16 105.924 59.861
0.17 105.226 59.285
0.18 103.982 57.915
0.19 101.960 55.394
0.20 --undefined-- 54.042
0.21 --undefined-- 59.630
0.22 --undefined-- 66.338
0.23 --undefined-- 70.317
0.24 --undefined-- 71.386
0.25 --undefined-- 70.640
0.26 --undefined-- 69.258
0.27 118.550 67.613
0.28 119.757 65.090
0.29 --undefined-- 61.411
0.30 --undefined-- 56.489
0.31 --undefined-- 50.953
0.32 --undefined-- 49.763
0.33 --undefined-- 50.167
0.34 --undefined-- 50.344
0.35 --undefined-- 51.453
0.36 --undefined-- 51.920
0.37 --undefined-- 52.367
0.38 --undefined-- 57.731
0.39 110.966 63.536
0.40 94.494 66.963
0.41 93.851 68.544
0.42 93.661 68.909
0.43 95.367 68.389
0.44 100.194 67.591
0.45 103.210 67.093
0.46 104.587 66.011
0.47 107.614 63.634
0.48 111.840 59.981
0.49 116.553 56.289
0.50 124.139 54.893
0.51 125.589 55.368
0.52 122.845 56.012
0.53 119.356 56.276
0.54 114.901 56.156
0.55 110.814 56.175
0.56 105.763 56.368
0.57 99.481 56.269
0.58 93.611 56.141
0.59 88.468 56.102
0.60 86.426 56.176
0.61 84.536 56.251
0.62 83.497 56.198
0.63 83.365 56.301
0.64 81.450 57.017
0.65 81.917 60.634
0.66 --undefined-- 65.298
0.67 87.950 68.065
0.68 89.473 69.119
0.69 88.929 69.365
0.70 87.627 69.327
0.71 87.112 69.068
0.72 87.415 68.486
0.73 90.367 67.282
0.74 --undefined-- 64.869
0.75 --undefined-- 60.823
0.76 99.861 56.317
0.77 100.924 55.179
0.78 102.291 55.831
0.79 103.659 56.572
0.80 104.513 57.307
0.81 107.054 57.761
0.82 110.169 57.937
0.83 112.357 57.815
0.84 112.849 57.094
0.85 112.414 55.427
0.86 110.529 52.510
0.87 --undefined-- 48.358
0.88 --undefined-- 43.422
0.89 --undefined-- 40.842
0.90 --undefined-- 49.194
0.91 --undefined-- 57.894
0.92 --undefined-- 64.422
0.93 --undefined-- 68.162
0.94 --undefined-- 69.365
0.95 --undefined-- 68.598
0.96 85.209 66.718
0.97 84.668 64.615
0.98 84.083 62.051
0.99 82.065 58.504
1.00 83.145 55.188
1.01 83.062 53.498
1.02 81.122 51.750
1.03 --undefined-- 49.720
1.04 --undefined-- 48.610
1.05 --undefined-- 47.237
1.06 --undefined-- 44.187
1.07 --undefined-- 41.102
1.08 --undefined-- 39.687
1.09 --undefined-- 39.386
1.10 --undefined-- 39.531
1.11 --undefined-- 39.192
1.12 --undefined-- 38.564
1.13 --undefined-- 37.885
1.14 --undefined-- 37.517
1.15 --undefined-- 37.241
1.16 --undefined-- 37.154
1.17 --undefined-- 40.750
1.18 --undefined-- 45.967
1.19 --undefined-- 47.983
1.20 --undefined-- 47.780
1.21 --undefined-- 49.558
1.22 --undefined-- 50.372
1.23 --undefined-- 48.470
1.24 --undefined-- 47.381
1.25 --undefined-- 47.987
1.26 --undefined-- 47.488
1.27 --undefined-- 45.482
1.28 --undefined-- 43.813
1.29 --undefined-- 43.512
1.30 --undefined-- 44.108
1.31 --undefined-- 45.106
1.32 --undefined-- 46.465
1.33 --undefined-- 47.543
1.34 --undefined-- 47.517
1.35 --undefined-- 47.215
1.36 --undefined-- 47.444
1.37 --undefined-- 47.563
1.38 --undefined-- 47.815
1.39 --undefined-- 48.057
1.40 --undefined-- 47.947
1.41 --undefined-- 47.691
1.42 --undefined-- 47.861
1.43 --undefined-- 48.469
1.44 --undefined-- 49.083
1.45 --undefined-- 49.161
1.46 --undefined-- 48.463
1.47 --undefined-- 47.828
1.48 --undefined-- 47.262
1.49 --undefined-- 46.294
1.50 --undefined-- 45.681
1.51 --undefined-- 45.357
1.52 --undefined-- 45.259
1.53 --undefined-- 45.740
1.54 --undefined-- 45.761
1.55 --undefined-- 45.059
1.56 --undefined-- 43.917
1.57 --undefined-- 43.100
1.58 --undefined-- 42.565
1.59 --undefined-- 41.729
1.60 --undefined-- 41.016
1.61 --undefined-- 40.602
1.62 --undefined-- 40.656
1.63 --undefined-- 41.051
1.64 --undefined-- 41.218
1.65 --undefined-- 41.581
1.66 --undefined-- 43.333
1.67 --undefined-- 45.538
1.68 --undefined-- 48.100
1.69 117.902 50.541
1.70 115.106 52.652
1.71 113.849 54.626
1.72 106.156 57.806
1.73 103.945 62.972
1.74 101.936 67.721
1.75 102.919 70.899
1.76 104.734 72.580
1.77 106.415 73.413
1.78 105.507 73.448
1.79 --undefined-- 72.707
1.80 --undefined-- 71.290
1.81 --undefined-- 69.172
1.82 91.921 67.195
1.83 92.425 66.350
1.84 92.924 66.371
1.85 92.719 66.431
1.86 93.980 66.047
1.87 96.972 66.326
1.88 98.856 67.452
1.89 99.103 67.676
1.90 99.255 66.479
1.91 100.778 64.226
1.92 101.255 61.737
1.93 102.349 60.647
1.94 102.664 60.756
1.95 102.888 61.089
1.96 102.869 61.509
1.97 102.339 61.754
1.98 101.730 61.279
1.99 101.407 59.792
2.00 99.724 57.404
2.01 102.299 54.653
2.02 --undefined-- 52.638
2.03 --undefined-- 52.593
2.04 --undefined-- 53.075
2.05 --undefined-- 53.226
2.06 --undefined-- 54.042
2.07 --undefined-- 55.610
2.08 --undefined-- 58.497
2.09 --undefined-- 65.778
2.10 --undefined-- 71.631
2.11 173.984 74.302
2.12 168.505 74.442
2.13 162.853 72.903
2.14 160.526 70.759
2.15 159.970 68.901
2.16 158.427 67.008
2.17 157.801 64.906
2.18 157.193 63.746
2.19 154.919 63.801
2.20 151.775 64.207
2.21 149.594 64.382
2.22 145.159 64.027
2.23 139.927 63.769
2.24 135.659 64.938
2.25 130.976 67.339
2.26 126.326 69.339
2.27 121.354 70.706
2.28 118.066 71.825
2.29 115.002 72.863
2.30 113.811 73.588
2.31 --undefined-- 73.506
2.32 --undefined-- 72.727
2.33 --undefined-- 71.538
2.34 90.852 69.937
2.35 88.778 68.557
2.36 88.959 67.796
2.37 90.010 67.303
2.38 92.883 66.749
2.39 93.090 65.935
2.40 90.491 64.832
2.41 88.274 63.168
2.42 87.851 61.074
2.43 87.542 58.661
2.44 89.624 56.718
2.45 91.813 56.217
2.46 94.106 56.000
2.47 94.233 55.864
2.48 91.628 56.374
2.49 91.491 56.909
2.50 91.215 56.740
2.51 90.602 56.152
2.52 90.532 55.943
2.53 90.028 55.631
2.54 89.247 54.957
2.55 88.528 54.934
2.56 87.571 55.393
2.57 85.850 55.672
2.58 86.062 55.971
2.59 85.853 57.044
2.60 86.298 58.786
2.61 87.027 60.490
2.62 87.556 62.252
2.63 --undefined-- 63.555
2.64 91.623 63.702
2.65 92.338 63.293
2.66 94.941 63.671
2.67 98.144 64.356
2.68 100.469 64.945
2.69 103.958 65.715
2.70 107.358 66.373
2.71 108.662 66.910
2.72 109.365 67.564
2.73 112.174 68.257
2.74 114.735 68.343
2.75 115.776 67.600
2.76 116.075 66.386
2.77 114.932 64.678
2.78 110.784 61.652
2.79 113.735 57.254
2.80 --undefined-- 53.542
2.81 --undefined-- 53.184
2.82 --undefined-- 52.434
2.83 --undefined-- 48.573
2.84 --undefined-- 43.905
2.85 --undefined-- 43.182
2.86 --undefined-- 42.969
2.87 --undefined-- 41.728
2.88 --undefined-- 39.686
2.89 --undefined-- 37.901
2.90 --undefined-- 37.586
2.91 --undefined-- 37.632
2.92 --undefined-- 37.056
2.93 --undefined-- 36.723
2.94 --undefined-- 37.112
2.95 --undefined-- 37.877
2.96 --undefined-- 38.324
2.97 --undefined-- 38.082
2.98 --undefined-- 37.704
2.99 --undefined-- 37.827
3.00 --undefined-- 38.155
3.01 --undefined-- 38.300
3.02 --undefined-- 38.176
3.03 --undefined-- 38.118
3.04 --undefined-- 37.923
3.05 --undefined-- 37.803
3.06 --undefined-- 38.751
3.07 --undefined-- 39.771
3.08 --undefined-- 39.581
3.09 --undefined-- 38.774
3.10 --undefined-- 38.337
3.11 --undefined-- 38.147
3.12 --undefined-- 38.174
3.13 --undefined-- 38.579
3.14 --undefined-- 40.745
3.15 --undefined-- 47.505
3.16 --undefined-- 52.399
3.17 --undefined-- 54.603
3.18 --undefined-- 57.121
3.19 --undefined-- 60.475
3.20 --undefined-- 64.990
3.21 111.792 68.191
3.22 108.219 69.047
3.23 107.215 67.602
3.24 --undefined-- 64.035
3.25 121.984 60.655
3.26 128.172 60.904
3.27 130.571 62.020
3.28 133.390 62.655
3.29 137.432 63.193
3.30 140.188 63.932
3.31 141.643 64.603
3.32 142.153 65.068
3.33 142.330 65.617
3.34 142.774 66.785
3.35 142.225 68.417
3.36 140.830 69.594
3.37 141.494 70.000
3.38 140.008 69.888
3.39 139.131 69.660
3.40 138.445 69.547
3.41 137.426 69.514
3.42 135.410 69.446
3.43 132.992 69.186
3.44 131.036 68.525
3.45 128.050 67.442
3.46 127.397 66.308
3.47 126.692 64.941
3.48 120.877 62.201
3.49 117.812 57.381
3.50 --undefined-- 50.960
3.51 --undefined-- 46.373
3.52 --undefined-- 47.173
3.53 --undefined-- 52.143
3.54 --undefined-- 56.774
3.55 --undefined-- 61.658
3.56 116.132 65.965
3.57 115.582 68.715
3.58 109.531 70.108
3.59 103.162 70.475
3.60 97.678 70.204
3.61 96.838 69.914
3.62 95.804 69.833
3.63 95.356 69.781
3.64 94.834 69.821
3.65 94.199 69.899
3.66 93.965 69.781
3.67 93.454 69.540
3.68 92.310 69.204
3.69 91.564 68.782
3.70 90.254 68.458
3.71 89.150 68.426
3.72 88.659 68.565
3.73 88.825 68.604
3.74 89.276 68.569
3.75 89.538 68.530
3.76 89.527 68.397
3.77 89.818 68.257
3.78 90.470 68.084
3.79 91.234 67.800
3.80 92.252 67.496
3.81 93.317 67.193
3.82 94.444 66.777
3.83 94.469 66.216
3.84 94.645 65.640
3.85 94.674 65.235
3.86 94.374 65.029
3.87 94.027 64.941
3.88 94.354 64.821
3.89 94.669 64.553
3.90 94.740 63.861
3.91 95.380 62.327
3.92 94.807 59.601
3.93 --undefined-- 55.455
3.94 --undefined-- 50.020
3.95 --undefined-- 44.609
3.96 --undefined-- 40.784
3.97 --undefined-- 44.525
3.98 --undefined-- 52.449
3.99 --undefined-- 58.441
4.00 --undefined-- 62.092
4.01 --undefined-- 62.341
4.02 --undefined-- 58.906
4.03 --undefined-- 54.841
4.04 --undefined-- 58.671
4.05 --undefined-- 63.675
4.06 91.501 66.381
4.07 86.506 67.302
4.08 81.918 67.287
4.09 81.756 66.746
4.10 80.549 65.922
4.11 81.576 64.602
4.12 82.932 62.791
4.13 83.106 60.692
4.14 83.203 57.864
4.15 --undefined-- 55.884
4.16 --undefined-- 56.965
4.17 --undefined-- 58.228
4.18 --undefined-- 58.044
4.19 --undefined-- 57.133
4.20 --undefined-- 59.368
4.21 --undefined-- 64.908
4.22 --undefined-- 68.517
4.23 --undefined-- 69.825
4.24 --undefined-- 69.600
4.25 92.564 68.645
4.26 91.646 67.457
4.27 90.782 65.807
4.28 90.648 63.165
4.29 99.230 59.943
4.30 106.741 57.950
4.31 110.679 57.300
4.32 111.858 57.343
4.33 114.971 58.512
4.34 116.968 61.892
4.35 123.358 66.413
4.36 123.269 69.245
4.37 123.090 70.239
4.38 124.401 70.359
4.39 125.526 70.298
4.40 127.133 70.264
4.41 126.957 70.168
4.42 126.151 69.728
4.43 124.296 68.577
4.44 122.272 66.149
4.45 117.319 62.132
4.46 115.592 57.551
4.47 110.506 54.372
4.48 111.576 55.309
4.49 112.187 59.178
4.50 111.462 62.189
4.51 109.515 64.154
4.52 103.837 65.614
4.53 101.409 66.666
4.54 100.997 67.325
4.55 101.315 67.847
4.56 100.815 68.429
4.57 97.966 68.707
4.58 94.795 68.366
4.59 90.726 67.845
4.60 90.358 67.253
4.61 93.248 66.241
4.62 92.740 64.844
4.63 91.715 63.645
4.64 89.141 62.837
4.65 86.449 61.573
4.66 86.879 59.224
4.67 89.542 57.717
4.68 --undefined-- 58.285
4.69 --undefined-- 58.960
4.70 --undefined-- 60.689
4.71 --undefined-- 62.293
4.72 --undefined-- 62.887
4.73 --undefined-- 63.495
4.74 --undefined-- 64.029
4.75 --undefined-- 63.442
4.76 --undefined-- 61.740
4.77 --undefined-- 63.611
4.78 --undefined-- 68.327
4.79 --undefined-- 70.825
4.80 127.358 71.396
4.81 125.089 71.121
4.82 124.353 70.567
4.83 124.393 69.704
4.84 124.001 68.336
4.85 124.185 66.687
4.86 124.364 65.122
4.87 123.389 63.299
4.88 123.147 60.869
4.89 123.314 57.914
4.90 122.978 56.281
4.91 121.434 56.074
4.92 118.725 55.555
4.93 117.192 54.169
4.94 116.714 55.293
4.95 --undefined-- 62.303
4.96 --undefined-- 67.504
4.97 --undefined-- 69.824
4.98 116.634 70.402
4.99 115.375 70.730
5.00 113.024 71.262
5.01 111.566 71.798
5.02 110.654 71.993
5.03 110.614 71.337
5.04 111.032 69.503
5.05 110.659 66.654
5.06 111.133 63.155
5.07 113.808 59.899
5.08 117.771 58.186
5.09 117.481 57.669
5.10 115.821 57.407
5.11 115.151 56.774
5.12 111.278 55.660
5.13 --undefined-- 54.807
5.14 --undefined-- 55.732
5.15 --undefined-- 57.003
5.16 --undefined-- 58.010
5.17 --undefined-- 59.299
5.18 --undefined-- 59.493
5.19 --undefined-- 58.146
5.20 --undefined-- 57.300
5.21 --undefined-- 62.499
5.22 --undefined-- 67.798
5.23 --undefined-- 70.353
5.24 --undefined-- 70.919
5.25 97.151 70.430
5.26 94.750 69.612
5.27 92.243 68.951
5.28 91.138 68.309
5.29 92.459 67.227
5.30 92.869 65.948
5.31 94.407 64.950
5.32 97.400 64.482
5.33 100.344 64.703
5.34 101.654 65.623
5.35 102.688 66.683
5.36 101.140 67.384
5.37 100.516 67.644
5.38 --undefined-- 66.745
5.39 --undefined-- 63.826
5.40 --undefined-- 60.362
5.41 --undefined-- 58.778
5.42 --undefined-- 58.200
5.43 93.775 58.602
5.44 93.971 60.615
5.45 94.292 --undefined--
5.46 96.264 --undefined--
5.47 --undefined-- --undefined--
5.48 --undefined-- --undefined--
