Time Pitch Intensity
0.01 --undefined-- --undefined--
0.02 137.177 --undefined--
0.03 135.502 --undefined--
0.04 135.986 --undefined--
0.05 128.579 73.223
0.06 120.434 72.530
0.07 111.717 71.728
0.08 108.369 70.906
0.09 105.463 69.831
0.10 103.405 68.420
0.11 102.362 67.156
0.12 101.706 66.396
0.13 101.178 65.892
0.14 100.378 65.756
0.15 100.174 66.000
0.16 100.490 66.516
0.17 101.470 67.394
0.18 103.603 68.315
0.19 104.344 68.969
0.20 105.418 69.382
0.21 105.801 69.496
0.22 106.331 69.192
0.23 105.270 68.621
0.24 108.515 68.422
0.25 108.997 68.622
0.26 109.295 68.785
0.27 109.137 68.639
0.28 107.130 67.877
0.29 106.875 66.415
0.30 109.215 64.027
0.31 109.937 60.208
0.32 --undefined-- 55.396
0.33 --undefined-- 53.380
0.34 --undefined-- 55.569
0.35 --undefined-- 63.693
0.36 148.289 70.750
0.37 142.537 74.412
0.38 132.800 75.466
0.39 124.192 74.839
0.40 120.738 72.789
0.41 114.509 69.316
0.42 119.609 66.967
0.43 124.099 67.764
0.44 122.882 69.177
0.45 121.422 69.969
0.46 120.025 70.438
0.47 122.495 71.587
0.48 121.606 73.380
0.49 119.424 74.790
0.50 118.979 75.566
0.51 118.112 75.672
0.52 116.020 74.595
0.53 107.806 71.706
0.54 106.954 67.401
0.55 111.948 63.674
0.56 116.763 60.260
0.57 --undefined-- 56.733
0.58 --undefined-- 58.457
0.59 --undefined-- 65.708
0.60 --undefined-- 71.196
0.61 115.515 73.671
0.62 110.256 74.064
0.63 108.200 73.600
0.64 105.234 72.702
0.65 102.870 70.760
0.66 96.720 67.033
0.67 98.806 61.824
0.68 109.397 56.945
0.69 --undefined-- 51.866
0.70 --undefined-- 45.688
0.71 --undefined-- 40.510
0.72 --undefined-- 36.564
0.73 --undefined-- 33.308
0.74 --undefined-- 34.485
0.75 --undefined-- 50.756
0.76 --undefined-- 62.830
0.77 --undefined-- 70.094
0.78 --undefined-- 73.799
0.79 112.418 74.924
0.80 108.946 74.691
0.81 106.292 74.295
0.82 104.905 73.953
0.83 102.578 73.583
0.84 102.525 73.275
0.85 102.948 73.011
0.86 103.549 72.917
0.87 104.345 72.954
0.88 104.020 72.861
0.89 104.044 72.433
0.90 103.143 71.493
0.91 102.207 70.092
0.92 102.895 69.104
0.93 106.113 69.348
0.94 107.224 70.168
0.95 109.390 71.119
0.96 110.903 72.251
0.97 113.546 73.489
0.98 116.587 74.634
0.99 117.019 75.492
1.00 116.559 76.033
1.01 115.668 76.301
1.02 112.774 76.239
1.03 107.488 75.782
1.04 105.113 74.944
1.05 101.394 73.875
1.06 98.542 72.605
1.07 93.620 70.748
1.08 91.555 67.993
1.09 88.020 64.558
1.10 --undefined-- 60.179
1.11 --undefined-- 53.558
1.12 --undefined-- 43.974
1.13 --undefined-- 38.876
1.14 --undefined-- 39.880
1.15 --undefined-- 40.948
1.16 --undefined-- 41.626
1.17 --undefined-- 43.117
1.18 --undefined-- 45.010
1.19 --undefined-- 46.082
1.20 --undefined-- 46.240
1.21 --undefined-- 46.669
1.22 --undefined-- 47.487
1.23 --undefined-- 48.169
1.24 --undefined-- 48.779
1.25 --undefined-- 48.917
1.26 --undefined-- 49.087
1.27 --undefined-- 52.390
1.28 --undefined-- 55.878
1.29 --undefined-- 56.526
1.30 --undefined-- 54.520
1.31 --undefined-- 51.342
1.32 --undefined-- 48.453
1.33 --undefined-- 46.689
1.34 --undefined-- 45.765
1.35 --undefined-- 44.010
1.36 --undefined-- 40.601
1.37 --undefined-- 37.042
1.38 --undefined-- 36.184
1.39 --undefined-- 44.640
1.40 --undefined-- 57.040
1.41 148.851 65.331
1.42 144.915 70.312
1.43 146.631 73.107
1.44 151.375 74.729
1.45 156.751 75.770
1.46 161.879 76.353
1.47 166.245 76.435
1.48 167.116 76.192
1.49 166.605 75.960
1.50 166.567 75.497
1.51 166.856 74.058
1.52 163.314 70.992
1.53 162.383 66.186
1.54 --undefined-- 62.122
1.55 --undefined-- 64.969
1.56 --undefined-- 71.666
1.57 216.790 76.783
1.58 213.984 79.268
1.59 210.098 79.912
1.60 208.596 79.811
1.61 208.128 79.637
1.62 207.850 79.261
1.63 206.257 78.120
1.64 201.624 75.681
1.65 191.827 73.264
1.66 190.026 73.224
1.67 185.056 74.511
1.68 187.538 76.364
1.69 178.498 77.650
1.70 172.924 78.007
1.71 166.168 78.103
1.72 160.385 78.272
1.73 153.975 78.220
1.74 148.203 77.830
1.75 142.801 77.298
1.76 137.986 76.828
1.77 136.032 76.744
1.78 135.192 77.207
1.79 134.858 77.612
1.80 133.573 77.639
1.81 131.088 77.574
1.82 130.005 77.686
1.83 130.210 77.782
1.84 128.856 77.510
1.85 121.671 76.882
1.86 120.258 75.957
1.87 114.317 74.672
1.88 109.645 73.583
1.89 105.254 72.721
1.90 103.781 71.904
1.91 100.117 71.172
1.92 98.306 70.381
1.93 96.590 69.228
1.94 94.322 67.362
1.95 93.204 65.176
1.96 97.767 64.287
1.97 98.839 64.650
1.98 101.382 65.368
1.99 103.986 66.276
2.00 106.629 67.220
2.01 108.797 68.097
2.02 110.776 69.118
2.03 116.909 70.822
2.04 119.641 72.808
2.05 122.307 74.452
2.06 124.176 75.581
2.07 130.140 76.376
2.08 135.543 77.143
2.09 139.802 77.708
2.10 144.174 77.655
2.11 144.101 76.352
2.12 144.126 73.647
2.13 151.951 70.746
2.14 153.320 68.447
2.15 156.689 66.160
2.16 162.298 64.622
2.17 179.602 66.972
2.18 197.685 71.313
2.19 204.988 74.432
2.20 209.145 76.043
2.21 209.763 76.463
2.22 204.883 76.255
2.23 197.087 76.010
2.24 187.643 75.632
2.25 176.854 74.398
2.26 159.723 72.657
2.27 146.516 71.891
2.28 135.149 71.493
2.29 123.493 70.868
2.30 115.182 70.220
2.31 107.850 69.538
2.32 103.355 69.090
2.33 101.255 68.738
2.34 100.328 68.131
2.35 100.626 67.330
2.36 101.444 66.273
2.37 101.707 64.640
2.38 105.687 62.892
2.39 113.170 62.066
2.40 122.400 61.806
2.41 133.968 62.934
2.42 147.096 66.437
2.43 153.896 70.268
2.44 156.615 73.118
2.45 164.202 74.795
2.46 171.019 75.486
2.47 173.147 75.269
2.48 173.990 73.831
2.49 167.248 70.900
2.50 162.705 67.288
2.51 161.281 64.701
2.52 165.277 67.568
2.53 165.182 73.282
2.54 162.159 76.669
2.55 155.367 77.779
2.56 140.626 77.504
2.57 133.758 77.188
2.58 129.448 77.264
2.59 126.827 77.467
2.60 125.494 77.315
2.61 124.805 76.415
2.62 125.766 75.552
2.63 130.946 75.615
2.64 134.628 76.250
2.65 137.563 76.843
2.66 143.069 77.116
2.67 148.710 77.192
2.68 149.094 77.543
2.69 150.047 77.944
2.70 151.212 78.013
2.71 152.323 77.909
2.72 153.295 77.717
2.73 152.298 77.393
2.74 149.383 76.798
2.75 148.917 75.401
2.76 152.036 72.483
2.77 151.212 67.699
2.78 151.707 61.717
2.79 150.734 57.232
2.80 149.495 54.858
2.81 150.250 53.298
2.82 150.423 52.188
2.83 --undefined-- 51.445
2.84 --undefined-- 51.382
2.85 --undefined-- 52.003
2.86 --undefined-- 52.311
2.87 --undefined-- 51.939
2.88 --undefined-- 51.717
2.89 --undefined-- 51.553
2.90 --undefined-- 50.265
2.91 --undefined-- 48.089
2.92 --undefined-- 47.350
2.93 --undefined-- 47.201
2.94 --undefined-- 46.134
2.95 --undefined-- 44.356
2.96 --undefined-- 42.448
2.97 --undefined-- 43.187
2.98 --undefined-- 45.068
2.99 --undefined-- 44.284
3.00 --undefined-- 40.632
3.01 --undefined-- 36.502
3.02 --undefined-- 35.557
3.03 --undefined-- 36.307
3.04 --undefined-- 45.559
3.05 --undefined-- 59.221
3.06 --undefined-- 68.814
3.07 217.625 74.395
3.08 216.205 76.941
3.09 213.929 77.684
3.10 212.318 77.817
3.11 211.143 77.706
3.12 210.555 77.377
3.13 210.155 76.942
3.14 209.583 76.514
3.15 209.485 76.140
3.16 209.432 75.117
3.17 206.399 72.659
3.18 205.054 69.835
3.19 206.599 69.036
3.20 205.736 68.793
3.21 203.079 68.194
3.22 196.745 68.078
3.23 194.367 69.502
3.24 210.834 72.187
3.25 207.912 74.325
3.26 200.897 75.195
3.27 199.239 75.178
3.28 199.898 74.928
3.29 200.514 74.609
3.30 199.469 73.733
3.31 196.907 72.340
3.32 193.238 71.624
3.33 190.332 71.643
3.34 183.409 71.592
3.35 175.050 71.876
3.36 170.487 72.644
3.37 168.353 73.499
3.38 167.260 74.177
3.39 166.063 74.521
3.40 166.047 74.516
3.41 167.492 73.989
3.42 169.201 72.654
3.43 169.487 70.688
3.44 160.366 68.872
3.45 156.825 67.493
3.46 163.346 66.055
3.47 163.798 64.045
3.48 162.732 61.360
3.49 164.303 58.180
3.50 164.572 57.323
3.51 --undefined-- 61.894
3.52 --undefined-- 65.182
3.53 --undefined-- 67.263
3.54 --undefined-- 69.597
3.55 120.916 71.507
3.56 121.165 72.447
3.57 122.120 72.836
3.58 122.269 72.955
3.59 121.727 72.867
3.60 121.497 72.941
3.61 121.539 73.307
3.62 121.595 73.651
3.63 121.941 73.781
3.64 122.418 73.826
3.65 123.421 73.899
3.66 124.544 74.007
3.67 126.577 74.318
3.68 128.896 74.695
3.69 129.541 74.429
3.70 128.758 72.788
3.71 124.488 69.538
3.72 129.393 65.563
3.73 133.286 62.423
3.74 133.232 64.759
3.75 163.280 71.314
3.76 160.364 75.542
3.77 155.424 77.248
3.78 147.929 77.467
3.79 145.366 77.274
3.80 143.685 76.963
3.81 143.456 76.780
3.82 143.463 76.837
3.83 143.429 76.911
3.84 143.955 76.919
3.85 144.714 77.064
3.86 144.522 77.521
3.87 144.364 77.935
3.88 144.462 77.951
3.89 147.075 77.600
3.90 143.955 77.006
3.91 141.426 76.284
3.92 139.633 75.624
3.93 137.583 75.066
3.94 136.109 74.448
3.95 132.129 73.234
3.96 130.791 70.491
3.97 --undefined-- 65.387
3.98 --undefined-- 58.267
3.99 --undefined-- 53.165
4.00 --undefined-- 52.806
4.01 --undefined-- 53.953
4.02 --undefined-- 55.755
4.03 --undefined-- 63.119
4.04 --undefined-- 69.766
4.05 --undefined-- 73.255
4.06 113.718 74.244
4.07 110.170 74.080
4.08 105.958 73.635
4.09 102.902 72.703
4.10 99.702 71.106
4.11 97.438 68.884
4.12 99.431 66.246
4.13 102.917 63.482
4.14 102.735 60.891
4.15 103.283 61.897
4.16 128.677 67.427
4.17 127.758 71.593
4.18 122.625 73.882
4.19 121.163 74.814
4.20 118.292 74.791
4.21 114.575 74.209
4.22 112.743 73.786
4.23 112.651 73.602
4.24 112.851 73.311
4.25 114.915 72.884
4.26 113.812 72.537
4.27 116.354 72.703
4.28 118.193 73.089
4.29 117.113 73.633
4.30 125.840 74.204
4.31 125.688 74.442
4.32 126.600 74.291
4.33 124.460 73.337
4.34 121.708 70.697
4.35 122.928 65.611
4.36 126.003 59.251
4.37 125.610 54.714
4.38 124.317 51.993
4.39 --undefined-- 49.406
4.40 --undefined-- 52.619
4.41 --undefined-- 62.909
4.42 --undefined-- 69.724
4.43 133.361 73.319
4.44 132.736 74.596
4.45 131.580 74.968
4.46 133.297 75.566
4.47 136.378 76.424
4.48 139.005 76.976
4.49 141.636 76.475
4.50 144.013 74.095
4.51 147.904 69.939
4.52 152.143 67.021
4.53 152.233 66.791
4.54 164.967 70.112
4.55 191.331 74.865
4.56 192.333 77.566
4.57 192.022 78.093
4.58 190.886 77.690
4.59 189.193 77.424
4.60 185.909 77.613
4.61 178.487 77.977
4.62 171.068 77.928
4.63 159.539 77.570
4.64 152.112 76.935
4.65 131.444 75.763
4.66 114.063 74.377
4.67 107.647 72.884
4.68 100.060 71.100
4.69 98.321 69.736
4.70 96.233 69.437
4.71 94.744 68.846
4.72 91.319 67.403
4.73 94.228 65.963
4.74 93.299 65.015
4.75 93.952 64.534
4.76 94.614 64.652
4.77 95.494 64.985
4.78 96.060 65.300
4.79 97.551 65.680
4.80 99.361 66.288
4.81 100.786 66.844
4.82 102.972 67.044
4.83 105.208 67.115
4.84 106.930 67.229
4.85 107.083 67.463
4.86 109.786 67.859
4.87 112.220 68.212
4.88 111.466 68.786
4.89 115.741 70.010
4.90 116.791 71.069
4.91 113.213 71.276
4.92 113.153 71.065
4.93 114.400 70.792
4.94 115.618 70.398
4.95 115.948 69.854
4.96 113.501 68.991
4.97 111.110 68.298
4.98 110.740 68.356
4.99 110.543 68.452
5.00 110.227 68.012
5.01 109.074 67.470
5.02 108.947 67.310
5.03 110.027 67.425
5.04 111.685 67.642
5.05 111.580 67.926
5.06 112.812 68.124
5.07 113.083 67.909
5.08 112.427 67.458
5.09 115.470 67.395
5.10 115.461 67.531
5.11 115.062 67.637
5.12 114.435 67.735
5.13 112.983 67.614
5.14 109.054 66.722
5.15 101.890 64.885
5.16 101.422 63.846
5.17 --undefined-- 64.117
5.18 --undefined-- 64.181
5.19 --undefined-- 65.145
5.20 --undefined-- 66.648
5.21 --undefined-- 67.373
5.22 --undefined-- 69.053
5.23 --undefined-- 72.730
5.24 118.312 74.761
5.25 112.400 74.827
5.26 105.934 74.169
5.27 103.491 --undefined--
5.28 102.583 --undefined--
5.29 --undefined-- --undefined--
5.30 --undefined-- --undefined--
