Time Pitch Intensity
0.01 --undefined-- --undefined--
0.02 111.370 --undefined--
0.03 115.871 --undefined--
0.04 120.592 --undefined--
0.05 124.111 67.333
0.06 136.187 68.641
0.07 145.199 72.639
0.08 142.703 75.995
0.09 136.626 77.597
0.10 131.087 77.765
0.11 125.757 77.092
0.12 135.644 76.507
0.13 140.631 76.288
0.14 144.038 76.200
0.15 144.664 76.281
0.16 143.484 76.397
0.17 141.806 76.440
0.18 143.932 76.538
0.19 137.197 76.479
0.20 133.866 76.204
0.21 131.771 75.916
0.22 128.166 75.680
0.23 126.664 75.764
0.24 127.007 76.109
0.25 124.750 76.152
0.26 123.988 75.854
0.27 120.483 75.504
0.28 117.735 75.316
0.29 116.220 75.364
0.30 115.514 75.468
0.31 114.380 75.401
0.32 114.769 75.196
0.33 114.315 74.928
0.34 110.658 74.622
0.35 110.191 74.473
0.36 110.726 74.411
0.37 107.931 74.164
0.38 105.056 73.772
0.39 101.860 73.270
0.40 99.381 72.616
0.41 96.909 71.914
0.42 96.150 71.484
0.43 94.419 71.193
0.44 93.828 70.660
0.45 93.280 69.850
0.46 93.017 68.929
0.47 91.468 68.263
0.48 91.647 68.322
0.49 92.461 68.719
0.50 93.795 68.923
0.51 95.217 68.602
0.52 99.133 67.997
0.53 111.240 67.767
0.54 123.237 67.798
0.55 129.397 68.634
0.56 138.872 71.543
0.57 147.396 74.688
0.58 135.487 76.485
0.59 129.337 77.339
0.60 128.606 77.703
0.61 128.083 77.730
0.62 129.086 77.765
0.63 130.097 77.852
0.64 131.193 77.906
0.65 131.630 77.910
0.66 131.909 77.833
0.67 132.055 77.691
0.68 131.733 77.300
0.69 130.598 76.337
0.70 128.667 74.594
0.71 123.027 71.798
0.72 116.246 68.147
0.73 --undefined-- 65.076
0.74 90.030 62.532
0.75 90.281 61.858
0.76 131.874 66.098
0.77 131.949 69.950
0.78 121.518 71.672
0.79 111.615 71.938
0.80 108.739 71.990
0.81 108.953 72.370
0.82 109.825 72.786
0.83 110.532 72.917
0.84 106.692 72.565
0.85 106.100 71.704
0.86 105.393 70.260
0.87 103.952 68.215
0.88 112.533 65.792
0.89 --undefined-- 62.241
0.90 --undefined-- 57.040
0.91 --undefined-- 53.067
0.92 --undefined-- 53.749
0.93 --undefined-- 54.928
0.94 --undefined-- 56.040
0.95 148.063 61.798
0.96 137.836 67.174
0.97 125.394 70.422
0.98 104.113 72.006
0.99 104.239 72.616
1.00 105.385 73.075
1.01 106.504 73.649
1.02 108.625 74.273
1.03 110.302 74.827
1.04 112.443 75.428
1.05 114.602 76.159
1.06 117.783 76.849
1.07 121.422 77.239
1.08 125.491 77.218
1.09 129.470 76.914
1.10 130.764 76.541
1.11 130.159 76.198
1.12 127.536 75.991
1.13 121.786 76.006
1.14 118.625 76.134
1.15 115.689 76.178
1.16 111.327 76.268
1.17 110.914 76.360
1.18 110.677 76.244
1.19 111.388 76.052
1.20 112.658 75.946
1.21 113.484 75.713
1.22 113.725 75.232
1.23 118.146 74.471
1.24 121.498 73.442
1.25 132.611 73.495
1.26 134.206 74.941
1.27 134.795 75.680
1.28 132.282 74.704
1.29 125.025 72.069
1.30 122.970 68.617
1.31 118.465 65.563
1.32 121.185 63.826
1.33 126.846 64.884
1.34 130.452 68.144
1.35 129.120 71.219
1.36 128.659 73.757
1.37 122.497 75.445
1.38 115.761 76.166
1.39 112.876 76.302
1.40 112.425 76.265
1.41 111.917 76.137
1.42 111.453 75.811
1.43 111.026 75.049
1.44 110.946 73.498
1.45 109.786 70.995
1.46 107.561 67.697
1.47 101.527 63.549
1.48 --undefined-- 58.187
1.49 --undefined-- 53.078
1.50 --undefined-- 52.254
1.51 --undefined-- 53.404
1.52 --undefined-- 56.861
1.53 --undefined-- 64.120
1.54 --undefined-- 69.715
1.55 116.395 72.784
1.56 108.222 73.998
1.57 106.753 74.096
1.58 107.122 73.454
1.59 108.313 72.013
1.60 108.638 69.712
1.61 113.166 66.716
1.62 119.441 63.082
1.63 116.701 59.031
1.64 --undefined-- 56.698
1.65 --undefined-- 57.843
1.66 --undefined-- 65.269
1.67 --undefined-- 71.327
1.68 117.637 74.379
1.69 115.962 75.368
1.70 113.054 75.442
1.71 111.927 75.321
1.72 111.780 75.062
1.73 109.842 74.746
1.74 108.108 74.574
1.75 106.894 74.487
1.76 106.015 74.347
1.77 104.847 74.186
1.78 104.024 74.046
1.79 104.289 73.915
1.80 105.539 73.891
1.81 106.267 73.988
1.82 106.998 73.978
1.83 107.368 73.500
1.84 106.718 72.182
1.85 104.923 69.702
1.86 98.502 66.138
1.87 96.718 61.789
1.88 --undefined-- 56.909
1.89 --undefined-- 53.503
1.90 --undefined-- 53.298
1.91 --undefined-- 54.349
1.92 --undefined-- 56.998
1.93 --undefined-- 63.644
1.94 152.447 69.546
1.95 135.496 72.833
1.96 118.546 73.888
1.97 107.537 73.031
1.98 102.138 70.910
1.99 105.441 68.711
2.00 114.744 67.170
2.01 131.160 67.893
2.02 125.149 71.068
2.03 109.679 73.644
2.04 106.832 74.848
2.05 105.383 75.353
2.06 106.374 75.555
2.07 107.656 75.407
2.08 110.084 75.250
2.09 112.408 75.392
2.10 113.456 75.711
2.11 116.008 76.033
2.12 118.270 76.079
2.13 119.999 75.805
2.14 121.359 75.408
2.15 123.318 74.910
2.16 123.815 74.267
2.17 122.196 73.634
2.18 119.559 73.335
2.19 116.604 73.477
2.20 117.262 73.774
2.21 115.464 74.200
2.22 113.326 74.774
2.23 108.957 75.405
2.24 106.454 75.844
2.25 105.914 75.910
2.26 103.816 75.713
2.27 101.939 75.479
2.28 101.751 75.225
2.29 103.430 74.869
2.30 107.150 74.349
2.31 111.093 73.656
2.32 113.708 72.611
2.33 114.111 70.519
2.34 111.718 66.822
2.35 118.199 62.036
2.36 --undefined-- 58.407
2.37 --undefined-- 59.018
2.38 --undefined-- 62.909
2.39 --undefined-- 69.633
2.40 150.016 75.203
2.41 125.365 78.387
2.42 124.292 79.799
2.43 121.822 80.043
2.44 120.271 79.448
2.45 119.768 78.087
2.46 117.066 75.703
2.47 109.401 72.083
2.48 112.105 67.432
2.49 125.558 61.778
2.50 --undefined-- 54.429
2.51 --undefined-- 45.884
2.52 --undefined-- 40.897
2.53 --undefined-- 40.717
2.54 --undefined-- 43.668
2.55 --undefined-- 46.721
2.56 --undefined-- 51.767
2.57 --undefined-- 58.243
2.58 --undefined-- 63.180
2.59 --undefined-- 67.911
2.60 --undefined-- 71.575
2.61 116.421 73.175
2.62 108.748 73.562
2.63 112.835 74.164
2.64 120.149 74.838
2.65 126.529 74.945
2.66 130.222 74.739
2.67 131.929 74.595
2.68 131.063 74.340
2.69 128.892 73.579
2.70 127.554 71.967
2.71 124.764 69.070
2.72 112.145 65.057
2.73 119.652 62.430
2.74 119.676 61.625
2.75 --undefined-- 64.031
2.76 --undefined-- 68.917
2.77 118.845 71.676
2.78 108.186 72.177
2.79 103.345 71.438
2.80 100.334 70.604
2.81 98.981 70.306
2.82 98.511 70.477
2.83 97.847 70.519
2.84 96.491 69.995
2.85 94.723 69.421
2.86 94.884 69.352
2.87 95.583 69.427
2.88 97.815 69.727
2.89 101.101 70.207
2.90 102.233 70.068
2.91 100.314 68.654
2.92 96.149 66.278
2.93 108.810 64.609
2.94 116.361 65.915
2.95 116.100 68.967
2.96 112.634 71.336
2.97 108.890 72.520
2.98 107.435 72.875
2.99 108.245 72.635
3.00 104.965 71.431
3.01 102.076 69.606
3.02 111.199 68.173
3.03 119.878 66.974
3.04 119.139 66.212
3.05 130.399 67.349
3.06 141.712 70.752
3.07 138.754 73.906
3.08 131.130 75.849
3.09 128.137 76.537
3.10 124.694 75.745
3.11 118.878 73.336
3.12 128.745 69.673
3.13 127.783 65.410
3.14 129.538 61.445
3.15 --undefined-- 63.518
3.16 --undefined-- 71.128
3.17 --undefined-- 76.203
3.18 122.820 78.335
3.19 109.548 78.419
3.20 103.248 77.487
3.21 98.553 76.264
3.22 95.017 74.752
3.23 98.261 73.221
3.24 98.211 72.404
3.25 95.800 71.762
3.26 96.207 70.561
3.27 97.767 69.063
3.28 101.233 67.521
3.29 105.510 65.236
3.30 104.938 61.212
3.31 --undefined-- 55.222
3.32 --undefined-- 51.282
3.33 --undefined-- 52.373
3.34 --undefined-- 54.470
3.35 --undefined-- 55.706
3.36 --undefined-- 55.912
3.37 --undefined-- 55.149
3.38 --undefined-- 53.597
3.39 --undefined-- 51.893
3.40 --undefined-- 51.082
3.41 --undefined-- 50.943
3.42 --undefined-- 50.696
3.43 --undefined-- 50.347
3.44 --undefined-- 50.083
3.45 --undefined-- 49.976
3.46 --undefined-- 49.907
3.47 --undefined-- 49.472
3.48 --undefined-- 48.879
3.49 --undefined-- 48.080
3.50 --undefined-- 47.083
3.51 --undefined-- 46.814
3.52 --undefined-- 46.801
3.53 --undefined-- 45.705
3.54 --undefined-- 43.328
3.55 --undefined-- 41.449
3.56 --undefined-- 43.231
3.57 --undefined-- 45.732
3.58 --undefined-- 47.484
3.59 --undefined-- 51.844
3.60 --undefined-- 60.334
3.61 155.240 67.461
3.62 141.918 71.512
3.63 128.186 73.315
3.64 124.946 74.082
3.65 123.079 74.385
3.66 124.341 74.071
3.67 125.666 72.935
3.68 122.379 71.344
3.69 119.872 69.763
3.70 120.621 68.932
3.71 156.905 71.904
3.72 127.384 75.111
3.73 115.428 76.346
3.74 107.662 76.316
3.75 106.568 76.024
3.76 106.848 75.798
3.77 106.608 75.330
3.78 107.971 74.499
3.79 108.166 73.330
3.80 106.727 71.942
3.81 107.288 71.135
3.82 106.938 71.293
3.83 106.013 71.870
3.84 104.070 72.411
3.85 102.279 72.676
3.86 100.205 72.778
3.87 101.768 72.884
3.88 102.058 72.865
3.89 103.022 72.691
3.90 98.895 72.255
3.91 98.612 71.437
3.92 96.172 70.405
3.93 95.586 69.345
3.94 94.392 68.484
3.95 97.495 68.236
3.96 96.720 68.627
3.97 100.934 68.944
3.98 99.508 68.298
3.99 99.310 67.063
4.00 100.190 66.418
4.01 131.597 68.138
4.02 135.949 71.765
4.03 128.776 74.635
4.04 121.460 76.083
4.05 119.274 76.522
4.06 120.308 76.550
4.07 122.635 76.487
4.08 126.702 76.267
4.09 128.373 76.028
4.10 129.248 75.865
4.11 127.738 75.699
4.12 126.087 75.518
4.13 126.610 75.542
4.14 126.599 75.825
4.15 124.881 76.042
4.16 122.915 76.018
4.17 120.119 75.654
4.18 116.950 75.021
4.19 113.958 74.524
4.20 111.684 74.288
4.21 112.196 74.551
4.22 111.889 74.915
4.23 108.908 74.868
4.24 107.939 74.661
4.25 106.973 74.582
4.26 107.085 74.603
4.27 107.946 74.602
4.28 109.943 74.432
4.29 111.788 73.515
4.30 109.432 70.960
4.31 109.139 65.857
4.32 --undefined-- 58.329
4.33 --undefined-- 56.807
4.34 --undefined-- 60.753
4.35 --undefined-- 65.254
4.36 129.358 70.556
4.37 130.353 73.740
4.38 110.813 75.006
4.39 110.596 75.579
4.40 111.826 75.933
4.41 113.320 76.042
4.42 115.619 75.944
4.43 118.071 75.508
4.44 118.267 74.139
4.45 114.252 71.579
4.46 118.404 68.795
4.47 127.081 67.073
4.48 132.730 67.826
4.49 144.320 71.335
4.50 147.234 74.721
4.51 145.307 76.714
4.52 141.229 77.671
4.53 139.170 78.095
4.54 137.143 78.169
4.55 136.265 77.976
4.56 135.721 77.545
4.57 136.374 76.886
4.58 136.124 76.195
4.59 135.861 75.734
4.60 134.735 75.260
4.61 131.666 74.261
4.62 126.115 72.382
4.63 120.979 70.031
4.64 115.434 69.471
4.65 150.862 73.040
4.66 144.446 76.414
4.67 134.432 77.981
4.68 130.635 78.746
4.69 127.489 79.251
4.70 126.515 79.195
4.71 126.290 78.878
4.72 126.117 78.487
4.73 124.952 77.617
4.74 122.803 75.930
4.75 120.536 73.105
4.76 110.355 68.914
4.77 97.085 63.299
4.78 --undefined-- 56.246
4.79 --undefined-- 49.931
4.80 --undefined-- 48.102
4.81 --undefined-- 48.983
4.82 --undefined-- 49.313
4.83 --undefined-- 49.365
4.84 --undefined-- 50.248
4.85 --undefined-- 51.196
4.86 --undefined-- 51.280
4.87 --undefined-- 50.415
4.88 --undefined-- 49.340
4.89 --undefined-- 48.729
4.90 --undefined-- 47.818
4.91 --undefined-- 47.129
4.92 --undefined-- 46.952
4.93 --undefined-- 45.828
4.94 --undefined-- 45.970
4.95 --undefined-- 49.009
4.96 --undefined-- 53.369
4.97 --undefined-- 59.528
4.98 --undefined-- 69.109
4.99 208.280 75.875
5.00 184.010 79.583
5.01 176.374 81.515
5.02 170.659 82.527
5.03 163.839 82.914
5.04 161.641 82.894
5.05 157.795 --undefined--
5.06 149.988 --undefined--
5.07 --undefined-- --undefined--
5.08 --undefined-- --undefined--
