Time Pitch Intensity
0.01 --undefined-- --undefined--
0.02 126.224 --undefined--
0.03 127.873 --undefined--
0.04 129.806 --undefined--
0.05 131.845 75.545
0.06 133.689 75.455
0.07 136.504 75.342
0.08 138.520 75.492
0.09 139.938 75.788
0.10 140.129 75.883
0.11 140.337 75.734
0.12 140.952 75.469
0.13 141.254 75.167
0.14 142.773 74.990
0.15 143.207 74.616
0.16 142.377 73.076
0.17 138.240 69.691
0.18 142.923 65.266
0.19 143.680 60.930
0.20 143.311 56.218
0.21 --undefined-- 54.933
0.22 --undefined-- 57.671
0.23 --undefined-- 63.755
0.24 --undefined-- 70.881
0.25 178.708 74.737
0.26 173.285 75.796
0.27 170.468 75.542
0.28 168.043 75.416
0.29 166.916 75.709
0.30 166.240 76.095
0.31 166.017 76.514
0.32 166.998 76.888
0.33 168.019 76.956
0.34 168.146 76.765
0.35 166.825 76.462
0.36 164.339 75.871
0.37 160.900 74.577
0.38 156.644 72.730
0.39 154.423 71.936
0.40 152.922 72.398
0.41 148.604 72.739
0.42 144.810 73.330
0.43 139.957 74.416
0.44 136.474 75.272
0.45 132.291 75.769
0.46 124.149 76.072
0.47 120.985 75.469
0.48 114.933 73.253
0.49 108.598 69.415
0.50 106.400 64.469
0.51 119.286 59.581
0.52 120.643 55.594
0.53 123.992 52.096
0.54 --undefined-- 49.072
0.55 --undefined-- 47.889
0.56 --undefined-- 46.653
0.57 --undefined-- 44.077
0.58 --undefined-- 40.724
0.59 --undefined-- 38.504
0.60 --undefined-- 38.980
0.61 --undefined-- 39.482
0.62 --undefined-- 39.889
0.63 --undefined-- 39.861
0.64 --undefined-- 39.802
0.65 --undefined-- 40.727
0.66 --undefined-- 41.928
0.67 --undefined-- 42.497
0.68 --undefined-- 42.639
0.69 --undefined-- 41.984
0.70 --undefined-- 40.324
0.71 --undefined-- 41.896
0.72 --undefined-- 49.509
0.73 --undefined-- 55.087
0.74 --undefined-- 57.592
0.75 --undefined-- 63.208
0.76 184.652 70.348
0.77 173.289 74.482
0.78 167.546 76.089
0.79 165.322 76.326
0.80 163.720 76.164
0.81 162.015 75.814
0.82 160.818 75.244
0.83 160.555 74.515
0.84 159.616 73.658
0.85 157.663 73.125
0.86 159.311 73.522
0.87 160.525 74.175
0.88 161.086 74.652
0.89 160.623 75.027
0.90 159.811 75.310
0.91 158.506 75.550
0.92 157.194 75.648
0.93 155.098 75.430
0.94 151.746 74.506
0.95 148.926 72.167
0.96 150.473 67.774
0.97 156.557 61.748
0.98 --undefined-- 59.783
0.99 --undefined-- 63.565
1.00 --undefined-- 66.320
1.01 --undefined-- 67.738
1.02 --undefined-- 71.247
1.03 --undefined-- 74.458
1.04 121.663 75.462
1.05 117.859 75.068
1.06 106.165 74.153
1.07 104.228 73.403
1.08 105.714 73.273
1.09 105.737 73.504
1.10 109.712 73.776
1.11 114.139 74.100
1.12 117.789 74.314
1.13 121.771 74.306
1.14 125.925 73.954
1.15 129.036 73.003
1.16 133.181 71.229
1.17 136.773 68.615
1.18 136.097 65.150
1.19 133.812 61.223
1.20 134.916 58.000
1.21 --undefined-- 56.566
1.22 --undefined-- 56.492
1.23 --undefined-- 57.849
1.24 --undefined-- 59.762
1.25 --undefined-- 59.878
1.26 --undefined-- 57.776
1.27 --undefined-- 56.122
1.28 --undefined-- 62.754
1.29 174.490 69.728
1.30 162.371 73.887
1.31 157.805 75.920
1.32 156.467 76.603
1.33 154.694 76.607
1.34 152.805 76.237
1.35 150.204 75.149
1.36 142.225 73.037
1.37 134.350 70.962
1.38 134.236 71.423
1.39 134.762 73.326
1.40 134.503 74.490
1.41 128.918 74.556
1.42 125.940 74.152
1.43 120.130 73.715
1.44 115.332 73.042
1.45 111.809 72.459
1.46 108.676 72.703
1.47 109.089 73.320
1.48 106.810 73.632
1.49 106.333 73.626
1.50 106.124 73.425
1.51 106.387 73.100
1.52 105.272 72.828
1.53 105.084 72.829
1.54 105.485 72.914
1.55 105.563 72.892
1.56 106.998 72.973
1.57 109.706 73.296
1.58 109.935 73.744
1.59 111.906 74.313
1.60 113.434 74.760
1.61 113.689 75.013
1.62 114.765 75.362
1.63 118.439 75.835
1.64 115.884 75.897
1.65 113.390 75.720
1.66 112.645 75.835
1.67 111.694 75.985
1.68 111.481 76.071
1.69 109.395 75.994
1.70 108.144 75.599
1.71 108.367 74.952
1.72 110.246 74.415
1.73 112.932 74.246
1.74 113.796 74.258
1.75 113.303 74.240
1.76 112.779 74.219
1.77 112.590 74.304
1.78 112.955 74.555
1.79 113.113 74.920
1.80 112.967 75.231
1.81 113.019 75.399
1.82 112.015 75.365
1.83 111.189 75.084
1.84 110.254 74.747
1.85 111.556 74.640
1.86 112.043 74.702
1.87 112.568 74.756
1.88 112.236 74.792
1.89 112.201 74.894
1.90 112.252 74.992
1.91 111.838 74.946
1.92 110.908 74.748
1.93 109.685 74.459
1.94 108.691 74.224
1.95 107.346 74.198
1.96 106.389 74.227
1.97 104.571 74.057
1.98 102.866 73.602
1.99 100.965 73.130
2.00 96.558 72.749
2.01 96.231 72.073
2.02 90.543 70.728
2.03 88.888 68.712
2.04 82.863 66.457
2.05 83.065 64.883
2.06 83.286 64.416
2.07 78.650 64.851
2.08 78.671 66.455
2.09 83.982 68.792
2.10 85.123 70.745
2.11 83.766 71.677
2.12 86.372 71.755
2.13 86.288 71.651
2.14 86.375 71.711
2.15 88.120 71.746
2.16 90.427 71.965
2.17 97.528 72.520
2.18 97.026 73.106
2.19 99.405 73.582
2.20 99.371 74.039
2.21 99.098 74.378
2.22 101.381 74.324
2.23 103.451 73.768
2.24 107.543 73.190
2.25 114.928 73.215
2.26 123.890 73.806
2.27 131.015 74.921
2.28 145.412 76.223
2.29 147.445 76.720
2.30 148.920 76.252
2.31 152.777 75.791
2.32 154.803 75.918
2.33 154.355 76.081
2.34 152.834 75.938
2.35 149.312 75.546
2.36 146.088 75.085
2.37 142.192 74.631
2.38 138.972 73.561
2.39 133.266 70.810
2.40 119.404 66.043
2.41 147.919 60.174
2.42 148.459 55.099
2.43 142.917 54.196
2.44 --undefined-- 60.439
2.45 --undefined-- 68.257
2.46 142.960 72.890
2.47 130.181 74.805
2.48 126.449 75.321
2.49 123.132 75.536
2.50 119.216 75.547
2.51 116.123 75.202
2.52 113.682 74.652
2.53 111.780 73.665
2.54 110.027 72.103
2.55 111.138 71.016
2.56 111.824 71.060
2.57 112.707 71.995
2.58 112.256 73.599
2.59 112.969 75.195
2.60 110.682 76.066
2.61 110.512 76.256
2.62 110.003 76.090
2.63 107.168 75.777
2.64 104.870 75.639
2.65 103.792 75.692
2.66 103.097 75.777
2.67 103.788 75.883
2.68 104.905 75.983
2.69 104.729 75.945
2.70 104.344 75.833
2.71 104.254 75.452
2.72 104.781 74.862
2.73 105.799 74.392
2.74 111.368 74.343
2.75 115.375 75.012
2.76 124.519 76.126
2.77 128.398 76.805
2.78 131.813 76.664
2.79 134.320 76.144
2.80 135.123 75.667
2.81 134.166 75.158
2.82 133.139 74.229
2.83 122.241 72.371
2.84 78.885 69.515
2.85 --undefined-- 65.613
2.86 --undefined-- 60.050
2.87 --undefined-- 54.960
2.88 135.179 53.702
2.89 134.283 53.886
2.90 134.825 54.251
2.91 --undefined-- 54.200
2.92 --undefined-- 53.776
2.93 --undefined-- 54.079
2.94 --undefined-- 54.342
2.95 --undefined-- 53.549
2.96 --undefined-- 52.667
2.97 --undefined-- 52.537
2.98 --undefined-- 52.518
2.99 --undefined-- 53.000
3.00 --undefined-- 54.056
3.01 --undefined-- 54.132
3.02 --undefined-- 52.944
3.03 --undefined-- 51.233
3.04 --undefined-- 49.804
3.05 --undefined-- 48.722
3.06 --undefined-- 47.355
3.07 --undefined-- 45.469
3.08 --undefined-- 43.289
3.09 --undefined-- 41.609
3.10 --undefined-- 44.290
3.11 --undefined-- 49.202
3.12 --undefined-- 51.761
3.13 --undefined-- 53.543
3.14 --undefined-- 56.575
3.15 --undefined-- 59.739
3.16 --undefined-- 61.800
3.17 --undefined-- 62.799
3.18 --undefined-- 65.014
3.19 265.234 70.181
3.20 266.819 74.329
3.21 260.347 76.278
3.22 256.447 76.905
3.23 255.358 76.997
3.24 254.288 76.829
3.25 252.005 76.641
3.26 248.938 76.474
3.27 244.411 76.164
3.28 238.330 75.511
3.29 230.028 74.350
3.30 218.281 73.007
3.31 201.217 72.513
3.32 186.016 73.061
3.33 168.962 73.733
3.34 157.024 74.116
3.35 141.975 73.794
3.36 132.048 73.231
3.37 126.041 73.116
3.38 122.536 73.272
3.39 118.850 73.161
3.40 114.974 72.733
3.41 112.919 72.483
3.42 111.762 72.839
3.43 113.493 73.476
3.44 113.574 73.632
3.45 111.449 72.944
3.46 110.362 71.555
3.47 109.188 69.653
3.48 111.730 67.652
3.49 119.553 66.016
3.50 122.682 65.370
3.51 148.162 68.359
3.52 162.208 72.829
3.53 165.523 75.595
3.54 168.414 76.441
3.55 171.449 75.762
3.56 180.135 73.825
3.57 183.684 70.802
3.58 170.303 66.881
3.59 191.102 62.955
3.60 194.326 59.235
3.61 175.325 54.863
3.62 --undefined-- 51.529
3.63 --undefined-- 49.459
3.64 --undefined-- 48.129
3.65 --undefined-- 46.615
3.66 --undefined-- 45.959
3.67 --undefined-- 49.479
3.68 --undefined-- 52.629
3.69 --undefined-- 54.280
3.70 --undefined-- 56.769
3.71 --undefined-- 59.192
3.72 --undefined-- 60.755
3.73 --undefined-- 64.488
3.74 --undefined-- 70.901
3.75 159.887 74.887
3.76 157.158 76.160
3.77 152.528 75.787
3.78 146.132 75.075
3.79 142.484 74.936
3.80 140.431 75.206
3.81 138.557 75.376
3.82 136.925 75.240
3.83 135.918 75.003
3.84 135.593 74.752
3.85 136.262 74.394
3.86 136.881 73.881
3.87 136.760 73.297
3.88 134.759 72.901
3.89 130.715 72.770
3.90 125.941 72.709
3.91 123.590 72.727
3.92 125.183 72.857
3.93 132.752 72.857
3.94 138.860 72.616
3.95 138.595 72.351
3.96 136.965 72.242
3.97 139.800 72.165
3.98 146.024 71.293
3.99 148.293 69.149
4.00 156.286 66.592
4.01 164.218 65.544
4.02 165.226 65.667
4.03 169.841 65.727
4.04 175.382 65.877
4.05 180.581 66.620
4.06 184.206 67.796
4.07 185.943 68.786
4.08 188.469 69.168
4.09 191.756 69.236
4.10 196.315 69.781
4.11 200.529 71.058
4.12 203.869 72.527
4.13 208.604 73.633
4.14 211.250 74.146
4.15 210.929 73.659
4.16 205.360 71.735
4.17 193.259 70.072
4.18 205.279 72.248
4.19 205.737 74.826
4.20 204.259 75.971
4.21 200.302 76.029
4.22 194.423 75.519
4.23 191.355 74.973
4.24 190.482 74.633
4.25 191.766 74.490
4.26 193.666 74.405
4.27 194.566 74.030
4.28 193.964 73.356
4.29 193.009 72.801
4.30 190.356 72.470
4.31 187.630 72.070
4.32 186.463 71.569
4.33 186.809 71.349
4.34 188.984 71.718
4.35 188.948 72.510
4.36 187.939 73.292
4.37 191.058 73.708
4.38 191.820 73.350
4.39 190.589 71.491
4.40 186.384 67.472
4.41 186.008 61.020
4.42 189.375 53.778
4.43 --undefined-- 49.299
4.44 --undefined-- 46.847
4.45 --undefined-- 45.536
4.46 --undefined-- 45.612
4.47 --undefined-- 44.668
4.48 --undefined-- 42.463
4.49 --undefined-- 40.600
4.50 --undefined-- 39.751
4.51 --undefined-- 39.645
4.52 --undefined-- 40.521
4.53 --undefined-- 46.620
4.54 --undefined-- 59.404
4.55 --undefined-- 68.354
4.56 --undefined-- 73.293
4.57 --undefined-- 74.764
4.58 --undefined-- 74.125
4.59 101.412 73.173
4.60 102.457 72.165
4.61 102.590 70.619
4.62 96.995 68.763
4.63 95.796 67.462
4.64 90.418 67.358
4.65 91.164 67.685
4.66 93.119 68.285
4.67 94.702 69.263
4.68 95.510 70.699
4.69 102.813 72.116
4.70 105.263 73.292
4.71 114.939 74.027
4.72 115.734 74.196
4.73 126.006 74.198
4.74 131.071 74.319
4.75 142.426 74.178
4.76 148.718 73.111
4.77 139.790 70.185
4.78 141.603 64.814
4.79 157.620 57.741
4.80 148.263 52.836
4.81 144.171 50.282
4.82 --undefined-- 47.368
4.83 --undefined-- 47.282
4.84 --undefined-- 53.122
4.85 --undefined-- 58.305
4.86 --undefined-- 63.885
4.87 197.772 69.822
4.88 185.614 73.327
4.89 182.348 74.474
4.90 179.452 73.772
4.91 174.457 71.480
4.92 163.000 67.491
4.93 --undefined-- 61.978
4.94 --undefined-- 56.987
4.95 --undefined-- 53.546
4.96 --undefined-- 50.794
4.97 --undefined-- 48.835
4.98 --undefined-- 47.673
4.99 --undefined-- 46.770
5.00 --undefined-- 45.753
5.01 --undefined-- 44.001
5.02 --undefined-- 42.850
5.03 --undefined-- 42.825
5.04 --undefined-- 43.073
5.05 --undefined-- 43.960
5.06 --undefined-- 47.217
5.07 --undefined-- 50.710
5.08 --undefined-- 53.828
5.09 174.414 57.011
5.10 168.651 58.111
5.11 165.319 56.528
5.12 --undefined-- 52.836
5.13 --undefined-- 47.721
5.14 --undefined-- 43.797
5.15 --undefined-- 43.465
5.16 --undefined-- 45.940
5.17 --undefined-- 55.264
5.18 203.548 64.162
5.19 186.821 69.385
5.20 181.909 71.795
5.21 182.448 72.457
5.22 181.470 72.479
5.23 180.761 72.453
5.24 180.691 72.317
5.25 181.304 71.983
5.26 182.289 71.618
5.27 181.182 71.410
5.28 179.103 71.318
5.29 174.530 71.206
5.30 168.604 70.763
5.31 163.215 69.502
5.32 157.969 66.954
5.33 154.644 62.865
5.34 155.594 58.734
5.35 155.699 56.286
5.36 160.114 --undefined--
5.37 151.420 --undefined--
5.38 --undefined-- --undefined--
5.39 --undefined-- --undefined--
