Time Pitch Intensity
0.01 --undefined-- --undefined--
0.02 132.728 --undefined--
0.03 133.525 --undefined--
0.04 135.843 --undefined--
0.05 137.438 61.613
0.06 139.111 62.261
0.07 139.199 62.116
0.08 137.153 60.807
0.09 133.839 57.891
0.10 129.047 52.986
0.11 --undefined-- 48.911
0.12 --undefined-- 53.058
0.13 --undefined-- 56.505
0.14 --undefined-- 58.129
0.15 --undefined-- 59.599
0.16 --undefined-- 59.853
0.17 --undefined-- 58.246
0.18 --undefined-- 56.374
0.19 --undefined-- 56.768
0.20 --undefined-- 60.071
0.21 --undefined-- 62.283
0.22 115.602 62.340
0.23 107.576 61.980
0.24 106.564 62.534
0.25 103.225 63.021
0.26 102.716 62.969
0.27 101.944 62.743
0.28 102.450 62.328
0.29 102.412 61.860
0.30 101.732 61.065
0.31 100.991 59.189
0.32 --undefined-- 55.809
0.33 --undefined-- 50.606
0.34 --undefined-- 44.626
0.35 --undefined-- 41.165
0.36 --undefined-- 43.811
0.37 --undefined-- 53.100
0.38 --undefined-- 60.009
0.39 --undefined-- 63.594
0.40 --undefined-- 65.064
0.41 --undefined-- 65.918
0.42 --undefined-- 65.749
0.43 --undefined-- 63.725
0.44 --undefined-- 60.527
0.45 --undefined-- 59.592
0.46 --undefined-- 64.168
0.47 149.081 67.700
0.48 146.995 68.109
0.49 138.999 65.700
0.50 136.689 60.657
0.51 --undefined-- 52.705
0.52 --undefined-- 43.991
0.53 --undefined-- 40.034
0.54 --undefined-- 37.672
0.55 --undefined-- 36.825
0.56 --undefined-- 36.848
0.57 --undefined-- 37.001
0.58 --undefined-- 36.867
0.59 --undefined-- 36.333
0.60 --undefined-- 36.203
0.61 --undefined-- 36.454
0.62 --undefined-- 38.211
0.63 --undefined-- 43.495
0.64 --undefined-- 46.992
0.65 --undefined-- 46.781
0.66 --undefined-- 43.319
0.67 --undefined-- 39.013
0.68 --undefined-- 38.706
0.69 --undefined-- 48.513
0.70 --undefined-- 56.471
0.71 --undefined-- 60.940
0.72 --undefined-- 65.672
0.73 --undefined-- 69.750
0.74 136.277 71.629
0.75 136.192 72.084
0.76 134.117 71.764
0.77 131.555 71.102
0.78 129.627 70.878
0.79 128.827 71.053
0.80 129.575 70.899
0.81 130.250 70.219
0.82 130.718 69.604
0.83 132.026 69.300
0.84 132.832 69.034
0.85 132.917 68.659
0.86 133.081 68.142
0.87 133.912 67.528
0.88 134.134 67.025
0.89 133.822 66.590
0.90 132.946 65.987
0.91 132.358 65.146
0.92 132.873 64.385
0.93 125.371 63.500
0.94 126.385 61.949
0.95 127.094 60.231
0.96 --undefined-- 58.048
0.97 --undefined-- 55.375
0.98 --undefined-- 53.664
0.99 --undefined-- 53.228
1.00 --undefined-- 53.789
1.01 --undefined-- 54.101
1.02 --undefined-- 53.728
1.03 --undefined-- 53.759
1.04 --undefined-- 54.541
1.05 --undefined-- 56.052
1.06 --undefined-- 57.104
1.07 --undefined-- 57.699
1.08 --undefined-- 61.640
1.09 --undefined-- 65.033
1.10 --undefined-- 65.510
1.11 --undefined-- 63.150
1.12 --undefined-- 58.074
1.13 --undefined-- 49.999
1.14 --undefined-- 40.916
1.15 --undefined-- 38.497
1.16 --undefined-- 42.487
1.17 --undefined-- 48.369
1.18 --undefined-- 51.551
1.19 --undefined-- 53.748
1.20 --undefined-- 56.939
1.21 --undefined-- 59.147
1.22 --undefined-- 59.698
1.23 --undefined-- 59.508
1.24 --undefined-- 59.338
1.25 --undefined-- 58.891
1.26 --undefined-- 57.940
1.27 --undefined-- 57.110
1.28 --undefined-- 57.180
1.29 --undefined-- 57.615
1.30 --undefined-- 57.376
1.31 --undefined-- 56.527
1.32 --undefined-- 55.193
1.33 --undefined-- 53.409
1.34 --undefined-- 52.035
1.35 --undefined-- 54.547
1.36 --undefined-- 62.032
1.37 --undefined-- 68.020
1.38 100.099 70.986
1.39 103.479 71.777
1.40 102.712 71.761
1.41 100.793 71.590
1.42 98.831 70.924
1.43 95.262 69.413
1.44 93.585 67.627
1.45 92.933 66.645
1.46 91.322 66.455
1.47 92.669 66.521
1.48 90.608 66.567
1.49 93.865 66.624
1.50 87.870 66.810
1.51 96.235 67.338
1.52 93.259 67.594
1.53 99.663 67.422
1.54 96.402 66.779
1.55 97.919 65.209
1.56 98.164 62.845
1.57 --undefined-- 59.590
1.58 100.315 55.331
1.59 103.957 52.877
1.60 106.418 53.164
1.61 110.518 53.390
1.62 113.742 53.755
1.63 119.755 54.741
1.64 124.836 57.089
1.65 124.931 60.819
1.66 125.124 63.944
1.67 124.471 65.588
1.68 124.504 66.242
1.69 124.333 66.599
1.70 123.091 66.840
1.71 122.101 66.751
1.72 119.986 65.951
1.73 116.643 63.858
1.74 112.212 59.731
1.75 112.095 53.341
1.76 --undefined-- 47.891
1.77 --undefined-- 48.593
1.78 --undefined-- 52.519
1.79 --undefined-- 53.857
1.80 --undefined-- 56.139
1.81 --undefined-- 62.094
1.82 --undefined-- 66.747
1.83 117.757 69.415
1.84 119.273 70.431
1.85 118.378 70.103
1.86 118.333 68.699
1.87 118.529 66.496
1.88 118.170 63.434
1.89 115.839 59.225
1.90 113.758 53.885
1.91 --undefined-- 48.281
1.92 --undefined-- 43.824
1.93 --undefined-- 40.128
1.94 --undefined-- 38.487
1.95 --undefined-- 45.302
1.96 --undefined-- 54.602
1.97 --undefined-- 62.544
1.98 --undefined-- 67.467
1.99 111.536 69.696
2.00 117.328 70.337
2.01 115.986 70.237
2.02 115.937 69.918
2.03 115.943 69.704
2.04 115.878 69.549
2.05 115.057 69.326
2.06 113.617 68.898
2.07 113.014 68.447
2.08 112.545 68.209
2.09 111.928 68.077
2.10 111.699 67.986
2.11 111.276 67.972
2.12 110.235 68.004
2.13 110.319 68.150
2.14 110.634 68.415
2.15 110.465 68.521
2.16 109.875 68.424
2.17 109.208 68.327
2.18 108.973 68.319
2.19 109.311 68.400
2.20 109.359 68.496
2.21 108.905 68.497
2.22 109.023 68.396
2.23 108.592 68.341
2.24 107.947 68.409
2.25 107.619 68.449
2.26 107.238 68.471
2.27 107.057 68.481
2.28 107.495 68.442
2.29 108.064 68.462
2.30 107.810 68.476
2.31 107.882 68.503
2.32 107.645 68.575
2.33 107.256 68.613
2.34 106.936 68.590
2.35 106.310 68.508
2.36 106.820 68.391
2.37 106.916 68.329
2.38 107.353 68.387
2.39 106.890 68.436
2.40 106.564 68.449
2.41 106.187 68.495
2.42 105.601 68.497
2.43 105.117 68.555
2.44 105.460 68.584
2.45 105.986 68.552
2.46 105.532 68.679
2.47 106.160 68.849
2.48 105.913 68.897
2.49 106.489 68.893
2.50 106.278 68.839
2.51 106.219 68.804
2.52 104.596 69.021
2.53 104.283 69.512
2.54 103.236 69.964
2.55 102.688 70.232
2.56 102.990 70.091
2.57 104.827 69.548
2.58 106.969 69.224
2.59 106.209 69.323
2.60 106.152 69.580
2.61 --undefined-- 69.580
2.62 --undefined-- 69.062
2.63 --undefined-- 68.637
2.64 --undefined-- 68.674
2.65 --undefined-- 68.787
2.66 --undefined-- 68.912
2.67 --undefined-- 68.965
2.68 --undefined-- 69.063
2.69 --undefined-- 69.321
2.70 --undefined-- 69.499
2.71 --undefined-- 69.540
2.72 --undefined-- 69.586
2.73 --undefined-- 69.633
2.74 --undefined-- 69.798
2.75 --undefined-- 69.880
2.76 --undefined-- 69.783
2.77 --undefined-- 69.570
2.78 --undefined-- 69.219
2.79 --undefined-- 68.896
2.80 99.404 68.721
2.81 101.882 68.394
2.82 100.456 67.780
2.83 100.002 66.930
2.84 98.498 65.608
2.85 97.971 63.969
2.86 96.208 62.186
2.87 97.140 60.141
2.88 95.744 57.312
2.89 --undefined-- 53.060
2.90 --undefined-- 47.920
2.91 --undefined-- 50.267
2.92 --undefined-- 56.487
2.93 93.822 59.897
2.94 94.136 61.168
2.95 --undefined-- 61.229
2.96 92.465 60.228
2.97 91.946 58.395
2.98 89.720 56.585
2.99 89.208 55.646
3.00 89.133 55.554
3.01 89.096 55.191
3.02 --undefined-- 53.199
3.03 --undefined-- 50.516
3.04 --undefined-- 52.010
3.05 --undefined-- 54.280
3.06 97.535 55.111
3.07 93.818 55.292
3.08 93.917 55.846
3.09 94.523 56.747
3.10 98.743 57.837
3.11 99.578 58.563
3.12 100.234 58.262
3.13 99.165 56.585
3.14 --undefined-- 53.182
3.15 --undefined-- 47.895
3.16 --undefined-- 43.235
3.17 --undefined-- 50.009
3.18 --undefined-- 57.063
3.19 --undefined-- 60.310
3.20 --undefined-- 61.022
3.21 --undefined-- 61.219
3.22 --undefined-- 61.325
3.23 --undefined-- 61.148
3.24 --undefined-- 63.121
3.25 85.712 66.345
3.26 84.867 68.600
3.27 83.832 69.370
3.28 80.655 68.716
3.29 --undefined-- 66.961
3.30 --undefined-- 64.294
3.31 --undefined-- 61.233
3.32 77.478 58.708
3.33 77.460 56.702
3.34 77.560 54.664
3.35 --undefined-- 51.599
3.36 --undefined-- 46.916
3.37 --undefined-- 43.325
3.38 --undefined-- 45.539
3.39 --undefined-- 51.925
3.40 --undefined-- 56.431
3.41 --undefined-- 61.186
3.42 --undefined-- 64.779
3.43 124.449 66.599
3.44 122.627 67.071
3.45 123.271 66.045
3.46 123.231 63.331
3.47 --undefined-- 58.196
3.48 --undefined-- 49.807
3.49 --undefined-- 41.084
3.50 --undefined-- 38.199
3.51 --undefined-- 37.387
3.52 --undefined-- 38.239
3.53 --undefined-- 42.255
3.54 --undefined-- 52.771
3.55 --undefined-- 62.347
3.56 --undefined-- 68.343
3.57 --undefined-- 70.410
3.58 --undefined-- 68.863
3.59 --undefined-- 65.625
3.60 --undefined-- 64.660
3.61 --undefined-- 64.929
3.62 --undefined-- 64.892
3.63 --undefined-- 64.853
3.64 --undefined-- 64.817
3.65 74.510 64.961
3.66 82.839 65.877
3.67 --undefined-- 66.970
3.68 --undefined-- 68.454
3.69 --undefined-- 69.714
3.70 --undefined-- 69.756
3.71 113.091 68.473
3.72 113.395 66.372
3.73 113.765 63.704
3.74 --undefined-- 59.567
3.75 --undefined-- 54.108
3.76 --undefined-- 52.783
3.77 --undefined-- 54.640
3.78 --undefined-- 55.345
3.79 --undefined-- 55.102
3.80 --undefined-- 55.370
3.81 --undefined-- 55.785
3.82 --undefined-- 55.968
3.83 --undefined-- 56.165
3.84 --undefined-- 56.122
3.85 --undefined-- 55.904
3.86 --undefined-- 56.400
3.87 --undefined-- 59.393
3.88 129.390 62.811
3.89 126.638 65.041
3.90 124.407 66.047
3.91 123.734 66.092
3.92 122.695 65.505
3.93 120.566 64.506
3.94 118.362 63.378
3.95 116.352 62.356
3.96 113.572 61.486
3.97 111.678 60.788
3.98 107.920 59.882
3.99 107.023 57.868
4.00 102.794 53.936
4.01 --undefined-- 48.548
4.02 --undefined-- 45.857
4.03 --undefined-- 49.708
4.04 --undefined-- 53.324
4.05 --undefined-- 56.975
4.06 --undefined-- 60.470
4.07 --undefined-- 62.801
4.08 --undefined-- 65.093
4.09 --undefined-- 65.844
4.10 --undefined-- 66.039
4.11 --undefined-- 66.377
4.12 --undefined-- 66.241
4.13 --undefined-- 67.873
4.14 86.835 68.974
4.15 99.646 68.578
4.16 --undefined-- 67.506
4.17 --undefined-- 66.908
4.18 --undefined-- 64.702
4.19 --undefined-- 58.624
4.20 --undefined-- 48.089
4.21 --undefined-- 39.167
4.22 --undefined-- 37.873
4.23 --undefined-- 37.971
4.24 --undefined-- 37.865
4.25 --undefined-- 38.548
4.26 --undefined-- 41.280
4.27 --undefined-- 43.969
4.28 --undefined-- 45.597
4.29 --undefined-- 46.051
4.30 --undefined-- 45.682
4.31 --undefined-- 45.570
4.32 --undefined-- 45.640
4.33 --undefined-- 45.101
4.34 --undefined-- 44.861
4.35 --undefined-- 45.086
4.36 --undefined-- 45.147
4.37 --undefined-- 45.089
4.38 --undefined-- 45.271
4.39 --undefined-- 45.625
4.40 --undefined-- 46.183
4.41 --undefined-- 46.442
4.42 --undefined-- 46.459
4.43 --undefined-- 46.499
4.44 --undefined-- 46.952
4.45 --undefined-- 47.845
4.46 --undefined-- 48.318
4.47 --undefined-- 47.989
4.48 --undefined-- 47.271
4.49 --undefined-- 46.809
4.50 --undefined-- 46.833
4.51 --undefined-- 46.931
4.52 --undefined-- 46.497
4.53 --undefined-- 45.674
4.54 --undefined-- 45.831
4.55 --undefined-- 46.458
4.56 --undefined-- 46.887
4.57 --undefined-- 47.643
4.58 --undefined-- 47.974
4.59 --undefined-- 47.151
4.60 --undefined-- 46.252
4.61 --undefined-- 45.512
4.62 --undefined-- 44.206
4.63 --undefined-- 42.828
4.64 --undefined-- 40.840
4.65 --undefined-- 39.256
4.66 --undefined-- 44.780
4.67 --undefined-- 52.726
4.68 --undefined-- 58.948
4.69 --undefined-- 64.455
4.70 104.601 67.889
4.71 105.193 68.875
4.72 105.136 68.632
4.73 103.780 68.550
4.74 102.315 68.904
4.75 101.574 69.239
4.76 101.045 69.094
4.77 100.542 68.281
4.78 100.575 67.140
4.79 100.504 66.601
4.80 98.076 66.456
4.81 98.070 65.013
4.82 96.507 61.183
4.83 --undefined-- 55.851
4.84 --undefined-- 54.913
4.85 --undefined-- 55.788
4.86 --undefined-- 55.580
4.87 --undefined-- 55.935
4.88 --undefined-- 56.816
4.89 --undefined-- 57.034
4.90 --undefined-- 56.566
4.91 --undefined-- 55.946
4.92 --undefined-- 56.054
4.93 --undefined-- 56.838
4.94 --undefined-- 57.257
4.95 --undefined-- 57.282
4.96 --undefined-- 56.225
4.97 --undefined-- 54.019
4.98 --undefined-- 52.781
4.99 --undefined-- 54.529
5.00 118.002 57.653
5.01 118.072 59.471
5.02 116.317 60.285
5.03 115.218 60.545
5.04 113.458 60.438
5.05 111.530 60.525
5.06 110.167 60.955
5.07 113.087 61.658
5.08 112.905 62.921
5.09 109.758 64.617
5.10 --undefined-- 65.917
5.11 --undefined-- 66.111
5.12 --undefined-- 65.881
5.13 --undefined-- 66.153
5.14 105.256 66.319
5.15 103.441 66.329
5.16 99.410 67.214
5.17 100.182 68.797
5.18 101.858 70.106
5.19 102.959 70.685
5.20 104.176 70.539
5.21 105.067 70.041
5.22 104.675 69.406
5.23 105.160 68.244
5.24 107.123 66.340
5.25 111.552 64.955
5.26 117.919 65.364
5.27 122.940 66.759
5.28 125.913 67.743
5.29 129.400 68.087
5.30 134.365 68.952
5.31 136.694 70.515
5.32 134.277 71.195
5.33 133.602 70.700
5.34 134.166 69.870
5.35 140.372 69.475
5.36 140.345 68.789
5.37 139.406 66.274
5.38 --undefined-- --undefined--
5.39 --undefined-- --undefined--
5.40 --undefined-- --undefined--
5.41 --undefined-- --undefined--
