Time Pitch Intensity
0.01 --undefined-- --undefined--
0.02 90.109 --undefined--
0.03 84.656 --undefined--
0.04 83.784 --undefined--
0.05 82.147 70.886
0.06 82.970 71.937
0.07 84.372 70.943
0.08 86.125 67.990
0.09 89.604 63.999
0.10 --undefined-- 58.830
0.11 --undefined-- 51.231
0.12 --undefined-- 41.690
0.13 --undefined-- 36.054
0.14 --undefined-- 35.057
0.15 --undefined-- 36.041
0.16 --undefined-- 37.233
0.17 --undefined-- 37.615
0.18 --undefined-- 39.330
0.19 --undefined-- 45.985
0.20 --undefined-- 53.694
0.21 119.760 60.102
0.22 115.139 65.050
0.23 112.370 68.726
0.24 109.461 70.987
0.25 106.626 71.660
0.26 102.837 71.417
0.27 98.259 71.224
0.28 92.634 71.319
0.29 --undefined-- 71.497
0.30 86.702 71.394
0.31 81.562 71.136
0.32 78.199 70.801
0.33 78.475 70.442
0.34 78.963 70.148
0.35 79.269 70.048
0.36 81.436 70.093
0.37 83.063 70.239
0.38 83.784 70.870
0.39 85.494 71.980
0.40 87.170 72.868
0.41 89.426 73.160
0.42 90.302 72.964
0.43 95.000 72.392
0.44 99.537 71.423
0.45 98.453 69.836
0.46 95.261 67.108
0.47 95.625 62.896
0.48 95.494 57.672
0.49 --undefined-- 51.496
0.50 --undefined-- 46.032
0.51 --undefined-- 45.316
0.52 --undefined-- 49.648
0.53 113.738 55.979
0.54 112.771 61.503
0.55 109.033 65.741
0.56 104.933 68.101
0.57 --undefined-- 67.972
0.58 --undefined-- 65.409
0.59 98.445 62.161
0.60 98.037 59.967
0.61 101.460 57.889
0.62 102.369 55.180
0.63 --undefined-- 51.696
0.64 --undefined-- 49.357
0.65 --undefined-- 50.296
0.66 100.735 52.818
0.67 99.794 56.015
0.68 96.135 60.005
0.69 92.191 64.461
0.70 87.010 68.251
0.71 85.747 70.433
0.72 82.053 70.844
0.73 78.704 69.822
0.74 74.900 67.554
0.75 74.535 63.711
0.76 --undefined-- 58.009
0.77 --undefined-- 50.318
0.78 --undefined-- 41.151
0.79 --undefined-- 36.106
0.80 --undefined-- 36.237
0.81 --undefined-- 36.668
0.82 --undefined-- 36.466
0.83 --undefined-- 36.869
0.84 --undefined-- 40.422
0.85 --undefined-- 47.615
0.86 --undefined-- 54.855
0.87 --undefined-- 60.894
0.88 81.230 65.499
0.89 78.836 68.682
0.90 80.186 70.606
0.91 80.672 71.658
0.92 83.551 71.901
0.93 83.500 71.504
0.94 87.732 70.890
0.95 89.363 69.867
0.96 88.606 67.759
0.97 --undefined-- 63.933
0.98 --undefined-- 57.848
0.99 --undefined-- 49.293
1.00 --undefined-- 40.004
1.01 --undefined-- 37.178
1.02 --undefined-- 37.695
1.03 --undefined-- 39.825
1.04 --undefined-- 46.094
1.05 --undefined-- 52.693
1.06 78.350 57.976
1.07 78.734 62.187
1.08 75.962 65.556
1.09 86.993 68.014
1.10 75.129 69.183
1.11 75.723 69.218
1.12 80.297 69.278
1.13 84.747 69.495
1.14 92.518 69.933
1.15 96.128 70.848
1.16 97.332 71.439
1.17 97.847 71.437
1.18 96.462 71.331
1.19 95.050 71.273
1.20 93.138 70.880
1.21 91.555 69.988
1.22 91.352 68.916
1.23 92.153 67.745
1.24 93.067 66.021
1.25 93.641 63.484
1.26 94.219 60.521
1.27 93.725 58.075
1.28 92.193 56.726
1.29 89.899 56.187
1.30 85.250 55.651
1.31 79.522 54.405
1.32 79.583 52.107
1.33 --undefined-- 49.272
1.34 --undefined-- 46.639
1.35 --undefined-- 44.453
1.36 --undefined-- 42.980
1.37 --undefined-- 44.643
1.38 --undefined-- 48.815
1.39 --undefined-- 51.125
1.40 --undefined-- 51.241
1.41 --undefined-- 50.215
1.42 --undefined-- 48.699
1.43 --undefined-- 46.889
1.44 --undefined-- 49.198
1.45 --undefined-- 56.995
1.46 263.155 62.200
1.47 262.983 63.798
1.48 263.800 63.246
1.49 --undefined-- 66.831
1.50 --undefined-- 71.017
1.51 88.889 72.470
1.52 88.347 72.195
1.53 87.311 71.094
1.54 86.513 69.029
1.55 82.848 65.827
1.56 88.538 62.579
1.57 89.912 62.210
1.58 90.725 63.301
1.59 92.151 64.280
1.60 92.180 64.839
1.61 92.089 65.321
1.62 90.612 67.069
1.63 --undefined-- 69.628
1.64 --undefined-- 70.764
1.65 89.096 70.428
1.66 89.287 70.101
1.67 90.362 70.176
1.68 91.625 70.029
1.69 92.567 69.486
1.70 92.898 68.972
1.71 92.447 69.162
1.72 90.421 69.806
1.73 86.973 70.378
1.74 84.108 70.777
1.75 82.226 70.845
1.76 80.109 70.529
1.77 79.240 70.015
1.78 76.462 69.345
1.79 75.723 68.445
1.80 --undefined-- 67.907
1.81 --undefined-- 68.050
1.82 --undefined-- 68.513
1.83 220.288 68.341
1.84 223.906 66.981
1.85 211.008 64.991
1.86 --undefined-- 63.104
1.87 --undefined-- 61.006
1.88 --undefined-- 57.419
1.89 --undefined-- 51.252
1.90 --undefined-- 45.426
1.91 --undefined-- 42.930
1.92 --undefined-- 40.325
1.93 --undefined-- 38.250
1.94 --undefined-- 37.445
1.95 --undefined-- 37.253
1.96 --undefined-- 38.028
1.97 --undefined-- 40.271
1.98 --undefined-- 43.342
1.99 --undefined-- 46.267
2.00 --undefined-- 48.020
2.01 --undefined-- 49.052
2.02 --undefined-- 52.151
2.03 --undefined-- 58.104
2.04 --undefined-- 63.715
2.05 --undefined-- 67.454
2.06 --undefined-- 69.222
2.07 --undefined-- 69.668
2.08 --undefined-- 69.724
2.09 --undefined-- 70.059
2.10 --undefined-- 70.400
2.11 --undefined-- 70.037
2.12 --undefined-- 68.457
2.13 --undefined-- 65.573
2.14 --undefined-- 60.903
2.15 --undefined-- 54.043
2.16 --undefined-- 47.255
2.17 --undefined-- 45.239
2.18 --undefined-- 45.665
2.19 --undefined-- 45.308
2.20 --undefined-- 45.888
2.21 --undefined-- 47.226
2.22 --undefined-- 47.771
2.23 --undefined-- 47.472
2.24 --undefined-- 46.470
2.25 --undefined-- 44.665
2.26 --undefined-- 42.499
2.27 --undefined-- 41.506
2.28 --undefined-- 42.053
2.29 --undefined-- 43.252
2.30 --undefined-- 45.539
2.31 --undefined-- 48.928
2.32 87.975 52.654
2.33 83.528 56.589
2.34 81.037 60.902
2.35 80.750 65.092
2.36 80.107 68.379
2.37 79.186 70.291
2.38 78.307 70.692
2.39 --undefined-- 70.312
2.40 --undefined-- 69.682
2.41 --undefined-- 67.705
2.42 --undefined-- 65.471
2.43 --undefined-- 64.553
2.44 --undefined-- 62.654
2.45 --undefined-- 60.784
2.46 --undefined-- 57.273
2.47 --undefined-- 49.866
2.48 --undefined-- 40.393
2.49 --undefined-- 37.234
2.50 --undefined-- 37.395
2.51 --undefined-- 37.314
2.52 --undefined-- 36.734
2.53 --undefined-- 36.892
2.54 --undefined-- 37.672
2.55 --undefined-- 38.358
2.56 --undefined-- 38.555
2.57 --undefined-- 38.018
2.58 --undefined-- 37.441
2.59 --undefined-- 37.363
2.60 --undefined-- 37.607
2.61 --undefined-- 38.083
2.62 --undefined-- 38.307
2.63 --undefined-- 38.314
2.64 --undefined-- 38.313
2.65 --undefined-- 38.008
2.66 --undefined-- 38.001
2.67 --undefined-- 38.464
2.68 --undefined-- 38.785
2.69 --undefined-- 39.043
2.70 --undefined-- 39.728
2.71 --undefined-- 40.327
2.72 --undefined-- 40.807
2.73 --undefined-- 41.463
2.74 --undefined-- 41.728
2.75 --undefined-- 41.383
2.76 --undefined-- 40.907
2.77 --undefined-- 40.953
2.78 --undefined-- 41.021
2.79 --undefined-- 40.812
2.80 --undefined-- 40.968
2.81 --undefined-- 41.192
2.82 --undefined-- 41.042
2.83 --undefined-- 40.456
2.84 --undefined-- 40.037
2.85 --undefined-- 39.965
2.86 --undefined-- 39.503
2.87 --undefined-- 38.943
2.88 --undefined-- 38.541
2.89 --undefined-- 37.892
2.90 --undefined-- 37.842
2.91 --undefined-- 38.021
2.92 --undefined-- 37.452
2.93 --undefined-- 36.746
2.94 --undefined-- 37.119
2.95 --undefined-- 38.627
2.96 --undefined-- 39.824
2.97 --undefined-- 39.538
2.98 --undefined-- 39.476
2.99 --undefined-- 41.518
3.00 --undefined-- 42.371
3.01 --undefined-- 43.557
3.02 --undefined-- 47.424
3.03 --undefined-- 53.236
3.04 --undefined-- 62.976
3.05 --undefined-- 69.471
3.06 100.330 72.767
3.07 98.054 73.809
3.08 100.430 73.442
3.09 106.704 72.759
3.10 116.718 72.839
3.11 121.911 73.205
3.12 124.938 72.884
3.13 128.147 71.833
3.14 128.393 70.083
3.15 126.501 67.074
3.16 --undefined-- 62.487
3.17 --undefined-- 60.867
3.18 --undefined-- 66.711
3.19 --undefined-- 71.640
3.20 119.214 74.090
3.21 116.062 74.482
3.22 110.964 73.933
3.23 108.777 73.943
3.24 107.845 74.466
3.25 107.387 74.691
3.26 107.888 74.555
3.27 107.941 74.173
3.28 106.554 72.789
3.29 106.694 69.514
3.30 105.994 64.993
3.31 104.873 61.468
3.32 104.782 60.135
3.33 106.354 62.109
3.34 106.102 65.254
3.35 104.219 68.054
3.36 103.002 70.409
3.37 102.673 72.033
3.38 99.122 72.901
3.39 95.091 73.326
3.40 95.326 73.605
3.41 95.523 73.784
3.42 95.080 73.655
3.43 95.398 73.239
3.44 96.225 72.816
3.45 97.356 72.543
3.46 99.696 72.365
3.47 103.730 72.301
3.48 107.116 72.063
3.49 109.010 71.286
3.50 110.290 69.849
3.51 109.723 67.410
3.52 103.580 63.251
3.53 104.498 56.874
3.54 --undefined-- 49.049
3.55 --undefined-- 42.107
3.56 --undefined-- 39.593
3.57 --undefined-- 47.299
3.58 --undefined-- 56.442
3.59 --undefined-- 63.402
3.60 --undefined-- 68.601
3.61 --undefined-- 72.144
3.62 --undefined-- 73.782
3.63 --undefined-- 73.827
3.64 --undefined-- 72.917
3.65 --undefined-- 71.008
3.66 --undefined-- 67.556
3.67 --undefined-- 62.281
3.68 --undefined-- 55.546
3.69 --undefined-- 47.741
3.70 --undefined-- 41.805
3.71 --undefined-- 41.538
3.72 --undefined-- 40.217
3.73 --undefined-- 42.396
3.74 --undefined-- 50.690
3.75 87.135 58.077
3.76 87.376 63.673
3.77 84.693 67.548
3.78 83.465 69.861
3.79 82.464 70.471
3.80 80.620 68.935
3.81 --undefined-- 65.001
3.82 --undefined-- 58.518
3.83 --undefined-- 49.906
3.84 --undefined-- 43.088
3.85 --undefined-- 39.929
3.86 --undefined-- 37.240
3.87 --undefined-- 36.507
3.88 --undefined-- 37.845
3.89 --undefined-- 37.427
3.90 --undefined-- 35.081
3.91 --undefined-- 35.037
3.92 --undefined-- 42.153
3.93 --undefined-- 52.862
3.94 --undefined-- 60.975
3.95 105.703 66.469
3.96 103.044 70.101
3.97 101.428 72.263
3.98 98.586 72.975
3.99 97.097 72.530
4.00 95.964 71.553
4.01 92.150 69.834
4.02 90.403 66.431
4.03 --undefined-- 61.204
4.04 --undefined-- 56.148
4.05 --undefined-- 51.021
4.06 --undefined-- 43.461
4.07 --undefined-- 38.096
4.08 --undefined-- 36.484
4.09 --undefined-- 38.337
4.10 --undefined-- 40.740
4.11 --undefined-- 40.950
4.12 --undefined-- 41.191
4.13 --undefined-- 45.447
4.14 --undefined-- 49.996
4.15 --undefined-- 57.610
4.16 --undefined-- 65.071
4.17 112.623 69.304
4.18 110.481 71.058
4.19 110.723 71.200
4.20 111.227 70.750
4.21 110.576 69.934
4.22 109.282 68.217
4.23 106.375 65.161
4.24 --undefined-- 60.427
4.25 --undefined-- 53.458
4.26 --undefined-- 45.105
4.27 --undefined-- 40.891
4.28 --undefined-- 39.990
4.29 --undefined-- 39.573
4.30 --undefined-- 38.705
4.31 --undefined-- 40.981
4.32 --undefined-- 45.870
4.33 --undefined-- 50.147
4.34 --undefined-- 54.205
4.35 --undefined-- 58.577
4.36 --undefined-- 63.710
4.37 --undefined-- 68.859
4.38 --undefined-- 72.138
4.39 112.376 73.383
4.40 110.778 73.262
4.41 108.992 72.784
4.42 107.889 72.170
4.43 106.669 70.616
4.44 105.729 67.531
4.45 109.609 63.827
4.46 112.229 62.160
4.47 112.498 61.971
4.48 111.046 62.213
4.49 108.677 63.097
4.50 106.938 65.131
4.51 103.950 67.600
4.52 102.113 69.615
4.53 97.799 70.977
4.54 93.321 71.787
4.55 --undefined-- 71.911
4.56 81.597 71.033
4.57 75.170 69.983
4.58 75.394 69.658
4.59 --undefined-- 69.197
4.60 --undefined-- 67.712
4.61 --undefined-- 64.784
4.62 --undefined-- 60.519
4.63 --undefined-- 55.026
4.64 --undefined-- 49.478
4.65 --undefined-- 44.813
4.66 --undefined-- 40.618
4.67 --undefined-- 37.170
4.68 --undefined-- 33.982
4.69 --undefined-- 33.289
4.70 --undefined-- 35.586
4.71 --undefined-- 37.668
4.72 --undefined-- 37.405
4.73 --undefined-- 38.001
4.74 --undefined-- 45.288
4.75 --undefined-- 52.197
4.76 --undefined-- 57.460
4.77 --undefined-- 61.994
4.78 85.123 65.898
4.79 80.153 69.081
4.80 81.053 71.283
4.81 81.283 72.216
4.82 78.278 71.937
4.83 79.922 70.820
4.84 79.661 69.197
4.85 80.015 67.327
4.86 80.749 65.905
4.87 80.470 65.118
4.88 80.691 64.626
4.89 78.384 64.112
4.90 78.400 63.454
4.91 78.539 62.474
4.92 81.018 60.776
4.93 80.779 58.241
4.94 80.350 55.191
4.95 --undefined-- 51.547
4.96 --undefined-- 48.162
4.97 --undefined-- 48.667
4.98 --undefined-- 52.538
4.99 --undefined-- 60.377
5.00 --undefined-- 66.532
5.01 --undefined-- 69.997
5.02 81.329 71.511
5.03 81.666 71.741
5.04 82.236 70.934
5.05 83.701 69.418
5.06 88.606 67.445
5.07 --undefined-- 64.202
5.08 --undefined-- 58.276
5.09 --undefined-- 48.973
5.10 --undefined-- 39.324
5.11 --undefined-- 35.556
5.12 --undefined-- 35.937
5.13 --undefined-- 36.457
5.14 --undefined-- 36.425
5.15 --undefined-- 37.017
5.16 --undefined-- 42.814
5.17 --undefined-- 50.752
5.18 --undefined-- 58.282
5.19 --undefined-- 64.293
5.20 --undefined-- 68.433
5.21 --undefined-- 71.000
5.22 --undefined-- 72.209
5.23 --undefined-- 72.184
5.24 --undefined-- 71.204
5.25 78.814 69.540
5.26 81.644 67.363
5.27 81.015 65.989
5.28 82.235 67.202
5.29 83.512 68.682
5.30 78.236 68.811
5.31 80.207 68.131
5.32 80.998 67.781
5.33 82.882 68.308
5.34 85.507 69.172
5.35 86.880 70.051
5.36 87.017 70.671
5.37 87.237 70.968
5.38 87.233 70.996
5.39 87.849 71.005
5.40 87.620 71.062
5.41 88.953 71.012
5.42 90.503 71.052
5.43 91.632 71.004
5.44 92.565 70.626
5.45 94.383 70.183
5.46 94.818 69.791
5.47 95.443 69.049
5.48 95.409 68.012
5.49 95.633 67.581
5.50 96.643 67.879
5.51 97.880 68.510
5.52 97.425 69.324
5.53 96.276 70.158
5.54 95.225 70.635
5.55 91.989 70.792
5.56 92.339 71.759
5.57 91.822 73.017
5.58 --undefined-- 73.420
5.59 --undefined-- 72.853
5.60 --undefined-- 70.834
5.61 --undefined-- 67.359
5.62 --undefined-- 63.085
5.63 --undefined-- 58.769
5.64 75.948 54.296
5.65 --undefined-- 49.836
5.66 --undefined-- 45.467
5.67 --undefined-- 41.369
5.68 --undefined-- 38.735
5.69 --undefined-- 37.806
5.70 --undefined-- 36.504
5.71 --undefined-- 35.610
5.72 --undefined-- 36.854
5.73 --undefined-- 38.469
5.74 --undefined-- 40.126
5.75 --undefined-- 42.261
5.76 --undefined-- 44.717
5.77 --undefined-- 46.827
5.78 --undefined-- 48.540
5.79 76.082 49.900
5.80 76.408 50.663
5.81 76.969 50.623
5.82 80.416 49.991
5.83 --undefined-- 48.773
5.84 --undefined-- 46.569
5.85 --undefined-- 43.686
5.86 --undefined-- 42.085
5.87 --undefined-- 41.472
5.88 --undefined-- 40.396
5.89 --undefined-- 38.833
5.90 --undefined-- 37.513
5.91 --undefined-- 36.744
5.92 --undefined-- 36.302
5.93 --undefined-- 39.247
5.94 --undefined-- 47.788
5.95 --undefined-- 57.112
5.96 --undefined-- 64.302
5.97 89.270 68.836
5.98 89.070 71.106
5.99 88.008 72.028
6.00 85.709 72.235
6.01 86.408 72.089
6.02 86.393 71.475
6.03 86.069 69.937
6.04 84.673 66.911
6.05 --undefined-- 61.616
6.06 --undefined-- 53.670
6.07 --undefined-- 44.287
6.08 --undefined-- 38.599
6.09 --undefined-- 36.656
6.10 --undefined-- 35.558
6.11 --undefined-- 38.399
6.12 --undefined-- 44.509
6.13 --undefined-- 50.022
6.14 90.633 55.301
6.15 86.385 60.359
6.16 85.030 64.466
6.17 82.614 67.211
6.18 --undefined-- 68.197
6.19 --undefined-- 66.735
6.20 --undefined-- 62.621
6.21 --undefined-- 56.421
6.22 --undefined-- 55.378
6.23 --undefined-- 62.038
6.24 --undefined-- 67.916
6.25 --undefined-- 70.883
6.26 93.314 71.626
6.27 90.320 71.633
6.28 88.826 71.712
6.29 87.571 71.690
6.30 85.641 71.325
6.31 82.914 70.681
6.32 79.901 70.321
6.33 79.559 70.501
6.34 78.748 70.432
6.35 78.564 69.629
6.36 76.810 68.642
6.37 76.527 --undefined--
6.38 76.065 --undefined--
6.39 --undefined-- --undefined--
6.40 --undefined-- --undefined--
