Time Pitch Intensity
0.01 --undefined-- --undefined--
0.02 --undefined-- --undefined--
0.03 --undefined-- --undefined--
0.04 --undefined-- --undefined--
0.05 --undefined-- 60.357
0.06 --undefined-- 60.987
0.07 --undefined-- 66.817
0.08 229.694 72.912
0.09 225.560 76.894
0.10 228.196 79.251
0.11 231.882 80.440
0.12 234.449 81.248
0.13 237.544 82.179
0.14 238.670 82.931
0.15 240.435 83.447
0.16 242.585 83.814
0.17 245.383 83.658
0.18 249.905 82.754
0.19 251.485 81.817
0.20 246.321 81.551
0.21 239.386 81.268
0.22 236.082 80.347
0.23 233.470 78.704
0.24 227.022 76.019
0.25 220.855 71.310
0.26 --undefined-- 63.501
0.27 --undefined-- 54.349
0.28 --undefined-- 50.707
0.29 --undefined-- 51.198
0.30 --undefined-- 52.641
0.31 --undefined-- 54.071
0.32 --undefined-- 55.161
0.33 --undefined-- 54.629
0.34 --undefined-- 52.542
0.35 --undefined-- 48.858
0.36 --undefined-- 43.996
0.37 --undefined-- 40.610
0.38 --undefined-- 38.666
0.39 --undefined-- 45.018
0.40 --undefined-- 57.992
0.41 --undefined-- 66.834
0.42 173.334 72.192
0.43 163.989 75.356
0.44 155.028 77.247
0.45 151.505 78.327
0.46 151.178 78.680
0.47 154.642 78.208
0.48 157.175 77.282
0.49 158.354 76.669
0.50 159.266 76.647
0.51 158.374 77.100
0.52 155.709 77.734
0.53 152.516 77.723
0.54 147.494 76.482
0.55 134.618 74.217
0.56 132.989 72.127
0.57 134.173 71.731
0.58 143.195 72.837
0.59 156.009 74.404
0.60 168.678 76.085
0.61 169.972 77.252
0.62 165.889 77.500
0.63 161.102 77.208
0.64 160.518 76.908
0.65 160.385 76.660
0.66 161.662 76.215
0.67 163.953 75.592
0.68 165.049 74.951
0.69 165.690 74.195
0.70 167.020 73.549
0.71 169.875 73.248
0.72 171.034 73.035
0.73 170.797 72.733
0.74 170.554 72.227
0.75 169.479 71.301
0.76 165.510 69.700
0.77 156.563 67.224
0.78 147.733 63.766
0.79 --undefined-- 58.807
0.80 --undefined-- 51.944
0.81 --undefined-- 46.644
0.82 --undefined-- 42.756
0.83 --undefined-- 39.782
0.84 --undefined-- 39.668
0.85 --undefined-- 40.206
0.86 --undefined-- 47.440
0.87 --undefined-- 56.496
0.88 --undefined-- 62.481
0.89 197.650 66.880
0.90 206.155 71.147
0.91 214.626 75.050
0.92 218.094 77.196
0.93 215.016 77.335
0.94 210.468 76.754
0.95 203.996 76.437
0.96 195.740 75.896
0.97 187.965 74.708
0.98 176.842 72.711
0.99 166.073 69.281
1.00 145.351 64.086
1.01 142.825 60.077
1.02 139.311 61.073
1.03 154.237 64.810
1.04 161.968 68.569
1.05 165.754 71.615
1.06 157.557 74.156
1.07 152.191 76.249
1.08 147.368 77.761
1.09 143.790 78.452
1.10 140.703 78.346
1.11 138.353 77.642
1.12 135.523 76.477
1.13 132.881 75.011
1.14 131.536 73.508
1.15 131.102 72.273
1.16 130.811 71.368
1.17 129.573 70.639
1.18 129.382 70.163
1.19 131.774 69.884
1.20 132.370 69.751
1.21 132.961 69.661
1.22 133.536 69.393
1.23 133.708 68.777
1.24 131.732 67.657
1.25 124.545 65.942
1.26 125.598 64.063
1.27 138.419 62.226
1.28 138.238 59.826
1.29 --undefined-- 56.255
1.30 --undefined-- 52.228
1.31 --undefined-- 51.631
1.32 --undefined-- 53.396
1.33 --undefined-- 56.321
1.34 --undefined-- 59.356
1.35 132.363 62.054
1.36 124.869 64.280
1.37 124.486 66.008
1.38 124.005 67.388
1.39 124.597 68.599
1.40 126.797 69.786
1.41 128.375 70.972
1.42 131.972 72.008
1.43 138.717 72.810
1.44 143.029 73.393
1.45 147.524 73.731
1.46 153.419 73.854
1.47 160.188 74.193
1.48 167.425 75.299
1.49 176.004 76.584
1.50 183.980 77.247
1.51 189.966 76.879
1.52 194.397 75.398
1.53 197.761 72.984
1.54 197.958 70.384
1.55 184.368 70.444
1.56 172.712 74.370
1.57 168.750 77.619
1.58 164.527 78.653
1.59 155.763 78.003
1.60 148.541 76.930
1.61 143.474 76.161
1.62 140.172 75.632
1.63 136.941 75.120
1.64 133.560 74.072
1.65 129.193 72.133
1.66 125.536 70.089
1.67 131.654 69.294
1.68 131.293 69.106
1.69 132.354 68.814
1.70 131.669 68.100
1.71 129.132 66.659
1.72 125.159 64.294
1.73 117.747 60.731
1.74 --undefined-- 55.560
1.75 --undefined-- 48.433
1.76 --undefined-- 43.204
1.77 --undefined-- 43.671
1.78 --undefined-- 45.689
1.79 --undefined-- 47.406
1.80 --undefined-- 48.244
1.81 --undefined-- 47.879
1.82 --undefined-- 48.481
1.83 --undefined-- 54.778
1.84 153.457 61.230
1.85 136.281 65.377
1.86 130.389 67.863
1.87 130.233 69.489
1.88 130.260 70.599
1.89 130.033 71.339
1.90 130.689 71.871
1.91 132.070 72.278
1.92 139.154 72.381
1.93 139.975 71.817
1.94 137.856 70.923
1.95 139.491 70.545
1.96 227.198 69.454
1.97 257.128 66.361
1.98 267.262 63.055
1.99 --undefined-- 65.250
2.00 --undefined-- 69.599
2.01 84.086 73.329
2.02 84.471 75.808
2.03 83.842 76.903
2.04 166.518 77.206
2.05 165.598 77.591
2.06 166.222 78.110
2.07 168.493 78.255
2.08 171.748 77.778
2.09 173.398 76.761
2.10 173.380 75.064
2.11 171.409 72.516
2.12 173.719 70.663
2.13 176.464 70.795
2.14 175.369 71.131
2.15 172.015 70.626
2.16 165.108 68.722
2.17 151.571 65.028
2.18 143.055 59.395
2.19 --undefined-- 52.731
2.20 --undefined-- 51.238
2.21 --undefined-- 53.869
2.22 --undefined-- 59.676
2.23 170.469 66.915
2.24 162.034 71.439
2.25 148.068 73.457
2.26 137.288 74.069
2.27 130.891 74.284
2.28 125.890 74.167
2.29 120.625 73.404
2.30 118.040 72.316
2.31 120.312 71.560
2.32 121.043 71.115
2.33 119.048 70.236
2.34 118.914 69.182
2.35 119.963 68.551
2.36 118.748 67.996
2.37 117.208 67.471
2.38 116.016 67.155
2.39 118.336 67.533
2.40 124.456 69.043
2.41 120.200 70.367
2.42 116.176 70.699
2.43 113.064 70.100
2.44 109.470 68.706
2.45 107.614 67.292
2.46 106.385 66.558
2.47 102.870 66.058
2.48 103.243 65.339
2.49 101.084 64.392
2.50 100.886 63.486
2.51 103.053 63.219
2.52 104.260 63.170
2.53 104.644 62.876
2.54 103.575 62.165
2.55 104.330 61.285
2.56 --undefined-- 60.311
2.57 --undefined-- 58.950
2.58 --undefined-- 56.783
2.59 --undefined-- 52.853
2.60 --undefined-- 48.171
2.61 --undefined-- 44.133
2.62 --undefined-- 41.951
2.63 --undefined-- 42.317
2.64 --undefined-- 42.495
2.65 --undefined-- 41.777
2.66 --undefined-- 41.331
2.67 --undefined-- 40.855
2.68 --undefined-- 39.442
2.69 --undefined-- 38.188
2.70 --undefined-- 37.957
2.71 --undefined-- 38.492
2.72 --undefined-- 38.823
2.73 --undefined-- 39.015
2.74 --undefined-- 40.535
2.75 --undefined-- 40.946
2.76 --undefined-- 39.101
2.77 --undefined-- 38.352
2.78 --undefined-- 39.024
2.79 --undefined-- 39.151
2.80 --undefined-- 39.078
2.81 --undefined-- 38.355
2.82 --undefined-- 37.784
2.83 --undefined-- 38.467
2.84 --undefined-- 41.379
2.85 --undefined-- 43.546
2.86 --undefined-- 43.250
2.87 --undefined-- 43.153
2.88 --undefined-- 44.830
2.89 --undefined-- 46.060
2.90 --undefined-- 47.104
2.91 --undefined-- 50.475
2.92 --undefined-- 59.220
2.93 --undefined-- 67.522
2.94 175.041 72.783
2.95 163.677 75.595
2.96 157.080 76.889
2.97 153.843 77.399
2.98 151.573 77.066
2.99 148.799 75.563
3.00 144.152 72.435
3.01 --undefined-- 66.806
3.02 --undefined-- 57.940
3.03 --undefined-- 47.973
3.04 --undefined-- 43.376
3.05 --undefined-- 42.817
3.06 --undefined-- 42.340
3.07 --undefined-- 43.963
3.08 --undefined-- 52.895
3.09 --undefined-- 59.383
3.10 --undefined-- 64.703
3.11 183.757 70.613
3.12 183.255 75.217
3.13 186.759 77.859
3.14 187.700 78.814
3.15 187.916 78.644
3.16 188.736 78.001
3.17 186.909 77.140
3.18 183.882 75.517
3.19 179.455 72.623
3.20 184.949 70.041
3.21 184.547 69.379
3.22 181.330 69.250
3.23 174.600 68.820
3.24 165.349 67.632
3.25 153.374 65.220
3.26 145.888 61.947
3.27 --undefined-- 61.250
3.28 --undefined-- 61.979
3.29 --undefined-- 61.452
3.30 --undefined-- 60.826
3.31 --undefined-- 62.832
3.32 170.751 68.408
3.33 159.742 72.047
3.34 149.331 73.225
3.35 143.092 72.791
3.36 137.697 71.459
3.37 133.347 69.756
3.38 135.281 68.557
3.39 131.590 67.872
3.40 128.448 67.198
3.41 125.683 66.591
3.42 121.676 65.784
3.43 116.271 64.029
3.44 113.821 61.307
3.45 --undefined-- 61.716
3.46 --undefined-- 64.556
3.47 --undefined-- 64.866
3.48 --undefined-- 62.451
3.49 --undefined-- 60.222
3.50 --undefined-- 64.465
3.51 140.060 68.875
3.52 137.900 70.827
3.53 132.533 71.263
3.54 124.798 71.799
3.55 121.212 72.682
3.56 118.985 72.960
3.57 117.640 72.389
3.58 117.479 71.459
3.59 118.240 71.107
3.60 119.891 71.625
3.61 120.128 72.140
3.62 121.439 72.057
3.63 126.419 72.031
3.64 128.873 72.836
3.65 131.379 73.668
3.66 134.526 73.656
3.67 140.423 72.944
3.68 142.863 72.296
3.69 142.760 71.731
3.70 142.192 70.676
3.71 139.238 69.063
3.72 156.966 67.291
3.73 163.576 64.522
3.74 --undefined-- 59.881
3.75 --undefined-- 55.357
3.76 --undefined-- 53.349
3.77 --undefined-- 50.585
3.78 --undefined-- 45.199
3.79 --undefined-- 39.585
3.80 --undefined-- 38.093
3.81 --undefined-- 37.975
3.82 --undefined-- 37.527
3.83 --undefined-- 37.795
3.84 --undefined-- 39.147
3.85 --undefined-- 41.961
3.86 --undefined-- 45.345
3.87 --undefined-- 48.571
3.88 --undefined-- 51.250
3.89 --undefined-- 53.306
3.90 --undefined-- 55.095
3.91 --undefined-- 60.452
3.92 171.225 67.505
3.93 162.431 72.172
3.94 154.444 74.545
3.95 147.082 75.458
3.96 143.567 75.900
3.97 141.336 76.140
3.98 139.626 75.662
3.99 138.376 74.520
4.00 137.479 73.767
4.01 136.421 73.636
4.02 133.706 72.751
4.03 130.877 70.459
4.04 133.143 68.391
4.05 130.543 68.001
4.06 127.787 68.118
4.07 123.894 68.104
4.08 121.537 68.349
4.09 123.626 69.337
4.10 128.459 70.505
4.11 117.770 70.680
4.12 109.652 69.768
4.13 107.821 68.461
4.14 107.115 67.242
4.15 103.378 66.105
4.16 99.772 64.798
4.17 101.290 64.104
4.18 106.998 64.381
4.19 109.876 64.979
4.20 110.739 65.578
4.21 112.139 66.130
4.22 114.680 66.183
4.23 112.982 64.837
4.24 110.105 61.620
4.25 --undefined-- 56.517
4.26 --undefined-- 50.064
4.27 --undefined-- 44.910
4.28 --undefined-- 43.500
4.29 --undefined-- 48.383
4.30 --undefined-- 57.162
4.31 141.356 63.554
4.32 135.707 66.669
4.33 119.583 67.473
4.34 110.907 66.954
4.35 105.610 65.639
4.36 100.187 64.240
4.37 100.866 63.644
4.38 103.230 63.810
4.39 108.037 64.290
4.40 111.474 64.864
4.41 116.852 65.644
4.42 120.369 66.634
4.43 121.722 67.641
4.44 123.135 68.576
4.45 123.749 69.475
4.46 127.300 70.618
4.47 128.518 71.899
4.48 127.033 72.803
4.49 127.102 73.498
4.50 127.871 74.170
4.51 128.144 74.625
4.52 128.487 74.840
4.53 128.972 74.932
4.54 129.578 75.038
4.55 131.735 75.227
4.56 135.347 75.071
4.57 136.514 74.063
4.58 133.924 71.931
4.59 --undefined-- 68.261
4.60 --undefined-- 62.464
4.61 --undefined-- 55.020
4.62 --undefined-- 48.352
4.63 --undefined-- 43.567
4.64 --undefined-- 40.005
4.65 --undefined-- 38.489
4.66 --undefined-- 39.704
4.67 --undefined-- 40.734
4.68 --undefined-- 40.570
4.69 --undefined-- 39.307
4.70 --undefined-- 37.279
4.71 --undefined-- 35.737
4.72 --undefined-- 36.295
4.73 --undefined-- 37.299
4.74 --undefined-- 38.641
4.75 --undefined-- 39.908
4.76 --undefined-- 39.776
4.77 --undefined-- 38.898
4.78 --undefined-- 39.536
4.79 --undefined-- 39.874
4.80 --undefined-- 39.583
4.81 --undefined-- 39.836
4.82 --undefined-- 40.352
4.83 --undefined-- 41.820
4.84 --undefined-- 42.270
4.85 --undefined-- 40.485
4.86 --undefined-- 38.140
4.87 --undefined-- 38.134
4.88 --undefined-- 38.905
4.89 --undefined-- 39.213
4.90 --undefined-- 38.747
4.91 --undefined-- 37.684
4.92 --undefined-- 37.890
4.93 --undefined-- 40.905
4.94 --undefined-- 45.161
4.95 --undefined-- 49.013
4.96 --undefined-- 54.605
4.97 --undefined-- 64.031
4.98 164.192 70.997
4.99 150.838 74.924
5.00 145.812 76.669
5.01 142.771 77.152
5.02 140.298 76.688
5.03 137.862 74.720
5.04 --undefined-- 70.473
5.05 --undefined-- 63.631
5.06 --undefined-- 54.667
5.07 --undefined-- 47.456
5.08 --undefined-- 45.155
5.09 --undefined-- 46.994
5.10 --undefined-- 51.710
5.11 --undefined-- 57.949
5.12 --undefined-- 64.417
5.13 142.716 68.885
5.14 136.871 71.636
5.15 135.400 73.323
5.16 135.406 74.496
5.17 137.101 75.410
5.18 139.977 76.400
5.19 144.029 77.910
5.20 150.057 79.700
5.21 156.144 80.972
5.22 161.427 81.361
5.23 165.462 80.860
5.24 169.144 79.618
5.25 173.673 78.063
5.26 174.673 76.164
5.27 170.660 73.162
5.28 160.843 68.542
5.29 --undefined-- 61.792
5.30 --undefined-- 53.128
5.31 --undefined-- 46.680
5.32 --undefined-- 45.062
5.33 --undefined-- 44.709
5.34 --undefined-- 45.156
5.35 --undefined-- 52.545
5.36 --undefined-- 62.806
5.37 --undefined-- 69.392
5.38 148.516 72.574
5.39 139.012 73.210
5.40 126.953 72.247
5.41 124.407 71.310
5.42 124.273 71.439
5.43 127.026 71.979
5.44 130.516 71.386
5.45 --undefined-- 68.404
5.46 --undefined-- 62.709
5.47 --undefined-- 55.585
5.48 --undefined-- 54.132
5.49 --undefined-- 63.210
5.50 --undefined-- 70.037
5.51 --undefined-- 74.041
5.52 136.288 75.921
5.53 135.258 76.194
5.54 134.135 75.356
5.55 133.168 74.034
5.56 126.193 71.998
5.57 121.534 68.546
5.58 --undefined-- 63.880
5.59 --undefined-- --undefined--
5.60 130.947 --undefined--
5.61 --undefined-- --undefined--
5.62 --undefined-- --undefined--
