Time Pitch Intensity
0.01 --undefined-- --undefined--
0.02 105.286 --undefined--
0.03 102.170 --undefined--
0.04 --undefined-- --undefined--
0.05 --undefined-- 61.410
0.06 255.153 57.488
0.07 266.051 53.710
0.08 246.441 51.212
0.09 --undefined-- 47.415
0.10 --undefined-- 43.416
0.11 --undefined-- 42.220
0.12 --undefined-- 41.972
0.13 --undefined-- 44.240
0.14 --undefined-- 50.880
0.15 --undefined-- 55.787
0.16 97.975 58.528
0.17 97.918 60.115
0.18 99.590 60.943
0.19 99.556 61.365
0.20 98.440 61.679
0.21 96.675 61.916
0.22 95.714 62.200
0.23 94.909 62.489
0.24 94.432 62.471
0.25 94.914 62.105
0.26 94.531 61.291
0.27 --undefined-- 59.732
0.28 --undefined-- 57.450
0.29 --undefined-- 55.404
0.30 --undefined-- 53.168
0.31 --undefined-- 49.655
0.32 --undefined-- 47.275
0.33 --undefined-- 46.204
0.34 --undefined-- 45.846
0.35 --undefined-- 49.281
0.36 --undefined-- 56.404
0.37 --undefined-- 61.815
0.38 119.540 64.582
0.39 118.226 65.509
0.40 117.823 65.761
0.41 119.038 65.900
0.42 121.026 65.752
0.43 125.498 65.248
0.44 126.325 64.614
0.45 131.074 63.695
0.46 127.083 61.920
0.47 130.525 59.452
0.48 136.878 56.927
0.49 147.672 54.241
0.50 153.294 52.381
0.51 166.544 51.919
0.52 174.941 54.906
0.53 172.402 60.563
0.54 162.015 65.080
0.55 162.375 67.795
0.56 162.334 69.105
0.57 161.981 69.729
0.58 161.209 70.143
0.59 161.442 70.411
0.60 161.433 70.486
0.61 160.565 70.360
0.62 158.776 69.933
0.63 148.182 68.606
0.64 --undefined-- 65.546
0.65 --undefined-- 60.740
0.66 --undefined-- 55.957
0.67 --undefined-- 51.349
0.68 --undefined-- 46.982
0.69 --undefined-- 45.479
0.70 --undefined-- 43.450
0.71 --undefined-- 40.790
0.72 --undefined-- 39.546
0.73 --undefined-- 39.125
0.74 --undefined-- 38.921
0.75 --undefined-- 39.869
0.76 --undefined-- 40.406
0.77 --undefined-- 39.853
0.78 --undefined-- 39.778
0.79 --undefined-- 39.043
0.80 --undefined-- 37.488
0.81 --undefined-- 35.782
0.82 --undefined-- 34.833
0.83 --undefined-- 35.151
0.84 --undefined-- 36.072
0.85 --undefined-- 37.247
0.86 --undefined-- 40.464
0.87 --undefined-- 48.343
0.88 --undefined-- 54.853
0.89 114.825 58.249
0.90 113.255 59.334
0.91 110.001 59.006
0.92 108.477 57.845
0.93 108.131 56.711
0.94 107.084 56.111
0.95 107.374 56.012
0.96 108.015 56.283
0.97 108.869 56.572
0.98 110.051 56.834
0.99 112.716 57.309
1.00 114.255 57.806
1.01 116.459 58.141
1.02 119.237 58.758
1.03 122.095 60.009
1.04 126.552 61.435
1.05 127.290 62.459
1.06 130.285 63.105
1.07 136.154 63.871
1.08 140.664 64.771
1.09 143.797 65.572
1.10 148.078 66.228
1.11 152.585 66.905
1.12 153.817 67.904
1.13 153.240 69.381
1.14 149.925 70.559
1.15 142.787 70.606
1.16 137.244 69.861
1.17 136.092 68.978
1.18 129.156 67.765
1.19 124.065 66.334
1.20 122.166 64.719
1.21 121.622 62.577
1.22 120.603 59.789
1.23 112.491 56.236
1.24 98.452 52.462
1.25 91.697 49.782
1.26 109.244 48.756
1.27 115.564 48.692
1.28 --undefined-- 49.146
1.29 --undefined-- 50.059
1.30 --undefined-- 50.626
1.31 --undefined-- 50.998
1.32 --undefined-- 52.896
1.33 --undefined-- 54.565
1.34 104.118 56.712
1.35 99.815 59.385
1.36 97.571 61.492
1.37 100.460 63.001
1.38 102.843 64.124
1.39 103.248 64.934
1.40 102.652 65.313
1.41 102.601 65.229
1.42 102.806 64.706
1.43 102.724 63.745
1.44 101.516 62.354
1.45 99.846 60.447
1.46 96.423 57.957
1.47 95.655 54.700
1.48 --undefined-- 50.407
1.49 --undefined-- 46.608
1.50 --undefined-- 47.512
1.51 --undefined-- 52.890
1.52 121.223 58.771
1.53 115.023 62.800
1.54 111.772 64.764
1.55 104.912 65.125
1.56 97.403 64.674
1.57 93.156 63.793
1.58 86.765 62.639
1.59 85.748 61.460
1.60 85.890 59.977
1.61 86.531 57.394
1.62 --undefined-- 53.081
1.63 --undefined-- 47.251
1.64 --undefined-- 43.392
1.65 --undefined-- 41.261
1.66 --undefined-- 38.652
1.67 --undefined-- 37.530
1.68 --undefined-- 37.526
1.69 --undefined-- 40.235
1.70 --undefined-- 48.864
1.71 --undefined-- 56.051
1.72 115.366 60.564
1.73 114.703 63.232
1.74 114.563 64.678
1.75 114.435 65.322
1.76 114.369 65.335
1.77 113.584 64.738
1.78 112.500 63.870
1.79 111.665 63.648
1.80 112.595 64.009
1.81 112.412 64.141
1.82 109.461 63.922
1.83 106.822 63.584
1.84 104.144 63.347
1.85 102.295 63.260
1.86 98.283 63.346
1.87 95.877 63.315
1.88 89.454 62.976
1.89 85.724 62.821
1.90 84.577 62.665
1.91 83.141 62.218
1.92 84.898 61.965
1.93 84.824 62.057
1.94 86.353 62.112
1.95 85.906 62.068
1.96 85.618 61.874
1.97 83.844 61.520
1.98 83.822 60.927
1.99 82.777 60.086
2.00 82.800 59.485
2.01 81.246 59.308
2.02 82.638 59.094
2.03 82.494 58.692
2.04 82.293 58.153
2.05 84.973 58.601
2.06 91.487 60.452
2.07 93.411 61.723
2.08 90.732 62.124
2.09 92.201 62.264
2.10 93.777 62.180
2.11 94.903 61.816
2.12 95.758 61.189
2.13 96.398 60.239
2.14 96.597 58.850
2.15 97.523 57.236
2.16 96.926 55.711
2.17 95.063 54.456
2.18 95.206 54.158
2.19 96.625 54.898
2.20 100.442 56.187
2.21 102.722 57.795
2.22 104.132 59.424
2.23 105.463 60.779
2.24 109.108 61.893
2.25 112.688 62.941
2.26 115.836 63.801
2.27 119.400 64.338
2.28 124.780 64.879
2.29 129.605 65.841
2.30 132.541 67.006
2.31 135.945 67.986
2.32 138.516 68.676
2.33 139.756 69.081
2.34 140.051 69.087
2.35 139.991 68.593
2.36 138.857 67.742
2.37 136.526 66.766
2.38 132.310 65.867
2.39 127.621 65.505
2.40 122.695 65.632
2.41 118.538 65.513
2.42 109.406 65.204
2.43 106.635 65.101
2.44 104.381 65.106
2.45 103.133 65.232
2.46 103.802 65.507
2.47 105.031 65.643
2.48 106.485 65.617
2.49 109.995 65.893
2.50 113.432 66.375
2.51 119.194 66.135
2.52 119.926 64.898
2.53 122.351 63.493
2.54 125.955 63.049
2.55 136.778 63.454
2.56 144.308 64.120
2.57 146.442 65.205
2.58 140.378 66.410
2.59 139.778 67.161
2.60 138.069 67.298
2.61 136.420 66.966
2.62 134.437 66.528
2.63 131.854 66.289
2.64 130.603 66.253
2.65 130.034 66.317
2.66 129.437 66.285
2.67 129.304 66.135
2.68 129.397 65.868
2.69 128.389 65.356
2.70 125.005 65.278
2.71 131.240 66.151
2.72 132.335 67.022
2.73 133.516 67.493
2.74 134.688 67.685
2.75 136.673 67.776
2.76 138.746 67.776
2.77 138.791 67.627
2.78 137.170 67.208
2.79 131.818 66.391
2.80 125.630 64.996
2.81 121.413 63.162
2.82 122.823 62.666
2.83 132.672 65.010
2.84 126.672 67.069
2.85 120.526 67.910
2.86 110.681 68.165
2.87 105.139 67.974
2.88 100.587 67.167
2.89 97.416 66.155
2.90 93.805 65.191
2.91 90.288 64.170
2.92 87.342 63.444
2.93 85.007 62.748
2.94 78.834 60.957
2.95 76.154 57.730
2.96 --undefined-- 53.283
2.97 --undefined-- 47.943
2.98 --undefined-- 43.680
2.99 --undefined-- 42.088
3.00 --undefined-- 40.485
3.01 --undefined-- 39.817
3.02 --undefined-- 40.557
3.03 --undefined-- 39.851
3.04 --undefined-- 37.034
3.05 --undefined-- 35.667
3.06 --undefined-- 37.164
3.07 --undefined-- 38.930
3.08 --undefined-- 40.189
3.09 --undefined-- 40.483
3.10 --undefined-- 40.305
3.11 --undefined-- 41.325
3.12 --undefined-- 42.841
3.13 --undefined-- 44.063
3.14 --undefined-- 44.970
3.15 --undefined-- 45.332
3.16 --undefined-- 45.478
3.17 --undefined-- 45.835
3.18 --undefined-- 45.951
3.19 --undefined-- 45.665
3.20 --undefined-- 44.886
3.21 --undefined-- 43.546
3.22 --undefined-- 42.851
3.23 --undefined-- 43.046
3.24 --undefined-- 42.346
3.25 --undefined-- 40.751
3.26 --undefined-- 39.625
3.27 --undefined-- 38.322
3.28 --undefined-- 36.201
3.29 --undefined-- 34.373
3.30 --undefined-- 32.839
3.31 --undefined-- 32.019
3.32 --undefined-- 33.159
3.33 --undefined-- 34.056
3.34 --undefined-- 36.309
3.35 --undefined-- 46.806
3.36 --undefined-- 57.301
3.37 --undefined-- 64.211
3.38 --undefined-- 68.350
3.39 165.830 70.497
3.40 158.656 71.341
3.41 156.120 71.436
3.42 155.918 71.075
3.43 155.424 70.280
3.44 155.207 69.214
3.45 158.952 68.627
3.46 161.333 68.601
3.47 162.041 68.639
3.48 161.961 68.617
3.49 161.550 68.651
3.50 161.547 68.790
3.51 160.383 68.934
3.52 160.285 69.149
3.53 161.605 69.472
3.54 163.138 69.736
3.55 165.738 69.827
3.56 168.927 69.927
3.57 173.631 70.324
3.58 180.595 70.740
3.59 187.855 70.724
3.60 196.219 70.759
3.61 201.573 71.289
3.62 204.097 71.842
3.63 209.172 72.302
3.64 212.810 72.627
3.65 219.566 72.632
3.66 222.139 72.393
3.67 223.583 72.045
3.68 225.188 71.373
3.69 226.214 70.292
3.70 226.344 68.903
3.71 225.078 67.445
3.72 222.923 66.172
3.73 219.486 64.995
3.74 215.232 63.893
3.75 213.404 62.868
3.76 211.457 62.198
3.77 208.763 62.164
3.78 203.912 62.501
3.79 197.111 62.799
3.80 186.455 63.456
3.81 179.828 65.132
3.82 177.152 66.967
3.83 165.785 68.037
3.84 161.650 68.272
3.85 161.451 68.164
3.86 163.848 68.265
3.87 173.057 68.589
3.88 177.742 69.006
3.89 191.358 69.451
3.90 195.580 70.271
3.91 197.335 70.906
3.92 197.940 70.173
3.93 197.792 67.803
3.94 196.307 64.632
3.95 193.720 61.808
3.96 189.457 59.492
3.97 188.937 60.009
3.98 192.300 63.868
3.99 191.576 66.574
4.00 181.845 67.973
4.01 169.567 69.215
4.02 162.181 69.846
4.03 149.087 69.591
4.04 141.559 69.114
4.05 134.603 68.471
4.06 133.499 67.808
4.07 134.007 67.376
4.08 132.563 66.638
4.09 132.435 65.342
4.10 134.072 64.167
4.11 134.656 63.984
4.12 134.267 64.871
4.13 133.533 66.260
4.14 132.992 67.462
4.15 131.642 68.099
4.16 130.585 68.347
4.17 132.061 68.361
4.18 136.460 68.268
4.19 142.906 68.539
4.20 147.752 69.138
4.21 154.505 69.586
4.22 161.402 69.912
4.23 168.385 70.173
4.24 179.139 70.316
4.25 181.987 70.359
4.26 182.436 70.221
4.27 180.663 70.031
4.28 174.224 70.366
4.29 161.954 70.940
4.30 157.217 70.778
4.31 --undefined-- 70.049
4.32 --undefined-- 69.389
4.33 --undefined-- 68.548
4.34 --undefined-- 67.385
4.35 115.162 66.292
4.36 109.958 65.304
4.37 106.590 64.441
4.38 102.059 63.859
4.39 97.807 63.061
4.40 94.881 61.828
4.41 93.090 59.892
4.42 89.798 58.060
4.43 94.456 58.467
4.44 99.465 60.021
4.45 101.095 61.256
4.46 103.773 62.060
4.47 107.054 62.501
4.48 110.889 62.878
4.49 111.291 63.335
4.50 111.697 63.734
4.51 112.610 63.834
4.52 114.024 63.351
4.53 113.748 62.652
4.54 114.039 62.637
4.55 110.519 63.563
4.56 105.408 64.620
4.57 106.728 65.246
4.58 108.503 65.635
4.59 109.561 65.780
4.60 114.801 65.689
4.61 117.892 65.535
4.62 127.501 65.347
4.63 133.856 65.585
4.64 134.824 66.351
4.65 135.522 66.522
4.66 132.077 65.243
4.67 124.284 62.458
4.68 128.311 58.816
4.69 --undefined-- 55.302
4.70 --undefined-- 51.148
4.71 --undefined-- 46.112
4.72 --undefined-- 45.382
4.73 --undefined-- 52.678
4.74 --undefined-- 59.685
4.75 --undefined-- 63.944
4.76 124.059 66.165
4.77 117.866 67.320
4.78 111.958 67.774
4.79 107.681 68.088
4.80 106.331 68.550
4.81 108.463 68.873
4.82 112.241 68.829
4.83 117.415 68.617
4.84 122.492 68.226
4.85 126.229 67.725
4.86 130.561 67.472
4.87 131.013 67.581
4.88 127.115 67.552
4.89 121.145 66.393
4.90 97.734 63.826
4.91 94.151 60.367
4.92 --undefined-- 56.246
4.93 --undefined-- 51.102
4.94 --undefined-- 47.207
4.95 --undefined-- 44.957
4.96 --undefined-- 41.714
4.97 --undefined-- 38.375
4.98 --undefined-- 38.462
4.99 --undefined-- 44.020
5.00 --undefined-- 50.912
5.01 --undefined-- 56.099
5.02 --undefined-- 59.453
5.03 177.411 61.434
5.04 169.709 63.002
5.05 168.345 64.501
5.06 134.409 65.819
5.07 123.702 66.700
5.08 118.727 66.853
5.09 116.598 66.352
5.10 115.535 65.225
5.11 114.649 62.983
5.12 112.667 58.896
5.13 --undefined-- 53.024
5.14 --undefined-- 47.426
5.15 --undefined-- 45.793
5.16 --undefined-- 44.629
5.17 --undefined-- 42.835
5.18 --undefined-- 42.469
5.19 --undefined-- 45.737
5.20 --undefined-- 55.313
5.21 --undefined-- 62.457
5.22 150.682 66.399
5.23 143.744 67.953
5.24 138.030 68.369
5.25 140.225 68.883
5.26 143.758 69.747
5.27 148.439 70.454
5.28 155.080 70.526
5.29 155.753 69.747
5.30 157.646 67.911
5.31 162.860 64.796
5.32 163.493 60.323
5.33 157.025 54.780
5.34 157.064 50.693
5.35 158.074 48.146
5.36 --undefined-- 45.706
5.37 --undefined-- 43.410
5.38 --undefined-- 42.021
5.39 --undefined-- 43.666
5.40 --undefined-- 53.466
5.41 --undefined-- 61.760
5.42 --undefined-- 66.536
5.43 --undefined-- 68.853
5.44 --undefined-- 69.435
5.45 --undefined-- 69.063
5.46 --undefined-- --undefined--
5.47 --undefined-- --undefined--
5.48 --undefined-- --undefined--
5.49 --undefined-- --undefined--
