Time Pitch Intensity
0.01 --undefined-- --undefined--
0.02 100.477 --undefined--
0.03 98.873 --undefined--
0.04 96.666 --undefined--
0.05 96.875 74.163
0.06 97.081 73.295
0.07 99.959 73.285
0.08 103.525 74.407
0.09 103.844 75.646
0.10 106.742 76.510
0.11 106.744 76.859
0.12 106.638 76.568
0.13 107.020 75.239
0.14 109.707 72.107
0.15 106.581 66.569
0.16 112.103 58.871
0.17 --undefined-- 52.674
0.18 --undefined-- 50.985
0.19 --undefined-- 52.797
0.20 --undefined-- 56.271
0.21 --undefined-- 58.996
0.22 --undefined-- 60.467
0.23 --undefined-- 61.298
0.24 --undefined-- 62.517
0.25 --undefined-- 63.532
0.26 --undefined-- 63.489
0.27 --undefined-- 62.718
0.28 --undefined-- 63.919
0.29 144.960 69.078
0.30 133.159 73.157
0.31 120.914 75.226
0.32 117.359 76.214
0.33 115.120 76.695
0.34 112.105 76.920
0.35 111.622 77.171
0.36 111.204 77.470
0.37 110.687 77.722
0.38 110.936 77.877
0.39 110.828 77.832
0.40 110.164 77.493
0.41 108.996 76.773
0.42 106.756 75.809
0.43 102.706 75.298
0.44 106.819 75.753
0.45 107.181 76.365
0.46 104.651 76.687
0.47 102.652 76.862
0.48 100.411 76.951
0.49 98.852 76.912
0.50 96.165 76.552
0.51 89.772 75.802
0.52 83.449 74.837
0.53 83.353 73.470
0.54 81.710 71.589
0.55 79.448 70.776
0.56 --undefined-- 70.061
0.57 --undefined-- 68.367
0.58 --undefined-- 67.868
0.59 --undefined-- 69.179
0.60 --undefined-- 71.190
0.61 89.391 73.412
0.62 98.954 75.138
0.63 104.905 76.287
0.64 109.682 77.028
0.65 112.081 77.690
0.66 116.638 78.361
0.67 117.417 78.782
0.68 118.079 78.789
0.69 117.909 78.495
0.70 116.080 78.058
0.71 113.108 77.596
0.72 110.567 77.152
0.73 107.655 76.607
0.74 106.814 75.482
0.75 99.102 73.403
0.76 105.501 70.308
0.77 109.109 65.855
0.78 --undefined-- 59.210
0.79 --undefined-- 51.213
0.80 --undefined-- 47.935
0.81 --undefined-- 48.177
0.82 --undefined-- 49.291
0.83 --undefined-- 50.467
0.84 --undefined-- 51.839
0.85 --undefined-- 52.807
0.86 --undefined-- 53.569
0.87 --undefined-- 54.660
0.88 --undefined-- 55.708
0.89 --undefined-- 55.796
0.90 --undefined-- 55.588
0.91 --undefined-- 56.434
0.92 --undefined-- 57.678
0.93 172.675 58.647
0.94 171.658 59.727
0.95 166.415 61.074
0.96 162.934 62.529
0.97 161.820 63.843
0.98 162.810 64.686
0.99 159.340 65.316
1.00 159.225 65.826
1.01 157.097 65.843
1.02 144.607 65.078
1.03 140.316 63.279
1.04 128.083 60.241
1.05 101.129 55.895
1.06 --undefined-- 50.978
1.07 --undefined-- 47.626
1.08 --undefined-- 47.992
1.09 --undefined-- 57.538
1.10 --undefined-- 66.308
1.11 94.493 71.498
1.12 94.084 74.402
1.13 92.925 76.219
1.14 --undefined-- 77.601
1.15 193.449 78.649
1.16 196.207 79.331
1.17 198.385 79.735
1.18 200.119 79.999
1.19 199.722 80.196
1.20 196.898 80.240
1.21 191.644 80.024
1.22 187.162 79.617
1.23 177.466 79.163
1.24 173.848 78.825
1.25 166.488 78.655
1.26 158.160 78.368
1.27 147.694 77.837
1.28 138.234 77.275
1.29 133.677 76.583
1.30 132.564 75.891
1.31 132.684 75.764
1.32 132.252 75.984
1.33 131.840 76.262
1.34 131.262 76.619
1.35 130.827 76.958
1.36 130.423 77.176
1.37 129.364 77.308
1.38 128.171 77.347
1.39 127.524 77.365
1.40 127.397 77.481
1.41 127.514 77.678
1.42 127.606 77.787
1.43 126.926 77.562
1.44 125.313 76.723
1.45 122.685 74.979
1.46 119.054 72.222
1.47 113.200 68.524
1.48 110.243 63.979
1.49 --undefined-- 60.917
1.50 --undefined-- 61.894
1.51 --undefined-- 67.138
1.52 --undefined-- 73.762
1.53 --undefined-- 77.516
1.54 126.521 78.782
1.55 123.186 78.703
1.56 111.188 78.249
1.57 108.734 78.256
1.58 108.837 78.517
1.59 109.942 78.642
1.60 112.496 78.748
1.61 117.060 78.835
1.62 120.008 78.855
1.63 126.552 78.741
1.64 135.244 78.171
1.65 137.276 77.142
1.66 141.982 75.999
1.67 143.032 75.385
1.68 152.971 76.750
1.69 154.985 78.682
1.70 153.552 79.287
1.71 153.019 78.903
1.72 152.822 78.421
1.73 152.451 78.171
1.74 153.379 78.211
1.75 155.156 78.322
1.76 155.202 77.632
1.77 151.541 75.121
1.78 146.987 70.340
1.79 158.713 64.019
1.80 154.750 58.081
1.81 156.328 54.797
1.82 155.839 56.318
1.83 --undefined-- 64.907
1.84 --undefined-- 72.006
1.85 142.476 75.831
1.86 135.328 77.090
1.87 128.420 76.977
1.88 120.353 76.575
1.89 113.111 76.233
1.90 109.712 76.030
1.91 108.568 75.956
1.92 108.568 75.739
1.93 110.137 75.554
1.94 112.206 75.529
1.95 112.049 75.437
1.96 111.548 75.432
1.97 112.739 75.775
1.98 111.389 76.454
1.99 110.530 77.313
2.00 109.444 78.002
2.01 105.988 78.369
2.02 104.770 78.257
2.03 105.925 77.640
2.04 107.971 76.975
2.05 106.836 76.366
2.06 106.522 75.388
2.07 106.784 73.829
2.08 105.905 71.693
2.09 105.687 69.915
2.10 113.260 71.070
2.11 122.664 74.494
2.12 122.667 76.978
2.13 116.046 77.753
2.14 108.495 77.587
2.15 106.347 77.416
2.16 106.879 77.348
2.17 107.382 77.187
2.18 106.486 77.020
2.19 104.072 77.004
2.20 104.620 76.938
2.21 105.130 76.494
2.22 105.275 75.628
2.23 105.352 74.767
2.24 104.182 74.005
2.25 103.294 73.331
2.26 102.848 72.928
2.27 102.737 72.780
2.28 102.858 72.752
2.29 102.057 72.827
2.30 101.306 73.062
2.31 101.340 73.473
2.32 101.576 74.031
2.33 100.412 74.621
2.34 98.378 75.112
2.35 96.400 75.384
2.36 95.686 75.491
2.37 96.086 75.671
2.38 96.308 76.061
2.39 100.426 76.633
2.40 103.327 77.131
2.41 103.696 77.243
2.42 102.965 76.733
2.43 101.756 75.509
2.44 102.401 74.185
2.45 107.763 73.608
2.46 111.086 73.627
2.47 115.530 74.422
2.48 128.308 76.076
2.49 128.444 77.484
2.50 129.180 77.907
2.51 130.973 77.719
2.52 132.730 77.563
2.53 134.003 77.496
2.54 135.667 77.266
2.55 138.079 76.871
2.56 140.333 76.329
2.57 141.270 75.389
2.58 140.686 74.085
2.59 138.391 73.120
2.60 136.711 72.821
2.61 140.810 73.204
2.62 150.369 74.069
2.63 150.324 74.859
2.64 140.067 75.204
2.65 132.493 75.345
2.66 126.036 75.776
2.67 120.221 76.351
2.68 116.780 76.700
2.69 114.179 76.894
2.70 113.791 77.112
2.71 114.301 77.202
2.72 119.295 77.304
2.73 125.801 77.720
2.74 127.341 77.419
2.75 127.587 75.325
2.76 124.801 71.251
2.77 157.499 66.594
2.78 162.152 62.828
2.79 --undefined-- 57.895
2.80 --undefined-- 53.861
2.81 --undefined-- 61.065
2.82 185.206 69.529
2.83 174.977 74.743
2.84 167.138 77.442
2.85 164.466 78.676
2.86 162.770 79.198
2.87 161.996 79.226
2.88 161.142 78.661
2.89 158.744 77.355
2.90 156.000 75.769
2.91 155.727 75.144
2.92 156.038 75.516
2.93 155.433 75.768
2.94 151.674 75.431
2.95 146.063 74.855
2.96 142.505 75.200
2.97 132.944 76.389
2.98 123.758 76.696
2.99 115.541 76.123
3.00 107.227 75.482
3.01 101.495 75.181
3.02 97.443 74.998
3.03 94.152 74.490
3.04 94.135 73.847
3.05 94.388 73.461
3.06 95.266 73.265
3.07 94.641 72.920
3.08 93.620 72.200
3.09 91.544 71.630
3.10 92.344 72.221
3.11 96.270 73.673
3.12 100.427 75.206
3.13 105.200 76.312
3.14 103.786 76.889
3.15 103.603 77.169
3.16 104.237 77.183
3.17 104.260 77.007
3.18 103.552 76.529
3.19 101.782 75.273
3.20 99.980 72.649
3.21 98.353 68.041
3.22 100.302 61.322
3.23 --undefined-- 56.149
3.24 --undefined-- 57.289
3.25 --undefined-- 59.465
3.26 --undefined-- 59.988
3.27 --undefined-- 59.298
3.28 --undefined-- 62.667
3.29 162.602 69.881
3.30 161.924 74.992
3.31 163.895 77.672
3.32 161.674 78.646
3.33 160.310 78.572
3.34 159.386 78.077
3.35 159.342 77.778
3.36 158.426 77.779
3.37 157.926 78.035
3.38 159.359 78.412
3.39 159.625 78.655
3.40 159.688 78.734
3.41 159.955 78.683
3.42 160.374 78.520
3.43 160.394 78.242
3.44 159.736 77.840
3.45 158.971 77.384
3.46 157.512 76.813
3.47 154.910 75.770
3.48 152.202 73.803
3.49 150.283 70.480
3.50 155.208 65.780
3.51 160.735 60.597
3.52 --undefined-- 58.496
3.53 --undefined-- 62.319
3.54 --undefined-- 67.172
3.55 --undefined-- 72.349
3.56 146.327 75.779
3.57 137.069 77.161
3.58 125.915 77.849
3.59 124.243 78.788
3.60 123.330 79.161
3.61 119.552 78.549
3.62 116.599 77.580
3.63 115.465 77.136
3.64 115.127 77.240
3.65 114.917 77.265
3.66 113.844 76.959
3.67 111.624 76.358
3.68 109.576 75.594
3.69 106.399 74.709
3.70 111.740 73.658
3.71 117.148 72.396
3.72 116.076 71.540
3.73 122.253 71.871
3.74 118.618 72.678
3.75 115.514 73.646
3.76 113.269 74.734
3.77 112.411 75.586
3.78 115.596 75.996
3.79 119.430 76.066
3.80 124.276 75.921
3.81 129.186 75.558
3.82 135.346 74.905
3.83 139.083 73.618
3.84 138.729 70.960
3.85 134.701 66.347
3.86 --undefined-- 60.228
3.87 --undefined-- 61.169
3.88 --undefined-- 69.485
3.89 --undefined-- 74.998
3.90 147.086 77.520
3.91 139.195 78.066
3.92 130.077 78.207
3.93 124.005 78.788
3.94 118.990 79.139
3.95 114.548 78.766
3.96 111.956 77.984
3.97 111.252 76.942
3.98 111.367 75.541
3.99 112.255 73.831
4.00 110.291 71.745
4.01 111.656 68.992
4.02 112.215 64.946
4.03 115.620 59.856
4.04 116.137 56.029
4.05 114.591 53.943
4.06 114.603 52.988
4.07 --undefined-- 53.510
4.08 --undefined-- 53.788
4.09 --undefined-- 54.453
4.10 --undefined-- 57.355
4.11 --undefined-- 61.499
4.12 --undefined-- 68.194
4.13 143.236 73.624
4.14 130.852 76.510
4.15 122.024 77.422
4.16 113.322 77.457
4.17 109.986 77.296
4.18 106.161 77.013
4.19 103.464 76.574
4.20 100.401 75.976
4.21 97.523 75.618
4.22 98.126 75.777
4.23 98.729 76.081
4.24 99.576 76.291
4.25 100.198 76.432
4.26 100.486 76.565
4.27 101.007 76.677
4.28 102.457 76.772
4.29 102.979 76.843
4.30 102.490 76.877
4.31 102.520 76.761
4.32 101.835 76.292
4.33 100.684 75.093
4.34 98.160 72.587
4.35 97.315 68.125
4.36 100.342 61.780
4.37 100.754 55.255
4.38 --undefined-- 51.859
4.39 --undefined-- 50.220
4.40 --undefined-- 49.040
4.41 --undefined-- 48.016
4.42 --undefined-- 47.584
4.43 --undefined-- 48.347
4.44 --undefined-- 55.286
4.45 --undefined-- 62.587
4.46 100.166 67.093
4.47 102.081 69.915
4.48 104.546 71.847
4.49 106.375 73.153
4.50 109.370 74.074
4.51 113.402 74.970
4.52 117.666 76.072
4.53 124.301 77.292
4.54 128.771 78.327
4.55 134.007 78.797
4.56 134.811 78.906
4.57 136.046 79.266
4.58 135.052 79.612
4.59 131.734 79.535
4.60 128.030 79.132
4.61 124.201 78.232
4.62 118.855 76.908
4.63 115.125 75.955
4.64 114.238 75.285
4.65 113.724 74.351
4.66 113.875 73.162
4.67 114.291 71.340
4.68 113.434 67.992
4.69 110.983 63.100
4.70 115.415 58.624
4.71 117.002 55.918
4.72 --undefined-- 54.036
4.73 --undefined-- 53.445
4.74 --undefined-- 54.250
4.75 --undefined-- 54.902
4.76 --undefined-- 54.158
4.77 --undefined-- 52.878
4.78 --undefined-- 52.353
4.79 --undefined-- 51.874
4.80 --undefined-- 51.882
4.81 --undefined-- 52.951
4.82 --undefined-- 54.283
4.83 --undefined-- 55.257
4.84 172.378 56.813
4.85 172.073 59.205
4.86 171.672 61.515
4.87 170.206 63.191
4.88 169.625 63.899
4.89 169.459 63.834
4.90 156.277 63.965
4.91 153.054 64.437
4.92 150.053 64.410
4.93 138.032 63.400
4.94 134.012 60.864
4.95 --undefined-- 56.404
4.96 --undefined-- 51.044
4.97 --undefined-- 47.166
4.98 --undefined-- 45.032
4.99 --undefined-- 49.367
5.00 --undefined-- --undefined--
5.01 --undefined-- --undefined--
5.02 --undefined-- --undefined--
5.03 --undefined-- --undefined--
