Time Pitch Intensity
0.01 --undefined-- --undefined--
0.02 147.144 --undefined--
0.03 149.194 --undefined--
0.04 148.206 --undefined--
0.05 150.082 60.435
0.06 149.676 56.436
0.07 146.805 53.894
0.08 --undefined-- 53.467
0.09 --undefined-- 56.959
0.10 --undefined-- 63.556
0.11 172.422 69.758
0.12 166.537 73.443
0.13 162.368 75.140
0.14 158.600 75.718
0.15 154.184 75.826
0.16 151.188 75.786
0.17 150.492 75.749
0.18 150.670 75.476
0.19 150.559 74.913
0.20 150.143 74.237
0.21 150.873 73.329
0.22 151.894 72.013
0.23 150.350 70.378
0.24 147.364 68.737
0.25 144.793 67.195
0.26 138.409 65.139
0.27 125.507 62.166
0.28 115.185 59.506
0.29 100.365 58.618
0.30 94.042 57.960
0.31 85.953 57.157
0.32 82.491 56.971
0.33 86.220 57.567
0.34 94.632 58.214
0.35 104.375 58.410
0.36 112.509 58.832
0.37 117.142 59.697
0.38 116.899 60.692
0.39 121.641 63.953
0.40 124.886 67.675
0.41 120.301 69.775
0.42 118.759 70.537
0.43 115.169 70.709
0.44 114.217 70.815
0.45 114.515 70.826
0.46 113.573 70.236
0.47 110.128 68.208
0.48 103.434 64.254
0.49 102.697 59.493
0.50 103.376 56.624
0.51 108.922 54.745
0.52 118.345 53.839
0.53 --undefined-- 55.187
0.54 --undefined-- 55.763
0.55 --undefined-- 55.799
0.56 --undefined-- 58.888
0.57 --undefined-- 61.319
0.58 --undefined-- 61.034
0.59 --undefined-- 59.487
0.60 --undefined-- 59.035
0.61 --undefined-- 60.141
0.62 93.854 62.700
0.63 101.424 65.459
0.64 106.365 67.519
0.65 106.348 68.693
0.66 105.756 69.392
0.67 107.398 69.910
0.68 107.124 70.045
0.69 107.014 69.909
0.70 106.823 69.684
0.71 106.711 69.464
0.72 106.299 69.470
0.73 106.535 69.765
0.74 106.693 69.908
0.75 106.334 69.740
0.76 104.775 69.307
0.77 103.812 68.443
0.78 102.990 66.882
0.79 101.477 64.592
0.80 100.600 62.062
0.81 100.138 60.291
0.82 100.595 59.384
0.83 99.886 58.366
0.84 98.412 56.834
0.85 96.605 55.471
0.86 95.055 55.106
0.87 95.350 55.608
0.88 94.184 56.732
0.89 95.504 58.441
0.90 95.998 60.275
0.91 94.327 61.808
0.92 94.005 63.144
0.93 93.649 64.176
0.94 93.511 64.675
0.95 93.061 64.782
0.96 92.584 64.838
0.97 93.416 65.089
0.98 94.380 65.538
0.99 96.110 66.021
1.00 97.779 66.402
1.01 100.107 66.415
1.02 99.871 65.714
1.03 99.311 64.073
1.04 98.839 61.642
1.05 99.667 59.023
1.06 105.625 57.128
1.07 116.679 55.433
1.08 118.136 53.077
1.09 --undefined-- 58.294
1.10 --undefined-- 66.305
1.11 154.253 70.920
1.12 154.165 72.666
1.13 149.771 72.756
1.14 148.954 72.396
1.15 147.877 72.013
1.16 147.211 71.672
1.17 147.995 71.405
1.18 150.368 71.456
1.19 152.041 71.982
1.20 153.038 72.712
1.21 153.590 73.263
1.22 153.570 73.379
1.23 153.383 72.976
1.24 152.856 71.703
1.25 150.986 69.207
1.26 145.780 66.339
1.27 142.970 63.970
1.28 140.384 61.169
1.29 135.084 61.270
1.30 143.947 66.831
1.31 141.733 70.858
1.32 136.239 72.701
1.33 132.565 73.170
1.34 128.433 72.752
1.35 122.375 71.939
1.36 120.950 71.633
1.37 121.228 72.032
1.38 120.999 72.577
1.39 119.980 72.837
1.40 118.617 72.204
1.41 118.300 69.971
1.42 111.474 65.816
1.43 121.099 60.862
1.44 122.264 57.040
1.45 --undefined-- 52.652
1.46 --undefined-- 49.432
1.47 --undefined-- 51.356
1.48 --undefined-- 54.717
1.49 --undefined-- 58.163
1.50 --undefined-- 60.343
1.51 --undefined-- 61.531
1.52 --undefined-- 62.257
1.53 --undefined-- 61.933
1.54 --undefined-- 60.875
1.55 --undefined-- 59.586
1.56 --undefined-- 59.606
1.57 --undefined-- 64.842
1.58 --undefined-- 69.309
1.59 115.856 71.138
1.60 109.356 71.091
1.61 104.597 70.343
1.62 99.940 69.548
1.63 97.178 68.591
1.64 95.815 67.349
1.65 95.268 66.131
1.66 96.716 65.369
1.67 100.057 65.477
1.68 101.435 66.033
1.69 104.093 66.366
1.70 105.933 66.380
1.71 107.446 66.113
1.72 108.331 65.441
1.73 107.712 64.001
1.74 105.695 61.736
1.75 107.173 59.617
1.76 111.054 57.914
1.77 110.067 55.619
1.78 --undefined-- 58.273
1.79 --undefined-- 65.764
1.80 156.574 70.756
1.81 142.438 72.755
1.82 135.870 72.860
1.83 132.712 72.515
1.84 130.930 72.099
1.85 128.787 71.025
1.86 128.273 68.756
1.87 129.612 65.157
1.88 128.239 61.112
1.89 126.972 57.904
1.90 128.652 55.114
1.91 130.211 52.117
1.92 129.367 49.063
1.93 130.021 46.562
1.94 --undefined-- 44.748
1.95 --undefined-- 44.306
1.96 --undefined-- 45.204
1.97 --undefined-- 46.345
1.98 --undefined-- 48.340
1.99 --undefined-- 50.297
2.00 --undefined-- 56.993
2.01 --undefined-- 65.928
2.02 148.244 71.259
2.03 147.546 73.574
2.04 143.444 73.761
2.05 139.634 72.457
2.06 134.240 70.129
2.07 137.097 69.102
2.08 138.827 70.091
2.09 139.103 70.816
2.10 138.674 71.039
2.11 137.283 71.085
2.12 136.065 71.268
2.13 135.701 71.517
2.14 134.120 71.537
2.15 132.885 71.479
2.16 133.862 71.412
2.17 132.686 71.370
2.18 133.786 71.857
2.19 137.635 72.718
2.20 143.468 73.217
2.21 143.117 73.230
2.22 141.051 73.209
2.23 140.997 73.263
2.24 140.201 72.601
2.25 137.720 70.159
2.26 128.540 65.548
2.27 133.096 60.274
2.28 136.674 55.624
2.29 --undefined-- 49.908
2.30 --undefined-- 44.554
2.31 --undefined-- 42.442
2.32 --undefined-- 41.667
2.33 --undefined-- 42.268
2.34 --undefined-- 43.597
2.35 --undefined-- 44.115
2.36 --undefined-- 43.262
2.37 --undefined-- 41.225
2.38 --undefined-- 43.497
2.39 --undefined-- 54.385
2.40 156.902 62.948
2.41 141.671 68.237
2.42 135.029 71.272
2.43 132.933 72.920
2.44 130.949 73.712
2.45 129.570 74.038
2.46 128.715 74.156
2.47 127.994 74.137
2.48 127.889 74.057
2.49 128.479 73.980
2.50 129.032 73.927
2.51 129.388 73.868
2.52 129.299 73.708
2.53 128.488 73.272
2.54 127.061 72.093
2.55 124.392 69.271
2.56 120.591 64.418
2.57 125.250 59.448
2.58 129.050 55.680
2.59 130.229 53.191
2.60 --undefined-- 54.184
2.61 --undefined-- 55.009
2.62 --undefined-- 55.653
2.63 --undefined-- 61.310
2.64 --undefined-- 67.270
2.65 120.985 70.954
2.66 122.215 72.828
2.67 124.207 73.637
2.68 128.298 73.971
2.69 133.002 73.864
2.70 137.949 72.848
2.71 142.748 70.327
2.72 149.226 66.315
2.73 152.343 62.605
2.74 151.590 60.137
2.75 151.692 59.239
2.76 --undefined-- 64.788
2.77 --undefined-- 70.415
2.78 145.023 72.969
2.79 139.383 72.674
2.80 121.464 70.023
2.81 105.386 65.554
2.82 96.406 60.272
2.83 98.095 56.929
2.84 103.192 55.414
2.85 108.793 53.175
2.86 102.447 50.452
2.87 --undefined-- 47.902
2.88 --undefined-- 44.432
2.89 --undefined-- 40.441
2.90 --undefined-- 43.789
2.91 --undefined-- 53.901
2.92 --undefined-- 61.999
2.93 --undefined-- 66.605
2.94 106.624 68.533
2.95 102.858 68.905
2.96 103.790 67.995
2.97 88.545 65.965
2.98 104.832 64.814
2.99 96.112 64.943
3.00 95.679 64.953
3.01 98.092 65.019
3.02 101.904 65.427
3.03 105.092 65.944
3.04 109.878 66.599
3.05 115.903 67.653
3.06 122.166 68.769
3.07 130.234 69.763
3.08 135.915 70.889
3.09 139.616 71.944
3.10 144.177 72.684
3.11 149.545 73.294
3.12 154.466 73.931
3.13 158.607 74.360
3.14 160.120 74.100
3.15 158.546 72.638
3.16 154.683 69.695
3.17 150.662 65.715
3.18 151.352 61.894
3.19 157.259 58.465
3.20 160.261 55.693
3.21 159.876 53.817
3.22 159.066 53.204
3.23 --undefined-- 59.831
3.24 --undefined-- 66.903
3.25 126.194 71.284
3.26 124.062 73.343
3.27 119.357 73.763
3.28 117.505 73.416
3.29 116.533 73.000
3.30 116.061 72.641
3.31 115.695 72.098
3.32 114.277 70.995
3.33 110.173 69.165
3.34 111.332 67.837
3.35 110.392 67.771
3.36 109.180 68.000
3.37 108.788 68.198
3.38 108.837 68.306
3.39 107.800 68.294
3.40 107.301 68.222
3.41 106.154 68.141
3.42 103.335 67.983
3.43 99.678 67.808
3.44 96.550 68.009
3.45 97.716 68.507
3.46 93.598 68.442
3.47 86.794 67.444
3.48 80.456 66.197
3.49 87.982 65.613
3.50 88.046 64.923
3.51 --undefined-- 63.896
3.52 --undefined-- 63.094
3.53 --undefined-- 62.780
3.54 --undefined-- 63.240
3.55 --undefined-- 63.117
3.56 --undefined-- 62.474
3.57 77.823 63.113
3.58 81.360 64.479
3.59 81.392 65.809
3.60 90.419 67.629
3.61 96.525 69.404
3.62 103.681 70.452
3.63 106.740 70.966
3.64 110.206 71.262
3.65 113.598 71.572
3.66 118.097 71.648
3.67 119.407 71.075
3.68 119.255 69.929
3.69 111.617 68.820
3.70 97.556 67.431
3.71 98.985 64.642
3.72 101.060 60.729
3.73 112.926 56.427
3.74 115.516 52.154
3.75 --undefined-- 49.330
3.76 --undefined-- 48.832
3.77 --undefined-- 48.957
3.78 --undefined-- 49.304
3.79 --undefined-- 50.396
3.80 --undefined-- 51.283
3.81 --undefined-- 51.260
3.82 --undefined-- 50.732
3.83 --undefined-- 50.639
3.84 --undefined-- 50.959
3.85 --undefined-- 51.378
3.86 --undefined-- 51.084
3.87 --undefined-- 50.397
3.88 --undefined-- 50.299
3.89 --undefined-- 50.206
3.90 --undefined-- 49.815
3.91 --undefined-- 50.050
3.92 --undefined-- 50.715
3.93 --undefined-- 50.568
3.94 --undefined-- 49.536
3.95 --undefined-- 48.160
3.96 --undefined-- 45.936
3.97 --undefined-- 42.573
3.98 --undefined-- 40.420
3.99 --undefined-- 43.870
4.00 --undefined-- 54.923
4.01 --undefined-- 63.768
4.02 147.807 69.430
4.03 151.941 72.648
4.04 153.779 74.068
4.05 159.888 74.357
4.06 169.513 74.024
4.07 178.569 73.408
4.08 178.740 72.489
4.09 177.827 71.371
4.10 166.802 69.960
4.11 158.794 67.607
4.12 154.945 64.013
4.13 --undefined-- 61.888
4.14 --undefined-- 64.899
4.15 --undefined-- 69.699
4.16 178.604 73.076
4.17 173.854 74.084
4.18 171.244 73.914
4.19 163.114 73.473
4.20 152.071 72.301
4.21 142.532 70.190
4.22 130.880 67.065
4.23 130.161 63.146
4.24 146.694 60.345
4.25 158.830 61.317
4.26 170.138 64.735
4.27 182.266 68.129
4.28 199.152 71.067
4.29 210.986 72.975
4.30 209.051 73.695
4.31 211.132 74.004
4.32 213.735 74.147
4.33 216.614 74.282
4.34 217.396 74.472
4.35 216.044 74.451
4.36 212.473 73.985
4.37 206.924 73.124
4.38 202.676 72.257
4.39 199.501 71.174
4.40 195.584 69.333
4.41 188.005 66.877
4.42 192.859 63.346
4.43 201.774 57.841
4.44 203.310 52.583
4.45 --undefined-- 48.750
4.46 --undefined-- 45.900
4.47 --undefined-- 45.151
4.48 --undefined-- 44.600
4.49 --undefined-- 44.153
4.50 --undefined-- 46.104
4.51 --undefined-- 48.755
4.52 --undefined-- 50.484
4.53 --undefined-- 51.358
4.54 --undefined-- 53.328
4.55 --undefined-- 55.953
4.56 --undefined-- 58.235
4.57 --undefined-- 59.579
4.58 --undefined-- 59.864
4.59 --undefined-- 59.844
4.60 --undefined-- 59.632
4.61 --undefined-- 59.130
4.62 --undefined-- 60.548
4.63 130.755 64.435
4.64 127.982 67.401
4.65 116.384 68.558
4.66 110.739 69.233
4.67 107.718 70.102
4.68 106.817 70.749
4.69 106.977 71.100
4.70 107.156 71.254
4.71 105.154 71.138
4.72 104.681 70.734
4.73 104.129 70.065
4.74 102.865 69.110
4.75 101.590 68.071
4.76 104.437 67.686
4.77 107.555 68.077
4.78 108.668 68.612
4.79 109.057 69.158
4.80 109.548 69.693
4.81 110.322 70.121
4.82 111.396 70.414
4.83 113.028 70.583
4.84 114.409 70.572
4.85 115.965 70.363
4.86 116.437 69.931
4.87 115.354 69.198
4.88 114.818 68.132
4.89 116.038 66.279
4.90 113.987 62.929
4.91 105.504 58.014
4.92 --undefined-- 53.099
4.93 --undefined-- 50.340
4.94 --undefined-- 52.097
4.95 --undefined-- 60.740
4.96 --undefined-- 68.587
4.97 157.127 72.903
4.98 157.407 74.517
4.99 156.311 74.613
5.00 154.502 74.168
5.01 152.148 73.437
5.02 148.981 72.479
5.03 152.426 72.294
5.04 155.260 73.057
5.05 155.932 73.706
5.06 156.077 74.045
5.07 156.273 74.218
5.08 156.386 74.307
5.09 155.601 --undefined--
5.10 154.667 --undefined--
5.11 --undefined-- --undefined--
5.12 --undefined-- --undefined--
