Time Pitch Intensity
0.01 --undefined-- --undefined--
0.02 143.074 --undefined--
0.03 136.099 --undefined--
0.04 --undefined-- --undefined--
0.05 --undefined-- 47.187
0.06 --undefined-- 50.046
0.07 --undefined-- 51.911
0.08 122.825 51.814
0.09 121.850 51.209
0.10 121.106 54.610
0.11 140.743 60.431
0.12 141.289 64.491
0.13 114.555 66.416
0.14 100.752 66.427
0.15 93.631 65.172
0.16 91.294 63.660
0.17 87.821 62.751
0.18 85.260 62.238
0.19 83.133 61.513
0.20 78.831 60.252
0.21 --undefined-- 58.389
0.22 --undefined-- 55.820
0.23 --undefined-- 51.924
0.24 --undefined-- 47.503
0.25 --undefined-- 46.278
0.26 --undefined-- 45.632
0.27 --undefined-- 45.531
0.28 --undefined-- 47.168
0.29 --undefined-- 48.924
0.30 --undefined-- 50.170
0.31 --undefined-- 51.033
0.32 --undefined-- 51.287
0.33 --undefined-- 50.447
0.34 --undefined-- 49.347
0.35 --undefined-- 48.860
0.36 --undefined-- 48.505
0.37 --undefined-- 47.625
0.38 --undefined-- 46.061
0.39 --undefined-- 44.926
0.40 --undefined-- 44.179
0.41 --undefined-- 42.901
0.42 --undefined-- 41.511
0.43 --undefined-- 40.213
0.44 --undefined-- 39.289
0.45 --undefined-- 38.777
0.46 --undefined-- 37.687
0.47 --undefined-- 34.354
0.48 --undefined-- 30.256
0.49 --undefined-- 30.169
0.50 --undefined-- 31.788
0.51 --undefined-- 35.116
0.52 --undefined-- 41.301
0.53 --undefined-- 48.124
0.54 --undefined-- 52.656
0.55 --undefined-- 54.528
0.56 --undefined-- 55.213
0.57 --undefined-- 61.337
0.58 208.276 68.256
0.59 201.585 71.914
0.60 198.628 72.689
0.61 186.373 71.443
0.62 181.778 69.481
0.63 169.956 67.783
0.64 173.094 66.200
0.65 172.827 64.226
0.66 171.726 61.509
0.67 178.257 57.807
0.68 182.225 53.313
0.69 --undefined-- 48.017
0.70 --undefined-- 42.664
0.71 --undefined-- 39.180
0.72 --undefined-- 38.853
0.73 --undefined-- 39.316
0.74 --undefined-- 38.236
0.75 --undefined-- 35.878
0.76 --undefined-- 34.212
0.77 --undefined-- 41.891
0.78 --undefined-- 54.592
0.79 --undefined-- 62.829
0.80 161.903 67.499
0.81 160.897 69.694
0.82 151.773 70.429
0.83 143.791 70.490
0.84 136.619 70.217
0.85 128.271 69.543
0.86 122.659 68.471
0.87 114.543 67.560
0.88 113.850 66.981
0.89 111.514 65.780
0.90 109.164 63.649
0.91 102.902 61.196
0.92 107.174 60.069
0.93 115.799 61.208
0.94 112.216 62.283
0.95 116.293 62.517
0.96 115.177 61.664
0.97 112.066 59.667
0.98 112.720 57.106
0.99 119.626 55.578
1.00 130.202 58.622
1.01 143.661 63.232
1.02 140.876 66.198
1.03 137.036 67.793
1.04 134.231 68.984
1.05 133.310 69.733
1.06 131.958 69.585
1.07 134.367 68.728
1.08 137.887 67.739
1.09 138.699 66.795
1.10 138.160 65.424
1.11 143.682 63.818
1.12 145.760 62.837
1.13 146.202 62.475
1.14 143.203 62.821
1.15 138.159 63.865
1.16 135.841 65.156
1.17 130.040 66.600
1.18 126.985 67.807
1.19 120.995 68.250
1.20 117.433 68.087
1.21 116.170 67.543
1.22 116.585 66.434
1.23 113.986 64.247
1.24 111.873 60.083
1.25 --undefined-- 53.899
1.26 --undefined-- 48.229
1.27 --undefined-- 46.619
1.28 --undefined-- 45.007
1.29 --undefined-- 42.426
1.30 --undefined-- 41.751
1.31 --undefined-- 44.528
1.32 --undefined-- 48.322
1.33 --undefined-- 51.772
1.34 --undefined-- 53.627
1.35 --undefined-- 53.442
1.36 --undefined-- 54.478
1.37 --undefined-- 60.932
1.38 182.369 66.476
1.39 182.410 69.001
1.40 170.719 69.500
1.41 161.038 69.653
1.42 154.499 69.951
1.43 152.942 69.852
1.44 130.756 69.275
1.45 131.199 69.106
1.46 130.024 69.764
1.47 128.028 70.260
1.48 126.353 70.174
1.49 125.966 69.847
1.50 126.287 69.621
1.51 126.409 69.114
1.52 127.494 68.334
1.53 129.199 67.772
1.54 131.137 67.347
1.55 129.669 66.888
1.56 131.994 66.998
1.57 135.871 67.787
1.58 137.681 68.451
1.59 138.898 68.684
1.60 139.583 68.236
1.61 139.577 66.890
1.62 139.801 64.448
1.63 139.872 60.475
1.64 143.619 54.635
1.65 --undefined-- 49.341
1.66 --undefined-- 47.433
1.67 --undefined-- 45.264
1.68 --undefined-- 43.076
1.69 --undefined-- 42.816
1.70 --undefined-- 50.676
1.71 --undefined-- 60.907
1.72 --undefined-- 67.254
1.73 168.732 70.449
1.74 159.154 71.271
1.75 153.126 69.978
1.76 138.596 66.605
1.77 --undefined-- 61.267
1.78 --undefined-- 54.868
1.79 --undefined-- 49.402
1.80 --undefined-- 46.438
1.81 --undefined-- 44.260
1.82 --undefined-- 41.883
1.83 --undefined-- 39.118
1.84 --undefined-- 37.247
1.85 --undefined-- 36.624
1.86 --undefined-- 36.149
1.87 --undefined-- 38.555
1.88 --undefined-- 43.148
1.89 --undefined-- 51.913
1.90 --undefined-- 58.794
1.91 114.757 62.582
1.92 108.166 64.159
1.93 107.424 64.747
1.94 108.229 65.378
1.95 109.915 66.101
1.96 111.795 66.725
1.97 115.204 67.218
1.98 119.486 67.536
1.99 121.332 67.678
2.00 122.336 67.850
2.01 123.646 68.092
2.02 123.153 68.326
2.03 122.464 68.469
2.04 122.213 68.493
2.05 122.555 68.469
2.06 121.063 68.260
2.07 118.388 67.725
2.08 112.003 67.077
2.09 107.733 66.252
2.10 104.477 64.474
2.11 --undefined-- 61.296
2.12 --undefined-- 57.324
2.13 --undefined-- 53.109
2.14 --undefined-- 49.081
2.15 --undefined-- 46.550
2.16 --undefined-- 43.996
2.17 --undefined-- 41.986
2.18 --undefined-- 46.134
2.19 --undefined-- 53.769
2.20 121.220 59.480
2.21 116.760 62.629
2.22 110.648 63.637
2.23 107.609 63.358
2.24 103.051 62.710
2.25 100.213 62.072
2.26 98.090 61.376
2.27 95.640 60.839
2.28 94.720 60.595
2.29 94.435 60.402
2.30 95.253 60.199
2.31 96.546 60.011
2.32 97.253 59.632
2.33 98.056 58.484
2.34 --undefined-- 55.681
2.35 --undefined-- 50.895
2.36 --undefined-- 46.313
2.37 --undefined-- 43.842
2.38 --undefined-- 41.749
2.39 --undefined-- 39.886
2.40 --undefined-- 40.845
2.41 --undefined-- 48.074
2.42 --undefined-- 57.676
2.43 --undefined-- 63.874
2.44 --undefined-- 66.732
2.45 105.848 67.147
2.46 102.325 66.199
2.47 93.524 65.106
2.48 87.789 64.471
2.49 85.367 63.924
2.50 82.206 63.133
2.51 81.380 61.819
2.52 80.458 60.146
2.53 84.450 60.127
2.54 86.555 61.486
2.55 85.610 62.599
2.56 86.428 63.254
2.57 87.240 63.723
2.58 89.155 64.021
2.59 92.600 64.040
2.60 95.086 63.845
2.61 97.370 63.621
2.62 100.182 63.627
2.63 100.696 63.532
2.64 99.225 63.126
2.65 101.540 63.279
2.66 102.234 64.884
2.67 --undefined-- 69.292
2.68 243.590 73.326
2.69 236.569 74.760
2.70 229.456 74.022
2.71 217.288 72.534
2.72 203.588 71.514
2.73 196.608 70.867
2.74 188.854 70.295
2.75 185.340 69.955
2.76 183.132 69.748
2.77 179.556 69.535
2.78 175.942 69.251
2.79 172.557 68.914
2.80 170.119 68.598
2.81 168.204 68.380
2.82 166.636 68.387
2.83 164.360 68.586
2.84 163.351 68.839
2.85 162.517 68.984
2.86 162.226 68.876
2.87 162.650 68.562
2.88 163.612 68.219
2.89 164.273 68.017
2.90 165.325 67.945
2.91 165.953 67.980
2.92 166.601 68.228
2.93 166.297 68.613
2.94 166.375 68.893
2.95 167.699 68.954
2.96 169.073 68.714
2.97 166.842 68.254
2.98 166.800 67.911
2.99 168.765 67.987
3.00 173.578 68.508
3.01 180.569 69.401
3.02 187.319 70.376
3.03 185.821 70.797
3.04 179.754 70.773
3.05 173.446 70.837
3.06 164.900 71.307
3.07 146.636 72.750
3.08 149.832 74.239
3.09 153.898 74.664
3.10 159.014 73.900
3.11 160.787 73.109
3.12 159.657 73.403
3.13 156.604 73.480
3.14 150.201 72.853
3.15 146.068 72.528
3.16 156.721 72.279
3.17 153.809 72.384
3.18 148.055 73.002
3.19 145.636 73.031
3.20 142.205 72.623
3.21 138.360 72.449
3.22 135.983 72.262
3.23 134.879 71.726
3.24 137.825 71.232
3.25 139.703 71.102
3.26 143.064 70.966
3.27 140.333 70.657
3.28 137.586 70.374
3.29 137.663 70.332
3.30 139.147 70.572
3.31 141.783 70.790
3.32 144.483 70.841
3.33 147.386 70.886
3.34 149.803 70.827
3.35 152.252 70.522
3.36 155.793 70.458
3.37 158.221 70.798
3.38 161.445 71.164
3.39 168.686 71.289
3.40 171.559 71.355
3.41 172.463 71.556
3.42 172.790 71.796
3.43 173.215 71.962
3.44 171.425 71.977
3.45 169.115 71.750
3.46 165.833 71.144
3.47 162.920 70.393
3.48 158.417 69.951
3.49 154.443 69.067
3.50 147.444 66.515
3.51 --undefined-- 62.323
3.52 --undefined-- 57.835
3.53 --undefined-- 53.489
3.54 --undefined-- 48.801
3.55 --undefined-- 45.023
3.56 --undefined-- 43.237
3.57 --undefined-- 41.483
3.58 --undefined-- 46.502
3.59 --undefined-- 57.247
3.60 --undefined-- 64.252
3.61 --undefined-- 67.812
3.62 --undefined-- 68.755
3.63 --undefined-- 68.136
3.64 --undefined-- 67.052
3.65 112.000 66.156
3.66 112.543 65.537
3.67 114.605 65.406
3.68 115.606 65.850
3.69 115.528 66.109
3.70 115.770 65.667
3.71 117.015 64.845
3.72 117.851 64.132
3.73 117.997 63.694
3.74 117.988 63.727
3.75 117.381 63.899
3.76 117.801 64.148
3.77 118.082 64.821
3.78 117.770 65.641
3.79 116.663 66.235
3.80 114.787 66.620
3.81 114.384 66.857
3.82 113.400 66.765
3.83 112.334 65.630
3.84 --undefined-- 62.798
3.85 --undefined-- 58.615
3.86 --undefined-- 54.069
3.87 --undefined-- 49.426
3.88 --undefined-- 45.689
3.89 --undefined-- 43.212
3.90 --undefined-- 42.255
3.91 --undefined-- 42.014
3.92 --undefined-- 44.215
3.93 --undefined-- 48.539
3.94 --undefined-- 52.589
3.95 135.853 56.767
3.96 134.955 60.166
3.97 133.297 62.857
3.98 126.051 65.039
3.99 113.596 66.498
4.00 104.050 67.000
4.01 98.890 66.710
4.02 98.764 65.956
4.03 98.334 64.741
4.04 98.063 63.636
4.05 96.623 63.577
4.06 95.226 64.249
4.07 93.944 64.582
4.08 94.180 64.384
4.09 95.995 63.982
4.10 97.661 63.691
4.11 102.901 64.124
4.12 106.128 64.911
4.13 111.707 65.432
4.14 115.326 66.047
4.15 119.682 66.635
4.16 122.564 66.799
4.17 126.085 66.745
4.18 129.750 66.907
4.19 132.584 67.406
4.20 134.558 67.733
4.21 136.723 67.073
4.22 136.434 64.878
4.23 124.832 61.443
4.24 125.860 58.147
4.25 129.308 55.091
4.26 --undefined-- 51.408
4.27 --undefined-- 47.557
4.28 --undefined-- 45.907
4.29 --undefined-- 53.472
4.30 --undefined-- 61.249
4.31 --undefined-- 66.129
4.32 140.105 68.420
4.33 134.773 69.108
4.34 129.232 69.076
4.35 124.337 68.716
4.36 122.517 68.573
4.37 122.003 68.436
4.38 122.343 67.746
4.39 123.164 66.702
4.40 123.100 66.045
4.41 121.286 65.765
4.42 122.788 65.249
4.43 121.025 64.994
4.44 121.493 66.507
4.45 101.087 69.455
4.46 98.259 72.011
4.47 97.682 73.387
4.48 96.541 73.998
4.49 97.247 73.991
4.50 96.774 73.459
4.51 198.935 73.638
4.52 202.130 73.988
4.53 201.774 73.702
4.54 201.545 73.248
4.55 200.469 72.956
4.56 199.114 72.692
4.57 196.966 72.440
4.58 194.350 72.199
4.59 192.045 71.919
4.60 189.959 71.639
4.61 185.764 71.555
4.62 182.653 71.532
4.63 181.882 71.749
4.64 169.164 72.114
4.65 167.434 72.228
4.66 182.282 72.134
4.67 167.375 71.363
4.68 167.285 70.358
4.69 163.222 69.744
4.70 151.416 69.157
4.71 --undefined-- 68.453
4.72 --undefined-- 67.750
4.73 --undefined-- 67.492
4.74 --undefined-- 67.091
4.75 --undefined-- 65.761
4.76 --undefined-- 63.308
4.77 --undefined-- 59.809
4.78 --undefined-- 55.663
4.79 --undefined-- 52.230
4.80 --undefined-- 52.070
4.81 --undefined-- 51.191
4.82 --undefined-- 51.649
4.83 --undefined-- 53.718
4.84 --undefined-- 55.338
4.85 --undefined-- 56.502
4.86 --undefined-- 58.998
4.87 233.272 65.087
4.88 215.823 69.841
4.89 207.886 72.049
4.90 196.921 72.433
4.91 191.681 72.086
4.92 187.707 71.433
4.93 182.825 70.536
4.94 177.829 70.234
4.95 175.944 70.884
4.96 174.881 71.578
4.97 175.517 71.949
4.98 177.049 71.939
4.99 175.909 71.572
5.00 172.549 70.795
5.01 169.188 69.021
5.02 169.850 65.639
5.03 177.816 60.835
5.04 182.597 55.708
5.05 --undefined-- 50.778
5.06 --undefined-- 46.824
5.07 --undefined-- 45.509
5.08 --undefined-- 51.244
5.09 --undefined-- 60.532
5.10 --undefined-- 66.517
5.11 172.951 69.425
5.12 168.892 70.127
5.13 164.797 69.471
5.14 150.871 68.995
5.15 134.167 69.619
5.16 128.900 70.313
5.17 125.322 70.251
5.18 121.335 69.404
5.19 119.348 68.530
5.20 118.926 67.941
5.21 119.205 67.052
5.22 121.693 65.985
5.23 123.653 65.608
5.24 123.738 65.746
5.25 124.231 65.774
5.26 124.804 65.672
5.27 125.969 65.739
5.28 127.651 66.071
5.29 128.185 66.354
5.30 128.051 66.509
5.31 129.343 --undefined--
5.32 128.170 --undefined--
5.33 --undefined-- --undefined--
5.34 --undefined-- --undefined--
