Time Pitch Intensity
0.01 --undefined-- --undefined--
0.02 --undefined-- --undefined--
0.03 --undefined-- --undefined--
0.04 153.068 --undefined--
0.05 144.441 71.004
0.06 141.502 70.578
0.07 139.889 70.126
0.08 140.180 70.008
0.09 141.797 70.602
0.10 143.514 71.893
0.11 144.425 73.216
0.12 145.103 74.091
0.13 145.339 74.559
0.14 145.470 74.754
0.15 145.795 74.501
0.16 145.443 73.667
0.17 145.728 73.164
0.18 148.042 73.651
0.19 148.678 74.285
0.20 149.317 74.623
0.21 149.952 74.670
0.22 150.860 74.683
0.23 151.622 74.750
0.24 152.848 74.705
0.25 153.872 74.392
0.26 152.957 73.453
0.27 152.709 71.206
0.28 156.308 67.151
0.29 163.939 63.564
0.30 199.032 63.692
0.31 198.712 64.049
0.32 188.887 68.172
0.33 185.737 72.769
0.34 182.130 74.855
0.35 183.241 75.188
0.36 186.589 74.985
0.37 188.966 74.766
0.38 189.674 73.934
0.39 185.248 72.364
0.40 181.262 71.658
0.41 183.588 72.281
0.42 182.705 72.943
0.43 179.450 73.255
0.44 174.660 73.089
0.45 168.158 72.272
0.46 160.587 70.563
0.47 151.069 67.790
0.48 150.440 66.835
0.49 177.594 71.070
0.50 150.448 74.390
0.51 145.178 75.507
0.52 132.741 75.484
0.53 124.166 75.808
0.54 120.754 76.233
0.55 118.813 75.572
0.56 117.879 73.515
0.57 114.037 70.264
0.58 114.948 66.122
0.59 113.823 61.713
0.60 116.097 58.659
0.61 118.872 57.316
0.62 118.759 56.360
0.63 121.119 54.964
0.64 116.169 53.439
0.65 116.155 52.301
0.66 116.447 51.523
0.67 --undefined-- 51.074
0.68 --undefined-- 50.238
0.69 --undefined-- 50.668
0.70 --undefined-- 58.510
0.71 --undefined-- 65.346
0.72 117.499 69.175
0.73 109.742 71.095
0.74 108.088 72.116
0.75 109.002 72.548
0.76 110.033 72.426
0.77 109.026 71.966
0.78 107.583 71.610
0.79 105.458 71.500
0.80 103.613 71.436
0.81 103.623 71.462
0.82 103.436 72.070
0.83 104.145 73.343
0.84 104.113 74.506
0.85 103.866 75.113
0.86 105.835 75.172
0.87 107.552 74.652
0.88 109.813 73.534
0.89 112.639 72.497
0.90 113.386 72.189
0.91 115.672 72.564
0.92 118.718 72.894
0.93 122.772 72.631
0.94 126.003 72.477
0.95 131.503 73.642
0.96 137.672 75.311
0.97 138.730 76.202
0.98 141.964 76.283
0.99 144.574 76.064
1.00 147.031 75.980
1.01 150.341 75.924
1.02 153.676 75.191
1.03 156.714 72.790
1.04 157.272 68.207
1.05 154.478 62.427
1.06 154.197 57.448
1.07 155.655 52.924
1.08 151.079 50.320
1.09 152.588 50.905
1.10 --undefined-- 58.860
1.11 --undefined-- 67.829
1.12 224.182 73.269
1.13 218.054 75.718
1.14 213.167 76.313
1.15 211.838 76.245
1.16 211.462 75.895
1.17 209.856 75.189
1.18 208.986 74.324
1.19 208.790 73.470
1.20 208.481 72.589
1.21 207.202 71.659
1.22 205.502 70.821
1.23 205.269 70.059
1.24 202.237 68.750
1.25 191.865 66.530
1.26 193.698 63.317
1.27 200.084 58.769
1.28 205.597 53.396
1.29 --undefined-- 50.642
1.30 --undefined-- 54.203
1.31 --undefined-- 63.358
1.32 --undefined-- 70.277
1.33 223.680 73.598
1.34 211.632 74.039
1.35 203.101 72.940
1.36 198.077 71.726
1.37 195.485 70.961
1.38 193.768 70.801
1.39 194.106 70.852
1.40 194.422 71.030
1.41 195.311 71.458
1.42 195.090 72.191
1.43 195.611 73.208
1.44 195.517 74.078
1.45 194.778 74.182
1.46 193.950 73.355
1.47 193.142 72.620
1.48 197.946 73.018
1.49 198.976 73.726
1.50 199.571 74.278
1.51 199.420 74.645
1.52 198.838 74.734
1.53 198.648 74.379
1.54 198.099 73.294
1.55 193.856 71.008
1.56 195.025 67.089
1.57 198.327 61.711
1.58 198.161 57.401
1.59 199.835 56.102
1.60 --undefined-- 55.291
1.61 --undefined-- 55.280
1.62 --undefined-- 61.185
1.63 --undefined-- 68.811
1.64 207.001 73.147
1.65 200.365 74.670
1.66 195.979 74.730
1.67 192.403 74.515
1.68 189.402 74.288
1.69 186.677 73.524
1.70 182.307 71.585
1.71 178.459 69.637
1.72 185.178 70.209
1.73 187.795 71.453
1.74 188.925 72.046
1.75 189.528 72.090
1.76 189.745 71.940
1.77 190.325 71.930
1.78 192.224 72.069
1.79 189.240 72.212
1.80 187.445 72.805
1.81 188.404 73.907
1.82 189.222 74.417
1.83 187.554 74.425
1.84 184.614 74.751
1.85 183.554 75.222
1.86 181.780 75.399
1.87 179.850 75.154
1.88 177.756 74.387
1.89 172.291 72.814
1.90 158.691 70.127
1.91 144.345 66.412
1.92 165.615 62.357
1.93 164.646 58.637
1.94 165.383 55.828
1.95 166.165 59.711
1.96 --undefined-- 67.917
1.97 --undefined-- 72.949
1.98 144.027 75.017
1.99 130.517 75.431
2.00 121.942 75.335
2.01 117.495 75.158
2.02 115.285 75.000
2.03 115.181 74.983
2.04 114.462 75.203
2.05 114.009 75.473
2.06 114.251 75.537
2.07 115.280 75.382
2.08 114.583 74.794
2.09 112.690 72.865
2.10 96.250 69.158
2.11 112.169 64.339
2.12 114.019 59.664
2.13 116.155 56.654
2.14 117.180 54.058
2.15 116.836 52.300
2.16 116.463 56.053
2.17 --undefined-- 65.146
2.18 --undefined-- 71.375
2.19 126.547 74.392
2.20 123.893 75.339
2.21 122.625 75.443
2.22 120.848 75.306
2.23 120.274 75.095
2.24 120.008 74.903
2.25 119.086 74.720
2.26 118.447 74.515
2.27 117.003 74.440
2.28 115.589 74.848
2.29 116.163 75.449
2.30 115.375 75.443
2.31 108.301 75.015
2.32 106.352 74.859
2.33 103.752 74.599
2.34 99.736 73.996
2.35 98.560 73.275
2.36 97.928 72.566
2.37 97.423 71.652
2.38 96.771 70.600
2.39 97.406 70.041
2.40 102.145 69.985
2.41 102.321 69.156
2.42 100.963 66.651
2.43 102.160 62.368
2.44 99.199 56.778
2.45 --undefined-- 52.313
2.46 --undefined-- 51.449
2.47 --undefined-- 51.956
2.48 --undefined-- 56.558
2.49 --undefined-- 64.673
2.50 --undefined-- 69.865
2.51 104.948 72.056
2.52 102.129 72.301
2.53 100.672 71.551
2.54 99.922 70.682
2.55 101.809 70.615
2.56 103.111 71.061
2.57 102.430 71.495
2.58 102.142 71.723
2.59 101.520 71.665
2.60 101.284 71.456
2.61 103.494 71.480
2.62 102.747 72.207
2.63 101.090 73.384
2.64 99.900 74.152
2.65 101.691 74.482
2.66 104.329 74.697
2.67 105.103 74.855
2.68 103.469 74.730
2.69 102.865 73.986
2.70 108.766 72.858
2.71 111.049 71.627
2.72 114.035 70.554
2.73 125.099 71.215
2.74 123.945 72.824
2.75 129.149 73.613
2.76 130.949 73.643
2.77 136.705 73.408
2.78 139.628 73.172
2.79 141.435 72.539
2.80 142.436 70.865
2.81 145.633 68.223
2.82 155.551 67.015
2.83 161.765 69.740
2.84 163.863 73.115
2.85 164.608 75.170
2.86 162.295 75.843
2.87 155.640 75.601
2.88 148.273 75.344
2.89 142.442 75.181
2.90 137.759 73.861
2.91 115.713 70.508
2.92 116.501 65.234
2.93 --undefined-- 59.304
2.94 --undefined-- 54.615
2.95 131.835 53.034
2.96 131.644 52.491
2.97 --undefined-- 51.913
2.98 --undefined-- 51.736
2.99 --undefined-- 53.262
3.00 --undefined-- 57.502
3.01 --undefined-- 64.706
3.02 148.311 70.102
3.03 144.584 72.433
3.04 131.986 72.193
3.05 128.244 70.027
3.06 113.401 66.518
3.07 107.022 63.129
3.08 107.366 62.393
3.09 115.704 63.222
3.10 112.856 64.639
3.11 107.626 66.853
3.12 107.379 68.580
3.13 107.803 68.205
3.14 --undefined-- 64.692
3.15 --undefined-- 57.616
3.16 --undefined-- 50.907
3.17 --undefined-- 48.840
3.18 --undefined-- 46.027
3.19 --undefined-- 44.459
3.20 --undefined-- 45.631
3.21 --undefined-- 46.480
3.22 --undefined-- 48.335
3.23 --undefined-- 48.933
3.24 --undefined-- 46.579
3.25 --undefined-- 44.714
3.26 --undefined-- 50.428
3.27 --undefined-- 58.867
3.28 --undefined-- 63.848
3.29 --undefined-- 66.336
3.30 152.730 69.010
3.31 142.094 71.171
3.32 140.941 72.413
3.33 141.696 73.419
3.34 142.523 73.843
3.35 141.790 73.057
3.36 137.944 70.566
3.37 122.827 66.025
3.38 118.681 59.681
3.39 142.522 53.615
3.40 135.178 52.022
3.41 132.593 51.794
3.42 129.510 50.474
3.43 --undefined-- 48.115
3.44 --undefined-- 48.168
3.45 --undefined-- 56.081
3.46 --undefined-- 64.220
3.47 150.094 70.453
3.48 146.224 73.978
3.49 135.058 75.371
3.50 126.164 76.022
3.51 123.999 76.642
3.52 122.402 77.048
3.53 121.302 77.061
3.54 119.908 76.357
3.55 117.181 74.453
3.56 112.021 71.029
3.57 110.944 66.264
3.58 116.026 62.227
3.59 116.573 59.775
3.60 119.667 57.633
3.61 120.030 55.785
3.62 119.674 53.808
3.63 120.355 51.922
3.64 --undefined-- 50.261
3.65 --undefined-- 51.580
3.66 --undefined-- 61.487
3.67 --undefined-- 69.439
3.68 130.206 73.914
3.69 125.660 75.805
3.70 119.765 75.886
3.71 114.482 74.926
3.72 112.076 74.257
3.73 110.562 74.274
3.74 109.017 74.530
3.75 108.486 75.065
3.76 107.885 75.485
3.77 106.985 75.456
3.78 106.835 75.021
3.79 107.408 74.376
3.80 108.025 73.773
3.81 108.150 73.421
3.82 108.986 73.329
3.83 109.543 73.351
3.84 110.416 73.393
3.85 110.480 73.484
3.86 110.819 73.645
3.87 111.117 73.857
3.88 111.175 74.112
3.89 111.161 74.277
3.90 110.896 74.164
3.91 110.207 73.595
3.92 108.686 72.375
3.93 105.234 70.375
3.94 100.624 67.723
3.95 98.415 64.646
3.96 104.473 60.737
3.97 109.701 55.353
3.98 --undefined-- 50.736
3.99 --undefined-- 50.982
4.00 --undefined-- 54.157
4.01 --undefined-- 56.616
4.02 --undefined-- 58.625
4.03 --undefined-- 65.177
4.04 --undefined-- 71.585
4.05 --undefined-- 74.954
4.06 120.003 75.899
4.07 117.280 75.505
4.08 109.001 74.985
4.09 105.090 75.342
4.10 103.146 75.477
4.11 101.252 74.844
4.12 100.808 74.341
4.13 100.744 74.082
4.14 100.966 73.819
4.15 100.453 73.635
4.16 100.559 73.484
4.17 100.336 73.389
4.18 99.541 73.320
4.19 100.438 73.205
4.20 100.218 72.910
4.21 98.961 72.332
4.22 98.507 71.610
4.23 98.870 71.060
4.24 100.500 70.904
4.25 101.718 71.038
4.26 102.521 71.223
4.27 103.193 71.292
4.28 103.499 71.226
4.29 103.944 70.871
4.30 104.376 69.987
4.31 103.325 68.442
4.32 102.511 67.520
4.33 121.291 70.556
4.34 123.045 74.320
4.35 120.615 76.263
4.36 119.479 76.411
4.37 120.269 75.681
4.38 120.123 74.930
4.39 120.204 74.469
4.40 117.425 74.261
4.41 115.842 73.597
4.42 111.991 71.846
4.43 --undefined-- 70.031
4.44 --undefined-- 68.237
4.45 --undefined-- 64.022
4.46 118.473 58.030
4.47 119.344 54.345
4.48 114.263 53.095
4.49 118.105 52.319
4.50 116.545 51.545
4.51 126.458 50.531
4.52 --undefined-- 49.457
4.53 --undefined-- 49.016
4.54 --undefined-- 48.135
4.55 --undefined-- 47.306
4.56 --undefined-- 47.878
4.57 --undefined-- 48.744
4.58 --undefined-- 48.663
4.59 --undefined-- 48.241
4.60 --undefined-- 48.761
4.61 --undefined-- 49.878
4.62 --undefined-- 50.483
4.63 --undefined-- 50.292
4.64 --undefined-- 49.928
4.65 --undefined-- 49.495
4.66 --undefined-- 49.231
4.67 --undefined-- 49.182
4.68 --undefined-- 48.922
4.69 --undefined-- 48.923
4.70 --undefined-- 49.048
4.71 --undefined-- 48.520
4.72 --undefined-- 47.535
4.73 --undefined-- 46.210
4.74 --undefined-- 44.955
4.75 --undefined-- 45.079
4.76 --undefined-- 46.111
4.77 --undefined-- 47.443
4.78 --undefined-- 48.095
4.79 --undefined-- 47.298
4.80 --undefined-- 45.562
4.81 --undefined-- 44.140
4.82 --undefined-- 45.093
4.83 --undefined-- 46.507
4.84 --undefined-- 50.091
4.85 --undefined-- 59.614
4.86 162.938 66.365
4.87 149.926 70.137
4.88 143.828 71.897
4.89 142.191 72.372
4.90 140.828 71.809
4.91 141.645 71.365
4.92 156.115 73.380
4.93 160.244 75.778
4.94 164.291 76.730
4.95 164.485 76.326
4.96 162.026 74.250
4.97 163.119 70.136
4.98 163.911 65.217
4.99 164.666 61.376
5.00 165.187 58.754
5.01 --undefined-- 61.948
5.02 --undefined-- 68.324
5.03 160.058 73.256
5.04 150.612 75.734
5.05 143.772 76.314
5.06 140.401 --undefined--
5.07 138.506 --undefined--
5.08 --undefined-- --undefined--
5.09 --undefined-- --undefined--
