Time Pitch Intensity
0.01 --undefined-- --undefined--
0.02 --undefined-- --undefined--
0.03 --undefined-- --undefined--
0.04 --undefined-- --undefined--
0.05 --undefined-- 55.326
0.06 --undefined-- 52.106
0.07 --undefined-- 51.243
0.08 --undefined-- 50.212
0.09 --undefined-- 46.707
0.10 --undefined-- 41.799
0.11 --undefined-- 38.376
0.12 --undefined-- 36.512
0.13 --undefined-- 36.803
0.14 --undefined-- 38.469
0.15 --undefined-- 39.374
0.16 --undefined-- 38.564
0.17 --undefined-- 38.630
0.18 --undefined-- 49.868
0.19 --undefined-- 61.760
0.20 --undefined-- 69.548
0.21 163.512 73.718
0.22 155.635 75.572
0.23 150.990 76.373
0.24 149.120 76.603
0.25 147.534 76.546
0.26 146.763 76.778
0.27 147.052 77.273
0.28 149.238 77.258
0.29 154.064 76.263
0.30 155.466 74.564
0.31 155.084 72.674
0.32 154.599 70.718
0.33 152.940 68.289
0.34 232.793 64.727
0.35 248.821 59.604
0.36 --undefined-- 55.903
0.37 --undefined-- 61.583
0.38 --undefined-- 67.248
0.39 151.863 71.173
0.40 154.716 74.035
0.41 156.318 75.835
0.42 156.685 76.509
0.43 155.064 76.468
0.44 153.712 76.073
0.45 153.949 75.400
0.46 155.700 74.632
0.47 158.105 73.841
0.48 158.795 72.258
0.49 149.664 68.590
0.50 145.030 62.129
0.51 --undefined-- 54.315
0.52 --undefined-- 51.093
0.53 --undefined-- 58.759
0.54 209.313 67.548
0.55 193.565 72.943
0.56 185.376 75.611
0.57 180.444 76.523
0.58 177.259 76.651
0.59 176.151 76.729
0.60 177.233 76.835
0.61 178.192 76.728
0.62 180.636 76.355
0.63 183.546 75.659
0.64 185.101 74.825
0.65 184.520 74.340
0.66 182.531 73.943
0.67 180.477 72.981
0.68 179.097 71.228
0.69 175.175 69.101
0.70 171.495 67.365
0.71 167.449 65.974
0.72 156.159 64.719
0.73 145.677 64.092
0.74 138.999 64.444
0.75 132.612 65.657
0.76 125.740 67.495
0.77 121.365 69.555
0.78 119.220 71.245
0.79 116.228 72.082
0.80 112.937 71.930
0.81 108.331 70.891
0.82 101.889 69.186
0.83 94.367 67.317
0.84 91.432 65.713
0.85 93.742 64.323
0.86 93.586 62.693
0.87 85.196 61.371
0.88 102.215 62.856
0.89 102.700 65.121
0.90 104.399 66.516
0.91 104.000 67.078
0.92 103.405 67.174
0.93 107.411 67.373
0.94 109.275 67.417
0.95 99.427 66.309
0.96 93.255 64.115
0.97 85.845 61.827
0.98 75.855 59.694
0.99 87.472 60.345
1.00 107.666 63.859
1.01 124.505 66.690
1.02 118.938 68.249
1.03 117.985 68.817
1.04 119.082 69.234
1.05 120.988 70.052
1.06 124.561 70.732
1.07 129.180 70.715
1.08 133.888 69.589
1.09 132.984 66.792
1.10 124.076 62.273
1.11 124.208 58.445
1.12 143.062 62.161
1.13 145.779 68.515
1.14 145.419 72.707
1.15 138.957 74.713
1.16 132.357 75.301
1.17 125.544 75.230
1.18 121.314 74.869
1.19 118.385 74.300
1.20 115.677 73.552
1.21 113.009 72.389
1.22 112.351 70.136
1.23 114.515 66.632
1.24 112.938 62.662
1.25 113.023 59.671
1.26 114.656 58.230
1.27 116.817 57.968
1.28 119.032 58.569
1.29 122.107 60.362
1.30 127.012 63.197
1.31 131.796 66.533
1.32 135.969 69.645
1.33 139.624 72.024
1.34 142.102 73.756
1.35 143.292 75.008
1.36 143.255 75.741
1.37 141.889 75.811
1.38 140.073 75.313
1.39 139.189 74.473
1.40 138.738 73.583
1.41 136.666 72.775
1.42 131.901 71.588
1.43 126.370 69.514
1.44 122.810 66.804
1.45 116.995 64.502
1.46 112.422 63.358
1.47 107.289 63.126
1.48 101.713 63.772
1.49 102.440 65.045
1.50 102.659 66.030
1.51 103.070 66.585
1.52 103.288 66.911
1.53 103.931 67.158
1.54 107.031 67.395
1.55 104.792 67.524
1.56 107.453 67.745
1.57 109.261 68.330
1.58 110.155 68.821
1.59 110.374 68.575
1.60 107.392 67.564
1.61 106.722 67.090
1.62 111.255 67.570
1.63 113.507 67.660
1.64 113.777 66.856
1.65 113.472 65.183
1.66 116.105 62.551
1.67 --undefined-- 58.550
1.68 --undefined-- 53.531
1.69 --undefined-- 47.805
1.70 --undefined-- 41.497
1.71 --undefined-- 39.187
1.72 --undefined-- 39.996
1.73 --undefined-- 39.492
1.74 --undefined-- 36.616
1.75 --undefined-- 33.126
1.76 --undefined-- 35.049
1.77 --undefined-- 39.217
1.78 --undefined-- 46.898
1.79 --undefined-- 56.232
1.80 --undefined-- 62.629
1.81 127.444 66.236
1.82 122.518 68.057
1.83 120.636 69.238
1.84 118.189 70.307
1.85 118.354 71.192
1.86 119.957 71.728
1.87 121.502 71.882
1.88 121.473 71.670
1.89 120.594 70.752
1.90 118.191 68.402
1.91 116.950 64.108
1.92 119.902 58.323
1.93 --undefined-- 52.253
1.94 --undefined-- 47.211
1.95 --undefined-- 44.951
1.96 --undefined-- 43.340
1.97 --undefined-- 45.992
1.98 --undefined-- 54.932
1.99 --undefined-- 62.097
2.00 --undefined-- 67.396
2.01 137.224 70.656
2.02 132.450 71.801
2.03 126.223 71.522
2.04 123.044 70.737
2.05 122.313 70.133
2.06 122.079 69.839
2.07 124.176 69.846
2.08 123.732 70.026
2.09 122.929 70.224
2.10 122.739 70.401
2.11 122.892 70.499
2.12 123.968 70.480
2.13 125.822 70.416
2.14 127.348 70.368
2.15 128.021 70.364
2.16 128.109 70.451
2.17 127.144 70.547
2.18 124.784 70.165
2.19 122.557 68.604
2.20 115.787 65.206
2.21 114.686 59.644
2.22 --undefined-- 53.190
2.23 --undefined-- 49.745
2.24 --undefined-- 48.931
2.25 --undefined-- 48.264
2.26 --undefined-- 47.836
2.27 --undefined-- 51.170
2.28 --undefined-- 61.281
2.29 --undefined-- 68.763
2.30 162.347 73.082
2.31 154.226 75.184
2.32 150.130 75.615
2.33 146.877 74.483
2.34 141.501 72.286
2.35 141.143 71.134
2.36 143.431 71.451
2.37 143.772 71.793
2.38 142.956 71.844
2.39 139.999 71.388
2.40 136.435 70.291
2.41 132.105 68.636
2.42 127.478 67.313
2.43 127.974 68.406
2.44 128.955 70.657
2.45 127.483 71.947
2.46 121.161 72.076
2.47 116.605 71.435
2.48 114.012 70.364
2.49 114.569 69.117
2.50 113.104 67.902
2.51 112.942 66.763
2.52 109.211 66.253
2.53 112.387 66.849
2.54 112.827 67.843
2.55 111.955 68.544
2.56 108.871 68.534
2.57 100.431 67.759
2.58 99.943 66.769
2.59 99.953 65.949
2.60 99.118 65.262
2.61 100.275 64.862
2.62 103.021 64.757
2.63 104.355 64.850
2.64 105.098 65.158
2.65 104.590 65.115
2.66 103.394 63.902
2.67 100.914 60.886
2.68 100.168 56.060
2.69 --undefined-- 51.077
2.70 --undefined-- 48.546
2.71 --undefined-- 49.122
2.72 --undefined-- 56.666
2.73 --undefined-- 65.539
2.74 169.533 71.182
2.75 160.791 74.186
2.76 153.409 75.504
2.77 152.574 76.009
2.78 152.337 76.152
2.79 153.596 76.082
2.80 156.647 75.592
2.81 157.125 74.436
2.82 156.150 72.779
2.83 154.232 70.526
2.84 148.353 67.468
2.85 146.419 63.516
2.86 94.945 58.746
2.87 93.761 55.454
2.88 --undefined-- 53.514
2.89 --undefined-- 49.035
2.90 --undefined-- 42.511
2.91 --undefined-- 40.535
2.92 --undefined-- 40.705
2.93 --undefined-- 40.719
2.94 --undefined-- 40.515
2.95 --undefined-- 39.244
2.96 --undefined-- 37.323
2.97 --undefined-- 36.133
2.98 --undefined-- 36.598
2.99 --undefined-- 37.073
3.00 --undefined-- 37.311
3.01 --undefined-- 37.106
3.02 --undefined-- 37.295
3.03 --undefined-- 38.055
3.04 --undefined-- 38.094
3.05 --undefined-- 37.674
3.06 --undefined-- 37.254
3.07 --undefined-- 37.118
3.08 --undefined-- 37.238
3.09 --undefined-- 37.049
3.10 --undefined-- 37.078
3.11 --undefined-- 36.610
3.12 --undefined-- 35.190
3.13 --undefined-- 35.093
3.14 --undefined-- 35.755
3.15 --undefined-- 35.149
3.16 --undefined-- 34.072
3.17 --undefined-- 34.193
3.18 --undefined-- 36.439
3.19 --undefined-- 37.967
3.20 --undefined-- 37.990
3.21 --undefined-- 37.026
3.22 --undefined-- 35.142
3.23 --undefined-- 35.284
3.24 --undefined-- 38.405
3.25 --undefined-- 39.601
3.26 --undefined-- 38.315
3.27 --undefined-- 38.016
3.28 --undefined-- 39.950
3.29 --undefined-- 41.012
3.30 --undefined-- 39.926
3.31 --undefined-- 37.943
3.32 --undefined-- 38.252
3.33 --undefined-- 38.249
3.34 --undefined-- 37.784
3.35 --undefined-- 38.518
3.36 --undefined-- 38.495
3.37 --undefined-- 37.673
3.38 --undefined-- 38.069
3.39 --undefined-- 38.313
3.40 --undefined-- 37.996
3.41 --undefined-- 38.645
3.42 --undefined-- 39.609
3.43 --undefined-- 40.202
3.44 --undefined-- 40.784
3.45 --undefined-- 40.792
3.46 --undefined-- 39.583
3.47 --undefined-- 38.090
3.48 --undefined-- 37.810
3.49 --undefined-- 37.588
3.50 --undefined-- 38.685
3.51 --undefined-- 40.745
3.52 --undefined-- 40.287
3.53 --undefined-- 38.608
3.54 --undefined-- 39.742
3.55 --undefined-- 40.815
3.56 --undefined-- 40.016
3.57 --undefined-- 40.704
3.58 --undefined-- 50.036
3.59 --undefined-- 58.243
3.60 --undefined-- 64.346
3.61 149.617 69.578
3.62 145.555 73.324
3.63 140.359 75.452
3.64 141.521 76.392
3.65 144.829 76.653
3.66 150.324 76.412
3.67 153.300 75.175
3.68 159.679 73.207
3.69 176.213 72.263
3.70 186.147 72.277
3.71 192.018 72.312
3.72 199.656 72.329
3.73 207.696 72.477
3.74 214.134 72.842
3.75 219.942 73.283
3.76 224.526 73.728
3.77 226.676 74.130
3.78 223.986 74.145
3.79 218.861 73.503
3.80 212.651 72.420
3.81 205.246 71.788
3.82 198.933 72.985
3.83 195.941 75.549
3.84 191.775 77.138
3.85 178.264 77.161
3.86 163.499 76.925
3.87 157.554 76.681
3.88 150.026 75.203
3.89 143.723 71.660
3.90 --undefined-- 65.490
3.91 --undefined-- 57.216
3.92 --undefined-- 50.591
3.93 --undefined-- 47.346
3.94 --undefined-- 45.132
3.95 --undefined-- 43.603
3.96 --undefined-- 51.986
3.97 --undefined-- 60.697
3.98 --undefined-- 65.861
3.99 131.654 68.494
4.00 130.677 69.784
4.01 125.473 70.454
4.02 123.752 70.833
4.03 123.245 71.271
4.04 123.177 71.725
4.05 124.098 71.970
4.06 126.059 72.135
4.07 128.964 72.414
4.08 131.930 72.464
4.09 134.234 71.890
4.10 135.524 71.450
4.11 142.131 71.939
4.12 143.548 72.525
4.13 143.926 72.718
4.14 144.208 72.384
4.15 142.458 71.293
4.16 139.514 69.020
4.17 138.839 65.108
4.18 --undefined-- 59.589
4.19 --undefined-- 56.830
4.20 --undefined-- 56.984
4.21 --undefined-- 56.963
4.22 --undefined-- 56.798
4.23 --undefined-- 58.581
4.24 149.164 64.381
4.25 144.452 68.944
4.26 137.332 71.143
4.27 136.078 71.889
4.28 135.172 71.993
4.29 136.325 71.258
4.30 138.831 68.887
4.31 131.055 64.225
4.32 128.934 61.143
4.33 181.149 67.432
4.34 181.078 72.588
4.35 179.118 75.008
4.36 176.805 75.087
4.37 173.790 73.071
4.38 166.211 68.650
4.39 146.913 61.292
4.40 --undefined-- 53.501
4.41 --undefined-- 48.835
4.42 --undefined-- 44.169
4.43 --undefined-- 40.624
4.44 --undefined-- 42.583
4.45 --undefined-- 48.813
4.46 --undefined-- 56.598
4.47 185.238 63.625
4.48 154.717 68.235
4.49 143.073 70.803
4.50 138.036 71.895
4.51 132.239 71.967
4.52 129.465 71.661
4.53 128.595 71.798
4.54 127.974 72.218
4.55 127.698 72.186
4.56 127.018 71.713
4.57 123.486 71.154
4.58 125.712 70.726
4.59 126.057 70.413
4.60 126.216 70.210
4.61 125.621 69.940
4.62 124.471 69.223
4.63 121.435 67.675
4.64 114.590 64.764
4.65 110.371 60.607
4.66 --undefined-- 60.635
4.67 --undefined-- 66.624
4.68 --undefined-- 70.970
4.69 134.496 72.988
4.70 127.390 73.672
4.71 125.264 73.895
4.72 123.900 73.715
4.73 122.408 73.557
4.74 121.558 73.809
4.75 121.140 74.104
4.76 120.313 74.113
4.77 119.746 73.576
4.78 119.204 72.055
4.79 117.177 69.395
4.80 115.167 65.985
4.81 102.310 61.943
4.82 88.597 57.522
4.83 --undefined-- 53.605
4.84 --undefined-- 51.452
4.85 --undefined-- 51.328
4.86 --undefined-- 51.499
4.87 --undefined-- 50.693
4.88 --undefined-- 51.691
4.89 --undefined-- 59.020
4.90 118.913 64.996
4.91 117.151 68.435
4.92 114.538 69.938
4.93 108.524 70.417
4.94 111.141 70.906
4.95 113.131 71.679
4.96 116.512 72.610
4.97 125.762 73.499
4.98 131.068 74.162
4.99 138.547 74.921
5.00 143.969 75.449
5.01 148.708 74.745
5.02 150.529 72.656
5.03 144.353 69.127
5.04 139.032 63.628
5.05 --undefined-- 56.189
5.06 --undefined-- 49.268
5.07 --undefined-- 46.137
5.08 --undefined-- 44.357
5.09 --undefined-- 44.797
5.10 --undefined-- 49.904
5.11 --undefined-- 59.511
5.12 --undefined-- 66.322
5.13 127.361 69.884
5.14 118.173 71.287
5.15 114.313 71.586
5.16 112.563 71.583
5.17 112.615 71.689
5.18 113.622 72.102
5.19 114.763 72.215
5.20 118.167 71.970
5.21 121.149 71.984
5.22 123.579 71.952
5.23 126.370 71.495
5.24 128.336 70.668
5.25 129.347 69.277
5.26 129.209 67.165
5.27 129.407 64.840
5.28 130.406 63.320
5.29 132.248 63.150
5.30 135.830 64.133
5.31 140.589 66.095
5.32 144.155 68.492
5.33 147.038 70.711
5.34 149.703 72.362
5.35 151.888 73.393
5.36 152.244 73.938
5.37 151.065 74.179
5.38 148.368 74.219
5.39 146.120 74.228
5.40 142.007 74.170
5.41 136.624 73.638
5.42 130.751 72.130
5.43 125.428 69.813
5.44 121.476 68.291
5.45 117.946 68.126
5.46 118.628 69.107
5.47 120.612 70.653
5.48 121.332 71.827
5.49 121.578 72.177
5.50 119.656 71.765
5.51 117.432 70.860
5.52 113.414 69.580
5.53 111.493 68.343
5.54 112.861 67.791
5.55 114.870 67.851
5.56 115.876 67.959
5.57 114.682 67.725
5.58 112.289 67.145
5.59 108.389 66.472
5.60 106.973 66.705
5.61 113.037 68.485
5.62 114.044 69.915
5.63 111.683 70.174
5.64 112.013 69.487
5.65 109.647 68.121
5.66 108.498 66.336
5.67 104.409 64.194
5.68 101.481 61.653
5.69 --undefined-- 57.815
5.70 --undefined-- 52.041
5.71 --undefined-- 46.823
5.72 --undefined-- 42.273
5.73 --undefined-- 39.444
5.74 --undefined-- 37.760
5.75 --undefined-- 37.922
5.76 --undefined-- 37.818
5.77 --undefined-- 36.224
5.78 --undefined-- 34.515
5.79 --undefined-- 34.565
5.80 --undefined-- 36.327
5.81 --undefined-- 37.498
5.82 --undefined-- 39.114
5.83 --undefined-- 47.165
5.84 --undefined-- 55.731
5.85 125.407 61.637
5.86 109.574 64.870
5.87 111.307 66.362
5.88 110.955 67.133
5.89 107.910 67.758
5.90 107.932 68.274
5.91 109.578 68.352
5.92 111.000 67.264
5.93 110.590 64.035
5.94 97.324 58.513
5.95 --undefined-- 52.393
5.96 --undefined-- 46.938
5.97 --undefined-- 41.798
5.98 --undefined-- 39.613
5.99 --undefined-- 36.903
6.00 --undefined-- 38.398
6.01 --undefined-- 50.999
6.02 --undefined-- 61.218
6.03 184.981 67.859
6.04 152.814 71.632
6.05 143.193 73.469
6.06 137.342 74.214
6.07 135.309 74.406
6.08 134.836 --undefined--
6.09 134.428 --undefined--
6.10 --undefined-- --undefined--
6.11 --undefined-- --undefined--
