Time Pitch Intensity
0.01 --undefined-- --undefined--
0.02 136.259 --undefined--
0.03 134.828 --undefined--
0.04 133.215 --undefined--
0.05 114.099 69.111
0.06 112.749 61.468
0.07 --undefined-- 52.586
0.08 --undefined-- 44.846
0.09 --undefined-- 45.176
0.10 --undefined-- 51.614
0.11 --undefined-- 54.227
0.12 --undefined-- 52.617
0.13 --undefined-- 49.187
0.14 --undefined-- 51.165
0.15 --undefined-- 54.822
0.16 --undefined-- 57.907
0.17 --undefined-- 59.797
0.18 --undefined-- 60.017
0.19 --undefined-- 58.479
0.20 --undefined-- 54.948
0.21 --undefined-- 50.744
0.22 --undefined-- 53.005
0.23 117.915 57.596
0.24 116.786 60.158
0.25 112.647 61.071
0.26 111.544 61.331
0.27 111.204 61.350
0.28 109.373 60.934
0.29 106.833 59.962
0.30 105.916 58.742
0.31 104.281 57.110
0.32 101.140 55.699
0.33 102.598 54.743
0.34 --undefined-- 53.196
0.35 --undefined-- 49.646
0.36 --undefined-- 44.426
0.37 --undefined-- 41.768
0.38 --undefined-- 41.995
0.39 --undefined-- 42.832
0.40 --undefined-- 49.141
0.41 --undefined-- 60.230
0.42 --undefined-- 67.534
0.43 --undefined-- 71.322
0.44 --undefined-- 72.919
0.45 --undefined-- 73.677
0.46 119.134 74.186
0.47 117.539 74.089
0.48 119.169 73.186
0.49 120.302 72.001
0.50 120.931 70.214
0.51 119.913 66.868
0.52 --undefined-- 61.577
0.53 --undefined-- 55.720
0.54 --undefined-- 52.345
0.55 --undefined-- 50.247
0.56 --undefined-- 47.692
0.57 --undefined-- 45.001
0.58 --undefined-- 44.041
0.59 --undefined-- 45.296
0.60 --undefined-- 47.801
0.61 --undefined-- 50.513
0.62 --undefined-- 58.250
0.63 --undefined-- 67.144
0.64 150.772 72.991
0.65 147.374 76.138
0.66 146.039 77.007
0.67 145.222 76.210
0.68 143.878 74.823
0.69 142.652 72.860
0.70 141.589 70.062
0.71 140.630 67.844
0.72 139.160 66.989
0.73 138.150 66.497
0.74 137.115 65.979
0.75 136.869 65.225
0.76 136.061 64.197
0.77 135.342 63.271
0.78 134.300 62.643
0.79 133.158 62.219
0.80 131.683 61.869
0.81 129.531 61.320
0.82 126.462 60.326
0.83 123.186 58.910
0.84 121.180 57.793
0.85 120.802 59.312
0.86 121.548 63.124
0.87 122.479 66.207
0.88 123.199 67.827
0.89 123.103 68.039
0.90 121.287 66.896
0.91 119.736 64.622
0.92 120.369 62.267
0.93 121.332 61.353
0.94 123.655 63.912
0.95 128.347 68.311
0.96 130.876 71.362
0.97 131.000 72.820
0.98 131.415 72.999
0.99 131.202 72.158
1.00 130.333 69.847
1.01 --undefined-- 65.135
1.02 --undefined-- 57.671
1.03 --undefined-- 51.938
1.04 --undefined-- 52.109
1.05 --undefined-- 56.176
1.06 --undefined-- 58.533
1.07 --undefined-- 57.235
1.08 --undefined-- 52.707
1.09 --undefined-- 52.031
1.10 117.998 56.956
1.11 115.472 60.538
1.12 111.127 62.368
1.13 109.268 62.889
1.14 104.228 62.626
1.15 103.109 61.517
1.16 100.316 59.160
1.17 98.668 55.822
1.18 --undefined-- 51.828
1.19 --undefined-- 46.879
1.20 --undefined-- 41.988
1.21 --undefined-- 40.435
1.22 --undefined-- 42.396
1.23 --undefined-- 49.582
1.24 --undefined-- 58.022
1.25 115.196 64.218
1.26 112.957 68.161
1.27 111.334 70.369
1.28 108.017 71.141
1.29 106.584 70.485
1.30 105.701 69.147
1.31 105.874 68.405
1.32 105.659 67.766
1.33 104.495 66.064
1.34 --undefined-- 62.336
1.35 --undefined-- 56.126
1.36 --undefined-- 49.134
1.37 --undefined-- 45.953
1.38 --undefined-- 44.489
1.39 --undefined-- 42.119
1.40 --undefined-- 39.277
1.41 --undefined-- 45.253
1.42 --undefined-- 53.819
1.43 --undefined-- 59.328
1.44 --undefined-- 62.627
1.45 108.150 63.811
1.46 108.032 63.398
1.47 112.068 63.206
1.48 110.920 63.173
1.49 117.662 62.394
1.50 122.149 61.319
1.51 126.131 60.623
1.52 127.811 60.343
1.53 128.115 59.858
1.54 131.161 58.923
1.55 132.172 58.529
1.56 132.090 59.115
1.57 131.000 59.971
1.58 129.040 61.103
1.59 126.490 62.470
1.60 123.824 63.422
1.61 121.247 63.840
1.62 118.501 64.721
1.63 116.522 66.514
1.64 115.940 68.292
1.65 115.398 69.617
1.66 114.414 70.591
1.67 113.854 70.728
1.68 112.818 69.172
1.69 --undefined-- 65.057
1.70 --undefined-- 57.786
1.71 --undefined-- 52.166
1.72 --undefined-- 55.565
1.73 100.895 58.749
1.74 106.241 61.062
1.75 103.689 62.420
1.76 102.578 62.461
1.77 102.468 61.682
1.78 102.101 60.004
1.79 101.946 57.920
1.80 99.372 55.582
1.81 --undefined-- 52.673
1.82 --undefined-- 49.956
1.83 --undefined-- 49.554
1.84 --undefined-- 51.961
1.85 --undefined-- 54.603
1.86 --undefined-- 56.762
1.87 --undefined-- 58.254
1.88 --undefined-- 58.793
1.89 --undefined-- 59.321
1.90 113.511 61.932
1.91 111.033 64.732
1.92 107.930 66.185
1.93 105.221 66.409
1.94 103.180 66.123
1.95 103.522 65.768
1.96 104.084 65.355
1.97 105.724 64.651
1.98 108.032 63.627
1.99 111.929 62.241
2.00 115.202 60.796
2.01 119.195 60.417
2.02 120.706 60.948
2.03 121.958 61.743
2.04 122.936 62.335
2.05 122.152 61.477
2.06 117.582 58.732
2.07 --undefined-- 54.449
2.08 --undefined-- 48.253
2.09 --undefined-- 42.251
2.10 --undefined-- 48.020
2.11 --undefined-- 56.827
2.12 --undefined-- 62.869
2.13 112.480 66.138
2.14 109.556 67.233
2.15 103.624 66.437
2.16 102.318 63.933
2.17 99.174 60.079
2.18 100.212 56.532
2.19 102.185 56.000
2.20 103.336 56.697
2.21 103.761 57.241
2.22 103.677 56.974
2.23 102.522 55.103
2.24 --undefined-- 51.085
2.25 --undefined-- 45.106
2.26 --undefined-- 40.296
2.27 --undefined-- 42.651
2.28 --undefined-- 50.285
2.29 --undefined-- 59.254
2.30 134.809 65.413
2.31 130.943 68.459
2.32 128.376 68.830
2.33 125.726 67.135
2.34 124.867 64.400
2.35 122.938 62.065
2.36 124.327 60.703
2.37 124.513 59.210
2.38 123.107 56.927
2.39 121.687 54.433
2.40 --undefined-- 51.407
2.41 --undefined-- 47.138
2.42 --undefined-- 42.002
2.43 --undefined-- 37.250
2.44 --undefined-- 33.629
2.45 --undefined-- 32.388
2.46 --undefined-- 43.063
2.47 --undefined-- 56.166
2.48 --undefined-- 63.495
2.49 --undefined-- 67.046
2.50 --undefined-- 69.682
2.51 --undefined-- 72.330
2.52 --undefined-- 73.504
2.53 105.048 72.816
2.54 104.269 70.867
2.55 103.842 68.519
2.56 102.037 65.535
2.57 100.840 61.760
2.58 101.293 58.953
2.59 100.802 57.973
2.60 99.847 57.320
2.61 99.631 56.679
2.62 99.832 56.179
2.63 100.520 55.881
2.64 101.680 56.123
2.65 102.936 56.579
2.66 104.186 57.665
2.67 104.626 59.387
2.68 104.557 60.662
2.69 104.476 61.290
2.70 105.053 61.532
2.71 104.996 60.829
2.72 103.849 58.341
2.73 --undefined-- 53.719
2.74 --undefined-- 47.798
2.75 --undefined-- 45.051
2.76 --undefined-- 46.590
2.77 --undefined-- 49.082
2.78 --undefined-- 51.682
2.79 --undefined-- 53.865
2.80 --undefined-- 55.171
2.81 --undefined-- 55.078
2.82 --undefined-- 53.373
2.83 --undefined-- 52.040
2.84 --undefined-- 53.292
2.85 --undefined-- 56.370
2.86 129.121 61.971
2.87 127.924 67.490
2.88 125.822 71.217
2.89 124.127 73.351
2.90 123.194 74.589
2.91 122.576 75.686
2.92 122.720 76.672
2.93 122.335 76.951
2.94 121.064 76.551
2.95 120.199 76.191
2.96 119.874 76.237
2.97 119.809 76.459
2.98 120.428 76.838
2.99 120.044 77.163
3.00 119.026 77.108
3.01 117.257 76.785
3.02 114.904 76.210
3.03 112.389 75.264
3.04 109.612 73.811
3.05 106.213 71.792
3.06 103.043 69.651
3.07 100.222 67.626
3.08 98.669 65.228
3.09 98.884 62.253
3.10 99.901 58.832
3.11 99.563 55.336
3.12 --undefined-- 52.245
3.13 --undefined-- 51.061
3.14 --undefined-- 51.956
3.15 --undefined-- 52.826
3.16 --undefined-- 53.286
3.17 --undefined-- 54.053
3.18 --undefined-- 54.992
3.19 --undefined-- 55.281
3.20 --undefined-- 55.056
3.21 --undefined-- 54.537
3.22 --undefined-- 54.364
3.23 --undefined-- 54.747
3.24 --undefined-- 55.253
3.25 --undefined-- 54.466
3.26 --undefined-- 51.161
3.27 --undefined-- 45.521
3.28 --undefined-- 38.842
3.29 --undefined-- 34.790
3.30 --undefined-- 37.266
3.31 --undefined-- 44.663
3.32 --undefined-- 55.630
3.33 --undefined-- 63.956
3.34 --undefined-- 69.148
3.35 109.666 71.722
3.36 107.418 72.398
3.37 105.865 72.166
3.38 105.388 71.642
3.39 105.105 70.710
3.40 104.658 69.753
3.41 103.993 69.235
3.42 103.020 68.723
3.43 102.234 68.040
3.44 102.109 67.393
3.45 101.842 67.167
3.46 100.791 66.951
3.47 100.404 66.250
3.48 99.830 65.318
3.49 99.683 64.153
3.50 99.961 62.231
3.51 100.103 59.250
3.52 99.924 55.378
3.53 100.048 51.081
3.54 --undefined-- 46.841
3.55 --undefined-- 43.237
3.56 --undefined-- 41.644
3.57 --undefined-- 42.277
3.58 --undefined-- 44.705
3.59 --undefined-- 46.787
3.60 --undefined-- 46.989
3.61 --undefined-- 45.397
3.62 --undefined-- 42.460
3.63 --undefined-- 39.351
3.64 --undefined-- 37.602
3.65 --undefined-- 42.851
3.66 --undefined-- 51.731
3.67 --undefined-- 59.660
3.68 --undefined-- 66.683
3.69 174.490 71.496
3.70 175.345 73.904
3.71 176.320 74.138
3.72 176.556 72.366
3.73 177.032 68.413
3.74 181.215 62.537
3.75 181.946 59.280
3.76 181.100 59.794
3.77 180.022 60.059
3.78 178.141 59.895
3.79 175.559 59.794
3.80 171.493 61.361
3.81 --undefined-- 65.208
3.82 158.834 68.012
3.83 152.841 68.918
3.84 147.874 68.586
3.85 141.933 67.563
3.86 137.730 65.852
3.87 134.976 62.913
3.88 --undefined-- 58.139
3.89 --undefined-- 51.836
3.90 --undefined-- 45.815
3.91 --undefined-- 40.698
3.92 --undefined-- 36.278
3.93 --undefined-- 34.259
3.94 --undefined-- 33.876
3.95 --undefined-- 34.766
3.96 --undefined-- 36.542
3.97 --undefined-- 37.548
3.98 --undefined-- 38.166
3.99 --undefined-- 38.732
4.00 --undefined-- 38.357
4.01 --undefined-- 36.684
4.02 --undefined-- 35.934
4.03 --undefined-- 37.260
4.04 --undefined-- 39.144
4.05 --undefined-- 41.460
4.06 --undefined-- 44.110
4.07 --undefined-- 46.978
4.08 --undefined-- 49.795
4.09 --undefined-- 51.365
4.10 --undefined-- 50.645
4.11 --undefined-- 47.502
4.12 --undefined-- 43.748
4.13 --undefined-- 41.989
4.14 --undefined-- 40.809
4.15 --undefined-- 42.372
4.16 --undefined-- 47.783
4.17 --undefined-- 52.087
4.18 --undefined-- 56.702
4.19 --undefined-- 61.583
4.20 154.607 64.776
4.21 153.094 66.392
4.22 153.096 66.915
4.23 153.431 66.853
4.24 154.031 66.405
4.25 155.709 65.080
4.26 156.853 63.131
4.27 159.264 62.324
4.28 160.022 62.706
4.29 159.622 62.975
4.30 158.116 63.026
4.31 154.533 62.994
4.32 148.739 63.057
4.33 144.481 62.997
4.34 139.398 61.838
4.35 132.601 59.072
4.36 --undefined-- 56.565
4.37 --undefined-- 55.462
4.38 --undefined-- 52.764
4.39 --undefined-- 48.890
4.40 --undefined-- 47.736
4.41 --undefined-- 50.294
4.42 --undefined-- 58.387
4.43 131.792 65.358
4.44 130.308 69.348
4.45 127.316 70.822
4.46 123.473 70.554
4.47 117.229 69.637
4.48 114.108 68.292
4.49 113.013 66.060
4.50 112.138 63.344
4.51 111.382 61.495
4.52 110.595 60.644
4.53 110.741 59.656
4.54 110.241 58.105
4.55 108.598 55.784
4.56 --undefined-- 52.125
4.57 --undefined-- 47.162
4.58 --undefined-- 43.012
4.59 --undefined-- 41.985
4.60 --undefined-- 47.438
4.61 --undefined-- 57.786
4.62 --undefined-- 64.280
4.63 --undefined-- 67.674
4.64 --undefined-- 69.468
4.65 --undefined-- 69.236
4.66 --undefined-- 67.359
4.67 106.420 66.530
4.68 104.758 66.652
4.69 105.856 66.653
4.70 106.448 65.882
4.71 106.269 64.025
4.72 101.272 60.841
4.73 --undefined-- 55.602
4.74 --undefined-- 48.464
4.75 --undefined-- 42.707
4.76 --undefined-- 40.385
4.77 --undefined-- 43.364
4.78 --undefined-- 53.669
4.79 --undefined-- 60.829
4.80 --undefined-- 63.671
4.81 --undefined-- 64.151
4.82 --undefined-- 65.985
4.83 --undefined-- 66.989
4.84 87.318 65.650
4.85 86.584 63.649
4.86 94.031 62.944
4.87 103.949 64.531
4.88 104.195 66.160
4.89 103.667 66.722
4.90 102.844 66.634
4.91 103.885 65.768
4.92 105.902 64.154
4.93 110.465 62.279
4.94 116.249 60.434
4.95 122.100 58.979
4.96 126.112 58.039
4.97 128.166 56.757
4.98 128.111 55.855
4.99 128.046 57.235
5.00 129.993 59.841
5.01 129.132 62.952
5.02 126.874 66.484
5.03 127.727 69.489
5.04 127.445 70.933
5.05 123.526 70.887
5.06 118.648 70.323
5.07 114.878 70.500
5.08 --undefined-- 71.189
5.09 --undefined-- 69.693
5.10 --undefined-- 64.600
5.11 --undefined-- 57.374
5.12 --undefined-- 53.149
5.13 --undefined-- 51.878
5.14 --undefined-- 51.190
5.15 --undefined-- 50.558
5.16 --undefined-- 53.973
5.17 --undefined-- 61.944
5.18 --undefined-- 67.047
5.19 --undefined-- 69.304
5.20 --undefined-- 70.378
5.21 --undefined-- 69.912
5.22 --undefined-- 68.346
5.23 --undefined-- 66.497
5.24 --undefined-- 64.798
5.25 --undefined-- 63.195
5.26 --undefined-- 60.002
5.27 --undefined-- 56.336
5.28 --undefined-- 53.982
5.29 --undefined-- 51.590
5.30 --undefined-- 48.859
5.31 --undefined-- 46.629
5.32 --undefined-- 44.965
5.33 --undefined-- 43.350
5.34 --undefined-- 41.375
5.35 --undefined-- 40.125
5.36 --undefined-- 40.652
5.37 --undefined-- 41.033
5.38 --undefined-- 41.052
5.39 --undefined-- 41.345
5.40 --undefined-- 41.467
5.41 --undefined-- 41.497
5.42 --undefined-- 41.270
5.43 --undefined-- 41.107
5.44 --undefined-- 42.156
5.45 --undefined-- 43.163
5.46 --undefined-- 43.040
5.47 --undefined-- 42.036
5.48 --undefined-- 40.936
5.49 --undefined-- 41.826
5.50 --undefined-- 42.906
5.51 --undefined-- 42.900
5.52 --undefined-- 42.059
5.53 --undefined-- 41.973
5.54 --undefined-- 43.820
5.55 --undefined-- 45.398
5.56 --undefined-- 45.404
5.57 --undefined-- 43.976
5.58 --undefined-- 42.218
5.59 --undefined-- 41.634
5.60 --undefined-- 42.540
5.61 --undefined-- 43.382
5.62 --undefined-- 42.968
5.63 --undefined-- 41.726
5.64 --undefined-- 41.691
5.65 --undefined-- 41.399
5.66 --undefined-- 39.899
5.67 --undefined-- 38.854
5.68 --undefined-- 39.735
5.69 --undefined-- 40.786
5.70 --undefined-- 41.155
5.71 --undefined-- 41.296
5.72 --undefined-- 40.960
5.73 --undefined-- 42.201
5.74 --undefined-- 43.568
5.75 --undefined-- 43.145
5.76 --undefined-- 41.224
5.77 --undefined-- 39.729
5.78 --undefined-- 43.708
5.79 --undefined-- 54.401
5.80 --undefined-- 61.987
5.81 --undefined-- 67.012
5.82 --undefined-- 69.880
5.83 --undefined-- 71.245
5.84 --undefined-- 72.015
5.85 --undefined-- 72.436
5.86 --undefined-- 72.476
5.87 --undefined-- --undefined--
5.88 120.965 --undefined--
5.89 --undefined-- --undefined--
5.90 --undefined-- --undefined--
