Time Pitch Intensity
0.01 --undefined-- --undefined--
0.02 108.434 --undefined--
0.03 106.847 --undefined--
0.04 105.905 --undefined--
0.05 106.394 69.046
0.06 107.556 69.043
0.07 109.389 69.040
0.08 107.630 68.843
0.09 108.542 68.681
0.10 110.385 68.383
0.11 109.531 67.540
0.12 106.338 66.088
0.13 104.279 65.233
0.14 114.802 67.311
0.15 117.008 69.994
0.16 117.648 71.584
0.17 117.494 71.895
0.18 115.072 70.899
0.19 113.062 68.609
0.20 112.075 64.598
0.21 --undefined-- 58.608
0.22 --undefined-- 51.988
0.23 --undefined-- 48.255
0.24 --undefined-- 47.117
0.25 --undefined-- 48.890
0.26 --undefined-- 57.157
0.27 --undefined-- 63.963
0.28 120.679 67.549
0.29 115.099 69.047
0.30 112.740 69.825
0.31 111.311 70.386
0.32 111.042 70.909
0.33 113.656 71.864
0.34 118.587 72.998
0.35 121.416 73.392
0.36 127.644 73.420
0.37 131.916 73.943
0.38 134.811 73.912
0.39 137.158 72.604
0.40 135.610 70.942
0.41 135.059 70.807
0.42 136.555 72.534
0.43 136.882 74.274
0.44 133.230 75.247
0.45 129.431 75.670
0.46 124.389 75.355
0.47 120.710 74.571
0.48 119.157 74.188
0.49 118.731 74.124
0.50 115.365 73.426
0.51 115.932 71.414
0.52 114.774 68.498
0.53 --undefined-- 65.595
0.54 --undefined-- 62.930
0.55 --undefined-- 59.207
0.56 --undefined-- 54.267
0.57 --undefined-- 49.863
0.58 --undefined-- 44.901
0.59 --undefined-- 41.434
0.60 --undefined-- 40.312
0.61 --undefined-- 39.994
0.62 --undefined-- 40.020
0.63 --undefined-- 39.760
0.64 --undefined-- 39.725
0.65 --undefined-- 40.291
0.66 --undefined-- 40.351
0.67 --undefined-- 39.905
0.68 --undefined-- 39.937
0.69 --undefined-- 40.622
0.70 --undefined-- 41.555
0.71 --undefined-- 42.328
0.72 --undefined-- 42.818
0.73 --undefined-- 43.010
0.74 --undefined-- 43.199
0.75 --undefined-- 43.712
0.76 --undefined-- 43.973
0.77 --undefined-- 43.932
0.78 --undefined-- 43.814
0.79 --undefined-- 43.216
0.80 --undefined-- 41.709
0.81 --undefined-- 39.744
0.82 --undefined-- 38.337
0.83 --undefined-- 38.453
0.84 --undefined-- 39.757
0.85 --undefined-- 40.248
0.86 --undefined-- 38.946
0.87 --undefined-- 36.063
0.88 --undefined-- 33.853
0.89 --undefined-- 35.756
0.90 --undefined-- 47.252
0.91 --undefined-- 57.064
0.92 --undefined-- 63.520
0.93 137.472 68.096
0.94 132.243 71.512
0.95 131.264 73.928
0.96 133.589 75.648
0.97 134.917 76.980
0.98 135.583 78.025
0.99 135.621 78.550
1.00 137.398 78.371
1.01 141.869 77.816
1.02 145.324 77.494
1.03 149.524 76.875
1.04 155.986 75.058
1.05 164.885 73.235
1.06 175.404 74.719
1.07 188.695 77.682
1.08 193.690 79.224
1.09 183.116 79.247
1.10 177.655 79.077
1.11 171.060 78.286
1.12 166.963 75.582
1.13 --undefined-- 70.173
1.14 --undefined-- 61.570
1.15 --undefined-- 52.485
1.16 --undefined-- 47.531
1.17 --undefined-- 43.942
1.18 --undefined-- 40.965
1.19 --undefined-- 42.936
1.20 --undefined-- 51.490
1.21 --undefined-- 57.179
1.22 --undefined-- 58.961
1.23 --undefined-- 57.601
1.24 --undefined-- 54.950
1.25 --undefined-- 53.273
1.26 --undefined-- 55.407
1.27 --undefined-- 61.530
1.28 --undefined-- 65.640
1.29 109.629 66.883
1.30 104.537 66.676
1.31 112.868 66.628
1.32 94.383 66.652
1.33 98.018 66.938
1.34 97.424 67.393
1.35 97.075 67.494
1.36 97.519 67.399
1.37 99.156 67.312
1.38 100.553 67.067
1.39 102.310 66.329
1.40 103.009 64.458
1.41 98.900 60.590
1.42 --undefined-- 54.159
1.43 --undefined-- 46.462
1.44 --undefined-- 44.278
1.45 --undefined-- 47.692
1.46 --undefined-- 58.320
1.47 --undefined-- 67.105
1.48 164.768 72.594
1.49 153.077 75.723
1.50 149.232 77.264
1.51 146.315 77.569
1.52 145.645 77.160
1.53 144.750 76.559
1.54 144.225 75.902
1.55 143.449 75.208
1.56 143.481 74.741
1.57 149.438 74.566
1.58 151.637 74.114
1.59 151.595 72.726
1.60 146.856 69.947
1.61 138.722 65.533
1.62 137.854 59.560
1.63 --undefined-- 52.404
1.64 --undefined-- 46.521
1.65 --undefined-- 52.908
1.66 --undefined-- 60.495
1.67 --undefined-- 66.434
1.68 164.514 71.292
1.69 154.504 74.560
1.70 147.653 76.246
1.71 143.904 76.748
1.72 141.108 76.346
1.73 139.672 75.299
1.74 142.660 74.568
1.75 144.968 74.771
1.76 144.963 75.023
1.77 144.271 74.986
1.78 143.709 74.817
1.79 142.742 74.571
1.80 141.267 74.104
1.81 137.410 73.166
1.82 131.784 71.739
1.83 124.186 70.312
1.84 117.012 69.641
1.85 115.642 70.071
1.86 109.996 70.647
1.87 107.312 70.288
1.88 103.260 69.558
1.89 101.792 69.237
1.90 99.833 68.995
1.91 99.883 68.712
1.92 100.847 68.617
1.93 101.667 68.998
1.94 103.556 69.675
1.95 107.562 70.569
1.96 108.904 71.373
1.97 111.498 71.461
1.98 116.615 71.167
1.99 117.950 71.237
2.00 122.427 71.423
2.01 123.539 71.151
2.02 124.491 70.246
2.03 123.708 69.025
2.04 120.671 67.959
2.05 142.923 67.063
2.06 149.628 65.995
2.07 152.232 64.236
2.08 160.224 60.782
2.09 --undefined-- 56.209
2.10 --undefined-- 53.477
2.11 --undefined-- 50.616
2.12 --undefined-- 45.679
2.13 --undefined-- 41.134
2.14 --undefined-- 39.241
2.15 --undefined-- 37.948
2.16 --undefined-- 36.971
2.17 --undefined-- 34.677
2.18 --undefined-- 33.093
2.19 --undefined-- 35.032
2.20 --undefined-- 38.656
2.21 --undefined-- 49.407
2.22 --undefined-- 58.757
2.23 170.075 64.891
2.24 154.533 69.475
2.25 151.106 73.862
2.26 152.641 77.280
2.27 154.876 79.116
2.28 156.912 79.606
2.29 159.455 79.283
2.30 162.768 79.140
2.31 165.067 79.328
2.32 170.082 78.867
2.33 172.524 77.646
2.34 170.380 75.598
2.35 167.478 71.860
2.36 146.409 66.100
2.37 148.610 59.818
2.38 --undefined-- 53.954
2.39 --undefined-- 47.456
2.40 --undefined-- 44.020
2.41 --undefined-- 51.799
2.42 --undefined-- 59.323
2.43 --undefined-- 64.441
2.44 160.624 69.116
2.45 148.487 72.780
2.46 140.856 74.507
2.47 126.714 74.477
2.48 125.293 73.771
2.49 126.237 73.446
2.50 128.019 73.777
2.51 132.779 74.526
2.52 138.152 74.948
2.53 144.506 75.120
2.54 148.934 75.454
2.55 155.046 75.278
2.56 165.925 74.051
2.57 176.949 72.295
2.58 177.166 70.115
2.59 162.933 66.360
2.60 148.143 60.604
2.61 --undefined-- 53.844
2.62 --undefined-- 49.367
2.63 --undefined-- 52.654
2.64 --undefined-- 56.486
2.65 --undefined-- 57.962
2.66 --undefined-- 57.032
2.67 --undefined-- 55.274
2.68 --undefined-- 58.987
2.69 220.733 66.719
2.70 199.345 71.558
2.71 186.400 73.489
2.72 180.639 73.510
2.73 178.509 72.665
2.74 178.289 71.758
2.75 177.139 71.738
2.76 179.701 72.384
2.77 180.134 72.696
2.78 178.910 72.451
2.79 175.518 71.626
2.80 169.379 69.986
2.81 160.942 67.086
2.82 150.190 62.642
2.83 153.612 56.835
2.84 --undefined-- 49.932
2.85 --undefined-- 46.171
2.86 --undefined-- 49.536
2.87 --undefined-- 56.669
2.88 --undefined-- 65.479
2.89 150.441 70.957
2.90 141.353 73.463
2.91 130.498 74.025
2.92 126.266 73.990
2.93 125.444 74.133
2.94 122.296 74.042
2.95 119.420 73.573
2.96 116.292 73.272
2.97 114.705 73.217
2.98 114.705 73.284
2.99 115.644 73.302
3.00 116.046 72.979
3.01 115.544 72.184
3.02 114.083 70.614
3.03 107.855 67.741
3.04 102.824 63.185
3.05 --undefined-- 56.946
3.06 --undefined-- 50.335
3.07 --undefined-- 47.285
3.08 --undefined-- 48.017
3.09 --undefined-- 50.406
3.10 --undefined-- 57.988
3.11 164.259 66.755
3.12 154.751 72.021
3.13 134.649 74.277
3.14 128.945 74.717
3.15 119.235 74.688
3.16 117.298 75.080
3.17 116.952 75.562
3.18 117.439 75.357
3.19 119.159 74.656
3.20 120.714 74.085
3.21 121.351 73.090
3.22 117.454 70.386
3.23 113.997 65.400
3.24 --undefined-- 58.738
3.25 --undefined-- 53.225
3.26 --undefined-- 57.946
3.27 --undefined-- 64.346
3.28 --undefined-- 69.412
3.29 142.906 73.043
3.30 135.936 75.057
3.31 131.512 75.912
3.32 130.279 76.049
3.33 129.474 75.830
3.34 130.850 75.711
3.35 132.679 75.941
3.36 134.879 76.343
3.37 135.768 76.542
3.38 136.384 76.367
3.39 136.481 75.726
3.40 133.079 74.482
3.41 128.895 72.810
3.42 124.064 71.311
3.43 117.857 70.655
3.44 115.381 70.587
3.45 105.249 70.085
3.46 99.954 69.028
3.47 95.058 68.153
3.48 94.364 67.794
3.49 95.270 67.489
3.50 99.020 67.253
3.51 99.982 66.763
3.52 100.012 64.967
3.53 99.260 61.248
3.54 --undefined-- 58.065
3.55 --undefined-- 61.417
3.56 --undefined-- 63.058
3.57 --undefined-- 60.784
3.58 --undefined-- 54.997
3.59 --undefined-- 48.317
3.60 --undefined-- 44.571
3.61 --undefined-- 52.120
3.62 --undefined-- 61.225
3.63 139.518 66.709
3.64 124.331 69.427
3.65 122.375 70.792
3.66 120.091 72.036
3.67 118.769 73.237
3.68 117.315 74.122
3.69 116.860 74.627
3.70 117.120 74.776
3.71 117.681 74.675
3.72 117.094 74.352
3.73 115.665 73.613
3.74 114.738 72.326
3.75 114.704 70.651
3.76 114.119 68.275
3.77 --undefined-- 64.353
3.78 --undefined-- 58.690
3.79 --undefined-- 53.481
3.80 --undefined-- 50.960
3.81 --undefined-- 48.335
3.82 --undefined-- 43.213
3.83 --undefined-- 38.326
3.84 --undefined-- 38.009
3.85 --undefined-- 37.907
3.86 --undefined-- 37.302
3.87 --undefined-- 35.729
3.88 --undefined-- 34.760
3.89 --undefined-- 35.440
3.90 --undefined-- 35.628
3.91 --undefined-- 37.025
3.92 --undefined-- 38.821
3.93 --undefined-- 38.300
3.94 --undefined-- 35.551
3.95 --undefined-- 33.415
3.96 --undefined-- 34.247
3.97 --undefined-- 35.380
3.98 --undefined-- 34.839
3.99 --undefined-- 34.707
4.00 --undefined-- 36.234
4.01 --undefined-- 36.520
4.02 --undefined-- 36.536
4.03 --undefined-- 37.378
4.04 --undefined-- 38.474
4.05 --undefined-- 39.133
4.06 --undefined-- 38.394
4.07 --undefined-- 38.212
4.08 --undefined-- 39.155
4.09 --undefined-- 39.239
4.10 --undefined-- 38.173
4.11 --undefined-- 37.956
4.12 --undefined-- 38.731
4.13 --undefined-- 38.993
4.14 --undefined-- 39.120
4.15 --undefined-- 39.504
4.16 --undefined-- 40.578
4.17 --undefined-- 41.776
4.18 --undefined-- 42.113
4.19 --undefined-- 42.208
4.20 --undefined-- 42.106
4.21 --undefined-- 41.125
4.22 --undefined-- 40.207
4.23 --undefined-- 40.086
4.24 --undefined-- 39.942
4.25 --undefined-- 39.642
4.26 --undefined-- 39.773
4.27 --undefined-- 39.669
4.28 --undefined-- 39.638
4.29 --undefined-- 40.963
4.30 --undefined-- 44.187
4.31 --undefined-- 46.913
4.32 --undefined-- 46.429
4.33 --undefined-- 42.728
4.34 --undefined-- 41.028
4.35 --undefined-- 46.268
4.36 --undefined-- 55.177
4.37 --undefined-- 63.743
4.38 --undefined-- 69.241
4.39 138.289 72.300
4.40 134.154 73.951
4.41 132.559 75.424
4.42 135.384 76.771
4.43 138.238 77.156
4.44 138.158 76.335
4.45 140.589 75.633
4.46 140.116 75.609
4.47 138.758 75.321
4.48 137.213 74.929
4.49 136.952 75.154
4.50 137.532 75.454
4.51 138.475 75.261
4.52 142.638 75.178
4.53 144.714 75.608
4.54 145.180 76.259
4.55 145.382 76.884
4.56 143.766 77.330
4.57 142.985 77.375
4.58 143.228 77.005
4.59 144.926 76.410
4.60 144.794 75.705
4.61 145.515 75.256
4.62 148.385 75.238
4.63 147.340 75.139
4.64 145.960 74.799
4.65 144.218 74.305
4.66 142.993 73.393
4.67 140.432 71.660
4.68 141.526 68.603
4.69 --undefined-- 64.217
4.70 --undefined-- 58.739
4.71 --undefined-- 52.371
4.72 --undefined-- 46.490
4.73 --undefined-- 42.894
4.74 --undefined-- 42.608
4.75 --undefined-- 43.402
4.76 --undefined-- 44.024
4.77 --undefined-- 44.097
4.78 --undefined-- 43.973
4.79 --undefined-- 43.449
4.80 --undefined-- 42.208
4.81 --undefined-- 40.756
4.82 --undefined-- 39.510
4.83 --undefined-- 37.906
4.84 --undefined-- 36.356
4.85 --undefined-- 35.847
4.86 --undefined-- 36.239
4.87 --undefined-- 37.198
4.88 --undefined-- 39.614
4.89 --undefined-- 41.633
4.90 --undefined-- 42.363
4.91 --undefined-- 41.857
4.92 --undefined-- 39.887
4.93 --undefined-- 39.556
4.94 --undefined-- 51.628
4.95 --undefined-- 60.942
4.96 213.933 66.532
4.97 199.799 69.929
4.98 199.700 72.367
4.99 205.054 74.365
5.00 209.980 76.009
5.01 213.862 77.299
5.02 217.089 78.154
5.03 219.881 78.540
5.04 221.294 78.425
5.05 221.637 77.718
5.06 223.123 76.600
5.07 226.552 75.743
5.08 224.984 75.157
5.09 217.100 74.304
5.10 209.288 72.518
5.11 186.107 69.586
5.12 171.408 66.809
5.13 157.547 65.515
5.14 149.289 65.774
5.15 148.876 68.444
5.16 150.777 72.427
5.17 152.127 75.766
5.18 157.035 77.677
5.19 151.483 78.102
5.20 149.190 77.567
5.21 145.332 76.464
5.22 144.467 75.595
5.23 150.886 75.208
5.24 152.938 74.645
5.25 154.556 74.022
5.26 155.022 73.457
5.27 152.493 72.369
5.28 145.870 70.035
5.29 136.976 65.878
5.30 --undefined-- 59.595
5.31 --undefined-- 52.096
5.32 --undefined-- 50.499
5.33 --undefined-- 51.978
5.34 --undefined-- 53.284
5.35 --undefined-- 54.754
5.36 --undefined-- 55.979
5.37 --undefined-- 56.256
5.38 --undefined-- 60.653
5.39 156.638 67.548
5.40 143.139 71.401
5.41 121.851 72.373
5.42 119.537 71.617
5.43 114.376 70.779
5.44 111.245 70.589
5.45 110.142 70.615
5.46 110.834 70.551
5.47 110.714 70.490
5.48 110.109 70.444
5.49 109.748 70.298
5.50 109.564 70.121
5.51 109.408 69.909
5.52 109.605 69.455
5.53 109.697 68.372
5.54 107.493 66.179
5.55 103.526 62.741
5.56 100.172 58.538
5.57 --undefined-- 56.718
5.58 --undefined-- 64.046
5.59 143.642 71.194
5.60 141.556 75.448
5.61 134.562 77.270
5.62 129.288 77.814
5.63 126.740 77.978
5.64 125.050 77.917
5.65 125.136 77.806
5.66 125.152 77.874
5.67 124.190 77.765
5.68 123.899 77.133
5.69 125.541 76.409
5.70 125.857 76.066
5.71 126.698 75.484
5.72 129.170 74.209
5.73 131.228 72.773
5.74 131.618 72.235
5.75 127.836 72.176
5.76 122.562 71.068
5.77 119.143 68.698
5.78 117.265 66.577
5.79 113.464 65.570
5.80 108.928 65.313
5.81 106.490 66.406
5.82 109.405 68.539
5.83 111.717 70.380
5.84 110.380 71.457
5.85 109.955 71.881
5.86 108.468 71.823
5.87 105.021 71.376
5.88 101.480 70.371
5.89 94.637 69.011
5.90 97.895 68.929
5.91 101.648 69.672
5.92 103.599 70.068
5.93 105.721 70.286
5.94 106.980 70.498
5.95 107.903 70.675
5.96 109.206 70.853
5.97 109.754 70.803
5.98 109.970 69.808
5.99 108.083 67.033
6.00 98.364 61.844
6.01 --undefined-- 55.068
6.02 --undefined-- 51.214
6.03 --undefined-- 54.032
6.04 --undefined-- 62.495
6.05 153.183 69.466
6.06 144.393 73.394
6.07 134.490 74.998
6.08 131.609 --undefined--
6.09 125.841 --undefined--
6.10 --undefined-- --undefined--
6.11 --undefined-- --undefined--
