Time Pitch Intensity
0.01 --undefined-- --undefined--
0.02 166.973 --undefined--
0.03 167.362 --undefined--
0.04 167.760 --undefined--
0.05 167.657 67.609
0.06 168.218 67.011
0.07 168.768 66.328
0.08 167.793 65.893
0.09 167.212 65.560
0.10 167.000 65.061
0.11 167.607 64.375
0.12 168.563 63.372
0.13 168.044 61.708
0.14 161.813 58.801
0.15 --undefined-- 54.550
0.16 --undefined-- 51.155
0.17 --undefined-- 49.369
0.18 --undefined-- 48.171
0.19 --undefined-- 50.590
0.20 --undefined-- 53.908
0.21 --undefined-- 54.403
0.22 --undefined-- 51.602
0.23 --undefined-- 48.645
0.24 --undefined-- 53.058
0.25 --undefined-- 57.438
0.26 --undefined-- 61.691
0.27 --undefined-- 66.012
0.28 288.099 68.602
0.29 288.100 69.737
0.30 287.410 70.376
0.31 285.242 70.584
0.32 285.172 70.073
0.33 288.777 69.277
0.34 288.428 68.907
0.35 289.167 68.914
0.36 290.998 69.127
0.37 290.850 69.355
0.38 291.996 69.479
0.39 294.338 69.517
0.40 296.635 69.479
0.41 296.867 69.420
0.42 297.801 69.406
0.43 295.914 69.203
0.44 289.839 68.354
0.45 280.058 66.365
0.46 273.546 62.503
0.47 262.710 56.037
0.48 --undefined-- 49.475
0.49 --undefined-- 48.972
0.50 --undefined-- 50.647
0.51 --undefined-- 52.255
0.52 --undefined-- 55.159
0.53 241.147 58.816
0.54 238.138 61.341
0.55 239.632 62.816
0.56 235.050 63.905
0.57 203.254 65.160
0.58 174.236 66.047
0.59 164.886 65.614
0.60 156.229 64.018
0.61 --undefined-- 62.422
0.62 --undefined-- 62.171
0.63 --undefined-- 62.605
0.64 --undefined-- 62.986
0.65 187.759 63.004
0.66 185.503 61.709
0.67 193.242 58.505
0.68 --undefined-- 53.704
0.69 --undefined-- 49.198
0.70 --undefined-- 48.364
0.71 --undefined-- 48.963
0.72 --undefined-- 48.645
0.73 --undefined-- 54.375
0.74 --undefined-- 59.346
0.75 --undefined-- 60.682
0.76 --undefined-- 60.127
0.77 --undefined-- 59.847
0.78 --undefined-- 60.019
0.79 --undefined-- 60.631
0.80 --undefined-- 61.497
0.81 --undefined-- 62.140
0.82 --undefined-- 62.252
0.83 --undefined-- 61.931
0.84 --undefined-- 61.795
0.85 --undefined-- 60.945
0.86 --undefined-- 59.081
0.87 --undefined-- 57.805
0.88 --undefined-- 57.508
0.89 --undefined-- 57.013
0.90 194.764 56.333
0.91 177.476 55.604
0.92 --undefined-- 55.167
0.93 --undefined-- 56.051
0.94 --undefined-- 55.691
0.95 --undefined-- 53.822
0.96 --undefined-- 52.703
0.97 --undefined-- 51.099
0.98 --undefined-- 51.898
0.99 --undefined-- 56.696
1.00 188.191 60.367
1.01 210.281 63.301
1.02 218.779 67.081
1.03 210.717 70.703
1.04 204.699 72.660
1.05 199.634 73.253
1.06 187.408 72.904
1.07 183.949 71.680
1.08 --undefined-- 69.575
1.09 --undefined-- 66.247
1.10 --undefined-- 61.887
1.11 --undefined-- 57.802
1.12 --undefined-- 54.462
1.13 --undefined-- 52.378
1.14 --undefined-- 51.277
1.15 --undefined-- 50.938
1.16 --undefined-- 52.070
1.17 --undefined-- 52.004
1.18 --undefined-- 50.369
1.19 --undefined-- 53.122
1.20 --undefined-- 57.866
1.21 --undefined-- 59.430
1.22 --undefined-- 57.663
1.23 --undefined-- 54.925
1.24 --undefined-- 54.527
1.25 251.466 55.239
1.26 259.105 56.031
1.27 250.903 57.160
1.28 193.430 59.176
1.29 200.695 61.812
1.30 200.629 64.732
1.31 204.210 67.039
1.32 192.813 67.983
1.33 190.377 68.147
1.34 191.186 68.340
1.35 189.704 68.198
1.36 187.407 67.777
1.37 184.461 67.216
1.38 181.354 66.464
1.39 179.812 65.930
1.40 179.356 65.916
1.41 178.349 65.960
1.42 178.919 65.697
1.43 180.305 65.520
1.44 181.597 65.554
1.45 185.116 65.670
1.46 189.233 65.685
1.47 193.956 65.031
1.48 198.988 63.475
1.49 202.484 61.462
1.50 194.401 59.328
1.51 181.201 56.314
1.52 --undefined-- 53.197
1.53 --undefined-- 52.614
1.54 --undefined-- 50.884
1.55 --undefined-- 49.199
1.56 --undefined-- 52.622
1.57 --undefined-- 54.760
1.58 --undefined-- 54.007
1.59 --undefined-- 53.143
1.60 --undefined-- 53.626
1.61 --undefined-- 53.622
1.62 --undefined-- 54.978
1.63 --undefined-- 56.992
1.64 --undefined-- 58.657
1.65 --undefined-- 62.399
1.66 168.673 67.572
1.67 167.895 70.925
1.68 171.058 72.362
1.69 174.164 72.624
1.70 177.093 72.503
1.71 178.306 72.621
1.72 178.381 72.816
1.73 178.481 72.691
1.74 178.532 72.223
1.75 178.003 71.406
1.76 179.377 70.496
1.77 181.050 70.136
1.78 180.507 70.092
1.79 181.670 69.963
1.80 183.654 70.076
1.81 184.112 70.420
1.82 183.563 70.695
1.83 181.318 70.785
1.84 177.997 70.469
1.85 173.478 69.184
1.86 164.983 66.170
1.87 151.644 61.179
1.88 --undefined-- 56.499
1.89 --undefined-- 58.977
1.90 173.607 64.024
1.91 173.064 67.115
1.92 171.653 68.637
1.93 170.586 69.344
1.94 170.005 69.438
1.95 170.005 69.164
1.96 169.959 68.683
1.97 170.134 68.315
1.98 170.283 68.483
1.99 169.340 68.837
2.00 167.646 68.782
2.01 167.183 68.143
2.02 167.578 67.323
2.03 167.115 67.258
2.04 169.226 68.956
2.05 169.834 70.981
2.06 168.444 71.619
2.07 168.294 71.083
2.08 168.373 70.095
2.09 168.038 68.681
2.10 167.268 66.070
2.11 168.331 61.469
2.12 169.155 55.805
2.13 --undefined-- 52.115
2.14 --undefined-- 48.785
2.15 --undefined-- 46.615
2.16 --undefined-- 47.080
2.17 --undefined-- 46.817
2.18 --undefined-- 47.205
2.19 --undefined-- 51.001
2.20 --undefined-- 58.704
2.21 --undefined-- 63.204
2.22 --undefined-- 63.901
2.23 234.564 63.218
2.24 240.558 64.143
2.25 246.208 64.947
2.26 --undefined-- 64.900
2.27 --undefined-- 63.773
2.28 --undefined-- 61.188
2.29 --undefined-- 58.096
2.30 --undefined-- 57.005
2.31 --undefined-- 56.498
2.32 --undefined-- 53.534
2.33 --undefined-- 48.769
2.34 --undefined-- 50.067
2.35 --undefined-- 51.814
2.36 --undefined-- 50.598
2.37 --undefined-- 49.785
2.38 --undefined-- 50.664
2.39 --undefined-- 49.569
2.40 --undefined-- 46.761
2.41 --undefined-- 43.803
2.42 --undefined-- 43.281
2.43 --undefined-- 46.840
2.44 --undefined-- 51.574
2.45 262.651 56.816
2.46 255.294 61.584
2.47 248.854 64.202
2.48 245.423 65.062
2.49 246.050 65.291
2.50 248.596 65.329
2.51 251.240 65.228
2.52 253.362 65.709
2.53 256.471 66.733
2.54 257.647 67.354
2.55 256.475 67.387
2.56 254.669 66.669
2.57 249.181 64.430
2.58 237.129 60.119
2.59 --undefined-- 54.350
2.60 --undefined-- 49.264
2.61 --undefined-- 48.450
2.62 --undefined-- 50.540
2.63 --undefined-- 50.987
2.64 --undefined-- 50.552
2.65 --undefined-- 52.442
2.66 --undefined-- 57.241
2.67 187.497 61.907
2.68 188.158 63.879
2.69 195.139 63.102
2.70 --undefined-- 60.268
2.71 --undefined-- 57.356
2.72 --undefined-- 55.051
2.73 --undefined-- 51.708
2.74 --undefined-- 48.746
2.75 --undefined-- 47.990
2.76 --undefined-- 48.873
2.77 --undefined-- 50.356
2.78 --undefined-- 50.892
2.79 --undefined-- 49.260
2.80 --undefined-- 47.455
2.81 --undefined-- 47.912
2.82 --undefined-- 47.182
2.83 --undefined-- 46.825
2.84 --undefined-- 49.334
2.85 --undefined-- 50.696
2.86 --undefined-- 49.476
2.87 --undefined-- 49.397
2.88 --undefined-- 51.995
2.89 --undefined-- 55.273
2.90 --undefined-- 59.093
2.91 --undefined-- 61.336
2.92 --undefined-- 61.915
2.93 --undefined-- 62.293
2.94 --undefined-- 64.008
2.95 --undefined-- 67.511
2.96 --undefined-- 70.110
2.97 --undefined-- 70.829
2.98 --undefined-- 70.691
2.99 --undefined-- 71.104
3.00 --undefined-- 71.269
3.01 --undefined-- 70.287
3.02 --undefined-- 68.853
3.03 --undefined-- 66.976
3.04 --undefined-- 63.311
3.05 --undefined-- 59.441
3.06 --undefined-- 58.307
3.07 --undefined-- 56.733
3.08 --undefined-- 54.571
3.09 --undefined-- 53.159
3.10 --undefined-- 52.120
3.11 --undefined-- 52.575
3.12 --undefined-- 54.854
3.13 --undefined-- 55.338
3.14 --undefined-- 52.832
3.15 --undefined-- 49.986
3.16 --undefined-- 50.356
3.17 --undefined-- 51.066
3.18 --undefined-- 50.059
3.19 --undefined-- 49.254
3.20 --undefined-- 51.263
3.21 --undefined-- 53.297
3.22 --undefined-- 53.485
3.23 278.930 52.494
3.24 282.626 52.032
3.25 --undefined-- 52.960
3.26 --undefined-- 54.651
3.27 --undefined-- 54.511
3.28 --undefined-- 52.746
3.29 --undefined-- 50.893
3.30 --undefined-- 49.936
3.31 --undefined-- 50.181
3.32 --undefined-- 51.164
3.33 --undefined-- 52.229
3.34 --undefined-- 52.836
3.35 --undefined-- 53.882
3.36 --undefined-- 54.516
3.37 --undefined-- 53.796
3.38 --undefined-- 53.214
3.39 --undefined-- 54.008
3.40 --undefined-- 54.814
3.41 --undefined-- 54.717
3.42 --undefined-- 54.339
3.43 --undefined-- 53.903
3.44 --undefined-- 54.160
3.45 --undefined-- 54.474
3.46 --undefined-- 53.000
3.47 --undefined-- 51.013
3.48 --undefined-- 50.715
3.49 --undefined-- 50.486
3.50 --undefined-- 48.941
3.51 --undefined-- 49.410
3.52 --undefined-- 51.985
3.53 --undefined-- 53.043
3.54 --undefined-- 52.208
3.55 --undefined-- 49.725
3.56 --undefined-- 47.902
3.57 --undefined-- 51.792
3.58 --undefined-- 59.691
3.59 --undefined-- 65.899
3.60 287.555 69.408
3.61 287.327 71.174
3.62 289.597 72.195
3.63 293.843 72.809
3.64 --undefined-- 73.164
3.65 152.835 73.427
3.66 154.971 73.581
3.67 157.097 73.467
3.68 159.920 73.302
3.69 161.767 73.130
3.70 163.870 72.746
3.71 165.519 72.369
3.72 165.624 72.151
3.73 165.590 71.892
3.74 163.271 71.636
3.75 161.817 71.485
3.76 160.435 70.585
3.77 152.463 68.117
3.78 141.695 65.828
3.79 165.821 68.000
3.80 168.245 70.309
3.81 163.210 71.097
3.82 153.219 71.029
3.83 292.241 70.576
3.84 278.089 70.274
3.85 270.135 70.252
3.86 271.173 70.191
3.87 283.886 69.987
3.88 284.459 69.075
3.89 273.749 66.322
3.90 262.603 60.899
3.91 --undefined-- 53.341
3.92 --undefined-- 47.686
3.93 --undefined-- 45.675
3.94 --undefined-- 48.970
3.95 --undefined-- 52.027
3.96 --undefined-- 56.469
3.97 189.741 64.208
3.98 185.159 69.869
3.99 185.663 73.164
4.00 188.603 74.733
4.01 191.754 75.034
4.02 194.585 74.507
4.03 194.976 73.687
4.04 191.786 72.869
4.05 184.056 71.831
4.06 176.582 70.541
4.07 170.382 69.511
4.08 168.243 69.000
4.09 165.356 68.816
4.10 156.918 68.883
4.11 293.052 68.762
4.12 279.551 68.449
4.13 270.880 68.240
4.14 268.964 67.802
4.15 269.779 67.207
4.16 271.004 66.704
4.17 270.426 65.890
4.18 265.560 64.246
4.19 247.606 62.447
4.20 238.828 62.139
4.21 238.663 63.086
4.22 243.886 64.560
4.23 251.944 65.723
4.24 248.796 66.137
4.25 223.798 66.557
4.26 209.034 67.471
4.27 197.905 68.367
4.28 196.935 68.649
4.29 199.245 67.994
4.30 203.991 66.724
4.31 214.347 65.902
4.32 219.700 65.977
4.33 227.780 66.114
4.34 234.728 65.732
4.35 239.864 64.203
4.36 242.024 60.745
4.37 --undefined-- 54.803
4.38 --undefined-- 48.630
4.39 --undefined-- 46.028
4.40 --undefined-- 47.038
4.41 --undefined-- 48.650
4.42 --undefined-- 48.113
4.43 --undefined-- 47.945
4.44 --undefined-- 48.959
4.45 --undefined-- 50.126
4.46 --undefined-- 51.849
4.47 --undefined-- 51.992
4.48 --undefined-- 51.249
4.49 --undefined-- 56.543
4.50 202.874 63.096
4.51 201.597 67.573
4.52 200.693 70.290
4.53 199.070 71.823
4.54 196.438 72.835
4.55 193.409 73.652
4.56 189.339 74.216
4.57 185.985 74.263
4.58 184.320 73.468
4.59 182.243 71.671
4.60 --undefined-- 68.809
4.61 --undefined-- 64.797
4.62 --undefined-- 59.779
4.63 --undefined-- 54.707
4.64 --undefined-- 51.698
4.65 --undefined-- 50.200
4.66 --undefined-- 47.873
4.67 --undefined-- 45.767
4.68 --undefined-- 45.151
4.69 --undefined-- 44.616
4.70 --undefined-- 43.817
4.71 --undefined-- 46.074
4.72 --undefined-- 48.606
4.73 --undefined-- 48.909
4.74 --undefined-- 48.568
4.75 --undefined-- 47.772
4.76 --undefined-- 45.338
4.77 --undefined-- 49.132
4.78 --undefined-- 57.940
4.79 270.153 64.312
4.80 265.600 67.621
4.81 266.599 68.331
4.82 270.540 67.093
4.83 275.653 64.555
4.84 265.644 60.485
4.85 264.939 54.191
4.86 --undefined-- 51.099
4.87 --undefined-- 52.287
4.88 --undefined-- 51.226
4.89 --undefined-- 50.005
4.90 --undefined-- 50.934
4.91 --undefined-- 51.308
4.92 --undefined-- 50.651
4.93 --undefined-- 50.236
4.94 --undefined-- 51.090
4.95 --undefined-- 54.487
4.96 254.713 61.182
4.97 257.690 66.915
4.98 246.187 71.145
4.99 232.523 73.998
5.00 221.311 75.367
5.01 --undefined-- 75.763
5.02 --undefined-- --undefined--
5.03 --undefined-- --undefined--
5.04 --undefined-- --undefined--
5.05 --undefined-- --undefined--
