Time Pitch Intensity
0.01 --undefined-- --undefined--
0.02 232.979 --undefined--
0.03 224.788 --undefined--
0.04 222.080 --undefined--
0.05 221.578 71.113
0.06 221.504 70.763
0.07 222.925 69.994
0.08 225.254 68.685
0.09 229.261 67.610
0.10 238.999 67.603
0.11 245.297 68.187
0.12 251.447 68.789
0.13 258.498 69.340
0.14 269.084 69.989
0.15 271.323 70.281
0.16 274.215 70.156
0.17 274.716 70.256
0.18 274.119 70.572
0.19 272.532 70.761
0.20 270.017 70.778
0.21 266.802 70.761
0.22 262.132 70.888
0.23 256.446 71.102
0.24 250.157 70.999
0.25 239.647 70.305
0.26 231.129 68.829
0.27 219.544 66.720
0.28 204.848 65.620
0.29 199.216 65.952
0.30 192.957 66.442
0.31 178.738 67.332
0.32 167.602 69.298
0.33 165.064 70.812
0.34 155.479 70.984
0.35 151.660 70.470
0.36 148.887 70.068
0.37 148.458 69.980
0.38 147.984 70.139
0.39 148.570 70.200
0.40 149.940 69.970
0.41 151.005 69.471
0.42 152.141 68.699
0.43 154.460 67.493
0.44 157.330 66.492
0.45 160.818 66.544
0.46 162.192 66.829
0.47 163.319 66.855
0.48 164.317 67.155
0.49 174.017 68.240
0.50 170.277 69.400
0.51 173.007 70.097
0.52 176.544 70.507
0.53 181.226 70.392
0.54 185.667 69.733
0.55 194.714 69.342
0.56 202.346 69.685
0.57 212.696 70.510
0.58 219.266 71.277
0.59 222.398 71.356
0.60 222.715 70.774
0.61 221.472 70.480
0.62 219.373 70.872
0.63 214.264 71.151
0.64 207.850 71.012
0.65 202.813 70.627
0.66 199.062 70.162
0.67 196.245 69.897
0.68 193.363 69.897
0.69 188.577 69.909
0.70 184.330 69.564
0.71 183.311 68.785
0.72 186.351 68.214
0.73 191.445 68.217
0.74 194.067 68.283
0.75 193.825 68.249
0.76 192.062 68.351
0.77 188.977 68.659
0.78 186.223 69.011
0.79 183.449 69.224
0.80 182.594 69.428
0.81 182.610 69.718
0.82 182.276 69.867
0.83 179.868 69.823
0.84 177.594 69.837
0.85 175.795 69.962
0.86 174.579 69.952
0.87 173.346 69.763
0.88 172.668 69.553
0.89 172.902 69.409
0.90 173.368 69.343
0.91 174.007 69.249
0.92 174.008 69.076
0.93 173.591 68.758
0.94 173.852 68.151
0.95 169.286 67.264
0.96 156.880 66.376
0.97 135.267 65.363
0.98 --undefined-- 63.046
0.99 --undefined-- 59.062
1.00 --undefined-- 56.194
1.01 --undefined-- 57.734
1.02 --undefined-- 60.419
1.03 --undefined-- 62.888
1.04 162.906 65.651
1.05 164.410 68.121
1.06 167.275 69.409
1.07 168.670 69.725
1.08 168.271 69.620
1.09 167.532 69.401
1.10 166.766 69.215
1.11 165.721 69.189
1.12 165.412 69.142
1.13 166.365 68.914
1.14 168.183 68.588
1.15 168.329 68.025
1.16 179.289 66.859
1.17 180.920 65.132
1.18 182.432 63.622
1.19 184.473 62.992
1.20 184.759 62.860
1.21 201.746 62.905
1.22 234.888 63.857
1.23 235.735 66.701
1.24 266.349 70.032
1.25 280.566 72.263
1.26 286.712 73.193
1.27 288.599 73.205
1.28 288.596 72.631
1.29 286.824 71.339
1.30 277.924 69.734
1.31 260.970 68.520
1.32 248.873 67.292
1.33 240.780 65.871
1.34 228.172 64.438
1.35 210.444 64.173
1.36 193.967 65.334
1.37 173.982 66.650
1.38 163.022 67.424
1.39 159.617 67.613
1.40 158.621 67.369
1.41 158.646 67.142
1.42 158.479 67.223
1.43 159.904 67.162
1.44 159.872 66.387
1.45 156.951 64.450
1.46 159.083 61.394
1.47 155.040 57.316
1.48 154.131 51.857
1.49 160.027 47.053
1.50 154.976 46.259
1.51 155.842 45.095
1.52 --undefined-- 42.191
1.53 --undefined-- 40.376
1.54 --undefined-- 46.039
1.55 --undefined-- 56.146
1.56 257.493 63.246
1.57 248.721 67.448
1.58 253.764 69.728
1.59 259.103 70.823
1.60 261.805 71.033
1.61 263.216 70.735
1.62 265.291 70.442
1.63 268.305 70.354
1.64 270.974 70.444
1.65 272.484 70.762
1.66 272.378 71.077
1.67 270.863 71.117
1.68 266.390 71.647
1.69 266.463 73.102
1.70 269.382 73.990
1.71 271.218 73.818
1.72 271.052 73.117
1.73 270.488 72.482
1.74 270.746 72.247
1.75 272.315 72.443
1.76 271.626 72.693
1.77 270.694 72.647
1.78 270.248 72.502
1.79 270.051 72.469
1.80 269.845 72.464
1.81 269.339 72.362
1.82 268.958 72.232
1.83 268.962 72.124
1.84 268.925 72.050
1.85 268.712 72.048
1.86 268.505 72.023
1.87 268.048 71.955
1.88 267.883 71.933
1.89 267.858 71.969
1.90 267.782 72.033
1.91 268.082 72.046
1.92 268.791 71.936
1.93 269.130 71.709
1.94 268.890 71.438
1.95 268.401 71.122
1.96 266.954 70.728
1.97 264.655 70.310
1.98 261.375 69.782
1.99 255.112 68.751
2.00 245.350 66.589
2.01 238.694 62.532
2.02 244.085 56.037
2.03 --undefined-- 48.165
2.04 --undefined-- 48.950
2.05 --undefined-- 56.466
2.06 --undefined-- 63.959
2.07 227.610 68.473
2.08 227.552 69.977
2.09 228.194 68.857
2.10 228.842 66.588
2.11 229.080 66.384
2.12 238.000 68.572
2.13 249.733 71.438
2.14 259.735 73.481
2.15 268.608 74.461
2.16 276.195 74.831
2.17 280.268 75.043
2.18 282.210 75.166
2.19 280.707 75.233
2.20 276.029 75.240
2.21 272.524 74.917
2.22 267.177 73.945
2.23 254.522 72.516
2.24 239.111 71.288
2.25 228.109 70.482
2.26 215.121 69.973
2.27 205.540 69.697
2.28 197.560 69.713
2.29 191.982 69.777
2.30 187.751 69.760
2.31 185.662 69.681
2.32 184.590 69.491
2.33 183.831 69.417
2.34 182.423 69.541
2.35 180.309 69.728
2.36 178.722 69.680
2.37 176.678 69.166
2.38 175.133 68.375
2.39 173.273 67.684
2.40 170.874 66.987
2.41 158.915 65.957
2.42 140.881 65.289
2.43 136.183 65.416
2.44 136.019 65.377
2.45 143.687 65.133
2.46 160.510 65.382
2.47 190.823 67.125
2.48 242.002 69.888
2.49 266.023 71.824
2.50 286.799 72.164
2.51 152.750 71.069
2.52 160.173 69.233
2.53 167.285 67.843
2.54 172.297 67.951
2.55 174.877 69.390
2.56 174.462 71.038
2.57 171.034 71.971
2.58 166.353 72.138
2.59 161.202 71.993
2.60 154.733 71.873
2.61 294.255 71.798
2.62 276.560 71.618
2.63 260.165 71.187
2.64 243.713 70.480
2.65 232.849 69.509
2.66 224.145 68.812
2.67 222.801 69.106
2.68 225.776 70.033
2.69 231.925 71.069
2.70 239.176 71.962
2.71 248.680 72.383
2.72 258.461 72.133
2.73 263.497 71.524
2.74 268.860 71.124
2.75 274.088 71.113
2.76 277.587 71.404
2.77 277.437 71.711
2.78 274.589 71.954
2.79 268.650 72.346
2.80 263.834 72.869
2.81 259.726 73.248
2.82 255.658 73.326
2.83 251.055 73.265
2.84 246.859 73.222
2.85 242.311 73.111
2.86 239.294 72.937
2.87 237.998 72.522
2.88 236.892 71.429
2.89 235.602 70.043
2.90 236.348 69.646
2.91 235.067 69.749
2.92 231.766 69.437
2.93 226.936 68.772
2.94 222.132 68.972
2.95 216.890 70.694
2.96 213.061 72.112
2.97 211.252 72.453
2.98 211.549 71.850
2.99 214.243 71.247
3.00 223.434 72.091
3.01 229.478 73.328
3.02 236.326 74.280
3.03 243.731 75.058
3.04 250.862 75.467
3.05 257.976 75.389
3.06 266.157 75.062
3.07 273.638 74.907
3.08 278.909 74.947
3.09 284.346 74.869
3.10 289.644 74.687
3.11 298.249 74.678
3.12 --undefined-- 74.904
3.13 296.810 74.978
3.14 292.161 74.778
3.15 286.859 74.528
3.16 281.562 74.224
3.17 276.935 73.588
3.18 272.149 72.696
3.19 267.686 72.133
3.20 265.009 72.035
3.21 263.186 71.932
3.22 261.235 71.553
3.23 258.712 70.588
3.24 254.142 68.258
3.25 245.099 63.618
3.26 252.002 56.039
3.27 --undefined-- 47.210
3.28 --undefined-- 43.368
3.29 --undefined-- 50.352
3.30 256.500 60.892
3.31 243.216 67.245
3.32 236.767 70.126
3.33 231.695 70.605
3.34 229.562 69.883
3.35 231.790 69.183
3.36 241.346 70.019
3.37 248.503 71.644
3.38 253.600 72.402
3.39 258.530 72.185
3.40 264.266 71.621
3.41 270.361 71.115
3.42 276.400 70.524
3.43 280.460 70.027
3.44 282.479 69.673
3.45 283.034 69.441
3.46 276.593 69.576
3.47 263.898 68.934
3.48 --undefined-- 66.543
3.49 --undefined-- 62.846
3.50 --undefined-- 58.864
3.51 --undefined-- 54.032
3.52 --undefined-- 47.959
3.53 --undefined-- 41.979
3.54 --undefined-- 37.959
3.55 --undefined-- 38.063
3.56 --undefined-- 39.221
3.57 --undefined-- 39.511
3.58 --undefined-- 42.834
3.59 --undefined-- 52.375
3.60 --undefined-- 60.995
3.61 --undefined-- 66.466
3.62 --undefined-- 69.194
3.63 177.747 70.191
3.64 175.876 70.363
3.65 173.349 70.144
3.66 170.112 69.788
3.67 165.699 69.513
3.68 161.491 69.321
3.69 157.382 69.025
3.70 154.495 68.663
3.71 152.779 68.330
3.72 152.468 67.788
3.73 151.367 66.897
3.74 148.378 65.703
3.75 146.340 64.147
3.76 146.713 62.473
3.77 147.564 61.363
3.78 149.224 61.164
3.79 152.020 61.648
3.80 154.762 62.629
3.81 156.735 63.833
3.82 159.528 65.111
3.83 162.531 66.197
3.84 164.086 66.727
3.85 166.169 66.996
3.86 168.400 67.559
3.87 170.433 68.356
3.88 170.985 68.884
3.89 169.338 68.554
3.90 165.828 66.708
3.91 161.310 62.683
3.92 165.592 56.384
3.93 --undefined-- 50.965
3.94 --undefined-- 50.855
3.95 --undefined-- 50.968
3.96 --undefined-- 48.181
3.97 --undefined-- 42.552
3.98 --undefined-- 38.117
3.99 --undefined-- 37.486
4.00 --undefined-- 39.550
4.01 --undefined-- 42.058
4.02 --undefined-- 43.124
4.03 --undefined-- 43.810
4.04 --undefined-- 46.014
4.05 --undefined-- 48.391
4.06 --undefined-- 49.567
4.07 --undefined-- 51.703
4.08 --undefined-- 53.649
4.09 --undefined-- 53.731
4.10 --undefined-- 52.590
4.11 --undefined-- 55.490
4.12 184.222 61.537
4.13 174.995 65.093
4.14 171.052 66.357
4.15 172.379 66.247
4.16 174.445 65.501
4.17 177.194 64.284
4.18 187.215 62.705
4.19 188.245 60.753
4.20 189.893 57.511
4.21 191.141 52.626
4.22 --undefined-- 50.073
4.23 --undefined-- 57.075
4.24 250.325 63.910
4.25 243.121 67.667
4.26 239.524 68.808
4.27 237.339 68.159
4.28 234.716 66.724
4.29 227.361 65.881
4.30 227.653 67.038
4.31 235.369 69.088
4.32 239.096 70.416
4.33 239.015 71.118
4.34 240.021 71.460
4.35 239.164 71.225
4.36 236.951 70.181
4.37 233.550 68.342
4.38 241.370 67.363
4.39 253.499 69.037
4.40 252.294 70.332
4.41 248.694 70.443
4.42 245.719 70.176
4.43 243.735 69.883
4.44 240.889 69.408
4.45 235.343 68.626
4.46 228.492 67.591
4.47 219.843 66.600
4.48 207.464 66.118
4.49 197.939 66.139
4.50 189.332 66.173
4.51 183.336 66.171
4.52 177.997 66.570
4.53 174.895 67.579
4.54 171.050 68.375
4.55 162.970 68.385
4.56 160.894 68.265
4.57 160.591 68.394
4.58 163.050 68.291
4.59 169.130 67.799
4.60 172.793 66.957
4.61 176.353 65.816
4.62 185.320 64.168
4.63 181.963 61.359
4.64 171.289 56.378
4.65 --undefined-- 49.561
4.66 --undefined-- 45.155
4.67 --undefined-- 43.663
4.68 --undefined-- 42.010
4.69 --undefined-- 40.176
4.70 --undefined-- 40.460
4.71 --undefined-- 41.982
4.72 --undefined-- 43.280
4.73 --undefined-- 48.154
4.74 --undefined-- 57.215
4.75 210.979 63.178
4.76 195.029 65.952
4.77 194.218 66.661
4.78 199.153 66.327
4.79 203.982 65.460
4.80 205.427 64.215
4.81 202.827 62.222
4.82 198.723 59.001
4.83 200.504 54.191
4.84 199.009 48.894
4.85 197.222 46.108
4.86 --undefined-- 44.981
4.87 --undefined-- 43.436
4.88 --undefined-- 41.953
4.89 --undefined-- 49.631
4.90 --undefined-- 59.221
4.91 233.618 64.988
4.92 229.471 67.652
4.93 224.673 68.171
4.94 220.757 67.498
4.95 218.623 66.630
4.96 218.091 66.119
4.97 218.614 65.898
4.98 218.925 65.660
4.99 217.802 65.061
5.00 214.262 63.710
5.01 208.009 61.184
5.02 202.135 56.955
5.03 --undefined-- 50.647
5.04 --undefined-- 44.035
5.05 --undefined-- 41.261
5.06 --undefined-- 39.587
5.07 --undefined-- 38.058
5.08 --undefined-- --undefined--
5.09 --undefined-- --undefined--
5.10 --undefined-- --undefined--
5.11 --undefined-- --undefined--
