Time Pitch Intensity
0.01 --undefined-- --undefined--
0.02 --undefined-- --undefined--
0.03 --undefined-- --undefined--
0.04 --undefined-- --undefined--
0.05 --undefined-- 60.943
0.06 --undefined-- 57.000
0.07 --undefined-- 54.521
0.08 --undefined-- 53.989
0.09 --undefined-- 52.893
0.10 --undefined-- 50.924
0.11 --undefined-- 48.707
0.12 --undefined-- 47.033
0.13 --undefined-- 47.753
0.14 104.502 50.407
0.15 104.147 52.122
0.16 103.818 52.574
0.17 103.426 53.026
0.18 102.231 53.587
0.19 99.252 52.869
0.20 --undefined-- 50.134
0.21 --undefined-- 45.941
0.22 --undefined-- 45.007
0.23 --undefined-- 49.874
0.24 --undefined-- 52.759
0.25 --undefined-- 53.398
0.26 --undefined-- 52.958
0.27 --undefined-- 51.382
0.28 --undefined-- 50.097
0.29 --undefined-- 52.270
0.30 --undefined-- 55.391
0.31 --undefined-- 56.819
0.32 --undefined-- 57.011
0.33 --undefined-- 56.855
0.34 --undefined-- 54.903
0.35 --undefined-- 50.568
0.36 --undefined-- 45.869
0.37 --undefined-- 41.756
0.38 --undefined-- 41.387
0.39 --undefined-- 47.693
0.40 --undefined-- 51.418
0.41 --undefined-- 50.821
0.42 --undefined-- 45.833
0.43 --undefined-- 41.816
0.44 --undefined-- 45.297
0.45 --undefined-- 47.303
0.46 --undefined-- 47.465
0.47 --undefined-- 47.431
0.48 --undefined-- 49.343
0.49 --undefined-- 52.315
0.50 --undefined-- 54.547
0.51 --undefined-- 55.679
0.52 --undefined-- 55.957
0.53 --undefined-- 55.678
0.54 --undefined-- 55.591
0.55 --undefined-- 56.689
0.56 --undefined-- 58.581
0.57 --undefined-- 59.942
0.58 --undefined-- 60.323
0.59 --undefined-- 60.063
0.60 --undefined-- 58.932
0.61 --undefined-- 57.431
0.62 --undefined-- 57.425
0.63 --undefined-- 58.133
0.64 --undefined-- 57.719
0.65 --undefined-- 56.789
0.66 --undefined-- 55.631
0.67 --undefined-- 52.882
0.68 --undefined-- 48.163
0.69 --undefined-- 42.830
0.70 --undefined-- 40.026
0.71 --undefined-- 40.456
0.72 --undefined-- 51.740
0.73 --undefined-- 60.430
0.74 --undefined-- 64.838
0.75 --undefined-- 68.619
0.76 --undefined-- 72.292
0.77 167.741 73.647
0.78 165.654 73.186
0.79 168.424 71.530
0.80 --undefined-- 67.717
0.81 --undefined-- 61.448
0.82 --undefined-- 58.145
0.83 204.471 59.187
0.84 211.162 61.320
0.85 225.563 65.476
0.86 235.792 69.411
0.87 243.400 71.643
0.88 250.635 72.405
0.89 249.298 72.308
0.90 245.704 72.097
0.91 242.342 71.759
0.92 236.074 70.938
0.93 230.483 69.796
0.94 216.749 68.340
0.95 209.092 66.353
0.96 202.820 63.215
0.97 --undefined-- 58.719
0.98 --undefined-- 54.981
0.99 --undefined-- 53.233
1.00 --undefined-- 52.381
1.01 --undefined-- 52.738
1.02 --undefined-- 54.413
1.03 --undefined-- 57.327
1.04 --undefined-- 61.254
1.05 --undefined-- 64.292
1.06 --undefined-- 65.773
1.07 126.636 66.213
1.08 135.777 66.895
1.09 137.353 69.638
1.10 148.927 72.042
1.11 169.119 72.909
1.12 176.212 73.682
1.13 186.043 74.278
1.14 192.543 74.161
1.15 196.267 73.589
1.16 196.527 72.108
1.17 191.620 69.117
1.18 188.650 65.451
1.19 183.773 63.396
1.20 176.552 66.003
1.21 171.433 70.852
1.22 169.977 73.279
1.23 164.375 73.463
1.24 155.673 72.664
1.25 148.553 71.783
1.26 141.358 71.249
1.27 139.278 71.040
1.28 134.884 70.522
1.29 132.163 69.736
1.30 129.940 68.974
1.31 128.552 68.156
1.32 127.407 67.418
1.33 127.009 67.122
1.34 127.787 67.390
1.35 128.289 67.876
1.36 128.946 68.064
1.37 129.660 67.823
1.38 130.849 67.259
1.39 132.207 66.758
1.40 132.841 66.508
1.41 133.628 66.494
1.42 134.495 66.629
1.43 135.633 66.402
1.44 136.916 65.516
1.45 137.145 63.532
1.46 137.233 59.671
1.47 --undefined-- 53.613
1.48 --undefined-- 47.385
1.49 --undefined-- 45.649
1.50 --undefined-- 50.623
1.51 --undefined-- 61.048
1.52 --undefined-- 68.442
1.53 --undefined-- 71.803
1.54 --undefined-- 71.645
1.55 109.562 69.132
1.56 110.823 67.468
1.57 114.843 67.889
1.58 117.721 68.413
1.59 119.887 68.372
1.60 124.800 68.585
1.61 127.489 69.388
1.62 129.657 69.349
1.63 128.295 67.572
1.64 --undefined-- 63.053
1.65 --undefined-- 55.304
1.66 --undefined-- 49.502
1.67 --undefined-- 50.236
1.68 --undefined-- 52.157
1.69 --undefined-- 54.624
1.70 --undefined-- 61.837
1.71 --undefined-- 68.033
1.72 158.866 70.837
1.73 156.665 70.951
1.74 152.456 69.787
1.75 148.592 68.543
1.76 144.511 66.586
1.77 140.160 62.679
1.78 143.977 58.794
1.79 --undefined-- 61.927
1.80 143.766 64.637
1.81 144.691 64.853
1.82 149.446 63.735
1.83 152.568 62.662
1.84 153.207 61.448
1.85 146.928 59.033
1.86 144.498 55.142
1.87 --undefined-- 50.777
1.88 --undefined-- 48.533
1.89 --undefined-- 50.388
1.90 --undefined-- 53.503
1.91 --undefined-- 55.657
1.92 135.474 56.921
1.93 135.743 59.105
1.94 156.668 62.602
1.95 149.765 64.772
1.96 148.360 65.209
1.97 142.713 64.836
1.98 139.400 64.457
1.99 137.678 64.039
2.00 136.732 63.301
2.01 136.450 62.696
2.02 136.625 62.876
2.03 136.637 63.300
2.04 136.741 63.431
2.05 137.037 63.410
2.06 137.034 63.245
2.07 137.166 62.739
2.08 136.156 61.401
2.09 135.412 58.105
2.10 --undefined-- 51.941
2.11 --undefined-- 44.412
2.12 --undefined-- 41.028
2.13 --undefined-- 40.610
2.14 --undefined-- 40.731
2.15 --undefined-- 41.617
2.16 --undefined-- 45.772
2.17 --undefined-- 54.869
2.18 --undefined-- 63.619
2.19 --undefined-- 68.883
2.20 --undefined-- 70.870
2.21 --undefined-- 70.586
2.22 111.558 69.329
2.23 107.386 68.124
2.24 103.371 66.797
2.25 101.324 64.857
2.26 100.978 63.344
2.27 101.310 62.334
2.28 102.016 61.392
2.29 101.977 60.869
2.30 101.909 59.777
2.31 --undefined-- 56.727
2.32 --undefined-- 51.411
2.33 --undefined-- 46.725
2.34 --undefined-- 45.828
2.35 --undefined-- 46.348
2.36 --undefined-- 46.025
2.37 --undefined-- 44.137
2.38 --undefined-- 42.690
2.39 --undefined-- 49.586
2.40 --undefined-- 57.856
2.41 --undefined-- 64.186
2.42 --undefined-- 67.952
2.43 --undefined-- 68.943
2.44 --undefined-- 67.470
2.45 --undefined-- 64.098
2.46 --undefined-- 59.028
2.47 --undefined-- 52.164
2.48 --undefined-- 45.767
2.49 --undefined-- 44.305
2.50 --undefined-- 43.564
2.51 --undefined-- 41.775
2.52 --undefined-- 48.431
2.53 --undefined-- 57.239
2.54 --undefined-- 61.119
2.55 --undefined-- 61.268
2.56 --undefined-- 63.651
2.57 --undefined-- 67.801
2.58 --undefined-- 69.277
2.59 124.077 68.847
2.60 119.205 68.258
2.61 114.523 67.834
2.62 112.635 67.253
2.63 108.694 66.554
2.64 107.910 65.712
2.65 107.259 64.893
2.66 107.149 64.123
2.67 107.576 62.991
2.68 110.266 62.157
2.69 110.749 62.763
2.70 107.059 63.034
2.71 106.305 61.232
2.72 --undefined-- 56.793
2.73 --undefined-- 50.938
2.74 --undefined-- 48.474
2.75 --undefined-- 52.009
2.76 --undefined-- 55.786
2.77 --undefined-- 57.409
2.78 --undefined-- 58.960
2.79 --undefined-- 62.223
2.80 --undefined-- 64.978
2.81 --undefined-- 65.733
2.82 --undefined-- 64.727
2.83 --undefined-- 63.034
2.84 --undefined-- 60.755
2.85 --undefined-- 57.244
2.86 --undefined-- 53.530
2.87 --undefined-- 50.971
2.88 --undefined-- 50.308
2.89 --undefined-- 51.120
2.90 --undefined-- 51.450
2.91 --undefined-- 51.118
2.92 --undefined-- 50.173
2.93 --undefined-- 48.258
2.94 --undefined-- 46.186
2.95 --undefined-- 45.234
2.96 --undefined-- 45.571
2.97 --undefined-- 45.064
2.98 --undefined-- 44.444
2.99 --undefined-- 51.690
3.00 --undefined-- 57.805
3.01 --undefined-- 61.378
3.02 --undefined-- 66.121
3.03 --undefined-- 70.098
3.04 --undefined-- 71.360
3.05 155.196 70.354
3.06 152.695 68.232
3.07 150.678 65.381
3.08 149.034 61.214
3.09 151.228 56.373
3.10 152.671 53.650
3.11 153.890 52.816
3.12 155.167 52.638
3.13 156.172 54.622
3.14 159.639 58.801
3.15 159.975 61.877
3.16 159.253 64.104
3.17 162.504 67.115
3.18 164.898 69.452
3.19 164.849 70.156
3.20 165.054 70.074
3.21 164.026 70.154
3.22 160.643 69.908
3.23 159.681 67.824
3.24 --undefined-- 62.771
3.25 --undefined-- 54.724
3.26 --undefined-- 54.263
3.27 --undefined-- 58.654
3.28 --undefined-- 59.301
3.29 --undefined-- 61.353
3.30 --undefined-- 66.830
3.31 --undefined-- 68.914
3.32 --undefined-- 66.868
3.33 --undefined-- 60.668
3.34 178.056 53.527
3.35 178.737 53.788
3.36 180.499 56.237
3.37 180.337 59.019
3.38 181.317 64.031
3.39 182.945 68.938
3.40 180.831 71.851
3.41 177.705 72.785
3.42 173.287 72.089
3.43 163.683 70.656
3.44 155.383 69.703
3.45 148.221 68.901
3.46 139.588 67.487
3.47 131.495 65.307
3.48 --undefined-- 61.572
3.49 --undefined-- 55.956
3.50 --undefined-- 50.961
3.51 --undefined-- 48.576
3.52 --undefined-- 47.123
3.53 --undefined-- 45.813
3.54 --undefined-- 46.321
3.55 --undefined-- 47.837
3.56 --undefined-- 49.414
3.57 --undefined-- 50.676
3.58 --undefined-- 51.201
3.59 --undefined-- 51.772
3.60 --undefined-- 51.352
3.61 --undefined-- 49.464
3.62 --undefined-- 50.705
3.63 --undefined-- 54.801
3.64 --undefined-- 56.870
3.65 104.404 56.788
3.66 100.365 55.716
3.67 98.689 54.129
3.68 98.845 52.898
3.69 99.174 53.036
3.70 99.628 53.612
3.71 100.615 53.920
3.72 101.491 54.015
3.73 102.191 54.992
3.74 102.116 56.331
3.75 101.785 56.894
3.76 103.934 58.343
3.77 99.030 61.747
3.78 100.255 64.745
3.79 99.395 66.343
3.80 97.281 66.972
3.81 95.359 67.443
3.82 94.026 67.781
3.83 93.056 67.699
3.84 92.874 66.869
3.85 94.110 65.678
3.86 94.148 64.486
3.87 --undefined-- 62.601
3.88 --undefined-- 59.207
3.89 --undefined-- 53.575
3.90 --undefined-- 47.851
3.91 --undefined-- 46.586
3.92 --undefined-- 46.707
3.93 --undefined-- 48.136
3.94 --undefined-- 51.945
3.95 --undefined-- 54.532
3.96 --undefined-- 53.906
3.97 --undefined-- 51.349
3.98 --undefined-- 51.058
3.99 --undefined-- 52.661
4.00 --undefined-- 54.531
4.01 --undefined-- 55.395
4.02 --undefined-- 55.336
4.03 --undefined-- 58.143
4.04 121.286 61.742
4.05 120.577 63.684
4.06 122.395 64.227
4.07 116.914 64.134
4.08 113.926 64.396
4.09 105.878 64.053
4.10 104.304 61.642
4.11 99.299 58.347
4.12 95.553 56.632
4.13 96.259 57.169
4.14 96.572 59.398
4.15 96.506 60.879
4.16 --undefined-- 61.134
4.17 --undefined-- 60.406
4.18 --undefined-- 58.679
4.19 --undefined-- 55.410
4.20 --undefined-- 54.074
4.21 --undefined-- 60.061
4.22 --undefined-- 64.053
4.23 --undefined-- 65.305
4.24 --undefined-- 64.179
4.25 --undefined-- 63.986
4.26 --undefined-- 65.751
4.27 --undefined-- 65.522
4.28 129.437 63.589
4.29 132.715 62.143
4.30 138.484 62.118
4.31 140.468 61.747
4.32 140.316 59.302
4.33 138.811 54.998
4.34 138.926 51.346
4.35 --undefined-- 48.667
4.36 --undefined-- 49.341
4.37 --undefined-- 57.799
4.38 --undefined-- 62.755
4.39 --undefined-- 64.490
4.40 --undefined-- 67.265
4.41 --undefined-- 70.090
4.42 173.398 70.788
4.43 172.633 70.188
4.44 171.776 69.199
4.45 170.586 68.110
4.46 169.076 67.080
4.47 166.741 66.299
4.48 163.961 66.011
4.49 161.136 66.429
4.50 158.164 67.298
4.51 151.775 68.874
4.52 148.838 70.934
4.53 --undefined-- 72.014
4.54 --undefined-- 71.835
4.55 --undefined-- 70.857
4.56 --undefined-- 68.685
4.57 --undefined-- 66.343
4.58 --undefined-- 65.448
4.59 --undefined-- 64.998
4.60 --undefined-- 64.321
4.61 --undefined-- 63.644
4.62 --undefined-- 63.463
4.63 --undefined-- 63.075
4.64 102.793 61.522
4.65 103.002 58.960
4.66 102.969 56.916
4.67 103.158 56.342
4.68 103.596 56.272
4.69 104.059 56.008
4.70 105.238 55.737
4.71 107.342 55.562
4.72 108.631 55.117
4.73 110.032 54.648
4.74 110.706 54.574
4.75 111.881 54.759
4.76 112.440 54.701
4.77 111.432 54.074
4.78 111.190 52.390
4.79 --undefined-- 49.179
4.80 --undefined-- 45.012
4.81 --undefined-- 41.634
4.82 --undefined-- 39.893
4.83 --undefined-- 38.368
4.84 --undefined-- 47.269
4.85 --undefined-- 57.234
4.86 --undefined-- 62.069
4.87 --undefined-- 62.869
4.88 --undefined-- 60.712
4.89 --undefined-- 57.948
4.90 --undefined-- 60.594
4.91 --undefined-- 65.614
4.92 --undefined-- 67.603
4.93 --undefined-- 66.200
4.94 112.387 62.350
4.95 110.984 58.207
4.96 108.861 55.174
4.97 108.691 53.310
4.98 108.961 52.703
4.99 109.125 52.243
5.00 108.684 50.986
5.01 --undefined-- 48.999
5.02 --undefined-- 48.156
5.03 --undefined-- 49.187
5.04 --undefined-- 49.789
5.05 --undefined-- 50.254
5.06 --undefined-- 51.457
5.07 --undefined-- 52.623
5.08 --undefined-- 54.609
5.09 --undefined-- 59.893
5.10 --undefined-- 63.706
5.11 --undefined-- 64.060
5.12 116.370 62.094
5.13 115.131 61.495
5.14 114.828 62.425
5.15 113.281 63.400
5.16 112.240 64.485
5.17 110.918 65.417
5.18 110.431 --undefined--
5.19 109.902 --undefined--
5.20 --undefined-- --undefined--
5.21 --undefined-- --undefined--
