Time Pitch Intensity
0.01 --undefined-- --undefined--
0.02 188.576 --undefined--
0.03 186.151 --undefined--
0.04 176.963 --undefined--
0.05 177.150 75.328
0.06 174.724 75.185
0.07 170.216 75.207
0.08 164.067 75.166
0.09 157.214 74.945
0.10 149.637 74.797
0.11 149.989 75.484
0.12 130.297 76.389
0.13 125.266 76.963
0.14 120.101 77.481
0.15 116.442 77.295
0.16 113.636 76.266
0.17 116.304 75.375
0.18 119.350 75.075
0.19 122.715 75.297
0.20 126.118 76.101
0.21 129.310 77.077
0.22 132.332 77.838
0.23 136.041 78.289
0.24 140.067 78.390
0.25 143.389 78.013
0.26 145.284 76.970
0.27 144.853 74.732
0.28 145.699 71.253
0.29 148.298 68.051
0.30 146.565 66.076
0.31 139.489 64.630
0.32 140.496 63.732
0.33 --undefined-- 65.563
0.34 --undefined-- 69.279
0.35 178.450 72.880
0.36 173.462 75.292
0.37 171.078 76.433
0.38 166.494 76.634
0.39 161.881 76.406
0.40 159.290 76.044
0.41 157.468 75.091
0.42 157.011 73.250
0.43 157.400 71.644
0.44 158.041 71.526
0.45 158.259 71.924
0.46 158.777 72.240
0.47 160.647 72.325
0.48 162.341 71.914
0.49 161.996 70.617
0.50 158.256 67.923
0.51 148.656 63.841
0.52 147.197 59.806
0.53 159.922 58.444
0.54 159.979 64.937
0.55 178.305 71.549
0.56 138.409 74.815
0.57 124.421 75.399
0.58 119.947 74.649
0.59 116.686 73.886
0.60 113.361 73.205
0.61 110.276 72.148
0.62 108.625 71.079
0.63 110.520 70.691
0.64 110.017 70.642
0.65 109.898 70.479
0.66 108.524 69.771
0.67 105.997 67.962
0.68 102.542 65.095
0.69 105.948 62.026
0.70 109.244 59.644
0.71 105.611 61.146
0.72 127.842 66.271
0.73 122.299 70.817
0.74 123.124 73.938
0.75 124.555 75.672
0.76 126.226 76.377
0.77 128.105 76.309
0.78 128.737 75.254
0.79 127.767 72.852
0.80 127.095 69.272
0.81 127.888 65.543
0.82 127.024 65.113
0.83 142.741 70.443
0.84 135.576 74.653
0.85 125.401 76.289
0.86 120.048 75.876
0.87 108.833 74.752
0.88 104.925 74.172
0.89 102.645 73.754
0.90 101.554 73.155
0.91 101.320 71.963
0.92 98.459 69.353
0.93 92.296 65.290
0.94 95.788 61.317
0.95 105.378 59.660
0.96 107.603 60.679
0.97 --undefined-- 63.758
0.98 --undefined-- 68.021
0.99 136.959 72.463
1.00 137.569 75.245
1.01 131.498 76.489
1.02 129.170 77.042
1.03 127.386 77.008
1.04 124.357 76.409
1.05 122.045 75.700
1.06 121.111 74.660
1.07 119.634 72.604
1.08 119.896 70.050
1.09 122.308 68.373
1.10 119.536 66.490
1.11 115.539 63.252
1.12 125.803 62.346
1.13 128.797 68.084
1.14 129.118 72.575
1.15 116.611 74.586
1.16 109.601 74.801
1.17 104.447 74.227
1.18 103.188 73.603
1.19 102.687 72.895
1.20 102.137 71.898
1.21 101.716 70.638
1.22 100.485 69.473
1.23 103.108 69.068
1.24 104.204 69.230
1.25 103.983 69.249
1.26 103.334 68.960
1.27 103.123 68.719
1.28 103.345 68.972
1.29 102.559 69.833
1.30 101.711 70.856
1.31 100.914 71.515
1.32 100.422 71.796
1.33 100.418 71.876
1.34 101.328 71.910
1.35 103.552 72.060
1.36 104.972 72.164
1.37 105.424 72.122
1.38 105.211 71.995
1.39 103.315 71.522
1.40 102.922 70.757
1.41 104.775 70.407
1.42 103.874 70.330
1.43 100.896 70.144
1.44 98.922 70.138
1.45 98.794 70.697
1.46 94.097 71.114
1.47 91.442 70.737
1.48 93.368 69.932
1.49 --undefined-- 68.974
1.50 --undefined-- 67.166
1.51 --undefined-- 63.648
1.52 --undefined-- 58.302
1.53 --undefined-- 52.789
1.54 --undefined-- 48.791
1.55 --undefined-- 46.417
1.56 --undefined-- 45.554
1.57 --undefined-- 44.959
1.58 --undefined-- 43.371
1.59 --undefined-- 43.910
1.60 --undefined-- 55.470
1.61 --undefined-- 65.075
1.62 --undefined-- 71.017
1.63 --undefined-- 73.986
1.64 106.386 74.636
1.65 100.088 74.046
1.66 96.331 73.404
1.67 95.831 72.974
1.68 95.426 72.533
1.69 95.172 72.143
1.70 95.514 72.018
1.71 95.934 72.136
1.72 96.925 72.284
1.73 97.433 72.393
1.74 98.387 72.603
1.75 102.347 73.189
1.76 106.062 73.995
1.77 108.735 74.623
1.78 109.580 75.192
1.79 110.721 75.922
1.80 110.976 76.621
1.81 112.306 77.080
1.82 113.622 77.243
1.83 115.602 77.148
1.84 117.210 76.709
1.85 118.367 75.871
1.86 118.547 74.667
1.87 114.622 73.118
1.88 107.997 71.034
1.89 --undefined-- 67.807
1.90 --undefined-- 63.010
1.91 --undefined-- 56.627
1.92 --undefined-- 52.947
1.93 --undefined-- 54.116
1.94 --undefined-- 52.772
1.95 --undefined-- 49.296
1.96 --undefined-- 48.098
1.97 --undefined-- 48.660
1.98 --undefined-- 49.989
1.99 --undefined-- 51.364
2.00 --undefined-- 51.794
2.01 --undefined-- 51.772
2.02 --undefined-- 51.769
2.03 --undefined-- 51.980
2.04 --undefined-- 52.636
2.05 --undefined-- 53.781
2.06 --undefined-- 54.914
2.07 --undefined-- 55.471
2.08 --undefined-- 55.245
2.09 --undefined-- 55.062
2.10 --undefined-- 55.854
2.11 --undefined-- 56.449
2.12 --undefined-- 56.031
2.13 --undefined-- 55.162
2.14 --undefined-- 54.804
2.15 --undefined-- 55.150
2.16 --undefined-- 54.706
2.17 --undefined-- 53.777
2.18 --undefined-- 52.572
2.19 --undefined-- 50.616
2.20 --undefined-- 48.538
2.21 --undefined-- 46.222
2.22 --undefined-- 52.358
2.23 --undefined-- 62.834
2.24 161.706 69.543
2.25 158.469 73.295
2.26 158.769 75.328
2.27 161.039 76.893
2.28 155.995 78.355
2.29 148.986 79.299
2.30 145.823 79.680
2.31 142.952 79.531
2.32 140.188 78.927
2.33 138.892 78.313
2.34 138.226 77.950
2.35 137.758 77.714
2.36 136.887 77.639
2.37 137.506 77.620
2.38 138.325 77.333
2.39 137.402 75.912
2.40 123.630 72.563
2.41 122.804 67.881
2.42 124.504 63.490
2.43 132.708 59.696
2.44 138.462 61.978
2.45 159.225 69.794
2.46 154.068 75.523
2.47 148.747 78.536
2.48 145.716 79.530
2.49 142.750 79.546
2.50 142.357 79.357
2.51 142.828 79.209
2.52 143.548 79.246
2.53 143.808 79.598
2.54 143.976 80.092
2.55 144.165 80.540
2.56 144.567 80.877
2.57 144.969 81.028
2.58 144.989 80.709
2.59 145.360 79.286
2.60 146.911 76.122
2.61 146.766 71.595
2.62 145.908 67.441
2.63 145.776 63.388
2.64 147.446 58.504
2.65 148.486 54.990
2.66 150.424 54.336
2.67 --undefined-- 55.076
2.68 --undefined-- 60.143
2.69 183.983 67.809
2.70 185.100 72.926
2.71 187.024 75.624
2.72 187.779 76.854
2.73 185.787 77.317
2.74 182.626 77.488
2.75 179.386 77.482
2.76 175.886 76.786
2.77 170.104 74.965
2.78 162.524 73.098
2.79 157.665 72.871
2.80 153.583 75.575
2.81 150.563 78.780
2.82 148.875 80.237
2.83 148.463 80.392
2.84 148.880 80.185
2.85 149.819 79.864
2.86 150.738 79.409
2.87 150.545 78.793
2.88 149.292 77.857
2.89 146.890 76.793
2.90 146.243 75.895
2.91 142.586 74.292
2.92 140.708 71.188
2.93 138.747 68.273
2.94 132.410 68.161
2.95 132.990 69.451
2.96 135.341 71.742
2.97 136.820 74.115
2.98 136.376 75.690
2.99 132.338 76.334
3.00 127.359 76.390
3.01 124.369 76.192
3.02 126.369 75.903
3.03 129.288 75.613
3.04 132.067 75.183
3.05 134.745 74.657
3.06 141.319 74.428
3.07 148.279 74.539
3.08 153.034 74.831
3.09 158.597 75.160
3.10 165.501 75.323
3.11 168.062 74.759
3.12 169.154 72.769
3.13 168.795 68.919
3.14 160.954 63.152
3.15 151.432 58.533
3.16 158.336 58.570
3.17 158.873 58.458
3.18 --undefined-- 57.767
3.19 --undefined-- 57.565
3.20 --undefined-- 60.271
3.21 --undefined-- 66.825
3.22 137.198 72.038
3.23 130.649 75.047
3.24 124.246 76.618
3.25 122.758 77.493
3.26 122.951 77.818
3.27 122.593 77.206
3.28 119.453 75.350
3.29 124.392 73.949
3.30 131.152 75.266
3.31 135.879 76.818
3.32 142.115 77.712
3.33 144.443 78.199
3.34 146.570 78.499
3.35 148.296 78.603
3.36 150.346 78.583
3.37 151.888 78.519
3.38 153.281 78.532
3.39 153.789 78.723
3.40 153.378 78.860
3.41 152.322 78.924
3.42 150.886 78.846
3.43 149.596 78.158
3.44 147.488 76.528
3.45 143.252 73.965
3.46 144.332 70.341
3.47 152.004 65.021
3.48 151.425 58.937
3.49 151.551 57.572
3.50 --undefined-- 59.171
3.51 --undefined-- 60.845
3.52 --undefined-- 67.882
3.53 154.696 74.152
3.54 143.586 77.384
3.55 142.099 78.461
3.56 142.304 78.467
3.57 145.555 78.216
3.58 152.970 78.345
3.59 158.223 78.936
3.60 160.345 79.641
3.61 162.413 80.031
3.62 161.842 79.602
3.63 160.379 78.406
3.64 158.549 77.132
3.65 155.935 76.233
3.66 154.983 76.017
3.67 154.442 76.658
3.68 154.333 77.547
3.69 151.739 78.105
3.70 147.853 78.229
3.71 138.722 77.896
3.72 132.767 77.044
3.73 129.708 76.128
3.74 130.514 75.978
3.75 138.874 76.550
3.76 143.910 77.136
3.77 151.412 77.438
3.78 159.961 77.484
3.79 172.895 77.325
3.80 185.319 77.030
3.81 192.991 76.983
3.82 196.867 77.165
3.83 200.938 76.998
3.84 201.976 76.145
3.85 201.439 74.851
3.86 207.140 74.371
3.87 202.793 74.662
3.88 195.924 75.018
3.89 186.711 75.428
3.90 176.421 75.788
3.91 163.382 76.204
3.92 150.693 76.687
3.93 133.534 76.645
3.94 126.297 76.238
3.95 121.089 75.713
3.96 116.841 74.744
3.97 110.916 73.123
3.98 109.295 71.511
3.99 109.507 70.916
4.00 109.946 70.954
4.01 109.431 71.081
4.02 109.221 71.214
4.03 109.394 71.277
4.04 109.736 71.171
4.05 109.590 70.768
4.06 108.462 69.853
4.07 106.939 68.372
4.08 106.656 66.632
4.09 106.819 65.050
4.10 108.894 63.881
4.11 109.268 63.307
4.12 113.163 63.308
4.13 116.074 63.342
4.14 114.953 63.109
4.15 116.925 64.140
4.16 118.733 67.876
4.17 120.534 71.721
4.18 118.963 74.100
4.19 114.319 74.634
4.20 107.225 73.669
4.21 101.762 72.134
4.22 95.952 70.647
4.23 99.083 69.421
4.24 97.979 69.281
4.25 98.100 69.895
4.26 105.518 70.433
4.27 107.620 71.000
4.28 109.844 71.780
4.29 111.092 72.490
4.30 111.619 72.710
4.31 112.853 72.464
4.32 111.575 71.994
4.33 110.059 71.461
4.34 109.200 71.178
4.35 108.427 71.186
4.36 108.895 71.414
4.37 109.474 71.813
4.38 109.947 72.372
4.39 111.097 72.965
4.40 115.616 72.809
4.41 112.732 72.145
4.42 109.788 72.009
4.43 106.721 71.565
4.44 99.607 70.651
4.45 100.868 70.136
4.46 113.508 71.339
4.47 119.756 73.908
4.48 145.847 76.273
4.49 150.940 77.499
4.50 151.384 77.374
4.51 147.385 76.359
4.52 145.470 75.119
4.53 142.318 73.719
4.54 136.822 72.034
4.55 131.194 69.962
4.56 125.963 67.896
4.57 121.931 66.717
4.58 119.312 66.133
4.59 116.879 65.791
4.60 112.358 65.486
4.61 112.116 65.674
4.62 112.177 66.497
4.63 111.620 67.478
4.64 111.832 68.742
4.65 110.878 70.065
4.66 106.370 70.801
4.67 105.933 71.070
4.68 105.534 71.242
4.69 105.344 71.432
4.70 105.331 71.692
4.71 106.774 71.961
4.72 106.814 72.136
4.73 107.002 72.164
4.74 107.191 71.891
4.75 107.133 70.889
4.76 104.960 68.774
4.77 102.979 65.947
4.78 108.650 64.565
4.79 118.866 67.699
4.80 128.770 72.123
4.81 131.654 74.875
4.82 131.763 75.860
4.83 132.436 76.155
4.84 135.108 76.544
4.85 136.892 77.271
4.86 137.386 77.988
4.87 137.922 78.158
4.88 138.905 77.792
4.89 140.235 77.238
4.90 141.970 76.761
4.91 142.166 76.074
4.92 140.418 74.966
4.93 137.555 73.296
4.94 135.079 71.109
4.95 123.578 68.522
4.96 --undefined-- 65.259
4.97 --undefined-- 60.849
4.98 75.860 58.103
4.99 78.765 58.726
5.00 --undefined-- 60.259
5.01 123.435 62.574
5.02 138.782 65.455
5.03 145.537 68.192
5.04 149.468 70.341
5.05 152.011 --undefined--
5.06 154.273 --undefined--
5.07 --undefined-- --undefined--
5.08 --undefined-- --undefined--
