Time Pitch Intensity
0.01 --undefined-- --undefined--
0.02 129.544 --undefined--
0.03 124.535 --undefined--
0.04 119.133 --undefined--
0.05 117.061 75.335
0.06 117.417 74.758
0.07 117.721 73.663
0.08 116.817 72.150
0.09 114.797 70.632
0.10 113.550 69.329
0.11 115.560 68.550
0.12 118.170 68.651
0.13 119.650 69.483
0.14 120.498 70.402
0.15 121.803 71.073
0.16 123.112 71.447
0.17 124.328 71.538
0.18 125.227 71.429
0.19 126.126 71.172
0.20 125.627 70.634
0.21 126.793 69.700
0.22 127.150 68.310
0.23 126.066 66.505
0.24 126.309 65.167
0.25 128.560 65.786
0.26 132.423 68.692
0.27 137.465 72.161
0.28 139.805 74.771
0.29 140.884 76.076
0.30 141.427 76.304
0.31 141.474 75.991
0.32 140.686 75.517
0.33 137.204 74.546
0.34 131.908 72.065
0.35 --undefined-- 66.939
0.36 --undefined-- 58.904
0.37 --undefined-- 50.471
0.38 --undefined-- 44.369
0.39 --undefined-- 41.750
0.40 --undefined-- 41.084
0.41 --undefined-- 43.139
0.42 --undefined-- 45.203
0.43 --undefined-- 44.353
0.44 --undefined-- 41.195
0.45 --undefined-- 40.693
0.46 --undefined-- 46.572
0.47 --undefined-- 52.453
0.48 --undefined-- 57.865
0.49 --undefined-- 65.274
0.50 161.758 71.649
0.51 161.043 75.546
0.52 155.941 77.233
0.53 147.433 77.259
0.54 141.540 76.181
0.55 138.695 74.707
0.56 138.622 73.404
0.57 139.861 72.664
0.58 139.815 72.338
0.59 140.061 72.044
0.60 140.829 71.739
0.61 140.891 71.403
0.62 139.459 71.165
0.63 137.688 71.176
0.64 132.952 71.434
0.65 127.314 72.572
0.66 131.254 74.181
0.67 136.600 75.384
0.68 137.602 75.923
0.69 138.308 76.170
0.70 136.253 76.154
0.71 135.046 75.320
0.72 --undefined-- 73.044
0.73 --undefined-- 68.525
0.74 --undefined-- 60.987
0.75 --undefined-- 52.191
0.76 --undefined-- 50.668
0.77 --undefined-- 50.384
0.78 --undefined-- 48.448
0.79 --undefined-- 46.722
0.80 --undefined-- 48.557
0.81 --undefined-- 53.645
0.82 --undefined-- 56.277
0.83 --undefined-- 55.756
0.84 --undefined-- 53.382
0.85 --undefined-- 52.437
0.86 --undefined-- 57.044
0.87 146.536 63.670
0.88 139.130 67.661
0.89 133.616 69.335
0.90 127.890 69.824
0.91 125.096 70.095
0.92 124.818 70.563
0.93 125.014 71.207
0.94 124.743 71.554
0.95 127.417 71.385
0.96 133.597 71.160
0.97 137.151 71.111
0.98 138.378 70.700
0.99 142.594 69.747
1.00 142.102 68.716
1.01 138.254 68.112
1.02 133.186 68.067
1.03 131.234 68.712
1.04 129.970 69.948
1.05 129.368 71.287
1.06 129.285 72.276
1.07 129.273 72.802
1.08 128.917 73.217
1.09 128.781 73.831
1.10 128.824 74.496
1.11 128.458 74.786
1.12 128.487 74.187
1.13 127.892 72.443
1.14 123.955 69.639
1.15 117.161 65.679
1.16 --undefined-- 60.008
1.17 --undefined-- 52.311
1.18 --undefined-- 45.276
1.19 --undefined-- 43.543
1.20 --undefined-- 42.867
1.21 --undefined-- 40.806
1.22 --undefined-- 38.064
1.23 --undefined-- 36.023
1.24 --undefined-- 34.766
1.25 --undefined-- 35.217
1.26 --undefined-- 36.541
1.27 --undefined-- 37.802
1.28 --undefined-- 38.186
1.29 --undefined-- 37.147
1.30 --undefined-- 36.232
1.31 --undefined-- 38.167
1.32 --undefined-- 39.682
1.33 --undefined-- 38.136
1.34 --undefined-- 34.032
1.35 --undefined-- 32.157
1.36 --undefined-- 33.771
1.37 --undefined-- 35.430
1.38 --undefined-- 35.623
1.39 --undefined-- 35.365
1.40 --undefined-- 36.134
1.41 --undefined-- 36.707
1.42 --undefined-- 37.122
1.43 --undefined-- 37.750
1.44 --undefined-- 37.713
1.45 --undefined-- 36.793
1.46 --undefined-- 35.730
1.47 --undefined-- 37.409
1.48 --undefined-- 39.324
1.49 --undefined-- 39.442
1.50 --undefined-- 38.757
1.51 --undefined-- 37.913
1.52 --undefined-- 36.567
1.53 --undefined-- 34.859
1.54 --undefined-- 33.977
1.55 --undefined-- 33.742
1.56 --undefined-- 33.802
1.57 --undefined-- 34.489
1.58 --undefined-- 35.719
1.59 --undefined-- 37.460
1.60 --undefined-- 39.205
1.61 --undefined-- 39.246
1.62 --undefined-- 38.288
1.63 --undefined-- 38.471
1.64 --undefined-- 38.930
1.65 --undefined-- 38.518
1.66 --undefined-- 37.998
1.67 --undefined-- 37.655
1.68 --undefined-- 36.840
1.69 --undefined-- 37.005
1.70 --undefined-- 38.365
1.71 --undefined-- 38.519
1.72 --undefined-- 37.530
1.73 --undefined-- 36.154
1.74 --undefined-- 34.322
1.75 --undefined-- 34.757
1.76 --undefined-- 35.366
1.77 --undefined-- 35.367
1.78 --undefined-- 37.779
1.79 --undefined-- 40.594
1.80 --undefined-- 40.996
1.81 --undefined-- 39.713
1.82 --undefined-- 38.794
1.83 --undefined-- 37.765
1.84 --undefined-- 39.199
1.85 --undefined-- 50.044
1.86 --undefined-- 60.877
1.87 --undefined-- 68.651
1.88 --undefined-- 73.622
1.89 144.025 76.588
1.90 139.518 78.286
1.91 138.006 78.912
1.92 138.666 78.607
1.93 135.356 77.999
1.94 135.059 77.416
1.95 136.901 76.666
1.96 138.037 75.430
1.97 138.026 73.720
1.98 138.498 71.914
1.99 138.450 70.345
2.00 134.508 69.378
2.01 134.160 69.453
2.02 134.834 70.761
2.03 137.063 72.820
2.04 137.561 74.929
2.05 137.409 76.507
2.06 136.470 77.293
2.07 136.092 77.466
2.08 136.706 77.406
2.09 137.489 77.354
2.10 137.694 77.275
2.11 137.745 77.127
2.12 138.211 76.965
2.13 138.403 76.742
2.14 138.614 76.346
2.15 138.222 75.770
2.16 137.664 75.123
2.17 137.574 74.324
2.18 137.906 73.067
2.19 135.929 71.086
2.20 130.370 68.640
2.21 --undefined-- 66.278
2.22 --undefined-- 63.253
2.23 --undefined-- 58.816
2.24 --undefined-- 53.104
2.25 --undefined-- 46.729
2.26 --undefined-- 44.118
2.27 --undefined-- 43.137
2.28 --undefined-- 39.609
2.29 --undefined-- 35.461
2.30 --undefined-- 36.142
2.31 --undefined-- 38.770
2.32 --undefined-- 39.971
2.33 --undefined-- 38.849
2.34 --undefined-- 36.671
2.35 --undefined-- 35.775
2.36 --undefined-- 35.328
2.37 --undefined-- 34.653
2.38 --undefined-- 33.743
2.39 --undefined-- 32.733
2.40 --undefined-- 32.976
2.41 --undefined-- 34.501
2.42 --undefined-- 35.619
2.43 --undefined-- 36.668
2.44 --undefined-- 36.996
2.45 --undefined-- 37.759
2.46 --undefined-- 40.018
2.47 --undefined-- 41.352
2.48 --undefined-- 43.949
2.49 --undefined-- 49.996
2.50 --undefined-- 56.141
2.51 --undefined-- 60.784
2.52 --undefined-- 63.025
2.53 --undefined-- 62.948
2.54 --undefined-- 61.834
2.55 --undefined-- 60.770
2.56 --undefined-- 59.634
2.57 --undefined-- 59.451
2.58 --undefined-- 61.416
2.59 119.062 64.103
2.60 114.478 66.581
2.61 115.560 68.916
2.62 118.247 71.331
2.63 123.152 73.829
2.64 129.884 75.950
2.65 133.481 77.322
2.66 138.544 78.143
2.67 146.310 78.934
2.68 152.627 79.341
2.69 163.131 79.126
2.70 178.973 78.990
2.71 183.810 78.686
2.72 187.569 76.874
2.73 199.886 72.814
2.74 183.290 67.410
2.75 172.475 62.796
2.76 170.218 58.450
2.77 --undefined-- 55.962
2.78 --undefined-- 61.517
2.79 --undefined-- 65.133
2.80 --undefined-- 66.203
2.81 --undefined-- 66.375
2.82 --undefined-- 65.917
2.83 --undefined-- 68.785
2.84 169.533 74.095
2.85 159.752 77.547
2.86 153.893 79.200
2.87 149.892 79.622
2.88 146.333 79.341
2.89 144.756 78.535
2.90 142.713 77.156
2.91 140.273 75.373
2.92 138.032 73.513
2.93 136.426 72.125
2.94 135.120 71.613
2.95 134.078 71.431
2.96 135.554 71.249
2.97 136.813 70.809
2.98 134.927 69.626
2.99 132.936 67.243
3.00 128.519 63.013
3.01 --undefined-- 56.533
3.02 --undefined-- 49.981
3.03 --undefined-- 48.832
3.04 --undefined-- 50.553
3.05 --undefined-- 53.993
3.06 --undefined-- 57.440
3.07 --undefined-- 59.241
3.08 --undefined-- 59.694
3.09 --undefined-- 60.909
3.10 --undefined-- 67.079
3.11 166.001 72.155
3.12 149.568 74.301
3.13 140.763 74.529
3.14 137.739 73.684
3.15 136.814 71.257
3.16 --undefined-- 66.553
3.17 --undefined-- 60.263
3.18 --undefined-- 53.812
3.19 --undefined-- 47.243
3.20 --undefined-- 41.629
3.21 --undefined-- 39.017
3.22 --undefined-- 37.995
3.23 --undefined-- 37.314
3.24 --undefined-- 42.109
3.25 --undefined-- 55.110
3.26 --undefined-- 65.148
3.27 --undefined-- 71.241
3.28 139.400 74.081
3.29 129.600 74.598
3.30 124.505 74.295
3.31 123.454 74.206
3.32 123.582 74.202
3.33 123.574 74.329
3.34 124.002 74.764
3.35 124.211 75.298
3.36 123.310 75.463
3.37 122.848 75.044
3.38 121.931 74.533
3.39 122.173 74.473
3.40 123.580 74.624
3.41 122.744 74.442
3.42 126.050 73.768
3.43 126.322 72.777
3.44 127.146 71.430
3.45 127.520 69.581
3.46 114.903 67.238
3.47 103.697 64.414
3.48 --undefined-- 60.288
3.49 --undefined-- 53.919
3.50 --undefined-- 47.935
3.51 --undefined-- 43.636
3.52 --undefined-- 39.303
3.53 --undefined-- 37.880
3.54 --undefined-- 37.451
3.55 --undefined-- 35.819
3.56 --undefined-- 35.842
3.57 --undefined-- 37.372
3.58 --undefined-- 37.557
3.59 --undefined-- 36.325
3.60 --undefined-- 34.981
3.61 --undefined-- 34.612
3.62 --undefined-- 34.862
3.63 --undefined-- 34.859
3.64 --undefined-- 35.039
3.65 --undefined-- 36.588
3.66 --undefined-- 37.797
3.67 --undefined-- 38.471
3.68 --undefined-- 39.517
3.69 --undefined-- 42.691
3.70 --undefined-- 50.166
3.71 --undefined-- 62.074
3.72 193.950 70.662
3.73 181.324 75.908
3.74 169.896 78.678
3.75 165.020 79.684
3.76 161.823 79.869
3.77 160.226 80.019
3.78 159.654 80.180
3.79 160.045 80.300
3.80 160.427 80.383
3.81 160.641 80.327
3.82 160.437 80.019
3.83 160.421 79.422
3.84 159.985 78.375
3.85 159.346 76.290
3.86 158.615 72.410
3.87 151.399 66.878
3.88 149.945 61.791
3.89 --undefined-- 57.222
3.90 --undefined-- 51.970
3.91 --undefined-- 53.968
3.92 --undefined-- 60.817
3.93 --undefined-- 66.273
3.94 --undefined-- 71.186
3.95 --undefined-- 74.408
3.96 137.579 75.840
3.97 126.380 76.230
3.98 125.576 75.973
3.99 123.772 75.393
4.00 121.440 75.197
4.01 119.981 75.398
4.02 118.628 75.289
4.03 118.043 74.622
4.04 118.024 73.840
4.05 118.611 73.532
4.06 119.225 73.848
4.07 120.477 74.365
4.08 121.549 74.649
4.09 121.950 74.505
4.10 121.493 73.994
4.11 120.940 73.387
4.12 120.770 72.748
4.13 120.360 71.986
4.14 119.877 70.820
4.15 116.039 68.949
4.16 116.576 66.485
4.17 --undefined-- 63.549
4.18 --undefined-- 58.601
4.19 --undefined-- 50.860
4.20 --undefined-- 43.712
4.21 --undefined-- 40.786
4.22 --undefined-- 39.012
4.23 --undefined-- 36.174
4.24 --undefined-- 34.191
4.25 --undefined-- 36.343
4.26 --undefined-- 39.091
4.27 --undefined-- 39.740
4.28 --undefined-- 39.749
4.29 --undefined-- 40.333
4.30 --undefined-- 40.870
4.31 --undefined-- 40.976
4.32 --undefined-- 40.073
4.33 --undefined-- 40.930
4.34 --undefined-- 48.232
4.35 --undefined-- 55.192
4.36 --undefined-- 58.368
4.37 --undefined-- 58.093
4.38 --undefined-- 55.879
4.39 --undefined-- 58.148
4.40 120.366 63.271
4.41 122.249 66.384
4.42 119.013 67.526
4.43 118.277 67.714
4.44 115.860 67.456
4.45 109.798 66.504
4.46 105.602 65.223
4.47 104.623 64.605
4.48 107.587 65.615
4.49 113.739 68.163
4.50 113.247 70.019
4.51 110.235 70.213
4.52 106.598 69.553
4.53 103.021 68.953
4.54 102.100 68.371
4.55 102.446 67.801
4.56 101.237 67.273
4.57 100.562 66.940
4.58 103.084 67.168
4.59 107.799 67.468
4.60 109.592 66.617
4.61 109.484 63.807
4.62 --undefined-- 58.534
4.63 --undefined-- 51.334
4.64 --undefined-- 45.710
4.65 --undefined-- 44.036
4.66 --undefined-- 43.948
4.67 --undefined-- 46.158
4.68 --undefined-- 50.253
4.69 --undefined-- 55.799
4.70 --undefined-- 64.233
4.71 --undefined-- 70.567
4.72 143.398 74.020
4.73 135.047 75.138
4.74 128.028 74.358
4.75 --undefined-- 71.865
4.76 --undefined-- 67.632
4.77 --undefined-- 62.061
4.78 --undefined-- 55.623
4.79 --undefined-- 48.594
4.80 --undefined-- 50.254
4.81 --undefined-- 54.488
4.82 --undefined-- 58.920
4.83 137.429 63.165
4.84 129.544 66.462
4.85 131.180 69.490
4.86 129.577 72.200
4.87 120.938 74.112
4.88 119.702 75.121
4.89 118.305 75.416
4.90 116.398 75.174
4.91 113.808 74.469
4.92 115.082 73.559
4.93 120.126 73.147
4.94 124.568 73.473
4.95 121.192 73.798
4.96 116.429 73.502
4.97 116.731 72.431
4.98 117.046 71.427
4.99 120.739 71.493
5.00 122.864 72.382
5.01 124.834 73.529
5.02 125.970 74.529
5.03 126.605 75.176
5.04 127.189 75.579
5.05 128.360 75.998
5.06 129.009 76.496
5.07 129.405 76.907
5.08 129.166 76.838
5.09 126.494 75.669
5.10 120.650 72.836
5.11 --undefined-- 67.965
5.12 --undefined-- 60.663
5.13 --undefined-- 52.517
5.14 --undefined-- 46.552
5.15 --undefined-- 41.703
5.16 --undefined-- 39.935
5.17 --undefined-- 39.721
5.18 --undefined-- 38.478
5.19 --undefined-- 35.709
5.20 --undefined-- 33.618
5.21 --undefined-- 34.726
5.22 --undefined-- 36.820
5.23 --undefined-- 37.926
5.24 --undefined-- 37.719
5.25 --undefined-- 38.006
5.26 --undefined-- 38.163
5.27 --undefined-- 37.717
5.28 --undefined-- 38.240
5.29 --undefined-- 38.541
5.30 --undefined-- 37.923
5.31 --undefined-- 37.299
5.32 --undefined-- 37.226
5.33 --undefined-- 36.122
5.34 --undefined-- 35.612
5.35 --undefined-- 36.523
5.36 --undefined-- 36.782
5.37 --undefined-- 37.007
5.38 --undefined-- 36.939
5.39 --undefined-- 36.217
5.40 --undefined-- 36.180
5.41 --undefined-- 36.298
5.42 --undefined-- 35.898
5.43 --undefined-- 35.547
5.44 --undefined-- 34.904
5.45 --undefined-- 35.570
5.46 --undefined-- 36.814
5.47 --undefined-- 36.897
5.48 --undefined-- 38.571
5.49 --undefined-- 40.040
5.50 --undefined-- 38.936
5.51 --undefined-- 37.715
5.52 --undefined-- 37.721
5.53 --undefined-- 36.778
5.54 --undefined-- 36.691
5.55 --undefined-- 37.388
5.56 --undefined-- 36.889
5.57 --undefined-- 35.408
5.58 --undefined-- 34.573
5.59 --undefined-- 35.869
5.60 --undefined-- 37.604
5.61 --undefined-- 37.398
5.62 --undefined-- 35.448
5.63 --undefined-- 35.059
5.64 --undefined-- 39.489
5.65 --undefined-- 42.908
5.66 --undefined-- 43.518
5.67 --undefined-- 42.657
5.68 --undefined-- 41.100
5.69 --undefined-- 39.010
5.70 --undefined-- 37.483
5.71 --undefined-- 36.734
5.72 --undefined-- 36.212
5.73 --undefined-- 35.845
5.74 --undefined-- 35.650
5.75 --undefined-- 36.492
5.76 --undefined-- 39.189
5.77 --undefined-- 41.080
5.78 --undefined-- 40.308
5.79 --undefined-- 37.323
5.80 --undefined-- 35.381
5.81 --undefined-- 34.576
5.82 --undefined-- 35.979
5.83 --undefined-- 48.293
5.84 --undefined-- 59.423
5.85 --undefined-- 67.242
5.86 --undefined-- 72.040
5.87 136.029 74.794
5.88 131.492 76.099
5.89 129.002 76.308
5.90 128.047 75.738
5.91 128.151 74.925
5.92 128.950 74.566
5.93 129.016 74.887
5.94 127.847 75.473
5.95 132.302 75.735
5.96 130.400 75.290
5.97 127.769 73.752
5.98 121.875 70.707
5.99 117.652 65.680
6.00 --undefined-- 58.897
6.01 --undefined-- 53.589
6.02 --undefined-- 52.118
6.03 --undefined-- 51.580
6.04 --undefined-- 54.398
6.05 --undefined-- 64.793
6.06 197.338 72.691
6.07 192.671 77.121
6.08 175.162 79.326
6.09 173.795 80.544
6.10 172.918 81.042
6.11 172.425 80.730
6.12 172.056 80.107
6.13 171.627 79.665
6.14 171.519 79.486
6.15 172.474 79.510
6.16 173.217 79.643
6.17 173.647 79.807
6.18 175.060 80.009
6.19 176.291 79.963
6.20 176.748 78.964
6.21 176.318 76.372
6.22 173.258 72.182
6.23 171.783 68.777
6.24 171.013 67.457
6.25 167.405 66.472
6.26 159.196 65.214
6.27 146.341 63.793
6.28 --undefined-- 61.930
6.29 --undefined-- 58.541
6.30 --undefined-- 52.832
6.31 --undefined-- 46.068
6.32 --undefined-- 41.369
6.33 --undefined-- 38.739
6.34 --undefined-- 38.325
6.35 --undefined-- 38.974
6.36 --undefined-- 39.458
6.37 --undefined-- 40.455
6.38 --undefined-- 40.708
6.39 --undefined-- 40.545
6.40 --undefined-- 40.656
6.41 --undefined-- 40.893
6.42 --undefined-- 41.662
6.43 --undefined-- 42.475
6.44 --undefined-- 42.334
6.45 --undefined-- 41.985
6.46 --undefined-- 42.107
6.47 --undefined-- 41.978
6.48 --undefined-- 41.350
6.49 --undefined-- 40.417
6.50 --undefined-- 38.925
6.51 --undefined-- 36.935
6.52 --undefined-- 35.831
6.53 --undefined-- 35.742
6.54 --undefined-- 36.355
6.55 --undefined-- 37.120
6.56 --undefined-- 36.998
6.57 --undefined-- 37.197
6.58 --undefined-- 38.092
6.59 --undefined-- 38.908
6.60 --undefined-- 39.683
6.61 --undefined-- 39.449
6.62 --undefined-- 38.775
6.63 --undefined-- 39.872
6.64 --undefined-- 41.617
6.65 --undefined-- 42.942
6.66 --undefined-- 44.691
6.67 --undefined-- 46.513
6.68 --undefined-- 47.126
6.69 --undefined-- 47.530
6.70 --undefined-- 50.170
6.71 --undefined-- 57.472
6.72 --undefined-- 67.828
6.73 190.408 74.898
6.74 177.885 79.064
6.75 175.161 81.341
6.76 164.330 82.338
6.77 163.639 82.640
6.78 164.990 82.824
6.79 165.938 82.494
6.80 166.114 80.976
6.81 164.617 78.054
6.82 --undefined-- 74.157
6.83 --undefined-- 70.289
6.84 --undefined-- 66.241
6.85 --undefined-- 61.153
6.86 --undefined-- 55.770
6.87 --undefined-- 50.798
6.88 --undefined-- 56.464
6.89 150.811 62.374
6.90 141.213 66.174
6.91 139.157 68.988
6.92 136.680 71.123
6.93 134.806 72.775
6.94 134.391 74.227
6.95 130.666 75.364
6.96 128.445 75.741
6.97 126.938 75.395
6.98 121.572 75.105
6.99 120.548 75.242
7.00 119.516 75.417
7.01 118.043 75.490
7.02 117.610 75.510
7.03 117.311 75.724
7.04 117.761 76.083
7.05 117.500 76.380
7.06 117.180 76.305
7.07 116.172 75.715
7.08 116.340 75.092
7.09 116.731 74.882
7.10 115.845 75.031
7.11 115.067 74.972
7.12 115.365 74.314
7.13 116.395 73.280
7.14 116.533 72.207
7.15 115.514 71.018
7.16 113.690 --undefined--
7.17 116.747 --undefined--
7.18 --undefined-- --undefined--
7.19 --undefined-- --undefined--
