Time Pitch Intensity
0.01 --undefined-- --undefined--
0.02 --undefined-- --undefined--
0.03 --undefined-- --undefined--
0.04 --undefined-- --undefined--
0.05 167.462 64.906
0.06 159.624 66.957
0.07 140.002 66.756
0.08 137.438 65.262
0.09 129.164 63.872
0.10 129.378 63.110
0.11 131.785 62.904
0.12 138.886 62.975
0.13 142.199 63.258
0.14 147.924 63.714
0.15 152.370 64.341
0.16 157.871 65.363
0.17 163.282 66.561
0.18 168.496 67.500
0.19 175.075 68.136
0.20 182.476 68.847
0.21 189.139 69.713
0.22 195.284 70.047
0.23 201.771 69.135
0.24 207.124 66.527
0.25 202.639 61.921
0.26 --undefined-- 55.068
0.27 --undefined-- 51.054
0.28 --undefined-- 56.380
0.29 --undefined-- 60.533
0.30 --undefined-- 65.009
0.31 --undefined-- 70.107
0.32 207.377 73.668
0.33 194.430 75.292
0.34 187.092 75.334
0.35 180.443 74.791
0.36 176.818 74.440
0.37 173.737 74.211
0.38 173.007 74.224
0.39 173.858 74.321
0.40 176.717 74.192
0.41 179.823 73.759
0.42 182.558 73.221
0.43 185.583 72.683
0.44 189.493 71.942
0.45 200.341 71.333
0.46 215.582 71.268
0.47 224.464 71.023
0.48 240.060 70.394
0.49 266.244 70.612
0.50 286.549 71.733
0.51 296.772 72.505
0.52 159.131 72.664
0.53 168.805 72.216
0.54 170.350 70.414
0.55 171.407 66.408
0.56 --undefined-- 59.923
0.57 --undefined-- 52.135
0.58 --undefined-- 46.827
0.59 --undefined-- 43.709
0.60 --undefined-- 40.594
0.61 --undefined-- 37.393
0.62 --undefined-- 35.965
0.63 --undefined-- 39.027
0.64 --undefined-- 41.103
0.65 --undefined-- 41.046
0.66 --undefined-- 39.871
0.67 --undefined-- 37.321
0.68 --undefined-- 33.968
0.69 --undefined-- 33.099
0.70 --undefined-- 33.931
0.71 --undefined-- 34.366
0.72 --undefined-- 35.179
0.73 --undefined-- 36.975
0.74 --undefined-- 38.304
0.75 --undefined-- 38.596
0.76 --undefined-- 38.103
0.77 --undefined-- 37.479
0.78 --undefined-- 37.503
0.79 --undefined-- 37.414
0.80 --undefined-- 36.568
0.81 --undefined-- 35.181
0.82 --undefined-- 32.845
0.83 --undefined-- 32.263
0.84 --undefined-- 37.808
0.85 --undefined-- 42.727
0.86 --undefined-- 47.747
0.87 --undefined-- 56.766
0.88 252.870 64.091
0.89 233.906 68.624
0.90 223.484 71.107
0.91 215.536 73.022
0.92 205.868 74.809
0.93 197.337 76.063
0.94 196.239 76.682
0.95 197.467 76.644
0.96 200.080 76.436
0.97 201.842 76.456
0.98 202.613 76.540
0.99 203.659 76.336
1.00 204.847 75.696
1.01 206.919 74.842
1.02 208.697 74.024
1.03 209.819 73.185
1.04 209.089 72.254
1.05 207.535 71.508
1.06 204.699 71.256
1.07 213.337 72.294
1.08 217.346 74.154
1.09 215.095 75.259
1.10 212.593 75.509
1.11 210.876 75.285
1.12 209.168 74.894
1.13 206.101 74.500
1.14 201.716 74.007
1.15 198.006 73.507
1.16 197.206 73.360
1.17 198.544 73.550
1.18 200.542 73.774
1.19 202.416 73.865
1.20 204.761 73.852
1.21 207.408 73.760
1.22 208.806 73.570
1.23 211.673 73.253
1.24 213.594 72.921
1.25 215.409 72.816
1.26 217.135 72.967
1.27 219.111 73.162
1.28 221.264 73.156
1.29 223.926 72.929
1.30 225.640 72.679
1.31 223.882 72.731
1.32 225.091 73.390
1.33 215.059 74.124
1.34 211.412 74.348
1.35 207.149 74.018
1.36 201.909 73.012
1.37 196.631 70.953
1.38 187.042 67.591
1.39 179.343 62.903
1.40 --undefined-- 57.226
1.41 --undefined-- 55.381
1.42 --undefined-- 55.825
1.43 --undefined-- 54.776
1.44 --undefined-- 54.523
1.45 --undefined-- 54.821
1.46 --undefined-- 53.557
1.47 --undefined-- 50.908
1.48 --undefined-- 48.981
1.49 --undefined-- 48.363
1.50 --undefined-- 48.008
1.51 --undefined-- 47.943
1.52 --undefined-- 48.350
1.53 --undefined-- 53.768
1.54 --undefined-- 64.055
1.55 168.891 70.944
1.56 167.718 74.167
1.57 167.732 74.779
1.58 169.386 74.173
1.59 170.581 73.353
1.60 171.607 72.546
1.61 172.273 72.077
1.62 171.904 72.439
1.63 169.613 72.981
1.64 166.463 72.549
1.65 159.604 70.867
1.66 154.560 69.507
1.67 154.993 69.744
1.68 151.614 70.311
1.69 293.535 70.719
1.70 271.636 71.761
1.71 252.444 73.844
1.72 237.391 75.284
1.73 --undefined-- 75.208
1.74 --undefined-- 74.497
1.75 --undefined-- 74.014
1.76 --undefined-- 73.418
1.77 161.732 72.042
1.78 154.326 69.598
1.79 149.528 67.579
1.80 149.317 67.224
1.81 154.856 67.219
1.82 160.439 67.238
1.83 162.980 67.250
1.84 164.452 67.132
1.85 164.881 66.904
1.86 163.522 66.652
1.87 161.641 66.422
1.88 159.341 66.226
1.89 159.819 66.529
1.90 162.501 67.734
1.91 160.573 68.864
1.92 157.450 69.325
1.93 153.424 69.406
1.94 149.122 69.282
1.95 152.529 69.078
1.96 152.292 68.768
1.97 152.479 68.339
1.98 152.058 67.844
1.99 151.449 67.443
2.00 150.901 67.359
2.01 152.436 67.751
2.02 154.459 68.283
2.03 155.161 68.655
2.04 156.478 68.904
2.05 157.355 69.084
2.06 158.560 69.201
2.07 158.871 69.282
2.08 157.570 69.239
2.09 157.181 68.487
2.10 153.965 66.138
2.11 152.437 61.566
2.12 162.191 55.261
2.13 162.406 51.245
2.14 --undefined-- 50.088
2.15 --undefined-- 49.310
2.16 --undefined-- 49.168
2.17 --undefined-- 48.979
2.18 --undefined-- 48.209
2.19 --undefined-- 48.422
2.20 --undefined-- 51.796
2.21 --undefined-- 59.516
2.22 212.771 65.988
2.23 200.498 69.952
2.24 196.588 72.248
2.25 189.396 73.590
2.26 184.351 74.252
2.27 181.732 74.353
2.28 179.658 74.150
2.29 178.363 73.975
2.30 177.449 73.817
2.31 177.396 73.474
2.32 178.317 72.926
2.33 179.766 72.193
2.34 180.218 71.211
2.35 179.306 69.904
2.36 183.231 68.193
2.37 188.870 65.602
2.38 176.444 61.348
2.39 177.476 55.576
2.40 179.843 50.910
2.41 --undefined-- 48.334
2.42 --undefined-- 45.957
2.43 --undefined-- 42.931
2.44 --undefined-- 38.659
2.45 --undefined-- 34.263
2.46 --undefined-- 32.417
2.47 --undefined-- 32.142
2.48 --undefined-- 32.603
2.49 --undefined-- 32.580
2.50 --undefined-- 31.244
2.51 --undefined-- 30.064
2.52 --undefined-- 29.607
2.53 --undefined-- 29.278
2.54 --undefined-- 28.588
2.55 --undefined-- 27.662
2.56 --undefined-- 27.607
2.57 --undefined-- 27.245
2.58 --undefined-- 27.734
2.59 --undefined-- 28.688
2.60 --undefined-- 28.926
2.61 --undefined-- 29.758
2.62 --undefined-- 29.944
2.63 --undefined-- 27.948
2.64 --undefined-- 24.846
2.65 --undefined-- 23.713
2.66 --undefined-- 25.125
2.67 --undefined-- 28.665
2.68 --undefined-- 34.068
2.69 --undefined-- 38.684
2.70 --undefined-- 41.716
2.71 --undefined-- 44.017
2.72 --undefined-- 46.187
2.73 --undefined-- 48.066
2.74 --undefined-- 51.971
2.75 --undefined-- 60.298
2.76 --undefined-- 67.105
2.77 194.618 70.905
2.78 186.759 72.483
2.79 186.713 72.795
2.80 186.453 72.654
2.81 183.943 72.639
2.82 181.769 72.928
2.83 180.409 73.418
2.84 179.962 73.908
2.85 180.898 74.201
2.86 182.247 74.178
2.87 183.406 73.903
2.88 184.317 73.483
2.89 184.871 72.991
2.90 184.906 72.558
2.91 185.730 72.251
2.92 185.677 71.961
2.93 185.670 71.676
2.94 187.255 71.661
2.95 191.569 72.334
2.96 190.245 73.486
2.97 186.309 74.518
2.98 182.757 75.107
2.99 180.521 75.187
3.00 179.483 75.126
3.01 178.664 75.113
3.02 177.968 74.935
3.03 176.216 74.528
3.04 174.028 73.963
3.05 172.468 73.347
3.06 171.377 72.868
3.07 171.316 72.461
3.08 172.904 71.912
3.09 174.155 71.235
3.10 175.296 70.460
3.11 176.076 69.311
3.12 177.510 67.257
3.13 177.532 63.807
3.14 177.081 58.804
3.15 177.002 53.296
3.16 --undefined-- 49.924
3.17 --undefined-- 47.588
3.18 --undefined-- 44.373
3.19 --undefined-- 41.658
3.20 --undefined-- 46.958
3.21 --undefined-- 54.640
3.22 --undefined-- 61.342
3.23 --undefined-- 68.293
3.24 233.343 73.252
3.25 215.988 75.626
3.26 208.858 75.983
3.27 204.534 75.319
3.28 200.687 74.212
3.29 191.758 72.308
3.30 182.178 68.999
3.31 171.292 63.737
3.32 --undefined-- 56.450
3.33 196.702 51.889
3.34 192.565 51.856
3.35 --undefined-- 50.445
3.36 --undefined-- 48.590
3.37 --undefined-- 46.913
3.38 --undefined-- 45.185
3.39 --undefined-- 44.949
3.40 --undefined-- 45.443
3.41 --undefined-- 45.744
3.42 --undefined-- 46.451
3.43 --undefined-- 47.698
3.44 --undefined-- 48.360
3.45 --undefined-- 47.997
3.46 --undefined-- 47.258
3.47 --undefined-- 46.983
3.48 --undefined-- 48.657
3.49 --undefined-- 51.579
3.50 --undefined-- 59.035
3.51 --undefined-- 66.701
3.52 204.816 71.577
3.53 197.714 74.557
3.54 191.119 76.314
3.55 191.884 76.870
3.56 199.652 76.249
3.57 216.656 74.624
3.58 238.823 72.547
3.59 254.471 71.146
3.60 266.264 70.826
3.61 278.248 71.369
3.62 285.339 72.404
3.63 285.181 72.982
3.64 279.649 72.314
3.65 275.078 69.688
3.66 287.156 64.503
3.67 --undefined-- 57.455
3.68 --undefined-- 53.644
3.69 --undefined-- 53.678
3.70 --undefined-- 54.425
3.71 --undefined-- 54.440
3.72 --undefined-- 58.222
3.73 --undefined-- 67.083
3.74 297.325 72.950
3.75 292.635 75.760
3.76 268.866 76.516
3.77 224.095 76.095
3.78 214.877 75.260
3.79 211.669 74.518
3.80 208.073 74.053
3.81 203.607 73.785
3.82 200.084 73.507
3.83 197.595 73.145
3.84 195.512 72.870
3.85 194.755 72.808
3.86 195.145 72.713
3.87 195.385 72.352
3.88 193.964 71.552
3.89 188.880 69.901
3.90 180.077 67.112
3.91 175.220 65.116
3.92 187.687 67.937
3.93 188.634 71.395
3.94 186.474 73.090
3.95 178.277 73.491
3.96 168.226 73.406
3.97 164.106 73.028
3.98 158.735 71.991
3.99 153.205 70.501
4.00 149.582 68.982
4.01 145.842 66.800
4.02 135.700 63.307
4.03 131.032 59.268
4.04 --undefined-- 56.056
4.05 --undefined-- 53.545
4.06 --undefined-- 52.168
4.07 --undefined-- 50.851
4.08 --undefined-- 49.565
4.09 --undefined-- 50.109
4.10 173.604 51.514
4.11 157.872 52.050
4.12 159.504 52.316
4.13 153.436 51.776
4.14 --undefined-- 49.879
4.15 --undefined-- 46.921
4.16 --undefined-- 42.889
4.17 --undefined-- 39.855
4.18 --undefined-- 38.432
4.19 --undefined-- 37.494
4.20 --undefined-- 41.442
4.21 --undefined-- 47.381
4.22 --undefined-- 57.090
4.23 --undefined-- 66.385
4.24 239.513 71.940
4.25 227.364 74.337
4.26 216.265 74.550
4.27 207.831 73.505
4.28 201.330 71.789
4.29 194.851 70.019
4.30 192.654 69.301
4.31 193.130 69.694
4.32 195.059 70.334
4.33 197.217 70.858
4.34 199.250 71.269
4.35 201.096 71.670
4.36 201.943 71.961
4.37 204.471 71.754
4.38 205.457 70.678
4.39 197.274 68.696
4.40 189.864 66.072
4.41 189.276 63.366
4.42 --undefined-- 62.727
4.43 --undefined-- 64.387
4.44 --undefined-- 65.661
4.45 210.778 66.223
4.46 219.597 68.134
4.47 209.408 70.001
4.48 190.097 70.573
4.49 174.884 69.896
4.50 164.963 68.109
4.51 154.199 66.207
4.52 152.702 65.460
4.53 152.395 65.805
4.54 156.993 66.351
4.55 164.945 66.501
4.56 172.200 66.183
4.57 176.156 65.511
4.58 179.283 65.143
4.59 178.370 65.411
4.60 175.335 65.571
4.61 172.500 64.842
4.62 173.529 62.783
4.63 178.513 59.466
4.64 --undefined-- 56.837
4.65 --undefined-- 57.041
4.66 --undefined-- 60.582
4.67 203.109 66.038
4.68 194.933 69.514
4.69 193.084 71.078
4.70 191.382 71.805
4.71 190.397 72.161
4.72 189.607 72.253
4.73 188.277 72.126
4.74 186.544 71.806
4.75 185.967 71.521
4.76 186.009 71.347
4.77 185.582 71.161
4.78 183.194 71.039
4.79 180.709 70.992
4.80 178.635 70.950
4.81 177.713 70.822
4.82 178.003 70.508
4.83 177.661 69.582
4.84 173.612 67.146
4.85 168.845 62.214
4.86 179.322 55.180
4.87 --undefined-- 50.199
4.88 --undefined-- 48.862
4.89 --undefined-- 47.029
4.90 --undefined-- 43.949
4.91 --undefined-- 41.383
4.92 --undefined-- 48.094
4.93 --undefined-- 60.476
4.94 --undefined-- 68.261
4.95 212.664 72.392
4.96 200.791 74.031
4.97 193.005 74.236
4.98 189.436 73.885
4.99 187.291 73.653
5.00 186.072 73.675
5.01 185.791 73.786
5.02 185.822 73.786
5.03 186.438 73.647
5.04 187.561 73.595
5.05 187.595 73.716
5.06 187.769 73.959
5.07 188.261 74.267
5.08 188.772 74.469
5.09 189.551 74.327
5.10 190.133 73.664
5.11 188.289 72.287
5.12 178.236 69.945
5.13 167.289 66.790
5.14 172.895 62.676
5.15 187.818 57.038
5.16 --undefined-- 51.104
5.17 --undefined-- 48.992
5.18 --undefined-- 51.761
5.19 --undefined-- 56.906
5.20 --undefined-- 60.258
5.21 --undefined-- 61.352
5.22 --undefined-- 64.474
5.23 203.898 69.099
5.24 191.451 71.654
5.25 183.280 72.442
5.26 173.004 72.594
5.27 166.468 72.747
5.28 158.633 72.516
5.29 154.405 72.139
5.30 153.411 72.353
5.31 153.683 72.788
5.32 154.963 72.930
5.33 156.705 73.048
5.34 161.327 73.471
5.35 167.103 74.006
5.36 175.724 74.357
5.37 184.067 74.538
5.38 190.435 74.489
5.39 198.348 74.125
5.40 203.404 73.809
5.41 205.915 73.622
5.42 206.996 72.662
5.43 202.509 70.050
5.44 193.095 65.665
5.45 192.948 59.529
5.46 198.833 53.608
5.47 201.061 52.020
5.48 198.820 51.099
5.49 --undefined-- 48.848
5.50 --undefined-- 45.274
5.51 --undefined-- 41.742
5.52 --undefined-- 39.294
5.53 --undefined-- 37.038
5.54 --undefined-- 33.935
5.55 --undefined-- 31.231
5.56 --undefined-- 30.170
5.57 --undefined-- 28.867
5.58 --undefined-- 26.041
5.59 --undefined-- 23.686
5.60 --undefined-- 24.933
5.61 --undefined-- 25.586
5.62 --undefined-- 25.200
5.63 --undefined-- 24.904
5.64 --undefined-- 24.249
5.65 --undefined-- 24.413
5.66 --undefined-- 27.125
5.67 --undefined-- 31.102
5.68 --undefined-- 34.008
5.69 --undefined-- 35.666
5.70 --undefined-- 36.600
5.71 --undefined-- 37.364
5.72 --undefined-- 38.056
5.73 --undefined-- 38.635
5.74 --undefined-- 38.831
5.75 --undefined-- 38.787
5.76 --undefined-- 39.127
5.77 --undefined-- 39.819
5.78 --undefined-- 40.080
5.79 --undefined-- 40.538
5.80 --undefined-- 41.192
5.81 --undefined-- 41.104
5.82 --undefined-- 40.598
5.83 --undefined-- 40.129
5.84 --undefined-- 39.710
5.85 --undefined-- 39.293
5.86 --undefined-- 38.759
5.87 --undefined-- 37.661
5.88 --undefined-- 36.294
5.89 --undefined-- 35.233
5.90 --undefined-- 37.702
5.91 --undefined-- 41.804
5.92 --undefined-- 42.365
5.93 --undefined-- 39.164
5.94 --undefined-- 36.135
5.95 --undefined-- 39.087
5.96 --undefined-- 49.957
5.97 243.829 57.779
5.98 229.040 62.215
5.99 173.197 64.738
6.00 170.668 --undefined--
6.01 167.901 --undefined--
6.02 --undefined-- --undefined--
6.03 --undefined-- --undefined--
