Time Pitch Intensity
0.01 --undefined-- --undefined--
0.02 188.106 --undefined--
0.03 195.128 --undefined--
0.04 202.079 --undefined--
0.05 209.349 63.628
0.06 214.907 64.211
0.07 216.502 65.271
0.08 214.585 65.741
0.09 210.807 65.890
0.10 206.992 65.992
0.11 202.081 66.005
0.12 197.283 65.919
0.13 192.024 65.099
0.14 183.248 62.583
0.15 177.121 58.103
0.16 186.978 52.784
0.17 193.702 49.765
0.18 --undefined-- 51.756
0.19 --undefined-- 57.872
0.20 233.213 63.951
0.21 225.944 67.650
0.22 223.565 69.556
0.23 222.587 70.605
0.24 221.556 71.578
0.25 221.344 72.616
0.26 222.495 73.333
0.27 224.475 73.773
0.28 226.964 74.286
0.29 227.302 74.906
0.30 226.543 75.204
0.31 224.488 74.637
0.32 220.014 73.354
0.33 213.638 71.983
0.34 208.182 69.771
0.35 --undefined-- 66.006
0.36 --undefined-- 62.022
0.37 --undefined-- 58.674
0.38 --undefined-- 55.715
0.39 --undefined-- 53.474
0.40 --undefined-- 51.729
0.41 --undefined-- 49.653
0.42 --undefined-- 48.746
0.43 --undefined-- 50.147
0.44 --undefined-- 50.523
0.45 --undefined-- 51.299
0.46 --undefined-- 53.140
0.47 --undefined-- 52.520
0.48 --undefined-- 50.273
0.49 --undefined-- 51.999
0.50 --undefined-- 53.835
0.51 --undefined-- 52.302
0.52 --undefined-- 47.070
0.53 --undefined-- 42.292
0.54 --undefined-- 44.844
0.55 --undefined-- 47.317
0.56 --undefined-- 49.234
0.57 --undefined-- 50.097
0.58 --undefined-- 49.212
0.59 --undefined-- 48.222
0.60 --undefined-- 47.489
0.61 --undefined-- 47.047
0.62 --undefined-- 48.331
0.63 --undefined-- 50.644
0.64 --undefined-- 53.437
0.65 --undefined-- 54.384
0.66 --undefined-- 53.336
0.67 --undefined-- 51.830
0.68 --undefined-- 50.889
0.69 --undefined-- 50.636
0.70 --undefined-- 50.884
0.71 --undefined-- 50.562
0.72 --undefined-- 49.883
0.73 --undefined-- 50.504
0.74 --undefined-- 52.433
0.75 --undefined-- 53.505
0.76 --undefined-- 53.096
0.77 --undefined-- 52.045
0.78 --undefined-- 51.625
0.79 --undefined-- 50.797
0.80 --undefined-- 49.324
0.81 --undefined-- 48.715
0.82 --undefined-- 48.587
0.83 --undefined-- 47.701
0.84 --undefined-- 47.779
0.85 --undefined-- 49.635
0.86 --undefined-- 49.697
0.87 --undefined-- 47.873
0.88 --undefined-- 46.629
0.89 --undefined-- 47.515
0.90 --undefined-- 50.807
0.91 --undefined-- 52.881
0.92 --undefined-- 54.105
0.93 --undefined-- 56.320
0.94 --undefined-- 61.899
0.95 167.043 67.784
0.96 162.906 71.350
0.97 164.116 73.149
0.98 166.160 74.020
0.99 167.645 74.454
1.00 168.480 74.720
1.01 168.295 74.912
1.02 168.121 75.006
1.03 167.310 74.980
1.04 165.255 74.798
1.05 163.096 74.357
1.06 163.397 73.572
1.07 165.508 72.167
1.08 163.152 69.789
1.09 159.290 67.385
1.10 161.753 66.608
1.11 166.153 67.266
1.12 170.136 68.278
1.13 170.362 69.025
1.14 167.584 69.686
1.15 166.902 70.689
1.16 165.425 72.038
1.17 162.360 72.994
1.18 160.406 72.765
1.19 159.304 71.143
1.20 158.037 68.440
1.21 157.259 64.757
1.22 158.251 59.982
1.23 159.733 56.158
1.24 159.603 54.043
1.25 159.269 51.619
1.26 --undefined-- 48.923
1.27 --undefined-- 46.121
1.28 --undefined-- 45.735
1.29 --undefined-- 52.070
1.30 --undefined-- 56.680
1.31 --undefined-- 58.132
1.32 206.862 58.104
1.33 204.237 58.541
1.34 227.006 60.268
1.35 233.222 62.422
1.36 211.268 64.459
1.37 181.219 66.510
1.38 178.833 67.836
1.39 174.245 68.258
1.40 173.513 68.398
1.41 172.697 68.623
1.42 172.505 68.829
1.43 172.477 68.764
1.44 172.280 68.355
1.45 171.499 67.701
1.46 174.123 67.587
1.47 183.986 67.864
1.48 184.373 66.710
1.49 184.273 63.059
1.50 185.290 57.046
1.51 --undefined-- 52.519
1.52 --undefined-- 57.844
1.53 --undefined-- 64.920
1.54 247.789 69.135
1.55 249.784 70.621
1.56 256.054 70.624
1.57 269.503 70.535
1.58 280.829 70.211
1.59 --undefined-- 69.343
1.60 157.759 67.611
1.61 --undefined-- 64.009
1.62 --undefined-- 58.035
1.63 --undefined-- 52.004
1.64 --undefined-- 49.812
1.65 --undefined-- 53.699
1.66 --undefined-- 61.082
1.67 261.353 66.266
1.68 242.656 68.874
1.69 227.290 69.475
1.70 216.367 69.067
1.71 214.297 68.801
1.72 215.155 69.249
1.73 218.381 70.252
1.74 222.209 71.127
1.75 231.495 71.005
1.76 242.222 69.577
1.77 254.039 67.492
1.78 260.261 65.998
1.79 264.691 64.989
1.80 265.861 63.231
1.81 248.736 60.061
1.82 244.803 56.429
1.83 247.449 53.987
1.84 --undefined-- 51.403
1.85 --undefined-- 49.848
1.86 --undefined-- 51.767
1.87 --undefined-- 53.089
1.88 --undefined-- 53.308
1.89 --undefined-- 54.006
1.90 --undefined-- 55.126
1.91 236.106 58.873
1.92 231.980 63.026
1.93 227.238 65.737
1.94 213.881 67.658
1.95 205.219 69.142
1.96 206.374 69.728
1.97 216.177 69.496
1.98 225.682 69.459
1.99 230.301 69.627
2.00 243.455 69.513
2.01 246.831 69.045
2.02 253.011 68.404
2.03 259.527 67.667
2.04 261.017 66.762
2.05 264.974 65.993
2.06 266.331 65.066
2.07 264.322 63.781
2.08 254.364 62.330
2.09 --undefined-- 60.712
2.10 --undefined-- 58.734
2.11 --undefined-- 56.413
2.12 --undefined-- 55.129
2.13 --undefined-- 55.975
2.14 --undefined-- 57.116
2.15 --undefined-- 57.201
2.16 --undefined-- 57.407
2.17 --undefined-- 59.780
2.18 93.734 63.751
2.19 96.319 67.078
2.20 97.440 69.033
2.21 192.460 69.772
2.22 184.427 69.708
2.23 180.664 69.224
2.24 178.245 68.806
2.25 175.979 68.771
2.26 176.652 69.301
2.27 176.162 70.379
2.28 177.400 71.116
2.29 179.635 71.158
2.30 183.969 70.774
2.31 187.590 70.187
2.32 194.596 69.346
2.33 200.106 68.049
2.34 207.212 66.430
2.35 207.873 65.268
2.36 208.909 64.540
2.37 209.746 64.183
2.38 208.998 64.487
2.39 208.382 65.259
2.40 208.092 66.213
2.41 205.292 67.064
2.42 203.778 68.000
2.43 202.535 69.362
2.44 200.832 70.547
2.45 198.170 70.762
2.46 197.360 70.276
2.47 199.882 69.937
2.48 202.796 70.142
2.49 204.573 69.980
2.50 204.908 68.670
2.51 203.348 67.085
2.52 205.570 66.320
2.53 206.430 66.064
2.54 206.855 65.931
2.55 207.661 65.851
2.56 208.347 65.934
2.57 207.770 66.058
2.58 206.479 66.036
2.59 205.662 66.097
2.60 204.073 66.493
2.61 204.649 66.977
2.62 206.157 67.333
2.63 207.784 67.636
2.64 209.180 67.830
2.65 210.338 67.841
2.66 210.609 67.635
2.67 209.938 67.171
2.68 207.724 66.256
2.69 200.982 64.253
2.70 187.067 60.614
2.71 196.055 55.800
2.72 205.848 51.213
2.73 --undefined-- 52.569
2.74 --undefined-- 59.474
2.75 --undefined-- 64.646
2.76 179.347 67.526
2.77 170.937 68.427
2.78 164.468 67.999
2.79 163.225 66.779
2.80 163.140 64.931
2.81 167.237 63.660
2.82 175.699 64.069
2.83 184.823 65.271
2.84 192.717 66.201
2.85 202.161 66.233
2.86 217.124 66.113
2.87 229.473 66.635
2.88 237.359 66.672
2.89 240.916 65.252
2.90 238.643 61.671
2.91 --undefined-- 55.351
2.92 --undefined-- 48.859
2.93 --undefined-- 48.525
2.94 --undefined-- 50.244
2.95 --undefined-- 53.553
2.96 247.488 58.466
2.97 230.064 61.875
2.98 201.057 63.573
2.99 182.549 64.411
3.00 170.623 64.504
3.01 164.493 63.957
3.02 163.258 63.343
3.03 161.938 62.724
3.04 162.034 62.040
3.05 163.766 61.417
3.06 165.171 61.030
3.07 165.285 60.840
3.08 166.054 60.748
3.09 165.094 60.527
3.10 163.782 59.658
3.11 161.350 57.764
3.12 152.039 55.372
3.13 155.018 53.621
3.14 160.408 52.199
3.15 --undefined-- 50.058
3.16 --undefined-- 46.883
3.17 --undefined-- 49.191
3.18 --undefined-- 53.275
3.19 --undefined-- 54.227
3.20 --undefined-- 53.128
3.21 --undefined-- 54.909
3.22 --undefined-- 60.418
3.23 197.561 65.533
3.24 193.133 69.322
3.25 192.069 71.711
3.26 192.563 72.983
3.27 193.491 73.709
3.28 195.267 74.354
3.29 197.715 74.765
3.30 200.003 74.431
3.31 200.520 73.396
3.32 201.181 72.360
3.33 203.357 71.383
3.34 205.186 69.622
3.35 209.365 66.961
3.36 212.931 65.175
3.37 211.686 65.111
3.38 213.139 65.447
3.39 213.061 65.354
3.40 212.503 64.966
3.41 210.980 64.745
3.42 208.822 64.697
3.43 207.308 64.711
3.44 206.366 64.807
3.45 204.659 64.967
3.46 203.259 65.127
3.47 200.236 64.942
3.48 192.799 63.878
3.49 186.232 61.384
3.50 184.029 57.949
3.51 --undefined-- 58.388
3.52 --undefined-- 61.286
3.53 195.133 63.629
3.54 195.403 66.076
3.55 195.597 68.622
3.56 195.573 70.408
3.57 193.930 71.444
3.58 192.783 72.066
3.59 193.171 72.265
3.60 193.947 72.099
3.61 194.915 71.773
3.62 195.815 71.147
3.63 196.950 69.977
3.64 202.246 68.399
3.65 206.201 67.041
3.66 207.638 66.051
3.67 205.087 64.548
3.68 187.329 61.680
3.69 188.922 57.593
3.70 195.278 53.954
3.71 --undefined-- 53.159
3.72 --undefined-- 53.765
3.73 --undefined-- 54.038
3.74 --undefined-- 56.132
3.75 --undefined-- 59.390
3.76 275.180 63.531
3.77 264.162 67.469
3.78 263.526 70.225
3.79 262.883 71.708
3.80 262.216 72.182
3.81 263.606 72.307
3.82 265.785 72.402
3.83 266.379 72.007
3.84 267.861 70.762
3.85 271.268 69.292
3.86 272.413 68.175
3.87 272.616 67.077
3.88 267.583 65.871
3.89 261.319 64.301
3.90 257.409 62.460
3.91 --undefined-- 60.504
3.92 --undefined-- 58.323
3.93 --undefined-- 56.527
3.94 --undefined-- 54.874
3.95 --undefined-- 53.379
3.96 --undefined-- 52.497
3.97 --undefined-- 51.582
3.98 --undefined-- 51.653
3.99 --undefined-- 51.630
4.00 --undefined-- 49.723
4.01 --undefined-- 48.213
4.02 --undefined-- 50.499
4.03 --undefined-- 51.906
4.04 --undefined-- 51.535
4.05 --undefined-- 51.262
4.06 --undefined-- 50.643
4.07 --undefined-- 50.148
4.08 220.643 55.105
4.09 205.874 60.259
4.10 197.368 63.802
4.11 193.542 66.279
4.12 192.689 68.061
4.13 190.076 69.233
4.14 187.833 69.673
4.15 185.678 68.756
4.16 184.082 65.761
4.17 183.797 60.660
4.18 176.876 56.171
4.19 197.996 58.881
4.20 200.796 63.237
4.21 197.432 65.254
4.22 192.246 65.781
4.23 188.507 66.102
4.24 186.831 66.295
4.25 186.553 66.309
4.26 186.650 66.343
4.27 186.764 66.169
4.28 186.542 65.459
4.29 185.857 63.980
4.30 183.088 61.432
4.31 182.341 57.480
4.32 185.337 53.171
4.33 186.426 50.152
4.34 --undefined-- 48.794
4.35 --undefined-- 47.883
4.36 --undefined-- 48.172
4.37 --undefined-- 51.142
4.38 --undefined-- 52.623
4.39 --undefined-- 51.046
4.40 --undefined-- 46.743
4.41 --undefined-- 45.882
4.42 --undefined-- 51.022
4.43 --undefined-- 57.272
4.44 207.179 61.710
4.45 194.269 64.144
4.46 188.247 65.485
4.47 186.638 66.475
4.48 185.351 67.222
4.49 185.180 67.779
4.50 185.475 68.360
4.51 185.584 68.810
4.52 186.117 68.961
4.53 187.102 68.975
4.54 187.086 68.836
4.55 186.667 68.334
4.56 185.697 67.154
4.57 182.860 64.927
4.58 180.173 61.382
4.59 187.285 56.925
4.60 186.866 52.775
4.61 187.016 49.900
4.62 --undefined-- 48.390
4.63 --undefined-- 49.584
4.64 --undefined-- 53.652
4.65 --undefined-- 59.118
4.66 --undefined-- 62.560
4.67 --undefined-- 63.827
4.68 --undefined-- 63.465
4.69 --undefined-- 61.765
4.70 --undefined-- 58.958
4.71 --undefined-- 56.343
4.72 --undefined-- 56.484
4.73 --undefined-- 57.491
4.74 171.714 57.807
4.75 178.641 58.140
4.76 182.239 59.225
4.77 167.039 60.406
4.78 166.316 61.210
4.79 169.462 61.755
4.80 174.219 62.182
4.81 170.768 62.144
4.82 167.483 61.608
4.83 167.425 61.037
4.84 169.578 60.735
4.85 171.922 60.710
4.86 172.894 60.483
4.87 173.531 59.586
4.88 175.268 57.601
4.89 180.947 54.697
4.90 --undefined-- 53.404
4.91 --undefined-- 54.997
4.92 --undefined-- 58.865
4.93 237.730 63.918
4.94 223.938 67.436
4.95 218.489 68.915
4.96 215.355 69.075
4.97 214.714 68.698
4.98 215.222 68.059
4.99 216.465 67.249
5.00 217.239 66.440
5.01 217.247 66.090
5.02 217.885 --undefined--
5.03 218.294 --undefined--
5.04 --undefined-- --undefined--
5.05 --undefined-- --undefined--
