Time Pitch Intensity
0.01 --undefined-- --undefined--
0.02 182.360 --undefined--
0.03 181.083 --undefined--
0.04 180.645 --undefined--
0.05 180.976 70.396
0.06 182.061 69.961
0.07 182.898 69.229
0.08 183.059 68.154
0.09 182.834 66.448
0.10 180.919 63.618
0.11 174.625 60.004
0.12 176.748 56.986
0.13 177.776 56.716
0.14 185.237 61.198
0.15 180.912 65.447
0.16 177.246 68.047
0.17 174.164 68.950
0.18 172.218 68.313
0.19 171.339 66.855
0.20 172.446 65.870
0.21 175.591 66.141
0.22 177.109 66.932
0.23 178.297 67.694
0.24 178.961 68.300
0.25 179.772 68.667
0.26 181.280 68.880
0.27 183.931 68.930
0.28 187.729 68.724
0.29 191.819 68.250
0.30 193.646 67.771
0.31 193.221 67.814
0.32 192.680 68.404
0.33 193.166 68.980
0.34 193.685 69.215
0.35 194.707 69.122
0.36 196.483 68.761
0.37 199.259 68.401
0.38 202.360 67.963
0.39 202.927 66.452
0.40 198.172 62.933
0.41 200.249 57.109
0.42 201.172 51.510
0.43 --undefined-- 50.254
0.44 --undefined-- 50.481
0.45 --undefined-- 51.301
0.46 --undefined-- 52.582
0.47 --undefined-- 53.408
0.48 --undefined-- 55.374
0.49 --undefined-- 57.544
0.50 --undefined-- 57.176
0.51 --undefined-- 57.160
0.52 237.556 62.753
0.53 228.706 66.857
0.54 224.661 68.502
0.55 220.996 68.643
0.56 218.060 68.222
0.57 216.038 67.656
0.58 214.129 66.688
0.59 210.814 64.805
0.60 201.914 61.519
0.61 198.702 56.396
0.62 --undefined-- 49.824
0.63 --undefined-- 45.453
0.64 --undefined-- 44.400
0.65 --undefined-- 45.602
0.66 --undefined-- 55.090
0.67 --undefined-- 63.616
0.68 --undefined-- 68.173
0.69 --undefined-- 69.685
0.70 --undefined-- 68.814
0.71 --undefined-- 65.738
0.72 --undefined-- 60.381
0.73 --undefined-- 53.628
0.74 --undefined-- 48.153
0.75 --undefined-- 44.284
0.76 --undefined-- 41.642
0.77 --undefined-- 42.230
0.78 --undefined-- 43.443
0.79 --undefined-- 48.295
0.80 --undefined-- 57.485
0.81 --undefined-- 63.944
0.82 --undefined-- 67.767
0.83 --undefined-- 69.739
0.84 --undefined-- 70.778
0.85 177.980 71.200
0.86 178.825 71.114
0.87 177.936 70.859
0.88 175.457 70.541
0.89 174.912 70.451
0.90 173.484 70.585
0.91 171.479 70.559
0.92 170.387 70.301
0.93 170.087 69.846
0.94 170.299 69.384
0.95 170.767 68.895
0.96 171.272 68.141
0.97 172.732 67.227
0.98 174.469 66.609
0.99 175.519 66.323
1.00 175.414 65.815
1.01 174.009 64.644
1.02 168.331 62.474
1.03 159.940 58.798
1.04 161.565 53.646
1.05 --undefined-- 52.726
1.06 173.445 58.191
1.07 145.144 61.665
1.08 140.527 63.242
1.09 136.565 63.797
1.10 136.276 63.619
1.11 135.772 62.092
1.12 131.617 58.915
1.13 --undefined-- 55.112
1.14 --undefined-- 51.857
1.15 --undefined-- 50.558
1.16 --undefined-- 57.629
1.17 192.167 63.710
1.18 189.708 66.828
1.19 191.019 68.148
1.20 194.849 68.708
1.21 199.034 68.939
1.22 202.980 69.048
1.23 205.256 69.075
1.24 206.899 68.746
1.25 208.481 68.047
1.26 209.222 67.429
1.27 207.947 67.168
1.28 203.087 67.054
1.29 196.334 66.994
1.30 190.961 66.770
1.31 187.930 66.121
1.32 188.491 65.280
1.33 186.975 64.459
1.34 186.787 63.878
1.35 188.667 64.051
1.36 197.952 65.671
1.37 201.042 67.952
1.38 204.608 69.816
1.39 210.022 71.145
1.40 216.416 72.158
1.41 221.949 72.906
1.42 228.268 73.215
1.43 236.437 73.041
1.44 245.955 72.510
1.45 255.417 71.838
1.46 264.809 70.774
1.47 272.123 68.800
1.48 278.339 65.483
1.49 271.171 60.246
1.50 --undefined-- 52.961
1.51 --undefined-- 49.476
1.52 --undefined-- 51.307
1.53 --undefined-- 52.760
1.54 --undefined-- 53.154
1.55 --undefined-- 53.427
1.56 --undefined-- 53.503
1.57 --undefined-- 53.426
1.58 --undefined-- 53.394
1.59 --undefined-- 52.832
1.60 --undefined-- 52.331
1.61 --undefined-- 52.316
1.62 --undefined-- 51.874
1.63 --undefined-- 51.537
1.64 --undefined-- 51.890
1.65 --undefined-- 51.876
1.66 --undefined-- 50.978
1.67 --undefined-- 49.922
1.68 --undefined-- 48.535
1.69 --undefined-- 45.608
1.70 --undefined-- 41.419
1.71 --undefined-- 38.443
1.72 --undefined-- 38.310
1.73 --undefined-- 39.059
1.74 --undefined-- 38.900
1.75 --undefined-- 37.992
1.76 --undefined-- 37.528
1.77 --undefined-- 38.841
1.78 --undefined-- 39.762
1.79 --undefined-- 44.378
1.80 --undefined-- 54.844
1.81 228.156 62.259
1.82 226.761 66.579
1.83 228.358 68.479
1.84 231.081 68.771
1.85 236.185 69.558
1.86 245.667 71.560
1.87 252.396 73.008
1.88 262.750 73.354
1.89 278.813 72.720
1.90 296.304 71.583
1.91 155.941 70.342
1.92 160.540 69.322
1.93 160.975 69.042
1.94 158.124 69.235
1.95 156.168 69.279
1.96 298.181 69.738
1.97 277.214 70.889
1.98 258.694 71.669
1.99 241.203 71.763
2.00 228.152 71.833
2.01 216.191 72.173
2.02 207.381 72.437
2.03 200.194 72.391
2.04 194.650 72.321
2.05 191.122 72.505
2.06 190.054 72.839
2.07 190.170 73.040
2.08 189.934 73.019
2.09 189.108 72.894
2.10 187.319 72.819
2.11 185.513 72.820
2.12 184.038 72.798
2.13 182.882 72.692
2.14 181.870 72.581
2.15 181.305 72.648
2.16 181.021 72.823
2.17 180.848 72.873
2.18 181.047 72.793
2.19 181.569 72.532
2.20 183.017 71.774
2.21 184.880 70.409
2.22 186.955 68.846
2.23 188.861 67.471
2.24 188.055 65.898
2.25 186.737 63.832
2.26 190.127 61.997
2.27 199.547 60.559
2.28 200.799 57.852
2.29 --undefined-- 52.617
2.30 --undefined-- 45.569
2.31 --undefined-- 41.332
2.32 --undefined-- 40.566
2.33 --undefined-- 42.611
2.34 --undefined-- 50.941
2.35 --undefined-- 61.635
2.36 --undefined-- 68.483
2.37 --undefined-- 71.966
2.38 297.926 72.867
2.39 295.883 71.436
2.40 292.677 67.879
2.41 272.672 65.111
2.42 280.763 65.968
2.43 295.933 67.921
2.44 151.136 69.734
2.45 151.554 71.065
2.46 152.061 71.763
2.47 153.108 71.974
2.48 153.828 72.057
2.49 154.302 72.201
2.50 155.012 72.357
2.51 155.918 72.474
2.52 156.326 72.548
2.53 156.257 72.543
2.54 155.945 72.467
2.55 156.039 72.322
2.56 157.137 72.070
2.57 158.228 71.698
2.58 157.123 71.030
2.59 153.146 69.457
2.60 144.882 66.211
2.61 138.528 60.796
2.62 153.769 53.846
2.63 156.251 49.388
2.64 157.006 48.878
2.65 154.898 49.327
2.66 152.711 48.794
2.67 --undefined-- 48.583
2.68 --undefined-- 50.506
2.69 --undefined-- 53.775
2.70 --undefined-- 57.044
2.71 --undefined-- 59.077
2.72 --undefined-- 59.436
2.73 --undefined-- 60.260
2.74 --undefined-- 66.333
2.75 169.323 71.793
2.76 166.807 74.224
2.77 161.661 74.152
2.78 155.488 72.131
2.79 151.464 67.968
2.80 121.547 61.338
2.81 122.321 54.027
2.82 --undefined-- 48.794
2.83 --undefined-- 46.035
2.84 --undefined-- 44.983
2.85 --undefined-- 43.036
2.86 --undefined-- 40.359
2.87 --undefined-- 38.466
2.88 --undefined-- 37.566
2.89 --undefined-- 37.219
2.90 --undefined-- 45.561
2.91 --undefined-- 57.251
2.92 --undefined-- 64.242
2.93 --undefined-- 67.056
2.94 212.092 66.546
2.95 212.139 64.472
2.96 191.708 63.609
2.97 191.464 64.164
2.98 192.852 65.250
2.99 198.539 66.775
3.00 199.524 68.600
3.01 197.185 70.296
3.02 196.274 71.414
3.03 194.345 71.880
3.04 189.962 71.910
3.05 185.931 71.608
3.06 180.922 71.156
3.07 175.934 70.882
3.08 168.333 70.794
3.09 164.723 70.620
3.10 163.336 70.134
3.11 162.522 69.266
3.12 161.036 68.053
3.13 158.663 66.737
3.14 156.418 65.532
3.15 155.570 64.365
3.16 155.716 63.222
3.17 155.518 62.524
3.18 157.443 62.449
3.19 166.663 63.003
3.20 173.998 64.619
3.21 177.362 66.767
3.22 181.621 68.906
3.23 187.176 70.899
3.24 190.820 72.134
3.25 194.717 72.210
3.26 203.704 71.683
3.27 213.253 71.236
3.28 219.192 70.147
3.29 222.155 68.108
3.30 228.978 68.131
3.31 231.586 70.128
3.32 231.551 71.307
3.33 230.296 71.767
3.34 226.416 71.877
3.35 222.433 71.691
3.36 224.348 71.321
3.37 226.453 71.084
3.38 223.364 71.180
3.39 219.831 71.421
3.40 219.287 71.586
3.41 218.511 71.410
3.42 217.786 71.142
3.43 216.719 71.180
3.44 216.025 71.289
3.45 216.044 70.871
3.46 215.456 70.186
3.47 214.313 70.296
3.48 212.194 70.895
3.49 209.308 71.195
3.50 207.252 71.051
3.51 204.808 70.637
3.52 203.756 70.019
3.53 205.233 68.789
3.54 206.441 66.261
3.55 198.449 62.124
3.56 196.937 56.657
3.57 206.963 50.898
3.58 207.034 48.908
3.59 205.255 49.096
3.60 202.335 51.510
3.61 204.216 57.915
3.62 201.337 62.803
3.63 196.253 65.392
3.64 191.023 66.822
3.65 188.262 67.954
3.66 187.600 68.680
3.67 186.949 68.769
3.68 186.342 68.250
3.69 186.679 67.456
3.70 189.259 66.961
3.71 193.946 67.042
3.72 196.045 67.530
3.73 196.837 68.224
3.74 196.527 68.887
3.75 195.962 69.326
3.76 195.341 69.461
3.77 194.092 69.339
3.78 192.373 68.889
3.79 190.346 67.829
3.80 187.124 66.257
3.81 183.937 64.930
3.82 180.202 64.193
3.83 176.294 63.823
3.84 175.886 64.143
3.85 174.814 65.417
3.86 171.966 66.775
3.87 171.063 67.550
3.88 171.569 67.750
3.89 172.348 67.295
3.90 173.019 65.907
3.91 172.476 63.354
3.92 169.534 59.445
3.93 173.249 53.900
3.94 --undefined-- 47.993
3.95 --undefined-- 48.100
3.96 --undefined-- 53.188
3.97 --undefined-- 58.289
3.98 181.299 61.679
3.99 175.673 63.173
4.00 170.840 63.623
4.01 168.399 64.230
4.02 167.867 65.694
4.03 168.151 67.466
4.04 168.687 68.837
4.05 168.698 69.719
4.06 171.475 70.176
4.07 175.320 70.426
4.08 179.158 70.379
4.09 184.485 69.915
4.10 186.539 69.449
4.11 185.922 69.079
4.12 182.561 68.802
4.13 178.355 68.835
4.14 174.387 69.149
4.15 171.221 69.447
4.16 168.907 69.467
4.17 167.055 69.143
4.18 165.625 68.460
4.19 164.580 67.125
4.20 163.202 64.363
4.21 163.623 59.776
4.22 164.893 55.047
4.23 --undefined-- 52.833
4.24 --undefined-- 50.536
4.25 --undefined-- 50.346
4.26 162.055 57.077
4.27 167.197 62.230
4.28 168.253 64.523
4.29 162.064 65.002
4.30 156.106 64.850
4.31 150.478 64.769
4.32 145.269 64.891
4.33 140.393 64.797
4.34 136.097 64.506
4.35 134.442 64.457
4.36 134.285 64.687
4.37 133.915 64.912
4.38 133.659 64.888
4.39 133.503 64.524
4.40 132.881 63.637
4.41 129.871 61.813
4.42 132.369 58.987
4.43 140.714 55.594
4.44 142.286 52.373
4.45 --undefined-- 48.774
4.46 --undefined-- 46.091
4.47 --undefined-- 52.698
4.48 --undefined-- 59.845
4.49 --undefined-- 63.723
4.50 138.758 65.223
4.51 137.725 65.532
4.52 138.296 65.337
4.53 142.762 64.961
4.54 145.129 64.604
4.55 146.370 64.134
4.56 146.888 63.272
4.57 146.104 61.836
4.58 147.610 59.901
4.59 159.033 59.455
4.60 164.807 61.552
4.61 160.269 63.643
4.62 159.364 64.967
4.63 159.647 65.724
4.64 162.154 66.222
4.65 170.870 66.423
4.66 176.781 66.145
4.67 183.601 65.460
4.68 186.060 64.247
4.69 185.440 61.831
4.70 177.638 57.270
4.71 --undefined-- 50.226
4.72 --undefined-- 44.431
4.73 --undefined-- 43.164
4.74 --undefined-- 46.901
4.75 --undefined-- 56.042
4.76 --undefined-- 62.415
4.77 --undefined-- 65.680
4.78 --undefined-- 66.922
4.79 --undefined-- 67.152
4.80 135.148 67.311
4.81 138.681 67.620
4.82 145.171 67.548
4.83 148.200 67.305
4.84 148.256 67.051
4.85 147.138 66.685
4.86 146.961 66.383
4.87 146.896 66.175
4.88 148.719 65.990
4.89 151.413 65.880
4.90 152.776 65.665
4.91 153.172 64.988
4.92 154.716 63.546
4.93 155.226 60.787
4.94 155.743 56.211
4.95 157.827 50.315
4.96 150.791 47.030
4.97 --undefined-- 45.474
4.98 --undefined-- 43.651
4.99 --undefined-- 44.031
5.00 --undefined-- 48.765
5.01 168.045 56.496
5.02 161.021 61.887
5.03 151.844 64.263
5.04 144.940 64.465
5.05 138.779 63.698
5.06 136.127 62.904
5.07 135.223 62.679
5.08 135.843 63.093
5.09 137.049 63.612
5.10 138.677 63.837
5.11 142.477 63.782
5.12 144.657 63.621
5.13 145.149 63.288
5.14 145.885 62.778
5.15 147.637 62.601
5.16 149.648 63.208
5.17 152.601 64.193
5.18 155.043 65.079
5.19 156.167 65.728
5.20 154.847 66.132
5.21 145.795 66.323
5.22 143.166 --undefined--
5.23 135.844 --undefined--
5.24 --undefined-- --undefined--
5.25 --undefined-- --undefined--
