Time Pitch Intensity
0.01 --undefined-- --undefined--
0.02 187.827 --undefined--
0.03 188.396 --undefined--
0.04 187.242 --undefined--
0.05 184.342 71.779
0.06 179.321 70.694
0.07 174.064 69.625
0.08 171.018 69.370
0.09 164.943 69.218
0.10 155.435 68.525
0.11 287.517 67.814
0.12 267.835 68.532
0.13 255.385 70.291
0.14 244.853 70.926
0.15 222.549 70.385
0.16 213.333 70.218
0.17 213.594 70.121
0.18 218.440 69.167
0.19 220.700 67.857
0.20 223.000 66.444
0.21 251.089 65.163
0.22 248.732 63.888
0.23 228.928 62.391
0.24 224.059 61.329
0.25 223.434 61.562
0.26 229.175 62.522
0.27 238.805 63.612
0.28 240.735 64.463
0.29 192.518 65.553
0.30 184.599 67.171
0.31 179.805 68.464
0.32 177.165 69.078
0.33 176.568 68.877
0.34 178.164 68.113
0.35 181.943 67.633
0.36 181.878 67.760
0.37 182.149 67.726
0.38 182.640 67.475
0.39 181.571 67.314
0.40 178.548 66.740
0.41 173.189 65.441
0.42 171.273 64.043
0.43 173.694 62.587
0.44 172.713 60.557
0.45 170.261 59.154
0.46 166.969 58.567
0.47 163.739 58.512
0.48 163.072 59.380
0.49 162.122 60.385
0.50 161.846 61.238
0.51 162.868 62.286
0.52 164.148 63.464
0.53 165.129 64.908
0.54 166.356 67.369
0.55 168.491 69.795
0.56 168.026 70.553
0.57 159.261 70.016
0.58 157.324 70.066
0.59 156.493 70.719
0.60 156.167 71.046
0.61 156.055 71.068
0.62 156.531 71.055
0.63 157.559 71.360
0.64 158.336 72.087
0.65 159.133 72.760
0.66 160.007 72.795
0.67 160.937 71.541
0.68 161.114 68.413
0.69 161.869 63.011
0.70 161.020 56.232
0.71 161.022 52.660
0.72 160.778 52.027
0.73 --undefined-- 50.870
0.74 --undefined-- 52.977
0.75 --undefined-- 57.613
0.76 --undefined-- 60.596
0.77 192.130 61.615
0.78 202.973 61.452
0.79 206.112 61.604
0.80 185.573 62.622
0.81 174.910 63.910
0.82 171.137 64.310
0.83 163.633 63.871
0.84 161.229 63.373
0.85 159.113 62.870
0.86 158.260 62.172
0.87 158.932 61.454
0.88 161.619 61.148
0.89 169.840 61.278
0.90 174.285 61.042
0.91 172.525 59.876
0.92 167.620 57.562
0.93 165.491 54.262
0.94 --undefined-- 50.809
0.95 --undefined-- 48.104
0.96 --undefined-- 46.927
0.97 --undefined-- 48.197
0.98 --undefined-- 51.605
0.99 --undefined-- 53.394
1.00 --undefined-- 54.156
1.01 --undefined-- 56.665
1.02 203.632 59.489
1.03 197.841 61.329
1.04 187.181 62.357
1.05 180.757 62.597
1.06 172.375 62.492
1.07 167.806 63.059
1.08 170.280 64.001
1.09 170.621 64.641
1.10 171.838 64.906
1.11 174.705 64.625
1.12 173.537 63.742
1.13 167.764 62.799
1.14 165.726 62.561
1.15 164.583 62.939
1.16 163.918 63.424
1.17 163.313 63.743
1.18 161.693 63.804
1.19 160.328 63.536
1.20 159.659 62.935
1.21 159.898 61.967
1.22 163.587 60.844
1.23 168.145 60.123
1.24 168.837 59.623
1.25 166.311 58.315
1.26 164.887 55.690
1.27 --undefined-- 54.352
1.28 --undefined-- 55.618
1.29 --undefined-- 56.456
1.30 --undefined-- 55.600
1.31 --undefined-- 53.975
1.32 --undefined-- 54.236
1.33 --undefined-- 55.065
1.34 --undefined-- 56.423
1.35 207.003 58.972
1.36 208.649 61.527
1.37 193.247 63.889
1.38 187.032 65.636
1.39 183.963 66.013
1.40 181.761 64.832
1.41 179.444 62.283
1.42 179.232 58.551
1.43 185.584 54.803
1.44 184.798 54.859
1.45 --undefined-- 56.002
1.46 --undefined-- 55.221
1.47 --undefined-- 56.239
1.48 --undefined-- 58.090
1.49 --undefined-- 57.026
1.50 --undefined-- 53.084
1.51 --undefined-- 52.001
1.52 --undefined-- 54.461
1.53 --undefined-- 54.900
1.54 --undefined-- 54.237
1.55 --undefined-- 54.573
1.56 --undefined-- 53.887
1.57 --undefined-- 51.671
1.58 --undefined-- 55.374
1.59 --undefined-- 61.812
1.60 208.758 65.963
1.61 203.599 68.308
1.62 199.386 69.439
1.63 196.627 69.550
1.64 195.262 68.849
1.65 195.228 67.489
1.66 194.844 65.387
1.67 193.423 62.754
1.68 193.583 60.068
1.69 194.326 56.987
1.70 195.963 53.606
1.71 196.053 51.600
1.72 --undefined-- 50.706
1.73 --undefined-- 49.664
1.74 --undefined-- 51.422
1.75 --undefined-- 53.177
1.76 --undefined-- 52.282
1.77 --undefined-- 52.330
1.78 --undefined-- 55.880
1.79 --undefined-- 60.134
1.80 191.056 63.358
1.81 190.676 64.836
1.82 186.928 64.673
1.83 183.671 64.096
1.84 190.017 64.869
1.85 196.454 65.570
1.86 207.739 65.381
1.87 216.953 65.129
1.88 229.701 65.604
1.89 232.878 66.337
1.90 234.063 66.745
1.91 238.589 67.127
1.92 243.296 67.329
1.93 248.210 67.026
1.94 251.174 66.359
1.95 253.445 65.726
1.96 259.497 65.334
1.97 262.435 64.467
1.98 260.501 61.969
1.99 251.130 57.655
2.00 254.719 53.441
2.01 267.579 51.257
2.02 268.940 52.185
2.03 --undefined-- 53.744
2.04 --undefined-- 54.766
2.05 --undefined-- 57.354
2.06 --undefined-- 62.297
2.07 --undefined-- 65.511
2.08 --undefined-- 66.679
2.09 --undefined-- 66.881
2.10 --undefined-- 66.766
2.11 --undefined-- 66.526
2.12 --undefined-- 66.688
2.13 --undefined-- 67.199
2.14 --undefined-- 67.278
2.15 --undefined-- 66.585
2.16 --undefined-- 64.865
2.17 --undefined-- 61.409
2.18 --undefined-- 57.837
2.19 --undefined-- 55.418
2.20 --undefined-- 52.447
2.21 --undefined-- 51.128
2.22 --undefined-- 51.829
2.23 --undefined-- 52.105
2.24 --undefined-- 52.584
2.25 --undefined-- 53.844
2.26 --undefined-- 55.568
2.27 --undefined-- 57.331
2.28 --undefined-- 58.746
2.29 --undefined-- 60.186
2.30 166.237 62.121
2.31 168.078 64.227
2.32 168.380 66.370
2.33 170.176 68.494
2.34 172.366 70.060
2.35 173.824 70.746
2.36 174.608 70.731
2.37 176.150 70.466
2.38 180.616 70.389
2.39 188.303 70.071
2.40 201.985 69.413
2.41 215.004 69.902
2.42 223.176 71.135
2.43 232.225 71.316
2.44 249.955 70.427
2.45 254.225 69.686
2.46 254.968 69.335
2.47 251.384 68.728
2.48 225.293 67.587
2.49 219.063 65.371
2.50 --undefined-- 61.477
2.51 --undefined-- 56.828
2.52 --undefined-- 54.052
2.53 --undefined-- 53.019
2.54 --undefined-- 50.456
2.55 --undefined-- 47.534
2.56 --undefined-- 48.179
2.57 --undefined-- 49.873
2.58 --undefined-- 53.322
2.59 --undefined-- 56.427
2.60 --undefined-- 57.050
2.61 --undefined-- 55.393
2.62 --undefined-- 53.042
2.63 --undefined-- 52.213
2.64 --undefined-- 53.912
2.65 274.014 54.243
2.66 277.996 51.989
2.67 283.391 50.129
2.68 284.486 51.659
2.69 285.264 53.519
2.70 286.873 54.531
2.71 286.999 54.525
2.72 289.568 54.522
2.73 289.464 55.121
2.74 --undefined-- 54.215
2.75 --undefined-- 52.061
2.76 --undefined-- 51.796
2.77 --undefined-- 52.554
2.78 --undefined-- 53.323
2.79 --undefined-- 54.804
2.80 --undefined-- 55.159
2.81 --undefined-- 53.962
2.82 --undefined-- 56.384
2.83 --undefined-- 60.093
2.84 189.123 62.586
2.85 186.754 64.927
2.86 178.736 66.798
2.87 176.123 67.519
2.88 177.737 67.835
2.89 181.976 68.950
2.90 186.598 70.646
2.91 192.015 71.984
2.92 194.137 72.484
2.93 195.464 72.367
2.94 197.022 71.949
2.95 199.135 71.624
2.96 202.494 71.831
2.97 205.691 72.338
2.98 208.666 72.351
2.99 212.656 70.923
3.00 228.569 68.378
3.01 229.099 66.848
3.02 228.570 66.571
3.03 227.566 66.263
3.04 227.513 65.738
3.05 226.076 65.499
3.06 223.717 65.140
3.07 221.013 64.290
3.08 216.872 63.171
3.09 210.507 62.259
3.10 208.003 61.816
3.11 206.504 61.973
3.12 206.757 63.058
3.13 207.752 64.406
3.14 208.226 65.478
3.15 208.648 66.374
3.16 209.326 67.256
3.17 210.248 68.162
3.18 211.771 68.935
3.19 214.919 69.395
3.20 218.609 69.157
3.21 223.726 67.930
3.22 224.181 65.679
3.23 208.775 62.226
3.24 196.604 57.561
3.25 --undefined-- 54.547
3.26 --undefined-- 54.855
3.27 --undefined-- 55.210
3.28 --undefined-- 55.881
3.29 --undefined-- 58.141
3.30 --undefined-- 58.752
3.31 --undefined-- 56.928
3.32 --undefined-- 55.630
3.33 --undefined-- 54.688
3.34 --undefined-- 52.334
3.35 --undefined-- 50.953
3.36 --undefined-- 53.076
3.37 --undefined-- 55.675
3.38 298.384 58.748
3.39 297.246 61.907
3.40 296.141 65.651
3.41 281.931 69.522
3.42 279.251 72.223
3.43 275.510 73.928
3.44 271.483 74.747
3.45 268.327 74.555
3.46 267.789 73.227
3.47 268.010 70.858
3.48 266.949 68.088
3.49 267.367 66.403
3.50 277.571 66.975
3.51 278.508 67.924
3.52 276.596 68.220
3.53 275.732 68.007
3.54 275.475 67.419
3.55 274.841 66.610
3.56 278.677 65.775
3.57 277.446 64.341
3.58 266.384 61.356
3.59 247.324 57.215
3.60 238.139 54.804
3.61 239.953 56.221
3.62 237.248 58.341
3.63 238.070 59.383
3.64 246.068 60.593
3.65 237.724 62.965
3.66 208.169 66.181
3.67 197.386 69.306
3.68 185.142 71.107
3.69 177.564 71.259
3.70 177.415 70.023
3.71 178.754 67.420
3.72 177.166 63.218
3.73 177.361 57.796
3.74 177.867 53.130
3.75 --undefined-- 51.611
3.76 --undefined-- 50.722
3.77 --undefined-- 50.954
3.78 --undefined-- 52.108
3.79 --undefined-- 51.715
3.80 --undefined-- 49.413
3.81 --undefined-- 49.905
3.82 --undefined-- 51.940
3.83 --undefined-- 51.980
3.84 --undefined-- 50.787
3.85 --undefined-- 49.955
3.86 --undefined-- 50.679
3.87 --undefined-- 52.331
3.88 --undefined-- 53.477
3.89 --undefined-- 56.304
3.90 --undefined-- 59.215
3.91 265.001 62.263
3.92 253.383 65.919
3.93 249.011 68.061
3.94 245.642 68.773
3.95 242.512 69.283
3.96 242.591 69.862
3.97 244.771 70.106
3.98 248.056 70.020
3.99 250.414 69.725
4.00 252.402 69.123
4.01 254.013 68.288
4.02 256.043 67.604
4.03 256.503 66.845
4.04 256.416 65.763
4.05 255.856 64.806
4.06 256.412 64.673
4.07 264.522 65.545
4.08 266.333 66.167
4.09 266.178 65.986
4.10 266.162 65.599
4.11 266.288 65.695
4.12 264.878 65.610
4.13 262.422 64.943
4.14 258.785 64.147
4.15 252.598 64.312
4.16 249.913 66.031
4.17 251.208 67.833
4.18 251.730 69.008
4.19 251.180 69.674
4.20 251.769 70.275
4.21 252.537 70.706
4.22 253.388 70.635
4.23 253.561 70.249
4.24 254.243 69.742
4.25 255.322 69.074
4.26 256.962 68.260
4.27 258.798 67.443
4.28 261.583 66.645
4.29 262.489 65.953
4.30 263.286 65.707
4.31 267.159 65.801
4.32 268.457 65.787
4.33 267.158 65.232
4.34 263.242 63.817
4.35 257.785 60.908
4.36 242.489 56.413
4.37 263.248 52.102
4.38 262.512 51.076
4.39 --undefined-- 53.428
4.40 --undefined-- 56.414
4.41 --undefined-- 58.198
4.42 --undefined-- 58.414
4.43 --undefined-- 57.259
4.44 --undefined-- 56.644
4.45 206.936 58.145
4.46 203.170 59.918
4.47 186.670 61.439
4.48 173.427 62.414
4.49 165.821 62.446
4.50 161.625 61.693
4.51 158.184 60.952
4.52 154.764 60.393
4.53 152.725 59.648
4.54 158.240 59.967
4.55 158.573 60.942
4.56 156.768 61.451
4.57 155.197 61.101
4.58 154.383 60.536
4.59 152.704 60.077
4.60 149.405 59.435
4.61 148.174 59.085
4.62 150.090 59.822
4.63 152.956 60.921
4.64 154.926 61.761
4.65 154.721 62.534
4.66 153.836 62.973
4.67 153.760 62.983
4.68 152.459 62.912
4.69 151.828 63.115
4.70 151.971 63.592
4.71 152.531 64.012
4.72 153.647 64.163
4.73 155.970 64.396
4.74 157.288 64.730
4.75 157.791 64.908
4.76 160.020 64.996
4.77 161.468 65.104
4.78 163.413 64.985
4.79 163.655 64.111
4.80 162.531 61.822
4.81 155.403 58.330
4.82 --undefined-- 55.653
4.83 --undefined-- 54.844
4.84 --undefined-- 54.639
4.85 --undefined-- 52.864
4.86 --undefined-- 52.010
4.87 --undefined-- 54.457
4.88 --undefined-- 57.916
4.89 --undefined-- 60.247
4.90 --undefined-- 62.255
4.91 194.113 64.801
4.92 191.531 66.918
4.93 186.265 68.513
4.94 181.140 69.404
4.95 177.768 70.118
4.96 176.515 70.782
4.97 176.769 --undefined--
4.98 178.297 --undefined--
4.99 --undefined-- --undefined--
5.00 --undefined-- --undefined--
