Time Pitch Intensity
0.01 --undefined-- --undefined--
0.02 102.548 --undefined--
0.03 103.188 --undefined--
0.04 104.928 --undefined--
0.05 106.742 69.849
0.06 108.543 68.938
0.07 108.475 66.406
0.08 105.047 62.292
0.09 --undefined-- 57.223
0.10 --undefined-- 51.906
0.11 --undefined-- 48.461
0.12 --undefined-- 48.659
0.13 --undefined-- 54.053
0.14 --undefined-- 63.214
0.15 --undefined-- 69.805
0.16 157.730 73.475
0.17 148.379 74.942
0.18 141.907 75.261
0.19 139.119 75.226
0.20 138.272 74.898
0.21 137.883 74.275
0.22 137.387 73.599
0.23 137.018 72.867
0.24 135.514 71.590
0.25 130.585 69.020
0.26 119.315 64.432
0.27 --undefined-- 57.666
0.28 --undefined-- 49.924
0.29 --undefined-- 43.202
0.30 --undefined-- 39.172
0.31 --undefined-- 38.010
0.32 --undefined-- 40.465
0.33 --undefined-- 48.584
0.34 --undefined-- 55.441
0.35 --undefined-- 61.960
0.36 172.246 67.179
0.37 165.678 70.354
0.38 163.493 72.026
0.39 165.674 73.044
0.40 168.909 73.836
0.41 171.499 74.319
0.42 173.191 74.642
0.43 175.266 75.039
0.44 176.290 75.330
0.45 176.800 75.429
0.46 177.882 75.372
0.47 178.742 74.780
0.48 175.536 72.879
0.49 165.667 69.799
0.50 166.766 67.829
0.51 166.599 67.098
0.52 162.501 66.230
0.53 154.406 64.974
0.54 149.852 62.841
0.55 --undefined-- 59.209
0.56 --undefined-- 54.498
0.57 --undefined-- 49.800
0.58 --undefined-- 44.463
0.59 --undefined-- 40.660
0.60 --undefined-- 38.646
0.61 --undefined-- 38.416
0.62 --undefined-- 39.078
0.63 --undefined-- 38.559
0.64 --undefined-- 39.647
0.65 --undefined-- 40.715
0.66 --undefined-- 39.811
0.67 --undefined-- 45.467
0.68 --undefined-- 55.671
0.69 129.738 62.156
0.70 124.244 65.743
0.71 122.120 67.616
0.72 123.436 68.648
0.73 123.894 69.193
0.74 124.323 69.288
0.75 122.901 68.858
0.76 121.473 68.456
0.77 126.334 69.540
0.78 136.224 71.598
0.79 136.114 73.260
0.80 137.395 74.258
0.81 143.300 75.085
0.82 148.411 75.981
0.83 153.255 76.090
0.84 165.318 75.201
0.85 172.274 74.216
0.86 176.069 72.460
0.87 172.357 68.185
0.88 166.799 61.146
0.89 --undefined-- 54.269
0.90 --undefined-- 56.500
0.91 --undefined-- 64.687
0.92 --undefined-- 70.835
0.93 --undefined-- 74.125
0.94 140.928 75.248
0.95 136.874 75.052
0.96 135.875 74.191
0.97 136.395 73.287
0.98 137.445 73.072
0.99 138.860 72.956
1.00 147.143 72.287
1.01 154.858 71.484
1.02 156.149 69.979
1.03 149.905 66.415
1.04 139.044 60.870
1.05 --undefined-- 56.152
1.06 --undefined-- 58.098
1.07 --undefined-- 62.304
1.08 --undefined-- 63.717
1.09 --undefined-- 63.522
1.10 --undefined-- 67.079
1.11 155.421 72.030
1.12 149.399 74.737
1.13 140.075 75.544
1.14 136.586 75.495
1.15 131.816 75.338
1.16 128.838 74.694
1.17 127.950 73.392
1.18 127.218 72.556
1.19 124.426 71.994
1.20 122.195 70.064
1.21 112.603 66.043
1.22 104.161 60.527
1.23 --undefined-- 55.122
1.24 --undefined-- 51.027
1.25 --undefined-- 47.966
1.26 --undefined-- 43.878
1.27 --undefined-- 44.325
1.28 --undefined-- 55.124
1.29 --undefined-- 63.257
1.30 --undefined-- 67.967
1.31 112.661 69.982
1.32 108.992 70.186
1.33 107.076 69.844
1.34 109.024 70.085
1.35 112.567 70.570
1.36 117.400 70.773
1.37 122.764 71.116
1.38 127.497 71.880
1.39 131.252 72.865
1.40 134.444 73.765
1.41 137.262 73.909
1.42 136.738 72.373
1.43 133.476 68.389
1.44 --undefined-- 61.634
1.45 --undefined-- 53.107
1.46 --undefined-- 47.853
1.47 --undefined-- 50.298
1.48 --undefined-- 59.589
1.49 --undefined-- 67.821
1.50 191.803 72.340
1.51 179.498 73.611
1.52 170.979 72.722
1.53 160.827 70.699
1.54 150.996 67.748
1.55 --undefined-- 63.751
1.56 --undefined-- 60.138
1.57 101.844 59.493
1.58 99.192 60.757
1.59 --undefined-- 62.039
1.60 --undefined-- 63.027
1.61 --undefined-- 64.568
1.62 --undefined-- 66.617
1.63 131.226 68.366
1.64 120.892 69.640
1.65 119.974 70.710
1.66 118.487 71.652
1.67 117.710 72.399
1.68 117.302 72.727
1.69 116.388 72.502
1.70 115.016 71.789
1.71 114.144 70.944
1.72 114.279 70.760
1.73 115.329 71.137
1.74 115.992 71.410
1.75 115.486 70.644
1.76 113.427 68.042
1.77 109.768 63.382
1.78 --undefined-- 57.367
1.79 --undefined-- 52.298
1.80 --undefined-- 54.205
1.81 --undefined-- 57.950
1.82 --undefined-- 59.583
1.83 --undefined-- 59.347
1.84 --undefined-- 61.568
1.85 178.598 68.228
1.86 178.252 73.211
1.87 176.254 76.121
1.88 174.887 77.600
1.89 174.746 78.115
1.90 176.964 78.121
1.91 178.806 77.917
1.92 181.048 77.060
1.93 184.016 74.731
1.94 181.865 70.704
1.95 149.019 65.453
1.96 151.371 60.440
1.97 --undefined-- 56.405
1.98 --undefined-- 52.024
1.99 --undefined-- 48.702
2.00 --undefined-- 46.612
2.01 --undefined-- 43.362
2.02 --undefined-- 40.045
2.03 --undefined-- 38.914
2.04 --undefined-- 37.950
2.05 --undefined-- 35.944
2.06 --undefined-- 36.023
2.07 --undefined-- 37.070
2.08 --undefined-- 38.577
2.09 --undefined-- 40.864
2.10 --undefined-- 42.296
2.11 --undefined-- 42.274
2.12 --undefined-- 40.973
2.13 --undefined-- 39.193
2.14 --undefined-- 38.368
2.15 --undefined-- 39.264
2.16 --undefined-- 39.374
2.17 --undefined-- 38.092
2.18 --undefined-- 37.575
2.19 --undefined-- 37.784
2.20 --undefined-- 38.396
2.21 --undefined-- 40.388
2.22 --undefined-- 42.744
2.23 --undefined-- 43.768
2.24 --undefined-- 43.291
2.25 --undefined-- 42.456
2.26 --undefined-- 42.017
2.27 --undefined-- 41.803
2.28 --undefined-- 41.824
2.29 --undefined-- 42.092
2.30 --undefined-- 42.135
2.31 --undefined-- 42.232
2.32 --undefined-- 42.621
2.33 --undefined-- 43.145
2.34 --undefined-- 43.615
2.35 --undefined-- 43.103
2.36 --undefined-- 41.735
2.37 --undefined-- 41.107
2.38 --undefined-- 41.433
2.39 --undefined-- 41.616
2.40 --undefined-- 41.023
2.41 --undefined-- 40.036
2.42 --undefined-- 39.837
2.43 --undefined-- 41.814
2.44 --undefined-- 48.286
2.45 --undefined-- 53.010
2.46 --undefined-- 53.716
2.47 --undefined-- 50.312
2.48 --undefined-- 43.570
2.49 --undefined-- 39.059
2.50 --undefined-- 43.156
2.51 --undefined-- 56.331
2.52 --undefined-- 66.672
2.53 --undefined-- 73.525
2.54 180.522 77.478
2.55 173.873 79.169
2.56 169.498 78.873
2.57 164.101 76.543
2.58 159.126 72.034
2.59 127.730 65.232
2.60 116.186 57.400
2.61 --undefined-- 51.245
2.62 --undefined-- 49.885
2.63 --undefined-- 57.334
2.64 --undefined-- 65.413
2.65 163.838 71.454
2.66 157.570 75.229
2.67 150.593 77.183
2.68 142.360 78.147
2.69 138.217 78.950
2.70 135.945 79.480
2.71 134.928 79.758
2.72 135.356 80.194
2.73 136.333 80.758
2.74 137.249 81.217
2.75 137.491 81.477
2.76 139.281 81.660
2.77 140.802 81.922
2.78 141.769 82.243
2.79 143.905 82.489
2.80 146.375 82.482
2.81 147.592 82.067
2.82 147.983 81.413
2.83 146.531 80.534
2.84 142.847 78.870
2.85 140.640 76.092
2.86 115.439 72.096
2.87 117.665 66.985
2.88 146.648 62.444
2.89 139.105 58.628
2.90 --undefined-- 53.193
2.91 --undefined-- 45.783
2.92 --undefined-- 41.675
2.93 --undefined-- 40.753
2.94 --undefined-- 39.232
2.95 --undefined-- 37.548
2.96 --undefined-- 37.408
2.97 --undefined-- 38.416
2.98 --undefined-- 39.833
2.99 --undefined-- 40.129
3.00 --undefined-- 38.816
3.01 --undefined-- 36.871
3.02 --undefined-- 36.242
3.03 --undefined-- 37.291
3.04 --undefined-- 38.725
3.05 --undefined-- 38.995
3.06 --undefined-- 38.529
3.07 --undefined-- 39.265
3.08 --undefined-- 40.506
3.09 --undefined-- 41.102
3.10 --undefined-- 43.054
3.11 --undefined-- 50.153
3.12 --undefined-- 61.295
3.13 --undefined-- 70.634
3.14 --undefined-- 76.427
3.15 186.202 79.529
3.16 184.341 81.065
3.17 184.209 81.642
3.18 183.461 81.392
3.19 181.315 80.448
3.20 175.215 78.714
3.21 170.429 75.627
3.22 --undefined-- 70.483
3.23 --undefined-- 62.782
3.24 --undefined-- 53.114
3.25 --undefined-- 46.354
3.26 --undefined-- 43.805
3.27 --undefined-- 43.039
3.28 --undefined-- 43.446
3.29 --undefined-- 49.247
3.30 --undefined-- 57.648
3.31 --undefined-- 64.194
3.32 238.643 70.345
3.33 218.244 75.265
3.34 211.437 78.093
3.35 210.480 79.134
3.36 210.572 79.130
3.37 212.108 78.649
3.38 213.594 77.699
3.39 213.586 75.816
3.40 211.017 72.875
3.41 209.098 70.436
3.42 209.146 69.670
3.43 207.927 69.113
3.44 203.047 67.522
3.45 191.607 64.012
3.46 --undefined-- 58.022
3.47 --undefined-- 50.457
3.48 --undefined-- 48.376
3.49 --undefined-- 50.380
3.50 --undefined-- 53.102
3.51 --undefined-- 55.618
3.52 --undefined-- 56.967
3.53 --undefined-- 57.741
3.54 --undefined-- 62.425
3.55 --undefined-- 69.126
3.56 167.347 73.477
3.57 161.272 75.831
3.58 153.174 76.859
3.59 148.833 77.021
3.60 145.655 76.557
3.61 141.860 76.040
3.62 139.427 76.283
3.63 139.099 76.739
3.64 142.990 76.668
3.65 142.571 76.572
3.66 141.884 76.843
3.67 138.485 76.619
3.68 140.874 75.465
3.69 137.120 74.215
3.70 132.714 73.238
3.71 125.846 72.295
3.72 123.717 71.432
3.73 125.698 70.959
3.74 131.867 70.959
3.75 133.778 71.603
3.76 133.886 72.865
3.77 133.486 73.656
3.78 130.089 73.954
3.79 123.541 74.325
3.80 121.397 74.503
3.81 120.916 74.551
3.82 121.616 74.767
3.83 123.226 74.948
3.84 123.552 74.945
3.85 123.525 74.829
3.86 122.926 74.774
3.87 122.791 74.474
3.88 123.920 73.531
3.89 124.448 72.303
3.90 123.067 71.248
3.91 123.508 70.229
3.92 123.087 68.413
3.93 --undefined-- 64.993
3.94 --undefined-- 60.382
3.95 --undefined-- 57.325
3.96 --undefined-- 56.054
3.97 --undefined-- 52.593
3.98 --undefined-- 46.783
3.99 --undefined-- 43.088
4.00 --undefined-- 43.192
4.01 --undefined-- 42.096
4.02 --undefined-- 39.096
4.03 --undefined-- 37.023
4.04 --undefined-- 38.919
4.05 --undefined-- 42.648
4.06 --undefined-- 47.360
4.07 --undefined-- 51.407
4.08 --undefined-- 55.088
4.09 --undefined-- 60.529
4.10 144.904 65.260
4.11 136.426 67.868
4.12 135.864 69.073
4.13 134.753 69.865
4.14 132.257 70.662
4.15 130.329 71.125
4.16 128.244 71.278
4.17 126.570 71.444
4.18 122.348 71.194
4.19 119.908 69.695
4.20 116.949 66.777
4.21 116.973 65.124
4.22 116.683 67.479
4.23 113.503 69.737
4.24 128.575 71.448
4.25 139.324 72.869
4.26 137.500 73.544
4.27 130.549 73.412
4.28 129.990 72.648
4.29 130.551 71.428
4.30 138.454 70.432
4.31 147.940 70.298
4.32 154.142 70.556
4.33 164.078 70.741
4.34 172.181 71.957
4.35 177.706 74.283
4.36 182.711 75.971
4.37 174.676 76.665
4.38 168.009 77.416
4.39 159.461 78.237
4.40 149.194 78.608
4.41 141.311 78.675
4.42 136.060 78.299
4.43 131.868 77.082
4.44 130.527 75.484
4.45 135.805 74.373
4.46 141.264 74.053
4.47 145.111 74.495
4.48 146.655 74.880
4.49 145.897 74.876
4.50 144.036 74.220
4.51 140.333 71.924
4.52 --undefined-- 67.055
4.53 --undefined-- 59.604
4.54 --undefined-- 54.280
4.55 --undefined-- 55.477
4.56 --undefined-- 55.339
4.57 --undefined-- 53.588
4.58 --undefined-- 53.100
4.59 --undefined-- 53.447
4.60 --undefined-- 53.101
4.61 --undefined-- 55.987
4.62 --undefined-- 61.171
4.63 121.459 63.950
4.64 104.104 64.419
4.65 107.698 63.697
4.66 102.201 63.265
4.67 114.798 63.631
4.68 101.452 64.113
4.69 106.132 64.127
4.70 103.071 63.189
4.71 102.588 61.079
4.72 98.503 58.223
4.73 --undefined-- 55.403
4.74 --undefined-- 53.153
4.75 --undefined-- 51.363
4.76 --undefined-- 49.171
4.77 --undefined-- 46.630
4.78 --undefined-- 48.848
4.79 --undefined-- 53.546
4.80 143.783 59.535
4.81 135.051 64.151
4.82 128.483 66.695
4.83 124.499 68.303
4.84 123.532 69.620
4.85 125.928 70.499
4.86 129.459 70.854
4.87 134.365 71.011
4.88 139.489 70.884
4.89 140.457 69.854
4.90 143.781 68.329
4.91 149.495 67.587
4.92 154.419 66.892
4.93 155.153 65.107
4.94 150.362 62.374
4.95 150.343 59.116
4.96 --undefined-- 54.932
4.97 --undefined-- 49.499
4.98 --undefined-- 45.168
4.99 --undefined-- 46.039
5.00 --undefined-- 51.171
5.01 --undefined-- 59.131
5.02 186.071 65.023
5.03 166.742 68.675
5.04 162.892 70.997
5.05 159.390 72.614
5.06 157.630 73.662
5.07 155.902 73.936
5.08 152.759 73.982
5.09 147.622 74.340
5.10 143.685 74.490
5.11 137.820 74.138
5.12 130.996 73.436
5.13 127.837 72.592
5.14 128.864 71.936
5.15 128.800 72.129
5.16 131.147 73.018
5.17 128.244 73.644
5.18 127.444 73.771
5.19 125.993 73.702
5.20 124.589 73.454
5.21 123.775 73.177
5.22 122.380 73.164
5.23 120.992 73.412
5.24 120.282 73.651
5.25 119.127 73.659
5.26 117.955 73.392
5.27 116.399 72.911
5.28 115.416 72.282
5.29 112.324 71.412
5.30 --undefined-- 70.002
5.31 --undefined-- 68.360
5.32 --undefined-- 66.187
5.33 --undefined-- 61.621
5.34 --undefined-- 56.112
5.35 --undefined-- 55.591
5.36 --undefined-- 55.185
5.37 --undefined-- 51.042
5.38 --undefined-- 43.414
5.39 --undefined-- 39.868
5.40 --undefined-- 40.978
5.41 --undefined-- 40.825
5.42 --undefined-- 39.896
5.43 --undefined-- 40.004
5.44 --undefined-- 40.394
5.45 --undefined-- 41.341
5.46 --undefined-- 42.760
5.47 --undefined-- 42.837
5.48 --undefined-- 41.120
5.49 --undefined-- 38.507
5.50 --undefined-- 37.553
5.51 --undefined-- 36.470
5.52 --undefined-- 33.371
5.53 --undefined-- 34.087
5.54 --undefined-- 47.064
5.55 --undefined-- 58.147
5.56 --undefined-- 65.337
5.57 --undefined-- 69.530
5.58 127.862 71.892
5.59 126.803 73.229
5.60 128.496 74.119
5.61 135.129 74.881
5.62 135.954 75.282
5.63 150.255 75.243
5.64 155.729 75.621
5.65 158.600 75.976
5.66 160.710 75.017
5.67 156.592 72.188
5.68 147.772 67.859
5.69 146.557 64.875
5.70 --undefined-- 65.141
5.71 --undefined-- 65.335
5.72 --undefined-- 64.330
5.73 160.654 67.611
5.74 152.525 72.460
5.75 149.575 75.011
5.76 151.380 75.704
5.77 143.439 75.304
5.78 137.321 74.432
5.79 133.384 73.694
5.80 130.056 72.983
5.81 124.424 71.174
5.82 113.477 67.266
5.83 101.728 61.420
5.84 --undefined-- 55.610
5.85 --undefined-- 50.700
5.86 --undefined-- 49.903
5.87 --undefined-- 58.449
5.88 --undefined-- 65.201
5.89 124.933 --undefined--
5.90 120.525 --undefined--
5.91 --undefined-- --undefined--
5.92 --undefined-- --undefined--
