Time Pitch Intensity
0.01 --undefined-- --undefined--
0.02 --undefined-- --undefined--
0.03 --undefined-- --undefined--
0.04 --undefined-- --undefined--
0.05 --undefined-- 56.520
0.06 --undefined-- 58.545
0.07 170.522 62.197
0.08 174.420 65.305
0.09 177.170 67.151
0.10 177.878 67.765
0.11 178.408 67.039
0.12 180.860 65.397
0.13 186.952 63.930
0.14 194.969 63.484
0.15 198.908 63.648
0.16 200.992 63.656
0.17 204.697 63.189
0.18 205.444 63.376
0.19 204.532 65.162
0.20 206.768 67.302
0.21 208.388 69.112
0.22 204.528 70.629
0.23 197.179 71.379
0.24 190.619 71.198
0.25 184.928 70.794
0.26 179.545 70.808
0.27 176.236 70.905
0.28 172.963 70.569
0.29 170.605 69.742
0.30 168.827 68.160
0.31 162.985 65.701
0.32 160.206 62.675
0.33 160.496 58.556
0.34 --undefined-- 52.200
0.35 --undefined-- 45.552
0.36 --undefined-- 44.703
0.37 --undefined-- 44.571
0.38 --undefined-- 43.943
0.39 --undefined-- 44.081
0.40 --undefined-- 44.425
0.41 --undefined-- 46.875
0.42 --undefined-- 53.587
0.43 --undefined-- 59.862
0.44 223.596 65.083
0.45 218.284 68.754
0.46 208.825 71.012
0.47 206.263 72.232
0.48 204.833 72.572
0.49 204.098 72.224
0.50 204.438 71.483
0.51 204.559 70.616
0.52 204.385 69.834
0.53 202.147 69.254
0.54 199.672 69.101
0.55 199.354 69.171
0.56 199.497 69.335
0.57 199.842 69.301
0.58 200.460 68.950
0.59 200.667 68.656
0.60 199.241 67.867
0.61 196.408 65.462
0.62 194.384 61.419
0.63 195.632 56.623
0.64 197.975 51.788
0.65 --undefined-- 48.129
0.66 --undefined-- 48.565
0.67 --undefined-- 51.884
0.68 --undefined-- 55.097
0.69 --undefined-- 57.743
0.70 --undefined-- 60.549
0.71 --undefined-- 62.621
0.72 --undefined-- 62.960
0.73 --undefined-- 62.476
0.74 --undefined-- 62.219
0.75 --undefined-- 61.441
0.76 --undefined-- 60.630
0.77 --undefined-- 60.326
0.78 --undefined-- 58.873
0.79 --undefined-- 56.577
0.80 114.066 55.590
0.81 119.306 55.694
0.82 125.754 56.165
0.83 129.987 56.956
0.84 --undefined-- 57.559
0.85 --undefined-- 57.461
0.86 --undefined-- 56.778
0.87 --undefined-- 56.279
0.88 270.229 56.001
0.89 261.054 54.554
0.90 --undefined-- 52.657
0.91 --undefined-- 53.496
0.92 --undefined-- 54.414
0.93 --undefined-- 55.620
0.94 --undefined-- 58.591
0.95 --undefined-- 62.158
0.96 199.260 65.082
0.97 206.361 67.311
0.98 209.528 68.926
0.99 210.217 69.903
1.00 210.070 70.142
1.01 209.880 69.481
1.02 209.908 68.273
1.03 209.446 67.337
1.04 209.598 66.613
1.05 208.216 65.459
1.06 204.569 64.563
1.07 198.889 65.647
1.08 193.876 68.832
1.09 191.581 71.397
1.10 188.198 72.171
1.11 178.725 71.572
1.12 --undefined-- 70.164
1.13 --undefined-- 68.080
1.14 --undefined-- 66.041
1.15 --undefined-- 64.362
1.16 --undefined-- 60.759
1.17 --undefined-- 53.396
1.18 --undefined-- 43.844
1.19 --undefined-- 45.591
1.20 --undefined-- 54.591
1.21 --undefined-- 60.897
1.22 --undefined-- 65.006
1.23 --undefined-- 67.944
1.24 --undefined-- 69.666
1.25 --undefined-- 70.167
1.26 --undefined-- 69.707
1.27 --undefined-- 68.276
1.28 182.083 66.727
1.29 187.709 65.937
1.30 192.490 66.329
1.31 171.241 67.975
1.32 173.162 69.640
1.33 171.684 70.574
1.34 --undefined-- 70.430
1.35 --undefined-- 69.076
1.36 145.852 66.613
1.37 146.838 63.090
1.38 151.173 60.758
1.39 155.493 60.836
1.40 161.787 61.168
1.41 164.536 61.451
1.42 164.848 62.000
1.43 166.053 62.457
1.44 167.059 62.614
1.45 166.259 62.584
1.46 162.235 62.424
1.47 160.717 62.651
1.48 159.148 62.902
1.49 159.152 63.160
1.50 78.229 63.469
1.51 80.133 63.297
1.52 79.180 62.947
1.53 78.053 62.716
1.54 77.843 62.628
1.55 162.942 62.698
1.56 164.586 62.581
1.57 170.995 63.028
1.58 173.470 63.776
1.59 173.203 64.229
1.60 173.786 64.079
1.61 177.680 62.918
1.62 181.606 60.603
1.63 179.995 57.058
1.64 --undefined-- 52.958
1.65 --undefined-- 49.857
1.66 --undefined-- 47.769
1.67 --undefined-- 47.023
1.68 --undefined-- 47.285
1.69 --undefined-- 47.524
1.70 --undefined-- 47.592
1.71 --undefined-- 46.985
1.72 --undefined-- 46.318
1.73 --undefined-- 45.574
1.74 --undefined-- 44.507
1.75 --undefined-- 43.802
1.76 --undefined-- 43.348
1.77 --undefined-- 44.075
1.78 --undefined-- 45.325
1.79 --undefined-- 47.419
1.80 --undefined-- 55.843
1.81 --undefined-- 64.028
1.82 --undefined-- 68.496
1.83 --undefined-- 69.858
1.84 --undefined-- 69.465
1.85 154.346 68.940
1.86 151.614 67.905
1.87 --undefined-- 65.021
1.88 --undefined-- 60.072
1.89 --undefined-- 52.884
1.90 --undefined-- 42.340
1.91 --undefined-- 31.576
1.92 --undefined-- 27.172
1.93 --undefined-- 24.287
1.94 --undefined-- 23.312
1.95 --undefined-- 23.327
1.96 --undefined-- 23.380
1.97 --undefined-- 23.689
1.98 --undefined-- 23.901
1.99 --undefined-- 23.752
2.00 --undefined-- 23.932
2.01 --undefined-- 24.441
2.02 --undefined-- 24.914
2.03 --undefined-- 25.184
2.04 --undefined-- 25.182
2.05 --undefined-- 27.544
2.06 --undefined-- 43.230
2.07 --undefined-- 54.217
2.08 --undefined-- 60.347
2.09 --undefined-- 64.118
2.10 211.890 67.039
2.11 213.748 69.095
2.12 212.485 70.399
2.13 213.060 70.892
2.14 215.130 70.334
2.15 217.404 68.700
2.16 221.478 66.540
2.17 224.702 64.969
2.18 227.547 64.440
2.19 227.777 64.384
2.20 229.118 64.259
2.21 229.798 63.961
2.22 228.463 63.837
2.23 227.585 63.922
2.24 230.400 64.316
2.25 234.477 65.014
2.26 239.242 65.511
2.27 251.622 65.221
2.28 262.419 63.312
2.29 271.616 59.201
2.30 --undefined-- 53.413
2.31 --undefined-- 49.524
2.32 --undefined-- 50.592
2.33 --undefined-- 52.138
2.34 --undefined-- 52.512
2.35 --undefined-- 56.265
2.36 263.179 64.114
2.37 260.354 69.226
2.38 253.418 71.011
2.39 246.272 70.275
2.40 228.494 68.786
2.41 224.803 68.162
2.42 221.463 68.190
2.43 218.047 68.373
2.44 215.837 67.927
2.45 215.202 66.331
2.46 220.159 64.882
2.47 221.191 64.690
2.48 220.851 64.537
2.49 218.710 63.733
2.50 216.365 62.418
2.51 214.409 61.551
2.52 210.771 61.654
2.53 211.104 61.687
2.54 222.012 60.615
2.55 241.322 57.284
2.56 --undefined-- 50.589
2.57 --undefined-- 40.155
2.58 --undefined-- 35.632
2.59 --undefined-- 40.348
2.60 --undefined-- 44.184
2.61 --undefined-- 47.502
2.62 --undefined-- 50.759
2.63 --undefined-- 53.034
2.64 --undefined-- 53.989
2.65 --undefined-- 53.777
2.66 --undefined-- 52.969
2.67 --undefined-- 52.594
2.68 --undefined-- 52.508
2.69 --undefined-- 52.705
2.70 --undefined-- 52.634
2.71 --undefined-- 52.093
2.72 --undefined-- 51.620
2.73 --undefined-- 51.386
2.74 --undefined-- 51.421
2.75 --undefined-- 50.866
2.76 --undefined-- 49.634
2.77 --undefined-- 49.293
2.78 --undefined-- 48.300
2.79 --undefined-- 45.943
2.80 --undefined-- 43.676
2.81 --undefined-- 41.571
2.82 --undefined-- 37.906
2.83 --undefined-- 32.208
2.84 --undefined-- 27.912
2.85 --undefined-- 27.042
2.86 --undefined-- 27.181
2.87 --undefined-- 28.043
2.88 --undefined-- 35.267
2.89 --undefined-- 43.870
2.90 --undefined-- 50.891
2.91 --undefined-- 55.940
2.92 --undefined-- 58.401
2.93 --undefined-- 59.236
2.94 --undefined-- 62.655
2.95 --undefined-- 65.999
2.96 162.784 66.596
2.97 158.620 65.819
2.98 168.920 66.299
2.99 172.848 67.342
3.00 173.780 67.842
3.01 173.531 68.139
3.02 175.425 68.701
3.03 178.460 69.385
3.04 177.720 69.077
3.05 172.628 67.018
3.06 162.962 63.663
3.07 156.418 59.262
3.08 --undefined-- 52.982
3.09 --undefined-- 51.330
3.10 --undefined-- 57.689
3.11 --undefined-- 60.653
3.12 --undefined-- 63.992
3.13 208.164 69.657
3.14 217.645 73.058
3.15 224.924 73.799
3.16 227.131 72.359
3.17 227.293 69.245
3.18 228.380 66.072
3.19 228.361 65.078
3.20 228.459 65.112
3.21 227.947 65.347
3.22 227.729 65.872
3.23 223.340 66.521
3.24 214.387 67.347
3.25 205.192 68.079
3.26 200.137 68.445
3.27 191.263 68.899
3.28 184.608 69.312
3.29 179.656 69.261
3.30 176.531 69.240
3.31 173.871 69.446
3.32 171.994 69.595
3.33 166.085 69.667
3.34 164.870 69.564
3.35 166.731 68.767
3.36 161.750 67.327
3.37 160.127 66.008
3.38 160.325 65.295
3.39 161.407 64.894
3.40 156.770 64.047
3.41 162.199 63.006
3.42 165.092 62.813
3.43 161.221 62.732
3.44 156.403 61.992
3.45 149.866 60.020
3.46 146.050 57.039
3.47 151.747 56.277
3.48 165.124 61.231
3.49 166.274 66.093
3.50 168.233 68.849
3.51 184.480 69.884
3.52 190.943 69.930
3.53 194.861 69.345
3.54 198.758 67.766
3.55 204.743 64.266
3.56 212.226 58.396
3.57 --undefined-- 51.893
3.58 --undefined-- 51.257
3.59 --undefined-- 53.028
3.60 --undefined-- 53.296
3.61 --undefined-- 55.547
3.62 --undefined-- 62.496
3.63 --undefined-- 67.927
3.64 --undefined-- 70.435
3.65 --undefined-- 70.528
3.66 --undefined-- 68.426
3.67 --undefined-- 63.603
3.68 --undefined-- 56.227
3.69 --undefined-- 51.760
3.70 --undefined-- 53.412
3.71 --undefined-- 56.157
3.72 --undefined-- 58.248
3.73 --undefined-- 61.573
3.74 183.619 66.082
3.75 188.819 69.482
3.76 192.132 71.400
3.77 199.788 72.504
3.78 203.772 72.955
3.79 204.127 72.245
3.80 207.604 69.669
3.81 213.639 64.523
3.82 211.070 56.778
3.83 --undefined-- 48.492
3.84 --undefined-- 42.560
3.85 --undefined-- 40.218
3.86 --undefined-- 39.191
3.87 --undefined-- 48.838
3.88 --undefined-- 57.772
3.89 --undefined-- 61.913
3.90 --undefined-- 63.626
3.91 197.720 66.164
3.92 202.221 68.167
3.93 202.696 68.536
3.94 200.887 68.134
3.95 200.851 67.575
3.96 200.589 66.560
3.97 202.012 65.426
3.98 204.518 64.784
3.99 204.937 64.487
4.00 205.457 64.153
4.01 208.717 63.697
4.02 211.228 63.099
4.03 213.739 61.875
4.04 217.983 59.825
4.05 220.385 56.676
4.06 213.626 51.761
4.07 --undefined-- 47.237
4.08 --undefined-- 49.127
4.09 --undefined-- 54.206
4.10 --undefined-- 58.921
4.11 --undefined-- 63.094
4.12 237.787 66.419
4.13 231.338 68.189
4.14 222.673 68.293
4.15 203.731 67.009
4.16 190.765 65.540
4.17 189.354 65.153
4.18 189.658 65.465
4.19 189.911 65.652
4.20 190.302 65.718
4.21 191.951 65.718
4.22 194.974 65.588
4.23 195.720 65.368
4.24 195.346 65.282
4.25 195.687 65.872
4.26 195.286 67.515
4.27 189.887 70.085
4.28 186.015 72.362
4.29 185.669 73.465
4.30 185.883 73.579
4.31 185.832 73.091
4.32 185.797 72.225
4.33 185.771 71.181
4.34 186.114 69.973
4.35 186.814 68.548
4.36 186.321 67.279
4.37 185.692 66.220
4.38 185.120 65.178
4.39 180.863 63.843
4.40 175.453 62.331
4.41 171.377 60.450
4.42 162.111 57.985
4.43 155.225 54.940
4.44 --undefined-- 54.070
4.45 --undefined-- 58.173
4.46 --undefined-- 64.704
4.47 --undefined-- 69.146
4.48 136.439 71.188
4.49 137.434 71.437
4.50 138.523 70.272
4.51 --undefined-- 67.927
4.52 --undefined-- 65.274
4.53 --undefined-- 62.189
4.54 --undefined-- 58.390
4.55 --undefined-- 57.663
4.56 --undefined-- 58.615
4.57 --undefined-- 59.155
4.58 --undefined-- 59.398
4.59 159.616 59.626
4.60 161.046 59.900
4.61 160.361 59.992
4.62 156.493 59.453
4.63 291.848 57.471
4.64 269.804 53.733
4.65 --undefined-- 48.897
4.66 --undefined-- 42.040
4.67 --undefined-- 31.612
4.68 --undefined-- 22.891
4.69 --undefined-- 22.597
4.70 --undefined-- 23.744
4.71 --undefined-- 24.562
4.72 --undefined-- 24.728
4.73 --undefined-- 24.618
4.74 --undefined-- 23.505
4.75 --undefined-- 22.395
4.76 --undefined-- 24.055
4.77 --undefined-- 25.839
4.78 --undefined-- 26.176
4.79 --undefined-- 24.374
4.80 --undefined-- 22.285
4.81 --undefined-- 25.089
4.82 --undefined-- 30.165
4.83 --undefined-- 37.500
4.84 --undefined-- 43.390
4.85 --undefined-- 46.813
4.86 --undefined-- 48.287
4.87 --undefined-- 49.744
4.88 --undefined-- 52.145
4.89 --undefined-- 53.402
4.90 --undefined-- 52.520
4.91 --undefined-- 51.614
4.92 --undefined-- 51.426
4.93 --undefined-- 50.264
4.94 --undefined-- 48.464
4.95 --undefined-- 47.852
4.96 --undefined-- 48.717
4.97 --undefined-- 49.571
4.98 --undefined-- 49.202
4.99 --undefined-- 48.730
5.00 --undefined-- 49.433
5.01 --undefined-- 49.916
5.02 --undefined-- 49.877
5.03 --undefined-- 49.815
5.04 --undefined-- 49.419
5.05 --undefined-- 48.187
5.06 --undefined-- 46.291
5.07 --undefined-- 44.669
5.08 --undefined-- 43.745
5.09 --undefined-- 43.138
5.10 --undefined-- 41.578
5.11 --undefined-- 38.169
5.12 --undefined-- 33.280
5.13 --undefined-- 29.035
5.14 --undefined-- 27.218
5.15 --undefined-- 26.541
5.16 --undefined-- 26.264
5.17 --undefined-- 26.750
5.18 --undefined-- 27.400
5.19 --undefined-- 33.538
5.20 --undefined-- 46.751
5.21 --undefined-- 57.927
5.22 --undefined-- 65.354
5.23 294.720 68.985
5.24 283.325 69.308
5.25 129.237 67.863
5.26 134.053 68.287
5.27 137.481 69.797
5.28 140.800 70.399
5.29 147.526 70.469
5.30 152.309 70.420
5.31 154.169 71.079
5.32 154.910 72.899
5.33 154.779 73.486
5.34 153.419 72.143
5.35 150.319 70.426
5.36 295.058 69.331
5.37 285.126 68.013
5.38 271.064 67.170
5.39 251.087 67.770
5.40 239.893 69.335
5.41 232.728 71.244
5.42 226.561 72.783
5.43 216.972 73.570
5.44 210.585 73.673
5.45 208.660 73.425
5.46 209.122 72.947
5.47 208.279 72.609
5.48 205.748 72.463
5.49 204.911 71.781
5.50 204.737 70.304
5.51 203.063 68.686
5.52 200.414 67.408
5.53 198.494 66.447
5.54 189.809 65.398
5.55 173.791 63.660
5.56 163.553 60.907
5.57 153.033 57.553
5.58 --undefined-- 55.088
5.59 --undefined-- 53.692
5.60 --undefined-- 51.696
5.61 --undefined-- 49.621
5.62 --undefined-- 47.111
5.63 --undefined-- 44.437
5.64 --undefined-- --undefined--
5.65 --undefined-- --undefined--
5.66 --undefined-- --undefined--
5.67 --undefined-- --undefined--
