Time Pitch Intensity
0.01 --undefined-- --undefined--
0.02 --undefined-- --undefined--
0.03 --undefined-- --undefined--
0.04 --undefined-- --undefined--
0.05 --undefined-- 47.479
0.06 --undefined-- 51.736
0.07 --undefined-- 55.228
0.08 --undefined-- 60.759
0.09 --undefined-- 66.643
0.10 --undefined-- 70.821
0.11 152.602 74.059
0.12 159.214 76.419
0.13 170.951 78.237
0.14 172.519 79.876
0.15 171.871 80.807
0.16 173.279 80.612
0.17 181.058 79.354
0.18 189.547 78.105
0.19 190.212 77.815
0.20 189.947 78.027
0.21 190.977 78.241
0.22 192.018 78.268
0.23 192.131 78.070
0.24 191.408 77.773
0.25 190.580 77.493
0.26 190.063 76.936
0.27 189.295 75.386
0.28 178.588 72.147
0.29 163.817 67.878
0.30 165.400 64.377
0.31 173.638 60.735
0.32 --undefined-- 55.071
0.33 --undefined-- 50.451
0.34 --undefined-- 56.863
0.35 --undefined-- 66.126
0.36 --undefined-- 73.115
0.37 201.274 76.684
0.38 196.098 77.409
0.39 188.685 76.729
0.40 188.780 75.760
0.41 188.382 73.773
0.42 184.706 69.526
0.43 200.332 62.308
0.44 192.051 54.009
0.45 --undefined-- 50.174
0.46 --undefined-- 47.774
0.47 --undefined-- 45.421
0.48 --undefined-- 43.386
0.49 --undefined-- 41.972
0.50 --undefined-- 51.020
0.51 --undefined-- 63.352
0.52 --undefined-- 71.178
0.53 132.820 75.459
0.54 128.259 77.167
0.55 122.122 77.365
0.56 116.999 76.943
0.57 112.386 76.343
0.58 109.080 75.719
0.59 106.006 75.078
0.60 103.889 74.377
0.61 101.669 73.508
0.62 99.849 72.399
0.63 97.938 71.043
0.64 97.828 69.690
0.65 97.762 68.508
0.66 98.391 67.363
0.67 99.337 66.276
0.68 99.922 65.640
0.69 100.482 66.000
0.70 102.604 67.844
0.71 104.917 70.443
0.72 107.262 72.530
0.73 106.452 73.685
0.74 104.294 74.113
0.75 102.411 74.055
0.76 101.103 73.691
0.77 99.603 73.175
0.78 98.914 72.773
0.79 99.450 72.721
0.80 100.078 72.819
0.81 101.491 72.750
0.82 103.174 72.374
0.83 104.910 71.667
0.84 106.220 70.657
0.85 105.430 69.079
0.86 102.831 66.775
0.87 103.934 64.297
0.88 107.972 62.198
0.89 114.461 60.176
0.90 117.130 60.817
0.91 146.375 67.972
0.92 145.189 73.795
0.93 141.868 76.816
0.94 137.597 78.019
0.95 135.382 78.318
0.96 134.379 78.139
0.97 134.181 77.944
0.98 133.777 78.044
0.99 133.601 78.253
1.00 133.769 78.580
1.01 133.599 78.888
1.02 130.781 78.263
1.03 125.920 75.610
1.04 125.967 71.068
1.05 128.150 66.753
1.06 128.373 63.571
1.07 131.767 60.095
1.08 133.562 55.582
1.09 --undefined-- 53.360
1.10 --undefined-- 60.462
1.11 --undefined-- 68.295
1.12 141.735 73.247
1.13 133.236 75.675
1.14 126.432 76.481
1.15 122.665 76.617
1.16 119.527 76.542
1.17 118.760 76.269
1.18 118.275 75.624
1.19 116.150 74.190
1.20 113.315 72.277
1.21 117.436 71.440
1.22 118.325 71.603
1.23 118.980 71.665
1.24 118.013 71.208
1.25 116.019 70.000
1.26 109.332 67.658
1.27 98.889 64.232
1.28 109.724 60.951
1.29 --undefined-- 59.467
1.30 --undefined-- 60.814
1.31 108.732 64.617
1.32 107.235 67.232
1.33 105.016 68.327
1.34 107.178 69.080
1.35 106.523 70.155
1.36 103.944 70.935
1.37 101.431 71.274
1.38 100.849 71.561
1.39 102.089 71.929
1.40 103.071 72.218
1.41 103.374 72.478
1.42 103.945 72.901
1.43 103.614 73.414
1.44 103.332 73.462
1.45 102.832 72.322
1.46 98.671 69.691
1.47 101.622 65.722
1.48 105.483 60.608
1.49 --undefined-- 55.059
1.50 --undefined-- 50.663
1.51 --undefined-- 50.443
1.52 --undefined-- 59.717
1.53 --undefined-- 66.766
1.54 --undefined-- 70.144
1.55 100.548 70.816
1.56 99.836 70.203
1.57 98.851 70.081
1.58 99.786 71.034
1.59 108.713 72.157
1.60 116.838 73.140
1.61 121.923 73.901
1.62 126.614 73.936
1.63 135.285 73.649
1.64 143.127 74.011
1.65 150.132 74.449
1.66 154.909 74.254
1.67 163.953 74.102
1.68 169.353 74.118
1.69 172.678 73.801
1.70 174.298 73.683
1.71 174.239 74.392
1.72 173.027 75.909
1.73 163.127 77.286
1.74 158.199 77.610
1.75 149.744 77.155
1.76 141.410 76.631
1.77 134.216 76.006
1.78 125.013 74.708
1.79 121.818 73.296
1.80 121.668 72.559
1.81 119.950 72.062
1.82 119.724 71.715
1.83 118.401 71.427
1.84 117.156 71.099
1.85 116.113 70.829
1.86 118.717 71.697
1.87 125.575 73.997
1.88 127.554 75.954
1.89 127.432 76.761
1.90 127.877 76.856
1.91 128.386 76.804
1.92 128.154 76.468
1.93 126.273 75.357
1.94 121.147 72.911
1.95 122.740 68.841
1.96 131.051 63.350
1.97 --undefined-- 56.560
1.98 --undefined-- 50.631
1.99 --undefined-- 50.649
2.00 --undefined-- 53.578
2.01 --undefined-- 59.396
2.02 --undefined-- 66.780
2.03 --undefined-- 71.790
2.04 111.017 74.303
2.05 107.928 75.074
2.06 103.596 74.913
2.07 102.851 74.574
2.08 104.045 74.401
2.09 105.091 74.431
2.10 106.553 74.615
2.11 108.840 74.994
2.12 112.615 75.461
2.13 118.053 75.953
2.14 122.543 76.550
2.15 130.707 77.433
2.16 137.851 78.536
2.17 146.108 79.567
2.18 155.039 80.250
2.19 158.416 80.471
2.20 160.241 80.225
2.21 165.008 79.559
2.22 170.188 78.765
2.23 172.615 78.068
2.24 174.098 76.999
2.25 174.141 74.469
2.26 174.936 69.571
2.27 171.230 62.135
2.28 170.685 55.514
2.29 172.050 53.953
2.30 173.622 53.248
2.31 --undefined-- 53.130
2.32 --undefined-- 53.710
2.33 --undefined-- 54.460
2.34 --undefined-- 55.223
2.35 --undefined-- 55.704
2.36 --undefined-- 55.667
2.37 --undefined-- 55.481
2.38 --undefined-- 55.468
2.39 --undefined-- 55.650
2.40 --undefined-- 55.975
2.41 --undefined-- 56.163
2.42 --undefined-- 56.415
2.43 --undefined-- 56.005
2.44 --undefined-- 55.122
2.45 --undefined-- 54.548
2.46 --undefined-- 53.738
2.47 --undefined-- 52.174
2.48 --undefined-- 50.483
2.49 --undefined-- 49.308
2.50 --undefined-- 47.902
2.51 --undefined-- 45.968
2.52 --undefined-- 43.647
2.53 --undefined-- 40.515
2.54 --undefined-- 38.297
2.55 --undefined-- 38.955
2.56 --undefined-- 43.043
2.57 --undefined-- 51.163
2.58 --undefined-- 62.985
2.59 --undefined-- 71.690
2.60 165.371 76.549
2.61 164.878 78.722
2.62 158.104 79.700
2.63 156.940 80.149
2.64 156.461 79.967
2.65 155.482 79.830
2.66 155.769 80.181
2.67 156.578 80.460
2.68 158.390 80.057
2.69 155.992 78.513
2.70 149.183 75.778
2.71 153.383 72.782
2.72 148.865 70.213
2.73 147.210 67.461
2.74 141.862 63.904
2.75 144.400 60.381
2.76 147.591 60.513
2.77 143.405 66.310
2.78 155.438 72.699
2.79 143.323 76.919
2.80 141.245 79.027
2.81 143.445 79.831
2.82 148.521 80.251
2.83 154.039 80.475
2.84 161.323 80.247
2.85 169.942 79.474
2.86 182.704 78.024
2.87 209.282 76.759
2.88 224.417 77.100
2.89 231.614 77.944
2.90 231.734 77.675
2.91 222.993 75.315
2.92 204.737 70.285
2.93 184.700 62.484
2.94 --undefined-- 53.251
2.95 --undefined-- 49.105
2.96 --undefined-- 49.628
2.97 --undefined-- 50.897
2.98 --undefined-- 53.747
2.99 --undefined-- 61.068
3.00 --undefined-- 69.185
3.01 --undefined-- 74.299
3.02 157.491 77.221
3.03 151.049 78.918
3.04 144.817 79.810
3.05 141.596 80.106
3.06 140.920 79.854
3.07 140.609 78.608
3.08 139.459 75.541
3.09 140.854 70.192
3.10 151.615 63.954
3.11 158.127 58.714
3.12 --undefined-- 53.519
3.13 --undefined-- 52.070
3.14 --undefined-- 55.284
3.15 174.510 60.710
3.16 178.565 67.231
3.17 199.606 71.645
3.18 198.561 73.348
3.19 197.877 73.067
3.20 199.110 72.148
3.21 199.826 71.633
3.22 200.917 71.778
3.23 201.185 72.204
3.24 199.836 72.392
3.25 195.599 72.478
3.26 195.624 72.950
3.27 195.558 73.314
3.28 193.196 73.057
3.29 187.556 71.787
3.30 180.158 68.911
3.31 171.266 63.912
3.32 162.675 57.338
3.33 --undefined-- 54.480
3.34 --undefined-- 61.630
3.35 204.659 69.698
3.36 202.612 74.364
3.37 198.073 76.328
3.38 195.000 76.804
3.39 192.645 76.645
3.40 190.223 76.124
3.41 190.803 75.998
3.42 195.179 76.388
3.43 195.090 76.517
3.44 194.407 76.459
3.45 192.655 76.458
3.46 190.642 76.458
3.47 188.246 76.153
3.48 183.448 75.034
3.49 174.741 72.678
3.50 157.415 69.426
3.51 157.385 66.401
3.52 155.271 62.879
3.53 145.021 57.887
3.54 159.432 54.470
3.55 159.804 54.829
3.56 --undefined-- 55.833
3.57 --undefined-- 57.877
3.58 --undefined-- 63.203
3.59 --undefined-- 69.399
3.60 131.263 72.975
3.61 122.500 73.752
3.62 117.997 72.582
3.63 118.773 70.858
3.64 124.220 70.023
3.65 130.387 71.533
3.66 140.364 74.684
3.67 146.688 77.255
3.68 151.984 78.695
3.69 155.334 79.286
3.70 159.953 79.421
3.71 163.736 79.384
3.72 167.200 79.156
3.73 169.341 78.735
3.74 168.675 78.218
3.75 165.653 77.390
3.76 157.220 75.742
3.77 151.966 73.636
3.78 151.024 72.750
3.79 143.889 72.945
3.80 137.538 73.132
3.81 130.197 73.296
3.82 127.304 74.049
3.83 126.436 74.874
3.84 118.019 75.032
3.85 114.029 74.718
3.86 111.325 74.572
3.87 110.533 74.852
3.88 109.590 75.244
3.89 109.314 75.510
3.90 109.391 75.616
3.91 109.500 75.587
3.92 107.899 75.037
3.93 101.812 73.858
3.94 106.410 72.910
3.95 104.325 72.658
3.96 105.061 72.801
3.97 101.843 72.587
3.98 99.679 72.060
3.99 97.080 71.822
4.00 94.398 72.083
4.01 93.615 72.623
4.02 95.391 72.828
4.03 96.659 72.807
4.04 98.240 73.196
4.05 99.454 73.643
4.06 102.351 73.394
4.07 103.658 72.514
4.08 99.941 71.523
4.09 98.451 70.457
4.10 99.150 69.198
4.11 232.423 67.594
4.12 225.853 64.341
4.13 --undefined-- 58.341
4.14 --undefined-- 50.762
4.15 --undefined-- 47.991
4.16 --undefined-- 52.721
4.17 --undefined-- 55.631
4.18 --undefined-- 55.041
4.19 --undefined-- 52.769
4.20 --undefined-- 50.553
4.21 --undefined-- 48.360
4.22 --undefined-- 48.291
4.23 --undefined-- 49.509
4.24 --undefined-- 51.880
4.25 --undefined-- 57.691
4.26 --undefined-- 65.945
4.27 147.609 71.690
4.28 135.958 74.398
4.29 130.501 75.032
4.30 126.766 74.989
4.31 123.308 74.707
4.32 121.412 73.720
4.33 123.605 72.542
4.34 126.614 72.041
4.35 127.548 72.026
4.36 127.852 72.224
4.37 127.695 72.459
4.38 128.164 72.664
4.39 128.407 72.735
4.40 127.677 72.472
4.41 126.218 71.601
4.42 122.639 69.813
4.43 120.748 67.041
4.44 125.543 63.811
4.45 125.291 59.731
4.46 --undefined-- 54.518
4.47 --undefined-- 52.185
4.48 --undefined-- 55.354
4.49 --undefined-- 62.789
4.50 --undefined-- 70.270
4.51 140.073 75.093
4.52 138.367 77.645
4.53 138.144 78.725
4.54 140.783 79.074
4.55 142.648 79.023
4.56 142.910 78.225
4.57 141.104 76.011
4.58 151.442 74.210
4.59 151.314 76.352
4.60 155.816 78.404
4.61 161.147 78.917
4.62 159.785 78.717
4.63 159.587 78.746
4.64 159.432 78.900
4.65 158.042 78.587
4.66 155.508 77.829
4.67 155.166 77.223
4.68 153.585 76.552
4.69 151.213 75.642
4.70 148.436 75.094
4.71 147.490 75.108
4.72 144.766 75.318
4.73 141.235 75.285
4.74 129.185 74.909
4.75 124.088 74.448
4.76 119.891 73.962
4.77 112.492 73.187
4.78 110.560 72.390
4.79 107.814 71.669
4.80 105.050 70.253
4.81 98.814 67.469
4.82 100.319 63.993
4.83 105.933 60.955
4.84 113.317 57.761
4.85 --undefined-- 53.222
4.86 --undefined-- 48.216
4.87 --undefined-- 45.696
4.88 --undefined-- 44.169
4.89 --undefined-- 46.283
4.90 --undefined-- 53.990
4.91 --undefined-- 64.249
4.92 168.151 71.425
4.93 158.441 75.564
4.94 153.128 77.512
4.95 153.942 78.213
4.96 153.633 78.029
4.97 152.279 77.351
4.98 151.210 76.846
4.99 150.357 76.620
5.00 149.652 76.466
5.01 149.473 76.406
5.02 149.436 76.121
5.03 148.834 75.095
5.04 146.582 73.486
5.05 147.753 72.500
5.06 149.762 72.520
5.07 150.378 72.845
5.08 151.280 73.181
5.09 151.452 73.359
5.10 150.534 --undefined--
5.11 147.558 --undefined--
5.12 --undefined-- --undefined--
5.13 --undefined-- --undefined--
