Time Pitch Intensity
0.01 --undefined-- --undefined--
0.02 209.719 --undefined--
0.03 171.413 --undefined--
0.04 156.173 --undefined--
0.05 149.571 72.582
0.06 148.230 75.159
0.07 149.123 76.645
0.08 149.511 77.271
0.09 150.966 77.472
0.10 154.566 77.592
0.11 158.047 77.420
0.12 158.279 76.496
0.13 163.801 74.956
0.14 164.221 73.235
0.15 159.201 70.714
0.16 148.580 66.281
0.17 145.113 59.347
0.18 --undefined-- 52.413
0.19 --undefined-- 57.773
0.20 202.949 66.249
0.21 179.789 71.473
0.22 161.862 74.125
0.23 151.304 75.204
0.24 145.810 75.188
0.25 136.462 74.340
0.26 131.424 73.251
0.27 128.534 72.595
0.28 127.827 72.399
0.29 124.375 72.369
0.30 128.183 72.449
0.31 130.723 72.229
0.32 128.726 71.707
0.33 126.634 71.214
0.34 125.017 70.739
0.35 123.736 70.225
0.36 126.965 70.340
0.37 124.800 71.670
0.38 122.211 72.794
0.39 119.590 73.107
0.40 119.578 73.386
0.41 120.396 73.726
0.42 122.687 73.657
0.43 128.328 73.503
0.44 132.090 73.965
0.45 135.268 74.628
0.46 137.884 74.848
0.47 137.125 74.132
0.48 137.426 71.703
0.49 --undefined-- 66.799
0.50 --undefined-- 59.296
0.51 --undefined-- 50.738
0.52 --undefined-- 47.152
0.53 --undefined-- 52.313
0.54 --undefined-- 61.598
0.55 159.283 68.082
0.56 150.567 71.399
0.57 142.541 72.345
0.58 132.983 71.952
0.59 130.762 71.335
0.60 129.503 71.091
0.61 129.755 71.287
0.62 129.196 71.905
0.63 131.234 72.793
0.64 132.636 73.433
0.65 133.195 73.733
0.66 134.171 73.875
0.67 134.953 73.916
0.68 135.352 73.718
0.69 134.914 72.860
0.70 133.787 70.596
0.71 --undefined-- 66.178
0.72 --undefined-- 59.599
0.73 --undefined-- 55.996
0.74 --undefined-- 61.264
0.75 --undefined-- 64.905
0.76 --undefined-- 67.484
0.77 --undefined-- 70.675
0.78 143.245 72.813
0.79 139.961 73.396
0.80 134.950 73.096
0.81 132.807 72.943
0.82 131.828 73.397
0.83 131.553 74.165
0.84 129.348 74.601
0.85 131.687 74.282
0.86 132.505 74.035
0.87 133.006 74.581
0.88 133.845 74.901
0.89 133.989 74.178
0.90 131.247 72.577
0.91 127.799 71.056
0.92 127.091 70.453
0.93 128.040 70.853
0.94 128.630 72.090
0.95 127.497 73.732
0.96 127.571 74.714
0.97 123.654 74.884
0.98 120.991 75.055
0.99 120.163 75.157
1.00 120.845 74.940
1.01 122.519 74.737
1.02 123.897 74.861
1.03 124.949 75.282
1.04 125.292 75.557
1.05 124.665 75.437
1.06 123.791 75.163
1.07 122.914 74.933
1.08 122.741 74.621
1.09 122.717 74.223
1.10 123.123 73.813
1.11 123.976 73.219
1.12 123.607 71.959
1.13 122.145 70.015
1.14 118.644 67.982
1.15 --undefined-- 65.617
1.16 --undefined-- 61.780
1.17 --undefined-- 57.545
1.18 --undefined-- 54.152
1.19 --undefined-- 50.032
1.20 --undefined-- 45.205
1.21 --undefined-- 41.508
1.22 --undefined-- 40.923
1.23 --undefined-- 41.490
1.24 --undefined-- 41.570
1.25 --undefined-- 40.292
1.26 --undefined-- 39.325
1.27 --undefined-- 39.619
1.28 --undefined-- 38.800
1.29 --undefined-- 37.336
1.30 --undefined-- 37.455
1.31 --undefined-- 37.489
1.32 --undefined-- 37.225
1.33 --undefined-- 37.571
1.34 --undefined-- 39.109
1.35 --undefined-- 40.146
1.36 --undefined-- 38.513
1.37 --undefined-- 34.698
1.38 --undefined-- 36.150
1.39 --undefined-- 46.939
1.40 --undefined-- 55.526
1.41 --undefined-- 61.883
1.42 184.534 67.080
1.43 174.891 70.626
1.44 162.616 72.579
1.45 158.993 73.889
1.46 156.804 75.431
1.47 155.476 76.955
1.48 155.947 77.624
1.49 157.527 77.473
1.50 160.845 77.158
1.51 161.244 76.967
1.52 161.362 76.858
1.53 161.934 76.747
1.54 162.065 76.614
1.55 162.138 76.437
1.56 161.700 76.171
1.57 160.795 75.862
1.58 160.705 75.651
1.59 160.815 75.471
1.60 159.235 74.759
1.61 153.846 72.693
1.62 143.520 68.725
1.63 141.964 62.924
1.64 --undefined-- 55.858
1.65 --undefined-- 49.125
1.66 --undefined-- 49.063
1.67 --undefined-- 54.009
1.68 --undefined-- 62.924
1.69 222.695 70.455
1.70 210.437 74.993
1.71 196.943 77.345
1.72 191.367 78.601
1.73 190.177 79.158
1.74 188.432 78.805
1.75 187.092 77.676
1.76 186.226 76.063
1.77 184.559 74.376
1.78 184.072 73.561
1.79 184.476 73.539
1.80 184.729 73.622
1.81 185.312 73.610
1.82 185.253 73.498
1.83 184.773 73.287
1.84 183.777 72.906
1.85 181.790 72.293
1.86 179.937 71.388
1.87 177.838 70.062
1.88 173.522 68.431
1.89 --undefined-- 66.991
1.90 260.488 65.263
1.91 266.164 62.034
1.92 263.316 57.610
1.93 --undefined-- 53.420
1.94 --undefined-- 56.436
1.95 263.678 61.952
1.96 250.103 65.197
1.97 --undefined-- 67.983
1.98 --undefined-- 71.698
1.99 202.205 74.921
2.00 198.985 76.689
2.01 191.440 77.825
2.02 188.201 78.367
2.03 185.233 78.100
2.04 183.222 77.495
2.05 179.970 76.474
2.06 175.918 75.212
2.07 171.149 74.391
2.08 163.504 73.863
2.09 156.081 73.740
2.10 152.497 74.361
2.11 149.002 75.294
2.12 142.528 75.856
2.13 137.134 75.752
2.14 132.637 75.435
2.15 129.945 75.096
2.16 127.432 74.536
2.17 126.593 73.870
2.18 126.366 73.328
2.19 125.505 72.794
2.20 124.196 71.739
2.21 121.558 69.355
2.22 111.031 65.210
2.23 103.306 59.922
2.24 --undefined-- 54.103
2.25 --undefined-- 49.255
2.26 --undefined-- 53.106
2.27 --undefined-- 59.291
2.28 --undefined-- 63.407
2.29 148.325 66.428
2.30 124.544 68.105
2.31 119.839 68.409
2.32 115.115 68.146
2.33 110.024 67.721
2.34 104.287 67.219
2.35 104.572 66.776
2.36 105.265 66.399
2.37 107.911 66.436
2.38 113.890 67.429
2.39 117.271 68.913
2.40 121.341 70.333
2.41 129.123 71.227
2.42 131.301 71.597
2.43 140.533 72.274
2.44 151.847 72.958
2.45 161.697 73.232
2.46 169.369 73.387
2.47 169.659 72.929
2.48 162.349 70.939
2.49 150.412 67.153
2.50 148.077 62.092
2.51 --undefined-- 56.078
2.52 --undefined-- 50.507
2.53 --undefined-- 48.091
2.54 --undefined-- 47.368
2.55 --undefined-- 47.494
2.56 --undefined-- 47.977
2.57 --undefined-- 53.951
2.58 --undefined-- 61.959
2.59 --undefined-- 66.776
2.60 125.372 68.966
2.61 121.878 69.657
2.62 121.345 69.853
2.63 120.178 70.021
2.64 120.990 70.490
2.65 121.664 71.424
2.66 129.797 72.638
2.67 134.992 73.872
2.68 139.269 74.892
2.69 143.998 75.490
2.70 149.951 75.580
2.71 154.898 75.177
2.72 161.402 74.390
2.73 167.231 73.635
2.74 173.844 73.402
2.75 177.480 73.484
2.76 177.907 73.169
2.77 177.802 72.215
2.78 179.998 70.782
2.79 89.358 68.492
2.80 93.740 64.783
2.81 95.912 59.883
2.82 --undefined-- 54.207
2.83 --undefined-- 48.218
2.84 --undefined-- 43.103
2.85 --undefined-- 41.690
2.86 --undefined-- 41.119
2.87 --undefined-- 39.368
2.88 --undefined-- 37.943
2.89 --undefined-- 37.508
2.90 --undefined-- 36.751
2.91 --undefined-- 36.179
2.92 --undefined-- 36.465
2.93 --undefined-- 36.781
2.94 --undefined-- 36.097
2.95 --undefined-- 35.266
2.96 --undefined-- 35.301
2.97 --undefined-- 35.279
2.98 --undefined-- 35.213
2.99 --undefined-- 34.574
3.00 --undefined-- 34.309
3.01 --undefined-- 35.021
3.02 --undefined-- 37.259
3.03 --undefined-- 38.718
3.04 --undefined-- 38.570
3.05 --undefined-- 38.531
3.06 --undefined-- 37.957
3.07 --undefined-- 35.989
3.08 --undefined-- 35.302
3.09 --undefined-- 35.870
3.10 --undefined-- 35.911
3.11 --undefined-- 35.501
3.12 --undefined-- 36.168
3.13 --undefined-- 37.938
3.14 --undefined-- 38.465
3.15 --undefined-- 39.354
3.16 --undefined-- 40.534
3.17 --undefined-- 39.661
3.18 --undefined-- 36.463
3.19 --undefined-- 34.065
3.20 --undefined-- 34.658
3.21 --undefined-- 37.085
3.22 --undefined-- 50.860
3.23 --undefined-- 61.637
3.24 --undefined-- 68.636
3.25 174.828 73.248
3.26 179.427 76.065
3.27 177.288 76.988
3.28 168.717 76.027
3.29 159.368 73.405
3.30 143.645 69.025
3.31 --undefined-- 62.979
3.32 --undefined-- 56.194
3.33 --undefined-- 50.915
3.34 --undefined-- 48.640
3.35 --undefined-- 45.258
3.36 --undefined-- 40.820
3.37 --undefined-- 38.993
3.38 --undefined-- 44.858
3.39 --undefined-- 57.111
3.40 --undefined-- 66.511
3.41 253.588 73.289
3.42 232.752 77.705
3.43 224.981 79.491
3.44 221.479 78.448
3.45 220.250 74.951
3.46 209.166 72.198
3.47 207.029 72.684
3.48 207.907 73.756
3.49 205.883 74.819
3.50 203.613 75.789
3.51 202.219 76.065
3.52 195.307 75.697
3.53 185.002 75.579
3.54 170.377 76.276
3.55 164.945 77.013
3.56 158.511 77.046
3.57 153.271 76.805
3.58 150.486 76.719
3.59 148.328 76.694
3.60 147.433 76.621
3.61 145.769 76.236
3.62 143.409 74.943
3.63 142.728 71.883
3.64 --undefined-- 66.184
3.65 --undefined-- 57.596
3.66 --undefined-- 48.670
3.67 --undefined-- 47.321
3.68 --undefined-- 55.731
3.69 --undefined-- 64.848
3.70 180.489 70.334
3.71 162.196 73.072
3.72 153.362 74.471
3.73 146.549 75.016
3.74 142.128 74.679
3.75 140.848 74.180
3.76 135.897 73.778
3.77 133.176 73.722
3.78 135.921 74.230
3.79 137.145 74.467
3.80 136.757 73.835
3.81 133.139 71.844
3.82 125.021 67.985
3.83 --undefined-- 62.332
3.84 --undefined-- 61.192
3.85 --undefined-- 66.173
3.86 --undefined-- 70.859
3.87 155.217 74.015
3.88 147.863 75.147
3.89 140.020 74.686
3.90 137.555 74.063
3.91 136.067 74.293
3.92 131.973 75.032
3.93 132.966 75.375
3.94 133.673 74.643
3.95 134.180 72.399
3.96 121.301 68.225
3.97 115.638 62.364
3.98 --undefined-- 55.811
3.99 --undefined-- 48.848
4.00 --undefined-- 44.796
4.01 --undefined-- 44.910
4.02 --undefined-- 46.301
4.03 --undefined-- 47.913
4.04 --undefined-- 48.681
4.05 --undefined-- 51.868
4.06 --undefined-- 59.147
4.07 130.901 64.211
4.08 128.553 66.622
4.09 121.707 67.484
4.10 120.544 67.902
4.11 120.348 68.364
4.12 121.773 68.954
4.13 125.080 69.613
4.14 128.482 70.172
4.15 132.422 70.693
4.16 137.718 71.485
4.17 139.194 72.365
4.18 144.497 72.980
4.19 149.082 73.141
4.20 156.271 72.669
4.21 164.261 71.762
4.22 169.885 71.006
4.23 173.584 70.365
4.24 176.475 69.561
4.25 180.228 68.268
4.26 --undefined-- 65.942
4.27 --undefined-- 62.521
4.28 --undefined-- 58.910
4.29 --undefined-- 54.743
4.30 --undefined-- 49.031
4.31 --undefined-- 43.074
4.32 --undefined-- 40.359
4.33 --undefined-- 39.241
4.34 --undefined-- 38.249
4.35 --undefined-- 38.036
4.36 --undefined-- 37.917
4.37 --undefined-- 37.465
4.38 --undefined-- 37.054
4.39 --undefined-- 36.664
4.40 --undefined-- 37.103
4.41 --undefined-- 38.195
4.42 --undefined-- 39.907
4.43 --undefined-- 44.283
4.44 --undefined-- 48.040
4.45 --undefined-- 48.578
4.46 --undefined-- 45.985
4.47 --undefined-- 42.547
4.48 --undefined-- 41.138
4.49 --undefined-- 41.095
4.50 --undefined-- 41.512
4.51 --undefined-- 41.766
4.52 --undefined-- 42.195
4.53 --undefined-- 42.924
4.54 --undefined-- 44.245
4.55 --undefined-- 49.075
4.56 --undefined-- 58.643
4.57 162.826 65.828
4.58 154.132 70.216
4.59 151.600 72.541
4.60 150.083 73.623
4.61 151.138 73.998
4.62 154.020 74.049
4.63 157.809 73.897
4.64 163.370 73.392
4.65 173.519 72.468
4.66 187.192 71.628
4.67 196.802 71.366
4.68 202.045 71.289
4.69 203.663 71.084
4.70 201.008 70.996
4.71 195.609 71.439
4.72 183.492 72.765
4.73 176.105 74.059
4.74 165.494 74.256
4.75 150.936 73.981
4.76 145.750 73.484
4.77 133.942 71.969
4.78 120.630 70.324
4.79 112.905 70.195
4.80 111.790 70.353
4.81 109.176 69.714
4.82 109.140 68.960
4.83 110.382 68.623
4.84 110.299 68.377
4.85 110.742 68.138
4.86 111.118 67.936
4.87 110.326 67.155
4.88 107.667 65.003
4.89 101.907 60.791
4.90 --undefined-- 54.667
4.91 --undefined-- 50.741
4.92 --undefined-- 53.374
4.93 --undefined-- 54.450
4.94 --undefined-- 55.410
4.95 167.516 60.451
4.96 149.971 64.806
4.97 145.548 67.605
4.98 145.415 69.320
4.99 143.919 70.707
5.00 142.165 72.578
5.01 141.803 74.458
5.02 143.047 75.660
5.03 142.966 76.198
5.04 141.384 76.300
5.05 140.010 76.139
5.06 139.266 75.755
5.07 139.342 75.055
5.08 138.533 73.658
5.09 137.564 70.952
5.10 132.756 66.095
5.11 --undefined-- 59.053
5.12 --undefined-- 52.123
5.13 --undefined-- 56.721
5.14 214.678 64.620
5.15 193.784 69.493
5.16 174.754 72.313
5.17 168.581 73.911
5.18 166.292 74.678
5.19 163.249 74.600
5.20 160.442 74.022
5.21 159.684 73.830
5.22 163.668 74.165
5.23 166.224 74.364
5.24 168.435 74.263
5.25 170.214 73.991
5.26 170.878 73.689
5.27 170.076 73.380
5.28 166.878 72.779
5.29 161.735 71.321
5.30 151.282 68.376
5.31 145.806 63.385
5.32 --undefined-- 56.478
5.33 --undefined-- 48.199
5.34 --undefined-- 44.853
5.35 --undefined-- 53.904
5.36 --undefined-- 62.281
5.37 157.534 67.093
5.38 147.700 69.070
5.39 130.702 69.327
5.40 126.191 69.069
5.41 125.705 68.709
5.42 125.649 68.102
5.43 126.030 67.679
5.44 126.190 67.797
5.45 125.676 68.307
5.46 126.239 68.989
5.47 125.524 69.592
5.48 125.902 69.951
5.49 127.071 70.185
5.50 129.316 70.476
5.51 133.307 70.930
5.52 137.894 71.583
5.53 141.136 72.085
5.54 144.644 72.174
5.55 147.698 71.590
5.56 149.403 69.940
5.57 149.807 67.322
5.58 --undefined-- 64.383
5.59 --undefined-- 61.335
5.60 --undefined-- 56.983
5.61 --undefined-- 51.455
5.62 --undefined-- 46.159
5.63 --undefined-- 41.364
5.64 --undefined-- 37.945
5.65 --undefined-- 36.082
5.66 --undefined-- 35.051
5.67 --undefined-- 34.654
5.68 --undefined-- 42.643
5.69 --undefined-- 52.358
5.70 221.422 --undefined--
5.71 200.205 --undefined--
5.72 --undefined-- --undefined--
5.73 --undefined-- --undefined--
