Time Pitch Intensity
0.01 --undefined-- --undefined--
0.02 151.194 --undefined--
0.03 153.433 --undefined--
0.04 154.973 --undefined--
0.05 156.618 59.769
0.06 160.210 59.299
0.07 161.532 59.206
0.08 161.501 59.249
0.09 161.171 59.152
0.10 159.418 59.274
0.11 151.979 59.383
0.12 148.687 59.031
0.13 142.988 58.232
0.14 137.032 57.212
0.15 132.663 56.252
0.16 129.604 55.180
0.17 127.389 53.882
0.18 123.766 53.101
0.19 127.844 54.250
0.20 128.209 57.731
0.21 135.316 61.694
0.22 134.836 64.661
0.23 134.295 66.013
0.24 133.472 65.591
0.25 138.915 64.523
0.26 140.933 64.150
0.27 142.190 63.642
0.28 151.640 62.859
0.29 157.227 62.942
0.30 165.190 63.822
0.31 168.378 65.016
0.32 171.132 66.099
0.33 172.889 66.568
0.34 174.366 66.175
0.35 174.833 64.441
0.36 174.154 60.706
0.37 --undefined-- 54.386
0.38 --undefined-- 45.547
0.39 --undefined-- 39.067
0.40 --undefined-- 37.600
0.41 --undefined-- 36.517
0.42 --undefined-- 33.512
0.43 --undefined-- 29.900
0.44 --undefined-- 29.944
0.45 --undefined-- 35.580
0.46 --undefined-- 47.629
0.47 --undefined-- 56.729
0.48 190.389 62.419
0.49 190.320 65.254
0.50 187.031 66.253
0.51 185.165 67.298
0.52 183.611 69.167
0.53 180.639 70.615
0.54 177.317 70.432
0.55 174.686 67.853
0.56 169.090 62.678
0.57 160.771 57.843
0.58 155.968 56.676
0.59 151.741 56.235
0.60 146.929 55.904
0.61 141.717 55.204
0.62 136.330 53.983
0.63 --undefined-- 52.104
0.64 --undefined-- 50.979
0.65 119.232 52.856
0.66 118.439 54.291
0.67 121.361 54.846
0.68 126.018 57.076
0.69 129.400 60.208
0.70 133.234 62.485
0.71 140.652 63.585
0.72 149.838 63.875
0.73 156.204 63.943
0.74 159.469 64.627
0.75 165.560 66.306
0.76 175.579 68.546
0.77 183.949 70.494
0.78 189.011 71.609
0.79 192.262 71.742
0.80 192.107 70.740
0.81 189.498 68.417
0.82 185.291 64.286
0.83 173.071 57.837
0.84 --undefined-- 49.735
0.85 --undefined-- 43.897
0.86 --undefined-- 46.226
0.87 --undefined-- 54.294
0.88 160.500 60.625
0.89 160.935 64.355
0.90 156.932 65.570
0.91 148.580 64.828
0.92 138.963 62.917
0.93 135.179 60.014
0.94 133.061 55.439
0.95 --undefined-- 49.047
0.96 --undefined-- 41.536
0.97 --undefined-- 36.419
0.98 --undefined-- 35.328
0.99 --undefined-- 34.308
1.00 --undefined-- 32.663
1.01 --undefined-- 34.151
1.02 --undefined-- 45.952
1.03 --undefined-- 53.778
1.04 257.884 56.671
1.05 257.065 55.416
1.06 --undefined-- 51.301
1.07 --undefined-- 47.877
1.08 --undefined-- 45.722
1.09 --undefined-- 44.164
1.10 --undefined-- 46.022
1.11 --undefined-- 55.578
1.12 176.386 63.805
1.13 176.251 69.133
1.14 173.111 71.708
1.15 168.730 71.931
1.16 166.183 70.643
1.17 165.009 68.692
1.18 167.077 66.336
1.19 167.622 63.933
1.20 165.107 62.420
1.21 162.831 61.866
1.22 160.608 61.577
1.23 158.273 61.627
1.24 156.937 61.807
1.25 156.028 61.755
1.26 154.368 61.345
1.27 151.784 60.009
1.28 145.896 57.613
1.29 139.554 55.659
1.30 136.169 56.712
1.31 135.875 59.665
1.32 136.404 62.491
1.33 135.478 64.256
1.34 132.818 64.969
1.35 131.093 64.900
1.36 126.042 63.493
1.37 122.569 59.969
1.38 --undefined-- 54.611
1.39 --undefined-- 48.458
1.40 --undefined-- 43.233
1.41 --undefined-- 40.763
1.42 --undefined-- 39.276
1.43 --undefined-- 38.021
1.44 --undefined-- 37.390
1.45 --undefined-- 37.765
1.46 --undefined-- 38.668
1.47 --undefined-- 39.464
1.48 --undefined-- 40.121
1.49 --undefined-- 40.005
1.50 --undefined-- 38.685
1.51 --undefined-- 37.889
1.52 --undefined-- 38.514
1.53 --undefined-- 40.218
1.54 --undefined-- 45.187
1.55 --undefined-- 50.648
1.56 119.367 54.102
1.57 120.447 55.900
1.58 121.867 57.160
1.59 123.915 58.496
1.60 127.195 59.845
1.61 132.683 61.036
1.62 135.725 61.290
1.63 136.135 59.906
1.64 135.910 57.962
1.65 138.409 57.750
1.66 138.458 57.908
1.67 136.995 57.897
1.68 133.065 58.266
1.69 129.717 58.965
1.70 --undefined-- 61.171
1.71 --undefined-- 63.983
1.72 111.559 65.503
1.73 101.230 65.542
1.74 90.140 64.652
1.75 78.906 62.934
1.76 79.063 60.414
1.77 --undefined-- 58.114
1.78 --undefined-- 54.474
1.79 --undefined-- 47.958
1.80 --undefined-- 41.540
1.81 --undefined-- 37.616
1.82 --undefined-- 34.356
1.83 --undefined-- 33.342
1.84 --undefined-- 34.611
1.85 --undefined-- 36.146
1.86 --undefined-- 40.580
1.87 --undefined-- 50.326
1.88 135.699 59.282
1.89 136.848 65.519
1.90 136.516 69.452
1.91 136.878 71.565
1.92 135.062 72.082
1.93 134.739 71.080
1.94 134.489 68.429
1.95 133.117 64.183
1.96 --undefined-- 58.798
1.97 --undefined-- 52.930
1.98 --undefined-- 47.844
1.99 --undefined-- 44.650
2.00 --undefined-- 42.847
2.01 --undefined-- 40.977
2.02 --undefined-- 38.155
2.03 --undefined-- 34.936
2.04 --undefined-- 34.339
2.05 --undefined-- 35.350
2.06 --undefined-- 36.265
2.07 --undefined-- 36.572
2.08 --undefined-- 36.560
2.09 --undefined-- 36.558
2.10 --undefined-- 37.101
2.11 --undefined-- 38.614
2.12 --undefined-- 39.476
2.13 --undefined-- 38.877
2.14 --undefined-- 37.064
2.15 --undefined-- 34.121
2.16 --undefined-- 31.741
2.17 --undefined-- 32.230
2.18 --undefined-- 33.118
2.19 --undefined-- 32.336
2.20 --undefined-- 30.525
2.21 --undefined-- 29.828
2.22 --undefined-- 29.805
2.23 --undefined-- 29.365
2.24 --undefined-- 30.075
2.25 --undefined-- 30.806
2.26 --undefined-- 30.057
2.27 --undefined-- 29.289
2.28 --undefined-- 29.668
2.29 --undefined-- 30.333
2.30 --undefined-- 30.024
2.31 --undefined-- 29.594
2.32 --undefined-- 29.379
2.33 --undefined-- 29.606
2.34 --undefined-- 30.042
2.35 --undefined-- 29.472
2.36 --undefined-- 28.874
2.37 --undefined-- 29.749
2.38 --undefined-- 30.624
2.39 --undefined-- 30.606
2.40 --undefined-- 29.238
2.41 --undefined-- 31.378
2.42 --undefined-- 44.566
2.43 --undefined-- 54.974
2.44 136.909 61.606
2.45 134.534 65.177
2.46 126.719 66.390
2.47 126.638 66.057
2.48 126.376 64.683
2.49 122.240 62.036
2.50 112.949 57.697
2.51 --undefined-- 51.589
2.52 --undefined-- 46.471
2.53 --undefined-- 52.180
2.54 131.955 61.548
2.55 136.403 68.661
2.56 139.708 73.202
2.57 136.090 75.491
2.58 133.756 75.882
2.59 131.299 74.533
2.60 --undefined-- 71.250
2.61 --undefined-- 65.666
2.62 --undefined-- 58.781
2.63 --undefined-- 55.499
2.64 --undefined-- 54.249
2.65 --undefined-- 52.629
2.66 --undefined-- 51.052
2.67 --undefined-- 53.001
2.68 116.502 58.685
2.69 120.294 63.350
2.70 126.511 66.351
2.71 128.338 67.505
2.72 126.578 66.738
2.73 130.174 64.347
2.74 137.279 60.938
2.75 144.292 58.229
2.76 159.325 60.291
2.77 166.810 64.333
2.78 170.922 67.530
2.79 177.587 69.586
2.80 180.981 70.422
2.81 180.616 69.618
2.82 178.117 66.236
2.83 --undefined-- 59.345
2.84 --undefined-- 58.757
2.85 --undefined-- 68.331
2.86 --undefined-- 74.015
2.87 --undefined-- 76.277
2.88 --undefined-- 75.548
2.89 --undefined-- 72.004
2.90 --undefined-- 66.060
2.91 --undefined-- 62.925
2.92 --undefined-- 64.959
2.93 --undefined-- 66.811
2.94 --undefined-- 67.742
2.95 --undefined-- 68.206
2.96 113.215 68.790
2.97 110.396 68.380
2.98 110.122 65.783
2.99 --undefined-- 60.722
3.00 --undefined-- 53.104
3.01 --undefined-- 42.911
3.02 --undefined-- 35.028
3.03 --undefined-- 35.701
3.04 --undefined-- 41.614
3.05 --undefined-- 55.653
3.06 --undefined-- 66.139
3.07 --undefined-- 72.603
3.08 --undefined-- 76.030
3.09 147.033 76.922
3.10 150.275 75.616
3.11 152.756 72.844
3.12 153.760 69.724
3.13 --undefined-- 66.632
3.14 --undefined-- 62.569
3.15 --undefined-- 57.080
3.16 --undefined-- 52.868
3.17 --undefined-- 51.267
3.18 --undefined-- 50.539
3.19 --undefined-- 50.745
3.20 --undefined-- 52.940
3.21 291.269 54.696
3.22 277.429 55.115
3.23 269.389 55.706
3.24 250.609 56.789
3.25 244.090 56.785
3.26 235.670 56.367
3.27 223.812 58.383
3.28 219.923 61.080
3.29 218.878 61.737
3.30 104.190 60.248
3.31 99.864 57.704
3.32 95.818 55.282
3.33 94.875 54.886
3.34 94.863 56.364
3.35 95.812 57.934
3.36 98.200 59.827
3.37 99.994 61.396
3.38 102.105 62.142
3.39 103.494 62.066
3.40 105.846 61.518
3.41 106.453 60.456
3.42 105.521 57.987
3.43 103.277 54.441
3.44 105.077 52.779
3.45 106.478 53.418
3.46 107.545 54.373
3.47 107.431 54.703
3.48 106.731 54.507
3.49 106.061 54.297
3.50 106.143 54.187
3.51 105.798 53.932
3.52 104.861 53.550
3.53 103.486 53.371
3.54 102.506 52.981
3.55 101.644 52.456
3.56 102.079 54.297
3.57 101.433 58.021
3.58 100.811 60.586
3.59 100.337 61.050
3.60 97.843 59.322
3.61 97.843 55.864
3.62 --undefined-- 52.109
3.63 --undefined-- 49.760
3.64 --undefined-- 48.041
3.65 --undefined-- 44.822
3.66 --undefined-- 39.710
3.67 --undefined-- 34.265
3.68 --undefined-- 31.787
3.69 --undefined-- 31.702
3.70 --undefined-- 32.895
3.71 --undefined-- 34.563
3.72 --undefined-- 35.577
3.73 --undefined-- 35.871
3.74 --undefined-- 35.770
3.75 --undefined-- 36.158
3.76 --undefined-- 35.974
3.77 --undefined-- 34.733
3.78 --undefined-- 34.226
3.79 --undefined-- 33.939
3.80 --undefined-- 33.408
3.81 --undefined-- 46.028
3.82 --undefined-- 58.125
3.83 --undefined-- 65.278
3.84 186.015 69.085
3.85 186.033 70.704
3.86 187.762 70.949
3.87 191.176 70.658
3.88 193.491 70.548
3.89 194.916 70.622
3.90 194.782 70.644
3.91 194.915 70.191
3.92 194.598 68.377
3.93 190.760 64.301
3.94 177.387 58.709
3.95 177.952 60.566
3.96 192.084 66.455
3.97 196.186 70.105
3.98 194.239 71.502
3.99 191.584 71.821
4.00 190.433 71.838
4.01 191.046 71.437
4.02 191.494 70.704
4.03 189.297 70.021
4.04 184.623 69.189
4.05 178.212 67.298
4.06 171.614 63.793
4.07 163.961 58.713
4.08 --undefined-- 52.544
4.09 --undefined-- 46.516
4.10 --undefined-- 41.688
4.11 --undefined-- 37.750
4.12 --undefined-- 36.287
4.13 --undefined-- 37.205
4.14 --undefined-- 39.180
4.15 --undefined-- 40.788
4.16 --undefined-- 41.655
4.17 --undefined-- 41.519
4.18 --undefined-- 40.102
4.19 --undefined-- 38.215
4.20 --undefined-- 38.485
4.21 --undefined-- 40.950
4.22 --undefined-- 43.951
4.23 --undefined-- 47.359
4.24 --undefined-- 51.228
4.25 109.093 54.299
4.26 113.032 55.724
4.27 112.813 54.936
4.28 --undefined-- 51.313
4.29 --undefined-- 44.619
4.30 --undefined-- 36.967
4.31 --undefined-- 32.857
4.32 --undefined-- 32.709
4.33 --undefined-- 35.374
4.34 --undefined-- 44.734
4.35 --undefined-- 53.283
4.36 --undefined-- 57.072
4.37 --undefined-- 58.957
4.38 187.700 64.521
4.39 185.650 69.954
4.40 183.704 73.352
4.41 181.112 75.495
4.42 178.335 76.832
4.43 176.887 77.566
4.44 177.397 77.737
4.45 177.874 77.402
4.46 178.160 76.929
4.47 178.627 76.644
4.48 179.337 76.402
4.49 180.483 75.922
4.50 181.105 75.158
4.51 180.157 74.238
4.52 178.634 73.149
4.53 176.159 71.969
4.54 173.513 70.675
4.55 168.774 68.900
4.56 --undefined-- 66.690
4.57 --undefined-- 65.023
4.58 --undefined-- 63.935
4.59 --undefined-- 63.178
4.60 --undefined-- 61.804
4.61 --undefined-- 58.369
4.62 --undefined-- 53.180
4.63 --undefined-- 50.179
4.64 --undefined-- 49.888
4.65 --undefined-- 49.914
4.66 --undefined-- 50.052
4.67 --undefined-- 50.171
4.68 --undefined-- 50.077
4.69 --undefined-- 50.137
4.70 --undefined-- 54.082
4.71 129.646 60.013
4.72 128.010 64.284
4.73 128.529 66.972
4.74 126.757 68.333
4.75 124.044 68.422
4.76 123.264 67.844
4.77 124.138 67.486
4.78 125.803 67.338
4.79 129.242 67.029
4.80 134.163 66.632
4.81 138.941 66.427
4.82 145.634 66.491
4.83 156.595 67.012
4.84 172.222 68.102
4.85 184.582 69.285
4.86 192.143 69.909
4.87 198.865 69.993
4.88 205.926 70.367
4.89 212.650 71.374
4.90 213.782 72.032
4.91 209.008 71.808
4.92 202.918 70.039
4.93 202.183 65.564
4.94 --undefined-- 58.146
4.95 --undefined-- 51.636
4.96 --undefined-- 49.180
4.97 --undefined-- 47.525
4.98 --undefined-- 47.210
4.99 --undefined-- 48.552
5.00 --undefined-- 50.696
5.01 --undefined-- 53.182
5.02 151.245 55.659
5.03 151.885 57.304
5.04 152.699 58.167
5.05 152.768 58.776
5.06 152.658 59.054
5.07 152.525 58.850
5.08 151.414 58.443
5.09 148.778 57.927
5.10 146.806 57.440
5.11 142.426 58.829
5.12 147.761 63.414
5.13 156.766 67.802
5.14 --undefined-- 70.938
5.15 --undefined-- 72.843
5.16 --undefined-- 73.483
5.17 127.180 72.905
5.18 126.930 71.929
5.19 128.973 71.177
5.20 134.824 70.260
5.21 137.602 68.804
5.22 141.070 66.582
5.23 144.346 63.493
5.24 148.117 59.130
5.25 --undefined-- 53.474
5.26 --undefined-- 47.873
5.27 --undefined-- 45.487
5.28 --undefined-- 47.231
5.29 --undefined-- 51.318
5.30 179.314 55.048
5.31 182.405 57.754
5.32 184.808 61.029
5.33 185.753 64.880
5.34 185.156 67.107
5.35 186.023 68.254
5.36 183.419 69.393
5.37 180.454 70.505
5.38 177.695 71.262
5.39 173.442 71.624
5.40 169.002 71.496
5.41 163.832 70.664
5.42 156.982 69.214
5.43 150.040 67.595
5.44 143.497 66.248
5.45 139.854 65.116
5.46 137.852 63.795
5.47 137.113 61.302
5.48 --undefined-- 56.772
5.49 --undefined-- 49.883
5.50 --undefined-- 41.582
5.51 --undefined-- 35.191
5.52 --undefined-- 30.910
5.53 --undefined-- 28.202
5.54 --undefined-- 31.797
5.55 --undefined-- 40.318
5.56 --undefined-- 46.177
5.57 --undefined-- 49.558
5.58 --undefined-- 55.449
5.59 --undefined-- 62.452
5.60 --undefined-- 67.077
5.61 --undefined-- 68.881
5.62 --undefined-- 68.049
5.63 --undefined-- 65.337
5.64 --undefined-- 62.910
5.65 --undefined-- 61.781
5.66 --undefined-- 60.696
5.67 --undefined-- 58.441
5.68 110.917 56.137
5.69 111.006 54.958
5.70 110.911 53.903
5.71 110.319 52.900
5.72 111.706 52.303
5.73 115.125 52.783
5.74 118.012 54.542
5.75 123.197 57.007
5.76 127.460 59.607
5.77 131.770 61.882
5.78 135.397 63.612
5.79 138.662 64.603
5.80 141.841 64.439
5.81 141.825 62.693
5.82 137.997 61.272
5.83 141.535 64.598
5.84 144.999 68.315
5.85 147.348 70.117
5.86 148.151 70.269
5.87 148.556 69.698
5.88 148.843 69.055
5.89 148.252 68.143
5.90 146.425 66.358
5.91 144.113 63.733
5.92 141.639 60.634
5.93 136.694 56.572
5.94 --undefined-- 51.275
5.95 --undefined-- 45.075
5.96 --undefined-- 39.895
5.97 --undefined-- 36.970
5.98 --undefined-- 34.125
5.99 --undefined-- 33.192
6.00 --undefined-- 36.678
6.01 --undefined-- 38.520
6.02 --undefined-- 37.915
6.03 --undefined-- 36.191
6.04 --undefined-- 34.740
6.05 --undefined-- 32.978
6.06 --undefined-- 30.268
6.07 --undefined-- 28.748
6.08 --undefined-- 32.703
6.09 --undefined-- 47.971
6.10 --undefined-- 59.952
6.11 --undefined-- 67.572
6.12 --undefined-- 71.524
6.13 138.136 72.554
6.14 139.618 72.010
6.15 140.612 71.799
6.16 146.619 73.047
6.17 151.452 74.819
6.18 153.691 75.708
6.19 155.742 75.450
6.20 156.879 74.626
6.21 157.375 73.346
6.22 156.818 71.117
6.23 155.996 67.372
6.24 --undefined-- 61.762
6.25 --undefined-- 56.157
6.26 --undefined-- 52.980
6.27 --undefined-- 49.960
6.28 --undefined-- 45.961
6.29 --undefined-- 46.026
6.30 --undefined-- 52.846
6.31 --undefined-- 57.734
6.32 193.708 62.687
6.33 193.287 67.308
6.34 188.953 70.488
6.35 184.183 72.387
6.36 185.464 73.291
6.37 188.597 73.649
6.38 192.391 73.567
6.39 196.618 73.225
6.40 200.044 72.975
6.41 202.221 72.342
6.42 204.536 71.054
6.43 203.662 69.448
6.44 201.951 --undefined--
6.45 202.872 --undefined--
6.46 --undefined-- --undefined--
6.47 --undefined-- --undefined--
