Time Pitch Intensity
0.01 --undefined-- --undefined--
0.02 105.669 --undefined--
0.03 104.789 --undefined--
0.04 97.580 --undefined--
0.05 102.139 71.352
0.06 104.507 71.685
0.07 114.221 71.519
0.08 117.970 71.705
0.09 134.785 72.463
0.10 134.525 73.599
0.11 134.080 73.912
0.12 133.398 72.354
0.13 127.504 68.959
0.14 126.643 65.808
0.15 125.675 66.120
0.16 126.015 68.852
0.17 129.323 71.946
0.18 132.685 74.389
0.19 131.624 75.752
0.20 128.672 76.195
0.21 125.567 76.046
0.22 121.212 75.637
0.23 117.192 75.312
0.24 115.240 75.168
0.25 110.546 75.196
0.26 109.365 75.215
0.27 107.949 75.022
0.28 106.555 74.547
0.29 105.227 73.401
0.30 100.541 70.883
0.31 96.609 66.910
0.32 95.682 62.555
0.33 95.535 59.110
0.34 102.112 59.312
0.35 --undefined-- 64.458
0.36 111.640 69.117
0.37 112.680 72.000
0.38 115.251 73.484
0.39 118.471 74.064
0.40 118.631 74.028
0.41 125.149 73.986
0.42 133.957 74.532
0.43 137.837 75.302
0.44 140.907 76.100
0.45 141.888 76.824
0.46 143.422 77.327
0.47 145.494 77.409
0.48 137.975 76.715
0.49 133.886 75.529
0.50 131.201 74.704
0.51 126.810 74.126
0.52 121.957 73.263
0.53 100.956 72.097
0.54 100.928 70.770
0.55 75.807 69.457
0.56 75.728 68.033
0.57 79.390 67.652
0.58 79.017 69.189
0.59 120.276 71.352
0.60 131.298 73.484
0.61 137.108 75.289
0.62 142.012 76.670
0.63 145.000 77.294
0.64 147.264 77.215
0.65 148.873 76.806
0.66 148.843 76.360
0.67 147.180 75.820
0.68 144.593 74.422
0.69 141.039 71.748
0.70 141.462 67.951
0.71 --undefined-- 63.979
0.72 --undefined-- 62.414
0.73 --undefined-- 61.759
0.74 --undefined-- 59.666
0.75 --undefined-- 55.153
0.76 --undefined-- 49.315
0.77 --undefined-- 48.020
0.78 --undefined-- 53.505
0.79 --undefined-- 58.675
0.80 --undefined-- 61.654
0.81 --undefined-- 66.543
0.82 --undefined-- 72.679
0.83 --undefined-- 75.895
0.84 148.126 76.408
0.85 142.825 75.674
0.86 138.336 74.758
0.87 129.712 74.056
0.88 125.638 73.467
0.89 118.941 72.435
0.90 113.473 70.477
0.91 107.255 67.003
0.92 115.326 64.228
0.93 130.590 66.741
0.94 134.395 70.427
0.95 138.149 73.181
0.96 138.990 74.910
0.97 139.833 76.124
0.98 141.495 76.960
0.99 138.493 77.134
1.00 135.301 76.996
1.01 133.761 76.990
1.02 132.341 77.120
1.03 130.796 77.172
1.04 128.848 76.587
1.05 125.353 74.605
1.06 119.196 70.683
1.07 126.309 65.321
1.08 127.025 59.941
1.09 --undefined-- 54.776
1.10 --undefined-- 57.021
1.11 --undefined-- 66.354
1.12 --undefined-- 72.403
1.13 124.456 74.955
1.14 115.855 74.879
1.15 110.328 73.764
1.16 107.261 73.267
1.17 106.607 73.238
1.18 106.883 73.237
1.19 107.435 73.348
1.20 107.580 73.246
1.21 106.499 72.207
1.22 103.084 69.787
1.23 94.738 66.067
1.24 --undefined-- 61.276
1.25 --undefined-- 56.974
1.26 --undefined-- 57.848
1.27 --undefined-- 60.047
1.28 --undefined-- 60.655
1.29 --undefined-- 60.404
1.30 --undefined-- 60.740
1.31 --undefined-- 61.971
1.32 --undefined-- 63.190
1.33 --undefined-- 65.553
1.34 --undefined-- 69.159
1.35 --undefined-- 71.381
1.36 113.372 71.585
1.37 104.205 70.732
1.38 98.975 70.008
1.39 93.059 70.258
1.40 92.846 70.706
1.41 93.650 69.907
1.42 88.244 68.276
1.43 88.252 67.187
1.44 82.728 67.095
1.45 --undefined-- 67.553
1.46 --undefined-- 68.222
1.47 --undefined-- 68.693
1.48 --undefined-- 69.018
1.49 92.985 68.622
1.50 96.374 68.082
1.51 98.595 68.366
1.52 100.330 67.872
1.53 97.189 65.530
1.54 102.602 62.067
1.55 100.310 58.587
1.56 102.518 56.291
1.57 --undefined-- 61.819
1.58 --undefined-- 67.693
1.59 --undefined-- 70.988
1.60 97.504 72.408
1.61 97.091 72.815
1.62 97.348 72.896
1.63 99.386 73.200
1.64 103.452 73.732
1.65 107.901 74.365
1.66 112.136 74.764
1.67 116.794 74.833
1.68 122.558 75.379
1.69 126.644 76.378
1.70 130.761 77.116
1.71 134.273 77.495
1.72 136.172 77.761
1.73 138.814 78.066
1.74 144.484 78.408
1.75 141.594 78.534
1.76 141.015 77.919
1.77 140.050 76.909
1.78 138.203 76.028
1.79 135.239 74.843
1.80 128.342 72.788
1.81 128.171 69.258
1.82 122.442 63.800
1.83 --undefined-- 56.750
1.84 142.760 52.079
1.85 144.241 52.179
1.86 --undefined-- 52.284
1.87 --undefined-- 52.408
1.88 --undefined-- 53.280
1.89 --undefined-- 53.915
1.90 --undefined-- 54.292
1.91 --undefined-- 54.690
1.92 --undefined-- 54.980
1.93 --undefined-- 55.228
1.94 --undefined-- 55.352
1.95 --undefined-- 55.731
1.96 --undefined-- 55.938
1.97 --undefined-- 55.650
1.98 --undefined-- 55.109
1.99 --undefined-- 54.912
2.00 --undefined-- 55.271
2.01 --undefined-- 55.619
2.02 --undefined-- 55.415
2.03 --undefined-- 53.942
2.04 --undefined-- 50.586
2.05 --undefined-- 45.204
2.06 --undefined-- 40.508
2.07 --undefined-- 40.825
2.08 --undefined-- 40.840
2.09 --undefined-- 47.125
2.10 --undefined-- 60.423
2.11 --undefined-- 69.201
2.12 141.915 74.230
2.13 141.596 76.340
2.14 138.637 76.459
2.15 130.377 75.967
2.16 130.783 75.857
2.17 132.840 75.946
2.18 137.433 76.212
2.19 145.147 77.016
2.20 149.302 77.599
2.21 156.420 77.785
2.22 162.736 78.052
2.23 166.902 78.422
2.24 168.231 78.523
2.25 168.768 77.846
2.26 166.344 76.161
2.27 158.417 73.497
2.28 154.066 69.609
2.29 154.760 64.067
2.30 --undefined-- 58.118
2.31 --undefined-- 56.448
2.32 --undefined-- 57.413
2.33 --undefined-- 62.603
2.34 --undefined-- 69.943
2.35 --undefined-- 74.105
2.36 --undefined-- 75.134
2.37 114.409 74.090
2.38 106.754 72.680
2.39 103.317 71.915
2.40 102.890 71.316
2.41 103.461 70.702
2.42 103.657 70.320
2.43 103.099 69.959
2.44 100.858 69.503
2.45 103.219 69.471
2.46 105.113 69.747
2.47 106.042 69.898
2.48 106.985 69.792
2.49 108.362 69.183
2.50 107.663 67.662
2.51 106.267 65.171
2.52 109.637 62.223
2.53 109.815 58.742
2.54 109.148 54.248
2.55 --undefined-- 52.849
2.56 149.870 55.460
2.57 148.164 55.306
2.58 --undefined-- 51.803
2.59 --undefined-- 48.076
2.60 --undefined-- 54.158
2.61 --undefined-- 61.627
2.62 --undefined-- 66.861
2.63 --undefined-- 69.882
2.64 --undefined-- 70.819
2.65 102.801 71.158
2.66 100.203 72.328
2.67 112.772 73.612
2.68 132.949 75.069
2.69 139.693 76.615
2.70 148.706 77.628
2.71 158.142 77.955
2.72 166.209 77.172
2.73 168.186 74.755
2.74 169.535 71.530
2.75 170.790 69.382
2.76 170.260 67.043
2.77 170.768 63.535
2.78 173.279 65.253
2.79 204.852 72.607
2.80 204.140 76.726
2.81 178.227 77.904
2.82 168.563 77.250
2.83 154.711 76.313
2.84 151.486 75.885
2.85 148.991 75.292
2.86 145.243 74.287
2.87 139.628 72.562
2.88 132.930 69.676
2.89 131.392 65.648
2.90 132.671 60.762
2.91 --undefined-- 55.119
2.92 --undefined-- 49.633
2.93 --undefined-- 46.402
2.94 --undefined-- 45.588
2.95 --undefined-- 45.595
2.96 --undefined-- 48.996
2.97 --undefined-- 56.455
2.98 --undefined-- 65.394
2.99 --undefined-- 71.528
3.00 122.369 74.548
3.01 115.999 75.407
3.02 112.623 75.403
3.03 113.198 75.476
3.04 115.278 75.755
3.05 121.415 76.229
3.06 128.432 76.901
3.07 135.156 77.553
3.08 143.296 78.008
3.09 148.449 78.166
3.10 149.070 77.915
3.11 157.055 77.826
3.12 164.158 78.266
3.13 167.194 78.782
3.14 169.439 79.082
3.15 169.559 79.147
3.16 166.123 79.014
3.17 164.804 78.686
3.18 148.478 77.654
3.19 140.960 75.557
3.20 129.809 73.513
3.21 118.876 72.259
3.22 108.199 71.251
3.23 103.984 70.199
3.24 100.267 68.864
3.25 100.532 68.321
3.26 99.195 69.053
3.27 102.370 70.007
3.28 103.933 70.620
3.29 105.022 70.846
3.30 105.110 70.416
3.31 105.851 70.131
3.32 108.425 70.594
3.33 108.808 70.908
3.34 109.632 70.951
3.35 109.930 70.773
3.36 110.045 70.227
3.37 109.089 69.157
3.38 107.089 67.790
3.39 110.978 68.120
3.40 118.873 71.267
3.41 119.207 74.066
3.42 119.453 75.371
3.43 119.149 75.340
3.44 115.658 74.756
3.45 115.116 74.717
3.46 114.625 75.132
3.47 114.027 75.276
3.48 112.343 74.289
3.49 --undefined-- 71.290
3.50 --undefined-- 66.267
3.51 --undefined-- 61.266
3.52 --undefined-- 59.387
3.53 --undefined-- 63.601
3.54 --undefined-- 67.730
3.55 --undefined-- 69.446
3.56 --undefined-- 68.633
3.57 --undefined-- 65.975
3.58 --undefined-- 66.312
3.59 --undefined-- 72.073
3.60 157.664 76.070
3.61 155.099 77.609
3.62 150.953 77.183
3.63 144.095 74.978
3.64 132.194 71.142
3.65 129.498 67.153
3.66 131.642 65.964
3.67 127.340 65.725
3.68 123.508 65.078
3.69 120.967 64.463
3.70 118.504 64.430
3.71 120.573 67.678
3.72 127.823 72.209
3.73 124.321 74.791
3.74 118.662 75.063
3.75 106.429 73.460
3.76 96.792 71.052
3.77 89.673 69.081
3.78 96.839 67.541
3.79 100.008 65.423
3.80 98.066 62.128
3.81 --undefined-- 57.313
3.82 --undefined-- 52.352
3.83 --undefined-- 50.236
3.84 --undefined-- 49.128
3.85 --undefined-- 47.263
3.86 --undefined-- 45.480
3.87 --undefined-- 49.070
3.88 --undefined-- 60.463
3.89 --undefined-- 68.615
3.90 125.335 73.152
3.91 115.286 74.975
3.92 111.944 75.346
3.93 108.229 75.462
3.94 105.111 75.341
3.95 102.119 74.678
3.96 98.786 73.699
3.97 96.000 72.837
3.98 93.067 72.030
3.99 90.452 70.973
4.00 89.253 69.509
4.01 88.488 67.304
4.02 87.809 64.272
4.03 --undefined-- 60.697
4.04 --undefined-- 56.871
4.05 --undefined-- 52.047
4.06 --undefined-- 47.103
4.07 --undefined-- 43.918
4.08 --undefined-- 45.407
4.09 --undefined-- 53.568
4.10 --undefined-- 62.198
4.11 --undefined-- 68.171
4.12 --undefined-- 71.490
4.13 113.171 72.894
4.14 113.320 73.086
4.15 111.600 72.795
4.16 119.455 72.918
4.17 124.954 73.458
4.18 128.796 74.237
4.19 131.108 75.063
4.20 131.952 75.615
4.21 134.755 75.799
4.22 133.502 75.635
4.23 130.091 75.349
4.24 127.846 75.229
4.25 125.341 74.947
4.26 121.938 74.454
4.27 119.142 74.147
4.28 117.713 74.070
4.29 116.231 73.972
4.30 115.328 73.850
4.31 114.416 73.823
4.32 113.273 73.874
4.33 111.258 74.048
4.34 110.664 74.018
4.35 108.691 73.454
4.36 108.277 72.698
4.37 105.542 71.791
4.38 102.379 70.353
4.39 101.210 68.431
4.40 99.151 66.711
4.41 97.249 65.839
4.42 97.097 66.373
4.43 97.593 67.846
4.44 99.009 69.153
4.45 97.507 69.938
4.46 96.256 70.299
4.47 95.921 70.503
4.48 96.862 70.673
4.49 97.143 70.697
4.50 97.291 70.662
4.51 98.937 70.743
4.52 100.533 70.629
4.53 100.163 70.113
4.54 99.629 69.361
4.55 92.713 68.500
4.56 94.695 67.538
4.57 80.384 67.009
4.58 89.898 67.711
4.59 89.467 69.434
4.60 103.623 71.286
4.61 130.489 73.115
4.62 135.241 74.833
4.63 141.506 76.186
4.64 144.521 76.868
4.65 147.579 76.785
4.66 149.903 76.484
4.67 150.601 76.339
4.68 151.138 76.129
4.69 150.705 75.019
4.70 147.673 72.457
4.71 147.429 68.686
4.72 150.616 64.763
4.73 148.537 62.661
4.74 147.812 61.727
4.75 --undefined-- 60.909
4.76 --undefined-- 61.447
4.77 --undefined-- 61.933
4.78 --undefined-- 60.250
4.79 --undefined-- 55.874
4.80 --undefined-- 51.519
4.81 --undefined-- 56.397
4.82 --undefined-- 61.087
4.83 --undefined-- 64.198
4.84 --undefined-- 69.994
4.85 --undefined-- 75.065
4.86 161.610 76.907
4.87 148.208 76.473
4.88 143.571 75.577
4.89 136.566 74.846
4.90 131.624 74.106
4.91 124.413 73.130
4.92 118.568 71.308
4.93 --undefined-- 67.611
4.94 --undefined-- 62.482
4.95 --undefined-- 62.135
4.96 139.910 67.072
4.97 148.627 71.863
4.98 151.120 75.180
4.99 151.287 77.093
5.00 151.516 78.038
5.01 147.703 78.240
5.02 142.945 77.991
5.03 140.629 77.554
5.04 138.946 76.860
5.05 136.915 76.091
5.06 135.229 75.518
5.07 131.397 75.327
5.08 128.804 75.284
5.09 125.457 74.748
5.10 121.701 73.144
5.11 115.322 --undefined--
5.12 107.171 --undefined--
5.13 --undefined-- --undefined--
5.14 --undefined-- --undefined--
