Time Pitch Intensity
0.01 --undefined-- --undefined--
0.02 --undefined-- --undefined--
0.03 --undefined-- --undefined--
0.04 --undefined-- --undefined--
0.05 204.299 66.767
0.06 197.225 69.774
0.07 191.149 71.460
0.08 184.668 72.276
0.09 181.426 72.234
0.10 179.497 71.632
0.11 178.118 71.008
0.12 176.883 70.390
0.13 176.747 69.509
0.14 177.280 68.527
0.15 176.326 67.442
0.16 175.272 66.098
0.17 174.253 64.927
0.18 166.677 64.266
0.19 165.883 64.312
0.20 170.179 64.188
0.21 --undefined-- 62.920
0.22 --undefined-- 60.871
0.23 --undefined-- 58.881
0.24 --undefined-- 56.862
0.25 --undefined-- 54.964
0.26 --undefined-- 54.114
0.27 --undefined-- 53.175
0.28 --undefined-- 50.884
0.29 --undefined-- 49.446
0.30 --undefined-- 49.083
0.31 --undefined-- 49.242
0.32 --undefined-- 51.273
0.33 --undefined-- 53.203
0.34 --undefined-- 52.797
0.35 --undefined-- 50.983
0.36 --undefined-- 52.507
0.37 --undefined-- 55.492
0.38 --undefined-- 56.149
0.39 --undefined-- 54.047
0.40 --undefined-- 52.715
0.41 --undefined-- 53.097
0.42 --undefined-- 51.946
0.43 --undefined-- 52.308
0.44 --undefined-- 54.748
0.45 --undefined-- 55.362
0.46 --undefined-- 53.549
0.47 --undefined-- 52.932
0.48 --undefined-- 54.785
0.49 --undefined-- 56.258
0.50 --undefined-- 56.916
0.51 --undefined-- 56.129
0.52 --undefined-- 54.043
0.53 --undefined-- 52.072
0.54 --undefined-- 52.197
0.55 --undefined-- 51.891
0.56 --undefined-- 49.699
0.57 --undefined-- 47.294
0.58 --undefined-- 46.992
0.59 --undefined-- 49.814
0.60 --undefined-- 52.335
0.61 --undefined-- 53.797
0.62 --undefined-- 56.077
0.63 258.081 59.716
0.64 242.662 62.381
0.65 229.658 63.664
0.66 224.313 63.821
0.67 219.487 62.285
0.68 --undefined-- 58.584
0.69 --undefined-- 54.345
0.70 --undefined-- 57.048
0.71 251.727 63.194
0.72 239.253 67.636
0.73 226.956 69.777
0.74 218.808 70.153
0.75 210.103 70.062
0.76 208.123 69.732
0.77 202.240 68.019
0.78 211.775 65.321
0.79 197.731 63.975
0.80 193.419 64.219
0.81 191.990 65.737
0.82 194.104 68.266
0.83 194.233 70.396
0.84 191.363 71.495
0.85 188.994 71.805
0.86 186.501 71.484
0.87 184.233 70.356
0.88 183.549 68.787
0.89 183.615 67.720
0.90 183.696 67.443
0.91 183.628 67.347
0.92 183.619 67.083
0.93 183.606 66.793
0.94 183.588 66.667
0.95 182.395 66.664
0.96 181.724 66.603
0.97 180.960 66.239
0.98 177.901 65.404
0.99 168.999 64.448
1.00 167.079 64.585
1.01 169.535 65.584
1.02 171.491 67.045
1.03 174.240 69.160
1.04 169.306 71.064
1.05 165.954 71.878
1.06 162.979 71.301
1.07 161.609 70.473
1.08 163.421 70.167
1.09 165.250 69.664
1.10 165.083 68.894
1.11 163.721 68.008
1.12 164.152 67.019
1.13 164.078 66.553
1.14 162.950 66.423
1.15 170.589 66.031
1.16 172.587 65.855
1.17 176.506 66.299
1.18 183.160 67.247
1.19 192.353 68.077
1.20 195.184 68.205
1.21 206.994 68.733
1.22 213.298 70.416
1.23 214.464 71.852
1.24 214.878 73.035
1.25 214.995 74.431
1.26 212.772 75.400
1.27 208.422 75.341
1.28 202.652 74.134
1.29 196.738 71.810
1.30 192.467 68.257
1.31 189.283 63.136
1.32 --undefined-- 57.613
1.33 --undefined-- 55.798
1.34 --undefined-- 55.467
1.35 --undefined-- 54.196
1.36 --undefined-- 54.094
1.37 --undefined-- 54.774
1.38 --undefined-- 53.780
1.39 --undefined-- 50.505
1.40 --undefined-- 46.400
1.41 --undefined-- 45.709
1.42 --undefined-- 46.312
1.43 --undefined-- 45.609
1.44 --undefined-- 44.386
1.45 --undefined-- 44.502
1.46 --undefined-- 45.611
1.47 --undefined-- 45.431
1.48 --undefined-- 45.789
1.49 --undefined-- 46.556
1.50 --undefined-- 46.763
1.51 --undefined-- 48.934
1.52 --undefined-- 50.792
1.53 --undefined-- 50.954
1.54 --undefined-- 49.950
1.55 --undefined-- 48.727
1.56 --undefined-- 49.988
1.57 --undefined-- 51.460
1.58 --undefined-- 50.928
1.59 --undefined-- 50.726
1.60 --undefined-- 56.467
1.61 261.260 63.383
1.62 258.153 67.436
1.63 253.523 69.065
1.64 253.311 69.424
1.65 252.545 69.502
1.66 252.739 69.647
1.67 252.468 69.764
1.68 253.035 70.055
1.69 257.051 70.503
1.70 259.086 70.441
1.71 261.020 70.074
1.72 262.486 70.109
1.73 265.352 70.222
1.74 269.026 70.205
1.75 271.433 70.080
1.76 273.532 69.179
1.77 276.939 66.318
1.78 279.904 60.629
1.79 282.990 55.894
1.80 --undefined-- 57.650
1.81 --undefined-- 59.781
1.82 173.737 64.149
1.83 174.501 67.860
1.84 179.332 69.773
1.85 183.418 70.907
1.86 186.959 71.630
1.87 190.505 71.855
1.88 192.501 71.725
1.89 194.173 71.207
1.90 196.600 70.148
1.91 198.719 68.757
1.92 200.791 67.361
1.93 202.065 66.376
1.94 200.767 66.164
1.95 199.462 66.230
1.96 198.407 66.314
1.97 194.569 66.421
1.98 187.716 65.880
1.99 176.187 63.811
2.00 155.758 60.430
2.01 155.889 57.627
2.02 --undefined-- 55.719
2.03 --undefined-- 53.858
2.04 --undefined-- 53.590
2.05 251.130 56.996
2.06 260.365 61.926
2.07 --undefined-- 65.851
2.08 --undefined-- 68.448
2.09 --undefined-- 70.084
2.10 171.812 71.216
2.11 169.805 71.815
2.12 173.695 71.715
2.13 186.664 71.238
2.14 194.109 70.174
2.15 205.786 68.047
2.16 217.181 65.115
2.17 220.467 61.244
2.18 --undefined-- 56.146
2.19 --undefined-- 51.653
2.20 --undefined-- 47.942
2.21 --undefined-- 44.781
2.22 --undefined-- 44.510
2.23 --undefined-- 47.084
2.24 --undefined-- 51.967
2.25 --undefined-- 58.599
2.26 234.707 63.436
2.27 226.390 66.012
2.28 216.276 67.110
2.29 209.998 67.586
2.30 205.343 68.024
2.31 203.822 68.541
2.32 204.391 68.862
2.33 205.598 68.968
2.34 204.923 68.884
2.35 203.964 68.719
2.36 202.585 68.591
2.37 201.294 68.307
2.38 199.253 67.722
2.39 194.674 66.832
2.40 188.093 65.572
2.41 188.058 64.220
2.42 183.388 62.893
2.43 --undefined-- 60.969
2.44 --undefined-- 57.832
2.45 --undefined-- 53.306
2.46 --undefined-- 49.717
2.47 --undefined-- 52.978
2.48 --undefined-- 57.624
2.49 --undefined-- 59.912
2.50 --undefined-- 59.443
2.51 --undefined-- 56.821
2.52 --undefined-- 54.512
2.53 --undefined-- 52.718
2.54 --undefined-- 51.422
2.55 --undefined-- 52.052
2.56 --undefined-- 51.831
2.57 --undefined-- 53.343
2.58 --undefined-- 55.063
2.59 --undefined-- 53.782
2.60 --undefined-- 50.907
2.61 --undefined-- 53.126
2.62 --undefined-- 58.635
2.63 185.576 63.124
2.64 181.178 65.698
2.65 173.822 66.840
2.66 172.557 67.553
2.67 171.582 68.189
2.68 168.635 68.542
2.69 166.362 68.514
2.70 165.296 68.064
2.71 165.359 67.455
2.72 166.801 66.901
2.73 170.991 66.479
2.74 175.614 66.194
2.75 189.057 65.801
2.76 199.181 65.153
2.77 217.188 64.509
2.78 225.169 64.465
2.79 231.134 64.478
2.80 232.488 63.642
2.81 232.095 61.293
2.82 --undefined-- 57.388
2.83 --undefined-- 53.263
2.84 --undefined-- 50.647
2.85 --undefined-- 49.986
2.86 --undefined-- 53.081
2.87 --undefined-- 56.996
2.88 --undefined-- 61.514
2.89 217.664 65.805
2.90 213.447 68.470
2.91 212.420 69.699
2.92 212.964 70.039
2.93 214.390 69.894
2.94 215.747 69.492
2.95 215.675 68.945
2.96 212.549 68.121
2.97 206.761 66.755
2.98 194.627 65.276
2.99 183.092 64.268
3.00 174.752 62.704
3.01 181.129 60.377
3.02 --undefined-- 58.395
3.03 --undefined-- 56.355
3.04 --undefined-- 53.966
3.05 --undefined-- 52.690
3.06 --undefined-- 53.369
3.07 --undefined-- 55.428
3.08 --undefined-- 58.786
3.09 182.008 61.909
3.10 193.313 63.907
3.11 200.909 64.556
3.12 206.809 64.141
3.13 210.794 63.700
3.14 213.410 64.027
3.15 216.536 64.352
3.16 216.360 63.759
3.17 214.539 61.586
3.18 202.483 57.506
3.19 --undefined-- 56.407
3.20 --undefined-- 61.731
3.21 227.109 65.804
3.22 226.843 68.016
3.23 225.245 68.808
3.24 224.515 68.751
3.25 225.200 68.529
3.26 226.838 68.611
3.27 227.988 68.685
3.28 228.645 68.197
3.29 229.694 67.186
3.30 230.346 66.052
3.31 228.605 64.571
3.32 224.394 61.823
3.33 206.280 57.917
3.34 205.865 54.791
3.35 --undefined-- 55.679
3.36 --undefined-- 57.218
3.37 --undefined-- 56.503
3.38 --undefined-- 56.598
3.39 --undefined-- 58.677
3.40 --undefined-- 61.909
3.41 192.505 65.564
3.42 183.103 67.839
3.43 179.822 68.246
3.44 168.816 67.140
3.45 167.463 65.799
3.46 166.954 65.145
3.47 166.964 64.912
3.48 166.281 64.915
3.49 165.985 64.877
3.50 164.768 64.708
3.51 164.720 64.533
3.52 165.041 64.286
3.53 165.172 64.010
3.54 165.106 63.617
3.55 165.733 62.892
3.56 168.042 62.345
3.57 166.224 62.400
3.58 165.360 62.830
3.59 163.439 64.135
3.60 161.225 65.762
3.61 161.762 67.048
3.62 162.845 67.867
3.63 165.066 68.154
3.64 168.262 67.781
3.65 172.292 66.702
3.66 180.652 65.561
3.67 185.106 64.796
3.68 187.445 63.388
3.69 192.744 60.907
3.70 193.502 59.195
3.71 195.996 58.922
3.72 196.874 59.197
3.73 209.952 60.227
3.74 224.392 61.085
3.75 241.906 62.355
3.76 249.351 63.760
3.77 242.131 64.509
3.78 233.347 64.833
3.79 231.639 65.087
3.80 230.912 65.427
3.81 230.267 65.776
3.82 230.334 65.892
3.83 231.491 65.757
3.84 233.084 65.578
3.85 233.327 65.222
3.86 231.301 64.165
3.87 228.532 61.813
3.88 231.455 57.972
3.89 --undefined-- 54.492
3.90 --undefined-- 52.360
3.91 --undefined-- 49.480
3.92 --undefined-- 48.058
3.93 --undefined-- 49.108
3.94 --undefined-- 51.430
3.95 --undefined-- 57.025
3.96 257.464 61.862
3.97 245.990 64.522
3.98 240.848 65.813
3.99 237.839 66.607
4.00 235.551 67.010
4.01 234.582 66.853
4.02 232.921 66.222
4.03 232.187 65.686
4.04 234.802 65.749
4.05 234.771 66.072
4.06 234.064 66.233
4.07 232.971 66.096
4.08 232.655 66.035
4.09 232.580 66.112
4.10 232.559 65.965
4.11 231.332 65.615
4.12 229.275 65.164
4.13 226.276 64.153
4.14 218.217 61.719
4.15 195.866 58.301
4.16 202.145 58.695
4.17 205.892 62.532
4.18 203.516 65.753
4.19 198.660 68.295
4.20 195.602 70.658
4.21 194.787 72.475
4.22 193.448 73.639
4.23 191.299 74.348
4.24 188.229 74.629
4.25 186.247 74.605
4.26 185.038 74.682
4.27 184.693 74.994
4.28 184.577 75.133
4.29 184.055 74.990
4.30 182.926 74.869
4.31 180.811 74.765
4.32 178.002 74.348
4.33 173.972 73.216
4.34 167.116 70.891
4.35 --undefined-- 66.873
4.36 --undefined-- 62.037
4.37 --undefined-- 57.983
4.38 --undefined-- 54.807
4.39 --undefined-- 51.346
4.40 --undefined-- 50.581
4.41 --undefined-- 51.472
4.42 --undefined-- 50.127
4.43 --undefined-- 49.506
4.44 --undefined-- 50.006
4.45 --undefined-- 47.983
4.46 --undefined-- 47.180
4.47 --undefined-- 50.105
4.48 --undefined-- 52.088
4.49 --undefined-- 52.828
4.50 --undefined-- 52.430
4.51 --undefined-- 51.988
4.52 --undefined-- 52.406
4.53 --undefined-- 51.032
4.54 --undefined-- 47.968
4.55 --undefined-- 48.562
4.56 --undefined-- 50.434
4.57 --undefined-- 49.789
4.58 --undefined-- 50.174
4.59 --undefined-- 51.384
4.60 --undefined-- 49.751
4.61 --undefined-- 46.094
4.62 --undefined-- 44.748
4.63 --undefined-- 46.546
4.64 --undefined-- 49.050
4.65 --undefined-- 50.398
4.66 --undefined-- 50.327
4.67 --undefined-- 49.294
4.68 --undefined-- 47.788
4.69 --undefined-- 48.036
4.70 --undefined-- 49.493
4.71 --undefined-- 48.511
4.72 --undefined-- 46.443
4.73 --undefined-- 47.848
4.74 --undefined-- 49.311
4.75 --undefined-- 48.555
4.76 --undefined-- 47.902
4.77 --undefined-- 49.062
4.78 --undefined-- 49.852
4.79 --undefined-- 51.387
4.80 --undefined-- 52.311
4.81 --undefined-- 51.130
4.82 --undefined-- 49.563
4.83 --undefined-- 49.791
4.84 --undefined-- 52.326
4.85 --undefined-- 54.061
4.86 --undefined-- 52.953
4.87 --undefined-- 50.985
4.88 --undefined-- 50.594
4.89 --undefined-- 51.517
4.90 --undefined-- 54.040
4.91 --undefined-- 55.040
4.92 --undefined-- 54.296
4.93 --undefined-- 53.781
4.94 --undefined-- 54.472
4.95 --undefined-- 54.225
4.96 --undefined-- 52.442
4.97 --undefined-- 52.029
4.98 --undefined-- 52.470
4.99 --undefined-- 50.942
5.00 --undefined-- --undefined--
5.01 --undefined-- --undefined--
5.02 --undefined-- --undefined--
5.03 --undefined-- --undefined--
