Time Pitch Intensity
0.01 --undefined-- --undefined--
0.02 171.822 --undefined--
0.03 165.355 --undefined--
0.04 161.348 --undefined--
0.05 158.800 72.119
0.06 156.543 71.840
0.07 156.204 71.834
0.08 157.151 71.974
0.09 157.807 72.105
0.10 158.607 72.218
0.11 159.694 72.339
0.12 160.096 72.389
0.13 160.406 72.376
0.14 161.482 72.342
0.15 161.576 72.304
0.16 162.642 72.213
0.17 164.258 71.945
0.18 166.057 71.572
0.19 167.893 71.247
0.20 170.443 70.831
0.21 172.793 70.074
0.22 173.529 68.814
0.23 173.550 66.841
0.24 175.920 63.566
0.25 181.724 58.228
0.26 --undefined-- 50.443
0.27 --undefined-- 44.051
0.28 --undefined-- 43.012
0.29 --undefined-- 42.342
0.30 --undefined-- 42.663
0.31 --undefined-- 48.534
0.32 --undefined-- 59.488
0.33 --undefined-- 67.020
0.34 206.568 70.866
0.35 200.598 72.108
0.36 195.351 72.222
0.37 191.403 72.381
0.38 188.263 72.649
0.39 186.255 72.968
0.40 185.548 73.374
0.41 184.574 73.794
0.42 184.723 74.190
0.43 185.788 74.482
0.44 187.123 74.493
0.45 188.782 74.165
0.46 189.958 73.571
0.47 190.994 72.802
0.48 192.534 71.736
0.49 192.720 69.659
0.50 186.250 65.765
0.51 187.890 59.739
0.52 --undefined-- 51.840
0.53 --undefined-- 43.614
0.54 --undefined-- 47.442
0.55 --undefined-- 58.004
0.56 --undefined-- 66.341
0.57 212.323 71.141
0.58 209.664 73.062
0.59 206.539 73.301
0.60 204.343 73.196
0.61 203.629 73.326
0.62 203.103 73.597
0.63 202.326 73.921
0.64 201.231 74.254
0.65 200.451 74.565
0.66 201.053 74.872
0.67 203.274 75.113
0.68 206.158 75.088
0.69 208.726 74.644
0.70 209.438 73.690
0.71 208.677 72.288
0.72 209.298 70.262
0.73 208.052 67.165
0.74 206.840 63.374
0.75 213.200 60.678
0.76 216.424 60.176
0.77 232.317 60.987
0.78 246.649 64.136
0.79 270.290 68.295
0.80 282.258 71.160
0.81 285.824 72.632
0.82 282.650 73.379
0.83 278.153 74.011
0.84 278.044 74.717
0.85 276.457 75.320
0.86 273.915 75.722
0.87 271.100 75.995
0.88 267.686 76.212
0.89 265.361 76.419
0.90 264.302 76.551
0.91 263.975 76.489
0.92 262.624 76.077
0.93 259.080 74.987
0.94 254.312 72.585
0.95 248.231 68.121
0.96 241.091 60.938
0.97 --undefined-- 52.231
0.98 --undefined-- 56.218
0.99 --undefined-- 63.967
1.00 --undefined-- 68.972
1.01 195.887 71.079
1.02 181.257 71.401
1.03 166.333 71.021
1.04 158.612 70.417
1.05 155.899 69.913
1.06 155.151 69.559
1.07 154.677 69.098
1.08 154.698 68.153
1.09 153.460 65.745
1.10 147.473 60.842
1.11 --undefined-- 53.159
1.12 --undefined-- 46.057
1.13 --undefined-- 45.832
1.14 --undefined-- 54.039
1.15 --undefined-- 62.502
1.16 --undefined-- 67.384
1.17 155.985 69.245
1.18 149.206 69.447
1.19 143.088 69.389
1.20 139.475 69.294
1.21 137.565 69.157
1.22 138.064 69.098
1.23 140.052 69.055
1.24 142.744 69.011
1.25 145.888 68.886
1.26 149.663 68.739
1.27 158.025 68.936
1.28 162.786 69.507
1.29 167.240 70.271
1.30 177.756 71.092
1.31 184.871 71.786
1.32 190.406 72.224
1.33 194.962 72.173
1.34 197.551 71.220
1.35 197.588 68.727
1.36 196.793 63.985
1.37 --undefined-- 56.315
1.38 --undefined-- 49.770
1.39 --undefined-- 53.335
1.40 --undefined-- 61.106
1.41 221.750 66.950
1.42 193.666 69.585
1.43 178.608 70.245
1.44 171.495 70.208
1.45 165.049 69.709
1.46 159.432 69.054
1.47 158.064 68.784
1.48 157.824 68.812
1.49 157.382 68.836
1.50 157.052 68.769
1.51 156.900 68.652
1.52 156.821 68.507
1.53 156.364 68.143
1.54 155.495 67.010
1.55 152.439 64.413
1.56 149.568 59.823
1.57 --undefined-- 53.024
1.58 --undefined-- 45.686
1.59 --undefined-- 42.776
1.60 --undefined-- 42.252
1.61 --undefined-- 41.910
1.62 --undefined-- 42.279
1.63 --undefined-- 46.134
1.64 --undefined-- 54.950
1.65 178.048 61.636
1.66 170.418 64.724
1.67 152.384 65.127
1.68 141.673 64.466
1.69 135.784 63.776
1.70 133.011 63.276
1.71 132.821 63.281
1.72 133.678 63.037
1.73 131.970 61.480
1.74 130.549 58.072
1.75 --undefined-- 52.513
1.76 --undefined-- 45.552
1.77 --undefined-- 39.623
1.78 --undefined-- 36.774
1.79 --undefined-- 40.720
1.80 --undefined-- 47.061
1.81 --undefined-- 53.777
1.82 --undefined-- 61.613
1.83 --undefined-- 66.812
1.84 193.658 69.140
1.85 194.005 69.836
1.86 195.388 70.125
1.87 197.076 70.401
1.88 197.956 70.573
1.89 196.957 70.327
1.90 194.445 68.941
1.91 182.839 65.788
1.92 179.582 61.092
1.93 175.234 56.364
1.94 --undefined-- 52.175
1.95 --undefined-- 48.038
1.96 --undefined-- 44.099
1.97 --undefined-- 40.813
1.98 --undefined-- 40.285
1.99 --undefined-- 42.632
2.00 --undefined-- 43.804
2.01 --undefined-- 43.513
2.02 --undefined-- 43.125
2.03 --undefined-- 43.463
2.04 --undefined-- 44.104
2.05 --undefined-- 43.351
2.06 --undefined-- 41.544
2.07 --undefined-- 40.937
2.08 --undefined-- 41.341
2.09 --undefined-- 40.854
2.10 --undefined-- 39.688
2.11 --undefined-- 39.940
2.12 --undefined-- 40.674
2.13 --undefined-- 41.267
2.14 --undefined-- 41.264
2.15 --undefined-- 40.880
2.16 --undefined-- 40.992
2.17 --undefined-- 41.117
2.18 --undefined-- 41.574
2.19 --undefined-- 41.062
2.20 --undefined-- 39.436
2.21 --undefined-- 38.192
2.22 --undefined-- 38.010
2.23 --undefined-- 40.232
2.24 --undefined-- 41.913
2.25 --undefined-- 42.235
2.26 --undefined-- 48.827
2.27 --undefined-- 57.656
2.28 186.346 63.067
2.29 176.299 66.101
2.30 179.179 68.181
2.31 180.144 69.868
2.32 180.243 71.197
2.33 180.940 72.317
2.34 182.082 73.295
2.35 182.105 74.060
2.36 182.289 74.552
2.37 182.496 74.488
2.38 181.678 73.327
2.39 178.355 70.455
2.40 167.179 65.485
2.41 --undefined-- 58.530
2.42 --undefined-- 50.390
2.43 --undefined-- 44.981
2.44 --undefined-- 46.250
2.45 --undefined-- 57.542
2.46 --undefined-- 66.908
2.47 217.749 72.389
2.48 201.102 74.921
2.49 195.933 75.619
2.50 194.317 75.355
2.51 193.360 74.412
2.52 192.451 72.629
2.53 190.820 69.727
2.54 182.744 65.387
2.55 178.035 59.535
2.56 --undefined-- 52.340
2.57 --undefined-- 44.676
2.58 --undefined-- 40.451
2.59 --undefined-- 38.951
2.60 --undefined-- 40.032
2.61 --undefined-- 43.637
2.62 --undefined-- 45.746
2.63 --undefined-- 46.618
2.64 --undefined-- 52.734
2.65 --undefined-- 62.861
2.66 216.597 69.217
2.67 208.121 72.074
2.68 198.033 72.579
2.69 192.335 72.212
2.70 189.361 71.976
2.71 187.921 72.113
2.72 188.184 72.642
2.73 192.276 73.203
2.74 196.978 73.586
2.75 202.141 73.927
2.76 208.911 74.366
2.77 216.468 74.945
2.78 224.974 75.553
2.79 233.609 76.035
2.80 242.376 76.228
2.81 250.051 76.089
2.82 256.977 75.578
2.83 267.394 74.835
2.84 276.266 74.231
2.85 280.727 73.235
2.86 282.945 70.850
2.87 280.038 66.681
2.88 272.497 60.639
2.89 --undefined-- 52.539
2.90 --undefined-- 50.974
2.91 --undefined-- 61.822
2.92 --undefined-- 68.913
2.93 --undefined-- 72.309
2.94 210.418 73.233
2.95 196.251 73.089
2.96 187.491 72.799
2.97 182.147 72.355
2.98 179.332 71.646
2.99 176.767 70.685
3.00 175.672 69.607
3.01 176.582 68.739
3.02 179.185 67.694
3.03 179.369 65.128
3.04 --undefined-- 60.019
3.05 --undefined-- 52.291
3.06 --undefined-- 45.532
3.07 --undefined-- 52.096
3.08 --undefined-- 61.860
3.09 --undefined-- 68.212
3.10 183.405 71.305
3.11 177.517 72.059
3.12 170.163 71.778
3.13 166.756 71.441
3.14 163.744 71.142
3.15 162.202 70.941
3.16 161.287 71.022
3.17 160.626 71.380
3.18 160.679 71.888
3.19 161.064 72.409
3.20 161.544 72.643
3.21 162.108 72.332
3.22 163.125 71.580
3.23 164.710 70.856
3.24 166.616 70.642
3.25 169.686 71.040
3.26 172.774 71.775
3.27 177.083 72.615
3.28 182.193 73.241
3.29 188.703 73.328
3.30 197.983 72.919
3.31 205.508 72.279
3.32 213.157 71.763
3.33 217.366 71.567
3.34 222.718 71.361
3.35 225.121 70.786
3.36 224.036 69.456
3.37 214.660 67.141
3.38 201.597 64.323
3.39 196.682 61.591
3.40 203.570 58.582
3.41 218.561 54.751
3.42 --undefined-- 49.769
3.43 --undefined-- 44.791
3.44 --undefined-- 41.268
3.45 --undefined-- 39.234
3.46 --undefined-- 41.202
3.47 --undefined-- 45.005
3.48 --undefined-- 51.432
3.49 --undefined-- 61.692
3.50 268.204 68.850
3.51 264.516 72.566
3.52 259.296 73.932
3.53 250.242 73.956
3.54 --undefined-- 72.524
3.55 --undefined-- 69.025
3.56 --undefined-- 63.350
3.57 --undefined-- 55.899
3.58 --undefined-- 48.273
3.59 --undefined-- 42.396
3.60 --undefined-- 39.394
3.61 --undefined-- 40.541
3.62 --undefined-- 42.892
3.63 --undefined-- 43.622
3.64 --undefined-- 42.104
3.65 --undefined-- 40.332
3.66 --undefined-- 40.132
3.67 --undefined-- 39.702
3.68 --undefined-- 39.882
3.69 --undefined-- 49.511
3.70 --undefined-- 59.506
3.71 210.009 65.673
3.72 193.786 69.293
3.73 192.991 71.717
3.74 194.075 73.428
3.75 192.839 74.207
3.76 191.849 74.234
3.77 190.075 74.129
3.78 188.339 74.216
3.79 186.140 74.242
3.80 183.542 74.046
3.81 181.125 73.780
3.82 179.670 73.482
3.83 177.136 73.100
3.84 174.622 72.945
3.85 176.148 73.056
3.86 176.002 73.076
3.87 177.308 73.056
3.88 179.540 73.042
3.89 180.897 73.002
3.90 182.366 72.828
3.91 182.703 72.415
3.92 182.986 71.608
3.93 181.024 69.925
3.94 178.707 66.628
3.95 185.888 60.939
3.96 --undefined-- 52.160
3.97 --undefined-- 44.228
3.98 --undefined-- 52.697
3.99 --undefined-- 62.209
4.00 --undefined-- 68.574
4.01 200.755 71.788
4.02 197.691 72.965
4.03 195.222 73.392
4.04 193.639 73.668
4.05 192.517 73.860
4.06 191.756 74.053
4.07 190.936 74.243
4.08 190.310 74.350
4.09 189.918 74.269
4.10 189.422 73.981
4.11 189.132 73.598
4.12 189.445 73.310
4.13 189.792 73.247
4.14 190.102 73.407
4.15 190.174 73.769
4.16 189.940 74.214
4.17 189.786 74.633
4.18 189.885 75.058
4.19 190.141 75.447
4.20 190.741 75.701
4.21 191.548 75.746
4.22 193.269 75.534
4.23 194.265 74.981
4.24 192.790 73.952
4.25 188.508 72.020
4.26 183.225 68.427
4.27 --undefined-- 62.807
4.28 --undefined-- 56.725
4.29 --undefined-- 52.025
4.30 --undefined-- 47.670
4.31 --undefined-- 43.818
4.32 --undefined-- 45.374
4.33 --undefined-- 50.427
4.34 --undefined-- 54.917
4.35 --undefined-- 58.548
4.36 167.686 61.258
4.37 174.474 63.249
4.38 179.332 65.047
4.39 184.977 67.187
4.40 185.349 69.185
4.41 190.125 70.775
4.42 184.410 71.864
4.43 180.924 72.330
4.44 176.853 72.241
4.45 174.292 72.179
4.46 173.271 72.283
4.47 173.730 72.264
4.48 174.570 71.949
4.49 174.441 71.338
4.50 174.208 70.709
4.51 174.567 70.299
4.52 174.674 69.832
4.53 175.107 68.697
4.54 174.246 66.505
4.55 173.596 63.415
4.56 178.336 59.287
4.57 --undefined-- 53.372
4.58 --undefined-- 45.959
4.59 --undefined-- 41.154
4.60 --undefined-- 40.784
4.61 --undefined-- 42.685
4.62 --undefined-- 46.059
4.63 --undefined-- 54.819
4.64 249.814 63.108
4.65 243.543 68.054
4.66 241.296 70.747
4.67 245.361 72.641
4.68 250.212 74.360
4.69 253.080 75.413
4.70 253.555 75.804
4.71 250.892 75.872
4.72 245.512 76.034
4.73 244.223 76.529
4.74 244.072 77.002
4.75 243.547 77.220
4.76 243.418 77.259
4.77 243.268 77.108
4.78 241.874 76.559
4.79 239.209 75.158
4.80 236.858 72.260
4.81 239.004 67.067
4.82 245.444 59.897
4.83 242.293 53.834
4.84 --undefined-- 51.138
4.85 --undefined-- 49.699
4.86 --undefined-- 48.977
4.87 --undefined-- 52.937
4.88 --undefined-- 61.407
4.89 216.432 67.094
4.90 209.279 69.591
4.91 196.708 70.088
4.92 186.979 69.938
4.93 180.884 69.824
4.94 176.113 69.691
4.95 173.896 69.661
4.96 172.702 69.777
4.97 172.405 69.875
4.98 172.117 69.903
4.99 173.091 69.912
5.00 174.571 69.879
5.01 176.017 69.904
5.02 176.701 69.852
5.03 175.880 69.206
5.04 173.157 67.411
5.05 176.330 63.861
5.06 --undefined-- 57.537
5.07 --undefined-- 48.911
5.08 --undefined-- 44.740
5.09 --undefined-- 49.314
5.10 --undefined-- 58.339
5.11 --undefined-- 64.144
5.12 161.501 66.656
5.13 155.881 67.010
5.14 153.322 66.616
5.15 151.504 66.379
5.16 151.725 66.525
5.17 153.492 67.023
5.18 156.916 67.716
5.19 161.049 68.464
5.20 166.639 69.222
5.21 172.339 69.866
5.22 176.853 70.711
5.23 187.958 72.070
5.24 195.316 73.052
5.25 200.786 73.079
5.26 205.470 71.950
5.27 207.762 69.148
5.28 217.812 63.922
5.29 --undefined-- 55.667
5.30 --undefined-- 45.798
5.31 --undefined-- 43.100
5.32 --undefined-- 50.408
5.33 --undefined-- 59.964
5.34 --undefined-- 66.102
5.35 202.541 69.025
5.36 188.431 69.605
5.37 175.094 69.205
5.38 166.525 68.553
5.39 162.416 67.873
5.40 162.988 67.350
5.41 163.559 65.822
5.42 --undefined-- 61.788
5.43 --undefined-- 54.143
5.44 --undefined-- 45.791
5.45 --undefined-- 45.743
5.46 --undefined-- 45.532
5.47 --undefined-- 43.487
5.48 --undefined-- 41.107
5.49 --undefined-- 39.911
5.50 --undefined-- 41.982
5.51 --undefined-- 46.611
5.52 --undefined-- 53.286
5.53 --undefined-- 62.334
5.54 243.975 69.037
5.55 243.196 72.728
5.56 244.501 74.383
5.57 246.414 74.837
5.58 249.092 74.683
5.59 251.759 74.121
5.60 251.985 73.273
5.61 249.500 72.185
5.62 243.290 70.725
5.63 229.609 --undefined--
5.64 215.069 --undefined--
5.65 --undefined-- --undefined--
5.66 --undefined-- --undefined--
