Time Pitch Intensity
0.01 --undefined-- --undefined--
0.02 --undefined-- --undefined--
0.03 --undefined-- --undefined--
0.04 --undefined-- --undefined--
0.05 --undefined-- 60.534
0.06 145.845 67.393
0.07 144.443 71.981
0.08 144.574 74.512
0.09 143.879 75.401
0.10 142.632 75.048
0.11 141.004 73.614
0.12 138.131 70.896
0.13 134.306 66.229
0.14 --undefined-- 59.562
0.15 --undefined-- 53.892
0.16 --undefined-- 51.537
0.17 --undefined-- 50.212
0.18 --undefined-- 52.786
0.19 129.490 58.456
0.20 127.745 63.288
0.21 124.819 66.221
0.22 120.855 67.641
0.23 116.728 68.089
0.24 115.387 67.615
0.25 114.056 65.915
0.26 112.117 63.525
0.27 109.940 61.123
0.28 108.854 57.459
0.29 --undefined-- 51.391
0.30 --undefined-- 44.091
0.31 --undefined-- 47.395
0.32 --undefined-- 56.909
0.33 119.387 63.610
0.34 116.619 67.529
0.35 112.722 69.473
0.36 109.631 69.986
0.37 107.941 69.355
0.38 105.901 67.674
0.39 103.648 65.530
0.40 103.325 64.242
0.41 105.327 64.427
0.42 107.047 65.159
0.43 108.281 65.962
0.44 109.202 66.513
0.45 110.631 66.330
0.46 112.505 65.500
0.47 113.566 64.349
0.48 114.015 62.911
0.49 114.121 60.345
0.50 --undefined-- 55.311
0.51 --undefined-- 46.971
0.52 --undefined-- 47.796
0.53 --undefined-- 57.595
0.54 132.619 64.822
0.55 131.826 69.643
0.56 130.172 72.402
0.57 129.306 73.597
0.58 128.761 73.759
0.59 128.003 73.205
0.60 127.395 71.985
0.61 126.835 70.084
0.62 125.752 67.685
0.63 123.713 64.918
0.64 121.040 61.917
0.65 117.126 58.908
0.66 112.542 56.402
0.67 108.911 55.042
0.68 105.044 56.331
0.69 105.849 59.649
0.70 106.106 62.749
0.71 105.587 64.585
0.72 103.635 65.106
0.73 102.649 64.473
0.74 101.735 62.575
0.75 101.107 59.252
0.76 --undefined-- 55.424
0.77 110.082 55.368
0.78 112.993 58.168
0.79 113.508 60.272
0.80 112.735 61.120
0.81 111.196 61.042
0.82 109.295 60.663
0.83 108.604 60.531
0.84 108.890 60.365
0.85 107.710 59.390
0.86 105.530 58.150
0.87 102.922 58.032
0.88 104.951 58.942
0.89 105.624 61.033
0.90 106.360 63.761
0.91 106.274 66.389
0.92 105.125 68.288
0.93 103.266 69.306
0.94 102.083 69.707
0.95 100.595 69.503
0.96 101.706 69.275
0.97 101.718 68.826
0.98 104.360 68.738
0.99 105.240 68.761
1.00 105.174 67.512
1.01 104.217 64.888
1.02 105.742 61.980
1.03 107.780 59.744
1.04 111.343 57.686
1.05 113.022 55.037
1.06 --undefined-- 50.741
1.07 --undefined-- 44.616
1.08 --undefined-- 38.227
1.09 --undefined-- 35.008
1.10 --undefined-- 35.425
1.11 --undefined-- 38.055
1.12 --undefined-- 39.201
1.13 --undefined-- 38.796
1.14 --undefined-- 38.590
1.15 --undefined-- 38.813
1.16 --undefined-- 39.650
1.17 --undefined-- 40.977
1.18 --undefined-- 40.691
1.19 --undefined-- 38.236
1.20 --undefined-- 36.512
1.21 --undefined-- 36.374
1.22 --undefined-- 36.504
1.23 --undefined-- 36.914
1.24 --undefined-- 36.224
1.25 --undefined-- 33.847
1.26 --undefined-- 33.819
1.27 --undefined-- 40.056
1.28 --undefined-- 45.930
1.29 --undefined-- 51.080
1.30 --undefined-- 60.817
1.31 --undefined-- 69.194
1.32 146.894 74.361
1.33 145.743 77.231
1.34 146.636 78.643
1.35 147.789 78.647
1.36 148.182 77.013
1.37 145.125 73.480
1.38 137.632 68.172
1.39 141.815 64.586
1.40 144.225 65.126
1.41 146.549 66.307
1.42 148.310 67.025
1.43 146.921 66.791
1.44 143.145 65.505
1.45 136.996 63.023
1.46 --undefined-- 58.827
1.47 --undefined-- 54.097
1.48 --undefined-- 54.129
1.49 --undefined-- 55.853
1.50 --undefined-- 56.905
1.51 --undefined-- 56.819
1.52 --undefined-- 55.953
1.53 --undefined-- 56.031
1.54 --undefined-- 58.205
1.55 --undefined-- 64.094
1.56 130.461 69.616
1.57 127.127 72.625
1.58 118.941 73.302
1.59 117.786 72.275
1.60 113.648 70.342
1.61 112.580 68.392
1.62 111.911 67.168
1.63 111.846 66.261
1.64 114.121 64.755
1.65 114.475 62.330
1.66 112.279 58.599
1.67 --undefined-- 53.693
1.68 --undefined-- 50.034
1.69 --undefined-- 47.629
1.70 --undefined-- 44.477
1.71 --undefined-- 46.581
1.72 --undefined-- 54.440
1.73 --undefined-- 62.303
1.74 --undefined-- 67.801
1.75 131.989 70.579
1.76 129.276 70.826
1.77 126.103 69.062
1.78 121.008 65.876
1.79 --undefined-- 61.936
1.80 --undefined-- 58.506
1.81 --undefined-- 56.257
1.82 --undefined-- 54.285
1.83 --undefined-- 54.373
1.84 --undefined-- 56.993
1.85 --undefined-- 62.094
1.86 125.907 67.477
1.87 125.751 71.094
1.88 126.860 72.804
1.89 119.458 73.306
1.90 118.170 73.159
1.91 118.687 72.576
1.92 119.435 71.724
1.93 117.065 70.461
1.94 116.328 68.991
1.95 115.455 67.248
1.96 115.250 65.273
1.97 115.506 63.288
1.98 116.934 60.923
1.99 111.699 57.719
2.00 --undefined-- 53.123
2.01 --undefined-- 46.809
2.02 --undefined-- 40.430
2.03 --undefined-- 38.256
2.04 --undefined-- 38.252
2.05 --undefined-- 38.838
2.06 --undefined-- 40.754
2.07 --undefined-- 49.318
2.08 --undefined-- 59.822
2.09 --undefined-- 65.428
2.10 --undefined-- 66.572
2.11 --undefined-- 64.974
2.12 147.269 68.302
2.13 157.381 73.720
2.14 159.986 76.971
2.15 161.104 77.801
2.16 160.565 76.078
2.17 --undefined-- 71.464
2.18 --undefined-- 63.883
2.19 --undefined-- 57.475
2.20 --undefined-- 56.861
2.21 --undefined-- 58.625
2.22 146.722 60.304
2.23 133.709 59.646
2.24 134.145 56.068
2.25 --undefined-- 50.277
2.26 --undefined-- 49.466
2.27 --undefined-- 53.516
2.28 --undefined-- 59.956
2.29 139.394 66.889
2.30 140.408 71.370
2.31 138.648 73.278
2.32 134.891 73.000
2.33 128.507 70.873
2.34 --undefined-- 67.012
2.35 --undefined-- 61.316
2.36 --undefined-- 54.064
2.37 --undefined-- 49.339
2.38 --undefined-- 49.095
2.39 --undefined-- 47.828
2.40 --undefined-- 44.500
2.41 --undefined-- 40.887
2.42 --undefined-- 39.098
2.43 --undefined-- 38.347
2.44 --undefined-- 37.988
2.45 --undefined-- 38.130
2.46 --undefined-- 39.171
2.47 --undefined-- 42.743
2.48 --undefined-- 48.862
2.49 --undefined-- 55.773
2.50 141.996 61.637
2.51 144.073 65.691
2.52 145.071 68.205
2.53 144.620 69.624
2.54 143.161 70.172
2.55 141.686 70.433
2.56 139.655 70.674
2.57 137.148 70.065
2.58 133.074 68.054
2.59 127.155 64.296
2.60 --undefined-- 58.299
2.61 --undefined-- 51.019
2.62 --undefined-- 46.044
2.63 --undefined-- 43.096
2.64 --undefined-- 40.345
2.65 --undefined-- 40.611
2.66 --undefined-- 49.293
2.67 --undefined-- 55.193
2.68 --undefined-- 56.819
2.69 --undefined-- 54.884
2.70 --undefined-- 50.503
2.71 --undefined-- 44.764
2.72 --undefined-- 45.478
2.73 --undefined-- 53.987
2.74 --undefined-- 59.325
2.75 --undefined-- 60.913
2.76 --undefined-- 62.346
2.77 137.494 67.601
2.78 133.514 71.615
2.79 126.813 73.654
2.80 119.081 74.470
2.81 117.470 73.918
2.82 115.312 72.090
2.83 115.771 70.166
2.84 117.115 68.911
2.85 119.936 68.058
2.86 124.482 67.662
2.87 130.142 67.568
2.88 137.138 67.492
2.89 143.751 67.667
2.90 147.454 68.313
2.91 155.364 69.707
2.92 162.126 71.171
2.93 168.832 72.001
2.94 171.808 71.596
2.95 171.897 69.268
2.96 159.432 65.801
2.97 161.707 66.080
2.98 163.669 68.379
2.99 162.290 69.884
3.00 158.274 70.915
3.01 151.927 71.989
3.02 146.207 73.576
3.03 141.016 75.557
3.04 --undefined-- 77.230
3.05 --undefined-- 77.888
3.06 119.809 77.289
3.07 112.857 76.552
3.08 109.619 76.178
3.09 106.696 74.862
3.10 103.060 72.909
3.11 101.247 71.515
3.12 99.667 70.665
3.13 98.680 70.191
3.14 98.185 70.027
3.15 99.520 70.543
3.16 103.260 72.118
3.17 106.897 73.870
3.18 108.671 74.900
3.19 109.636 75.193
3.20 109.961 74.938
3.21 109.448 74.501
3.22 108.638 73.993
3.23 109.052 72.966
3.24 109.563 71.360
3.25 108.811 69.562
3.26 108.013 67.840
3.27 107.929 66.179
3.28 107.377 64.385
3.29 107.349 62.298
3.30 103.609 59.401
3.31 --undefined-- 55.309
3.32 --undefined-- 50.065
3.33 --undefined-- 45.149
3.34 --undefined-- 42.476
3.35 --undefined-- 43.033
3.36 --undefined-- 44.138
3.37 --undefined-- 43.386
3.38 --undefined-- 42.341
3.39 --undefined-- 42.646
3.40 --undefined-- 42.409
3.41 --undefined-- 42.069
3.42 --undefined-- 41.216
3.43 --undefined-- 39.130
3.44 --undefined-- 36.711
3.45 --undefined-- 35.913
3.46 --undefined-- 37.891
3.47 --undefined-- 38.634
3.48 --undefined-- 37.982
3.49 --undefined-- 38.183
3.50 --undefined-- 40.016
3.51 --undefined-- 40.974
3.52 --undefined-- 40.386
3.53 --undefined-- 40.433
3.54 --undefined-- 40.371
3.55 --undefined-- 39.624
3.56 --undefined-- 39.343
3.57 --undefined-- 40.191
3.58 --undefined-- 41.010
3.59 --undefined-- 40.213
3.60 --undefined-- 39.261
3.61 --undefined-- 39.397
3.62 --undefined-- 41.129
3.63 --undefined-- 45.754
3.64 --undefined-- 51.469
3.65 --undefined-- 55.470
3.66 --undefined-- 56.572
3.67 --undefined-- 55.329
3.68 --undefined-- 55.337
3.69 199.249 58.298
3.70 200.232 60.342
3.71 200.278 60.807
3.72 198.653 60.282
3.73 196.979 59.059
3.74 192.562 57.214
3.75 182.240 55.468
3.76 --undefined-- 54.169
3.77 --undefined-- 52.476
3.78 --undefined-- 52.267
3.79 --undefined-- 58.094
3.80 168.057 65.706
3.81 171.100 71.083
3.82 171.105 73.802
3.83 166.146 74.797
3.84 --undefined-- 75.206
3.85 --undefined-- 74.706
3.86 --undefined-- 72.351
3.87 --undefined-- 67.671
3.88 --undefined-- 61.637
3.89 --undefined-- 57.689
3.90 --undefined-- 54.840
3.91 --undefined-- 53.039
3.92 --undefined-- 56.934
3.93 124.214 64.042
3.94 125.917 69.095
3.95 125.539 71.400
3.96 122.201 71.456
3.97 118.233 70.241
3.98 117.652 68.400
3.99 118.817 65.870
4.00 118.681 63.288
4.01 118.815 61.665
4.02 123.656 61.838
4.03 127.701 62.949
4.04 131.079 63.927
4.05 132.797 64.828
4.06 134.958 65.525
4.07 139.293 65.956
4.08 144.431 66.230
4.09 150.657 66.429
4.10 156.259 66.851
4.11 160.497 67.374
4.12 163.452 67.724
4.13 166.106 67.967
4.14 166.229 67.953
4.15 164.526 67.456
4.16 162.434 66.211
4.17 157.890 63.636
4.18 146.148 58.862
4.19 --undefined-- 51.864
4.20 --undefined-- 44.543
4.21 --undefined-- 39.748
4.22 --undefined-- 38.688
4.23 --undefined-- 42.095
4.24 --undefined-- 51.618
4.25 --undefined-- 62.162
4.26 189.288 68.761
4.27 183.207 71.937
4.28 176.784 72.829
4.29 173.621 73.060
4.30 172.335 73.617
4.31 170.239 74.345
4.32 167.677 75.022
4.33 164.337 75.486
4.34 161.578 75.488
4.35 157.503 74.804
4.36 153.818 72.950
4.37 148.221 69.143
4.38 --undefined-- 63.058
4.39 --undefined-- 56.287
4.40 --undefined-- 52.723
4.41 --undefined-- 50.382
4.42 --undefined-- 47.740
4.43 --undefined-- 44.230
4.44 --undefined-- 41.243
4.45 --undefined-- 41.503
4.46 --undefined-- 42.729
4.47 --undefined-- 43.254
4.48 --undefined-- 44.140
4.49 --undefined-- 45.795
4.50 --undefined-- 53.075
4.51 --undefined-- 64.340
4.52 159.033 71.592
4.53 153.258 75.276
4.54 141.962 76.795
4.55 137.134 77.419
4.56 133.205 77.241
4.57 129.991 76.196
4.58 127.084 74.895
4.59 124.493 73.819
4.60 122.106 72.934
4.61 119.785 72.070
4.62 118.478 71.143
4.63 117.760 70.297
4.64 119.083 69.997
4.65 122.775 70.745
4.66 125.610 71.496
4.67 126.283 70.678
4.68 124.538 67.769
4.69 125.973 64.244
4.70 125.810 62.894
4.71 126.350 63.163
4.72 127.462 63.341
4.73 127.843 63.337
4.74 128.222 63.006
4.75 126.733 61.737
4.76 123.053 59.138
4.77 120.083 55.868
4.78 --undefined-- 52.551
4.79 --undefined-- 48.554
4.80 --undefined-- 44.975
4.81 --undefined-- 43.876
4.82 --undefined-- 48.084
4.83 --undefined-- 54.949
4.84 --undefined-- 59.700
4.85 --undefined-- 62.296
4.86 115.500 64.170
4.87 117.465 66.327
4.88 117.782 68.689
4.89 119.406 70.703
4.90 120.907 71.970
4.91 121.083 72.505
4.92 120.489 72.323
4.93 119.494 71.698
4.94 118.786 71.599
4.95 120.980 72.550
4.96 123.826 73.755
4.97 125.048 74.011
4.98 122.894 72.178
4.99 122.187 67.584
5.00 118.738 60.926
5.01 119.215 57.474
5.02 119.663 56.744
5.03 130.447 57.580
5.04 137.064 61.937
5.05 144.659 67.023
5.06 149.385 71.272
5.07 150.257 74.373
5.08 147.273 76.217
5.09 143.753 76.750
5.10 140.915 76.400
5.11 137.792 75.678
5.12 134.892 74.436
5.13 132.392 72.570
5.14 130.892 70.135
5.15 129.480 67.261
5.16 128.263 64.682
5.17 124.655 62.833
5.18 121.621 60.221
5.19 --undefined-- 56.273
5.20 --undefined-- 56.947
5.21 --undefined-- 63.422
5.22 110.054 67.780
5.23 113.066 69.883
5.24 114.785 70.761
5.25 115.912 70.901
5.26 118.065 70.271
5.27 120.070 68.815
5.28 121.055 66.336
5.29 121.834 62.808
5.30 121.143 59.802
5.31 120.900 58.374
5.32 119.559 56.779
5.33 --undefined-- 54.065
5.34 --undefined-- 51.391
5.35 --undefined-- 54.485
5.36 --undefined-- 60.540
5.37 --undefined-- 64.642
5.38 --undefined-- 67.087
5.39 --undefined-- 68.811
5.40 --undefined-- 69.344
5.41 --undefined-- 67.948
5.42 --undefined-- 65.819
5.43 --undefined-- 63.101
5.44 --undefined-- 59.571
5.45 --undefined-- 56.267
5.46 --undefined-- 50.916
5.47 --undefined-- 44.335
5.48 --undefined-- 40.924
5.49 --undefined-- 40.066
5.50 --undefined-- 41.802
5.51 --undefined-- 44.731
5.52 --undefined-- 47.939
5.53 --undefined-- 51.680
5.54 118.102 55.214
5.55 116.920 57.208
5.56 115.946 57.488
5.57 117.612 56.598
5.58 119.223 55.043
5.59 --undefined-- 53.215
5.60 --undefined-- 51.742
5.61 --undefined-- 50.324
5.62 --undefined-- 48.218
5.63 --undefined-- 46.639
5.64 --undefined-- 45.584
5.65 --undefined-- 43.921
5.66 --undefined-- 41.714
5.67 --undefined-- 40.015
5.68 --undefined-- 38.736
5.69 --undefined-- 37.488
5.70 --undefined-- 37.446
5.71 --undefined-- 39.603
5.72 --undefined-- 41.919
5.73 --undefined-- 41.908
5.74 --undefined-- 43.827
5.75 --undefined-- 47.627
5.76 --undefined-- 48.846
5.77 --undefined-- 48.466
5.78 --undefined-- 48.182
5.79 --undefined-- 51.384
5.80 --undefined-- 60.960
5.81 185.606 67.714
5.82 183.316 71.457
5.83 182.591 73.305
5.84 180.077 74.238
5.85 177.845 74.797
5.86 175.839 75.166
5.87 175.045 75.488
5.88 176.108 75.747
5.89 178.095 --undefined--
5.90 179.167 --undefined--
5.91 --undefined-- --undefined--
5.92 --undefined-- --undefined--
