Time Pitch Intensity
0.01 --undefined-- --undefined--
0.02 --undefined-- --undefined--
0.03 --undefined-- --undefined--
0.04 --undefined-- --undefined--
0.05 --undefined-- 37.969
0.06 --undefined-- 31.627
0.07 --undefined-- 28.154
0.08 --undefined-- 26.064
0.09 --undefined-- 25.087
0.10 --undefined-- 24.965
0.11 --undefined-- 25.131
0.12 --undefined-- 25.835
0.13 --undefined-- 27.669
0.14 --undefined-- 39.452
0.15 --undefined-- 52.497
0.16 --undefined-- 61.267
0.17 253.719 66.823
0.18 253.205 69.638
0.19 253.312 70.398
0.20 257.084 69.970
0.21 259.053 68.384
0.22 260.070 64.819
0.23 264.269 59.840
0.24 273.600 55.479
0.25 --undefined-- 49.621
0.26 --undefined-- 41.305
0.27 --undefined-- 36.212
0.28 --undefined-- 35.211
0.29 --undefined-- 35.070
0.30 --undefined-- 38.979
0.31 --undefined-- 52.271
0.32 --undefined-- 62.522
0.33 --undefined-- 68.182
0.34 --undefined-- 70.615
0.35 175.382 71.348
0.36 174.645 71.571
0.37 174.632 71.402
0.38 176.716 70.337
0.39 178.142 67.956
0.40 177.851 64.364
0.41 176.155 60.338
0.42 173.642 57.361
0.43 173.067 55.693
0.44 173.507 53.199
0.45 --undefined-- 48.737
0.46 --undefined-- 42.947
0.47 --undefined-- 39.241
0.48 --undefined-- 38.844
0.49 --undefined-- 39.917
0.50 --undefined-- 40.864
0.51 --undefined-- 42.818
0.52 --undefined-- 49.321
0.53 --undefined-- 54.745
0.54 --undefined-- 58.328
0.55 --undefined-- 62.880
0.56 238.331 67.328
0.57 231.233 70.302
0.58 229.290 71.484
0.59 226.347 71.254
0.60 223.241 70.728
0.61 222.755 70.630
0.62 221.714 70.941
0.63 222.564 71.314
0.64 226.346 71.342
0.65 229.700 71.091
0.66 233.332 70.516
0.67 232.857 69.510
0.68 229.576 68.129
0.69 229.227 66.098
0.70 229.164 63.668
0.71 224.673 61.834
0.72 212.309 60.591
0.73 206.870 59.609
0.74 200.338 59.633
0.75 187.095 61.447
0.76 182.897 64.373
0.77 174.380 67.168
0.78 170.968 69.135
0.79 166.782 70.695
0.80 163.918 71.895
0.81 163.079 71.612
0.82 163.083 69.272
0.83 163.614 65.746
0.84 167.276 63.500
0.85 171.156 63.030
0.86 178.202 62.728
0.87 182.523 62.387
0.88 187.990 62.161
0.89 193.986 61.860
0.90 198.357 61.785
0.91 203.072 61.958
0.92 211.245 62.453
0.93 224.375 65.132
0.94 227.912 68.845
0.95 231.419 71.209
0.96 234.897 72.173
0.97 236.955 72.176
0.98 240.668 71.364
0.99 242.740 69.820
1.00 242.513 67.878
1.01 243.626 65.990
1.02 248.373 64.440
1.03 251.241 62.833
1.04 254.426 60.145
1.05 254.803 55.886
1.06 --undefined-- 50.377
1.07 --undefined-- 44.511
1.08 --undefined-- 39.495
1.09 --undefined-- 36.441
1.10 --undefined-- 34.815
1.11 --undefined-- 36.219
1.12 --undefined-- 38.662
1.13 --undefined-- 38.560
1.14 --undefined-- 35.187
1.15 --undefined-- 39.545
1.16 --undefined-- 46.954
1.17 --undefined-- 50.351
1.18 --undefined-- 50.979
1.19 --undefined-- 51.463
1.20 --undefined-- 52.328
1.21 --undefined-- 52.403
1.22 --undefined-- 51.811
1.23 --undefined-- 50.541
1.24 --undefined-- 48.804
1.25 --undefined-- 47.210
1.26 --undefined-- 45.735
1.27 --undefined-- 44.189
1.28 --undefined-- 41.865
1.29 --undefined-- 38.059
1.30 --undefined-- 34.277
1.31 --undefined-- 32.171
1.32 --undefined-- 30.257
1.33 --undefined-- 28.731
1.34 --undefined-- 28.128
1.35 --undefined-- 27.756
1.36 --undefined-- 26.366
1.37 --undefined-- 25.613
1.38 --undefined-- 31.143
1.39 --undefined-- 36.744
1.40 --undefined-- 42.873
1.41 --undefined-- 49.852
1.42 --undefined-- 55.044
1.43 --undefined-- 57.982
1.44 --undefined-- 59.550
1.45 --undefined-- 61.789
1.46 --undefined-- 64.711
1.47 --undefined-- 66.253
1.48 --undefined-- 66.456
1.49 --undefined-- 67.759
1.50 --undefined-- 69.879
1.51 184.109 70.983
1.52 182.128 71.578
1.53 178.842 71.899
1.54 174.608 71.676
1.55 173.962 71.153
1.56 173.441 70.770
1.57 172.434 70.688
1.58 170.699 70.711
1.59 169.786 70.632
1.60 170.181 70.321
1.61 170.530 69.837
1.62 169.766 68.986
1.63 169.193 66.955
1.64 169.130 63.543
1.65 167.089 59.478
1.66 161.666 55.156
1.67 --undefined-- 50.556
1.68 --undefined-- 45.829
1.69 --undefined-- 41.800
1.70 --undefined-- 38.950
1.71 --undefined-- 40.577
1.72 --undefined-- 48.624
1.73 --undefined-- 53.285
1.74 --undefined-- 55.301
1.75 --undefined-- 60.838
1.76 --undefined-- 66.709
1.77 172.082 70.107
1.78 173.927 71.713
1.79 175.447 72.222
1.80 176.832 72.011
1.81 177.010 71.237
1.82 177.278 70.246
1.83 177.651 69.736
1.84 177.480 69.814
1.85 176.807 69.827
1.86 176.777 69.470
1.87 177.414 69.031
1.88 177.517 68.376
1.89 176.654 67.162
1.90 176.327 65.517
1.91 176.857 64.175
1.92 177.467 63.435
1.93 176.304 62.640
1.94 174.561 61.651
1.95 174.636 60.544
1.96 175.830 58.888
1.97 176.641 56.131
1.98 177.601 52.483
1.99 177.333 50.200
2.00 178.558 49.757
2.01 --undefined-- 49.125
2.02 --undefined-- 47.984
2.03 --undefined-- 46.647
2.04 --undefined-- 44.618
2.05 --undefined-- 41.508
2.06 --undefined-- 37.135
2.07 --undefined-- 31.200
2.08 --undefined-- 24.588
2.09 --undefined-- 33.212
2.10 --undefined-- 47.001
2.11 --undefined-- 56.201
2.12 --undefined-- 63.321
2.13 175.076 68.451
2.14 173.891 71.061
2.15 172.817 71.479
2.16 172.681 70.773
2.17 172.636 70.185
2.18 172.334 69.873
2.19 172.714 69.329
2.20 172.999 68.664
2.21 173.302 68.207
2.22 172.902 68.108
2.23 172.576 68.438
2.24 172.837 68.941
2.25 172.691 69.085
2.26 170.600 68.702
2.27 169.648 68.469
2.28 169.344 68.668
2.29 167.801 68.848
2.30 166.178 68.585
2.31 164.259 67.079
2.32 160.953 63.436
2.33 153.232 57.245
2.34 --undefined-- 49.999
2.35 --undefined-- 45.506
2.36 --undefined-- 42.180
2.37 --undefined-- 39.129
2.38 --undefined-- 38.195
2.39 --undefined-- 42.597
2.40 --undefined-- 53.646
2.41 --undefined-- 62.488
2.42 --undefined-- 67.448
2.43 160.175 69.367
2.44 158.036 69.786
2.45 156.714 69.859
2.46 156.902 69.765
2.47 158.789 69.479
2.48 162.564 68.647
2.49 166.399 67.249
2.50 168.778 65.484
2.51 170.484 62.767
2.52 173.241 58.763
2.53 189.450 54.048
2.54 --undefined-- 49.144
2.55 --undefined-- 44.146
2.56 --undefined-- 41.268
2.57 --undefined-- 42.185
2.58 --undefined-- 43.052
2.59 --undefined-- 44.803
2.60 --undefined-- 51.504
2.61 --undefined-- 58.741
2.62 --undefined-- 62.741
2.63 --undefined-- 63.505
2.64 --undefined-- 61.311
2.65 --undefined-- 56.331
2.66 --undefined-- 50.105
2.67 --undefined-- 45.588
2.68 --undefined-- 40.450
2.69 --undefined-- 38.571
2.70 --undefined-- 42.497
2.71 --undefined-- 45.462
2.72 --undefined-- 45.738
2.73 --undefined-- 43.694
2.74 --undefined-- 42.027
2.75 --undefined-- 53.721
2.76 --undefined-- 64.174
2.77 --undefined-- 69.316
2.78 --undefined-- 69.843
2.79 --undefined-- 66.534
2.80 --undefined-- 64.606
2.81 --undefined-- 66.111
2.82 --undefined-- 67.099
2.83 --undefined-- 67.653
2.84 164.941 68.204
2.85 164.393 68.523
2.86 164.148 68.461
2.87 163.801 67.855
2.88 165.307 67.026
2.89 168.691 66.615
2.90 172.648 66.352
2.91 174.366 65.590
2.92 173.572 63.913
2.93 170.067 61.273
2.94 165.111 57.587
2.95 165.605 52.735
2.96 --undefined-- 47.127
2.97 --undefined-- 45.943
2.98 --undefined-- 53.520
2.99 --undefined-- 60.857
3.00 196.625 65.527
3.01 195.633 68.458
3.02 219.421 70.742
3.03 217.253 72.033
3.04 211.977 72.456
3.05 207.791 72.282
3.06 206.531 71.660
3.07 207.078 70.969
3.08 208.670 70.408
3.09 211.339 69.740
3.10 214.826 68.671
3.11 215.578 67.044
3.12 215.165 65.051
3.13 213.560 63.290
3.14 209.885 62.027
3.15 206.257 61.089
3.16 199.975 60.580
3.17 193.222 61.265
3.18 184.366 62.621
3.19 176.944 63.796
3.20 168.338 64.641
3.21 164.089 65.038
3.22 160.974 65.183
3.23 161.818 64.664
3.24 167.092 63.078
3.25 171.256 61.836
3.26 170.374 61.895
3.27 172.295 62.250
3.28 177.732 62.421
3.29 181.856 62.946
3.30 184.315 63.629
3.31 188.589 63.622
3.32 193.019 64.404
3.33 195.695 67.888
3.34 194.721 70.782
3.35 193.373 71.853
3.36 190.386 71.880
3.37 185.490 71.381
3.38 179.174 70.680
3.39 177.007 70.453
3.40 175.879 70.517
3.41 --undefined-- 69.759
3.42 --undefined-- 68.178
3.43 --undefined-- 67.069
3.44 --undefined-- 65.315
3.45 --undefined-- 61.399
3.46 --undefined-- 57.996
3.47 --undefined-- 53.769
3.48 --undefined-- 45.404
3.49 --undefined-- 35.551
3.50 --undefined-- 30.171
3.51 --undefined-- 26.591
3.52 --undefined-- 24.401
3.53 --undefined-- 23.208
3.54 --undefined-- 22.898
3.55 --undefined-- 22.340
3.56 --undefined-- 21.806
3.57 --undefined-- 22.144
3.58 --undefined-- 22.749
3.59 --undefined-- 22.955
3.60 --undefined-- 22.988
3.61 --undefined-- 23.486
3.62 --undefined-- 24.053
3.63 --undefined-- 24.372
3.64 --undefined-- 24.715
3.65 --undefined-- 24.926
3.66 --undefined-- 24.747
3.67 --undefined-- 24.525
3.68 --undefined-- 24.925
3.69 --undefined-- 25.534
3.70 --undefined-- 25.796
3.71 --undefined-- 25.981
3.72 --undefined-- 25.825
3.73 --undefined-- 25.196
3.74 --undefined-- 24.798
3.75 --undefined-- 25.176
3.76 --undefined-- 26.041
3.77 --undefined-- 26.503
3.78 --undefined-- 26.596
3.79 --undefined-- 26.642
3.80 --undefined-- 26.442
3.81 --undefined-- 26.400
3.82 --undefined-- 26.994
3.83 --undefined-- 27.273
3.84 --undefined-- 26.785
3.85 --undefined-- 26.190
3.86 --undefined-- 26.245
3.87 --undefined-- 26.425
3.88 --undefined-- 26.263
3.89 --undefined-- 26.110
3.90 --undefined-- 26.120
3.91 --undefined-- 26.271
3.92 --undefined-- 26.383
3.93 --undefined-- 26.550
3.94 --undefined-- 26.502
3.95 --undefined-- 26.208
3.96 --undefined-- 26.263
3.97 --undefined-- 26.261
3.98 --undefined-- 26.142
3.99 --undefined-- 26.432
4.00 --undefined-- 26.951
4.01 --undefined-- 27.340
4.02 --undefined-- 30.329
4.03 --undefined-- 40.889
4.04 --undefined-- 51.722
4.05 --undefined-- 61.162
4.06 --undefined-- 67.710
4.07 225.193 71.090
4.08 231.274 72.044
4.09 229.522 71.372
4.10 232.256 69.646
4.11 237.729 67.593
4.12 245.750 65.902
4.13 251.685 65.297
4.14 256.038 65.701
4.15 260.197 66.428
4.16 265.198 66.977
4.17 270.728 67.303
4.18 281.723 67.533
4.19 288.265 67.376
4.20 293.878 66.784
4.21 298.731 66.088
4.22 152.092 65.652
4.23 157.368 65.329
4.24 163.085 64.196
4.25 163.759 61.270
4.26 --undefined-- 55.829
4.27 --undefined-- 47.913
4.28 --undefined-- 43.438
4.29 --undefined-- 45.858
4.30 --undefined-- 47.863
4.31 --undefined-- 50.617
4.32 --undefined-- 58.661
4.33 170.781 66.785
4.34 171.191 71.458
4.35 171.382 73.324
4.36 167.995 73.295
4.37 164.187 72.449
4.38 160.231 71.646
4.39 159.428 71.066
4.40 159.217 70.417
4.41 158.938 69.475
4.42 159.154 68.401
4.43 159.643 67.502
4.44 159.767 66.553
4.45 159.701 65.445
4.46 159.172 64.095
4.47 161.088 62.188
4.48 167.563 59.439
4.49 169.835 57.073
4.50 174.104 61.139
4.51 --undefined-- 67.342
4.52 289.306 71.263
4.53 276.907 72.833
4.54 242.856 72.952
4.55 228.305 72.296
4.56 218.729 71.296
4.57 210.682 70.513
4.58 205.739 69.466
4.59 203.120 67.099
4.60 198.630 62.539
4.61 --undefined-- 55.719
4.62 --undefined-- 48.142
4.63 --undefined-- 43.424
4.64 --undefined-- 40.586
4.65 --undefined-- 37.904
4.66 --undefined-- 40.088
4.67 --undefined-- 45.632
4.68 --undefined-- 49.757
4.69 --undefined-- 52.569
4.70 --undefined-- 58.625
4.71 217.049 65.444
4.72 215.803 69.595
4.73 213.655 71.450
4.74 211.327 72.066
4.75 212.611 72.000
4.76 219.400 71.335
4.77 229.851 70.434
4.78 237.895 69.470
4.79 246.216 68.066
4.80 267.291 66.653
4.81 275.212 65.248
4.82 277.186 62.916
4.83 282.301 59.314
4.84 290.408 55.026
4.85 --undefined-- 54.110
4.86 --undefined-- 55.485
4.87 --undefined-- 54.658
4.88 --undefined-- 53.805
4.89 --undefined-- 56.254
4.90 --undefined-- 57.998
4.91 --undefined-- 60.107
4.92 --undefined-- 67.079
4.93 258.131 71.851
4.94 253.856 72.966
4.95 237.791 71.747
4.96 207.147 71.150
4.97 203.638 71.402
4.98 204.186 70.813
4.99 206.713 70.019
5.00 208.447 69.844
5.01 208.210 69.217
5.02 210.350 67.192
5.03 212.472 63.818
5.04 208.627 59.362
5.05 209.558 54.303
5.06 --undefined-- 53.037
5.07 --undefined-- 57.561
5.08 --undefined-- 60.203
5.09 --undefined-- 59.430
5.10 --undefined-- 58.710
5.11 224.832 64.601
5.12 220.776 69.287
5.13 212.972 71.343
5.14 207.861 71.358
5.15 206.054 70.426
5.16 206.678 69.724
5.17 208.849 69.345
5.18 210.626 69.243
5.19 213.190 69.263
5.20 215.915 68.938
5.21 216.184 67.396
5.22 214.916 64.065
5.23 211.932 59.341
5.24 208.869 54.782
5.25 209.119 51.399
5.26 --undefined-- 48.583
5.27 --undefined-- 47.663
5.28 --undefined-- 48.675
5.29 --undefined-- 48.571
5.30 --undefined-- 46.926
5.31 --undefined-- 46.642
5.32 --undefined-- 49.292
5.33 --undefined-- 53.017
5.34 279.486 57.892
5.35 275.743 61.845
5.36 268.940 64.531
5.37 269.168 66.543
5.38 274.410 67.781
5.39 279.797 68.578
5.40 285.041 69.257
5.41 287.875 69.576
5.42 294.162 69.511
5.43 292.266 68.907
5.44 271.960 67.837
5.45 264.184 67.335
5.46 263.362 67.855
5.47 257.735 68.248
5.48 244.931 68.225
5.49 --undefined-- 68.189
5.50 --undefined-- 68.308
5.51 --undefined-- 68.978
5.52 182.742 70.022
5.53 179.029 70.522
5.54 177.551 70.164
5.55 179.652 69.118
5.56 184.964 67.671
5.57 191.470 67.142
5.58 198.509 67.626
5.59 202.466 67.295
5.60 208.931 65.685
5.61 216.087 64.673
5.62 222.056 66.622
5.63 229.205 69.648
5.64 235.247 72.041
5.65 241.299 73.248
5.66 255.986 73.616
5.67 265.555 73.669
5.68 271.352 73.050
5.69 277.084 71.257
5.70 282.300 68.538
5.71 288.562 65.562
5.72 298.573 62.514
5.73 151.469 58.809
5.74 147.937 53.664
5.75 --undefined-- 47.468
5.76 --undefined-- 42.142
5.77 --undefined-- 37.536
5.78 --undefined-- 32.572
5.79 --undefined-- 30.413
5.80 --undefined-- 36.666
5.81 --undefined-- 43.588
5.82 --undefined-- 47.854
5.83 --undefined-- 49.621
5.84 --undefined-- 49.754
5.85 --undefined-- 49.354
5.86 --undefined-- 48.877
5.87 --undefined-- 47.753
5.88 --undefined-- 45.705
5.89 --undefined-- 45.830
5.90 --undefined-- 48.260
5.91 --undefined-- 49.094
5.92 --undefined-- 48.733
5.93 --undefined-- 47.952
5.94 --undefined-- 46.357
5.95 --undefined-- 43.726
5.96 --undefined-- 41.232
5.97 --undefined-- 39.526
5.98 --undefined-- 37.936
5.99 --undefined-- 35.970
6.00 --undefined-- 33.102
6.01 --undefined-- 29.222
6.02 --undefined-- 26.278
6.03 --undefined-- 25.780
6.04 --undefined-- 25.729
6.05 --undefined-- 25.682
6.06 --undefined-- 25.683
6.07 --undefined-- 28.893
6.08 --undefined-- 37.073
6.09 --undefined-- 46.622
6.10 --undefined-- 55.549
6.11 --undefined-- 61.091
6.12 --undefined-- 65.105
6.13 161.407 68.131
6.14 164.893 69.339
6.15 169.730 69.077
6.16 82.006 68.876
6.17 76.451 68.817
6.18 76.537 68.397
6.19 --undefined-- 67.564
6.20 --undefined-- 65.774
6.21 83.626 64.939
6.22 87.525 64.746
6.23 87.920 63.321
6.24 89.039 62.057
6.25 89.955 61.474
6.26 93.056 61.543
6.27 --undefined-- 63.269
6.28 --undefined-- 63.650
6.29 --undefined-- 62.999
6.30 --undefined-- 64.248
6.31 --undefined-- 65.972
6.32 --undefined-- 65.725
6.33 --undefined-- 62.592
6.34 --undefined-- 58.648
6.35 --undefined-- --undefined--
6.36 --undefined-- --undefined--
6.37 --undefined-- --undefined--
6.38 --undefined-- --undefined--
