Time Pitch Intensity
0.01 --undefined-- --undefined--
0.02 --undefined-- --undefined--
0.03 --undefined-- --undefined--
0.04 --undefined-- --undefined--
0.05 114.018 68.355
0.06 112.753 69.761
0.07 103.558 69.340
0.08 101.297 68.516
0.09 98.610 67.774
0.10 94.766 67.205
0.11 93.935 66.946
0.12 93.925 66.882
0.13 93.226 66.676
0.14 93.250 66.343
0.15 93.686 66.073
0.16 95.220 66.111
0.17 96.996 66.374
0.18 98.541 66.610
0.19 100.080 66.795
0.20 101.215 66.666
0.21 101.364 65.747
0.22 99.973 63.905
0.23 99.702 62.673
0.24 116.017 65.766
0.25 116.443 69.164
0.26 114.966 70.509
0.27 115.070 70.484
0.28 116.526 70.330
0.29 118.955 70.526
0.30 120.392 70.748
0.31 121.709 70.812
0.32 123.516 70.836
0.33 124.586 70.929
0.34 125.202 70.999
0.35 125.093 70.838
0.36 124.450 70.405
0.37 123.286 69.683
0.38 119.542 68.485
0.39 112.309 66.648
0.40 93.952 64.588
0.41 89.673 63.030
0.42 82.603 62.180
0.43 85.573 62.110
0.44 95.316 62.581
0.45 116.602 63.925
0.46 129.450 66.238
0.47 131.793 68.457
0.48 131.825 69.853
0.49 130.093 70.006
0.50 125.399 68.465
0.51 119.572 65.158
0.52 117.133 63.017
0.53 148.442 67.485
0.54 146.883 71.530
0.55 135.191 73.031
0.56 132.986 73.069
0.57 131.936 72.965
0.58 131.654 73.007
0.59 129.453 72.744
0.60 125.781 71.978
0.61 122.386 70.722
0.62 120.312 69.408
0.63 120.230 68.897
0.64 121.730 69.642
0.65 121.279 70.817
0.66 119.013 71.333
0.67 113.741 70.802
0.68 112.422 69.852
0.69 111.228 69.449
0.70 111.485 69.670
0.71 112.354 70.202
0.72 112.805 70.751
0.73 113.179 71.061
0.74 113.352 71.090
0.75 112.607 71.098
0.76 111.359 71.257
0.77 110.865 71.402
0.78 110.357 71.673
0.79 111.354 71.948
0.80 116.645 72.088
0.81 115.925 71.979
0.82 113.733 71.772
0.83 113.866 71.842
0.84 116.814 72.006
0.85 120.560 72.264
0.86 122.742 72.683
0.87 126.404 73.057
0.88 129.501 73.234
0.89 130.869 73.227
0.90 131.832 73.065
0.91 132.591 72.488
0.92 135.487 70.918
0.93 135.241 67.680
0.94 132.844 62.366
0.95 139.051 55.742
0.96 --undefined-- 51.087
0.97 --undefined-- 51.114
0.98 --undefined-- 58.852
0.99 --undefined-- 66.873
1.00 150.372 71.279
1.01 147.595 72.750
1.02 141.425 72.438
1.03 137.982 71.491
1.04 135.565 70.636
1.05 135.374 70.206
1.06 136.673 70.258
1.07 137.462 70.520
1.08 137.764 70.858
1.09 137.956 71.248
1.10 138.221 71.634
1.11 138.887 71.912
1.12 139.668 72.031
1.13 140.323 72.029
1.14 140.940 71.958
1.15 140.983 71.729
1.16 140.831 71.078
1.17 140.916 69.635
1.18 140.313 67.009
1.19 136.548 63.094
1.20 130.441 58.873
1.21 130.264 55.930
1.22 132.601 53.889
1.23 137.825 51.873
1.24 142.904 49.932
1.25 150.041 49.322
1.26 --undefined-- 55.961
1.27 --undefined-- 65.084
1.28 194.857 70.343
1.29 193.271 72.198
1.30 183.936 71.972
1.31 183.017 71.523
1.32 182.693 71.453
1.33 180.015 71.249
1.34 182.388 71.268
1.35 184.838 71.866
1.36 183.758 72.490
1.37 182.734 73.015
1.38 181.989 73.476
1.39 180.996 73.893
1.40 180.055 74.292
1.41 179.180 74.650
1.42 178.708 74.936
1.43 178.310 74.986
1.44 177.744 74.367
1.45 174.240 72.372
1.46 168.964 68.315
1.47 164.080 61.876
1.48 --undefined-- 55.309
1.49 --undefined-- 54.890
1.50 --undefined-- 60.570
1.51 --undefined-- 68.400
1.52 196.351 72.991
1.53 192.029 74.363
1.54 182.183 73.662
1.55 173.546 71.998
1.56 157.474 69.105
1.57 142.544 64.636
1.58 128.322 60.135
1.59 104.461 57.016
1.60 90.002 55.833
1.61 86.997 57.462
1.62 --undefined-- 61.126
1.63 124.434 64.977
1.64 125.325 67.497
1.65 123.920 68.097
1.66 119.713 66.621
1.67 113.074 63.192
1.68 118.076 58.851
1.69 122.857 54.966
1.70 114.036 50.564
1.71 --undefined-- 45.389
1.72 --undefined-- 41.781
1.73 --undefined-- 40.781
1.74 --undefined-- 49.990
1.75 --undefined-- 62.106
1.76 196.652 69.533
1.77 176.742 73.237
1.78 167.954 74.461
1.79 166.516 74.581
1.80 166.061 74.260
1.81 165.234 73.477
1.82 162.060 72.781
1.83 160.645 72.811
1.84 159.316 73.161
1.85 156.233 73.446
1.86 153.036 73.628
1.87 149.306 73.549
1.88 144.064 73.019
1.89 139.497 72.120
1.90 131.956 70.967
1.91 125.651 69.565
1.92 122.056 68.102
1.93 122.574 67.143
1.94 125.247 67.242
1.95 129.212 68.268
1.96 132.254 69.383
1.97 132.394 69.741
1.98 131.629 68.858
1.99 129.785 66.342
2.00 124.907 62.295
2.01 126.429 58.515
2.02 127.200 59.930
2.03 135.945 65.934
2.04 133.099 69.892
2.05 124.445 71.085
2.06 119.025 70.587
2.07 114.727 69.850
2.08 113.746 69.632
2.09 113.561 69.868
2.10 114.134 70.292
2.11 114.829 70.277
2.12 115.101 68.717
2.13 108.525 64.892
2.14 116.655 60.025
2.15 125.607 56.852
2.16 --undefined-- 58.336
2.17 --undefined-- 65.147
2.18 --undefined-- 70.426
2.19 151.545 72.822
2.20 151.064 73.281
2.21 151.836 73.303
2.22 153.701 73.488
2.23 155.355 73.676
2.24 157.945 73.757
2.25 159.758 73.630
2.26 159.617 72.879
2.27 157.203 70.670
2.28 150.456 66.762
2.29 156.982 62.285
2.30 155.278 57.063
2.31 --undefined-- 49.470
2.32 --undefined-- 41.524
2.33 --undefined-- 38.208
2.34 --undefined-- 46.066
2.35 --undefined-- 57.872
2.36 --undefined-- 65.364
2.37 --undefined-- 69.481
2.38 108.187 71.430
2.39 106.205 72.244
2.40 105.240 72.496
2.41 106.770 72.624
2.42 109.538 72.784
2.43 112.495 72.917
2.44 115.634 73.069
2.45 119.911 73.288
2.46 126.445 73.508
2.47 132.835 73.456
2.48 137.658 72.678
2.49 138.641 70.993
2.50 146.446 70.013
2.51 152.009 70.647
2.52 154.042 71.329
2.53 153.851 71.898
2.54 149.625 72.669
2.55 147.195 73.477
2.56 135.997 73.481
2.57 128.460 72.299
2.58 117.584 70.936
2.59 110.593 70.331
2.60 105.288 69.997
2.61 101.686 69.417
2.62 97.573 68.501
2.63 95.596 67.681
2.64 95.110 67.471
2.65 94.912 67.598
2.66 96.890 67.825
2.67 101.448 68.049
2.68 109.661 68.745
2.69 116.814 70.245
2.70 120.418 71.727
2.71 121.250 72.657
2.72 121.761 72.790
2.73 120.472 72.103
2.74 118.539 71.286
2.75 116.626 70.753
2.76 112.704 70.384
2.77 108.918 70.113
2.78 105.016 69.577
2.79 97.994 68.199
2.80 92.774 65.705
2.81 93.015 62.064
2.82 90.200 56.823
2.83 --undefined-- 49.886
2.84 --undefined-- 46.178
2.85 --undefined-- 47.339
2.86 --undefined-- 48.019
2.87 --undefined-- 48.421
2.88 --undefined-- 49.142
2.89 --undefined-- 49.720
2.90 --undefined-- 50.215
2.91 --undefined-- 50.885
2.92 --undefined-- 51.402
2.93 --undefined-- 51.473
2.94 --undefined-- 51.260
2.95 --undefined-- 51.015
2.96 --undefined-- 50.561
2.97 --undefined-- 50.019
2.98 --undefined-- 50.053
2.99 --undefined-- 50.187
3.00 --undefined-- 50.473
3.01 --undefined-- 51.411
3.02 --undefined-- 52.040
3.03 --undefined-- 51.540
3.04 --undefined-- 49.565
3.05 --undefined-- 45.932
3.06 --undefined-- 41.318
3.07 --undefined-- 37.384
3.08 --undefined-- 37.923
3.09 --undefined-- 51.097
3.10 --undefined-- 61.396
3.11 138.528 67.762
3.12 137.315 71.285
3.13 136.406 72.844
3.14 135.980 73.265
3.15 136.594 73.213
3.16 132.645 72.932
3.17 128.978 72.424
3.18 128.941 72.026
3.19 131.624 72.045
3.20 133.833 71.763
3.21 136.402 70.926
3.22 141.473 70.451
3.23 146.801 70.749
3.24 147.555 71.535
3.25 147.569 72.379
3.26 146.141 72.958
3.27 144.766 73.180
3.28 143.752 73.171
3.29 144.019 73.165
3.30 145.237 73.336
3.31 145.725 73.526
3.32 143.678 73.191
3.33 139.211 72.044
3.34 134.650 70.262
3.35 133.461 67.886
3.36 129.330 64.667
3.37 125.325 60.503
3.38 123.837 56.565
3.39 --undefined-- 61.078
3.40 --undefined-- 68.609
3.41 163.901 72.657
3.42 153.901 73.705
3.43 153.029 73.044
3.44 157.869 72.189
3.45 163.402 71.707
3.46 174.239 71.561
3.47 188.244 71.817
3.48 199.044 72.092
3.49 209.115 72.269
3.50 219.016 71.806
3.51 220.819 70.078
3.52 209.269 67.491
3.53 205.107 66.176
3.54 205.671 67.777
3.55 206.666 70.712
3.56 205.354 72.659
3.57 200.235 73.284
3.58 195.377 73.574
3.59 191.238 73.998
3.60 186.335 74.121
3.61 181.387 73.172
3.62 174.673 70.371
3.63 163.529 65.458
3.64 161.228 58.787
3.65 --undefined-- 50.970
3.66 --undefined-- 45.804
3.67 --undefined-- 45.639
3.68 --undefined-- 46.421
3.69 --undefined-- 52.521
3.70 --undefined-- 62.958
3.71 199.316 69.395
3.72 198.796 72.236
3.73 196.063 72.417
3.74 192.688 71.226
3.75 200.447 70.455
3.76 205.324 70.665
3.77 207.686 71.112
3.78 209.470 71.550
3.79 208.992 72.076
3.80 206.890 72.786
3.81 203.886 73.655
3.82 200.266 74.464
3.83 195.233 74.728
3.84 187.346 73.808
3.85 177.423 71.109
3.86 166.180 66.179
3.87 146.551 59.217
3.88 135.806 58.250
3.89 140.826 65.620
3.90 154.607 70.717
3.91 146.928 73.065
3.92 138.402 73.597
3.93 138.568 73.433
3.94 141.221 72.982
3.95 140.996 72.128
3.96 147.229 71.552
3.97 156.839 71.832
3.98 161.342 72.496
3.99 164.214 73.240
4.00 163.571 73.554
4.01 163.022 73.259
4.02 158.170 72.781
4.03 150.330 72.440
4.04 144.640 72.322
4.05 139.100 72.756
4.06 134.232 73.462
4.07 129.313 73.665
4.08 121.109 73.064
4.09 114.047 71.979
4.10 109.175 71.168
4.11 104.125 70.650
4.12 101.513 69.691
4.13 101.185 68.006
4.14 98.132 65.302
4.15 99.554 61.544
4.16 101.370 57.749
4.17 105.128 55.284
4.18 106.917 54.047
4.19 107.328 55.749
4.20 115.506 60.479
4.21 109.111 65.271
4.22 108.326 68.935
4.23 108.335 71.128
4.24 109.865 72.113
4.25 109.230 72.257
4.26 104.906 71.481
4.27 94.329 69.942
4.28 78.868 68.236
4.29 79.613 65.698
4.30 --undefined-- 61.617
4.31 --undefined-- 57.418
4.32 --undefined-- 56.001
4.33 --undefined-- 56.350
4.34 --undefined-- 58.181
4.35 82.257 60.979
4.36 87.924 63.168
4.37 87.984 64.232
4.38 91.745 64.912
4.39 91.918 65.670
4.40 98.731 66.297
4.41 96.513 66.662
4.42 96.720 66.526
4.43 96.318 65.874
4.44 94.574 64.905
4.45 93.535 64.229
4.46 93.569 64.604
4.47 95.800 65.865
4.48 97.762 67.304
4.49 100.206 68.529
4.50 101.117 69.422
4.51 102.218 69.978
4.52 103.167 70.139
4.53 104.260 69.503
4.54 102.852 67.428
4.55 102.133 63.602
4.56 109.304 58.894
4.57 115.909 55.792
4.58 117.755 52.955
4.59 --undefined-- 54.046
4.60 --undefined-- 59.749
4.61 --undefined-- 66.253
4.62 158.915 71.240
4.63 151.979 73.441
4.64 146.838 73.662
4.65 145.957 73.289
4.66 144.777 73.116
4.67 143.131 73.075
4.68 141.102 72.991
4.69 138.079 72.647
4.70 133.787 72.110
4.71 128.198 71.614
4.72 120.965 71.034
4.73 113.710 70.063
4.74 106.242 68.356
4.75 98.933 65.764
4.76 --undefined-- 62.737
4.77 --undefined-- 60.265
4.78 --undefined-- 57.897
4.79 --undefined-- 53.823
4.80 --undefined-- 47.040
4.81 --undefined-- 41.258
4.82 --undefined-- 45.225
4.83 --undefined-- 47.584
4.84 --undefined-- 47.924
4.85 --undefined-- 48.827
4.86 --undefined-- 49.104
4.87 --undefined-- 48.498
4.88 --undefined-- 48.447
4.89 --undefined-- 48.555
4.90 --undefined-- 48.333
4.91 --undefined-- 48.199
4.92 --undefined-- 48.171
4.93 --undefined-- 47.887
4.94 --undefined-- 47.555
4.95 --undefined-- 47.388
4.96 --undefined-- 47.077
4.97 --undefined-- 46.320
4.98 --undefined-- 45.331
4.99 --undefined-- 44.534
5.00 --undefined-- 43.395
5.01 --undefined-- 41.616
5.02 --undefined-- 39.943
5.03 --undefined-- 39.980
5.04 --undefined-- 43.001
5.05 --undefined-- 45.218
5.06 --undefined-- 45.133
5.07 --undefined-- 44.562
5.08 --undefined-- 45.644
5.09 --undefined-- 47.320
5.10 --undefined-- 48.428
5.11 --undefined-- --undefined--
5.12 --undefined-- --undefined--
5.13 --undefined-- --undefined--
5.14 --undefined-- --undefined--
