Time Pitch Intensity
0.01 --undefined-- --undefined--
0.02 156.183 --undefined--
0.03 154.607 --undefined--
0.04 --undefined-- --undefined--
0.05 --undefined-- 47.184
0.06 --undefined-- 49.227
0.07 --undefined-- 51.237
0.08 --undefined-- 51.291
0.09 --undefined-- 50.516
0.10 --undefined-- 55.196
0.11 274.750 64.232
0.12 258.842 70.268
0.13 251.578 73.756
0.14 250.227 75.455
0.15 248.982 76.156
0.16 246.801 76.385
0.17 243.124 76.387
0.18 243.818 76.402
0.19 245.370 76.525
0.20 244.608 76.709
0.21 244.045 76.799
0.22 242.033 76.819
0.23 239.147 76.728
0.24 234.486 76.470
0.25 229.081 76.036
0.26 222.120 75.485
0.27 216.462 74.695
0.28 208.418 73.146
0.29 195.365 70.861
0.30 187.842 69.079
0.31 181.432 68.542
0.32 176.641 68.226
0.33 172.388 67.976
0.34 169.678 67.886
0.35 166.593 67.767
0.36 164.862 67.771
0.37 163.518 68.005
0.38 161.730 67.963
0.39 160.461 67.356
0.40 159.588 67.230
0.41 159.359 67.802
0.42 162.395 68.006
0.43 162.356 67.732
0.44 159.815 67.477
0.45 158.385 67.181
0.46 156.618 66.311
0.47 155.430 64.501
0.48 150.075 62.582
0.49 146.421 61.986
0.50 146.605 62.530
0.51 143.784 63.483
0.52 141.851 64.453
0.53 139.762 65.378
0.54 137.945 66.123
0.55 136.190 66.667
0.56 134.801 67.017
0.57 133.885 67.332
0.58 133.413 67.697
0.59 133.015 67.739
0.60 134.538 67.491
0.61 135.048 67.450
0.62 135.205 67.409
0.63 136.025 67.300
0.64 136.578 67.165
0.65 137.302 66.969
0.66 137.453 66.985
0.67 137.975 67.132
0.68 137.644 67.146
0.69 136.998 67.118
0.70 136.156 67.322
0.71 137.132 67.417
0.72 138.285 67.290
0.73 137.203 67.442
0.74 136.968 67.555
0.75 134.792 67.511
0.76 131.117 67.712
0.77 128.767 67.949
0.78 123.507 67.993
0.79 113.765 67.053
0.80 108.397 64.163
0.81 --undefined-- 59.134
0.82 --undefined-- 53.342
0.83 --undefined-- 47.173
0.84 --undefined-- 40.325
0.85 --undefined-- 38.522
0.86 --undefined-- 45.322
0.87 134.287 50.808
0.88 123.309 53.284
0.89 114.136 53.640
0.90 110.824 53.190
0.91 107.859 52.549
0.92 105.474 50.826
0.93 --undefined-- 48.004
0.94 --undefined-- 45.999
0.95 --undefined-- 44.921
0.96 --undefined-- 44.960
0.97 --undefined-- 46.496
0.98 --undefined-- 48.332
0.99 --undefined-- 49.555
1.00 --undefined-- 49.893
1.01 --undefined-- 50.304
1.02 94.481 51.201
1.03 93.292 51.816
1.04 93.143 51.822
1.05 92.665 51.433
1.06 91.123 51.255
1.07 89.713 51.577
1.08 88.032 51.743
1.09 86.623 51.354
1.10 87.437 50.449
1.11 87.135 49.375
1.12 86.581 49.864
1.13 88.076 51.820
1.14 95.896 53.444
1.15 94.947 54.221
1.16 96.751 58.015
1.17 --undefined-- 66.007
1.18 238.496 71.475
1.19 229.130 74.262
1.20 224.140 75.683
1.21 222.212 76.773
1.22 221.932 77.518
1.23 225.187 77.464
1.24 231.646 76.735
1.25 232.158 75.943
1.26 230.398 74.818
1.27 214.456 72.757
1.28 203.841 70.165
1.29 204.702 67.242
1.30 207.513 62.720
1.31 --undefined-- 56.334
1.32 100.425 52.357
1.33 99.127 51.994
1.34 96.245 51.600
1.35 --undefined-- 52.356
1.36 --undefined-- 56.136
1.37 --undefined-- 63.239
1.38 270.637 68.810
1.39 268.768 71.783
1.40 268.560 72.916
1.41 267.998 73.015
1.42 266.148 72.626
1.43 263.304 71.863
1.44 256.834 70.621
1.45 244.356 69.046
1.46 238.866 66.894
1.47 241.194 63.206
1.48 --undefined-- 57.855
1.49 90.593 53.722
1.50 90.725 54.678
1.51 --undefined-- 61.861
1.52 249.076 68.384
1.53 220.849 71.843
1.54 206.905 72.869
1.55 197.642 72.496
1.56 188.230 71.862
1.57 181.688 71.874
1.58 178.242 72.303
1.59 175.979 72.635
1.60 174.798 72.682
1.61 174.037 72.370
1.62 173.761 71.911
1.63 173.552 71.478
1.64 174.657 70.925
1.65 175.884 69.707
1.66 175.286 66.853
1.67 --undefined-- 61.626
1.68 --undefined-- 55.304
1.69 98.713 53.593
1.70 97.727 54.091
1.71 94.649 58.893
1.72 --undefined-- 66.683
1.73 233.125 71.514
1.74 234.675 73.500
1.75 236.907 73.450
1.76 238.928 71.701
1.77 235.608 67.861
1.78 --undefined-- 61.432
1.79 88.586 54.375
1.80 87.608 52.572
1.81 87.695 53.914
1.82 --undefined-- 56.318
1.83 --undefined-- 58.828
1.84 224.575 63.846
1.85 224.477 68.626
1.86 220.920 71.568
1.87 212.139 72.682
1.88 191.124 72.190
1.89 159.516 71.007
1.90 147.773 70.218
1.91 141.672 70.018
1.92 140.891 70.075
1.93 141.964 70.082
1.94 144.956 70.044
1.95 145.313 69.976
1.96 145.147 69.829
1.97 146.176 69.758
1.98 145.485 69.490
1.99 145.640 69.146
2.00 146.436 68.379
2.01 141.670 66.731
2.02 143.644 63.985
2.03 132.901 59.750
2.04 --undefined-- 55.025
2.05 --undefined-- 55.695
2.06 --undefined-- 62.436
2.07 186.957 67.483
2.08 179.690 69.829
2.09 178.584 70.782
2.10 179.275 71.339
2.11 178.328 71.595
2.12 176.579 71.687
2.13 175.660 71.843
2.14 174.968 72.104
2.15 174.576 72.364
2.16 174.956 72.615
2.17 175.313 72.854
2.18 176.195 73.000
2.19 176.968 73.028
2.20 178.287 73.057
2.21 179.616 73.107
2.22 180.918 73.069
2.23 181.621 73.001
2.24 180.523 72.996
2.25 177.446 72.806
2.26 172.208 71.715
2.27 --undefined-- 68.883
2.28 --undefined-- 64.148
2.29 79.064 58.841
2.30 80.274 55.154
2.31 85.443 53.287
2.32 86.577 53.847
2.33 --undefined-- 55.427
2.34 --undefined-- 55.407
2.35 109.414 55.377
2.36 116.044 55.986
2.37 109.877 55.408
2.38 101.492 53.655
2.39 98.492 51.657
2.40 --undefined-- 54.271
2.41 --undefined-- 60.954
2.42 168.262 65.443
2.43 165.398 68.427
2.44 164.790 71.198
2.45 165.358 73.462
2.46 166.166 74.707
2.47 167.191 75.009
2.48 168.088 74.661
2.49 169.952 73.975
2.50 172.432 73.101
2.51 175.759 72.135
2.52 180.222 71.225
2.53 186.254 70.641
2.54 194.708 70.663
2.55 201.919 71.116
2.56 207.237 71.719
2.57 213.425 72.613
2.58 221.347 73.552
2.59 225.093 74.010
2.60 228.015 74.046
2.61 230.369 73.793
2.62 231.221 73.159
2.63 229.731 72.203
2.64 225.759 71.261
2.65 217.933 70.690
2.66 210.638 70.482
2.67 202.959 70.176
2.68 194.154 69.705
2.69 187.508 69.576
2.70 183.023 69.764
2.71 178.719 69.899
2.72 176.178 69.859
2.73 173.164 69.599
2.74 170.881 69.102
2.75 168.777 68.433
2.76 167.311 67.706
2.77 167.045 67.094
2.78 167.102 66.497
2.79 164.341 65.449
2.80 161.322 63.492
2.81 158.541 60.588
2.82 --undefined-- 56.871
2.83 117.249 52.634
2.84 117.914 50.011
2.85 --undefined-- 48.143
2.86 --undefined-- 46.278
2.87 --undefined-- 45.027
2.88 --undefined-- 47.103
2.89 --undefined-- 56.571
2.90 202.132 63.399
2.91 196.883 66.546
2.92 187.668 67.361
2.93 183.707 67.422
2.94 181.573 67.538
2.95 180.310 67.654
2.96 179.545 67.489
2.97 178.674 67.175
2.98 177.698 66.974
2.99 176.540 66.264
3.00 174.038 64.201
3.01 172.853 60.484
3.02 87.703 55.672
3.03 87.955 52.206
3.04 --undefined-- 50.979
3.05 --undefined-- 50.177
3.06 --undefined-- 49.817
3.07 --undefined-- 49.943
3.08 --undefined-- 49.852
3.09 --undefined-- 49.443
3.10 --undefined-- 50.630
3.11 --undefined-- 56.488
3.12 171.238 61.327
3.13 167.523 63.844
3.14 166.320 64.942
3.15 166.431 65.453
3.16 167.047 65.849
3.17 168.991 66.352
3.18 173.327 67.058
3.19 179.272 67.914
3.20 185.993 68.792
3.21 192.985 69.584
3.22 199.613 70.306
3.23 206.038 71.129
3.24 212.794 72.073
3.25 219.528 73.002
3.26 226.054 73.816
3.27 230.793 74.144
3.28 233.657 73.591
3.29 235.918 72.280
3.30 234.129 70.689
3.31 228.775 69.002
3.32 219.619 67.241
3.33 210.450 65.559
3.34 199.911 64.449
3.35 183.757 64.228
3.36 167.631 65.304
3.37 155.694 66.668
3.38 143.454 67.386
3.39 135.156 67.577
3.40 130.698 67.694
3.41 128.103 67.741
3.42 128.621 67.606
3.43 129.531 67.659
3.44 129.593 67.743
3.45 135.317 67.469
3.46 139.674 67.081
3.47 141.790 66.911
3.48 140.524 66.733
3.49 141.380 66.447
3.50 139.921 65.809
3.51 139.760 64.156
3.52 137.953 61.207
3.53 130.186 57.538
3.54 105.979 54.033
3.55 102.430 51.002
3.56 --undefined-- 49.921
3.57 --undefined-- 53.831
3.58 --undefined-- 60.510
3.59 176.260 65.228
3.60 167.904 67.389
3.61 163.072 68.020
3.62 160.062 68.507
3.63 157.712 69.085
3.64 155.429 69.177
3.65 153.940 68.778
3.66 152.761 68.340
3.67 152.575 67.999
3.68 153.179 67.686
3.69 153.874 67.509
3.70 154.714 67.207
3.71 155.012 66.649
3.72 154.076 65.731
3.73 152.535 63.934
3.74 153.642 61.227
3.75 --undefined-- 57.562
3.76 96.531 53.756
3.77 94.475 52.210
3.78 95.555 53.888
3.79 94.237 59.955
3.80 187.284 64.965
3.81 177.869 67.366
3.82 169.680 67.947
3.83 165.377 68.028
3.84 162.732 68.114
3.85 160.900 67.901
3.86 160.006 67.698
3.87 159.094 67.549
3.88 157.577 67.357
3.89 156.238 67.091
3.90 154.224 66.423
3.91 151.817 65.582
3.92 150.717 65.055
3.93 150.576 64.982
3.94 151.073 65.306
3.95 153.070 65.886
3.96 155.250 66.597
3.97 158.360 67.315
3.98 161.450 67.946
3.99 162.108 68.560
4.00 163.963 69.315
4.01 164.645 70.138
4.02 163.051 71.063
4.03 160.827 71.967
4.04 159.017 72.173
4.05 157.633 71.535
4.06 156.099 70.239
4.07 153.827 68.305
4.08 148.971 65.846
4.09 143.542 62.977
4.10 135.080 59.529
4.11 124.610 55.265
4.12 --undefined-- 50.329
4.13 --undefined-- 46.172
4.14 --undefined-- 47.054
4.15 --undefined-- 52.761
4.16 --undefined-- 57.263
4.17 --undefined-- 59.163
4.18 --undefined-- 58.596
4.19 --undefined-- 55.646
4.20 --undefined-- 52.306
4.21 --undefined-- 51.358
4.22 102.966 50.810
4.23 102.150 50.357
4.24 98.975 49.934
4.25 97.868 49.529
4.26 97.329 49.199
4.27 97.137 48.968
4.28 --undefined-- 48.746
4.29 --undefined-- 48.714
4.30 --undefined-- 49.294
4.31 --undefined-- 49.958
4.32 --undefined-- 49.977
4.33 --undefined-- 48.945
4.34 --undefined-- 46.710
4.35 --undefined-- 43.388
4.36 --undefined-- 41.030
4.37 --undefined-- 46.772
4.38 --undefined-- 52.455
4.39 114.485 54.751
4.40 110.488 54.831
4.41 110.782 54.634
4.42 115.517 54.664
4.43 120.982 54.774
4.44 125.695 54.727
4.45 129.844 54.629
4.46 132.441 54.676
4.47 133.331 54.446
4.48 132.666 53.882
4.49 130.832 53.695
4.50 127.494 54.016
4.51 124.254 53.907
4.52 120.622 52.777
4.53 119.193 50.491
4.54 --undefined-- 46.985
4.55 --undefined-- 44.393
4.56 --undefined-- 46.678
4.57 105.439 49.250
4.58 104.052 50.447
4.59 100.008 50.605
4.60 96.849 49.926
4.61 --undefined-- 48.960
4.62 --undefined-- 48.496
4.63 --undefined-- 48.087
4.64 --undefined-- 46.448
4.65 --undefined-- 44.244
4.66 --undefined-- 49.692
4.67 --undefined-- 57.341
4.68 179.455 62.166
4.69 170.551 64.873
4.70 171.837 66.794
4.71 173.919 68.369
4.72 175.314 69.633
4.73 176.346 70.700
4.74 177.665 71.614
4.75 178.187 72.329
4.76 177.951 72.878
4.77 178.237 73.289
4.78 177.951 73.548
4.79 178.143 73.626
4.80 178.746 73.488
4.81 179.549 73.097
4.82 179.481 72.498
4.83 179.587 71.682
4.84 179.291 70.617
4.85 178.824 69.331
4.86 177.974 67.954
4.87 175.387 66.483
4.88 172.792 65.196
4.89 173.405 64.547
4.90 176.020 64.804
4.91 183.062 65.837
4.92 189.779 67.279
4.93 197.345 68.919
4.94 201.890 70.462
4.95 205.403 --undefined--
4.96 206.572 --undefined--
4.97 --undefined-- --undefined--
4.98 --undefined-- --undefined--
