Time Pitch Intensity
0.01 --undefined-- --undefined--
0.02 184.855 --undefined--
0.03 190.661 --undefined--
0.04 192.718 --undefined--
0.05 195.088 70.338
0.06 196.221 70.423
0.07 196.299 70.771
0.08 199.896 70.873
0.09 205.096 69.943
0.10 211.831 68.414
0.11 218.292 67.479
0.12 222.963 66.953
0.13 227.500 66.505
0.14 229.224 66.191
0.15 233.500 65.731
0.16 235.335 65.273
0.17 235.908 65.233
0.18 236.932 65.547
0.19 235.942 65.842
0.20 233.628 65.879
0.21 233.988 65.284
0.22 226.079 63.886
0.23 217.882 63.679
0.24 205.564 66.216
0.25 195.149 69.022
0.26 181.276 70.865
0.27 164.020 71.711
0.28 160.394 71.594
0.29 154.715 71.043
0.30 152.439 70.091
0.31 146.532 68.402
0.32 145.997 66.369
0.33 --undefined-- 63.392
0.34 --undefined-- 59.229
0.35 156.465 56.654
0.36 156.158 57.466
0.37 152.903 58.317
0.38 151.704 58.006
0.39 153.317 56.705
0.40 152.197 55.869
0.41 150.659 56.252
0.42 150.630 57.011
0.43 151.632 58.310
0.44 151.866 59.577
0.45 150.478 59.578
0.46 146.743 58.256
0.47 141.725 55.930
0.48 142.134 52.801
0.49 --undefined-- 50.936
0.50 --undefined-- 52.648
0.51 159.961 56.645
0.52 159.883 60.953
0.53 163.415 64.579
0.54 164.535 66.768
0.55 166.352 67.822
0.56 169.078 68.082
0.57 174.932 67.558
0.58 177.791 67.018
0.59 178.523 67.376
0.60 179.778 67.584
0.61 184.229 66.597
0.62 195.575 64.973
0.63 199.117 64.151
0.64 200.632 64.034
0.65 203.537 63.864
0.66 204.210 63.749
0.67 201.304 63.888
0.68 197.525 64.322
0.69 193.880 65.132
0.70 193.689 67.540
0.71 192.753 70.651
0.72 191.357 72.236
0.73 185.862 72.086
0.74 179.841 71.398
0.75 167.090 70.980
0.76 163.612 70.877
0.77 160.603 70.532
0.78 --undefined-- 68.886
0.79 --undefined-- 65.601
0.80 --undefined-- 61.094
0.81 --undefined-- 55.837
0.82 --undefined-- 50.743
0.83 --undefined-- 45.939
0.84 --undefined-- 38.897
0.85 --undefined-- 31.475
0.86 --undefined-- 28.824
0.87 --undefined-- 27.343
0.88 --undefined-- 26.105
0.89 --undefined-- 25.518
0.90 --undefined-- 25.223
0.91 --undefined-- 24.756
0.92 --undefined-- 24.320
0.93 --undefined-- 24.246
0.94 --undefined-- 24.284
0.95 --undefined-- 24.248
0.96 --undefined-- 24.575
0.97 --undefined-- 25.078
0.98 --undefined-- 33.551
0.99 --undefined-- 46.143
1.00 --undefined-- 56.233
1.01 --undefined-- 63.138
1.02 --undefined-- 67.066
1.03 --undefined-- 68.338
1.04 --undefined-- 67.843
1.05 148.794 67.027
1.06 147.910 66.653
1.07 147.848 66.812
1.08 146.413 67.850
1.09 145.696 69.213
1.10 146.588 69.870
1.11 146.427 69.833
1.12 146.327 69.544
1.13 147.996 68.986
1.14 147.809 68.570
1.15 146.608 68.153
1.16 146.642 66.964
1.17 155.985 65.694
1.18 157.286 64.959
1.19 162.257 63.974
1.20 164.807 62.448
1.21 161.424 60.458
1.22 156.951 58.054
1.23 155.999 54.539
1.24 --undefined-- 48.806
1.25 --undefined-- 43.252
1.26 --undefined-- 49.563
1.27 --undefined-- 56.871
1.28 --undefined-- 61.163
1.29 --undefined-- 61.539
1.30 --undefined-- 58.029
1.31 --undefined-- 52.639
1.32 --undefined-- 50.343
1.33 --undefined-- 50.320
1.34 --undefined-- 51.830
1.35 215.802 55.507
1.36 197.374 60.134
1.37 182.701 64.021
1.38 174.829 67.052
1.39 164.802 69.162
1.40 162.028 70.000
1.41 161.162 69.666
1.42 161.853 69.116
1.43 162.040 68.841
1.44 163.117 67.808
1.45 166.304 65.716
1.46 166.965 64.261
1.47 168.349 64.147
1.48 168.653 64.064
1.49 166.820 63.295
1.50 166.451 61.667
1.51 166.498 59.084
1.52 166.496 55.726
1.53 165.477 51.530
1.54 --undefined-- 46.059
1.55 --undefined-- 41.911
1.56 --undefined-- 48.764
1.57 --undefined-- 55.811
1.58 --undefined-- 59.072
1.59 --undefined-- 59.872
1.60 172.227 60.592
1.61 152.846 62.387
1.62 150.776 64.329
1.63 150.788 65.646
1.64 150.008 65.951
1.65 148.380 65.305
1.66 148.069 64.227
1.67 149.925 62.991
1.68 151.247 61.739
1.69 152.302 60.689
1.70 154.689 59.599
1.71 156.992 58.695
1.72 156.916 58.525
1.73 157.892 59.043
1.74 158.909 59.691
1.75 160.173 59.820
1.76 162.689 58.468
1.77 159.062 55.078
1.78 --undefined-- 50.918
1.79 --undefined-- 49.043
1.80 --undefined-- 49.952
1.81 --undefined-- 52.110
1.82 --undefined-- 53.834
1.83 --undefined-- 55.241
1.84 --undefined-- 56.179
1.85 --undefined-- 56.070
1.86 --undefined-- 55.279
1.87 --undefined-- 54.590
1.88 --undefined-- 58.135
1.89 --undefined-- 63.731
1.90 --undefined-- 66.688
1.91 --undefined-- 67.203
1.92 --undefined-- 66.422
1.93 --undefined-- 65.984
1.94 --undefined-- 66.541
1.95 208.606 67.631
1.96 208.153 67.649
1.97 --undefined-- 65.492
1.98 167.616 63.714
1.99 167.286 64.506
2.00 167.449 65.093
2.01 178.764 65.283
2.02 179.709 65.573
2.03 183.449 65.228
2.04 192.628 63.836
2.05 199.974 62.428
2.06 199.111 61.605
2.07 196.122 60.135
2.08 --undefined-- 58.138
2.09 --undefined-- 56.256
2.10 --undefined-- 52.768
2.11 --undefined-- 45.617
2.12 --undefined-- 35.037
2.13 --undefined-- 28.807
2.14 --undefined-- 27.347
2.15 --undefined-- 26.965
2.16 --undefined-- 27.706
2.17 --undefined-- 37.203
2.18 --undefined-- 45.772
2.19 --undefined-- 50.846
2.20 --undefined-- 56.406
2.21 --undefined-- 62.294
2.22 --undefined-- 65.816
2.23 --undefined-- 67.102
2.24 --undefined-- 66.829
2.25 --undefined-- 65.475
2.26 --undefined-- 64.363
2.27 --undefined-- 64.966
2.28 --undefined-- 65.587
2.29 --undefined-- 64.923
2.30 133.324 63.034
2.31 132.945 60.527
2.32 --undefined-- 57.418
2.33 --undefined-- 52.556
2.34 --undefined-- 45.107
2.35 --undefined-- 35.854
2.36 --undefined-- 33.822
2.37 --undefined-- 42.514
2.38 --undefined-- 47.513
2.39 --undefined-- 48.002
2.40 --undefined-- 44.083
2.41 --undefined-- 36.296
2.42 --undefined-- 38.401
2.43 --undefined-- 46.339
2.44 --undefined-- 52.038
2.45 --undefined-- 55.432
2.46 --undefined-- 56.913
2.47 --undefined-- 57.160
2.48 111.905 58.099
2.49 159.651 60.515
2.50 160.904 62.498
2.51 161.972 63.098
2.52 160.507 61.570
2.53 159.033 57.217
2.54 --undefined-- 50.192
2.55 --undefined-- 42.859
2.56 --undefined-- 40.143
2.57 --undefined-- 49.503
2.58 292.614 58.748
2.59 280.873 65.101
2.60 264.507 68.285
2.61 247.067 69.141
2.62 241.166 69.092
2.63 241.063 69.007
2.64 241.481 68.861
2.65 242.380 68.897
2.66 247.386 69.183
2.67 255.226 69.319
2.68 261.482 69.174
2.69 265.251 68.660
2.70 267.674 67.939
2.71 272.447 67.754
2.72 273.696 68.264
2.73 273.476 68.877
2.74 287.536 69.970
2.75 297.966 71.531
2.76 298.071 72.331
2.77 298.358 72.333
2.78 299.974 71.874
2.79 152.825 70.959
2.80 153.183 69.455
2.81 153.442 67.204
2.82 154.308 64.469
2.83 155.968 61.888
2.84 --undefined-- 60.082
2.85 --undefined-- 58.005
2.86 --undefined-- 54.148
2.87 --undefined-- 47.806
2.88 --undefined-- 39.781
2.89 --undefined-- 32.989
2.90 --undefined-- 29.896
2.91 --undefined-- 29.125
2.92 --undefined-- 28.993
2.93 --undefined-- 30.693
2.94 --undefined-- 34.108
2.95 --undefined-- 38.107
2.96 --undefined-- 42.200
2.97 --undefined-- 45.374
2.98 --undefined-- 47.028
2.99 --undefined-- 47.013
3.00 --undefined-- 44.766
3.01 --undefined-- 39.586
3.02 --undefined-- 31.553
3.03 --undefined-- 26.328
3.04 --undefined-- 26.099
3.05 --undefined-- 26.041
3.06 --undefined-- 26.096
3.07 --undefined-- 26.465
3.08 --undefined-- 27.307
3.09 --undefined-- 34.250
3.10 --undefined-- 43.818
3.11 --undefined-- 50.217
3.12 --undefined-- 53.242
3.13 --undefined-- 54.173
3.14 269.790 55.733
3.15 269.699 56.517
3.16 --undefined-- 54.431
3.17 --undefined-- 51.231
3.18 --undefined-- 51.495
3.19 --undefined-- 52.258
3.20 --undefined-- 51.864
3.21 --undefined-- 50.846
3.22 --undefined-- 50.261
3.23 --undefined-- 50.831
3.24 --undefined-- 51.196
3.25 --undefined-- 50.120
3.26 --undefined-- 47.215
3.27 --undefined-- 42.595
3.28 --undefined-- 37.062
3.29 --undefined-- 32.137
3.30 --undefined-- 29.296
3.31 --undefined-- 27.448
3.32 --undefined-- 26.413
3.33 --undefined-- 27.349
3.34 --undefined-- 28.354
3.35 --undefined-- 32.369
3.36 --undefined-- 46.391
3.37 --undefined-- 55.529
3.38 --undefined-- 60.382
3.39 --undefined-- 64.083
3.40 98.576 67.952
3.41 98.343 70.392
3.42 97.825 71.183
3.43 --undefined-- 70.590
3.44 230.157 69.018
3.45 228.862 67.521
3.46 241.096 67.708
3.47 264.669 68.811
3.48 286.077 69.625
3.49 152.830 70.257
3.50 158.863 70.455
3.51 161.277 70.382
3.52 160.060 70.521
3.53 158.211 70.466
3.54 152.308 69.971
3.55 288.236 69.449
3.56 272.974 68.438
3.57 242.474 66.051
3.58 191.569 63.269
3.59 176.899 63.258
3.60 170.356 64.267
3.61 161.148 63.935
3.62 149.725 62.747
3.63 149.767 62.112
3.64 157.231 62.375
3.65 159.206 63.547
3.66 160.573 65.072
3.67 161.753 66.040
3.68 160.918 65.989
3.69 160.093 65.152
3.70 162.316 63.644
3.71 165.524 60.922
3.72 166.075 57.358
3.73 185.706 56.993
3.74 186.845 60.258
3.75 184.266 62.905
3.76 185.886 64.770
3.77 --undefined-- 66.394
3.78 --undefined-- 67.055
3.79 --undefined-- 66.300
3.80 194.895 65.930
3.81 201.075 67.695
3.82 173.395 69.189
3.83 152.722 69.413
3.84 153.679 68.948
3.85 155.130 68.658
3.86 156.783 69.033
3.87 158.825 69.319
3.88 160.823 68.546
3.89 167.413 67.234
3.90 170.814 66.608
3.91 173.699 66.131
3.92 178.130 65.187
3.93 184.604 64.038
3.94 193.419 63.292
3.95 199.165 63.757
3.96 204.027 66.632
3.97 206.304 70.235
3.98 207.970 72.322
3.99 210.155 73.011
4.00 210.522 72.764
4.01 210.229 71.953
4.02 211.905 71.258
4.03 215.607 71.005
4.04 218.685 70.994
4.05 221.439 70.929
4.06 223.040 70.324
4.07 226.782 68.920
4.08 229.513 66.983
4.09 232.816 64.993
4.10 236.641 63.419
4.11 241.026 61.517
4.12 248.817 58.405
4.13 256.055 54.111
4.14 --undefined-- 48.567
4.15 --undefined-- 42.880
4.16 --undefined-- 40.230
4.17 --undefined-- 41.348
4.18 --undefined-- 44.439
4.19 --undefined-- 47.060
4.20 --undefined-- 50.841
4.21 --undefined-- 57.503
4.22 --undefined-- 63.026
4.23 --undefined-- 66.530
4.24 --undefined-- 68.560
4.25 --undefined-- 69.378
4.26 --undefined-- 69.117
4.27 --undefined-- 68.501
4.28 147.514 67.880
4.29 147.289 67.186
4.30 146.963 66.582
4.31 147.803 66.167
4.32 150.683 66.162
4.33 151.411 66.748
4.34 151.664 67.263
4.35 153.795 67.311
4.36 156.015 66.938
4.37 155.852 66.352
4.38 155.202 66.152
4.39 154.936 66.426
4.40 157.146 66.350
4.41 156.677 65.534
4.42 152.992 64.646
4.43 151.071 64.343
4.44 151.214 64.264
4.45 150.740 64.064
4.46 150.565 63.703
4.47 151.165 63.059
4.48 152.625 62.119
4.49 147.238 60.819
4.50 --undefined-- 59.666
4.51 --undefined-- 58.213
4.52 --undefined-- 56.511
4.53 --undefined-- 54.131
4.54 --undefined-- 48.767
4.55 --undefined-- 40.579
4.56 --undefined-- 33.781
4.57 --undefined-- 44.615
4.58 --undefined-- 55.148
4.59 --undefined-- 61.295
4.60 --undefined-- 64.655
4.61 --undefined-- 66.471
4.62 --undefined-- 67.965
4.63 161.718 69.337
4.64 159.280 69.789
4.65 158.678 68.735
4.66 158.077 66.029
4.67 155.637 61.421
4.68 --undefined-- 54.319
4.69 --undefined-- 45.841
4.70 --undefined-- 41.871
4.71 --undefined-- 44.914
4.72 --undefined-- 51.862
4.73 --undefined-- 60.075
4.74 200.524 66.623
4.75 200.308 70.582
4.76 204.110 72.250
4.77 207.399 72.495
4.78 206.763 72.077
4.79 208.393 71.335
4.80 211.369 70.795
4.81 215.058 70.551
4.82 216.756 70.362
4.83 216.703 70.374
4.84 213.703 70.440
4.85 211.423 70.087
4.86 209.095 69.183
4.87 202.207 68.044
4.88 196.309 66.803
4.89 190.300 65.626
4.90 184.422 65.712
4.91 176.289 66.745
4.92 172.419 67.511
4.93 170.763 67.941
4.94 170.343 68.150
4.95 168.130 68.088
4.96 164.783 67.863
4.97 160.129 67.801
4.98 157.485 68.002
4.99 154.065 68.126
5.00 152.645 67.475
5.01 149.679 65.722
5.02 147.320 63.606
5.03 147.301 62.006
5.04 149.959 61.332
5.05 150.633 61.819
5.06 152.097 63.985
5.07 153.863 67.055
5.08 156.440 69.995
5.09 158.893 72.088
5.10 157.424 73.016
5.11 154.093 72.753
5.12 152.659 71.336
5.13 148.179 69.254
5.14 144.677 67.892
5.15 144.886 67.654
5.16 149.689 67.945
5.17 161.121 68.389
5.18 164.116 68.687
5.19 166.063 68.938
5.20 168.439 69.052
5.21 172.546 68.633
5.22 174.454 67.937
5.23 174.169 67.716
5.24 175.959 67.854
5.25 180.939 68.038
5.26 184.568 68.316
5.27 188.930 68.777
5.28 190.970 69.498
5.29 193.140 70.125
5.30 196.972 70.303
5.31 200.311 70.222
5.32 201.616 70.246
5.33 204.407 70.449
5.34 207.251 70.853
5.35 209.227 71.289
5.36 208.409 71.442
5.37 205.367 70.924
5.38 200.494 69.264
5.39 191.301 66.135
5.40 181.365 61.908
5.41 --undefined-- 58.111
5.42 --undefined-- 56.213
5.43 --undefined-- 55.128
5.44 --undefined-- 56.084
5.45 --undefined-- 58.597
5.46 --undefined-- 60.036
5.47 --undefined-- 63.296
5.48 153.663 68.705
5.49 157.087 72.124
5.50 160.376 72.862
5.51 166.912 71.603
5.52 169.151 69.531
5.53 168.349 67.131
5.54 165.785 64.064
5.55 156.786 60.420
5.56 153.570 56.591
5.57 153.891 52.539
5.58 --undefined-- 48.083
5.59 --undefined-- 44.326
5.60 --undefined-- 40.999
5.61 --undefined-- 37.635
5.62 --undefined-- 35.395
5.63 --undefined-- 34.545
5.64 --undefined-- 37.904
5.65 --undefined-- 41.007
5.66 --undefined-- 43.775
5.67 --undefined-- 48.367
5.68 --undefined-- 52.619
5.69 --undefined-- 56.026
5.70 --undefined-- --undefined--
5.71 --undefined-- --undefined--
5.72 --undefined-- --undefined--
5.73 --undefined-- --undefined--
