Time Pitch Intensity
0.01 --undefined-- --undefined--
0.02 --undefined-- --undefined--
0.03 --undefined-- --undefined--
0.04 --undefined-- --undefined--
0.05 259.775 67.369
0.06 258.876 70.628
0.07 255.530 71.825
0.08 245.560 70.929
0.09 229.855 68.454
0.10 --undefined-- 64.733
0.11 --undefined-- 59.844
0.12 --undefined-- 54.918
0.13 --undefined-- 54.269
0.14 --undefined-- 57.807
0.15 --undefined-- 61.517
0.16 --undefined-- 63.962
0.17 172.270 65.452
0.18 174.455 66.740
0.19 176.922 67.759
0.20 177.502 68.359
0.21 178.094 68.121
0.22 180.174 67.025
0.23 181.840 65.646
0.24 182.858 64.373
0.25 181.743 63.318
0.26 182.322 62.902
0.27 185.601 63.102
0.28 187.555 63.271
0.29 188.979 62.997
0.30 191.306 62.663
0.31 208.685 63.868
0.32 211.592 65.998
0.33 213.110 67.291
0.34 213.843 67.877
0.35 217.079 67.861
0.36 222.956 66.994
0.37 221.789 64.961
0.38 208.794 61.195
0.39 190.063 56.222
0.40 193.671 52.798
0.41 205.584 51.203
0.42 210.055 53.535
0.43 254.122 59.096
0.44 233.763 62.655
0.45 228.944 64.142
0.46 225.271 64.345
0.47 223.518 63.982
0.48 221.699 63.663
0.49 219.250 63.475
0.50 214.101 63.376
0.51 209.707 63.578
0.52 204.393 64.459
0.53 196.898 65.733
0.54 191.208 66.486
0.55 186.989 66.255
0.56 174.981 65.846
0.57 173.758 65.931
0.58 166.917 65.695
0.59 164.614 65.438
0.60 164.431 65.727
0.61 164.212 65.787
0.62 164.795 65.577
0.63 166.719 65.708
0.64 170.177 66.382
0.65 173.714 67.521
0.66 176.484 69.106
0.67 176.594 70.465
0.68 177.250 70.971
0.69 177.654 70.690
0.70 174.844 69.548
0.71 168.653 67.105
0.72 --undefined-- 63.483
0.73 --undefined-- 59.295
0.74 --undefined-- 54.893
0.75 --undefined-- 50.605
0.76 --undefined-- 47.585
0.77 --undefined-- 47.470
0.78 --undefined-- 49.352
0.79 --undefined-- 50.642
0.80 --undefined-- 50.722
0.81 --undefined-- 49.818
0.82 --undefined-- 47.606
0.83 --undefined-- 46.146
0.84 --undefined-- 46.520
0.85 --undefined-- 46.650
0.86 --undefined-- 45.844
0.87 --undefined-- 45.640
0.88 --undefined-- 47.641
0.89 --undefined-- 50.608
0.90 --undefined-- 51.887
0.91 --undefined-- 52.041
0.92 --undefined-- 53.143
0.93 --undefined-- 54.043
0.94 --undefined-- 53.365
0.95 --undefined-- 51.211
0.96 --undefined-- 48.751
0.97 --undefined-- 46.631
0.98 --undefined-- 47.015
0.99 --undefined-- 48.225
1.00 --undefined-- 49.239
1.01 --undefined-- 50.529
1.02 --undefined-- 51.156
1.03 --undefined-- 51.410
1.04 --undefined-- 56.850
1.05 269.202 62.173
1.06 258.033 64.928
1.07 254.530 66.360
1.08 256.921 67.482
1.09 259.751 68.241
1.10 261.020 68.268
1.11 257.014 67.151
1.12 247.138 64.687
1.13 245.332 60.850
1.14 250.619 55.426
1.15 --undefined-- 49.176
1.16 --undefined-- 49.217
1.17 --undefined-- 53.715
1.18 --undefined-- 57.441
1.19 --undefined-- 59.806
1.20 261.689 63.255
1.21 236.590 66.607
1.22 220.982 68.097
1.23 207.872 68.217
1.24 202.260 68.051
1.25 197.976 68.024
1.26 193.974 68.086
1.27 190.722 68.023
1.28 186.834 67.713
1.29 184.621 67.479
1.30 184.790 67.436
1.31 185.419 67.406
1.32 185.944 67.278
1.33 187.038 67.039
1.34 188.053 66.816
1.35 189.314 66.579
1.36 189.971 65.832
1.37 189.604 64.228
1.38 185.995 62.163
1.39 180.359 60.541
1.40 177.426 59.671
1.41 183.182 59.072
1.42 189.981 58.608
1.43 193.825 59.164
1.44 189.077 61.566
1.45 181.764 64.633
1.46 179.254 66.872
1.47 178.989 68.114
1.48 178.587 68.754
1.49 178.877 68.876
1.50 179.821 68.508
1.51 182.034 68.141
1.52 186.357 68.328
1.53 192.012 68.966
1.54 198.232 69.189
1.55 205.792 68.383
1.56 216.292 67.180
1.57 229.245 66.676
1.58 231.691 66.236
1.59 223.893 65.044
1.60 210.517 63.008
1.61 200.517 59.885
1.62 197.998 56.780
1.63 205.857 56.898
1.64 212.631 59.952
1.65 226.999 64.287
1.66 228.545 68.260
1.67 226.980 71.598
1.68 227.183 73.643
1.69 213.236 73.816
1.70 208.746 72.595
1.71 206.736 71.069
1.72 205.825 69.461
1.73 205.229 67.691
1.74 204.223 65.767
1.75 198.755 63.677
1.76 194.968 62.802
1.77 203.130 63.112
1.78 200.966 63.074
1.79 197.380 62.599
1.80 196.131 62.206
1.81 196.326 62.081
1.82 196.588 62.028
1.83 196.631 61.955
1.84 196.794 61.827
1.85 197.495 61.675
1.86 198.569 61.566
1.87 200.695 61.497
1.88 202.549 61.345
1.89 204.446 61.114
1.90 205.729 60.820
1.91 205.842 59.930
1.92 202.079 57.665
1.93 --undefined-- 54.051
1.94 --undefined-- 51.181
1.95 --undefined-- 52.962
1.96 --undefined-- 57.799
1.97 267.100 63.016
1.98 249.773 67.004
1.99 246.642 69.562
2.00 247.227 70.560
2.01 248.116 69.823
2.02 249.720 67.241
2.03 250.315 62.312
2.04 248.136 55.036
2.05 249.140 49.907
2.06 --undefined-- 48.269
2.07 --undefined-- 47.769
2.08 --undefined-- 46.871
2.09 --undefined-- 44.151
2.10 --undefined-- 41.895
2.11 --undefined-- 44.699
2.12 --undefined-- 50.758
2.13 --undefined-- 57.915
2.14 --undefined-- 62.774
2.15 192.660 65.143
2.16 186.960 66.069
2.17 179.197 66.142
2.18 177.106 65.631
2.19 174.816 64.347
2.20 168.084 61.573
2.21 --undefined-- 57.847
2.22 --undefined-- 55.386
2.23 --undefined-- 55.043
2.24 --undefined-- 56.550
2.25 --undefined-- 58.025
2.26 --undefined-- 58.213
2.27 --undefined-- 56.932
2.28 --undefined-- 55.883
2.29 --undefined-- 57.204
2.30 --undefined-- 59.410
2.31 158.128 60.609
2.32 145.662 60.980
2.33 139.761 60.585
2.34 140.489 59.635
2.35 142.615 59.230
2.36 142.151 59.279
2.37 134.554 58.660
2.38 138.096 57.346
2.39 147.047 57.373
2.40 155.320 58.576
2.41 157.588 59.351
2.42 161.955 59.938
2.43 170.491 60.837
2.44 181.622 61.838
2.45 188.113 62.718
2.46 196.082 63.152
2.47 206.843 62.940
2.48 215.139 62.379
2.49 215.782 60.996
2.50 211.481 58.232
2.51 --undefined-- 57.589
2.52 --undefined-- 63.340
2.53 --undefined-- 67.945
2.54 --undefined-- 70.557
2.55 --undefined-- 72.147
2.56 --undefined-- 72.959
2.57 171.667 73.335
2.58 165.805 73.652
2.59 163.459 73.451
2.60 161.936 72.007
2.61 160.873 69.904
2.62 161.623 68.717
2.63 162.323 67.990
2.64 163.605 66.968
2.65 165.334 66.169
2.66 166.797 65.761
2.67 168.203 65.107
2.68 168.284 64.131
2.69 166.073 63.268
2.70 164.651 62.317
2.71 165.661 60.999
2.72 164.809 59.461
2.73 --undefined-- 57.494
2.74 --undefined-- 54.681
2.75 --undefined-- 51.906
2.76 --undefined-- 50.701
2.77 --undefined-- 50.231
2.78 --undefined-- 48.516
2.79 --undefined-- 47.423
2.80 --undefined-- 47.991
2.81 --undefined-- 49.387
2.82 --undefined-- 50.725
2.83 --undefined-- 50.733
2.84 --undefined-- 49.979
2.85 --undefined-- 49.154
2.86 --undefined-- 49.119
2.87 --undefined-- 49.165
2.88 --undefined-- 48.402
2.89 --undefined-- 48.822
2.90 --undefined-- 49.720
2.91 --undefined-- 49.751
2.92 --undefined-- 49.361
2.93 --undefined-- 48.248
2.94 --undefined-- 47.529
2.95 --undefined-- 48.299
2.96 --undefined-- 48.981
2.97 --undefined-- 48.126
2.98 --undefined-- 45.498
2.99 --undefined-- 43.175
3.00 --undefined-- 42.996
3.01 --undefined-- 43.720
3.02 --undefined-- 45.633
3.03 --undefined-- 46.341
3.04 --undefined-- 45.907
3.05 --undefined-- 54.218
3.06 --undefined-- 62.735
3.07 280.335 67.755
3.08 280.026 70.211
3.09 285.126 71.385
3.10 293.686 72.118
3.11 150.197 72.465
3.12 152.026 72.568
3.13 154.181 72.647
3.14 155.377 72.514
3.15 155.188 71.946
3.16 153.365 70.533
3.17 296.328 67.335
3.18 282.034 61.409
3.19 --undefined-- 53.092
3.20 --undefined-- 49.656
3.21 --undefined-- 55.085
3.22 --undefined-- 63.446
3.23 170.792 68.405
3.24 170.106 70.312
3.25 170.523 70.303
3.26 170.198 69.657
3.27 169.144 69.075
3.28 167.475 68.738
3.29 165.639 68.256
3.30 157.648 66.428
3.31 153.539 62.376
3.32 168.424 57.093
3.33 168.230 54.530
3.34 --undefined-- 54.079
3.35 --undefined-- 52.825
3.36 --undefined-- 50.167
3.37 --undefined-- 46.077
3.38 --undefined-- 42.361
3.39 --undefined-- 50.838
3.40 --undefined-- 61.684
3.41 247.077 68.280
3.42 237.142 71.258
3.43 225.926 71.603
3.44 215.547 70.746
3.45 211.579 69.898
3.46 211.011 69.553
3.47 211.182 69.742
3.48 211.993 70.205
3.49 212.922 70.769
3.50 213.534 71.344
3.51 213.734 72.011
3.52 214.298 72.727
3.53 214.427 73.224
3.54 214.736 73.308
3.55 215.924 73.012
3.56 218.579 72.519
3.57 221.493 71.895
3.58 224.628 70.841
3.59 229.059 69.078
3.60 229.977 66.488
3.61 225.998 62.705
3.62 218.801 57.677
3.63 216.947 52.600
3.64 --undefined-- 49.021
3.65 --undefined-- 47.670
3.66 --undefined-- 49.805
3.67 --undefined-- 56.469
3.68 246.415 62.340
3.69 234.304 65.706
3.70 227.851 67.074
3.71 220.832 67.333
3.72 217.748 67.348
3.73 214.330 67.161
3.74 211.664 67.000
3.75 211.218 67.131
3.76 211.209 67.161
3.77 210.934 66.770
3.78 209.795 65.752
3.79 206.873 64.117
3.80 200.107 62.358
3.81 198.222 61.906
3.82 208.172 62.736
3.83 210.333 63.305
3.84 212.200 63.612
3.85 215.592 63.986
3.86 218.798 64.245
3.87 221.776 63.744
3.88 223.648 61.567
3.89 227.670 57.338
3.90 --undefined-- 52.606
3.91 --undefined-- 51.589
3.92 --undefined-- 53.319
3.93 --undefined-- 54.291
3.94 --undefined-- 54.364
3.95 --undefined-- 54.165
3.96 --undefined-- 55.318
3.97 138.648 59.880
3.98 145.974 64.506
3.99 153.218 67.261
4.00 160.854 68.206
4.01 164.516 67.909
4.02 165.156 67.183
4.03 163.069 66.094
4.04 158.006 63.868
4.05 --undefined-- 60.364
4.06 --undefined-- 57.547
4.07 --undefined-- 56.835
4.08 --undefined-- 59.625
4.09 172.212 64.293
4.10 171.326 67.472
4.11 171.554 69.101
4.12 170.712 69.246
4.13 169.381 67.654
4.14 165.716 64.484
4.15 163.780 60.988
4.16 170.872 57.623
4.17 170.556 54.186
4.18 --undefined-- 52.373
4.19 --undefined-- 53.106
4.20 --undefined-- 53.384
4.21 --undefined-- 51.239
4.22 --undefined-- 49.232
4.23 --undefined-- 50.145
4.24 --undefined-- 48.976
4.25 --undefined-- 45.819
4.26 --undefined-- 45.137
4.27 --undefined-- 50.766
4.28 --undefined-- 57.873
4.29 214.466 63.000
4.30 200.311 65.981
4.31 189.634 67.506
4.32 185.918 68.192
4.33 185.617 68.497
4.34 187.365 68.551
4.35 191.484 68.132
4.36 194.957 66.706
4.37 195.507 63.729
4.38 195.301 59.166
4.39 182.893 53.977
4.40 --undefined-- 50.102
4.41 --undefined-- 49.069
4.42 --undefined-- 52.075
4.43 --undefined-- 55.770
4.44 --undefined-- 58.008
4.45 --undefined-- 58.435
4.46 --undefined-- 57.079
4.47 --undefined-- 54.560
4.48 194.466 53.956
4.49 191.910 56.010
4.50 190.194 57.710
4.51 190.471 58.838
4.52 190.861 59.973
4.53 181.329 61.322
4.54 171.205 62.474
4.55 168.218 63.098
4.56 164.788 63.438
4.57 163.242 63.489
4.58 162.089 62.991
4.59 161.080 62.069
4.60 159.577 61.347
4.61 157.334 61.283
4.62 155.251 61.735
4.63 153.257 61.738
4.64 147.433 60.585
4.65 147.052 59.495
4.66 155.168 59.502
4.67 157.628 59.639
4.68 157.119 59.789
4.69 154.962 60.411
4.70 146.331 60.552
4.71 --undefined-- 59.110
4.72 --undefined-- 55.986
4.73 --undefined-- 52.533
4.74 --undefined-- 53.790
4.75 --undefined-- 56.189
4.76 --undefined-- 56.172
4.77 --undefined-- 54.707
4.78 --undefined-- 55.058
4.79 232.354 58.254
4.80 238.158 61.394
4.81 247.524 63.583
4.82 253.778 64.911
4.83 260.847 65.912
4.84 262.649 67.292
4.85 257.873 68.971
4.86 248.767 69.771
4.87 235.884 69.613
4.88 222.052 67.984
4.89 --undefined-- 63.998
4.90 --undefined-- 60.160
4.91 --undefined-- 58.782
4.92 --undefined-- 56.401
4.93 --undefined-- 52.159
4.94 --undefined-- 48.442
4.95 --undefined-- 49.103
4.96 --undefined-- 51.684
4.97 --undefined-- 53.657
4.98 183.356 55.013
4.99 185.956 56.728
5.00 178.793 58.390
5.01 178.059 59.889
5.02 180.027 61.493
5.03 181.285 63.391
5.04 172.475 64.586
5.05 172.449 64.459
5.06 173.552 63.768
5.07 173.956 63.372
5.08 173.815 63.165
5.09 173.617 62.983
5.10 172.863 62.335
5.11 171.271 --undefined--
5.12 157.622 --undefined--
5.13 --undefined-- --undefined--
5.14 --undefined-- --undefined--
