Time Pitch Intensity
0.01 --undefined-- --undefined--
0.02 --undefined-- --undefined--
0.03 --undefined-- --undefined--
0.04 --undefined-- --undefined--
0.05 172.567 75.185
0.06 164.841 75.222
0.07 164.666 74.268
0.08 172.498 72.764
0.09 173.759 70.884
0.10 176.912 69.466
0.11 180.951 69.661
0.12 187.016 70.294
0.13 190.636 70.028
0.14 200.224 68.421
0.15 201.974 65.568
0.16 201.429 61.533
0.17 195.727 56.988
0.18 195.272 53.053
0.19 --undefined-- 48.932
0.20 --undefined-- 43.709
0.21 --undefined-- 40.053
0.22 --undefined-- 38.813
0.23 --undefined-- 37.522
0.24 --undefined-- 36.275
0.25 --undefined-- 35.814
0.26 --undefined-- 38.139
0.27 --undefined-- 44.370
0.28 --undefined-- 48.821
0.29 --undefined-- 51.503
0.30 --undefined-- 54.780
0.31 --undefined-- 58.391
0.32 --undefined-- 60.072
0.33 --undefined-- 59.530
0.34 --undefined-- 59.196
0.35 --undefined-- 60.847
0.36 --undefined-- 62.809
0.37 151.387 63.953
0.38 151.127 64.545
0.39 153.391 65.020
0.40 154.715 65.745
0.41 155.808 67.081
0.42 156.976 68.589
0.43 160.009 69.715
0.44 170.193 70.469
0.45 174.566 71.130
0.46 179.171 71.945
0.47 182.758 72.923
0.48 186.153 73.692
0.49 191.493 74.232
0.50 195.866 75.142
0.51 198.741 76.253
0.52 199.343 76.691
0.53 196.602 76.232
0.54 192.075 75.333
0.55 188.031 74.365
0.56 184.744 73.270
0.57 180.413 71.967
0.58 177.963 69.814
0.59 174.827 66.283
0.60 173.691 61.421
0.61 --undefined-- 55.633
0.62 --undefined-- 50.080
0.63 --undefined-- 46.864
0.64 --undefined-- 45.521
0.65 --undefined-- 44.848
0.66 --undefined-- 45.206
0.67 --undefined-- 49.801
0.68 --undefined-- 59.799
0.69 --undefined-- 67.403
0.70 --undefined-- 71.845
0.71 --undefined-- 73.965
0.72 --undefined-- 74.546
0.73 --undefined-- 74.118
0.74 111.127 73.478
0.75 111.345 73.046
0.76 119.130 72.243
0.77 123.705 71.318
0.78 122.749 71.376
0.79 114.907 71.718
0.80 113.779 71.397
0.81 113.372 70.328
0.82 117.258 68.700
0.83 118.288 66.369
0.84 120.357 62.625
0.85 126.981 57.494
0.86 --undefined-- 51.797
0.87 --undefined-- 45.252
0.88 --undefined-- 40.489
0.89 --undefined-- 42.626
0.90 --undefined-- 50.464
0.91 --undefined-- 61.096
0.92 --undefined-- 67.986
0.93 --undefined-- 71.160
0.94 149.911 72.202
0.95 148.724 72.374
0.96 147.645 71.493
0.97 153.828 69.707
0.98 156.488 68.200
0.99 158.517 67.136
1.00 159.579 65.705
1.01 164.959 63.720
1.02 163.121 61.636
1.03 161.774 60.018
1.04 159.682 59.081
1.05 156.818 58.687
1.06 154.444 58.862
1.07 150.800 59.630
1.08 149.170 60.595
1.09 145.821 61.546
1.10 143.882 62.424
1.11 141.577 63.189
1.12 139.437 64.142
1.13 139.615 65.185
1.14 146.290 65.694
1.15 147.458 65.324
1.16 151.737 64.274
1.17 169.101 62.779
1.18 177.123 59.917
1.19 --undefined-- 54.698
1.20 --undefined-- 49.208
1.21 --undefined-- 47.504
1.22 --undefined-- 47.243
1.23 --undefined-- 47.414
1.24 --undefined-- 48.837
1.25 --undefined-- 50.562
1.26 --undefined-- 52.475
1.27 --undefined-- 53.603
1.28 --undefined-- 53.124
1.29 --undefined-- 56.682
1.30 --undefined-- 64.366
1.31 184.373 69.455
1.32 183.976 72.298
1.33 184.393 73.869
1.34 184.707 74.821
1.35 185.239 75.356
1.36 185.267 75.413
1.37 184.686 74.896
1.38 184.979 73.916
1.39 186.169 72.657
1.40 188.591 71.239
1.41 190.258 69.974
1.42 190.118 69.231
1.43 190.419 68.780
1.44 190.712 68.201
1.45 190.868 67.294
1.46 191.022 65.849
1.47 190.440 63.662
1.48 188.919 60.778
1.49 187.343 57.394
1.50 185.303 53.332
1.51 --undefined-- 49.583
1.52 --undefined-- 51.947
1.53 --undefined-- 56.689
1.54 --undefined-- 58.563
1.55 --undefined-- 60.678
1.56 --undefined-- 67.865
1.57 203.837 72.777
1.58 201.870 74.600
1.59 196.038 74.843
1.60 193.688 74.965
1.61 191.783 75.205
1.62 191.067 75.259
1.63 190.146 74.890
1.64 187.457 73.842
1.65 183.664 71.702
1.66 177.515 68.409
1.67 175.710 64.797
1.68 175.647 61.255
1.69 175.490 57.365
1.70 175.785 52.937
1.71 --undefined-- 47.913
1.72 --undefined-- 44.088
1.73 --undefined-- 49.109
1.74 --undefined-- 58.210
1.75 182.522 65.054
1.76 170.243 69.161
1.77 160.816 70.961
1.78 157.197 71.155
1.79 153.814 70.576
1.80 153.012 69.926
1.81 150.370 69.629
1.82 147.018 69.439
1.83 144.610 69.244
1.84 141.771 68.966
1.85 140.450 68.535
1.86 142.076 67.791
1.87 142.619 66.537
1.88 142.716 65.175
1.89 142.636 64.259
1.90 141.681 63.608
1.91 140.472 62.701
1.92 140.886 61.152
1.93 143.229 58.746
1.94 148.791 55.702
1.95 150.544 52.797
1.96 149.115 49.924
1.97 --undefined-- 46.487
1.98 --undefined-- 42.496
1.99 --undefined-- 38.091
2.00 --undefined-- 35.277
2.01 --undefined-- 35.040
2.02 --undefined-- 34.815
2.03 --undefined-- 34.274
2.04 --undefined-- 33.924
2.05 --undefined-- 34.014
2.06 --undefined-- 34.317
2.07 --undefined-- 34.842
2.08 --undefined-- 34.755
2.09 --undefined-- 34.218
2.10 --undefined-- 34.284
2.11 --undefined-- 34.712
2.12 --undefined-- 34.930
2.13 --undefined-- 34.778
2.14 --undefined-- 35.086
2.15 --undefined-- 35.634
2.16 --undefined-- 35.236
2.17 --undefined-- 34.120
2.18 --undefined-- 34.493
2.19 --undefined-- 42.264
2.20 --undefined-- 48.042
2.21 --undefined-- 49.705
2.22 --undefined-- 49.855
2.23 --undefined-- 52.372
2.24 --undefined-- 56.464
2.25 --undefined-- 59.809
2.26 --undefined-- 61.207
2.27 --undefined-- 61.116
2.28 --undefined-- 60.311
2.29 --undefined-- 59.818
2.30 --undefined-- 59.892
2.31 --undefined-- 60.248
2.32 --undefined-- 61.227
2.33 150.608 62.667
2.34 150.212 63.845
2.35 149.276 64.479
2.36 149.010 64.862
2.37 148.840 65.236
2.38 148.999 65.775
2.39 149.737 66.663
2.40 150.817 68.041
2.41 153.052 69.869
2.42 157.272 71.791
2.43 161.660 73.369
2.44 165.728 74.283
2.45 171.001 74.424
2.46 176.757 74.003
2.47 183.745 73.425
2.48 188.615 72.599
2.49 191.512 70.796
2.50 192.034 68.124
2.51 190.696 66.242
2.52 190.700 65.958
2.53 189.122 67.179
2.54 186.025 69.775
2.55 179.486 72.500
2.56 175.788 74.811
2.57 175.766 76.745
2.58 --undefined-- 77.864
2.59 --undefined-- 77.974
2.60 --undefined-- 77.302
2.61 --undefined-- 76.143
2.62 --undefined-- 74.414
2.63 --undefined-- 71.790
2.64 --undefined-- 67.924
2.65 --undefined-- 62.795
2.66 --undefined-- 57.124
2.67 --undefined-- 52.337
2.68 --undefined-- 48.415
2.69 --undefined-- 45.888
2.70 --undefined-- 45.405
2.71 --undefined-- 45.173
2.72 --undefined-- 44.724
2.73 --undefined-- 44.856
2.74 --undefined-- 45.349
2.75 --undefined-- 45.688
2.76 --undefined-- 45.951
2.77 --undefined-- 46.435
2.78 --undefined-- 47.141
2.79 --undefined-- 47.692
2.80 --undefined-- 48.247
2.81 --undefined-- 48.825
2.82 --undefined-- 48.767
2.83 --undefined-- 47.616
2.84 --undefined-- 44.894
2.85 --undefined-- 42.699
2.86 --undefined-- 45.841
2.87 --undefined-- 49.944
2.88 --undefined-- 53.028
2.89 --undefined-- 58.958
2.90 --undefined-- 65.925
2.91 130.352 70.745
2.92 131.007 73.276
2.93 129.406 73.826
2.94 124.527 73.501
2.95 121.886 73.800
2.96 118.340 74.353
2.97 118.234 74.365
2.98 119.544 74.186
2.99 121.699 74.399
3.00 123.187 74.925
3.01 124.560 75.645
3.02 126.215 76.385
3.03 128.647 76.594
3.04 133.268 75.951
3.05 141.743 75.182
3.06 153.229 75.198
3.07 157.278 74.982
3.08 162.025 73.855
3.09 166.677 72.363
3.10 169.928 71.332
3.11 171.989 70.087
3.12 172.991 67.703
3.13 173.913 64.485
3.14 173.060 60.421
3.15 174.420 54.659
3.16 --undefined-- 47.475
3.17 --undefined-- 42.148
3.18 --undefined-- 42.369
3.19 --undefined-- 44.719
3.20 --undefined-- 47.549
3.21 --undefined-- 49.472
3.22 --undefined-- 50.978
3.23 --undefined-- 53.324
3.24 160.066 56.340
3.25 143.311 58.811
3.26 133.061 60.006
3.27 127.855 60.176
3.28 125.110 61.611
3.29 --undefined-- 66.078
3.30 --undefined-- 69.819
3.31 --undefined-- 71.250
3.32 --undefined-- 70.773
3.33 101.904 69.792
3.34 104.258 69.078
3.35 104.864 67.931
3.36 --undefined-- 65.815
3.37 --undefined-- 62.198
3.38 --undefined-- 56.288
3.39 --undefined-- 48.258
3.40 --undefined-- 41.158
3.41 --undefined-- 38.068
3.42 --undefined-- 45.189
3.43 --undefined-- 53.865
3.44 --undefined-- 59.027
3.45 --undefined-- 64.549
3.46 --undefined-- 69.707
3.47 169.817 72.310
3.48 170.691 72.653
3.49 173.403 71.340
3.50 174.564 68.095
3.51 174.666 62.052
3.52 --undefined-- 52.840
3.53 --undefined-- 44.851
3.54 --undefined-- 42.765
3.55 --undefined-- 41.753
3.56 --undefined-- 39.971
3.57 --undefined-- 37.481
3.58 --undefined-- 37.033
3.59 --undefined-- 37.310
3.60 --undefined-- 37.082
3.61 --undefined-- 37.656
3.62 --undefined-- 44.932
3.63 --undefined-- 54.098
3.64 --undefined-- 59.400
3.65 --undefined-- 61.352
3.66 --undefined-- 62.721
3.67 --undefined-- 69.174
3.68 221.170 73.976
3.69 208.965 75.660
3.70 186.138 75.670
3.71 185.229 75.616
3.72 183.987 75.815
3.73 182.566 76.089
3.74 181.146 76.279
3.75 178.952 76.337
3.76 176.906 76.156
3.77 175.014 75.528
3.78 172.922 74.422
3.79 170.441 73.294
3.80 169.679 72.426
3.81 169.152 71.487
3.82 168.842 70.792
3.83 169.528 70.688
3.84 171.184 71.043
3.85 172.264 71.339
3.86 173.814 70.389
3.87 176.283 67.417
3.88 177.315 63.856
3.89 176.601 63.123
3.90 176.705 63.958
3.91 176.796 64.652
3.92 176.976 64.619
3.93 175.910 63.929
3.94 173.305 63.295
3.95 171.045 63.172
3.96 168.151 63.608
3.97 164.492 66.833
3.98 154.299 71.637
3.99 152.957 74.312
4.00 149.560 74.884
4.01 145.549 74.291
4.02 141.988 73.019
4.03 136.678 71.291
4.04 135.258 69.767
4.05 129.566 68.924
4.06 123.331 67.993
4.07 113.670 66.352
4.08 111.212 64.711
4.09 111.227 63.734
4.10 107.826 63.212
4.11 106.349 62.783
4.12 104.350 62.570
4.13 97.471 62.807
4.14 99.436 63.049
4.15 --undefined-- 63.539
4.16 --undefined-- 63.844
4.17 --undefined-- 63.527
4.18 --undefined-- 63.213
4.19 --undefined-- 63.360
4.20 94.912 64.274
4.21 95.556 66.454
4.22 --undefined-- 68.262
4.23 --undefined-- 69.295
4.24 --undefined-- 70.478
4.25 --undefined-- 71.542
4.26 --undefined-- 72.092
4.27 --undefined-- 72.136
4.28 146.052 71.824
4.29 148.606 71.464
4.30 150.637 71.421
4.31 151.353 71.343
4.32 151.233 71.117
4.33 151.229 70.776
4.34 151.175 70.200
4.35 150.371 69.534
4.36 149.335 68.920
4.37 148.582 68.452
4.38 145.689 68.174
4.39 142.958 67.286
4.40 144.228 65.735
4.41 145.033 64.060
4.42 146.936 61.955
4.43 148.730 59.471
4.44 149.710 56.503
4.45 148.386 52.674
4.46 --undefined-- 49.044
4.47 --undefined-- 46.238
4.48 --undefined-- 46.802
4.49 --undefined-- 55.829
4.50 167.776 64.874
4.51 158.693 71.467
4.52 159.198 75.542
4.53 158.260 77.169
4.54 149.601 76.803
4.55 147.759 75.346
4.56 143.804 73.640
4.57 140.512 71.803
4.58 135.205 71.199
4.59 117.282 72.824
4.60 103.536 73.625
4.61 102.992 73.064
4.62 101.805 72.156
4.63 98.967 71.010
4.64 96.291 69.509
4.65 93.912 68.196
4.66 90.854 66.752
4.67 86.740 64.993
4.68 85.618 63.117
4.69 87.858 61.420
4.70 89.554 60.109
4.71 92.998 59.021
4.72 98.364 57.880
4.73 105.518 57.100
4.74 116.354 57.416
4.75 117.730 58.433
4.76 119.599 59.993
4.77 121.163 62.090
4.78 123.457 64.480
4.79 --undefined-- 67.120
4.80 --undefined-- 69.462
4.81 --undefined-- 71.294
4.82 --undefined-- 72.867
4.83 142.374 74.307
4.84 144.562 75.230
4.85 143.984 75.604
4.86 144.437 75.612
4.87 144.343 75.225
4.88 143.951 74.889
4.89 144.039 74.734
4.90 143.529 74.451
4.91 143.419 74.013
4.92 144.217 73.565
4.93 145.353 73.127
4.94 146.261 72.788
4.95 146.534 72.449
4.96 146.353 71.824
4.97 146.219 70.389
4.98 146.482 67.415
4.99 --undefined-- 62.316
5.00 --undefined-- 55.051
5.01 --undefined-- 47.068
5.02 --undefined-- 41.348
5.03 --undefined-- 39.375
5.04 --undefined-- 41.142
5.05 --undefined-- 43.358
5.06 --undefined-- 45.264
5.07 --undefined-- 46.984
5.08 --undefined-- 48.540
5.09 --undefined-- 49.593
5.10 --undefined-- 50.356
5.11 --undefined-- 51.522
5.12 --undefined-- 53.269
5.13 --undefined-- 54.191
5.14 --undefined-- 53.471
5.15 --undefined-- 52.542
5.16 --undefined-- 52.789
5.17 --undefined-- 52.893
5.18 --undefined-- 52.501
5.19 --undefined-- 52.171
5.20 --undefined-- 51.423
5.21 --undefined-- 49.991
5.22 --undefined-- 48.416
5.23 --undefined-- 47.128
5.24 --undefined-- 46.230
5.25 --undefined-- 45.081
5.26 --undefined-- 42.412
5.27 --undefined-- 39.010
5.28 --undefined-- 37.354
5.29 --undefined-- 35.717
5.30 --undefined-- 34.662
5.31 --undefined-- 34.972
5.32 --undefined-- 35.164
5.33 --undefined-- 35.972
5.34 --undefined-- 36.989
5.35 --undefined-- 37.065
5.36 --undefined-- 41.381
5.37 --undefined-- 50.200
5.38 --undefined-- 55.998
5.39 --undefined-- 63.812
5.40 --undefined-- 71.141
5.41 211.626 74.979
5.42 208.216 76.059
5.43 208.288 75.849
5.44 209.008 75.752
5.45 208.845 76.012
5.46 209.171 76.177
5.47 207.867 76.022
5.48 206.311 74.457
5.49 202.663 70.744
5.50 199.877 65.920
5.51 200.340 61.197
5.52 --undefined-- 58.608
5.53 --undefined-- 60.798
5.54 --undefined-- 63.435
5.55 --undefined-- 66.906
5.56 --undefined-- 71.205
5.57 --undefined-- 74.197
5.58 --undefined-- 75.840
5.59 --undefined-- 76.541
5.60 162.198 --undefined--
5.61 162.740 --undefined--
5.62 --undefined-- --undefined--
5.63 --undefined-- --undefined--
