Time Pitch Intensity
0.01 --undefined-- --undefined--
0.02 184.109 --undefined--
0.03 184.567 --undefined--
0.04 187.588 --undefined--
0.05 189.881 68.167
0.06 189.574 67.388
0.07 189.263 65.588
0.08 189.065 63.388
0.09 190.513 62.584
0.10 198.757 63.893
0.11 205.653 65.757
0.12 207.065 67.099
0.13 207.447 68.345
0.14 205.683 69.919
0.15 204.896 71.394
0.16 206.322 72.328
0.17 209.555 72.501
0.18 213.151 71.917
0.19 217.895 70.968
0.20 223.415 70.278
0.21 228.023 69.995
0.22 232.019 70.041
0.23 234.741 70.610
0.24 236.595 71.247
0.25 237.157 71.526
0.26 235.765 71.458
0.27 231.738 71.058
0.28 223.604 70.517
0.29 --undefined-- 70.120
0.30 --undefined-- 69.309
0.31 --undefined-- 67.303
0.32 --undefined-- 63.896
0.33 --undefined-- 59.512
0.34 --undefined-- 55.116
0.35 --undefined-- 53.156
0.36 --undefined-- 51.586
0.37 --undefined-- 48.945
0.38 --undefined-- 48.689
0.39 --undefined-- 49.554
0.40 --undefined-- 50.376
0.41 --undefined-- 51.520
0.42 --undefined-- 52.754
0.43 --undefined-- 52.242
0.44 --undefined-- 49.772
0.45 --undefined-- 48.804
0.46 --undefined-- 49.272
0.47 --undefined-- 49.773
0.48 --undefined-- 49.456
0.49 --undefined-- 47.703
0.50 --undefined-- 47.254
0.51 --undefined-- 46.270
0.52 --undefined-- 45.378
0.53 --undefined-- 48.773
0.54 --undefined-- 50.634
0.55 --undefined-- 50.510
0.56 --undefined-- 50.369
0.57 --undefined-- 52.737
0.58 --undefined-- 56.166
0.59 --undefined-- 57.330
0.60 --undefined-- 56.579
0.61 --undefined-- 60.510
0.62 153.154 66.443
0.63 148.880 70.030
0.64 147.796 71.459
0.65 146.704 71.738
0.66 146.737 71.916
0.67 147.208 72.150
0.68 147.685 72.185
0.69 148.945 72.028
0.70 150.815 71.833
0.71 152.578 71.730
0.72 153.431 71.881
0.73 154.907 71.862
0.74 156.707 71.293
0.75 158.341 70.640
0.76 159.423 70.117
0.77 159.984 69.587
0.78 159.308 69.050
0.79 156.246 68.799
0.80 151.867 69.598
0.81 151.232 70.480
0.82 148.445 70.013
0.83 144.259 67.829
0.84 140.521 63.850
0.85 141.709 57.934
0.86 --undefined-- 51.740
0.87 --undefined-- 52.585
0.88 --undefined-- 57.533
0.89 --undefined-- 63.532
0.90 227.474 67.695
0.91 223.254 69.849
0.92 218.046 70.502
0.93 214.018 70.376
0.94 213.011 69.834
0.95 213.414 68.771
0.96 215.149 67.618
0.97 216.229 66.979
0.98 216.335 66.809
0.99 216.866 66.724
1.00 218.169 66.609
1.01 219.825 66.636
1.02 219.906 66.666
1.03 217.886 66.465
1.04 215.631 66.574
1.05 222.404 67.420
1.06 225.969 68.222
1.07 229.838 68.682
1.08 236.817 69.430
1.09 249.411 70.680
1.10 247.727 71.853
1.11 247.858 72.742
1.12 247.482 72.938
1.13 246.499 72.406
1.14 247.151 71.998
1.15 248.846 72.282
1.16 249.254 72.658
1.17 248.033 72.722
1.18 245.774 72.382
1.19 242.973 71.092
1.20 238.596 68.713
1.21 231.740 66.935
1.22 226.200 66.442
1.23 217.308 66.164
1.24 208.065 66.068
1.25 198.609 66.140
1.26 191.354 66.095
1.27 186.346 66.685
1.28 174.602 68.244
1.29 167.883 69.045
1.30 161.939 68.795
1.31 157.093 68.324
1.32 154.959 68.166
1.33 153.824 68.284
1.34 152.535 68.481
1.35 153.020 68.429
1.36 153.647 67.818
1.37 154.659 66.565
1.38 159.890 65.093
1.39 167.334 64.275
1.40 176.151 64.143
1.41 180.599 63.825
1.42 185.896 62.876
1.43 192.291 61.345
1.44 192.152 59.181
1.45 189.128 56.941
1.46 186.128 56.375
1.47 185.812 57.117
1.48 198.240 57.879
1.49 217.694 59.101
1.50 209.295 61.332
1.51 200.736 64.103
1.52 186.222 66.657
1.53 182.585 68.066
1.54 182.396 68.100
1.55 188.578 67.531
1.56 192.206 66.942
1.57 205.708 65.794
1.58 210.550 64.447
1.59 225.960 64.099
1.60 241.758 64.450
1.61 254.219 64.443
1.62 269.439 63.602
1.63 278.572 62.020
1.64 273.083 59.989
1.65 259.874 57.816
1.66 --undefined-- 57.360
1.67 --undefined-- 58.847
1.68 --undefined-- 59.612
1.69 --undefined-- 59.363
1.70 --undefined-- 59.023
1.71 --undefined-- 58.830
1.72 --undefined-- 58.470
1.73 --undefined-- 59.656
1.74 --undefined-- 62.045
1.75 --undefined-- 64.377
1.76 --undefined-- 66.800
1.77 183.351 68.590
1.78 182.200 69.487
1.79 183.314 70.080
1.80 184.712 70.436
1.81 185.309 70.342
1.82 185.975 69.642
1.83 186.580 68.430
1.84 187.190 67.258
1.85 187.114 66.762
1.86 185.843 67.087
1.87 184.655 67.638
1.88 183.544 67.889
1.89 181.437 67.565
1.90 180.210 66.602
1.91 179.284 65.323
1.92 178.021 64.726
1.93 179.517 65.670
1.94 177.092 67.538
1.95 174.059 69.087
1.96 172.828 69.823
1.97 172.597 69.959
1.98 172.403 69.730
1.99 172.311 69.405
2.00 172.935 69.350
2.01 174.371 69.653
2.02 175.424 70.063
2.03 175.166 70.013
2.04 174.795 69.089
2.05 174.873 67.148
2.06 173.641 63.938
2.07 172.009 59.151
2.08 173.197 54.000
2.09 --undefined-- 50.430
2.10 --undefined-- 48.155
2.11 --undefined-- 50.032
2.12 --undefined-- 58.199
2.13 --undefined-- 64.113
2.14 --undefined-- 66.898
2.15 181.252 67.678
2.16 176.873 67.806
2.17 174.971 67.920
2.18 174.001 67.878
2.19 174.574 67.795
2.20 176.922 68.150
2.21 177.572 68.929
2.22 176.229 69.348
2.23 174.985 69.024
2.24 172.802 68.011
2.25 171.372 66.853
2.26 173.243 66.390
2.27 177.131 66.488
2.28 180.117 66.290
2.29 182.899 65.144
2.30 185.861 62.816
2.31 184.879 59.053
2.32 180.729 54.593
2.33 --undefined-- 51.925
2.34 --undefined-- 50.929
2.35 --undefined-- 50.512
2.36 --undefined-- 51.438
2.37 --undefined-- 53.053
2.38 --undefined-- 57.834
2.39 222.749 62.994
2.40 217.097 66.185
2.41 211.501 68.225
2.42 207.889 69.944
2.43 204.496 71.400
2.44 201.904 72.406
2.45 200.186 72.988
2.46 200.014 73.364
2.47 199.851 73.871
2.48 199.563 74.417
2.49 199.476 74.525
2.50 199.024 74.057
2.51 198.490 73.062
2.52 198.818 71.562
2.53 199.335 69.585
2.54 197.820 67.154
2.55 196.130 63.828
2.56 197.209 59.374
2.57 198.069 56.845
2.58 198.060 56.306
2.59 198.620 54.409
2.60 --undefined-- 53.467
2.61 --undefined-- 52.519
2.62 --undefined-- 50.574
2.63 --undefined-- 52.852
2.64 --undefined-- 55.400
2.65 --undefined-- 55.037
2.66 --undefined-- 52.431
2.67 --undefined-- 50.134
2.68 --undefined-- 48.523
2.69 --undefined-- 49.217
2.70 --undefined-- 50.252
2.71 --undefined-- 50.450
2.72 --undefined-- 52.497
2.73 --undefined-- 55.034
2.74 --undefined-- 55.779
2.75 --undefined-- 53.887
2.76 --undefined-- 49.910
2.77 --undefined-- 47.836
2.78 --undefined-- 48.858
2.79 --undefined-- 50.004
2.80 --undefined-- 49.232
2.81 --undefined-- 47.413
2.82 --undefined-- 47.112
2.83 --undefined-- 47.428
2.84 --undefined-- 48.149
2.85 --undefined-- 48.108
2.86 --undefined-- 46.973
2.87 --undefined-- 47.153
2.88 --undefined-- 49.340
2.89 --undefined-- 50.509
2.90 --undefined-- 51.284
2.91 --undefined-- 58.228
2.92 284.288 66.021
2.93 281.337 71.281
2.94 283.338 74.294
2.95 287.057 75.541
2.96 291.101 75.537
2.97 293.418 74.654
2.98 295.175 72.817
2.99 293.159 69.757
3.00 286.493 65.388
3.01 285.744 60.480
3.02 279.421 57.841
3.03 280.607 57.719
3.04 282.569 56.876
3.05 289.915 54.332
3.06 295.683 53.361
3.07 293.542 56.387
3.08 294.267 58.588
3.09 295.559 58.458
3.10 --undefined-- 57.614
3.11 --undefined-- 61.271
3.12 183.492 66.660
3.13 182.145 70.273
3.14 180.012 72.390
3.15 180.757 73.525
3.16 184.021 73.843
3.17 188.609 73.502
3.18 193.261 72.565
3.19 197.466 71.039
3.20 199.456 69.242
3.21 200.691 67.711
3.22 204.720 67.263
3.23 206.671 67.649
3.24 202.801 67.729
3.25 195.662 66.935
3.26 185.452 65.222
3.27 173.042 63.407
3.28 167.896 63.385
3.29 167.662 65.007
3.30 170.083 66.602
3.31 172.836 67.737
3.32 --undefined-- 68.814
3.33 278.538 69.972
3.34 263.988 70.771
3.35 252.986 71.175
3.36 249.376 71.350
3.37 249.724 71.187
3.38 253.385 70.329
3.39 256.580 68.030
3.40 256.660 63.507
3.41 236.930 56.813
3.42 256.213 54.995
3.43 259.523 61.643
3.44 253.170 66.488
3.45 247.539 68.298
3.46 238.276 67.901
3.47 233.989 67.220
3.48 233.216 67.257
3.49 233.067 67.501
3.50 232.422 67.684
3.51 231.767 67.841
3.52 231.286 67.985
3.53 230.339 67.849
3.54 229.202 67.409
3.55 228.341 66.942
3.56 227.606 66.597
3.57 227.425 66.228
3.58 227.531 65.524
3.59 226.824 64.422
3.60 227.277 62.953
3.61 225.866 60.519
3.62 220.928 56.620
3.63 --undefined-- 52.753
3.64 --undefined-- 51.342
3.65 --undefined-- 51.487
3.66 --undefined-- 52.689
3.67 228.975 55.220
3.68 232.383 59.225
3.69 228.058 62.549
3.70 216.242 65.229
3.71 202.414 67.462
3.72 195.163 68.573
3.73 190.469 68.156
3.74 189.865 66.040
3.75 190.677 62.103
3.76 191.417 56.810
3.77 --undefined-- 53.542
3.78 --undefined-- 55.648
3.79 --undefined-- 60.215
3.80 255.907 64.120
3.81 257.975 64.906
3.82 --undefined-- 62.157
3.83 --undefined-- 57.719
3.84 --undefined-- 56.715
3.85 --undefined-- 57.457
3.86 --undefined-- 57.029
3.87 --undefined-- 54.954
3.88 --undefined-- 54.066
3.89 --undefined-- 56.020
3.90 --undefined-- 58.011
3.91 --undefined-- 59.341
3.92 --undefined-- 61.167
3.93 203.304 63.591
3.94 199.621 66.360
3.95 193.126 68.702
3.96 191.714 70.021
3.97 192.357 70.553
3.98 193.624 70.726
3.99 193.290 70.795
4.00 191.977 70.668
4.01 191.807 69.843
4.02 193.682 68.338
4.03 195.507 67.012
4.04 199.105 66.493
4.05 198.910 65.555
4.06 195.736 62.606
4.07 193.402 57.610
4.08 193.665 53.387
4.09 194.892 53.226
4.10 --undefined-- 53.623
4.11 --undefined-- 52.329
4.12 --undefined-- 50.148
4.13 --undefined-- 48.308
4.14 --undefined-- 46.503
4.15 --undefined-- 47.131
4.16 265.213 51.811
4.17 284.962 56.135
4.18 261.309 59.354
4.19 250.787 61.138
4.20 255.955 62.456
4.21 268.103 64.248
4.22 280.015 66.243
4.23 285.954 68.120
4.24 289.435 69.484
4.25 291.633 70.103
4.26 292.957 70.242
4.27 293.325 70.305
4.28 294.260 70.399
4.29 294.917 70.358
4.30 294.629 70.193
4.31 293.140 70.190
4.32 289.913 70.220
4.33 284.650 69.860
4.34 278.536 68.972
4.35 270.059 67.548
4.36 259.713 66.103
4.37 246.196 65.572
4.38 234.141 65.966
4.39 223.442 66.397
4.40 213.565 66.953
4.41 205.239 68.136
4.42 198.662 69.567
4.43 192.694 70.736
4.44 187.749 71.357
4.45 183.594 71.392
4.46 180.429 70.983
4.47 178.305 70.399
4.48 176.196 70.153
4.49 175.282 70.123
4.50 173.419 69.663
4.51 172.106 68.585
4.52 172.630 66.766
4.53 172.333 63.843
4.54 --undefined-- 59.752
4.55 --undefined-- 55.613
4.56 --undefined-- 52.527
4.57 --undefined-- 53.149
4.58 --undefined-- 57.854
4.59 --undefined-- 63.134
4.60 --undefined-- 66.184
4.61 178.332 67.094
4.62 171.627 66.987
4.63 169.242 66.749
4.64 168.277 66.829
4.65 168.125 66.894
4.66 167.930 66.887
4.67 168.312 67.042
4.68 168.557 67.252
4.69 169.316 66.943
4.70 172.705 65.799
4.71 177.458 64.414
4.72 180.180 62.954
4.73 187.107 60.697
4.74 195.822 57.480
4.75 242.154 55.977
4.76 244.406 56.536
4.77 288.779 55.741
4.78 291.642 55.955
4.79 291.829 57.542
4.80 280.863 60.860
4.81 215.881 63.990
4.82 210.726 65.676
4.83 203.881 66.716
4.84 197.557 67.385
4.85 193.125 67.981
4.86 192.023 68.548
4.87 192.185 68.888
4.88 192.738 68.953
4.89 194.816 68.771
4.90 197.354 68.244
4.91 200.112 67.310
4.92 204.241 66.560
4.93 211.074 66.201
4.94 218.549 66.204
4.95 223.969 67.483
4.96 229.117 69.755
4.97 232.595 71.534
4.98 236.610 72.266
4.99 240.730 --undefined--
5.00 243.574 --undefined--
5.01 --undefined-- --undefined--
5.02 --undefined-- --undefined--
