Time Pitch Intensity
0.01 --undefined-- --undefined--
0.02 203.537 --undefined--
0.03 202.609 --undefined--
0.04 199.237 --undefined--
0.05 191.692 67.664
0.06 --undefined-- 63.234
0.07 --undefined-- 57.395
0.08 --undefined-- 50.700
0.09 --undefined-- 47.344
0.10 --undefined-- 45.988
0.11 --undefined-- 45.143
0.12 --undefined-- 45.128
0.13 --undefined-- 42.855
0.14 --undefined-- 38.180
0.15 --undefined-- 45.537
0.16 --undefined-- 55.350
0.17 194.930 61.271
0.18 192.812 64.280
0.19 191.911 65.638
0.20 190.076 66.492
0.21 192.587 67.976
0.22 189.480 70.156
0.23 184.598 71.666
0.24 181.018 72.082
0.25 179.531 72.136
0.26 180.029 71.793
0.27 180.145 70.334
0.28 174.404 67.621
0.29 163.868 63.911
0.30 --undefined-- 58.844
0.31 --undefined-- 52.264
0.32 --undefined-- 46.842
0.33 --undefined-- 44.897
0.34 --undefined-- 43.286
0.35 --undefined-- 41.368
0.36 --undefined-- 39.394
0.37 --undefined-- 37.180
0.38 --undefined-- 34.502
0.39 --undefined-- 31.445
0.40 --undefined-- 36.271
0.41 --undefined-- 48.218
0.42 --undefined-- 56.202
0.43 193.256 60.890
0.44 186.212 63.503
0.45 181.354 65.272
0.46 175.526 67.063
0.47 173.388 68.872
0.48 171.364 70.342
0.49 166.045 71.017
0.50 161.039 70.642
0.51 156.076 69.657
0.52 152.517 68.945
0.53 151.368 68.861
0.54 151.388 68.869
0.55 152.487 68.761
0.56 153.269 68.607
0.57 153.960 68.248
0.58 154.288 67.529
0.59 150.426 66.563
0.60 146.708 65.375
0.61 144.110 63.868
0.62 140.794 62.437
0.63 140.057 61.776
0.64 140.047 61.728
0.65 140.579 61.398
0.66 136.033 60.451
0.67 135.992 59.253
0.68 140.634 58.521
0.69 149.444 58.899
0.70 150.778 60.161
0.71 155.406 61.642
0.72 159.655 62.955
0.73 163.345 63.942
0.74 165.597 64.741
0.75 166.792 65.521
0.76 166.994 66.216
0.77 167.067 66.786
0.78 167.034 67.415
0.79 166.858 68.168
0.80 166.251 68.904
0.81 166.304 69.504
0.82 165.832 69.831
0.83 165.028 69.776
0.84 164.883 69.464
0.85 164.858 69.024
0.86 163.923 68.509
0.87 162.632 68.000
0.88 162.486 67.590
0.89 163.051 67.292
0.90 165.353 66.926
0.91 170.894 66.193
0.92 180.594 65.253
0.93 186.020 64.826
0.94 188.617 64.616
0.95 195.252 63.857
0.96 198.276 62.324
0.97 191.720 59.418
0.98 --undefined-- 54.001
0.99 --undefined-- 45.621
1.00 --undefined-- 39.507
1.01 --undefined-- 38.275
1.02 --undefined-- 37.863
1.03 --undefined-- 42.336
1.04 --undefined-- 55.059
1.05 --undefined-- 64.581
1.06 216.080 70.324
1.07 211.948 73.161
1.08 206.365 74.186
1.09 201.051 74.388
1.10 197.371 74.231
1.11 194.043 73.685
1.12 191.712 73.005
1.13 191.461 72.613
1.14 194.293 72.754
1.15 196.938 73.216
1.16 198.546 73.600
1.17 198.303 73.731
1.18 196.066 73.561
1.19 193.225 73.219
1.20 191.518 72.765
1.21 191.638 72.169
1.22 191.813 71.276
1.23 189.143 69.606
1.24 184.520 67.042
1.25 184.196 64.590
1.26 186.907 63.377
1.27 187.833 63.838
1.28 179.935 65.822
1.29 176.358 68.277
1.30 170.850 69.888
1.31 165.556 70.274
1.32 158.498 69.731
1.33 150.354 68.721
1.34 143.663 67.621
1.35 142.174 66.235
1.36 137.655 63.968
1.37 130.298 61.806
1.38 133.588 61.062
1.39 136.684 60.990
1.40 138.461 61.241
1.41 143.133 61.951
1.42 147.897 62.861
1.43 150.440 63.793
1.44 154.882 64.825
1.45 158.628 65.877
1.46 160.910 66.726
1.47 160.221 67.019
1.48 157.909 66.571
1.49 155.310 65.992
1.50 153.464 65.781
1.51 154.384 65.647
1.52 154.045 65.242
1.53 149.694 64.358
1.54 148.529 63.693
1.55 146.253 63.593
1.56 141.101 63.274
1.57 136.499 62.863
1.58 135.647 62.685
1.59 136.770 62.772
1.60 138.712 63.084
1.61 144.038 63.358
1.62 148.028 63.331
1.63 154.340 62.958
1.64 156.383 62.202
1.65 155.136 60.757
1.66 154.140 57.982
1.67 --undefined-- 54.340
1.68 --undefined-- 52.714
1.69 --undefined-- 53.802
1.70 --undefined-- 54.790
1.71 --undefined-- 56.588
1.72 197.897 62.950
1.73 190.255 67.862
1.74 184.508 70.426
1.75 171.631 71.542
1.76 165.968 71.787
1.77 162.570 71.663
1.78 161.326 71.405
1.79 162.691 71.087
1.80 166.125 70.907
1.81 171.547 70.932
1.82 179.431 71.205
1.83 183.192 71.527
1.84 191.859 71.804
1.85 201.926 72.265
1.86 211.999 72.712
1.87 218.604 72.758
1.88 226.846 72.240
1.89 230.645 71.192
1.90 233.308 69.249
1.91 237.580 65.642
1.92 237.828 59.923
1.93 --undefined-- 52.906
1.94 --undefined-- 47.104
1.95 --undefined-- 43.447
1.96 --undefined-- 40.633
1.97 --undefined-- 37.630
1.98 --undefined-- 35.205
1.99 --undefined-- 33.774
2.00 --undefined-- 33.438
2.01 --undefined-- 33.031
2.02 --undefined-- 32.783
2.03 --undefined-- 33.824
2.04 --undefined-- 35.709
2.05 --undefined-- 37.228
2.06 --undefined-- 38.782
2.07 --undefined-- 40.399
2.08 --undefined-- 41.209
2.09 --undefined-- 40.913
2.10 --undefined-- 40.451
2.11 --undefined-- 39.996
2.12 --undefined-- 39.043
2.13 --undefined-- 37.759
2.14 --undefined-- 35.912
2.15 --undefined-- 34.584
2.16 --undefined-- 35.586
2.17 --undefined-- 36.679
2.18 --undefined-- 36.417
2.19 --undefined-- 35.558
2.20 --undefined-- 33.302
2.21 --undefined-- 33.613
2.22 --undefined-- 44.794
2.23 --undefined-- 54.324
2.24 --undefined-- 61.297
2.25 --undefined-- 66.458
2.26 --undefined-- 69.181
2.27 --undefined-- 69.797
2.28 --undefined-- 69.698
2.29 207.815 71.066
2.30 202.053 73.441
2.31 195.521 75.020
2.32 191.322 75.757
2.33 187.019 75.971
2.34 182.213 75.931
2.35 178.679 75.687
2.36 174.308 75.079
2.37 173.365 74.444
2.38 174.653 74.215
2.39 177.034 74.187
2.40 179.608 74.257
2.41 182.684 74.256
2.42 184.866 73.755
2.43 184.169 72.591
2.44 178.684 70.898
2.45 170.491 68.397
2.46 172.243 64.368
2.47 181.445 59.107
2.48 180.720 55.760
2.49 180.308 55.390
2.50 164.044 56.765
2.51 181.992 60.990
2.52 235.054 68.104
2.53 225.215 72.979
2.54 212.428 74.966
2.55 203.015 75.212
2.56 200.969 75.065
2.57 200.350 74.873
2.58 201.038 74.536
2.59 205.030 74.241
2.60 214.220 74.011
2.61 227.361 73.708
2.62 241.589 73.511
2.63 254.636 73.402
2.64 265.068 73.057
2.65 276.851 72.598
2.66 285.725 72.413
2.67 293.311 72.181
2.68 298.719 71.416
2.69 150.456 69.629
2.70 149.607 66.214
2.71 143.904 60.592
2.72 --undefined-- 52.774
2.73 --undefined-- 48.290
2.74 --undefined-- 55.099
2.75 --undefined-- 66.460
2.76 --undefined-- 73.688
2.77 --undefined-- 77.111
2.78 --undefined-- 77.385
2.79 --undefined-- 75.276
2.80 201.058 72.251
2.81 192.141 70.263
2.82 189.640 70.070
2.83 188.635 71.039
2.84 187.640 72.022
2.85 186.812 72.793
2.86 187.656 73.526
2.87 189.055 74.115
2.88 190.993 74.281
2.89 193.532 74.075
2.90 196.477 73.921
2.91 199.121 73.905
2.92 200.601 73.976
2.93 199.799 73.755
2.94 194.591 72.563
2.95 186.960 70.126
2.96 181.618 66.121
2.97 --undefined-- 59.998
2.98 --undefined-- 54.077
2.99 --undefined-- 56.040
3.00 --undefined-- 61.596
3.01 --undefined-- 65.193
3.02 --undefined-- 67.771
3.03 246.448 71.755
3.04 233.217 74.633
3.05 225.258 75.482
3.06 216.713 75.256
3.07 211.116 75.035
3.08 206.129 74.982
3.09 201.684 74.808
3.10 198.985 74.364
3.11 196.152 73.731
3.12 194.529 73.321
3.13 196.075 73.321
3.14 198.673 73.424
3.15 200.743 73.321
3.16 203.377 72.788
3.17 206.036 71.535
3.18 202.592 69.311
3.19 202.184 66.029
3.20 210.192 61.633
3.21 196.258 56.913
3.22 --undefined-- 53.320
3.23 --undefined-- 50.830
3.24 --undefined-- 51.878
3.25 --undefined-- 54.722
3.26 180.828 57.296
3.27 191.509 59.750
3.28 193.901 62.053
3.29 193.776 64.185
3.30 191.218 66.138
3.31 187.867 68.187
3.32 185.568 70.497
3.33 182.687 72.518
3.34 178.738 73.663
3.35 175.683 73.834
3.36 176.062 73.401
3.37 177.971 72.900
3.38 180.129 72.568
3.39 180.907 72.011
3.40 178.322 70.346
3.41 170.121 67.244
3.42 178.411 63.363
3.43 181.933 58.780
3.44 --undefined-- 53.652
3.45 --undefined-- 50.598
3.46 --undefined-- 48.662
3.47 --undefined-- 46.152
3.48 --undefined-- 45.323
3.49 --undefined-- 54.921
3.50 --undefined-- 62.973
3.51 --undefined-- 67.410
3.52 158.338 69.360
3.53 149.538 69.956
3.54 146.375 69.543
3.55 139.778 68.131
3.56 137.203 66.589
3.57 137.771 65.477
3.58 140.649 64.547
3.59 142.477 64.137
3.60 142.578 64.205
3.61 147.573 64.171
3.62 153.481 64.066
3.63 153.788 64.501
3.64 159.327 65.509
3.65 166.027 66.576
3.66 173.845 67.417
3.67 182.430 67.954
3.68 189.131 67.990
3.69 188.904 66.978
3.70 187.877 64.190
3.71 185.138 59.029
3.72 --undefined-- 51.717
3.73 --undefined-- 46.504
3.74 --undefined-- 44.924
3.75 --undefined-- 44.326
3.76 --undefined-- 46.439
3.77 --undefined-- 50.528
3.78 --undefined-- 54.615
3.79 --undefined-- 58.480
3.80 --undefined-- 61.645
3.81 --undefined-- 62.791
3.82 --undefined-- 61.810
3.83 --undefined-- 60.265
3.84 --undefined-- 59.861
3.85 --undefined-- 60.515
3.86 --undefined-- 60.587
3.87 --undefined-- 59.651
3.88 195.584 61.030
3.89 177.580 63.212
3.90 168.995 63.919
3.91 155.088 63.609
3.92 154.318 63.020
3.93 157.740 62.785
3.94 158.149 63.032
3.95 156.391 63.349
3.96 154.555 63.696
3.97 155.152 64.350
3.98 157.984 65.320
3.99 161.909 66.486
4.00 164.733 67.602
4.01 167.659 67.991
4.02 167.013 66.613
4.03 160.165 62.468
4.04 --undefined-- 55.420
4.05 --undefined-- 48.168
4.06 --undefined-- 46.197
4.07 --undefined-- 44.206
4.08 --undefined-- 40.204
4.09 --undefined-- 35.680
4.10 --undefined-- 46.830
4.11 --undefined-- 59.094
4.12 --undefined-- 66.977
4.13 215.579 71.378
4.14 206.698 73.246
4.15 200.163 73.290
4.16 193.751 72.453
4.17 187.581 71.686
4.18 183.728 71.056
4.19 181.154 70.154
4.20 178.494 69.025
4.21 176.617 67.906
4.22 173.578 67.063
4.23 170.390 66.978
4.24 167.586 67.792
4.25 163.480 69.167
4.26 160.955 70.414
4.27 164.025 71.049
4.28 167.929 71.032
4.29 170.402 70.640
4.30 177.302 70.390
4.31 182.696 70.771
4.32 184.636 71.568
4.33 184.915 72.026
4.34 184.983 71.684
4.35 184.266 70.432
4.36 178.850 68.495
4.37 170.653 66.399
4.38 165.729 65.218
4.39 171.892 66.839
4.40 176.243 69.435
4.41 173.445 70.468
4.42 164.539 70.150
4.43 150.243 69.529
4.44 145.917 69.073
4.45 143.447 68.170
4.46 141.523 66.757
4.47 140.528 65.413
4.48 139.214 63.750
4.49 136.419 61.744
4.50 144.983 59.904
4.51 --undefined-- 57.827
4.52 --undefined-- 54.653
4.53 --undefined-- 49.966
4.54 --undefined-- 44.404
4.55 --undefined-- 39.560
4.56 --undefined-- 36.205
4.57 --undefined-- 33.599
4.58 --undefined-- 32.074
4.59 --undefined-- 30.261
4.60 --undefined-- 27.708
4.61 --undefined-- 26.811
4.62 --undefined-- 27.411
4.63 --undefined-- 27.226
4.64 --undefined-- 26.553
4.65 --undefined-- 25.712
4.66 --undefined-- 25.256
4.67 --undefined-- 25.794
4.68 --undefined-- 26.804
4.69 --undefined-- 28.645
4.70 --undefined-- 31.834
4.71 --undefined-- 34.257
4.72 --undefined-- 35.586
4.73 --undefined-- 36.435
4.74 --undefined-- 36.915
4.75 --undefined-- 36.446
4.76 --undefined-- 35.553
4.77 --undefined-- 35.358
4.78 --undefined-- 35.882
4.79 --undefined-- 36.558
4.80 --undefined-- 36.500
4.81 --undefined-- 35.926
4.82 --undefined-- 35.060
4.83 --undefined-- 33.331
4.84 --undefined-- 31.904
4.85 --undefined-- 33.267
4.86 --undefined-- 35.548
4.87 --undefined-- 35.333
4.88 --undefined-- 31.867
4.89 --undefined-- 30.009
4.90 --undefined-- 34.598
4.91 --undefined-- 39.221
4.92 --undefined-- 45.259
4.93 --undefined-- 49.899
4.94 --undefined-- 54.437
4.95 --undefined-- 58.481
4.96 --undefined-- 60.765
4.97 --undefined-- 66.201
4.98 226.831 72.520
4.99 225.992 76.013
5.00 227.619 77.296
5.01 231.872 77.495
5.02 237.314 76.764
5.03 243.566 74.495
5.04 228.646 70.793
5.05 208.504 67.543
5.06 204.585 66.143
5.07 227.664 68.416
5.08 256.226 73.052
5.09 254.110 76.233
5.10 249.151 77.821
5.11 244.888 78.334
5.12 241.110 78.077
5.13 238.091 77.078
5.14 234.095 75.282
5.15 229.201 72.596
5.16 209.420 68.920
5.17 198.259 64.952
5.18 211.155 60.226
5.19 --undefined-- 53.753
5.20 --undefined-- 52.904
5.21 --undefined-- 57.146
5.22 --undefined-- 62.038
5.23 265.435 68.797
5.24 257.904 73.713
5.25 255.233 76.443
5.26 249.435 77.319
5.27 243.990 76.850
5.28 243.207 76.283
5.29 243.528 76.310
5.30 243.925 76.543
5.31 244.254 76.724
5.32 244.316 76.769
5.33 245.744 76.712
5.34 247.592 76.474
5.35 249.673 75.938
5.36 251.246 75.040
5.37 250.911 73.529
5.38 246.620 70.859
5.39 228.728 66.638
5.40 224.788 61.534
5.41 --undefined-- 55.572
5.42 --undefined-- 49.856
5.43 --undefined-- 46.788
5.44 --undefined-- 44.080
5.45 --undefined-- 43.528
5.46 --undefined-- 50.353
5.47 --undefined-- 58.005
5.48 --undefined-- 63.760
5.49 --undefined-- 67.285
5.50 --undefined-- 70.098
5.51 185.790 72.493
5.52 180.691 73.958
5.53 177.798 74.595
5.54 175.991 74.812
5.55 174.878 74.905
5.56 174.203 74.780
5.57 173.548 74.482
5.58 173.728 74.329
5.59 175.517 74.421
5.60 178.825 74.557
5.61 184.691 74.459
5.62 192.054 73.958
5.63 202.642 73.209
5.64 213.472 72.597
5.65 227.253 72.152
5.66 238.186 71.730
5.67 250.436 71.512
5.68 262.125 71.581
5.69 269.857 71.878
5.70 275.819 72.191
5.71 281.311 72.253
5.72 285.986 72.297
5.73 287.618 72.629
5.74 286.912 73.107
5.75 283.076 73.651
5.76 277.905 74.311
5.77 270.641 75.147
5.78 262.648 76.064
5.79 250.982 76.914
5.80 242.099 77.498
5.81 234.881 77.335
5.82 224.655 76.669
5.83 219.317 --undefined--
5.84 214.390 --undefined--
5.85 --undefined-- --undefined--
5.86 --undefined-- --undefined--
