Time Pitch Intensity
0.01 --undefined-- --undefined--
0.02 --undefined-- --undefined--
0.03 --undefined-- --undefined--
0.04 --undefined-- --undefined--
0.05 --undefined-- 70.410
0.06 --undefined-- 68.638
0.07 --undefined-- 66.077
0.08 --undefined-- 64.597
0.09 91.912 62.903
0.10 92.952 61.526
0.11 94.059 62.594
0.12 95.418 64.709
0.13 100.390 66.594
0.14 103.575 67.926
0.15 109.300 68.826
0.16 114.065 69.284
0.17 115.408 69.251
0.18 117.298 68.811
0.19 119.214 68.068
0.20 121.152 67.090
0.21 123.933 65.521
0.22 124.338 63.169
0.23 123.446 60.270
0.24 117.099 56.312
0.25 --undefined-- 50.506
0.26 --undefined-- 43.738
0.27 --undefined-- 45.303
0.28 --undefined-- 50.924
0.29 --undefined-- 53.050
0.30 --undefined-- 53.210
0.31 --undefined-- 57.205
0.32 128.907 63.293
0.33 120.655 67.119
0.34 117.776 68.699
0.35 110.350 68.692
0.36 107.360 67.598
0.37 104.458 65.379
0.38 101.828 61.230
0.39 99.265 55.036
0.40 97.772 53.803
0.41 98.650 58.700
0.42 99.451 62.595
0.43 95.825 64.874
0.44 95.257 65.783
0.45 89.964 65.565
0.46 90.861 64.555
0.47 91.573 62.910
0.48 89.730 60.243
0.49 88.975 55.580
0.50 --undefined-- 48.684
0.51 --undefined-- 44.409
0.52 --undefined-- 53.209
0.53 --undefined-- 59.778
0.54 110.362 63.019
0.55 110.246 64.203
0.56 110.777 64.786
0.57 111.001 65.659
0.58 110.783 67.119
0.59 111.198 68.648
0.60 111.744 69.273
0.61 111.971 68.689
0.62 111.374 66.909
0.63 107.301 63.517
0.64 --undefined-- 58.106
0.65 --undefined-- 50.801
0.66 --undefined-- 43.905
0.67 --undefined-- 47.475
0.68 --undefined-- 56.973
0.69 --undefined-- 63.407
0.70 --undefined-- 65.984
0.71 --undefined-- 65.050
0.72 --undefined-- 61.276
0.73 --undefined-- 57.862
0.74 --undefined-- 58.523
0.75 --undefined-- 58.956
0.76 --undefined-- 58.331
0.77 --undefined-- 57.781
0.78 --undefined-- 57.135
0.79 --undefined-- 55.880
0.80 --undefined-- 56.467
0.81 --undefined-- 57.769
0.82 --undefined-- 59.011
0.83 --undefined-- 63.165
0.84 94.832 66.398
0.85 95.540 67.633
0.86 92.019 67.632
0.87 91.123 67.446
0.88 90.719 67.574
0.89 90.665 67.610
0.90 94.376 67.460
0.91 96.427 67.199
0.92 98.642 66.767
0.93 101.575 66.196
0.94 102.227 64.635
0.95 99.848 61.039
0.96 --undefined-- 54.809
0.97 --undefined-- 46.309
0.98 --undefined-- 41.875
0.99 --undefined-- 52.832
1.00 --undefined-- 60.757
1.01 --undefined-- 63.720
1.02 --undefined-- 62.540
1.03 --undefined-- 61.491
1.04 123.522 65.761
1.05 122.000 68.624
1.06 118.059 69.534
1.07 116.765 69.404
1.08 115.097 68.417
1.09 114.592 65.815
1.10 114.915 60.938
1.11 115.645 55.627
1.12 114.374 54.467
1.13 112.198 54.560
1.14 108.243 55.321
1.15 102.923 58.778
1.16 --undefined-- 62.806
1.17 92.927 64.659
1.18 85.254 64.543
1.19 82.780 63.404
1.20 82.760 61.453
1.21 80.537 57.932
1.22 80.652 53.107
1.23 78.111 50.667
1.24 80.557 50.536
1.25 83.029 50.911
1.26 --undefined-- 51.203
1.27 --undefined-- 49.792
1.28 --undefined-- 47.248
1.29 --undefined-- 47.045
1.30 --undefined-- 48.048
1.31 --undefined-- 50.212
1.32 --undefined-- 53.305
1.33 --undefined-- 55.631
1.34 --undefined-- 61.085
1.35 --undefined-- 67.171
1.36 106.771 70.349
1.37 106.255 71.332
1.38 104.959 71.353
1.39 102.834 71.069
1.40 101.166 70.677
1.41 99.202 70.190
1.42 97.606 69.333
1.43 97.472 68.080
1.44 98.271 66.461
1.45 --undefined-- 63.696
1.46 --undefined-- 58.957
1.47 --undefined-- 51.995
1.48 --undefined-- 44.127
1.49 --undefined-- 44.083
1.50 --undefined-- 49.549
1.51 --undefined-- 52.792
1.52 --undefined-- 53.876
1.53 --undefined-- 55.355
1.54 --undefined-- 58.949
1.55 --undefined-- 61.018
1.56 115.545 60.807
1.57 115.498 59.408
1.58 115.970 58.564
1.59 115.355 58.610
1.60 113.566 58.629
1.61 110.391 58.376
1.62 105.719 58.252
1.63 --undefined-- 57.815
1.64 --undefined-- 56.621
1.65 --undefined-- 57.038
1.66 --undefined-- 58.150
1.67 --undefined-- 58.116
1.68 --undefined-- 59.353
1.69 122.077 64.210
1.70 121.269 67.747
1.71 118.008 68.981
1.72 114.476 68.859
1.73 112.507 68.181
1.74 110.704 66.693
1.75 --undefined-- 63.383
1.76 107.528 58.094
1.77 103.710 54.579
1.78 102.745 54.369
1.79 100.111 54.333
1.80 99.694 53.957
1.81 97.747 53.339
1.82 97.899 52.852
1.83 98.179 52.595
1.84 96.630 53.030
1.85 94.207 56.330
1.86 93.217 60.466
1.87 90.943 62.912
1.88 89.407 63.823
1.89 88.419 63.892
1.90 87.799 63.691
1.91 85.785 63.426
1.92 87.154 62.706
1.93 85.069 61.315
1.94 85.245 59.686
1.95 85.049 57.936
1.96 84.407 55.391
1.97 --undefined-- 51.275
1.98 --undefined-- 45.899
1.99 --undefined-- 44.865
2.00 --undefined-- 50.520
2.01 --undefined-- 54.265
2.02 --undefined-- 55.872
2.03 --undefined-- 58.478
2.04 85.412 60.438
2.05 85.579 60.949
2.06 85.384 60.762
2.07 81.968 60.134
2.08 83.024 59.331
2.09 85.571 57.926
2.10 83.244 54.919
2.11 83.798 51.578
2.12 85.769 50.817
2.13 87.892 51.244
2.14 89.488 52.028
2.15 92.934 53.684
2.16 98.144 56.849
2.17 98.668 59.970
2.18 99.042 61.969
2.19 101.172 63.308
2.20 101.860 64.107
2.21 102.860 64.135
2.22 103.318 63.264
2.23 99.906 60.927
2.24 --undefined-- 56.438
2.25 --undefined-- 50.213
2.26 --undefined-- 47.340
2.27 --undefined-- 50.181
2.28 --undefined-- 52.418
2.29 --undefined-- 57.124
2.30 --undefined-- 61.432
2.31 85.283 62.548
2.32 85.326 60.971
2.33 --undefined-- 57.515
2.34 --undefined-- 52.143
2.35 --undefined-- 44.826
2.36 --undefined-- 40.328
2.37 --undefined-- 44.736
2.38 --undefined-- 50.947
2.39 --undefined-- 54.163
2.40 --undefined-- 55.565
2.41 --undefined-- 57.314
2.42 --undefined-- 61.904
2.43 100.194 65.866
2.44 85.873 67.381
2.45 85.191 67.240
2.46 82.431 66.429
2.47 80.607 65.465
2.48 81.754 64.623
2.49 84.968 63.651
2.50 91.239 63.358
2.51 93.843 63.990
2.52 96.842 64.219
2.53 90.862 62.966
2.54 91.133 61.279
2.55 --undefined-- 61.367
2.56 --undefined-- 60.888
2.57 --undefined-- 59.467
2.58 --undefined-- 58.195
2.59 --undefined-- 57.232
2.60 --undefined-- 57.143
2.61 86.743 58.343
2.62 86.172 59.769
2.63 --undefined-- 59.449
2.64 --undefined-- 57.487
2.65 --undefined-- 54.500
2.66 --undefined-- 50.092
2.67 --undefined-- 46.924
2.68 --undefined-- 46.926
2.69 --undefined-- 45.936
2.70 --undefined-- 43.451
2.71 --undefined-- 41.287
2.72 --undefined-- 40.430
2.73 --undefined-- 40.058
2.74 --undefined-- 39.468
2.75 --undefined-- 38.795
2.76 --undefined-- 39.071
2.77 --undefined-- 40.116
2.78 --undefined-- 40.250
2.79 --undefined-- 40.026
2.80 --undefined-- 40.455
2.81 --undefined-- 40.733
2.82 --undefined-- 41.173
2.83 --undefined-- 42.250
2.84 --undefined-- 43.505
2.85 --undefined-- 46.421
2.86 --undefined-- 50.216
2.87 --undefined-- 51.267
2.88 --undefined-- 49.259
2.89 --undefined-- 47.524
2.90 --undefined-- 48.389
2.91 --undefined-- 48.820
2.92 --undefined-- 48.301
2.93 --undefined-- 48.337
2.94 --undefined-- 48.926
2.95 --undefined-- 48.852
2.96 --undefined-- 48.345
2.97 --undefined-- 48.175
2.98 --undefined-- 48.191
2.99 --undefined-- 48.043
3.00 --undefined-- 47.475
3.01 --undefined-- 46.813
3.02 --undefined-- 46.843
3.03 --undefined-- 47.169
3.04 --undefined-- 47.143
3.05 --undefined-- 46.923
3.06 --undefined-- 46.759
3.07 --undefined-- 46.708
3.08 --undefined-- 46.552
3.09 --undefined-- 46.102
3.10 --undefined-- 45.479
3.11 --undefined-- 45.006
3.12 --undefined-- 44.904
3.13 --undefined-- 44.888
3.14 --undefined-- 44.393
3.15 --undefined-- 43.416
3.16 --undefined-- 42.144
3.17 --undefined-- 40.511
3.18 --undefined-- 39.470
3.19 --undefined-- 39.143
3.20 --undefined-- 38.768
3.21 --undefined-- 38.612
3.22 --undefined-- 38.403
3.23 --undefined-- 38.281
3.24 --undefined-- 43.074
3.25 --undefined-- 51.072
3.26 --undefined-- 55.912
3.27 --undefined-- 57.577
3.28 113.893 58.117
3.29 114.837 59.518
3.30 117.258 61.063
3.31 120.266 62.290
3.32 123.220 63.273
3.33 126.715 64.132
3.34 128.802 64.740
3.35 129.890 65.020
3.36 132.081 65.020
3.37 134.492 64.552
3.38 134.640 63.205
3.39 133.809 60.769
3.40 129.948 57.326
3.41 128.978 53.201
3.42 --undefined-- 48.139
3.43 --undefined-- 44.399
3.44 --undefined-- 54.583
3.45 --undefined-- 64.466
3.46 --undefined-- 70.478
3.47 --undefined-- 73.193
3.48 145.676 73.909
3.49 142.306 74.238
3.50 140.663 74.479
3.51 140.044 74.408
3.52 139.349 74.038
3.53 138.984 73.261
3.54 138.613 72.140
3.55 138.774 70.904
3.56 138.568 69.525
3.57 138.546 67.904
3.58 138.574 66.339
3.59 138.476 64.931
3.60 138.205 63.611
3.61 136.101 62.522
3.62 131.669 61.358
3.63 126.145 59.978
3.64 122.671 59.194
3.65 117.198 59.355
3.66 111.127 59.896
3.67 105.693 60.767
3.68 101.784 62.036
3.69 99.255 63.430
3.70 99.038 64.487
3.71 94.463 64.665
3.72 93.769 63.686
3.73 94.184 61.574
3.74 94.244 58.508
3.75 98.268 56.114
3.76 101.715 56.572
3.77 104.220 58.307
3.78 107.470 61.995
3.79 116.835 66.148
3.80 118.786 68.636
3.81 120.259 69.409
3.82 121.832 69.208
3.83 123.018 68.977
3.84 124.664 69.017
3.85 125.251 68.953
3.86 126.313 68.854
3.87 126.375 69.135
3.88 125.864 69.613
3.89 125.430 69.783
3.90 125.153 69.396
3.91 125.245 68.431
3.92 125.814 66.972
3.93 126.661 65.393
3.94 124.824 64.431
3.95 120.946 65.050
3.96 120.201 67.137
3.97 119.684 69.221
3.98 123.983 70.471
3.99 122.405 70.778
4.00 113.780 70.663
4.01 112.419 70.672
4.02 110.420 70.361
4.03 109.791 69.737
4.04 110.224 69.483
4.05 110.499 69.753
4.06 110.375 70.154
4.07 109.938 70.337
4.08 108.934 70.133
4.09 108.444 69.481
4.10 108.291 68.694
4.11 107.186 68.231
4.12 106.512 67.907
4.13 100.903 66.886
4.14 96.790 64.483
4.15 95.883 60.692
4.16 98.218 57.657
4.17 101.566 60.235
4.18 105.985 64.136
4.19 108.885 66.469
4.20 109.034 67.240
4.21 109.887 66.924
4.22 112.419 66.140
4.23 115.497 65.490
4.24 118.621 65.544
4.25 121.687 66.266
4.26 125.295 66.370
4.27 126.000 64.425
4.28 119.036 59.602
4.29 --undefined-- 52.392
4.30 --undefined-- 53.726
4.31 --undefined-- 62.486
4.32 --undefined-- 68.411
4.33 125.993 71.375
4.34 127.721 72.190
4.35 126.094 71.909
4.36 123.164 71.430
4.37 122.999 71.417
4.38 123.423 71.849
4.39 123.449 72.191
4.40 123.193 72.239
4.41 122.299 72.120
4.42 121.178 71.841
4.43 119.868 71.278
4.44 119.149 70.161
4.45 118.245 68.003
4.46 114.833 64.386
4.47 115.052 59.318
4.48 111.914 54.375
4.49 110.209 53.399
4.50 112.500 57.617
4.51 114.099 62.877
4.52 116.539 67.139
4.53 117.642 69.747
4.54 116.426 70.613
4.55 113.471 70.273
4.56 111.849 69.597
4.57 110.108 68.348
4.58 --undefined-- 65.113
4.59 --undefined-- 59.341
4.60 104.878 55.039
4.61 104.090 55.574
4.62 102.857 55.998
4.63 101.939 55.833
4.64 98.925 55.770
4.65 96.568 59.439
4.66 --undefined-- 64.915
4.67 87.278 67.529
4.68 85.427 67.624
4.69 84.041 66.658
4.70 84.470 65.704
4.71 86.196 64.669
4.72 86.745 63.550
4.73 84.715 61.961
4.74 83.618 58.756
4.75 83.442 54.590
4.76 88.528 52.462
4.77 88.481 52.100
4.78 87.435 51.945
4.79 88.313 51.832
4.80 88.934 51.917
4.81 88.956 52.041
4.82 88.066 52.019
4.83 88.130 51.961
4.84 88.612 52.138
4.85 88.967 52.417
4.86 88.752 52.440
4.87 88.564 52.217
4.88 87.571 51.919
4.89 87.230 51.434
4.90 85.686 50.754
4.91 84.094 49.886
4.92 83.786 49.504
4.93 --undefined-- 49.993
4.94 --undefined-- 50.550
4.95 --undefined-- 50.636
4.96 --undefined-- 49.905
4.97 --undefined-- 49.084
4.98 --undefined-- 48.573
4.99 --undefined-- 48.113
5.00 --undefined-- 48.791
5.01 --undefined-- 50.472
5.02 --undefined-- 51.768
5.03 --undefined-- 52.579
5.04 --undefined-- 53.075
5.05 --undefined-- 53.986
5.06 --undefined-- 55.504
5.07 86.843 55.780
5.08 85.884 55.057
5.09 85.579 54.672
5.10 85.365 54.748
5.11 84.813 54.903
5.12 84.595 55.137
5.13 84.455 55.144
5.14 84.167 55.284
5.15 85.136 55.955
5.16 84.439 56.469
5.17 83.669 56.662
5.18 83.405 56.496
5.19 82.289 55.465
5.20 82.362 53.376
5.21 --undefined-- 49.888
5.22 --undefined-- 44.996
5.23 --undefined-- 40.985
5.24 --undefined-- 39.134
5.25 --undefined-- 38.088
5.26 --undefined-- 37.736
5.27 --undefined-- 37.511
5.28 --undefined-- 38.921
5.29 --undefined-- 46.533
5.30 --undefined-- 53.338
5.31 --undefined-- 57.540
5.32 --undefined-- 61.460
5.33 --undefined-- 64.733
5.34 92.841 66.115
5.35 90.254 66.065
5.36 92.578 65.547
5.37 93.261 --undefined--
5.38 94.641 --undefined--
5.39 --undefined-- --undefined--
5.40 --undefined-- --undefined--
