Time Pitch Intensity
0.01 --undefined-- --undefined--
0.02 136.094 --undefined--
0.03 130.502 --undefined--
0.04 129.668 --undefined--
0.05 125.027 74.284
0.06 115.919 74.405
0.07 105.226 74.091
0.08 96.368 73.734
0.09 89.183 73.123
0.10 86.267 72.132
0.11 84.976 71.478
0.12 84.164 71.098
0.13 81.761 70.546
0.14 81.500 70.364
0.15 79.984 70.637
0.16 78.466 70.891
0.17 78.072 71.159
0.18 79.481 71.505
0.19 80.569 71.796
0.20 80.438 72.106
0.21 80.144 72.477
0.22 79.578 72.687
0.23 76.326 72.636
0.24 76.442 72.534
0.25 76.131 72.548
0.26 75.539 72.609
0.27 80.845 72.664
0.28 80.812 72.413
0.29 82.550 72.190
0.30 90.959 72.838
0.31 97.178 73.869
0.32 99.189 74.574
0.33 101.718 74.729
0.34 104.523 74.558
0.35 107.975 74.221
0.36 119.291 74.078
0.37 128.126 74.644
0.38 135.575 75.434
0.39 140.894 76.070
0.40 144.498 76.735
0.41 147.884 77.310
0.42 150.916 77.653
0.43 152.857 77.887
0.44 154.569 78.155
0.45 155.932 78.426
0.46 156.502 78.445
0.47 157.422 77.844
0.48 156.584 76.319
0.49 149.748 73.556
0.50 150.525 70.034
0.51 154.659 67.590
0.52 157.373 65.991
0.53 160.605 64.061
0.54 159.483 61.125
0.55 161.451 59.906
0.56 --undefined-- 67.576
0.57 170.669 73.729
0.58 164.035 76.799
0.59 158.256 77.733
0.60 154.433 77.620
0.61 152.357 77.149
0.62 151.356 76.281
0.63 150.504 74.218
0.64 147.472 70.349
0.65 153.128 65.343
0.66 160.019 61.002
0.67 157.559 57.558
0.68 151.342 56.126
0.69 --undefined-- 63.589
0.70 --undefined-- 71.284
0.71 148.433 75.545
0.72 144.253 77.168
0.73 135.136 77.190
0.74 121.556 76.781
0.75 118.793 76.282
0.76 116.137 74.673
0.77 108.888 71.322
0.78 104.903 66.546
0.79 110.383 61.318
0.80 117.603 57.215
0.81 --undefined-- 54.197
0.82 --undefined-- 51.488
0.83 --undefined-- 49.728
0.84 --undefined-- 48.028
0.85 --undefined-- 46.100
0.86 --undefined-- 44.088
0.87 --undefined-- 41.717
0.88 --undefined-- 41.204
0.89 --undefined-- 43.838
0.90 --undefined-- 44.958
0.91 --undefined-- 43.863
0.92 --undefined-- 41.288
0.93 --undefined-- 37.777
0.94 --undefined-- 35.517
0.95 --undefined-- 35.441
0.96 --undefined-- 35.398
0.97 --undefined-- 34.085
0.98 --undefined-- 32.244
0.99 --undefined-- 32.292
1.00 --undefined-- 32.563
1.01 --undefined-- 33.044
1.02 --undefined-- 35.145
1.03 --undefined-- 36.893
1.04 --undefined-- 37.443
1.05 --undefined-- 39.430
1.06 --undefined-- 43.290
1.07 --undefined-- 45.871
1.08 --undefined-- 47.288
1.09 --undefined-- 50.077
1.10 --undefined-- 53.045
1.11 --undefined-- 54.709
1.12 --undefined-- 55.298
1.13 --undefined-- 55.530
1.14 --undefined-- 55.309
1.15 --undefined-- 54.680
1.16 --undefined-- 56.486
1.17 --undefined-- 62.823
1.18 131.151 68.066
1.19 126.160 71.258
1.20 121.162 72.896
1.21 117.134 73.527
1.22 114.541 73.725
1.23 112.834 73.935
1.24 112.511 74.436
1.25 112.627 75.180
1.26 112.664 75.900
1.27 112.681 76.358
1.28 112.440 76.531
1.29 111.634 76.522
1.30 110.215 76.474
1.31 109.825 76.554
1.32 110.746 76.957
1.33 112.052 77.563
1.34 112.340 77.868
1.35 111.981 77.817
1.36 111.232 77.803
1.37 112.154 78.065
1.38 113.308 78.349
1.39 113.354 78.435
1.40 113.506 78.397
1.41 113.701 78.344
1.42 114.601 78.324
1.43 113.271 78.330
1.44 110.285 78.270
1.45 106.062 78.109
1.46 104.293 77.789
1.47 100.808 77.189
1.48 100.564 76.360
1.49 103.270 75.592
1.50 103.628 75.418
1.51 106.661 75.929
1.52 109.314 76.549
1.53 111.068 76.842
1.54 113.103 76.872
1.55 115.790 76.844
1.56 118.829 76.623
1.57 120.274 76.469
1.58 126.705 76.597
1.59 128.504 76.348
1.60 130.703 75.223
1.61 130.283 72.660
1.62 129.666 67.992
1.63 137.799 61.077
1.64 125.276 55.456
1.65 --undefined-- 53.792
1.66 --undefined-- 56.561
1.67 --undefined-- 65.568
1.68 160.462 72.218
1.69 154.004 76.130
1.70 152.103 78.253
1.71 150.949 79.455
1.72 149.872 80.152
1.73 148.508 80.414
1.74 146.665 80.342
1.75 145.259 80.113
1.76 145.035 79.798
1.77 145.489 79.386
1.78 145.866 78.950
1.79 146.080 78.765
1.80 146.631 78.952
1.81 146.761 79.179
1.82 146.541 79.162
1.83 145.743 78.846
1.84 144.446 78.307
1.85 143.155 77.678
1.86 142.531 77.198
1.87 142.785 76.992
1.88 142.774 76.883
1.89 142.242 76.723
1.90 141.302 76.524
1.91 140.083 76.287
1.92 138.945 76.074
1.93 138.407 75.960
1.94 137.882 75.904
1.95 137.066 75.544
1.96 135.791 73.982
1.97 131.452 70.302
1.98 --undefined-- 64.154
1.99 --undefined-- 57.593
2.00 --undefined-- 59.511
2.01 --undefined-- 61.988
2.02 --undefined-- 61.501
2.03 --undefined-- 60.335
2.04 --undefined-- 61.126
2.05 --undefined-- 61.853
2.06 --undefined-- 62.702
2.07 130.572 66.548
2.08 131.364 70.895
2.09 110.641 73.622
2.10 88.649 74.669
2.11 86.846 74.553
2.12 --undefined-- 73.890
2.13 --undefined-- 72.999
2.14 --undefined-- 71.644
2.15 --undefined-- 70.454
2.16 --undefined-- 69.824
2.17 --undefined-- 69.826
2.18 --undefined-- 70.187
2.19 76.013 70.826
2.20 81.367 71.511
2.21 84.931 71.867
2.22 95.002 72.068
2.23 101.690 72.734
2.24 105.036 73.645
2.25 110.050 75.171
2.26 126.118 77.522
2.27 131.041 79.291
2.28 133.306 79.884
2.29 135.788 79.799
2.30 136.573 79.456
2.31 137.059 78.688
2.32 130.919 77.111
2.33 129.076 74.403
2.34 128.138 70.075
2.35 136.608 63.727
2.36 136.985 57.797
2.37 133.595 56.530
2.38 128.736 55.870
2.39 --undefined-- 54.738
2.40 --undefined-- 54.821
2.41 --undefined-- 55.795
2.42 --undefined-- 57.205
2.43 --undefined-- 58.553
2.44 --undefined-- 58.774
2.45 --undefined-- 58.254
2.46 --undefined-- 58.245
2.47 --undefined-- 58.817
2.48 --undefined-- 59.154
2.49 --undefined-- 58.451
2.50 --undefined-- 57.414
2.51 --undefined-- 57.507
2.52 --undefined-- 57.576
2.53 --undefined-- 56.756
2.54 --undefined-- 55.639
2.55 --undefined-- 55.438
2.56 --undefined-- 55.523
2.57 --undefined-- 55.148
2.58 163.579 54.775
2.59 163.663 54.035
2.60 152.449 52.468
2.61 --undefined-- 49.394
2.62 --undefined-- 44.675
2.63 --undefined-- 40.278
2.64 --undefined-- 40.869
2.65 --undefined-- 46.103
2.66 --undefined-- 53.095
2.67 --undefined-- 63.108
2.68 --undefined-- 70.758
2.69 134.265 75.138
2.70 125.593 77.203
2.71 122.098 77.941
2.72 117.132 77.939
2.73 110.640 77.706
2.74 109.911 77.891
2.75 107.604 78.143
2.76 106.312 77.724
2.77 105.917 76.451
2.78 103.876 74.353
2.79 99.674 71.435
2.80 99.578 67.714
2.81 102.310 62.874
2.82 --undefined-- 58.396
2.83 --undefined-- 60.237
2.84 --undefined-- 63.779
2.85 --undefined-- 66.666
2.86 --undefined-- 71.899
2.87 150.869 76.867
2.88 150.533 78.972
2.89 139.212 78.996
2.90 129.827 78.378
2.91 120.756 77.711
2.92 118.917 76.941
2.93 108.562 75.709
2.94 --undefined-- 73.703
2.95 --undefined-- 70.784
2.96 --undefined-- 68.245
2.97 --undefined-- 66.031
2.98 --undefined-- 64.311
2.99 --undefined-- 64.399
3.00 82.718 66.902
3.01 88.094 70.262
3.02 83.767 73.144
3.03 85.829 75.155
3.04 87.278 76.035
3.05 86.436 76.116
3.06 89.377 75.867
3.07 89.679 75.424
3.08 90.151 74.941
3.09 90.190 74.685
3.10 88.670 74.458
3.11 87.598 73.825
3.12 89.150 72.450
3.13 --undefined-- 69.318
3.14 --undefined-- 63.772
3.15 --undefined-- 56.679
3.16 --undefined-- 50.695
3.17 --undefined-- 47.960
3.18 --undefined-- 45.965
3.19 --undefined-- 49.024
3.20 --undefined-- 60.916
3.21 --undefined-- 70.297
3.22 --undefined-- 75.918
3.23 126.610 78.527
3.24 122.968 79.060
3.25 117.980 78.441
3.26 113.512 77.663
3.27 111.985 77.573
3.28 110.275 77.860
3.29 109.408 78.271
3.30 108.552 78.604
3.31 108.380 78.547
3.32 109.024 78.109
3.33 109.878 77.508
3.34 110.994 76.953
3.35 111.006 76.544
3.36 111.574 76.307
3.37 112.309 76.093
3.38 111.753 75.705
3.39 110.723 75.161
3.40 110.450 74.727
3.41 112.559 74.450
3.42 113.158 73.969
3.43 111.888 72.602
3.44 105.307 69.810
3.45 113.930 65.755
3.46 113.527 60.645
3.47 --undefined-- 58.869
3.48 --undefined-- 67.745
3.49 --undefined-- 74.509
3.50 128.258 77.934
3.51 123.481 78.716
3.52 105.813 78.112
3.53 94.844 77.623
3.54 93.072 77.455
3.55 93.765 77.235
3.56 95.965 76.931
3.57 94.781 76.587
3.58 93.953 76.270
3.59 94.852 75.597
3.60 95.430 74.359
3.61 96.915 73.317
3.62 98.198 72.963
3.63 99.119 73.029
3.64 100.893 73.211
3.65 102.856 73.056
3.66 102.862 72.019
3.67 99.645 69.959
3.68 97.328 67.377
3.69 96.935 64.969
3.70 103.995 67.263
3.71 126.225 73.668
3.72 127.441 77.697
3.73 126.695 78.996
3.74 119.640 78.602
3.75 116.658 77.973
3.76 116.782 77.721
3.77 116.266 77.592
3.78 113.803 77.279
3.79 111.463 76.485
3.80 99.686 74.667
3.81 --undefined-- 70.856
3.82 --undefined-- 64.492
3.83 --undefined-- 58.029
3.84 --undefined-- 54.459
3.85 --undefined-- 52.742
3.86 --undefined-- 52.914
3.87 --undefined-- 53.529
3.88 --undefined-- 53.618
3.89 --undefined-- 53.841
3.90 --undefined-- 54.286
3.91 --undefined-- 53.936
3.92 --undefined-- 54.644
3.93 --undefined-- 55.877
3.94 --undefined-- 54.545
3.95 --undefined-- 51.226
3.96 --undefined-- 49.974
3.97 --undefined-- 50.766
3.98 --undefined-- 51.364
3.99 --undefined-- 51.751
4.00 --undefined-- 52.863
4.01 --undefined-- 53.595
4.02 --undefined-- 53.191
4.03 --undefined-- 51.711
4.04 --undefined-- 50.198
4.05 --undefined-- 49.566
4.06 --undefined-- 48.622
4.07 --undefined-- 46.246
4.08 --undefined-- 43.694
4.09 --undefined-- 43.928
4.10 --undefined-- 46.281
4.11 --undefined-- 57.652
4.12 --undefined-- 67.822
4.13 193.321 73.935
4.14 184.724 77.333
4.15 181.689 78.880
4.16 175.665 79.343
4.17 165.433 79.316
4.18 156.682 79.409
4.19 150.120 79.566
4.20 146.978 79.274
4.21 143.973 77.792
4.22 139.568 74.169
4.23 115.499 67.819
4.24 146.630 60.182
4.25 146.611 56.512
4.26 146.724 55.594
4.27 --undefined-- 53.369
4.28 --undefined-- 50.709
4.29 --undefined-- 57.884
4.30 --undefined-- 68.425
4.31 186.058 75.011
4.32 167.679 78.110
4.33 163.636 79.104
4.34 164.037 79.365
4.35 163.839 79.531
4.36 163.103 79.524
4.37 161.682 79.194
4.38 159.068 78.432
4.39 154.265 77.068
4.40 148.585 74.881
4.41 149.733 71.373
4.42 157.912 66.312
4.43 --undefined-- 61.215
4.44 --undefined-- 58.853
4.45 --undefined-- 57.290
4.46 --undefined-- 56.355
4.47 --undefined-- 57.905
4.48 --undefined-- 66.737
4.49 --undefined-- 73.836
4.50 153.135 77.208
4.51 142.296 77.801
4.52 134.488 77.654
4.53 132.273 78.086
4.54 132.517 78.268
4.55 133.839 78.040
4.56 135.202 77.646
4.57 137.445 77.374
4.58 139.398 76.891
4.59 139.946 75.043
4.60 131.037 70.891
4.61 138.670 65.180
4.62 140.382 64.883
4.63 --undefined-- 71.927
4.64 --undefined-- 76.499
4.65 146.323 78.012
4.66 137.004 77.742
4.67 131.535 77.348
4.68 129.405 77.280
4.69 127.888 77.045
4.70 126.765 76.103
4.71 123.950 73.842
4.72 119.160 69.691
4.73 125.610 63.532
4.74 124.373 57.414
4.75 --undefined-- 55.637
4.76 --undefined-- 58.303
4.77 --undefined-- 62.113
4.78 --undefined-- 66.348
4.79 162.730 71.744
4.80 138.673 75.485
4.81 128.885 77.571
4.82 122.630 78.785
4.83 119.589 79.178
4.84 115.922 78.809
4.85 113.983 78.634
4.86 114.196 78.955
4.87 114.127 78.833
4.88 114.042 77.870
4.89 115.780 76.533
4.90 120.395 75.887
4.91 125.354 75.985
4.92 128.614 76.659
4.93 136.546 78.055
4.94 136.398 79.163
4.95 136.543 79.610
4.96 136.178 79.622
4.97 135.509 79.112
4.98 134.658 78.043
4.99 134.207 76.474
5.00 133.777 74.520
5.01 132.482 72.864
5.02 130.725 71.953
5.03 139.672 71.209
5.04 138.323 70.719
5.05 136.759 70.960
5.06 132.066 71.628
5.07 129.132 72.525
5.08 124.813 73.685
5.09 112.245 74.922
5.10 107.660 76.268
5.11 104.834 77.450
5.12 102.489 77.950
5.13 104.487 77.775
5.14 105.939 77.349
5.15 106.930 76.543
5.16 107.796 74.987
5.17 104.447 72.452
5.18 97.937 68.695
5.19 --undefined-- 64.023
5.20 --undefined-- 58.131
5.21 --undefined-- 51.645
5.22 --undefined-- 50.798
5.23 --undefined-- 54.397
5.24 --undefined-- 58.024
5.25 --undefined-- 60.270
5.26 --undefined-- 65.286
5.27 168.160 72.307
5.28 156.834 --undefined--
5.29 150.429 --undefined--
5.30 --undefined-- --undefined--
5.31 --undefined-- --undefined--
