Time Pitch Intensity
0.01 --undefined-- --undefined--
0.02 211.430 --undefined--
0.03 202.848 --undefined--
0.04 198.864 --undefined--
0.05 197.681 68.602
0.06 197.092 67.926
0.07 197.305 68.188
0.08 197.370 68.876
0.09 197.693 68.490
0.10 197.301 67.420
0.11 196.737 66.834
0.12 196.224 67.145
0.13 197.056 67.837
0.14 198.958 67.892
0.15 201.623 67.127
0.16 202.102 66.302
0.17 201.841 66.294
0.18 201.083 66.938
0.19 200.078 67.245
0.20 197.745 67.263
0.21 196.217 68.096
0.22 195.936 69.390
0.23 194.635 70.464
0.24 193.603 71.155
0.25 191.800 71.502
0.26 190.295 72.068
0.27 193.607 72.659
0.28 194.473 72.294
0.29 193.662 70.824
0.30 192.745 69.291
0.31 193.156 69.093
0.32 193.703 70.161
0.33 194.578 71.166
0.34 195.090 71.546
0.35 195.447 71.951
0.36 198.516 72.499
0.37 200.495 72.111
0.38 209.597 70.419
0.39 222.772 69.020
0.40 235.335 68.676
0.41 247.505 68.719
0.42 257.577 69.291
0.43 261.398 69.438
0.44 263.138 68.943
0.45 265.796 68.784
0.46 265.856 68.599
0.47 265.459 68.891
0.48 263.427 69.501
0.49 258.338 69.585
0.50 249.371 69.861
0.51 237.848 71.382
0.52 220.507 73.449
0.53 209.258 74.450
0.54 203.454 73.868
0.55 202.356 72.131
0.56 200.801 70.647
0.57 195.950 69.735
0.58 191.594 68.908
0.59 188.009 68.715
0.60 184.371 69.278
0.61 181.883 70.301
0.62 180.718 71.324
0.63 180.366 71.613
0.64 180.517 71.181
0.65 180.549 70.977
0.66 178.166 71.251
0.67 175.835 71.748
0.68 173.838 72.336
0.69 172.632 72.560
0.70 172.525 72.184
0.71 173.112 71.574
0.72 173.938 71.071
0.73 174.698 70.499
0.74 176.168 69.916
0.75 177.438 69.030
0.76 176.564 66.755
0.77 293.034 64.294
0.78 294.874 65.544
0.79 --undefined-- 66.853
0.80 --undefined-- 65.906
0.81 --undefined-- 62.727
0.82 --undefined-- 59.938
0.83 --undefined-- 63.911
0.84 --undefined-- 68.339
0.85 --undefined-- 69.645
0.86 --undefined-- 68.223
0.87 204.143 68.043
0.88 193.133 70.279
0.89 187.311 71.696
0.90 183.025 72.110
0.91 183.027 71.932
0.92 184.036 71.829
0.93 186.679 72.120
0.94 190.602 72.380
0.95 195.381 71.996
0.96 204.591 70.707
0.97 227.733 69.327
0.98 242.116 68.634
0.99 261.424 68.128
1.00 277.075 68.128
1.01 299.173 69.001
1.02 161.193 70.417
1.03 171.927 71.822
1.04 176.603 72.491
1.05 176.518 71.642
1.06 168.692 68.827
1.07 159.054 65.114
1.08 170.841 62.196
1.09 171.135 59.589
1.10 176.050 57.768
1.11 176.454 56.201
1.12 --undefined-- 56.916
1.13 --undefined-- 59.907
1.14 --undefined-- 61.967
1.15 --undefined-- 64.148
1.16 --undefined-- 65.367
1.17 --undefined-- 64.073
1.18 --undefined-- 61.451
1.19 --undefined-- 61.351
1.20 --undefined-- 62.115
1.21 245.426 62.679
1.22 224.614 64.337
1.23 219.917 66.135
1.24 213.109 67.385
1.25 208.368 68.209
1.26 207.629 68.456
1.27 209.198 68.259
1.28 210.874 68.280
1.29 211.955 68.708
1.30 212.718 69.116
1.31 212.249 69.309
1.32 210.275 69.402
1.33 208.718 69.543
1.34 205.200 69.886
1.35 200.868 70.214
1.36 190.501 69.828
1.37 187.421 67.924
1.38 190.361 63.928
1.39 192.186 59.831
1.40 --undefined-- 60.443
1.41 --undefined-- 61.426
1.42 --undefined-- 60.491
1.43 --undefined-- 57.817
1.44 --undefined-- 57.389
1.45 --undefined-- 59.307
1.46 --undefined-- 60.803
1.47 --undefined-- 62.108
1.48 --undefined-- 62.270
1.49 --undefined-- 60.905
1.50 211.229 61.128
1.51 214.643 63.289
1.52 212.525 65.058
1.53 205.395 66.327
1.54 202.520 67.116
1.55 203.582 67.789
1.56 206.064 68.618
1.57 208.348 69.222
1.58 210.658 69.093
1.59 213.152 68.019
1.60 207.077 65.736
1.61 194.394 61.741
1.62 200.824 57.892
1.63 --undefined-- 56.978
1.64 --undefined-- 55.600
1.65 --undefined-- 54.111
1.66 --undefined-- 53.968
1.67 276.113 58.491
1.68 273.045 63.781
1.69 252.259 67.195
1.70 254.183 69.319
1.71 257.328 70.559
1.72 259.340 70.817
1.73 262.413 70.287
1.74 265.714 69.311
1.75 268.129 68.160
1.76 267.284 67.396
1.77 261.142 67.002
1.78 251.788 66.506
1.79 245.546 65.303
1.80 195.340 62.738
1.81 195.991 59.318
1.82 --undefined-- 58.229
1.83 --undefined-- 60.606
1.84 --undefined-- 64.201
1.85 --undefined-- 67.097
1.86 205.679 68.391
1.87 197.985 68.768
1.88 193.545 69.358
1.89 190.509 69.592
1.90 188.480 68.814
1.91 186.421 67.436
1.92 184.680 65.442
1.93 185.386 62.170
1.94 187.737 58.448
1.95 190.527 58.378
1.96 --undefined-- 61.092
1.97 --undefined-- 63.158
1.98 197.295 66.098
1.99 198.826 68.773
2.00 197.788 69.601
2.01 198.175 68.765
2.02 206.806 67.542
2.03 216.365 68.126
2.04 222.727 70.038
2.05 230.039 71.301
2.06 237.024 71.254
2.07 245.131 69.586
2.08 255.535 66.721
2.09 252.676 64.257
2.10 243.571 62.112
2.11 246.922 58.394
2.12 --undefined-- 53.232
2.13 --undefined-- 50.333
2.14 --undefined-- 48.400
2.15 --undefined-- 47.827
2.16 --undefined-- 49.506
2.17 --undefined-- 51.114
2.18 --undefined-- 53.632
2.19 --undefined-- 57.629
2.20 --undefined-- 60.250
2.21 --undefined-- 60.049
2.22 --undefined-- 57.635
2.23 --undefined-- 57.352
2.24 --undefined-- 58.024
2.25 --undefined-- 57.713
2.26 --undefined-- 57.276
2.27 --undefined-- 56.264
2.28 --undefined-- 58.359
2.29 --undefined-- 60.842
2.30 --undefined-- 60.782
2.31 236.649 60.168
2.32 214.834 62.117
2.33 207.152 64.406
2.34 210.525 65.868
2.35 210.561 66.902
2.36 208.718 67.575
2.37 207.153 67.835
2.38 206.126 67.949
2.39 205.223 68.038
2.40 204.342 68.056
2.41 204.477 68.438
2.42 204.748 69.222
2.43 203.756 69.098
2.44 200.286 67.067
2.45 187.164 64.352
2.46 189.479 64.316
2.47 193.019 65.314
2.48 206.962 65.178
2.49 222.177 64.000
2.50 221.078 66.196
2.51 218.317 69.471
2.52 203.618 70.785
2.53 195.751 71.053
2.54 174.712 70.886
2.55 173.313 70.281
2.56 176.710 69.752
2.57 185.425 69.679
2.58 191.969 69.688
2.59 211.275 69.605
2.60 226.405 70.396
2.61 239.632 71.293
2.62 251.708 70.824
2.63 276.434 69.102
2.64 291.004 67.552
2.65 295.925 66.540
2.66 294.520 65.136
2.67 --undefined-- 63.930
2.68 --undefined-- 63.209
2.69 190.543 62.000
2.70 190.885 61.210
2.71 --undefined-- 60.537
2.72 --undefined-- 58.208
2.73 --undefined-- 54.625
2.74 --undefined-- 54.756
2.75 --undefined-- 56.714
2.76 --undefined-- 57.321
2.77 --undefined-- 56.326
2.78 --undefined-- 54.293
2.79 --undefined-- 53.887
2.80 235.220 57.624
2.81 217.141 61.460
2.82 206.956 63.434
2.83 194.890 63.869
2.84 186.395 63.611
2.85 184.739 63.730
2.86 182.796 64.037
2.87 178.550 63.910
2.88 174.147 63.582
2.89 169.733 63.264
2.90 168.884 62.615
2.91 170.134 61.472
2.92 169.596 60.252
2.93 168.293 58.814
2.94 --undefined-- 56.330
2.95 --undefined-- 53.212
2.96 --undefined-- 54.027
2.97 --undefined-- 60.302
2.98 --undefined-- 65.230
2.99 192.941 67.747
3.00 186.119 68.599
3.01 182.900 68.609
3.02 180.819 68.333
3.03 179.737 68.112
3.04 180.288 67.782
3.05 180.050 67.317
3.06 180.619 67.039
3.07 180.677 66.853
3.08 179.366 66.060
3.09 178.751 64.088
3.10 --undefined-- 61.603
3.11 --undefined-- 59.170
3.12 --undefined-- 57.953
3.13 --undefined-- 59.300
3.14 204.590 62.794
3.15 195.232 66.840
3.16 191.009 69.559
3.17 190.405 70.984
3.18 192.706 71.333
3.19 199.742 70.673
3.20 211.597 69.788
3.21 220.159 70.136
3.22 227.185 70.424
3.23 236.891 69.035
3.24 238.792 65.647
3.25 229.237 61.207
3.26 238.351 58.291
3.27 --undefined-- 58.887
3.28 --undefined-- 61.171
3.29 --undefined-- 61.264
3.30 --undefined-- 58.458
3.31 --undefined-- 54.135
3.32 --undefined-- 52.602
3.33 --undefined-- 55.596
3.34 --undefined-- 57.844
3.35 --undefined-- 57.766
3.36 --undefined-- 56.357
3.37 --undefined-- 55.789
3.38 --undefined-- 55.838
3.39 --undefined-- 56.281
3.40 --undefined-- 58.345
3.41 233.443 62.261
3.42 212.877 66.041
3.43 208.188 69.129
3.44 208.680 70.998
3.45 208.105 71.425
3.46 203.192 70.548
3.47 196.177 69.582
3.48 193.219 69.879
3.49 193.206 70.584
3.50 193.171 70.384
3.51 192.040 68.623
3.52 191.416 65.487
3.53 --undefined-- 63.453
3.54 --undefined-- 62.828
3.55 --undefined-- 60.601
3.56 --undefined-- 60.180
3.57 --undefined-- 60.649
3.58 --undefined-- 58.167
3.59 --undefined-- 53.955
3.60 --undefined-- 52.340
3.61 --undefined-- 52.952
3.62 --undefined-- 55.893
3.63 --undefined-- 59.118
3.64 --undefined-- 61.541
3.65 --undefined-- 63.862
3.66 266.385 66.575
3.67 260.606 68.747
3.68 257.738 70.238
3.69 256.061 71.217
3.70 256.157 71.839
3.71 258.514 72.277
3.72 261.544 72.410
3.73 264.995 71.815
3.74 269.247 70.732
3.75 270.112 69.784
3.76 266.777 68.313
3.77 262.009 65.282
3.78 260.718 61.207
3.79 264.099 58.132
3.80 268.431 55.234
3.81 267.619 51.839
3.82 --undefined-- 50.600
3.83 --undefined-- 52.404
3.84 --undefined-- 57.741
3.85 297.894 63.138
3.86 279.486 66.040
3.87 278.428 67.265
3.88 279.512 67.847
3.89 279.496 68.169
3.90 276.873 68.219
3.91 271.292 67.794
3.92 264.809 67.052
3.93 260.185 66.999
3.94 254.280 68.003
3.95 245.052 69.287
3.96 --undefined-- 70.722
3.97 --undefined-- 72.104
3.98 185.835 72.932
3.99 178.271 73.152
4.00 176.532 73.016
4.01 177.573 72.524
4.02 178.182 71.702
4.03 180.620 70.813
4.04 183.319 70.158
4.05 185.462 69.961
4.06 191.968 69.946
4.07 195.765 69.777
4.08 201.103 69.356
4.09 208.643 69.916
4.10 219.188 72.579
4.11 221.556 74.981
4.12 227.511 76.629
4.13 231.479 77.661
4.14 235.141 77.617
4.15 239.021 76.488
4.16 243.359 74.905
4.17 247.215 73.196
4.18 249.292 70.605
4.19 251.457 66.642
4.20 247.949 61.817
4.21 245.383 57.537
4.22 245.945 55.862
4.23 247.158 55.060
4.24 --undefined-- 55.764
4.25 --undefined-- 57.399
4.26 251.911 57.780
4.27 250.828 57.900
4.28 249.630 58.993
4.29 288.805 58.424
4.30 288.222 55.595
4.31 --undefined-- 53.241
4.32 --undefined-- 53.719
4.33 --undefined-- 55.567
4.34 --undefined-- 56.271
4.35 --undefined-- 55.107
4.36 --undefined-- 54.164
4.37 --undefined-- 55.829
4.38 --undefined-- 57.756
4.39 --undefined-- 57.710
4.40 --undefined-- 55.181
4.41 --undefined-- 52.734
4.42 --undefined-- 52.087
4.43 --undefined-- 50.799
4.44 --undefined-- 49.797
4.45 --undefined-- 49.422
4.46 --undefined-- 50.080
4.47 --undefined-- 52.209
4.48 --undefined-- 53.377
4.49 --undefined-- 54.022
4.50 --undefined-- 54.902
4.51 --undefined-- 56.443
4.52 --undefined-- 58.341
4.53 --undefined-- 58.215
4.54 --undefined-- 54.933
4.55 --undefined-- 50.644
4.56 --undefined-- 54.336
4.57 --undefined-- 60.908
4.58 --undefined-- 65.090
4.59 --undefined-- 67.017
4.60 276.599 67.357
4.61 274.915 67.655
4.62 265.356 70.063
4.63 270.849 72.470
4.64 281.408 74.268
4.65 290.151 75.512
4.66 299.423 76.074
4.67 154.998 75.854
4.68 162.023 75.083
4.69 169.419 74.593
4.70 173.987 74.800
4.71 177.942 75.327
4.72 180.899 76.247
4.73 181.234 77.302
4.74 180.649 77.550
4.75 177.909 76.353
4.76 173.120 73.316
4.77 162.915 68.108
4.78 171.934 61.528
4.79 173.389 58.422
4.80 173.249 58.305
4.81 186.141 59.963
4.82 186.379 65.347
4.83 180.811 70.191
4.84 178.995 72.769
4.85 173.679 73.970
4.86 171.419 74.852
4.87 170.189 75.600
4.88 169.305 75.817
4.89 168.943 75.552
4.90 169.335 75.179
4.91 170.278 74.698
4.92 170.686 73.843
4.93 171.770 72.495
4.94 173.340 70.903
4.95 176.019 --undefined--
4.96 177.626 --undefined--
4.97 --undefined-- --undefined--
4.98 --undefined-- --undefined--
