Time Pitch Intensity
0.01 --undefined-- --undefined--
0.02 190.747 --undefined--
0.03 188.915 --undefined--
0.04 187.128 --undefined--
0.05 185.645 79.768
0.06 183.853 79.913
0.07 181.921 79.917
0.08 177.959 79.472
0.09 167.975 77.964
0.10 160.099 74.775
0.11 167.878 70.629
0.12 162.117 67.029
0.13 157.117 63.988
0.14 155.902 64.610
0.15 156.293 68.866
0.16 157.826 73.552
0.17 156.345 76.777
0.18 150.345 77.743
0.19 138.847 76.799
0.20 130.550 75.010
0.21 127.524 73.714
0.22 125.768 73.203
0.23 123.928 72.995
0.24 123.986 73.003
0.25 123.760 73.032
0.26 122.964 72.626
0.27 121.821 71.601
0.28 121.040 69.917
0.29 117.693 67.380
0.30 117.839 64.091
0.31 121.178 61.599
0.32 130.318 64.507
0.33 138.456 70.461
0.34 136.605 74.619
0.35 136.084 76.858
0.36 134.647 77.772
0.37 134.006 78.032
0.38 133.977 78.136
0.39 135.838 78.348
0.40 139.857 78.398
0.41 142.160 77.489
0.42 140.556 74.749
0.43 136.854 70.213
0.44 149.542 69.883
0.45 166.796 74.664
0.46 166.441 77.514
0.47 159.908 78.369
0.48 159.494 78.264
0.49 161.292 78.137
0.50 162.460 78.184
0.51 163.238 78.218
0.52 163.339 78.230
0.53 163.515 78.537
0.54 164.833 78.769
0.55 166.389 78.273
0.56 161.138 77.119
0.57 155.224 75.806
0.58 147.555 74.856
0.59 142.397 74.332
0.60 138.426 73.950
0.61 135.931 73.771
0.62 133.778 73.813
0.63 132.366 73.993
0.64 131.156 74.353
0.65 131.016 74.876
0.66 130.944 75.386
0.67 130.955 75.700
0.68 130.095 75.675
0.69 126.407 74.886
0.70 120.968 73.622
0.71 125.259 74.000
0.72 123.392 75.738
0.73 120.248 77.185
0.74 118.450 77.957
0.75 116.003 78.057
0.76 114.081 77.729
0.77 114.646 77.086
0.78 116.924 76.014
0.79 117.280 74.232
0.80 115.073 70.975
0.81 124.685 66.407
0.82 129.141 62.508
0.83 129.525 59.196
0.84 131.511 55.635
0.85 --undefined-- 53.328
0.86 --undefined-- 58.870
0.87 189.626 66.984
0.88 183.995 72.200
0.89 178.850 75.026
0.90 179.837 76.240
0.91 177.947 76.413
0.92 172.949 75.836
0.93 166.114 74.552
0.94 160.483 72.067
0.95 149.529 67.568
0.96 --undefined-- 61.228
0.97 --undefined-- 57.880
0.98 --undefined-- 58.425
0.99 --undefined-- 58.850
1.00 --undefined-- 59.794
1.01 136.149 64.077
1.02 133.012 68.207
1.03 123.485 70.432
1.04 117.890 71.199
1.05 112.287 71.265
1.06 109.409 71.219
1.07 108.910 71.284
1.08 108.255 71.367
1.09 107.732 71.347
1.10 108.138 71.420
1.11 109.542 71.674
1.12 110.069 71.847
1.13 111.401 71.870
1.14 113.233 71.797
1.15 115.521 71.944
1.16 118.259 72.582
1.17 119.954 73.387
1.18 120.431 73.568
1.19 120.481 72.189
1.20 --undefined-- 68.495
1.21 --undefined-- 62.072
1.22 --undefined-- 56.390
1.23 --undefined-- 58.593
1.24 --undefined-- 64.229
1.25 --undefined-- 69.438
1.26 123.410 71.906
1.27 118.124 71.925
1.28 109.722 70.622
1.29 105.012 69.421
1.30 101.805 68.916
1.31 100.366 68.564
1.32 99.588 68.165
1.33 99.594 68.023
1.34 100.040 68.083
1.35 101.082 68.282
1.36 101.798 68.407
1.37 102.229 67.970
1.38 99.348 66.634
1.39 96.984 64.636
1.40 97.144 62.372
1.41 102.397 59.745
1.42 105.152 56.583
1.43 --undefined-- 52.936
1.44 --undefined-- 53.790
1.45 --undefined-- 62.477
1.46 --undefined-- 68.188
1.47 116.958 70.666
1.48 113.072 71.151
1.49 111.106 71.054
1.50 110.590 71.064
1.51 111.245 71.230
1.52 112.073 71.593
1.53 113.696 72.043
1.54 114.096 72.276
1.55 114.300 72.098
1.56 114.086 71.048
1.57 108.900 68.509
1.58 112.228 64.772
1.59 115.080 60.548
1.60 --undefined-- 55.723
1.61 --undefined-- 55.763
1.62 --undefined-- 64.011
1.63 --undefined-- 70.167
1.64 142.757 73.184
1.65 137.994 74.113
1.66 137.462 74.324
1.67 138.982 74.523
1.68 141.484 74.892
1.69 142.172 75.550
1.70 146.079 76.332
1.71 147.826 76.912
1.72 149.398 77.236
1.73 151.311 77.266
1.74 152.780 77.154
1.75 152.485 77.193
1.76 151.726 77.354
1.77 150.443 77.442
1.78 148.777 77.320
1.79 147.596 76.953
1.80 147.363 76.786
1.81 148.154 77.220
1.82 150.122 77.859
1.83 151.797 78.273
1.84 151.520 78.305
1.85 150.168 77.808
1.86 146.646 76.822
1.87 142.319 75.973
1.88 138.489 75.736
1.89 135.307 75.872
1.90 131.148 76.084
1.91 127.044 76.256
1.92 123.039 76.135
1.93 119.965 75.789
1.94 118.002 75.105
1.95 114.277 73.604
1.96 110.021 71.032
1.97 103.147 67.418
1.98 113.501 63.750
1.99 118.466 60.280
2.00 --undefined-- 55.554
2.01 --undefined-- 50.925
2.02 --undefined-- 53.493
2.03 --undefined-- 61.834
2.04 --undefined-- 69.962
2.05 175.594 74.952
2.06 156.848 77.006
2.07 155.674 77.360
2.08 156.115 77.401
2.09 157.721 77.572
2.10 156.386 77.299
2.11 151.010 76.097
2.12 156.403 74.925
2.13 157.054 74.712
2.14 159.468 74.964
2.15 161.334 75.220
2.16 161.809 75.149
2.17 162.037 74.835
2.18 161.806 74.484
2.19 161.172 74.117
2.20 160.722 73.686
2.21 159.593 73.127
2.22 157.132 72.277
2.23 151.764 71.090
2.24 151.182 69.410
2.25 150.064 66.434
2.26 156.101 62.406
2.27 158.301 60.605
2.28 --undefined-- 61.044
2.29 --undefined-- 61.249
2.30 --undefined-- 60.672
2.31 --undefined-- 66.061
2.32 168.030 72.434
2.33 166.146 75.811
2.34 162.840 77.084
2.35 159.165 77.097
2.36 155.630 75.903
2.37 149.382 73.716
2.38 149.548 72.383
2.39 149.782 72.482
2.40 150.375 72.826
2.41 150.060 73.027
2.42 149.527 73.126
2.43 149.177 73.317
2.44 149.641 73.595
2.45 149.676 73.826
2.46 149.319 73.956
2.47 148.729 73.952
2.48 148.377 73.902
2.49 148.001 73.921
2.50 147.583 73.956
2.51 147.397 73.963
2.52 147.280 73.995
2.53 146.802 73.986
2.54 146.391 73.688
2.55 145.219 72.826
2.56 142.344 71.319
2.57 141.776 69.316
2.58 141.476 66.475
2.59 138.544 62.300
2.60 134.696 57.567
2.61 137.868 53.574
2.62 --undefined-- 49.704
2.63 --undefined-- 46.768
2.64 --undefined-- 45.063
2.65 --undefined-- 42.599
2.66 --undefined-- 40.015
2.67 --undefined-- 39.425
2.68 --undefined-- 39.421
2.69 --undefined-- 37.902
2.70 --undefined-- 35.799
2.71 --undefined-- 35.337
2.72 --undefined-- 45.235
2.73 --undefined-- 60.421
2.74 --undefined-- 70.277
2.75 --undefined-- 75.852
2.76 135.381 78.358
2.77 129.461 79.037
2.78 124.630 78.892
2.79 120.699 78.470
2.80 119.097 77.937
2.81 118.742 77.069
2.82 119.683 76.327
2.83 120.456 76.271
2.84 120.283 76.460
2.85 119.540 76.487
2.86 118.977 76.342
2.87 119.183 76.184
2.88 120.362 76.141
2.89 122.054 76.399
2.90 123.478 76.933
2.91 124.541 77.376
2.92 124.444 77.340
2.93 123.919 76.093
2.94 119.881 72.674
2.95 116.422 67.053
2.96 118.777 61.544
2.97 117.116 56.800
2.98 --undefined-- 53.380
2.99 --undefined-- 62.042
3.00 --undefined-- 70.235
3.01 --undefined-- 74.732
3.02 119.947 76.312
3.03 112.268 76.031
3.04 107.508 75.282
3.05 105.048 74.702
3.06 103.986 74.158
3.07 103.915 73.771
3.08 103.551 73.657
3.09 103.437 73.559
3.10 103.595 73.208
3.11 104.576 72.755
3.12 107.052 72.575
3.13 108.302 72.818
3.14 108.603 73.424
3.15 108.352 73.984
3.16 107.708 73.498
3.17 102.224 71.191
3.18 107.801 67.825
3.19 109.344 65.473
3.20 108.471 63.702
3.21 107.077 61.252
3.22 106.033 57.836
3.23 --undefined-- 54.017
3.24 --undefined-- 51.956
3.25 --undefined-- 52.673
3.26 --undefined-- 54.919
3.27 --undefined-- 57.372
3.28 --undefined-- 58.652
3.29 --undefined-- 58.887
3.30 --undefined-- 58.889
3.31 --undefined-- 59.637
3.32 122.086 63.558
3.33 115.743 67.734
3.34 109.307 70.564
3.35 109.264 72.425
3.36 108.789 73.673
3.37 108.354 74.508
3.38 108.562 75.133
3.39 110.037 75.603
3.40 111.801 75.885
3.41 114.242 75.969
3.42 116.415 75.730
3.43 119.180 75.464
3.44 124.713 75.991
3.45 128.106 77.011
3.46 131.399 77.649
3.47 131.737 77.741
3.48 133.494 77.755
3.49 135.966 78.088
3.50 138.878 78.601
3.51 140.096 78.966
3.52 141.260 78.981
3.53 142.088 78.313
3.54 140.996 76.080
3.55 135.438 71.277
3.56 113.798 63.685
3.57 138.857 56.966
3.58 140.688 54.657
3.59 141.011 53.693
3.60 140.840 53.895
3.61 --undefined-- 55.185
3.62 --undefined-- 60.377
3.63 --undefined-- 68.328
3.64 144.018 73.476
3.65 141.879 75.613
3.66 129.287 75.564
3.67 124.161 74.173
3.68 123.272 71.484
3.69 --undefined-- 66.987
3.70 --undefined-- 60.849
3.71 --undefined-- 54.365
3.72 --undefined-- 50.000
3.73 --undefined-- 46.857
3.74 --undefined-- 43.893
3.75 --undefined-- 43.569
3.76 --undefined-- 53.660
3.77 --undefined-- 63.541
3.78 --undefined-- 69.494
3.79 137.828 72.231
3.80 135.801 72.798
3.81 133.255 72.609
3.82 133.969 72.823
3.83 135.235 73.660
3.84 136.545 74.567
3.85 136.485 74.956
3.86 135.184 74.626
3.87 132.287 73.409
3.88 126.247 71.078
3.89 122.934 67.683
3.90 124.383 63.973
3.91 --undefined-- 61.808
3.92 --undefined-- 61.026
3.93 --undefined-- 60.857
3.94 --undefined-- 63.114
3.95 --undefined-- 64.735
3.96 --undefined-- 64.395
3.97 --undefined-- 63.779
3.98 --undefined-- 63.074
3.99 --undefined-- 66.181
4.00 --undefined-- 71.420
4.01 139.164 74.463
4.02 136.108 75.734
4.03 132.438 76.274
4.04 130.620 76.816
4.05 129.634 77.372
4.06 129.294 77.824
4.07 129.028 78.195
4.08 129.065 78.536
4.09 129.025 78.867
4.10 129.040 79.092
4.11 128.958 79.008
4.12 127.399 78.139
4.13 124.170 75.894
4.14 119.337 71.821
4.15 120.348 66.717
4.16 124.338 62.270
4.17 126.603 58.158
4.18 --undefined-- 53.525
4.19 --undefined-- 54.223
4.20 --undefined-- 59.253
4.21 --undefined-- 67.012
4.22 148.003 73.248
4.23 136.806 76.405
4.24 129.167 77.348
4.25 126.043 77.414
4.26 124.966 77.182
4.27 123.118 76.590
4.28 122.313 76.054
4.29 122.287 75.748
4.30 122.141 75.511
4.31 121.964 75.313
4.32 121.810 75.117
4.33 121.530 74.917
4.34 121.580 74.774
4.35 122.061 74.591
4.36 122.517 74.360
4.37 123.932 74.351
4.38 124.523 74.352
4.39 123.495 73.353
4.40 120.015 70.432
4.41 122.811 65.502
4.42 147.768 59.381
4.43 --undefined-- 52.188
4.44 --undefined-- 49.790
4.45 --undefined-- 52.484
4.46 --undefined-- 55.198
4.47 --undefined-- 56.674
4.48 --undefined-- 57.042
4.49 --undefined-- 59.477
4.50 157.032 66.026
4.51 168.022 71.698
4.52 178.560 74.870
4.53 178.871 75.539
4.54 177.974 74.529
4.55 173.817 73.859
4.56 172.930 74.264
4.57 172.482 74.783
4.58 172.567 75.200
4.59 172.712 75.554
4.60 172.853 75.831
4.61 173.184 76.029
4.62 173.715 76.195
4.63 173.910 76.328
4.64 174.229 76.428
4.65 174.555 76.510
4.66 175.057 76.629
4.67 175.557 76.791
4.68 175.712 76.940
4.69 175.460 76.934
4.70 174.103 76.613
4.71 172.289 75.900
4.72 170.650 74.636
4.73 168.119 72.509
4.74 164.047 69.364
4.75 164.361 65.114
4.76 173.963 59.327
4.77 173.116 54.008
4.78 165.701 53.861
4.79 166.183 54.000
4.80 166.510 52.822
4.81 --undefined-- 50.644
4.82 --undefined-- 47.859
4.83 --undefined-- 45.416
4.84 --undefined-- 44.172
4.85 --undefined-- 43.239
4.86 --undefined-- 42.085
4.87 --undefined-- 41.515
4.88 --undefined-- 42.082
4.89 --undefined-- 46.776
4.90 --undefined-- 58.625
4.91 --undefined-- 67.761
4.92 139.686 73.389
4.93 138.093 76.703
4.94 136.353 78.421
4.95 135.101 79.174
4.96 134.038 79.317
4.97 133.452 79.214
4.98 132.727 79.107
4.99 131.650 79.054
5.00 130.171 79.024
5.01 128.745 78.951
5.02 127.793 78.799
5.03 127.747 78.621
5.04 128.016 78.470
5.05 127.741 78.340
5.06 126.805 78.177
5.07 125.414 78.011
5.08 124.168 77.767
5.09 122.135 --undefined--
5.10 118.879 --undefined--
5.11 --undefined-- --undefined--
5.12 --undefined-- --undefined--
