Time Pitch Intensity
0.01 --undefined-- --undefined--
0.02 95.368 --undefined--
0.03 95.528 --undefined--
0.04 95.133 --undefined--
0.05 95.013 64.590
0.06 95.038 64.632
0.07 95.061 64.780
0.08 95.116 65.080
0.09 95.342 65.267
0.10 95.727 65.100
0.11 96.074 64.697
0.12 96.330 64.295
0.13 95.960 63.779
0.14 95.822 63.028
0.15 95.795 61.934
0.16 96.182 60.437
0.17 96.098 58.767
0.18 94.319 56.429
0.19 --undefined-- 52.486
0.20 --undefined-- 47.260
0.21 --undefined-- 44.033
0.22 --undefined-- 42.439
0.23 --undefined-- 41.326
0.24 --undefined-- 41.010
0.25 --undefined-- 40.893
0.26 --undefined-- 41.228
0.27 --undefined-- 41.288
0.28 --undefined-- 42.351
0.29 --undefined-- 46.287
0.30 --undefined-- 48.986
0.31 --undefined-- 49.943
0.32 --undefined-- 51.437
0.33 --undefined-- 53.491
0.34 --undefined-- 54.934
0.35 --undefined-- 55.484
0.36 105.613 55.848
0.37 106.160 56.414
0.38 106.450 56.807
0.39 106.424 57.179
0.40 105.527 57.609
0.41 105.549 57.916
0.42 106.053 58.073
0.43 107.353 58.476
0.44 107.978 59.708
0.45 108.860 62.263
0.46 109.349 64.932
0.47 109.881 66.687
0.48 106.218 67.205
0.49 102.774 66.755
0.50 104.269 66.292
0.51 104.907 66.059
0.52 104.406 66.055
0.53 102.958 66.313
0.54 99.976 66.367
0.55 99.304 66.810
0.56 100.337 68.253
0.57 99.491 69.152
0.58 96.557 68.540
0.59 91.536 66.613
0.60 91.744 63.854
0.61 90.990 60.686
0.62 91.157 57.475
0.63 90.205 54.482
0.64 89.836 52.639
0.65 89.946 52.459
0.66 90.239 53.109
0.67 89.900 53.702
0.68 92.759 54.508
0.69 91.769 55.839
0.70 91.680 56.776
0.71 89.741 57.049
0.72 89.274 57.392
0.73 89.613 57.990
0.74 90.163 58.342
0.75 91.096 58.397
0.76 91.085 58.151
0.77 91.670 59.359
0.78 95.194 63.711
0.79 94.610 66.709
0.80 94.845 67.610
0.81 94.458 67.389
0.82 93.625 66.663
0.83 92.877 65.351
0.84 92.062 62.722
0.85 89.615 58.244
0.86 88.474 52.699
0.87 88.474 49.771
0.88 90.702 50.324
0.89 89.690 51.574
0.90 90.250 52.469
0.91 90.010 52.815
0.92 89.957 52.798
0.93 91.617 52.736
0.94 91.052 52.116
0.95 90.507 50.413
0.96 90.070 47.890
0.97 --undefined-- 44.484
0.98 --undefined-- 40.260
0.99 --undefined-- 38.233
1.00 --undefined-- 38.428
1.01 --undefined-- 44.640
1.02 --undefined-- 55.096
1.03 --undefined-- 61.179
1.04 --undefined-- 63.031
1.05 --undefined-- 63.217
1.06 --undefined-- 66.566
1.07 --undefined-- 69.259
1.08 --undefined-- 69.575
1.09 78.452 68.499
1.10 77.730 67.472
1.11 89.135 67.420
1.12 89.974 68.404
1.13 89.632 69.480
1.14 99.776 70.233
1.15 102.764 70.400
1.16 105.511 69.981
1.17 110.249 69.405
1.18 114.367 68.965
1.19 118.054 68.607
1.20 121.961 68.038
1.21 127.911 67.696
1.22 131.780 67.697
1.23 133.372 67.400
1.24 134.713 66.875
1.25 136.766 66.572
1.26 139.107 66.649
1.27 141.363 66.926
1.28 143.599 67.144
1.29 143.781 67.077
1.30 141.427 66.453
1.31 139.091 64.799
1.32 134.919 61.548
1.33 133.461 56.687
1.34 136.505 53.849
1.35 128.093 58.927
1.36 122.197 63.473
1.37 120.763 65.734
1.38 115.145 66.108
1.39 108.642 65.018
1.40 101.341 62.923
1.41 96.615 60.746
1.42 91.435 59.533
1.43 86.253 59.139
1.44 82.945 58.721
1.45 84.289 57.834
1.46 82.045 56.060
1.47 82.429 53.382
1.48 82.189 51.102
1.49 83.545 50.512
1.50 85.502 50.849
1.51 86.592 51.032
1.52 87.174 50.938
1.53 87.853 50.970
1.54 88.179 51.088
1.55 87.869 51.137
1.56 88.029 51.135
1.57 87.796 50.960
1.58 86.818 50.395
1.59 85.945 49.565
1.60 83.241 48.283
1.61 --undefined-- 45.848
1.62 --undefined-- 42.372
1.63 --undefined-- 39.479
1.64 --undefined-- 41.873
1.65 --undefined-- 52.324
1.66 --undefined-- 59.016
1.67 --undefined-- 62.141
1.68 --undefined-- 65.469
1.69 --undefined-- 68.849
1.70 102.312 69.991
1.71 104.777 69.244
1.72 105.977 67.917
1.73 106.464 67.285
1.74 106.259 67.091
1.75 104.996 66.208
1.76 105.522 64.420
1.77 106.441 62.215
1.78 105.401 60.274
1.79 105.140 58.449
1.80 --undefined-- 55.596
1.81 --undefined-- 50.672
1.82 --undefined-- 46.637
1.83 --undefined-- 52.294
1.84 --undefined-- 59.617
1.85 111.938 64.670
1.86 111.044 67.375
1.87 109.543 68.474
1.88 107.742 68.426
1.89 107.173 67.583
1.90 108.211 66.312
1.91 108.431 64.820
1.92 108.334 63.324
1.93 107.645 61.975
1.94 107.233 60.598
1.95 106.456 58.604
1.96 105.818 55.373
1.97 102.084 51.312
1.98 102.364 48.600
1.99 98.912 47.053
2.00 --undefined-- 44.840
2.01 --undefined-- 42.683
2.02 --undefined-- 42.980
2.03 --undefined-- 45.008
2.04 --undefined-- 46.970
2.05 --undefined-- 48.967
2.06 --undefined-- 50.594
2.07 --undefined-- 50.871
2.08 --undefined-- 51.248
2.09 --undefined-- 51.599
2.10 92.716 51.110
2.11 92.699 53.200
2.12 95.992 57.167
2.13 96.454 59.847
2.14 96.701 60.480
2.15 90.645 59.702
2.16 91.615 59.059
2.17 92.923 59.694
2.18 90.943 60.691
2.19 90.462 61.664
2.20 90.367 63.336
2.21 90.689 65.262
2.22 --undefined-- 65.921
2.23 --undefined-- 64.578
2.24 80.795 61.780
2.25 80.744 59.145
2.26 78.146 57.016
2.27 77.488 54.424
2.28 77.204 51.681
2.29 79.137 50.001
2.30 80.612 49.440
2.31 83.477 49.817
2.32 85.104 50.430
2.33 88.148 50.620
2.34 90.749 50.721
2.35 93.589 51.657
2.36 --undefined-- 54.639
2.37 --undefined-- 59.184
2.38 --undefined-- 64.346
2.39 --undefined-- 68.058
2.40 --undefined-- 69.671
2.41 127.480 69.590
2.42 129.048 67.923
2.43 --undefined-- 64.550
2.44 --undefined-- 60.721
2.45 --undefined-- 59.022
2.46 --undefined-- 58.563
2.47 --undefined-- 58.630
2.48 --undefined-- 58.602
2.49 --undefined-- 58.219
2.50 --undefined-- 57.370
2.51 --undefined-- 55.891
2.52 --undefined-- 53.777
2.53 --undefined-- 52.188
2.54 --undefined-- 51.906
2.55 --undefined-- 52.265
2.56 --undefined-- 52.676
2.57 --undefined-- 52.813
2.58 --undefined-- 55.477
2.59 --undefined-- 62.789
2.60 137.595 67.839
2.61 136.688 69.914
2.62 131.471 70.086
2.63 130.530 69.626
2.64 127.607 69.254
2.65 126.639 68.953
2.66 125.245 68.705
2.67 124.350 68.536
2.68 124.385 68.415
2.69 124.945 68.350
2.70 125.433 68.290
2.71 125.634 68.268
2.72 125.705 68.383
2.73 125.659 68.596
2.74 124.856 68.670
2.75 123.674 68.102
2.76 123.267 66.123
2.77 124.723 62.122
2.78 124.956 57.377
2.79 123.895 55.338
2.80 119.534 54.804
2.81 114.722 54.588
2.82 112.064 54.544
2.83 109.042 54.425
2.84 105.092 53.988
2.85 101.346 53.584
2.86 99.246 54.781
2.87 --undefined-- 57.803
2.88 94.032 59.524
2.89 90.298 59.366
2.90 86.003 58.309
2.91 82.995 57.102
2.92 80.284 55.820
2.93 77.491 54.428
2.94 75.725 52.981
2.95 76.056 51.636
2.96 76.178 50.157
2.97 --undefined-- 48.506
2.98 77.700 47.624
2.99 82.218 47.894
3.00 84.218 48.719
3.01 86.851 49.260
3.02 90.677 49.198
3.03 91.111 48.764
3.04 91.955 48.653
3.05 102.582 49.949
3.06 106.203 52.868
3.07 102.901 55.642
3.08 108.650 57.639
3.09 109.418 59.272
3.10 109.924 60.473
3.11 112.182 61.103
3.12 112.756 61.297
3.13 113.537 60.852
3.14 112.869 59.608
3.15 112.115 57.482
3.16 111.822 54.070
3.17 108.477 49.516
3.18 116.022 46.083
3.19 --undefined-- 44.834
3.20 --undefined-- 47.207
3.21 --undefined-- 52.229
3.22 --undefined-- 57.333
3.23 102.918 60.827
3.24 97.554 62.237
3.25 96.360 62.084
3.26 94.883 61.226
3.27 93.582 60.184
3.28 92.666 59.293
3.29 94.140 58.760
3.30 88.435 57.718
3.31 88.276 55.232
3.32 86.491 52.380
3.33 85.945 51.471
3.34 86.673 51.365
3.35 86.182 51.188
3.36 85.070 50.929
3.37 87.679 50.444
3.38 --undefined-- 48.829
3.39 --undefined-- 45.333
3.40 --undefined-- 41.729
3.41 --undefined-- 47.485
3.42 --undefined-- 55.941
3.43 --undefined-- 60.240
3.44 --undefined-- 60.812
3.45 --undefined-- 59.281
3.46 --undefined-- 58.027
3.47 --undefined-- 58.490
3.48 --undefined-- 59.638
3.49 --undefined-- 59.234
3.50 --undefined-- 58.692
3.51 --undefined-- 59.746
3.52 --undefined-- 61.104
3.53 --undefined-- 61.456
3.54 --undefined-- 60.635
3.55 --undefined-- 59.419
3.56 --undefined-- 58.136
3.57 --undefined-- 56.795
3.58 --undefined-- 55.567
3.59 --undefined-- 54.674
3.60 --undefined-- 53.877
3.61 --undefined-- 53.110
3.62 --undefined-- 52.307
3.63 --undefined-- 50.920
3.64 --undefined-- 49.474
3.65 --undefined-- 48.095
3.66 --undefined-- 45.235
3.67 --undefined-- 41.199
3.68 --undefined-- 38.807
3.69 --undefined-- 38.532
3.70 --undefined-- 38.561
3.71 --undefined-- 38.340
3.72 --undefined-- 40.656
3.73 --undefined-- 50.668
3.74 --undefined-- 57.663
3.75 --undefined-- 60.501
3.76 --undefined-- 63.435
3.77 --undefined-- 67.839
3.78 117.429 69.958
3.79 116.148 70.088
3.80 117.385 70.000
3.81 117.584 69.997
3.82 115.462 69.388
3.83 113.274 68.440
3.84 110.111 67.736
3.85 108.286 67.340
3.86 107.562 67.236
3.87 106.377 67.180
3.88 105.016 66.848
3.89 104.222 66.495
3.90 103.308 66.321
3.91 103.928 66.149
3.92 106.385 65.979
3.93 108.451 65.401
3.94 110.270 64.117
3.95 110.077 61.769
3.96 109.887 58.056
3.97 110.475 54.947
3.98 109.494 54.157
3.99 107.406 53.824
4.00 106.608 53.577
4.01 106.043 53.723
4.02 105.544 53.999
4.03 105.442 54.102
4.04 105.539 55.105
4.05 106.422 58.010
4.06 105.891 60.446
4.07 104.804 61.332
4.08 105.558 61.306
4.09 105.677 60.479
4.10 105.061 58.665
4.11 105.864 57.029
4.12 106.990 55.855
4.13 --undefined-- 53.880
4.14 --undefined-- 51.700
4.15 --undefined-- 49.770
4.16 --undefined-- 46.626
4.17 --undefined-- 43.235
4.18 --undefined-- 40.650
4.19 --undefined-- 38.959
4.20 --undefined-- 38.374
4.21 --undefined-- 38.619
4.22 --undefined-- 39.423
4.23 --undefined-- 39.910
4.24 --undefined-- 39.841
4.25 --undefined-- 39.867
4.26 --undefined-- 40.261
4.27 --undefined-- 40.960
4.28 --undefined-- 41.347
4.29 --undefined-- 42.046
4.30 --undefined-- 42.774
4.31 --undefined-- 43.294
4.32 --undefined-- 43.353
4.33 --undefined-- 42.898
4.34 --undefined-- 43.061
4.35 --undefined-- 43.868
4.36 --undefined-- 44.355
4.37 --undefined-- 44.077
4.38 --undefined-- 43.487
4.39 --undefined-- 43.697
4.40 --undefined-- 44.317
4.41 --undefined-- 44.011
4.42 --undefined-- 43.295
4.43 --undefined-- 42.884
4.44 --undefined-- 42.660
4.45 --undefined-- 42.442
4.46 --undefined-- 42.366
4.47 --undefined-- 42.777
4.48 --undefined-- 43.097
4.49 --undefined-- 43.029
4.50 --undefined-- 42.448
4.51 --undefined-- 41.604
4.52 --undefined-- 40.976
4.53 --undefined-- 40.629
4.54 --undefined-- 40.696
4.55 --undefined-- 40.595
4.56 --undefined-- 39.760
4.57 --undefined-- 39.032
4.58 --undefined-- 39.211
4.59 --undefined-- 39.481
4.60 --undefined-- 39.336
4.61 --undefined-- 39.903
4.62 --undefined-- 46.055
4.63 --undefined-- 52.059
4.64 --undefined-- 54.350
4.65 --undefined-- 53.410
4.66 --undefined-- 52.625
4.67 --undefined-- 59.415
4.68 --undefined-- 65.823
4.69 116.293 69.005
4.70 117.629 69.998
4.71 117.190 69.412
4.72 114.314 67.059
4.73 114.370 62.451
4.74 114.554 56.346
4.75 116.091 58.113
4.76 121.757 63.680
4.77 121.621 67.224
4.78 121.472 68.813
4.79 121.117 69.166
4.80 119.444 68.784
4.81 116.713 68.026
4.82 115.511 67.329
4.83 109.987 66.443
4.84 106.261 64.750
4.85 102.727 61.990
4.86 102.844 58.557
4.87 100.381 54.919
4.88 97.647 51.568
4.89 96.042 49.104
4.90 95.000 47.601
4.91 --undefined-- 45.605
4.92 --undefined-- 42.955
4.93 --undefined-- 41.220
4.94 --undefined-- 42.560
4.95 --undefined-- 46.294
4.96 --undefined-- 49.132
4.97 --undefined-- 49.506
4.98 --undefined-- 49.011
4.99 --undefined-- 49.592
5.00 --undefined-- 49.719
5.01 --undefined-- 49.865
5.02 --undefined-- 51.340
5.03 81.867 52.576
5.04 81.647 53.049
5.05 79.605 52.842
5.06 79.646 51.701
5.07 80.267 49.590
5.08 --undefined-- 46.724
5.09 --undefined-- 45.920
5.10 85.569 48.408
5.11 85.906 50.749
5.12 85.689 52.283
5.13 85.402 53.074
5.14 86.485 53.293
5.15 86.648 53.275
5.16 87.333 53.655
5.17 87.440 54.214
5.18 87.287 54.381
5.19 87.286 54.180
5.20 87.885 53.754
5.21 89.163 52.937
5.22 87.490 51.421
5.23 86.727 49.115
5.24 --undefined-- 46.156
5.25 --undefined-- 42.507
5.26 --undefined-- 39.507
5.27 --undefined-- 39.534
5.28 --undefined-- 46.123
5.29 --undefined-- 54.693
5.30 --undefined-- 58.830
5.31 --undefined-- 60.322
5.32 --undefined-- 64.856
5.33 --undefined-- 69.039
5.34 116.401 70.696
5.35 116.281 71.004
5.36 116.439 70.848
5.37 112.465 70.540
5.38 108.598 70.434
5.39 108.666 70.653
5.40 108.126 70.823
5.41 107.847 70.706
5.42 108.793 70.420
5.43 109.466 69.963
5.44 108.934 69.170
5.45 108.256 67.981
5.46 107.657 --undefined--
5.47 107.997 --undefined--
5.48 --undefined-- --undefined--
5.49 --undefined-- --undefined--
