Time Pitch Intensity
0.01 --undefined-- --undefined--
0.02 205.006 --undefined--
0.03 206.587 --undefined--
0.04 209.375 --undefined--
0.05 213.144 69.105
0.06 214.931 68.139
0.07 215.068 66.319
0.08 217.898 65.489
0.09 222.706 66.261
0.10 231.125 68.303
0.11 237.750 70.809
0.12 239.855 71.984
0.13 241.200 71.786
0.14 242.936 71.478
0.15 243.573 71.367
0.16 242.326 71.147
0.17 238.901 71.066
0.18 234.193 71.146
0.19 228.185 71.156
0.20 220.245 70.882
0.21 207.251 70.622
0.22 193.243 70.695
0.23 183.485 70.448
0.24 168.770 69.390
0.25 160.372 67.630
0.26 159.011 65.250
0.27 171.197 62.605
0.28 --undefined-- 60.991
0.29 --undefined-- 59.725
0.30 --undefined-- 56.866
0.31 --undefined-- 53.398
0.32 --undefined-- 50.992
0.33 --undefined-- 52.099
0.34 --undefined-- 56.614
0.35 --undefined-- 60.388
0.36 --undefined-- 62.224
0.37 --undefined-- 61.641
0.38 --undefined-- 60.850
0.39 --undefined-- 61.902
0.40 --undefined-- 61.573
0.41 283.203 59.433
0.42 288.273 58.770
0.43 295.049 61.825
0.44 289.317 63.954
0.45 279.030 63.670
0.46 211.994 62.804
0.47 192.685 64.571
0.48 177.976 66.481
0.49 171.639 67.056
0.50 169.375 66.837
0.51 168.490 66.260
0.52 168.212 66.016
0.53 167.074 66.279
0.54 165.286 65.780
0.55 161.326 63.598
0.56 156.732 60.485
0.57 153.769 59.776
0.58 159.565 62.153
0.59 171.693 64.122
0.60 175.448 64.426
0.61 179.413 64.266
0.62 182.141 65.329
0.63 185.332 66.402
0.64 191.573 66.326
0.65 196.587 65.298
0.66 199.379 63.647
0.67 195.285 61.299
0.68 --undefined-- 59.427
0.69 --undefined-- 58.361
0.70 --undefined-- 56.982
0.71 250.005 58.861
0.72 238.966 62.539
0.73 246.119 64.544
0.74 249.429 65.031
0.75 250.204 64.772
0.76 247.094 64.419
0.77 240.485 64.326
0.78 236.138 64.231
0.79 236.160 63.554
0.80 235.662 62.691
0.81 235.314 62.500
0.82 247.212 63.283
0.83 250.744 64.539
0.84 253.103 65.391
0.85 254.427 65.944
0.86 252.267 66.261
0.87 243.914 65.385
0.88 234.190 62.687
0.89 239.115 60.171
0.90 261.407 62.145
0.91 258.262 64.530
0.92 257.247 65.721
0.93 259.479 66.350
0.94 247.345 67.963
0.95 229.426 70.394
0.96 219.608 72.734
0.97 215.757 74.491
0.98 208.317 75.392
0.99 200.129 75.698
1.00 --undefined-- 75.426
1.01 --undefined-- 74.343
1.02 --undefined-- 72.706
1.03 --undefined-- 71.296
1.04 --undefined-- 69.423
1.05 --undefined-- 67.218
1.06 --undefined-- 66.034
1.07 --undefined-- 65.630
1.08 --undefined-- 65.211
1.09 --undefined-- 63.344
1.10 296.388 60.485
1.11 295.793 62.199
1.12 --undefined-- 65.665
1.13 --undefined-- 66.477
1.14 --undefined-- 64.139
1.15 --undefined-- 59.821
1.16 --undefined-- 58.574
1.17 --undefined-- 61.296
1.18 --undefined-- 64.236
1.19 --undefined-- 64.889
1.20 --undefined-- 63.635
1.21 --undefined-- 63.612
1.22 --undefined-- 64.750
1.23 220.876 65.171
1.24 220.459 65.456
1.25 223.947 66.038
1.26 228.384 66.504
1.27 230.944 66.601
1.28 227.207 65.948
1.29 214.076 63.900
1.30 216.203 60.054
1.31 282.688 56.640
1.32 284.064 57.674
1.33 287.408 60.594
1.34 --undefined-- 63.763
1.35 --undefined-- 64.263
1.36 --undefined-- 61.947
1.37 --undefined-- 59.560
1.38 --undefined-- 59.223
1.39 233.401 61.235
1.40 210.559 63.909
1.41 197.486 65.693
1.42 185.906 66.162
1.43 175.882 65.330
1.44 167.629 63.930
1.45 159.765 63.174
1.46 --undefined-- 63.488
1.47 --undefined-- 64.239
1.48 --undefined-- 64.073
1.49 --undefined-- 62.510
1.50 --undefined-- 61.067
1.51 --undefined-- 61.645
1.52 --undefined-- 62.273
1.53 --undefined-- 61.970
1.54 285.681 60.802
1.55 298.102 59.770
1.56 --undefined-- 61.565
1.57 --undefined-- 62.557
1.58 --undefined-- 60.860
1.59 --undefined-- 57.372
1.60 --undefined-- 54.954
1.61 --undefined-- 58.765
1.62 207.572 63.142
1.63 192.507 65.753
1.64 186.545 67.400
1.65 181.150 68.328
1.66 178.344 68.316
1.67 178.084 67.340
1.68 178.297 66.484
1.69 178.742 67.298
1.70 180.107 69.086
1.71 182.738 70.333
1.72 185.789 70.327
1.73 189.656 69.705
1.74 194.025 69.579
1.75 197.587 69.880
1.76 202.331 70.399
1.77 203.775 71.163
1.78 209.063 71.532
1.79 213.652 71.022
1.80 220.419 70.490
1.81 228.958 70.295
1.82 231.461 68.823
1.83 224.219 65.332
1.84 --undefined-- 60.387
1.85 --undefined-- 58.014
1.86 --undefined-- 61.676
1.87 --undefined-- 63.819
1.88 --undefined-- 63.149
1.89 --undefined-- 59.614
1.90 --undefined-- 57.060
1.91 257.954 61.826
1.92 240.080 65.560
1.93 227.596 67.365
1.94 224.077 68.114
1.95 224.185 68.070
1.96 227.423 67.341
1.97 231.953 66.637
1.98 229.483 66.580
1.99 224.532 66.705
2.00 215.340 67.355
2.01 214.897 68.639
2.02 201.637 68.919
2.03 196.506 68.660
2.04 195.767 68.968
2.05 190.343 69.295
2.06 184.635 69.219
2.07 179.221 68.546
2.08 175.881 67.497
2.09 172.827 66.195
2.10 171.004 64.421
2.11 169.766 62.389
2.12 171.857 61.754
2.13 173.695 62.343
2.14 175.464 62.523
2.15 177.072 63.030
2.16 178.504 64.051
2.17 179.446 64.907
2.18 181.195 65.635
2.19 184.238 66.910
2.20 182.963 68.311
2.21 181.967 68.622
2.22 178.550 67.188
2.23 174.830 63.671
2.24 --undefined-- 58.319
2.25 --undefined-- 53.176
2.26 --undefined-- 50.977
2.27 --undefined-- 51.544
2.28 --undefined-- 53.165
2.29 --undefined-- 57.946
2.30 192.540 62.778
2.31 187.794 65.645
2.32 183.821 66.683
2.33 179.681 66.346
2.34 176.673 65.238
2.35 173.778 64.042
2.36 171.350 63.241
2.37 171.480 62.757
2.38 170.570 62.347
2.39 172.208 62.527
2.40 171.929 63.318
2.41 173.797 63.706
2.42 174.981 63.734
2.43 174.330 63.962
2.44 174.224 62.979
2.45 --undefined-- 59.874
2.46 --undefined-- 57.647
2.47 --undefined-- 60.492
2.48 193.415 64.591
2.49 180.095 66.866
2.50 170.784 67.053
2.51 166.318 66.042
2.52 163.763 64.886
2.53 162.582 64.348
2.54 163.664 64.786
2.55 165.508 65.908
2.56 167.197 67.105
2.57 168.828 67.673
2.58 171.637 67.499
2.59 177.812 67.363
2.60 184.043 67.849
2.61 185.737 67.724
2.62 183.784 66.201
2.63 184.589 64.062
2.64 186.113 61.668
2.65 187.620 59.880
2.66 240.687 62.265
2.67 238.105 66.288
2.68 221.722 70.088
2.69 210.906 73.451
2.70 205.945 75.788
2.71 202.661 76.768
2.72 199.959 76.945
2.73 199.845 77.126
2.74 201.054 77.437
2.75 202.826 77.747
2.76 203.839 77.831
2.77 203.785 77.689
2.78 202.206 77.627
2.79 198.074 77.703
2.80 187.722 77.634
2.81 183.468 76.485
2.82 --undefined-- 73.514
2.83 --undefined-- 69.149
2.84 --undefined-- 64.691
2.85 --undefined-- 61.993
2.86 --undefined-- 60.423
2.87 --undefined-- 58.701
2.88 --undefined-- 57.561
2.89 --undefined-- 57.005
2.90 --undefined-- 57.982
2.91 --undefined-- 60.175
2.92 --undefined-- 62.392
2.93 --undefined-- 62.582
2.94 --undefined-- 60.366
2.95 --undefined-- 57.433
2.96 --undefined-- 54.737
2.97 --undefined-- 55.733
2.98 --undefined-- 60.505
2.99 --undefined-- 62.336
3.00 --undefined-- 61.584
3.01 --undefined-- 61.955
3.02 --undefined-- 62.387
3.03 --undefined-- 59.882
3.04 --undefined-- 55.893
3.05 --undefined-- 56.922
3.06 --undefined-- 58.353
3.07 --undefined-- 59.515
3.08 --undefined-- 60.160
3.09 260.047 58.839
3.10 284.712 57.228
3.11 285.497 56.292
3.12 271.322 56.185
3.13 273.059 57.196
3.14 288.759 57.970
3.15 291.321 58.980
3.16 272.671 59.280
3.17 274.295 59.489
3.18 274.225 59.105
3.19 293.740 58.635
3.20 290.679 58.834
3.21 --undefined-- 57.737
3.22 --undefined-- 56.058
3.23 --undefined-- 55.966
3.24 --undefined-- 57.205
3.25 --undefined-- 58.576
3.26 --undefined-- 59.239
3.27 --undefined-- 58.781
3.28 --undefined-- 59.402
3.29 --undefined-- 59.881
3.30 --undefined-- 58.025
3.31 --undefined-- 54.294
3.32 --undefined-- 52.740
3.33 --undefined-- 56.616
3.34 --undefined-- 62.016
3.35 --undefined-- 65.440
3.36 259.551 67.451
3.37 265.369 69.750
3.38 273.360 71.720
3.39 282.186 73.064
3.40 288.195 73.745
3.41 293.314 73.301
3.42 296.022 71.438
3.43 288.092 68.445
3.44 285.942 65.827
3.45 288.238 63.908
3.46 286.119 61.048
3.47 260.067 59.289
3.48 285.344 62.146
3.49 --undefined-- 64.471
3.50 --undefined-- 65.773
3.51 216.284 68.110
3.52 221.116 70.602
3.53 225.980 71.898
3.54 233.044 72.343
3.55 235.592 72.454
3.56 233.469 72.493
3.57 230.265 72.518
3.58 222.799 72.193
3.59 217.406 71.621
3.60 205.400 71.495
3.61 200.837 71.896
3.62 195.388 72.758
3.63 192.718 73.773
3.64 186.394 74.113
3.65 178.242 72.941
3.66 --undefined-- 70.578
3.67 277.448 68.548
3.68 256.963 66.817
3.69 238.979 64.977
3.70 239.614 63.655
3.71 231.451 63.570
3.72 201.122 64.275
3.73 191.941 64.709
3.74 185.805 64.979
3.75 184.422 65.694
3.76 183.225 66.696
3.77 184.413 67.449
3.78 187.411 67.957
3.79 189.894 68.498
3.80 193.397 68.914
3.81 197.655 68.624
3.82 205.066 67.762
3.83 208.325 67.582
3.84 209.443 67.882
3.85 211.679 67.751
3.86 211.202 67.483
3.87 206.758 67.199
3.88 200.467 66.318
3.89 190.273 65.865
3.90 186.188 66.801
3.91 180.999 67.506
3.92 172.823 67.321
3.93 166.316 67.109
3.94 164.325 67.296
3.95 164.155 67.574
3.96 165.737 67.863
3.97 169.377 67.874
3.98 172.105 67.876
3.99 177.393 68.437
4.00 183.550 68.729
4.01 188.834 67.995
4.02 194.969 66.611
4.03 202.931 65.112
4.04 207.962 64.304
4.05 210.163 64.849
4.06 209.332 66.189
4.07 200.948 67.486
4.08 189.955 68.345
4.09 181.812 68.475
4.10 171.209 67.810
4.11 168.693 66.676
4.12 169.868 65.380
4.13 169.940 64.152
4.14 165.725 63.109
4.15 162.529 63.452
4.16 160.427 65.441
4.17 157.524 66.681
4.18 158.074 66.059
4.19 159.702 64.475
4.20 157.465 64.332
4.21 156.377 65.317
4.22 159.139 66.439
4.23 163.214 66.991
4.24 169.156 67.252
4.25 172.639 68.834
4.26 170.641 70.971
4.27 172.382 72.493
4.28 176.595 73.457
4.29 180.877 74.323
4.30 184.524 75.462
4.31 188.082 76.508
4.32 195.669 76.830
4.33 202.295 76.757
4.34 207.578 76.842
4.35 209.472 77.004
4.36 207.668 76.958
4.37 202.143 76.658
4.38 195.475 76.057
4.39 --undefined-- 74.990
4.40 --undefined-- 73.307
4.41 --undefined-- 71.182
4.42 --undefined-- 68.894
4.43 --undefined-- 66.104
4.44 --undefined-- 63.335
4.45 --undefined-- 61.635
4.46 --undefined-- 63.652
4.47 --undefined-- 65.202
4.48 --undefined-- 63.924
4.49 --undefined-- 60.011
4.50 --undefined-- 55.209
4.51 --undefined-- 56.248
4.52 --undefined-- 59.726
4.53 --undefined-- 61.706
4.54 --undefined-- 61.654
4.55 --undefined-- 59.146
4.56 --undefined-- 55.243
4.57 --undefined-- 55.853
4.58 --undefined-- 59.874
4.59 --undefined-- 63.120
4.60 --undefined-- 64.450
4.61 --undefined-- 63.530
4.62 --undefined-- 61.879
4.63 --undefined-- 62.641
4.64 --undefined-- 63.278
4.65 --undefined-- 62.429
4.66 --undefined-- 60.625
4.67 --undefined-- 59.257
4.68 --undefined-- 62.285
4.69 --undefined-- 64.828
4.70 --undefined-- 64.529
4.71 --undefined-- 62.034
4.72 --undefined-- 60.765
4.73 --undefined-- 63.934
4.74 163.217 68.684
4.75 162.904 72.092
4.76 167.220 74.158
4.77 170.237 75.389
4.78 171.518 75.987
4.79 172.044 75.845
4.80 171.808 74.698
4.81 165.724 72.328
4.82 157.281 69.139
4.83 164.802 65.810
4.84 172.228 63.129
4.85 169.949 61.421
4.86 169.679 61.007
4.87 --undefined-- 60.933
4.88 --undefined-- 59.988
4.89 250.033 60.992
4.90 237.578 62.956
4.91 239.797 64.349
4.92 248.525 --undefined--
4.93 251.113 --undefined--
4.94 --undefined-- --undefined--
4.95 --undefined-- --undefined--
