Time Pitch Intensity
0.01 --undefined-- --undefined--
0.02 92.441 --undefined--
0.03 88.453 --undefined--
0.04 88.957 --undefined--
0.05 89.440 72.005
0.06 92.589 71.855
0.07 95.665 71.623
0.08 99.465 71.527
0.09 101.351 71.334
0.10 104.688 70.739
0.11 106.975 69.665
0.12 112.376 68.195
0.13 111.467 65.637
0.14 --undefined-- 61.067
0.15 --undefined-- 54.542
0.16 --undefined-- 50.546
0.17 --undefined-- 50.067
0.18 --undefined-- 50.510
0.19 --undefined-- 51.149
0.20 --undefined-- 51.192
0.21 --undefined-- 57.690
0.22 --undefined-- 64.909
0.23 --undefined-- 68.981
0.24 106.476 70.337
0.25 99.757 70.259
0.26 97.950 69.899
0.27 96.171 69.235
0.28 95.567 67.770
0.29 92.475 65.280
0.30 88.610 62.564
0.31 84.781 61.603
0.32 87.789 63.056
0.33 89.153 64.474
0.34 89.615 64.247
0.35 81.294 62.286
0.36 82.154 60.776
0.37 81.389 60.949
0.38 81.062 61.656
0.39 82.777 63.826
0.40 --undefined-- 66.268
0.41 82.820 67.606
0.42 81.666 67.784
0.43 79.101 67.136
0.44 76.862 66.161
0.45 75.023 65.125
0.46 84.392 63.334
0.47 79.077 61.194
0.48 77.264 60.502
0.49 76.201 59.800
0.50 --undefined-- 57.535
0.51 --undefined-- 53.320
0.52 --undefined-- 48.261
0.53 --undefined-- 46.437
0.54 --undefined-- 50.407
0.55 --undefined-- 53.216
0.56 --undefined-- 54.161
0.57 --undefined-- 56.718
0.58 --undefined-- 59.991
0.59 --undefined-- 62.133
0.60 --undefined-- 63.464
0.61 --undefined-- 64.260
0.62 76.530 63.922
0.63 74.695 62.350
0.64 76.639 60.391
0.65 77.090 58.661
0.66 77.708 55.924
0.67 --undefined-- 51.460
0.68 --undefined-- 46.933
0.69 --undefined-- 43.990
0.70 --undefined-- 42.018
0.71 --undefined-- 41.186
0.72 --undefined-- 40.531
0.73 --undefined-- 42.794
0.74 --undefined-- 47.400
0.75 --undefined-- 54.181
0.76 --undefined-- 62.560
0.77 --undefined-- 68.065
0.78 96.986 70.719
0.79 96.066 71.311
0.80 92.848 70.539
0.81 88.948 68.717
0.82 86.736 66.415
0.83 87.369 64.872
0.84 86.229 63.477
0.85 84.926 61.384
0.86 84.952 60.181
0.87 89.623 60.505
0.88 88.019 61.494
0.89 87.670 62.141
0.90 90.177 62.287
0.91 90.403 62.319
0.92 91.133 61.735
0.93 88.067 59.851
0.94 --undefined-- 56.351
0.95 --undefined-- 51.278
0.96 --undefined-- 47.224
0.97 --undefined-- 56.018
0.98 --undefined-- 65.383
0.99 --undefined-- 70.847
1.00 --undefined-- 73.308
1.01 103.721 73.844
1.02 101.794 73.669
1.03 100.517 73.378
1.04 101.108 72.534
1.05 102.230 70.603
1.06 102.506 68.186
1.07 --undefined-- 66.733
1.08 --undefined-- 66.096
1.09 --undefined-- 65.638
1.10 --undefined-- 63.160
1.11 --undefined-- 57.459
1.12 --undefined-- 51.100
1.13 --undefined-- 50.003
1.14 --undefined-- 49.831
1.15 --undefined-- 48.191
1.16 --undefined-- 46.856
1.17 --undefined-- 46.068
1.18 --undefined-- 44.060
1.19 --undefined-- 42.557
1.20 --undefined-- 42.552
1.21 --undefined-- 41.635
1.22 --undefined-- 40.415
1.23 --undefined-- 40.291
1.24 --undefined-- 41.773
1.25 --undefined-- 43.217
1.26 --undefined-- 42.910
1.27 --undefined-- 41.049
1.28 --undefined-- 37.963
1.29 --undefined-- 34.784
1.30 --undefined-- 34.225
1.31 --undefined-- 34.922
1.32 --undefined-- 34.965
1.33 --undefined-- 34.934
1.34 --undefined-- 35.055
1.35 --undefined-- 35.110
1.36 --undefined-- 35.063
1.37 --undefined-- 34.717
1.38 --undefined-- 34.494
1.39 --undefined-- 35.363
1.40 --undefined-- 36.082
1.41 --undefined-- 35.301
1.42 --undefined-- 33.928
1.43 --undefined-- 33.523
1.44 --undefined-- 34.334
1.45 --undefined-- 35.150
1.46 --undefined-- 35.188
1.47 --undefined-- 34.635
1.48 --undefined-- 33.541
1.49 --undefined-- 32.824
1.50 --undefined-- 32.337
1.51 --undefined-- 31.691
1.52 --undefined-- 32.123
1.53 --undefined-- 32.858
1.54 --undefined-- 32.926
1.55 --undefined-- 33.358
1.56 --undefined-- 33.461
1.57 --undefined-- 32.893
1.58 --undefined-- 32.733
1.59 --undefined-- 35.095
1.60 --undefined-- 41.068
1.61 --undefined-- 44.556
1.62 --undefined-- 44.480
1.63 --undefined-- 41.535
1.64 --undefined-- 37.780
1.65 --undefined-- 35.441
1.66 --undefined-- 34.027
1.67 --undefined-- 34.025
1.68 --undefined-- 33.937
1.69 --undefined-- 33.897
1.70 --undefined-- 34.418
1.71 --undefined-- 34.804
1.72 --undefined-- 34.871
1.73 --undefined-- 34.400
1.74 --undefined-- 34.695
1.75 --undefined-- 35.270
1.76 --undefined-- 34.457
1.77 --undefined-- 37.498
1.78 --undefined-- 48.576
1.79 --undefined-- 58.868
1.80 --undefined-- 66.359
1.81 --undefined-- 70.493
1.82 94.270 71.772
1.83 93.421 71.326
1.84 90.004 70.532
1.85 87.488 69.837
1.86 85.989 68.982
1.87 84.377 67.691
1.88 83.181 66.026
1.89 81.220 64.185
1.90 85.863 62.924
1.91 88.184 63.228
1.92 89.234 63.968
1.93 89.076 64.291
1.94 88.331 64.373
1.95 88.421 64.074
1.96 87.118 62.974
1.97 82.688 60.935
1.98 79.827 58.019
1.99 --undefined-- 54.097
2.00 --undefined-- 49.692
2.01 --undefined-- 47.232
2.02 --undefined-- 47.011
2.03 --undefined-- 48.382
2.04 --undefined-- 50.697
2.05 --undefined-- 59.136
2.06 --undefined-- 67.091
2.07 109.950 71.539
2.08 109.718 73.139
2.09 105.460 72.799
2.10 99.590 71.673
2.11 99.186 70.664
2.12 98.117 69.448
2.13 96.072 67.725
2.14 94.624 66.401
2.15 93.596 66.184
2.16 92.556 65.977
2.17 91.370 65.203
2.18 90.870 64.506
2.19 90.060 64.186
2.20 90.011 64.038
2.21 89.815 63.803
2.22 89.945 63.409
2.23 90.485 63.202
2.24 90.745 63.032
2.25 90.413 62.443
2.26 89.377 61.000
2.27 86.746 58.323
2.28 83.627 54.227
2.29 --undefined-- 49.215
2.30 --undefined-- 45.554
2.31 --undefined-- 45.037
2.32 --undefined-- 51.668
2.33 --undefined-- 61.016
2.34 --undefined-- 67.877
2.35 --undefined-- 71.627
2.36 86.315 72.974
2.37 87.235 73.117
2.38 84.878 73.194
2.39 82.066 73.281
2.40 80.107 72.864
2.41 76.560 71.546
2.42 74.965 69.230
2.43 89.190 65.903
2.44 75.851 62.505
2.45 --undefined-- 60.124
2.46 --undefined-- 56.907
2.47 --undefined-- 52.870
2.48 --undefined-- 49.176
2.49 --undefined-- 47.867
2.50 --undefined-- 47.626
2.51 --undefined-- 46.122
2.52 --undefined-- 43.485
2.53 --undefined-- 42.401
2.54 --undefined-- 42.817
2.55 --undefined-- 42.619
2.56 --undefined-- 41.544
2.57 --undefined-- 40.555
2.58 --undefined-- 40.443
2.59 --undefined-- 40.023
2.60 --undefined-- 39.245
2.61 --undefined-- 39.236
2.62 --undefined-- 39.045
2.63 --undefined-- 38.718
2.64 --undefined-- 38.786
2.65 --undefined-- 38.337
2.66 --undefined-- 38.044
2.67 --undefined-- 38.722
2.68 --undefined-- 38.764
2.69 --undefined-- 37.520
2.70 --undefined-- 36.337
2.71 --undefined-- 36.210
2.72 --undefined-- 36.362
2.73 --undefined-- 35.914
2.74 --undefined-- 35.460
2.75 --undefined-- 35.110
2.76 --undefined-- 34.905
2.77 --undefined-- 35.721
2.78 --undefined-- 36.093
2.79 --undefined-- 34.887
2.80 --undefined-- 33.020
2.81 --undefined-- 33.509
2.82 --undefined-- 35.280
2.83 --undefined-- 36.209
2.84 --undefined-- 38.974
2.85 --undefined-- 42.654
2.86 --undefined-- 44.592
2.87 --undefined-- 45.147
2.88 --undefined-- 49.880
2.89 --undefined-- 58.771
2.90 --undefined-- 64.737
2.91 95.500 67.720
2.92 92.112 68.638
2.93 90.001 68.653
2.94 89.155 68.809
2.95 86.844 68.854
2.96 86.071 67.821
2.97 85.973 65.232
2.98 --undefined-- 60.911
2.99 --undefined-- 54.568
3.00 --undefined-- 48.679
3.01 --undefined-- 47.453
3.02 --undefined-- 46.049
3.03 --undefined-- 46.116
3.04 --undefined-- 51.990
3.05 --undefined-- 55.468
3.06 --undefined-- 56.068
3.07 --undefined-- 57.772
3.08 --undefined-- 62.404
3.09 --undefined-- 67.218
3.10 104.529 70.350
3.11 100.342 71.864
3.12 98.078 72.404
3.13 97.462 72.518
3.14 97.832 72.647
3.15 96.214 72.518
3.16 92.920 71.614
3.17 90.109 70.020
3.18 88.540 67.731
3.19 87.139 65.230
3.20 87.339 63.750
3.21 90.758 62.747
3.22 87.717 60.592
3.23 84.204 57.155
3.24 80.867 54.067
3.25 80.160 51.947
3.26 --undefined-- 50.264
3.27 --undefined-- 52.236
3.28 --undefined-- 60.134
3.29 --undefined-- 66.600
3.30 --undefined-- 70.527
3.31 89.952 72.459
3.32 89.414 73.247
3.33 89.147 73.458
3.34 89.117 73.207
3.35 88.474 72.716
3.36 87.721 72.116
3.37 87.553 71.221
3.38 87.405 69.577
3.39 89.140 67.797
3.40 --undefined-- 66.463
3.41 --undefined-- 65.098
3.42 --undefined-- 63.946
3.43 --undefined-- 60.989
3.44 --undefined-- 56.546
3.45 --undefined-- 55.075
3.46 --undefined-- 55.362
3.47 --undefined-- 54.044
3.48 --undefined-- 50.636
3.49 --undefined-- 49.340
3.50 --undefined-- 54.022
3.51 --undefined-- 57.247
3.52 --undefined-- 56.611
3.53 --undefined-- 54.515
3.54 95.243 56.996
3.55 91.634 60.079
3.56 89.757 61.723
3.57 87.874 62.335
3.58 86.200 62.536
3.59 84.306 63.029
3.60 85.060 64.565
3.61 --undefined-- 66.087
3.62 79.867 66.479
3.63 79.709 66.046
3.64 79.002 65.429
3.65 79.649 65.106
3.66 79.644 65.161
3.67 79.892 65.192
3.68 81.682 64.694
3.69 82.659 63.900
3.70 84.681 63.747
3.71 85.668 64.175
3.72 87.862 64.581
3.73 89.046 65.018
3.74 90.730 65.400
3.75 92.593 65.335
3.76 93.851 64.948
3.77 93.101 64.152
3.78 90.966 62.220
3.79 --undefined-- 58.424
3.80 --undefined-- 52.680
3.81 --undefined-- 48.352
3.82 --undefined-- 47.913
3.83 --undefined-- 47.926
3.84 --undefined-- 48.167
3.85 --undefined-- 49.190
3.86 --undefined-- 54.412
3.87 --undefined-- 62.711
3.88 --undefined-- 67.945
3.89 --undefined-- 69.988
3.90 92.844 69.760
3.91 88.555 68.257
3.92 87.621 66.359
3.93 88.345 64.927
3.94 88.895 64.148
3.95 88.719 63.619
3.96 87.636 63.637
3.97 86.947 63.545
3.98 86.713 62.466
3.99 85.221 60.399
4.00 --undefined-- 57.423
4.01 --undefined-- 53.421
4.02 --undefined-- 49.941
4.03 --undefined-- 53.021
4.04 --undefined-- 56.327
4.05 --undefined-- 56.503
4.06 --undefined-- 56.712
4.07 --undefined-- 61.083
4.08 119.559 66.077
4.09 115.817 69.720
4.10 112.475 71.863
4.11 109.694 72.680
4.12 107.339 72.542
4.13 105.017 71.821
4.14 102.176 70.925
4.15 98.806 70.105
4.16 96.281 68.742
4.17 94.273 66.507
4.18 92.825 63.985
4.19 93.796 61.938
4.20 --undefined-- 58.953
4.21 --undefined-- 54.500
4.22 --undefined-- 50.453
4.23 --undefined-- 47.563
4.24 --undefined-- 49.977
4.25 --undefined-- 53.691
4.26 --undefined-- 55.838
4.27 --undefined-- 61.198
4.28 --undefined-- 66.410
4.29 115.331 69.538
4.30 110.780 71.224
4.31 107.551 71.912
4.32 102.863 71.460
4.33 96.552 70.016
4.34 93.837 68.123
4.35 86.586 66.091
4.36 80.622 64.392
4.37 80.685 62.658
4.38 --undefined-- 59.614
4.39 --undefined-- 54.866
4.40 --undefined-- 50.923
4.41 --undefined-- 48.477
4.42 --undefined-- 47.563
4.43 --undefined-- 46.948
4.44 --undefined-- 45.508
4.45 --undefined-- 44.903
4.46 --undefined-- 44.774
4.47 --undefined-- 43.938
4.48 --undefined-- 42.133
4.49 --undefined-- 40.445
4.50 --undefined-- 39.585
4.51 --undefined-- 38.934
4.52 --undefined-- 37.517
4.53 --undefined-- 36.211
4.54 --undefined-- 36.563
4.55 --undefined-- 36.989
4.56 --undefined-- 35.958
4.57 --undefined-- 34.788
4.58 --undefined-- 34.713
4.59 --undefined-- 34.998
4.60 --undefined-- 34.944
4.61 --undefined-- 34.721
4.62 --undefined-- 34.561
4.63 --undefined-- 35.018
4.64 --undefined-- 35.667
4.65 --undefined-- 35.340
4.66 --undefined-- 34.803
4.67 --undefined-- 34.655
4.68 --undefined-- 35.460
4.69 --undefined-- 36.790
4.70 --undefined-- 37.395
4.71 --undefined-- 36.591
4.72 --undefined-- 34.998
4.73 --undefined-- 33.751
4.74 --undefined-- 34.186
4.75 --undefined-- 35.549
4.76 --undefined-- 36.100
4.77 --undefined-- 35.487
4.78 --undefined-- 34.288
4.79 --undefined-- 33.906
4.80 --undefined-- 33.696
4.81 --undefined-- 33.325
4.82 --undefined-- 33.863
4.83 --undefined-- 35.032
4.84 --undefined-- 42.215
4.85 --undefined-- 49.348
4.86 --undefined-- 52.466
4.87 --undefined-- 52.411
4.88 --undefined-- 53.289
4.89 --undefined-- 60.026
4.90 --undefined-- 66.592
4.91 99.246 70.284
4.92 97.574 71.654
4.93 93.136 71.756
4.94 89.844 71.214
4.95 86.814 70.273
4.96 84.715 69.095
4.97 82.879 67.783
4.98 80.771 66.472
4.99 79.395 65.525
5.00 78.952 64.900
5.01 79.220 64.617
5.02 79.273 64.419
5.03 79.204 63.945
5.04 79.213 63.215
5.05 79.117 62.243
5.06 78.577 60.536
5.07 --undefined-- 57.339
5.08 --undefined-- 52.135
5.09 --undefined-- 47.789
5.10 --undefined-- 49.427
5.11 --undefined-- 52.246
5.12 --undefined-- 53.593
5.13 --undefined-- 57.259
5.14 99.021 62.666
5.15 95.931 66.353
5.16 93.722 67.998
5.17 89.812 67.633
5.18 86.092 65.713
5.19 84.868 63.201
5.20 82.758 60.879
5.21 81.049 59.420
5.22 79.856 58.261
5.23 76.062 56.539
5.24 78.023 54.466
5.25 77.408 52.563
5.26 77.340 51.005
5.27 79.805 50.333
5.28 83.813 50.710
5.29 80.681 50.865
5.30 --undefined-- 49.502
5.31 --undefined-- 45.990
5.32 --undefined-- 42.604
5.33 --undefined-- 42.128
5.34 --undefined-- 46.312
5.35 --undefined-- 52.457
5.36 --undefined-- 57.306
5.37 --undefined-- 60.003
5.38 --undefined-- 60.147
5.39 --undefined-- 57.898
5.40 --undefined-- 54.810
5.41 --undefined-- 57.623
5.42 --undefined-- 62.707
5.43 102.793 65.916
5.44 94.242 67.263
5.45 91.149 67.421
5.46 88.240 67.055
5.47 85.649 66.203
5.48 81.955 64.266
5.49 77.762 61.477
5.50 --undefined-- 59.238
5.51 74.766 57.765
5.52 76.156 56.335
5.53 76.598 54.888
5.54 81.089 54.666
5.55 84.441 55.775
5.56 81.869 56.977
5.57 80.327 57.783
5.58 79.986 57.698
5.59 79.837 57.010
5.60 79.170 56.309
5.61 79.485 56.210
5.62 80.488 57.223
5.63 82.290 58.870
5.64 84.976 60.478
5.65 86.459 61.899
5.66 86.524 63.126
5.67 86.454 63.830
5.68 85.694 63.895
5.69 85.007 63.338
5.70 85.652 62.453
5.71 88.369 61.423
5.72 90.516 60.653
5.73 86.272 59.660
5.74 91.811 57.793
5.75 95.744 55.746
5.76 --undefined-- 52.277
5.77 --undefined-- 46.700
5.78 --undefined-- 42.624
5.79 --undefined-- 40.971
5.80 --undefined-- 40.778
5.81 --undefined-- 41.264
5.82 --undefined-- 41.984
5.83 --undefined-- 41.509
5.84 --undefined-- 40.192
5.85 --undefined-- 39.041
5.86 --undefined-- 37.421
5.87 --undefined-- 37.572
5.88 --undefined-- 37.647
5.89 --undefined-- 36.112
5.90 --undefined-- 34.929
5.91 --undefined-- 35.211
5.92 --undefined-- 35.488
5.93 --undefined-- 34.992
5.94 --undefined-- 35.762
5.95 --undefined-- 37.026
5.96 --undefined-- 37.089
5.97 --undefined-- 36.734
5.98 --undefined-- 36.685
5.99 --undefined-- 37.051
6.00 --undefined-- 37.241
6.01 --undefined-- 37.144
6.02 --undefined-- 36.180
6.03 --undefined-- 35.614
6.04 --undefined-- 36.897
6.05 --undefined-- 38.883
6.06 --undefined-- 39.836
6.07 --undefined-- 39.118
6.08 --undefined-- 37.057
6.09 --undefined-- 35.445
6.10 --undefined-- 35.673
6.11 --undefined-- 36.079
6.12 --undefined-- 35.101
6.13 --undefined-- 34.172
6.14 --undefined-- 33.949
6.15 --undefined-- 33.410
6.16 --undefined-- 33.184
6.17 --undefined-- 33.886
6.18 --undefined-- 34.679
6.19 --undefined-- 36.303
6.20 --undefined-- 41.322
6.21 --undefined-- 50.995
6.22 --undefined-- 58.619
6.23 92.988 63.044
6.24 90.055 65.245
6.25 89.742 66.294
6.26 89.244 66.968
6.27 88.631 67.522
6.28 88.121 67.996
6.29 87.631 68.217
6.30 86.853 68.259
6.31 86.832 68.461
6.32 86.936 68.860
6.33 88.321 69.351
6.34 88.304 70.192
6.35 88.620 71.100
6.36 87.719 70.928
6.37 84.593 69.480
6.38 79.528 67.449
6.39 82.092 65.616
6.40 82.960 64.584
6.41 82.791 64.160
6.42 83.109 64.111
6.43 83.787 63.969
6.44 83.641 63.816
6.45 83.292 64.656
6.46 --undefined-- 67.108
6.47 --undefined-- 69.521
6.48 83.051 70.461
6.49 82.750 70.254
6.50 82.364 69.703
6.51 82.412 69.253
6.52 82.544 68.787
6.53 82.729 68.265
6.54 82.293 67.951
6.55 82.676 67.983
6.56 82.832 67.814
6.57 82.346 66.472
6.58 79.924 63.242
6.59 --undefined-- 58.089
6.60 82.467 52.231
6.61 82.056 50.252
6.62 81.811 49.852
6.63 --undefined-- 52.230
6.64 --undefined-- 57.028
6.65 --undefined-- 59.073
6.66 --undefined-- 59.501
6.67 --undefined-- 62.948
6.68 113.233 67.704
6.69 100.078 70.504
6.70 96.712 71.524
6.71 94.158 71.393
6.72 91.976 70.562
6.73 90.802 69.856
6.74 89.864 69.898
6.75 88.564 70.461
6.76 86.264 70.567
6.77 84.217 69.937
6.78 84.185 69.052
6.79 84.537 68.051
6.80 85.383 67.149
6.81 86.543 66.637
6.82 87.085 66.444
6.83 89.797 66.264
6.84 89.352 65.331
6.85 90.300 63.604
6.86 87.924 61.745
6.87 85.329 58.674
6.88 --undefined-- 53.529
6.89 --undefined-- 47.310
6.90 --undefined-- 45.011
6.91 --undefined-- 44.911
6.92 --undefined-- 44.973
6.93 --undefined-- 43.919
6.94 --undefined-- 41.879
6.95 --undefined-- 41.516
6.96 --undefined-- 46.781
6.97 --undefined-- --undefined--
6.98 --undefined-- --undefined--
6.99 --undefined-- --undefined--
7.00 --undefined-- --undefined--
