Time Pitch Intensity
0.01 --undefined-- --undefined--
0.02 137.198 --undefined--
0.03 136.532 --undefined--
0.04 139.309 --undefined--
0.05 144.126 74.957
0.06 145.231 76.059
0.07 146.885 76.203
0.08 147.659 75.908
0.09 147.884 75.626
0.10 147.729 75.330
0.11 147.679 75.104
0.12 146.282 75.007
0.13 144.250 74.389
0.14 140.842 72.163
0.15 122.553 68.162
0.16 125.023 64.597
0.17 130.148 65.384
0.18 131.006 69.323
0.19 130.664 72.966
0.20 126.827 75.244
0.21 122.878 75.784
0.22 118.322 75.040
0.23 107.062 74.601
0.24 102.947 74.766
0.25 99.288 74.045
0.26 97.286 71.821
0.27 95.889 68.926
0.28 99.660 68.784
0.29 103.380 70.938
0.30 102.306 72.437
0.31 102.018 73.001
0.32 102.549 73.050
0.33 102.778 72.910
0.34 103.264 72.850
0.35 103.680 72.857
0.36 104.120 72.788
0.37 104.485 72.643
0.38 105.671 72.461
0.39 106.578 72.255
0.40 106.885 72.125
0.41 107.960 72.303
0.42 111.251 72.965
0.43 110.455 73.895
0.44 109.263 74.633
0.45 109.827 74.995
0.46 109.994 75.098
0.47 112.026 75.024
0.48 113.595 74.836
0.49 113.478 74.782
0.50 112.160 74.933
0.51 113.176 75.268
0.52 114.533 75.525
0.53 113.839 75.287
0.54 114.353 74.721
0.55 114.112 74.336
0.56 114.273 74.043
0.57 114.568 73.222
0.58 111.418 71.290
0.59 108.056 68.037
0.60 114.319 63.687
0.61 115.433 58.972
0.62 116.796 55.496
0.63 114.598 53.622
0.64 --undefined-- 57.376
0.65 --undefined-- 62.408
0.66 --undefined-- 66.366
0.67 --undefined-- 71.409
0.68 --undefined-- 74.862
0.69 128.012 76.288
0.70 128.146 76.857
0.71 127.243 77.200
0.72 126.800 77.364
0.73 126.164 77.400
0.74 126.051 77.369
0.75 125.954 77.318
0.76 125.901 77.252
0.77 125.768 77.200
0.78 125.769 77.138
0.79 125.812 76.974
0.80 125.180 76.489
0.81 123.822 75.284
0.82 123.218 72.919
0.83 123.947 69.353
0.84 124.352 65.308
0.85 125.049 61.284
0.86 125.600 57.443
0.87 125.326 57.165
0.88 --undefined-- 62.393
0.89 --undefined-- 67.588
0.90 --undefined-- 72.138
0.91 138.535 75.057
0.92 131.854 76.140
0.93 128.384 76.389
0.94 126.775 76.614
0.95 126.432 76.739
0.96 125.486 76.643
0.97 124.861 76.466
0.98 124.983 76.248
0.99 124.950 75.714
1.00 125.523 74.440
1.01 124.726 72.000
1.02 123.553 68.507
1.03 125.074 65.679
1.04 126.614 66.230
1.05 151.458 70.345
1.06 149.041 73.747
1.07 150.144 75.236
1.08 151.809 75.493
1.09 153.259 75.450
1.10 154.242 75.476
1.11 154.731 75.591
1.12 154.875 75.755
1.13 154.773 75.746
1.14 152.121 75.472
1.15 150.549 74.825
1.16 149.326 73.648
1.17 145.375 72.618
1.18 144.594 72.423
1.19 143.277 72.777
1.20 142.367 73.622
1.21 141.766 74.640
1.22 140.016 75.314
1.23 137.517 75.597
1.24 135.573 75.629
1.25 134.261 75.503
1.26 135.687 75.300
1.27 137.419 75.072
1.28 138.464 74.848
1.29 139.457 74.266
1.30 137.560 72.491
1.31 132.303 69.165
1.32 137.338 65.153
1.33 136.804 61.028
1.34 135.388 56.499
1.35 138.710 54.693
1.36 138.050 55.390
1.37 137.733 55.562
1.38 138.238 56.586
1.39 --undefined-- 58.671
1.40 --undefined-- 59.400
1.41 --undefined-- 58.608
1.42 --undefined-- 57.783
1.43 --undefined-- 59.040
1.44 --undefined-- 65.468
1.45 --undefined-- 71.000
1.46 131.535 73.744
1.47 127.825 74.630
1.48 124.691 74.823
1.49 121.449 74.907
1.50 120.875 74.931
1.51 119.822 74.960
1.52 118.455 75.000
1.53 118.738 75.084
1.54 119.113 75.205
1.55 118.815 75.321
1.56 118.051 75.473
1.57 116.695 75.587
1.58 115.435 75.738
1.59 116.866 75.838
1.60 118.292 75.289
1.61 121.205 74.220
1.62 113.771 73.575
1.63 114.900 73.345
1.64 116.529 73.027
1.65 119.642 72.656
1.66 118.412 72.617
1.67 118.245 73.051
1.68 116.453 73.685
1.69 113.212 74.402
1.70 113.070 74.997
1.71 114.837 75.209
1.72 117.951 75.292
1.73 119.711 75.495
1.74 123.191 75.610
1.75 126.359 75.505
1.76 128.778 75.151
1.77 132.003 74.480
1.78 134.103 73.489
1.79 133.604 71.725
1.80 130.407 68.336
1.81 129.291 62.796
1.82 --undefined-- 55.733
1.83 --undefined-- 52.058
1.84 130.585 52.244
1.85 129.270 51.709
1.86 129.272 50.329
1.87 --undefined-- 50.979
1.88 --undefined-- 61.506
1.89 --undefined-- 69.427
1.90 --undefined-- 73.253
1.91 116.448 74.066
1.92 107.181 73.353
1.93 101.254 72.455
1.94 101.745 71.888
1.95 103.917 71.891
1.96 107.990 72.491
1.97 109.394 73.395
1.98 111.163 74.126
1.99 113.296 74.495
2.00 114.503 74.505
2.01 116.155 74.139
2.02 116.898 73.526
2.03 128.785 73.278
2.04 134.233 73.277
2.05 139.030 73.327
2.06 140.922 73.594
2.07 141.388 73.417
2.08 141.820 71.974
2.09 140.709 68.648
2.10 --undefined-- 62.986
2.11 --undefined-- 60.513
2.12 --undefined-- 68.230
2.13 153.713 73.186
2.14 149.781 74.896
2.15 132.231 74.773
2.16 128.271 74.788
2.17 125.196 75.253
2.18 123.264 75.405
2.19 123.036 75.210
2.20 122.965 74.803
2.21 123.054 73.831
2.22 122.612 72.087
2.23 120.477 70.025
2.24 119.913 68.518
2.25 121.369 68.747
2.26 130.854 71.489
2.27 136.083 74.185
2.28 137.437 75.567
2.29 138.951 75.987
2.30 140.133 75.920
2.31 140.981 75.607
2.32 140.928 75.011
2.33 140.102 73.985
2.34 139.247 72.092
2.35 131.848 68.672
2.36 125.156 64.195
2.37 144.468 62.325
2.38 155.434 66.592
2.39 141.788 71.382
2.40 133.369 74.452
2.41 129.025 76.092
2.42 124.988 76.631
2.43 120.534 76.262
2.44 116.722 74.927
2.45 111.426 72.294
2.46 106.021 68.403
2.47 114.578 64.106
2.48 116.431 59.898
2.49 120.550 56.694
2.50 121.058 58.210
2.51 --undefined-- 60.849
2.52 --undefined-- 60.900
2.53 --undefined-- 60.702
2.54 --undefined-- 61.509
2.55 --undefined-- 61.288
2.56 --undefined-- 60.634
2.57 --undefined-- 60.021
2.58 --undefined-- 61.194
2.59 --undefined-- 66.277
2.60 132.381 70.108
2.61 119.819 71.816
2.62 119.576 72.771
2.63 119.926 73.722
2.64 119.883 74.199
2.65 118.752 74.144
2.66 117.344 73.988
2.67 117.825 73.939
2.68 118.892 74.107
2.69 118.643 74.475
2.70 119.594 75.153
2.71 120.523 75.822
2.72 117.944 75.706
2.73 122.482 75.173
2.74 127.804 75.036
2.75 126.211 74.592
2.76 124.776 72.707
2.77 115.355 68.848
2.78 116.648 63.507
2.79 136.321 59.098
2.80 130.209 56.457
2.81 122.776 54.151
2.82 122.167 58.627
2.83 --undefined-- 67.481
2.84 --undefined-- 72.841
2.85 --undefined-- 74.751
2.86 133.627 74.413
2.87 131.526 73.460
2.88 130.908 72.393
2.89 128.331 71.867
2.90 134.048 72.604
2.91 134.841 73.475
2.92 136.278 74.025
2.93 136.609 74.278
2.94 136.268 74.263
2.95 135.633 73.964
2.96 133.801 73.236
2.97 130.933 71.777
2.98 125.351 69.626
2.99 128.409 69.731
3.00 136.994 72.962
3.01 128.205 75.185
3.02 124.685 76.092
3.03 122.335 76.400
3.04 119.913 76.129
3.05 118.298 74.975
3.06 113.087 72.883
3.07 113.247 69.776
3.08 114.158 65.270
3.09 114.270 60.225
3.10 115.698 56.917
3.11 118.332 54.893
3.12 120.214 54.301
3.13 --undefined-- 58.193
3.14 --undefined-- 62.067
3.15 --undefined-- 62.951
3.16 --undefined-- 61.103
3.17 --undefined-- 58.295
3.18 --undefined-- 56.528
3.19 --undefined-- 55.807
3.20 --undefined-- 56.565
3.21 --undefined-- 63.235
3.22 164.672 70.266
3.23 151.720 74.283
3.24 132.312 75.821
3.25 123.364 75.877
3.26 120.190 75.520
3.27 120.066 75.132
3.28 118.242 74.186
3.29 115.878 72.028
3.30 104.842 68.253
3.31 110.369 63.513
3.32 117.487 59.112
3.33 117.511 55.471
3.34 116.815 52.902
3.35 --undefined-- 50.996
3.36 --undefined-- 49.588
3.37 --undefined-- 48.012
3.38 --undefined-- 45.388
3.39 --undefined-- 41.773
3.40 --undefined-- 38.891
3.41 --undefined-- 38.062
3.42 --undefined-- 36.509
3.43 --undefined-- 34.869
3.44 --undefined-- 38.506
3.45 --undefined-- 49.612
3.46 --undefined-- 61.005
3.47 --undefined-- 68.592
3.48 --undefined-- 72.543
3.49 101.975 73.700
3.50 98.207 73.474
3.51 96.984 73.317
3.52 97.993 73.561
3.53 100.553 73.725
3.54 99.269 73.334
3.55 97.546 72.546
3.56 99.726 72.201
3.57 103.091 72.494
3.58 101.388 72.819
3.59 101.002 72.979
3.60 101.182 73.008
3.61 101.595 72.946
3.62 101.802 72.927
3.63 103.225 73.058
3.64 103.374 73.181
3.65 103.301 73.193
3.66 104.043 73.137
3.67 104.839 72.945
3.68 104.585 72.531
3.69 103.465 71.840
3.70 101.219 70.614
3.71 98.717 68.646
3.72 95.435 66.349
3.73 88.689 66.708
3.74 --undefined-- 69.992
3.75 106.954 72.533
3.76 99.098 73.880
3.77 97.030 74.040
3.78 93.707 73.273
3.79 96.835 72.746
3.80 96.639 72.734
3.81 95.894 72.978
3.82 99.616 73.662
3.83 101.447 74.544
3.84 103.710 75.329
3.85 107.254 76.037
3.86 109.550 76.441
3.87 113.928 76.586
3.88 118.373 76.675
3.89 121.059 76.707
3.90 126.182 76.743
3.91 128.584 76.638
3.92 131.072 76.333
3.93 131.707 76.052
3.94 130.552 75.829
3.95 124.996 75.191
3.96 117.958 73.711
3.97 111.577 71.658
3.98 103.532 69.696
3.99 107.099 67.841
4.00 115.481 64.990
4.01 113.536 60.070
4.02 --undefined-- 54.257
4.03 --undefined-- 52.255
4.04 --undefined-- 52.081
4.05 --undefined-- 52.325
4.06 --undefined-- 52.377
4.07 --undefined-- 52.398
4.08 --undefined-- 52.492
4.09 --undefined-- 52.459
4.10 --undefined-- 52.669
4.11 --undefined-- 53.304
4.12 --undefined-- 53.848
4.13 --undefined-- 53.842
4.14 --undefined-- 53.726
4.15 --undefined-- 54.089
4.16 --undefined-- 54.168
4.17 --undefined-- 53.640
4.18 --undefined-- 53.263
4.19 --undefined-- 53.619
4.20 --undefined-- 53.812
4.21 --undefined-- 53.563
4.22 --undefined-- 53.979
4.23 --undefined-- 54.274
4.24 --undefined-- 53.055
4.25 --undefined-- 50.352
4.26 --undefined-- 48.488
4.27 --undefined-- 48.174
4.28 --undefined-- 47.115
4.29 --undefined-- 49.506
4.30 --undefined-- 51.696
4.31 --undefined-- 50.111
4.32 --undefined-- 45.216
4.33 --undefined-- 42.224
4.34 --undefined-- 42.919
4.35 --undefined-- 43.792
4.36 --undefined-- 45.647
4.37 --undefined-- 48.498
4.38 --undefined-- 55.391
4.39 --undefined-- 63.748
4.40 --undefined-- 69.073
4.41 --undefined-- 71.629
4.42 --undefined-- 72.793
4.43 --undefined-- 73.743
4.44 --undefined-- 74.170
4.45 --undefined-- 74.326
4.46 130.130 74.895
4.47 127.072 74.807
4.48 126.020 73.767
4.49 131.306 73.360
4.50 136.294 73.915
4.51 140.100 74.615
4.52 144.039 75.099
4.53 148.415 75.338
4.54 155.013 75.553
4.55 156.464 75.747
4.56 157.389 75.703
4.57 157.456 75.458
4.58 155.213 75.208
4.59 153.219 74.990
4.60 150.738 74.788
4.61 148.240 74.680
4.62 145.032 74.646
4.63 142.652 74.686
4.64 140.323 74.860
4.65 138.374 75.093
4.66 136.201 75.140
4.67 132.870 74.502
4.68 124.999 72.270
4.69 121.236 67.868
4.70 133.248 61.786
4.71 129.738 56.994
4.72 128.929 55.377
4.73 129.087 54.683
4.74 127.631 54.682
4.75 --undefined-- 55.913
4.76 --undefined-- 58.498
4.77 --undefined-- 60.700
4.78 --undefined-- 61.401
4.79 --undefined-- 61.789
4.80 --undefined-- 62.735
4.81 --undefined-- 63.519
4.82 --undefined-- 64.041
4.83 --undefined-- 64.373
4.84 --undefined-- 63.725
4.85 --undefined-- 61.693
4.86 --undefined-- 59.989
4.87 --undefined-- 64.329
4.88 --undefined-- 68.859
4.89 117.327 71.063
4.90 107.967 71.986
4.91 103.607 72.640
4.92 101.096 73.119
4.93 101.581 73.516
4.94 100.165 73.883
4.95 99.018 74.073
4.96 99.411 74.258
4.97 101.378 74.639
4.98 102.552 75.006
4.99 104.914 75.206
5.00 106.029 75.245
5.01 107.397 75.177
5.02 109.030 75.091
5.03 110.089 75.090
5.04 111.410 75.155
5.05 112.920 --undefined--
5.06 114.836 --undefined--
5.07 --undefined-- --undefined--
5.08 --undefined-- --undefined--
