Time Pitch Intensity
0.01 --undefined-- --undefined--
0.02 107.100 --undefined--
0.03 107.166 --undefined--
0.04 107.288 --undefined--
0.05 107.526 69.768
0.06 108.516 69.970
0.07 108.872 69.439
0.08 108.381 67.928
0.09 109.894 66.220
0.10 --undefined-- 65.622
0.11 116.877 65.887
0.12 116.845 66.694
0.13 120.732 68.215
0.14 122.904 70.179
0.15 125.166 71.979
0.16 126.699 73.011
0.17 125.788 72.952
0.18 125.088 72.012
0.19 124.830 70.955
0.20 124.837 70.040
0.21 125.263 69.393
0.22 125.511 68.958
0.23 125.131 68.833
0.24 125.146 68.701
0.25 126.045 68.231
0.26 126.823 68.267
0.27 127.756 68.949
0.28 128.271 69.505
0.29 127.560 69.772
0.30 126.840 69.771
0.31 125.039 69.970
0.32 124.070 71.164
0.33 123.947 72.401
0.34 123.243 72.896
0.35 121.154 73.445
0.36 121.852 74.162
0.37 122.271 74.535
0.38 121.790 74.570
0.39 146.162 74.712
0.40 145.876 75.622
0.41 145.150 76.728
0.42 143.671 77.626
0.43 143.302 78.331
0.44 143.426 78.801
0.45 144.135 79.112
0.46 145.201 79.325
0.47 145.782 79.526
0.48 147.691 79.795
0.49 149.192 80.089
0.50 149.759 80.312
0.51 149.962 80.436
0.52 149.614 80.422
0.53 148.234 80.234
0.54 146.404 79.888
0.55 144.485 79.477
0.56 141.852 79.094
0.57 139.026 78.830
0.58 137.106 78.742
0.59 134.984 78.782
0.60 133.061 78.809
0.61 130.089 78.771
0.62 127.011 78.708
0.63 123.909 78.573
0.64 120.459 78.260
0.65 116.671 77.848
0.66 113.671 77.467
0.67 110.699 77.080
0.68 108.306 76.590
0.69 105.915 75.735
0.70 102.724 74.486
0.71 101.722 73.108
0.72 99.316 71.577
0.73 95.609 69.948
0.74 92.528 68.615
0.75 96.356 67.714
0.76 94.857 66.825
0.77 99.310 65.830
0.78 103.571 65.004
0.79 109.299 64.190
0.80 110.225 62.835
0.81 117.236 60.751
0.82 119.443 58.164
0.83 121.168 55.510
0.84 --undefined-- 53.240
0.85 --undefined-- 51.828
0.86 --undefined-- 51.956
0.87 --undefined-- 52.863
0.88 --undefined-- 52.267
0.89 --undefined-- 50.273
0.90 --undefined-- 48.686
0.91 --undefined-- 47.349
0.92 --undefined-- 47.100
0.93 --undefined-- 47.743
0.94 --undefined-- 47.293
0.95 --undefined-- 45.143
0.96 --undefined-- 43.041
0.97 --undefined-- 47.589
0.98 --undefined-- 54.991
0.99 --undefined-- 59.197
1.00 --undefined-- 63.309
1.01 --undefined-- 68.621
1.02 128.745 71.736
1.03 128.813 72.529
1.04 108.207 72.320
1.05 107.371 71.908
1.06 107.176 71.285
1.07 106.787 70.626
1.08 106.593 69.784
1.09 102.909 69.474
1.10 103.082 70.366
1.11 102.632 71.043
1.12 102.062 70.694
1.13 102.221 70.100
1.14 102.274 70.496
1.15 102.374 71.232
1.16 102.269 71.515
1.17 101.993 71.432
1.18 101.862 71.078
1.19 102.493 71.007
1.20 103.360 70.761
1.21 104.228 69.794
1.22 104.781 68.395
1.23 105.804 66.965
1.24 107.077 65.052
1.25 107.639 63.023
1.26 107.414 60.758
1.27 105.973 58.617
1.28 105.253 59.896
1.29 109.503 64.480
1.30 109.675 68.654
1.31 114.707 71.138
1.32 113.624 72.144
1.33 106.625 72.160
1.34 107.659 71.388
1.35 107.255 70.467
1.36 107.203 69.895
1.37 106.916 69.767
1.38 107.149 70.080
1.39 107.245 70.703
1.40 106.716 71.556
1.41 106.107 72.235
1.42 106.173 72.682
1.43 105.854 72.666
1.44 105.582 72.016
1.45 105.202 71.182
1.46 105.219 70.562
1.47 106.899 69.895
1.48 108.213 68.724
1.49 108.065 66.599
1.50 --undefined-- 62.759
1.51 --undefined-- 56.831
1.52 --undefined-- 49.928
1.53 --undefined-- 45.200
1.54 --undefined-- 43.156
1.55 --undefined-- 42.950
1.56 --undefined-- 44.465
1.57 --undefined-- 48.092
1.58 --undefined-- 52.321
1.59 --undefined-- 57.955
1.60 --undefined-- 64.402
1.61 124.878 68.911
1.62 120.639 71.487
1.63 119.708 72.677
1.64 120.410 72.897
1.65 123.401 72.734
1.66 125.495 72.564
1.67 128.536 72.547
1.68 130.439 72.745
1.69 133.260 72.823
1.70 136.412 72.798
1.71 138.692 72.772
1.72 142.797 72.634
1.73 145.482 72.352
1.74 147.084 72.128
1.75 148.295 72.343
1.76 150.404 72.625
1.77 151.926 72.331
1.78 152.789 71.411
1.79 153.054 69.911
1.80 153.197 67.008
1.81 153.894 62.510
1.82 152.298 59.928
1.83 149.387 60.024
1.84 146.338 60.326
1.85 141.396 60.380
1.86 134.048 60.106
1.87 127.337 60.582
1.88 126.405 64.521
1.89 104.827 68.397
1.90 103.454 69.809
1.91 98.373 69.195
1.92 95.583 67.612
1.93 92.339 65.380
1.94 --undefined-- 63.102
1.95 --undefined-- 63.100
1.96 --undefined-- 63.049
1.97 --undefined-- 62.545
1.98 --undefined-- 62.241
1.99 --undefined-- 60.130
2.00 --undefined-- 55.599
2.01 --undefined-- 49.810
2.02 --undefined-- 47.363
2.03 --undefined-- 51.324
2.04 --undefined-- 57.338
2.05 --undefined-- 61.005
2.06 --undefined-- 63.999
2.07 --undefined-- 67.130
2.08 134.887 69.347
2.09 135.798 70.087
2.10 136.833 69.629
2.11 138.552 68.701
2.12 138.989 67.879
2.13 140.353 67.349
2.14 141.569 66.975
2.15 144.031 67.023
2.16 145.232 67.872
2.17 145.713 68.688
2.18 145.390 68.999
2.19 145.448 68.921
2.20 145.639 68.601
2.21 145.075 68.129
2.22 144.717 67.562
2.23 144.354 66.842
2.24 143.928 65.843
2.25 143.292 64.572
2.26 143.090 63.328
2.27 143.440 62.662
2.28 141.358 62.208
2.29 137.834 60.963
2.30 134.371 59.124
2.31 --undefined-- 62.605
2.32 --undefined-- 67.500
2.33 --undefined-- 69.726
2.34 --undefined-- 70.163
2.35 --undefined-- 68.523
2.36 --undefined-- 64.424
2.37 --undefined-- 63.175
2.38 --undefined-- 65.367
2.39 --undefined-- 65.727
2.40 91.090 64.865
2.41 82.225 65.680
2.42 101.645 68.479
2.43 105.907 70.814
2.44 110.275 71.736
2.45 114.716 71.483
2.46 118.810 70.370
2.47 120.490 68.306
2.48 120.770 64.874
2.49 --undefined-- 59.355
2.50 --undefined-- 56.099
2.51 --undefined-- 64.059
2.52 --undefined-- 69.985
2.53 144.501 73.075
2.54 143.714 74.141
2.55 144.053 73.793
2.56 144.391 72.625
2.57 145.409 71.192
2.58 147.485 69.996
2.59 150.616 69.642
2.60 152.969 69.558
2.61 153.457 68.897
2.62 151.701 67.717
2.63 150.266 65.841
2.64 142.295 62.342
2.65 138.981 56.998
2.66 --undefined-- 51.871
2.67 --undefined-- 51.904
2.68 --undefined-- 57.762
2.69 --undefined-- 63.812
2.70 --undefined-- 67.721
2.71 --undefined-- 68.852
2.72 --undefined-- 69.164
2.73 --undefined-- 70.838
2.74 --undefined-- 71.975
2.75 --undefined-- 72.160
2.76 112.806 72.029
2.77 111.415 71.965
2.78 110.352 72.065
2.79 111.681 72.148
2.80 114.419 71.939
2.81 118.437 71.837
2.82 120.408 72.066
2.83 121.583 72.171
2.84 123.442 72.204
2.85 126.508 72.389
2.86 129.678 72.824
2.87 131.916 73.292
2.88 133.096 73.481
2.89 133.239 73.535
2.90 132.522 73.600
2.91 131.702 73.541
2.92 130.418 73.185
2.93 128.437 72.854
2.94 125.963 72.942
2.95 124.439 72.910
2.96 123.161 72.359
2.97 122.277 71.790
2.98 121.466 71.613
2.99 121.413 71.449
3.00 121.061 71.028
3.01 120.096 70.631
3.02 119.585 70.322
3.03 118.503 70.156
3.04 118.390 70.294
3.05 118.873 70.276
3.06 119.091 69.589
3.07 120.015 68.564
3.08 120.591 67.682
3.09 121.622 66.122
3.10 123.187 62.870
3.11 --undefined-- 57.909
3.12 --undefined-- 53.078
3.13 --undefined-- 50.434
3.14 --undefined-- 48.013
3.15 --undefined-- 45.205
3.16 --undefined-- 44.289
3.17 --undefined-- 44.398
3.18 --undefined-- 43.506
3.19 --undefined-- 41.057
3.20 --undefined-- 38.809
3.21 --undefined-- 38.856
3.22 --undefined-- 39.628
3.23 --undefined-- 40.261
3.24 --undefined-- 40.318
3.25 --undefined-- 40.250
3.26 --undefined-- 40.922
3.27 --undefined-- 41.764
3.28 --undefined-- 42.336
3.29 --undefined-- 42.788
3.30 --undefined-- 42.738
3.31 --undefined-- 42.109
3.32 --undefined-- 42.027
3.33 --undefined-- 42.622
3.34 --undefined-- 43.161
3.35 --undefined-- 43.211
3.36 --undefined-- 42.925
3.37 --undefined-- 42.177
3.38 --undefined-- 40.805
3.39 --undefined-- 38.658
3.40 --undefined-- 36.402
3.41 --undefined-- 36.471
3.42 --undefined-- 37.132
3.43 --undefined-- 36.377
3.44 --undefined-- 35.605
3.45 --undefined-- 39.984
3.46 --undefined-- 48.954
3.47 --undefined-- 56.596
3.48 --undefined-- 62.899
3.49 131.840 67.541
3.50 136.130 70.124
3.51 138.544 70.953
3.52 141.915 70.952
3.53 145.216 70.976
3.54 147.977 70.984
3.55 148.280 70.012
3.56 148.076 67.181
3.57 142.786 62.872
3.58 139.066 60.203
3.59 134.370 59.693
3.60 128.119 59.335
3.61 121.616 59.036
3.62 116.851 58.725
3.63 111.127 57.952
3.64 100.555 56.521
3.65 99.853 55.272
3.66 95.702 54.524
3.67 92.512 53.149
3.68 --undefined-- 50.536
3.69 --undefined-- 46.875
3.70 --undefined-- 43.240
3.71 --undefined-- 44.653
3.72 --undefined-- 48.623
3.73 --undefined-- 52.889
3.74 --undefined-- 59.590
3.75 --undefined-- 65.384
3.76 --undefined-- 68.839
3.77 112.133 70.392
3.78 113.047 70.716
3.79 116.134 70.561
3.80 120.614 70.460
3.81 123.205 70.307
3.82 124.695 69.727
3.83 125.306 68.311
3.84 122.704 65.686
3.85 120.330 61.604
3.86 116.642 56.436
3.87 --undefined-- 53.718
3.88 --undefined-- 55.433
3.89 --undefined-- 61.561
3.90 153.910 67.983
3.91 148.522 71.889
3.92 143.596 73.473
3.93 142.194 73.297
3.94 141.823 71.899
3.95 142.858 69.870
3.96 142.554 66.915
3.97 142.254 62.230
3.98 146.221 58.000
3.99 146.328 57.652
4.00 145.971 58.083
4.01 146.234 58.330
4.02 146.180 58.349
4.03 143.971 57.792
4.04 141.695 56.072
4.05 --undefined-- 52.550
4.06 --undefined-- 47.477
4.07 --undefined-- 42.896
4.08 --undefined-- 41.804
4.09 --undefined-- 44.084
4.10 --undefined-- 45.156
4.11 --undefined-- 46.580
4.12 --undefined-- 50.783
4.13 --undefined-- 58.151
4.14 --undefined-- 65.711
4.15 295.827 70.456
4.16 297.850 72.478
4.17 297.778 72.314
4.18 --undefined-- 70.495
4.19 --undefined-- 68.088
4.20 --undefined-- 68.663
4.21 --undefined-- 71.100
4.22 --undefined-- 72.078
4.23 --undefined-- 71.836
4.24 --undefined-- 71.474
4.25 95.055 71.380
4.26 92.791 70.964
4.27 91.703 69.705
4.28 90.085 66.805
4.29 89.500 63.356
4.30 92.098 64.734
4.31 93.435 67.132
4.32 --undefined-- 67.804
4.33 --undefined-- 69.045
4.34 95.418 70.637
4.35 94.745 71.009
4.36 94.350 70.416
4.37 93.936 68.890
4.38 93.847 65.997
4.39 97.399 61.622
4.40 97.558 57.910
4.41 100.348 56.963
4.42 101.571 56.901
4.43 101.539 56.877
4.44 102.497 57.114
4.45 102.935 57.517
4.46 103.271 57.671
4.47 103.255 57.541
4.48 103.543 57.384
4.49 103.085 57.326
4.50 103.545 57.451
4.51 103.550 57.519
4.52 103.915 57.397
4.53 104.063 57.047
4.54 102.940 56.006
4.55 101.770 53.867
4.56 --undefined-- 50.625
4.57 --undefined-- 53.559
4.58 --undefined-- 61.820
4.59 --undefined-- 67.487
4.60 --undefined-- 70.516
4.61 --undefined-- 71.322
4.62 --undefined-- 70.663
4.63 91.866 69.454
4.64 91.236 68.949
4.65 91.254 69.322
4.66 92.590 69.712
4.67 94.409 69.845
4.68 94.937 69.705
4.69 96.419 69.486
4.70 98.695 69.548
4.71 101.159 69.837
4.72 105.588 70.256
4.73 109.324 70.743
4.74 112.735 70.925
4.75 116.755 70.700
4.76 119.957 70.523
4.77 123.931 70.515
4.78 128.729 70.708
4.79 131.683 70.968
4.80 132.818 70.944
4.81 133.963 70.849
4.82 135.617 71.000
4.83 137.239 71.088
4.84 138.981 71.036
4.85 139.722 70.725
4.86 139.931 70.145
4.87 140.193 69.738
4.88 141.038 69.802
4.89 142.526 70.211
4.90 142.813 70.640
4.91 143.389 70.958
4.92 144.098 71.233
4.93 144.504 71.504
4.94 144.182 71.726
4.95 143.630 71.819
4.96 142.401 71.497
4.97 139.401 70.637
4.98 137.165 69.916
4.99 135.539 69.396
5.00 133.164 67.973
5.01 130.179 64.747
5.02 128.240 60.091
5.03 125.386 57.100
5.04 120.411 55.690
5.05 --undefined-- 54.437
5.06 --undefined-- 53.232
5.07 --undefined-- 50.893
5.08 --undefined-- 47.931
5.09 --undefined-- 45.468
5.10 --undefined-- 43.375
5.11 --undefined-- 46.081
5.12 --undefined-- 50.991
5.13 231.228 54.110
5.14 213.592 56.013
5.15 212.105 57.145
5.16 210.126 59.855
5.17 189.853 65.688
5.18 --undefined-- 70.472
5.19 --undefined-- 72.254
5.20 --undefined-- 71.400
5.21 --undefined-- 70.730
5.22 92.317 70.637
5.23 94.756 70.041
5.24 97.251 70.170
5.25 97.449 --undefined--
5.26 100.665 --undefined--
5.27 --undefined-- --undefined--
5.28 --undefined-- --undefined--
