Time Pitch Intensity
0.01 --undefined-- --undefined--
0.02 --undefined-- --undefined--
0.03 --undefined-- --undefined--
0.04 --undefined-- --undefined--
0.05 266.222 64.088
0.06 256.732 68.896
0.07 246.556 70.826
0.08 239.405 71.116
0.09 229.304 70.658
0.10 219.200 69.228
0.11 193.590 66.737
0.12 --undefined-- 63.926
0.13 --undefined-- 60.502
0.14 --undefined-- 56.113
0.15 --undefined-- 53.626
0.16 --undefined-- 54.430
0.17 --undefined-- 55.484
0.18 154.837 56.952
0.19 164.119 58.872
0.20 164.853 60.258
0.21 162.002 60.822
0.22 157.752 61.058
0.23 155.567 61.378
0.24 162.323 61.952
0.25 171.085 62.745
0.26 172.889 63.777
0.27 174.545 65.018
0.28 175.536 66.194
0.29 175.458 67.166
0.30 174.909 67.910
0.31 174.803 68.465
0.32 172.156 68.901
0.33 170.607 69.222
0.34 166.609 69.336
0.35 163.007 69.074
0.36 162.923 68.563
0.37 164.780 68.241
0.38 168.556 68.330
0.39 172.271 68.732
0.40 175.512 69.151
0.41 181.408 69.262
0.42 187.327 68.725
0.43 190.140 67.259
0.44 183.940 64.618
0.45 176.375 60.849
0.46 176.244 55.928
0.47 --undefined-- 49.021
0.48 --undefined-- 42.237
0.49 --undefined-- 42.465
0.50 --undefined-- 48.461
0.51 --undefined-- 58.467
0.52 197.106 65.214
0.53 192.278 68.371
0.54 181.421 68.806
0.55 171.403 67.608
0.56 165.433 65.257
0.57 158.996 61.370
0.58 152.009 56.034
0.59 --undefined-- 50.243
0.60 --undefined-- 45.314
0.61 --undefined-- 43.099
0.62 --undefined-- 41.771
0.63 --undefined-- 41.160
0.64 --undefined-- 41.401
0.65 --undefined-- 42.385
0.66 --undefined-- 44.420
0.67 --undefined-- 45.627
0.68 --undefined-- 53.156
0.69 197.063 61.451
0.70 194.039 66.267
0.71 189.057 68.487
0.72 185.537 69.224
0.73 182.633 69.177
0.74 180.801 68.301
0.75 177.121 65.915
0.76 170.070 61.390
0.77 181.235 54.874
0.78 --undefined-- 47.616
0.79 --undefined-- 42.470
0.80 --undefined-- 39.769
0.81 --undefined-- 40.426
0.82 --undefined-- 42.607
0.83 --undefined-- 42.775
0.84 --undefined-- 40.792
0.85 --undefined-- 39.017
0.86 --undefined-- 40.191
0.87 --undefined-- 41.939
0.88 --undefined-- 46.039
0.89 --undefined-- 52.620
0.90 --undefined-- 56.085
0.91 --undefined-- 55.863
0.92 --undefined-- 56.048
0.93 229.664 61.327
0.94 233.849 65.635
0.95 238.376 68.158
0.96 240.538 69.513
0.97 239.618 70.295
0.98 238.985 70.782
0.99 238.494 71.029
1.00 236.581 71.092
1.01 234.142 71.062
1.02 231.425 70.905
1.03 229.426 70.601
1.04 228.009 70.383
1.05 226.959 70.456
1.06 225.582 70.680
1.07 223.089 71.074
1.08 220.845 72.108
1.09 223.119 73.203
1.10 222.413 73.729
1.11 222.120 73.836
1.12 221.683 73.853
1.13 220.197 74.049
1.14 218.575 74.375
1.15 215.575 74.540
1.16 209.911 74.331
1.17 203.263 73.528
1.18 194.064 71.891
1.19 180.585 69.647
1.20 173.550 67.715
1.21 164.883 66.212
1.22 158.253 64.915
1.23 155.787 64.434
1.24 155.780 64.834
1.25 155.837 65.396
1.26 155.390 65.828
1.27 155.587 66.252
1.28 151.523 66.759
1.29 149.463 67.285
1.30 148.743 67.699
1.31 149.691 67.966
1.32 152.574 68.220
1.33 155.457 68.534
1.34 159.079 68.644
1.35 163.406 68.025
1.36 165.222 66.221
1.37 161.310 63.134
1.38 163.169 58.746
1.39 --undefined-- 52.454
1.40 --undefined-- 44.479
1.41 --undefined-- 41.352
1.42 --undefined-- 41.635
1.43 --undefined-- 41.630
1.44 --undefined-- 42.436
1.45 --undefined-- 44.044
1.46 --undefined-- 47.299
1.47 --undefined-- 53.110
1.48 188.884 59.842
1.49 189.089 64.482
1.50 177.719 66.896
1.51 173.425 67.927
1.52 171.565 68.361
1.53 169.048 68.540
1.54 167.686 68.617
1.55 166.145 68.689
1.56 166.327 69.099
1.57 168.539 69.829
1.58 170.349 70.313
1.59 171.671 70.369
1.60 172.315 70.062
1.61 171.924 69.127
1.62 169.594 66.905
1.63 169.530 62.693
1.64 --undefined-- 55.938
1.65 --undefined-- 50.100
1.66 --undefined-- 57.706
1.67 --undefined-- 64.598
1.68 179.229 68.263
1.69 174.003 69.434
1.70 167.642 69.271
1.71 163.462 68.798
1.72 161.270 68.532
1.73 160.584 68.561
1.74 160.949 68.679
1.75 162.040 68.603
1.76 164.165 68.365
1.77 166.876 68.234
1.78 169.455 68.259
1.79 170.262 68.224
1.80 168.455 67.908
1.81 163.710 67.096
1.82 159.272 65.570
1.83 155.339 63.279
1.84 151.702 60.283
1.85 156.286 57.497
1.86 156.635 57.528
1.87 158.743 60.865
1.88 160.353 64.452
1.89 163.613 66.713
1.90 159.224 67.723
1.91 148.879 67.918
1.92 138.308 67.930
1.93 132.565 68.182
1.94 129.425 68.570
1.95 130.091 68.798
1.96 132.720 68.764
1.97 135.219 68.566
1.98 139.151 68.222
1.99 141.496 67.663
2.00 142.577 66.603
2.01 142.533 64.466
2.02 135.765 60.711
2.03 122.887 54.712
2.04 --undefined-- 46.615
2.05 --undefined-- 44.168
2.06 --undefined-- 53.904
2.07 --undefined-- 62.701
2.08 177.782 67.607
2.09 165.814 69.548
2.10 162.504 70.015
2.11 161.660 70.299
2.12 162.955 70.563
2.13 164.753 70.732
2.14 166.659 70.950
2.15 167.254 71.201
2.16 168.270 71.417
2.17 168.738 71.575
2.18 169.118 71.664
2.19 169.275 71.704
2.20 169.440 71.690
2.21 169.386 71.580
2.22 169.288 71.413
2.23 169.241 71.251
2.24 168.773 71.200
2.25 168.859 71.243
2.26 168.955 71.222
2.27 169.810 71.082
2.28 170.959 70.788
2.29 172.441 70.232
2.30 172.388 69.397
2.31 172.741 68.289
2.32 185.098 66.859
2.33 189.474 64.636
2.34 156.838 61.099
2.35 144.563 56.145
2.36 --undefined-- 49.548
2.37 --undefined-- 42.826
2.38 --undefined-- 41.223
2.39 --undefined-- 40.325
2.40 --undefined-- 38.991
2.41 --undefined-- 37.904
2.42 --undefined-- 37.936
2.43 --undefined-- 38.345
2.44 --undefined-- 37.461
2.45 --undefined-- 36.478
2.46 --undefined-- 36.438
2.47 --undefined-- 37.332
2.48 --undefined-- 39.157
2.49 --undefined-- 40.147
2.50 --undefined-- 40.587
2.51 --undefined-- 42.024
2.52 --undefined-- 42.326
2.53 --undefined-- 41.178
2.54 --undefined-- 40.213
2.55 --undefined-- 40.150
2.56 --undefined-- 40.489
2.57 --undefined-- 41.515
2.58 --undefined-- 42.149
2.59 --undefined-- 41.863
2.60 --undefined-- 40.545
2.61 --undefined-- 38.505
2.62 --undefined-- 37.233
2.63 --undefined-- 38.385
2.64 --undefined-- 40.898
2.65 --undefined-- 42.687
2.66 --undefined-- 43.474
2.67 --undefined-- 42.628
2.68 --undefined-- 40.090
2.69 --undefined-- 38.157
2.70 --undefined-- 41.683
2.71 --undefined-- 49.665
2.72 --undefined-- 57.953
2.73 221.383 64.812
2.74 213.131 68.814
2.75 206.683 70.787
2.76 202.862 71.976
2.77 199.810 72.783
2.78 196.931 73.219
2.79 195.064 73.587
2.80 194.535 73.985
2.81 193.711 74.228
2.82 192.216 74.257
2.83 190.753 74.112
2.84 189.367 73.807
2.85 188.575 73.433
2.86 188.626 73.113
2.87 189.204 72.874
2.88 189.187 72.949
2.89 189.515 73.686
2.90 193.097 74.524
2.91 193.025 74.785
2.92 193.727 74.694
2.93 194.487 74.517
2.94 195.379 74.192
2.95 195.503 73.415
2.96 194.688 71.670
2.97 192.138 68.298
2.98 188.122 62.578
2.99 --undefined-- 54.272
3.00 --undefined-- 51.976
3.01 --undefined-- 56.280
3.02 --undefined-- 59.681
3.03 --undefined-- 60.816
3.04 --undefined-- 59.800
3.05 --undefined-- 61.339
3.06 292.543 67.327
3.07 278.284 71.246
3.08 274.060 72.878
3.09 271.777 73.111
3.10 270.311 72.925
3.11 270.422 72.924
3.12 270.031 73.113
3.13 268.853 73.457
3.14 266.627 73.973
3.15 263.336 74.496
3.16 260.056 74.726
3.17 257.264 74.707
3.18 256.585 74.809
3.19 255.438 74.999
3.20 251.465 75.017
3.21 247.161 74.894
3.22 241.235 74.800
3.23 233.158 74.661
3.24 224.829 73.986
3.25 215.084 72.141
3.26 200.181 69.156
3.27 187.728 66.346
3.28 176.774 65.014
3.29 167.878 64.607
3.30 162.471 64.382
3.31 162.605 64.994
3.32 160.995 66.620
3.33 161.459 68.371
3.34 162.917 69.832
3.35 163.648 70.954
3.36 163.860 71.782
3.37 164.152 72.391
3.38 163.766 72.834
3.39 162.457 73.164
3.40 162.136 73.361
3.41 161.880 73.326
3.42 161.783 73.032
3.43 162.081 72.547
3.44 162.323 72.069
3.45 162.770 71.734
3.46 163.401 71.560
3.47 164.242 71.570
3.48 165.293 71.786
3.49 166.900 72.170
3.50 169.815 72.657
3.51 172.359 73.205
3.52 176.630 73.708
3.53 180.144 73.949
3.54 183.040 73.699
3.55 182.478 72.713
3.56 176.923 70.747
3.57 166.240 67.721
3.58 --undefined-- 63.871
3.59 --undefined-- 58.956
3.60 --undefined-- 51.984
3.61 --undefined-- 43.920
3.62 --undefined-- 40.675
3.63 --undefined-- 41.280
3.64 --undefined-- 42.511
3.65 --undefined-- 46.513
3.66 --undefined-- 50.735
3.67 --undefined-- 53.267
3.68 --undefined-- 56.031
3.69 157.422 59.821
3.70 171.813 63.847
3.71 177.987 67.691
3.72 182.748 70.639
3.73 185.290 72.248
3.74 182.167 72.721
3.75 177.400 72.778
3.76 173.953 72.803
3.77 170.847 72.641
3.78 169.034 72.288
3.79 168.363 71.822
3.80 169.564 71.269
3.81 171.179 70.976
3.82 170.588 71.215
3.83 168.874 71.396
3.84 167.708 70.991
3.85 167.237 70.331
3.86 167.382 69.924
3.87 168.062 69.809
3.88 168.950 69.632
3.89 170.632 68.928
3.90 172.558 67.198
3.91 170.321 63.884
3.92 169.019 58.765
3.93 --undefined-- 52.223
3.94 --undefined-- 46.607
3.95 --undefined-- 44.538
3.96 --undefined-- 44.152
3.97 --undefined-- 44.857
3.98 --undefined-- 46.149
3.99 --undefined-- 48.613
4.00 --undefined-- 51.195
4.01 --undefined-- 51.728
4.02 --undefined-- 50.590
4.03 --undefined-- 49.590
4.04 --undefined-- 48.916
4.05 --undefined-- 49.033
4.06 --undefined-- 49.975
4.07 --undefined-- 54.183
4.08 257.826 62.130
4.09 262.632 67.761
4.10 262.715 70.822
4.11 260.046 72.192
4.12 257.553 72.750
4.13 254.492 72.941
4.14 249.885 72.944
4.15 246.269 72.896
4.16 244.638 72.964
4.17 244.342 73.189
4.18 244.833 73.530
4.19 245.270 73.884
4.20 245.356 73.999
4.21 242.694 74.072
4.22 243.636 74.766
4.23 245.777 75.502
4.24 245.270 75.845
4.25 244.597 76.175
4.26 243.190 76.576
4.27 240.288 76.879
4.28 236.315 77.038
4.29 231.669 76.949
4.30 225.620 76.377
4.31 216.944 75.130
4.32 207.807 73.275
4.33 197.749 70.888
4.34 186.125 68.519
4.35 181.774 67.336
4.36 178.389 67.121
4.37 175.357 67.004
4.38 173.206 66.936
4.39 171.088 66.921
4.40 168.340 66.897
4.41 165.786 66.848
4.42 163.866 66.757
4.43 164.441 66.758
4.44 166.423 67.067
4.45 168.832 67.453
4.46 170.589 67.418
4.47 171.860 66.452
4.48 171.422 64.251
4.49 170.707 60.854
4.50 181.048 56.074
4.51 --undefined-- 49.275
4.52 --undefined-- 42.055
4.53 --undefined-- 39.611
4.54 --undefined-- 41.961
4.55 --undefined-- 43.971
4.56 --undefined-- 44.687
4.57 --undefined-- 44.118
4.58 --undefined-- 44.113
4.59 --undefined-- 46.969
4.60 --undefined-- 52.352
4.61 191.708 58.760
4.62 182.505 63.133
4.63 180.009 65.439
4.64 177.473 66.541
4.65 174.680 67.018
4.66 172.237 67.257
4.67 171.372 67.335
4.68 170.686 67.444
4.69 171.436 67.770
4.70 171.971 68.020
4.71 171.649 67.957
4.72 171.334 67.628
4.73 171.213 67.113
4.74 171.069 66.208
4.75 169.537 64.294
4.76 170.192 60.637
4.77 --undefined-- 54.652
4.78 --undefined-- 51.388
4.79 --undefined-- 58.866
4.80 --undefined-- 64.405
4.81 176.374 67.233
4.82 171.932 68.054
4.83 167.591 67.960
4.84 164.720 67.710
4.85 163.223 67.663
4.86 161.715 67.672
4.87 161.009 67.539
4.88 160.536 67.413
4.89 159.322 67.434
4.90 159.615 67.486
4.91 160.552 67.278
4.92 160.257 66.357
4.93 160.124 64.311
4.94 159.918 61.434
4.95 158.364 58.110
4.96 158.955 53.909
4.97 --undefined-- 49.144
4.98 --undefined-- 50.395
4.99 --undefined-- 57.884
5.00 185.571 63.845
5.01 179.418 66.952
5.02 174.969 67.973
5.03 171.164 67.803
5.04 169.012 67.279
5.05 168.527 66.907
5.06 167.777 66.638
5.07 167.421 66.495
5.08 166.258 66.481
5.09 165.140 66.541
5.10 164.270 66.647
5.11 163.669 66.757
5.12 163.671 66.782
5.13 163.626 66.805
5.14 163.715 66.899
5.15 165.021 67.065
5.16 165.763 67.266
5.17 166.497 67.404
5.18 162.533 66.944
5.19 157.290 65.217
5.20 157.610 62.171
5.21 --undefined-- 58.268
5.22 --undefined-- 53.657
5.23 --undefined-- 48.100
5.24 --undefined-- 43.459
5.25 --undefined-- 43.639
5.26 --undefined-- 48.412
5.27 171.900 52.599
5.28 184.263 55.565
5.29 199.130 57.686
5.30 204.343 59.105
5.31 202.911 60.432
5.32 202.042 62.290
5.33 203.166 64.295
5.34 209.414 66.301
5.35 217.343 68.503
5.36 221.792 70.438
5.37 223.395 71.771
5.38 222.099 71.905
5.39 218.066 70.037
5.40 209.819 66.676
5.41 216.238 66.487
5.42 212.456 68.132
5.43 209.315 68.675
5.44 208.584 68.526
5.45 206.346 68.161
5.46 204.995 67.849
5.47 203.647 67.682
5.48 203.030 67.516
5.49 203.122 --undefined--
5.50 204.043 --undefined--
5.51 --undefined-- --undefined--
5.52 --undefined-- --undefined--
