Time Pitch Intensity
0.01 --undefined-- --undefined--
0.02 125.511 --undefined--
0.03 125.607 --undefined--
0.04 131.664 --undefined--
0.05 132.615 75.535
0.06 129.192 76.832
0.07 123.916 76.865
0.08 120.261 76.389
0.09 118.205 75.750
0.10 115.675 74.819
0.11 114.777 74.148
0.12 114.745 74.094
0.13 114.840 74.542
0.14 114.787 75.164
0.15 113.541 75.326
0.16 114.910 74.976
0.17 116.434 74.482
0.18 117.184 73.419
0.19 --undefined-- 70.532
0.20 118.713 65.324
0.21 121.034 60.109
0.22 --undefined-- 55.937
0.23 --undefined-- 52.279
0.24 --undefined-- 51.496
0.25 --undefined-- 59.455
0.26 --undefined-- 68.230
0.27 150.798 73.678
0.28 146.730 75.958
0.29 137.921 75.985
0.30 134.074 75.334
0.31 133.445 75.145
0.32 132.947 75.427
0.33 132.781 75.886
0.34 133.173 76.395
0.35 133.911 77.012
0.36 134.401 77.553
0.37 134.000 77.755
0.38 133.150 77.725
0.39 132.367 77.633
0.40 131.578 77.191
0.41 129.943 75.757
0.42 127.465 72.818
0.43 127.749 68.478
0.44 129.114 63.596
0.45 128.025 58.928
0.46 126.290 55.019
0.47 127.349 53.828
0.48 126.884 54.756
0.49 --undefined-- 55.077
0.50 --undefined-- 55.139
0.51 --undefined-- 56.016
0.52 142.753 59.185
0.53 144.656 66.071
0.54 150.926 71.445
0.55 139.144 73.955
0.56 137.674 74.386
0.57 136.875 73.776
0.58 132.420 72.961
0.59 132.030 72.928
0.60 129.763 73.365
0.61 128.389 73.464
0.62 127.831 73.260
0.63 127.438 72.809
0.64 128.053 72.119
0.65 129.933 71.636
0.66 130.409 71.611
0.67 128.860 71.657
0.68 128.620 71.643
0.69 130.985 71.701
0.70 130.794 71.898
0.71 129.664 72.200
0.72 128.100 72.489
0.73 126.096 72.589
0.74 124.694 72.686
0.75 129.518 73.017
0.76 121.693 73.454
0.77 119.335 73.952
0.78 116.908 73.741
0.79 112.956 72.380
0.80 110.045 70.230
0.81 107.508 67.789
0.82 107.244 65.436
0.83 105.624 63.051
0.84 111.342 60.552
0.85 113.420 57.377
0.86 105.036 53.126
0.87 --undefined-- 49.263
0.88 --undefined-- 48.051
0.89 --undefined-- 49.787
0.90 --undefined-- 50.641
0.91 --undefined-- 51.356
0.92 --undefined-- 53.912
0.93 --undefined-- 56.312
0.94 --undefined-- 57.560
0.95 --undefined-- 58.178
0.96 --undefined-- 58.340
0.97 --undefined-- 58.286
0.98 --undefined-- 61.380
0.99 --undefined-- 65.915
1.00 106.096 68.470
1.01 104.834 69.459
1.02 103.064 69.777
1.03 100.682 69.872
1.04 101.198 69.661
1.05 101.133 69.022
1.06 98.905 68.282
1.07 101.237 67.711
1.08 102.747 67.140
1.09 104.077 66.189
1.10 101.053 64.587
1.11 --undefined-- 62.247
1.12 --undefined-- 59.189
1.13 --undefined-- 55.281
1.14 --undefined-- 50.303
1.15 --undefined-- 46.502
1.16 --undefined-- 44.811
1.17 --undefined-- 43.283
1.18 --undefined-- 47.579
1.19 --undefined-- 57.842
1.20 --undefined-- 64.456
1.21 130.983 68.546
1.22 132.454 71.616
1.23 138.441 74.147
1.24 141.383 76.097
1.25 144.235 77.383
1.26 144.671 78.176
1.27 143.733 78.688
1.28 142.626 78.952
1.29 141.931 79.026
1.30 141.801 79.031
1.31 142.025 78.940
1.32 142.314 78.718
1.33 142.484 78.442
1.34 142.545 78.196
1.35 142.335 77.986
1.36 141.767 77.739
1.37 141.258 77.398
1.38 140.689 76.936
1.39 140.200 76.372
1.40 140.150 75.806
1.41 140.863 75.476
1.42 142.049 75.700
1.43 142.554 76.355
1.44 142.301 76.569
1.45 142.073 75.234
1.46 142.106 71.649
1.47 145.544 66.361
1.48 142.897 61.729
1.49 138.509 57.246
1.50 --undefined-- 51.853
1.51 --undefined-- 51.042
1.52 --undefined-- 53.375
1.53 --undefined-- 54.415
1.54 --undefined-- 54.448
1.55 --undefined-- 56.035
1.56 --undefined-- 63.603
1.57 --undefined-- 70.573
1.58 185.010 74.200
1.59 181.695 75.317
1.60 176.970 74.976
1.61 173.639 74.407
1.62 172.383 74.437
1.63 172.023 74.733
1.64 171.920 74.805
1.65 172.229 74.899
1.66 173.385 75.327
1.67 173.905 75.990
1.68 172.997 76.502
1.69 172.299 76.589
1.70 172.755 76.479
1.71 172.878 76.499
1.72 172.162 76.602
1.73 171.414 76.638
1.74 170.627 76.511
1.75 169.592 76.142
1.76 168.309 75.530
1.77 167.012 74.624
1.78 165.233 73.319
1.79 162.812 71.525
1.80 161.305 69.238
1.81 159.722 66.572
1.82 153.753 64.160
1.83 152.501 63.075
1.84 153.288 62.406
1.85 157.565 61.137
1.86 160.809 62.387
1.87 168.132 69.094
1.88 159.649 74.368
1.89 151.746 76.940
1.90 146.891 77.298
1.91 138.220 76.364
1.92 133.994 75.483
1.93 133.171 75.331
1.94 133.174 75.728
1.95 133.643 76.235
1.96 132.144 76.251
1.97 129.803 75.118
1.98 132.405 72.556
1.99 138.777 69.400
2.00 140.608 67.110
2.01 142.032 65.391
2.02 144.753 64.301
2.03 147.399 64.696
2.04 151.737 66.278
2.05 155.611 68.219
2.06 163.698 70.088
2.07 168.227 71.771
2.08 176.243 73.132
2.09 180.301 74.330
2.10 181.821 75.383
2.11 182.829 75.899
2.12 182.400 75.986
2.13 180.078 75.934
2.14 176.914 75.632
2.15 170.553 74.589
2.16 158.757 73.047
2.17 150.453 73.111
2.18 143.123 75.296
2.19 136.510 76.980
2.20 125.606 77.086
2.21 116.598 76.264
2.22 107.756 75.134
2.23 104.615 73.606
2.24 97.643 71.787
2.25 93.860 70.161
2.26 91.299 68.866
2.27 89.822 67.685
2.28 90.058 66.953
2.29 92.389 66.972
2.30 95.595 66.845
2.31 94.959 65.753
2.32 94.429 64.306
2.33 96.639 62.751
2.34 100.794 60.075
2.35 104.673 56.260
2.36 --undefined-- 51.689
2.37 --undefined-- 46.620
2.38 --undefined-- 43.874
2.39 --undefined-- 42.497
2.40 --undefined-- 40.304
2.41 --undefined-- 37.384
2.42 --undefined-- 45.530
2.43 --undefined-- 59.594
2.44 --undefined-- 68.808
2.45 --undefined-- 73.981
2.46 --undefined-- 76.052
2.47 122.332 76.061
2.48 118.214 75.386
2.49 115.214 74.888
2.50 112.572 74.443
2.51 111.962 74.070
2.52 111.776 73.987
2.53 112.760 74.070
2.54 113.339 74.096
2.55 114.623 74.147
2.56 115.708 74.216
2.57 116.123 73.923
2.58 115.378 72.692
2.59 112.176 70.491
2.60 116.248 69.284
2.61 119.596 69.961
2.62 120.130 70.739
2.63 120.013 71.205
2.64 120.204 71.320
2.65 120.498 71.212
2.66 120.304 71.101
2.67 119.999 70.881
2.68 118.655 70.181
2.69 116.582 68.505
2.70 113.881 65.413
2.71 111.915 61.021
2.72 110.121 56.914
2.73 116.363 55.837
2.74 --undefined-- 56.698
2.75 --undefined-- 58.547
2.76 --undefined-- 62.222
2.77 --undefined-- 69.588
2.78 --undefined-- 74.747
2.79 140.970 76.659
2.80 136.513 76.137
2.81 129.012 74.565
2.82 124.968 72.983
2.83 121.228 71.084
2.84 122.877 69.620
2.85 125.456 69.713
2.86 124.876 70.155
2.87 123.191 70.196
2.88 122.118 70.046
2.89 120.712 69.833
2.90 118.596 69.772
2.91 111.883 69.903
2.92 108.702 69.206
2.93 104.926 67.464
2.94 98.855 65.448
2.95 96.055 63.500
2.96 100.281 64.193
2.97 107.849 67.859
2.98 115.021 70.809
2.99 114.238 72.224
3.00 113.233 72.556
3.01 112.755 72.422
3.02 106.990 72.159
3.03 103.646 71.734
3.04 103.502 71.184
3.05 103.051 70.562
3.06 102.217 69.681
3.07 102.177 68.486
3.08 101.871 67.032
3.09 101.814 65.530
3.10 102.133 64.288
3.11 103.999 63.378
3.12 105.398 62.681
3.13 106.060 62.139
3.14 108.024 61.796
3.15 108.381 61.685
3.16 108.563 62.440
3.17 114.701 65.205
3.18 114.628 68.776
3.19 111.380 71.000
3.20 99.626 71.265
3.21 94.133 69.939
3.22 89.251 68.167
3.23 --undefined-- 67.031
3.24 --undefined-- 66.140
3.25 --undefined-- 65.434
3.26 --undefined-- 65.054
3.27 88.568 64.324
3.28 91.289 63.053
3.29 80.706 61.068
3.30 --undefined-- 58.535
3.31 --undefined-- 57.274
3.32 --undefined-- 57.915
3.33 --undefined-- 58.472
3.34 --undefined-- 59.032
3.35 --undefined-- 59.069
3.36 --undefined-- 59.001
3.37 --undefined-- 58.093
3.38 87.334 56.644
3.39 89.604 56.632
3.40 109.366 57.014
3.41 113.180 55.685
3.42 --undefined-- 51.934
3.43 --undefined-- 47.071
3.44 --undefined-- 49.349
3.45 --undefined-- 52.556
3.46 --undefined-- 53.791
3.47 --undefined-- 57.027
3.48 --undefined-- 64.311
3.49 --undefined-- 69.304
3.50 114.896 71.618
3.51 110.060 72.338
3.52 105.390 72.163
3.53 101.263 71.473
3.54 94.169 70.456
3.55 89.248 69.036
3.56 87.185 67.400
3.57 83.994 65.908
3.58 83.950 64.797
3.59 84.006 64.066
3.60 84.012 63.398
3.61 86.122 62.777
3.62 88.001 62.145
3.63 88.273 61.011
3.64 87.026 59.021
3.65 97.435 57.042
3.66 95.636 55.079
3.67 --undefined-- 51.665
3.68 --undefined-- 46.222
3.69 --undefined-- 38.935
3.70 --undefined-- 39.920
3.71 --undefined-- 50.909
3.72 --undefined-- 59.200
3.73 --undefined-- 63.857
3.74 --undefined-- 65.620
3.75 --undefined-- 65.233
3.76 --undefined-- 66.315
3.77 --undefined-- 71.537
3.78 124.112 74.923
3.79 119.770 75.835
3.80 112.217 75.234
3.81 105.283 73.994
3.82 99.836 72.364
3.83 96.721 70.148
3.84 95.937 67.991
3.85 95.566 67.218
3.86 95.345 67.193
3.87 95.261 67.130
3.88 94.870 66.930
3.89 94.550 66.733
3.90 95.088 66.678
3.91 96.831 66.805
3.92 97.655 67.126
3.93 99.018 67.632
3.94 101.060 68.282
3.95 101.611 68.847
3.96 102.616 69.214
3.97 103.805 69.459
3.98 104.874 69.346
3.99 104.050 68.374
4.00 102.713 66.739
4.01 103.979 65.922
4.02 106.843 66.680
4.03 107.801 68.627
4.04 111.743 71.108
4.05 115.915 73.652
4.06 117.083 75.581
4.07 117.903 76.385
4.08 118.685 76.348
4.09 119.380 76.162
4.10 119.731 76.079
4.11 119.132 76.018
4.12 115.782 75.956
4.13 112.344 75.761
4.14 108.810 74.995
4.15 105.409 73.662
4.16 97.598 72.643
4.17 94.486 71.525
4.18 83.243 69.236
4.19 79.887 66.531
4.20 78.607 64.208
4.21 --undefined-- 61.477
4.22 --undefined-- 57.960
4.23 --undefined-- 54.540
4.24 --undefined-- 49.889
4.25 --undefined-- 42.744
4.26 --undefined-- 39.354
4.27 --undefined-- 41.108
4.28 --undefined-- 42.736
4.29 --undefined-- 44.301
4.30 --undefined-- 47.207
4.31 --undefined-- 49.504
4.32 --undefined-- 49.298
4.33 --undefined-- 46.581
4.34 --undefined-- 43.263
4.35 --undefined-- 42.429
4.36 --undefined-- 43.882
4.37 --undefined-- 44.465
4.38 --undefined-- 43.986
4.39 --undefined-- 44.814
4.40 --undefined-- 46.249
4.41 --undefined-- 46.512
4.42 --undefined-- 45.929
4.43 --undefined-- 45.224
4.44 --undefined-- 44.536
4.45 --undefined-- 43.722
4.46 --undefined-- 42.761
4.47 --undefined-- 41.891
4.48 --undefined-- 40.883
4.49 --undefined-- 40.362
4.50 --undefined-- 41.191
4.51 --undefined-- 41.284
4.52 --undefined-- 39.190
4.53 --undefined-- 36.273
4.54 --undefined-- 38.738
4.55 --undefined-- 49.579
4.56 --undefined-- 59.945
4.57 139.855 66.094
4.58 125.576 69.365
4.59 127.030 71.213
4.60 129.793 72.654
4.61 132.551 73.818
4.62 135.909 74.745
4.63 139.044 75.237
4.64 140.296 74.998
4.65 140.537 74.224
4.66 142.758 73.275
4.67 143.554 72.095
4.68 143.657 71.636
4.69 143.500 74.521
4.70 147.824 77.486
4.71 151.924 77.969
4.72 146.367 76.678
4.73 137.446 75.673
4.74 136.192 75.582
4.75 134.971 75.511
4.76 135.902 75.308
4.77 137.993 75.350
4.78 143.228 75.812
4.79 144.444 76.518
4.80 141.727 76.660
4.81 139.977 75.346
4.82 134.244 72.450
4.83 137.093 69.065
4.84 135.319 66.276
4.85 129.068 62.932
4.86 123.244 58.339
4.87 --undefined-- 52.817
4.88 --undefined-- 51.267
4.89 --undefined-- 60.762
4.90 --undefined-- 69.328
4.91 --undefined-- 74.276
4.92 137.781 76.349
4.93 130.933 76.819
4.94 126.616 76.672
4.95 123.544 75.924
4.96 121.402 74.988
4.97 125.715 74.763
4.98 126.379 74.919
4.99 128.634 75.288
5.00 133.301 75.850
5.01 132.090 76.206
5.02 133.168 76.220
5.03 134.593 76.278
5.04 135.540 76.459
5.05 138.514 76.614
5.06 138.800 76.655
5.07 140.615 76.112
5.08 139.923 75.162
5.09 144.210 75.172
5.10 147.080 76.165
5.11 149.560 76.803
5.12 148.164 76.677
5.13 145.632 75.969
5.14 145.377 74.791
5.15 143.132 72.561
5.16 136.733 68.906
5.17 142.817 65.309
5.18 144.680 62.419
5.19 146.798 58.985
5.20 --undefined-- 54.383
5.21 --undefined-- 54.326
5.22 --undefined-- 63.069
5.23 --undefined-- 69.755
5.24 156.641 73.494
5.25 151.705 75.148
5.26 150.447 75.864
5.27 149.577 76.441
5.28 149.020 77.073
5.29 148.369 77.526
5.30 147.671 77.254
5.31 144.455 76.013
5.32 147.363 74.879
5.33 146.295 74.549
5.34 144.769 74.433
5.35 143.729 --undefined--
5.36 141.969 --undefined--
5.37 --undefined-- --undefined--
5.38 --undefined-- --undefined--
