Time Pitch Intensity
0.01 --undefined-- --undefined--
0.02 136.230 --undefined--
0.03 146.190 --undefined--
0.04 154.634 --undefined--
0.05 160.627 72.699
0.06 163.994 72.145
0.07 163.296 71.067
0.08 157.475 68.743
0.09 149.849 64.742
0.10 153.481 58.833
0.11 --undefined-- 52.842
0.12 --undefined-- 53.900
0.13 --undefined-- 59.359
0.14 197.901 67.574
0.15 199.884 73.480
0.16 178.277 76.494
0.17 171.392 77.407
0.18 165.250 77.111
0.19 161.628 76.419
0.20 159.892 75.937
0.21 159.084 75.817
0.22 158.556 75.967
0.23 156.150 76.272
0.24 152.393 76.462
0.25 146.984 76.200
0.26 140.531 75.432
0.27 133.736 74.649
0.28 128.762 74.450
0.29 125.716 74.353
0.30 122.350 73.801
0.31 121.011 73.246
0.32 120.592 73.019
0.33 121.118 72.721
0.34 121.868 71.496
0.35 116.745 68.334
0.36 111.393 62.771
0.37 --undefined-- 55.687
0.38 --undefined-- 50.362
0.39 --undefined-- 51.795
0.40 --undefined-- 61.480
0.41 --undefined-- 68.890
0.42 131.637 72.839
0.43 129.517 74.014
0.44 121.661 73.559
0.45 119.223 73.282
0.46 118.593 73.906
0.47 117.259 74.592
0.48 115.881 74.482
0.49 117.236 73.572
0.50 120.001 72.364
0.51 117.826 70.284
0.52 109.873 66.346
0.53 94.117 60.387
0.54 --undefined-- 54.832
0.55 --undefined-- 54.635
0.56 --undefined-- 56.297
0.57 --undefined-- 56.681
0.58 --undefined-- 59.810
0.59 129.244 66.383
0.60 133.241 70.922
0.61 131.271 72.899
0.62 122.260 73.227
0.63 118.932 73.190
0.64 116.317 72.828
0.65 115.996 71.033
0.66 113.095 66.975
0.67 101.373 60.697
0.68 --undefined-- 57.044
0.69 --undefined-- 63.574
0.70 --undefined-- 69.244
0.71 125.573 72.032
0.72 123.698 73.228
0.73 120.398 73.872
0.74 116.978 74.195
0.75 114.712 74.278
0.76 111.848 73.794
0.77 110.185 72.596
0.78 109.579 71.208
0.79 109.274 70.649
0.80 111.770 70.859
0.81 114.971 70.616
0.82 115.795 69.162
0.83 110.360 65.918
0.84 --undefined-- 60.418
0.85 --undefined-- 53.079
0.86 --undefined-- 46.670
0.87 --undefined-- 45.010
0.88 --undefined-- 47.326
0.89 --undefined-- 53.067
0.90 --undefined-- 61.814
0.91 --undefined-- 68.089
0.92 137.957 71.260
0.93 126.268 72.306
0.94 123.711 72.667
0.95 121.624 73.109
0.96 121.423 73.421
0.97 120.388 73.222
0.98 122.667 72.469
0.99 123.500 70.962
1.00 122.375 68.031
1.01 111.668 63.362
1.02 115.092 57.678
1.03 --undefined-- 53.269
1.04 --undefined-- 58.841
1.05 --undefined-- 65.827
1.06 --undefined-- 69.758
1.07 --undefined-- 71.122
1.08 115.217 70.890
1.09 114.719 70.239
1.10 115.479 70.087
1.11 115.990 70.591
1.12 117.052 71.145
1.13 117.114 71.240
1.14 115.104 70.627
1.15 111.873 69.238
1.16 107.532 67.117
1.17 104.214 64.124
1.18 102.528 59.571
1.19 --undefined-- 54.321
1.20 --undefined-- 54.745
1.21 --undefined-- 56.678
1.22 --undefined-- 56.754
1.23 --undefined-- 55.520
1.24 --undefined-- 57.922
1.25 176.376 65.331
1.26 171.145 70.655
1.27 168.768 73.692
1.28 167.788 75.377
1.29 167.570 76.129
1.30 168.120 75.985
1.31 169.614 75.387
1.32 171.095 74.697
1.33 170.377 73.139
1.34 156.465 70.190
1.35 149.371 67.547
1.36 140.954 65.962
1.37 --undefined-- 62.967
1.38 --undefined-- 57.867
1.39 --undefined-- 52.433
1.40 --undefined-- 48.019
1.41 --undefined-- 42.944
1.42 --undefined-- 38.173
1.43 --undefined-- 37.791
1.44 --undefined-- 39.151
1.45 --undefined-- 39.424
1.46 --undefined-- 39.002
1.47 --undefined-- 39.295
1.48 --undefined-- 40.578
1.49 --undefined-- 41.719
1.50 --undefined-- 41.453
1.51 --undefined-- 40.604
1.52 --undefined-- 40.747
1.53 --undefined-- 40.715
1.54 --undefined-- 39.908
1.55 --undefined-- 40.111
1.56 --undefined-- 40.588
1.57 --undefined-- 40.025
1.58 --undefined-- 39.812
1.59 --undefined-- 39.190
1.60 --undefined-- 37.329
1.61 --undefined-- 37.694
1.62 --undefined-- 40.533
1.63 --undefined-- 41.729
1.64 --undefined-- 40.753
1.65 --undefined-- 39.011
1.66 --undefined-- 41.593
1.67 --undefined-- 51.492
1.68 --undefined-- 58.885
1.69 149.087 63.532
1.70 134.654 66.583
1.71 129.343 68.615
1.72 131.019 70.027
1.73 132.786 71.242
1.74 133.497 72.340
1.75 134.379 73.378
1.76 136.007 74.541
1.77 139.472 76.051
1.78 144.008 77.888
1.79 147.970 79.622
1.80 151.288 80.634
1.81 151.484 80.697
1.82 148.150 80.370
1.83 147.101 79.903
1.84 143.558 78.570
1.85 132.076 76.310
1.86 126.724 74.225
1.87 126.731 73.185
1.88 124.916 72.741
1.89 123.901 72.301
1.90 130.024 72.147
1.91 135.919 72.697
1.92 136.163 73.879
1.93 135.762 75.479
1.94 135.554 77.324
1.95 136.053 78.935
1.96 136.368 80.097
1.97 136.084 80.841
1.98 136.129 81.251
1.99 136.331 81.438
2.00 136.392 81.339
2.01 136.297 80.891
2.02 135.392 80.247
2.03 133.945 79.663
2.04 131.353 79.159
2.05 128.739 78.159
2.06 128.412 76.371
2.07 131.679 74.681
2.08 136.600 73.433
2.09 138.685 72.089
2.10 143.965 70.771
2.11 148.900 69.820
2.12 152.465 69.718
2.13 164.128 71.007
2.14 177.578 73.309
2.15 179.203 75.639
2.16 178.407 77.148
2.17 176.270 77.441
2.18 174.901 76.973
2.19 174.761 76.432
2.20 172.295 75.780
2.21 163.327 74.689
2.22 163.894 73.847
2.23 175.624 73.844
2.24 176.804 73.896
2.25 176.056 73.818
2.26 176.977 73.727
2.27 177.991 73.702
2.28 178.370 73.737
2.29 178.611 73.761
2.30 178.264 73.644
2.31 175.860 73.011
2.32 170.740 71.121
2.33 164.680 67.077
2.34 --undefined-- 60.069
2.35 --undefined-- 50.513
2.36 --undefined-- 44.618
2.37 --undefined-- 42.191
2.38 --undefined-- 40.593
2.39 --undefined-- 40.452
2.40 --undefined-- 41.045
2.41 --undefined-- 43.403
2.42 --undefined-- 53.667
2.43 --undefined-- 61.978
2.44 144.856 66.849
2.45 144.332 69.429
2.46 136.257 70.776
2.47 134.464 71.583
2.48 133.328 72.111
2.49 133.884 72.607
2.50 134.297 73.137
2.51 134.661 73.625
2.52 134.658 74.047
2.53 134.897 74.416
2.54 135.542 74.729
2.55 135.756 74.983
2.56 136.677 75.256
2.57 137.227 75.451
2.58 137.247 75.286
2.59 137.005 74.624
2.60 135.579 73.477
2.61 --undefined-- 71.935
2.62 --undefined-- 69.612
2.63 157.136 66.418
2.64 161.707 62.520
2.65 --undefined-- 56.481
2.66 --undefined-- 48.793
2.67 --undefined-- 44.646
2.68 --undefined-- 43.021
2.69 --undefined-- 42.766
2.70 --undefined-- 41.754
2.71 --undefined-- 41.811
2.72 --undefined-- 45.232
2.73 --undefined-- 48.045
2.74 --undefined-- 50.114
2.75 --undefined-- 51.251
2.76 --undefined-- 51.463
2.77 --undefined-- 51.153
2.78 --undefined-- 49.969
2.79 --undefined-- 49.972
2.80 --undefined-- 58.109
2.81 --undefined-- 64.995
2.82 116.720 69.608
2.83 119.563 73.142
2.84 142.159 76.169
2.85 139.741 78.626
2.86 146.709 80.305
2.87 150.616 81.128
2.88 154.611 81.125
2.89 158.309 80.207
2.90 167.905 78.308
2.91 173.327 76.342
2.92 183.807 75.164
2.93 184.902 74.391
2.94 186.817 73.079
2.95 192.601 71.694
2.96 191.888 71.867
2.97 183.143 73.390
2.98 180.581 74.953
2.99 172.895 75.617
3.00 157.918 75.945
3.01 150.339 76.452
3.02 142.641 76.378
3.03 134.837 75.417
3.04 121.993 73.910
3.05 119.530 72.634
3.06 112.288 71.655
3.07 109.137 70.752
3.08 106.455 70.340
3.09 107.566 70.345
3.10 106.670 70.214
3.11 104.185 69.927
3.12 102.525 69.608
3.13 102.909 69.209
3.14 102.830 68.843
3.15 103.529 68.780
3.16 103.201 68.932
3.17 106.228 69.402
3.18 109.193 70.207
3.19 110.818 71.004
3.20 113.853 71.790
3.21 116.412 72.534
3.22 114.204 72.998
3.23 112.889 72.959
3.24 111.472 72.428
3.25 111.926 71.867
3.26 112.394 71.378
3.27 112.550 71.089
3.28 111.802 70.879
3.29 110.200 69.947
3.30 109.245 67.398
3.31 99.137 62.553
3.32 --undefined-- 56.827
3.33 --undefined-- 58.464
3.34 --undefined-- 61.486
3.35 --undefined-- 61.652
3.36 --undefined-- 59.063
3.37 --undefined-- 53.718
3.38 --undefined-- 46.649
3.39 --undefined-- 43.211
3.40 --undefined-- 52.076
3.41 --undefined-- 62.251
3.42 --undefined-- 68.479
3.43 --undefined-- 71.606
3.44 124.949 72.873
3.45 122.526 73.365
3.46 120.406 72.985
3.47 118.148 70.690
3.48 --undefined-- 65.567
3.49 --undefined-- 57.927
3.50 --undefined-- 51.624
3.51 --undefined-- 51.364
3.52 --undefined-- 53.189
3.53 --undefined-- 54.738
3.54 --undefined-- 61.224
3.55 --undefined-- 67.002
3.56 135.988 70.232
3.57 130.466 71.828
3.58 128.050 72.457
3.59 125.881 72.343
3.60 123.365 71.449
3.61 117.556 69.367
3.62 112.381 65.469
3.63 --undefined-- 59.433
3.64 --undefined-- 52.310
3.65 --undefined-- 46.664
3.66 --undefined-- 42.875
3.67 --undefined-- 41.718
3.68 --undefined-- 49.761
3.69 --undefined-- 56.424
3.70 --undefined-- 60.695
3.71 136.895 64.515
3.72 136.528 67.169
3.73 115.673 68.059
3.74 102.661 67.598
3.75 93.487 66.332
3.76 87.729 65.123
3.77 88.765 65.239
3.78 91.332 66.588
3.79 93.069 68.102
3.80 100.409 69.297
3.81 106.527 70.133
3.82 116.491 70.944
3.83 124.003 71.697
3.84 126.076 72.029
3.85 140.151 72.148
3.86 148.586 71.827
3.87 150.564 70.135
3.88 148.651 66.707
3.89 144.110 61.953
3.90 --undefined-- 56.181
3.91 --undefined-- 52.885
3.92 --undefined-- 55.107
3.93 --undefined-- 56.995
3.94 --undefined-- 64.072
3.95 --undefined-- 70.760
3.96 141.814 74.322
3.97 135.811 75.312
3.98 126.850 74.441
3.99 114.148 72.541
4.00 111.419 70.131
4.01 109.121 66.803
4.02 --undefined-- 61.824
4.03 --undefined-- 55.361
4.04 --undefined-- 50.083
4.05 --undefined-- 47.479
4.06 --undefined-- 45.604
4.07 --undefined-- 43.712
4.08 --undefined-- 42.805
4.09 --undefined-- 43.827
4.10 --undefined-- 49.107
4.11 --undefined-- 59.918
4.12 --undefined-- 68.247
4.13 143.145 73.008
4.14 137.905 75.296
4.15 133.316 76.132
4.16 132.024 76.443
4.17 132.050 76.488
4.18 132.109 76.238
4.19 131.918 75.620
4.20 131.723 74.596
4.21 132.464 73.262
4.22 134.356 72.103
4.23 136.045 71.551
4.24 137.463 71.191
4.25 136.255 70.303
4.26 131.080 68.307
4.27 123.729 64.654
4.28 --undefined-- 58.692
4.29 --undefined-- 50.120
4.30 --undefined-- 44.159
4.31 --undefined-- 49.034
4.32 --undefined-- 59.285
4.33 --undefined-- 66.734
4.34 138.002 70.690
4.35 123.711 72.272
4.36 118.018 72.716
4.37 116.693 72.855
4.38 114.856 72.497
4.39 113.362 71.584
4.40 110.933 70.745
4.41 109.314 70.387
4.42 108.832 70.161
4.43 108.221 69.298
4.44 108.248 67.687
4.45 --undefined-- 65.306
4.46 --undefined-- 61.341
4.47 --undefined-- 56.185
4.48 --undefined-- 50.285
4.49 --undefined-- 43.243
4.50 --undefined-- 39.763
4.51 --undefined-- 38.360
4.52 --undefined-- 36.515
4.53 --undefined-- 35.490
4.54 --undefined-- 35.610
4.55 --undefined-- 37.426
4.56 --undefined-- 38.295
4.57 --undefined-- 36.961
4.58 --undefined-- 34.937
4.59 --undefined-- 34.196
4.60 --undefined-- 35.610
4.61 --undefined-- 37.260
4.62 --undefined-- 38.022
4.63 --undefined-- 39.676
4.64 --undefined-- 41.598
4.65 --undefined-- 44.123
4.66 --undefined-- 46.579
4.67 --undefined-- 47.002
4.68 --undefined-- 45.362
4.69 --undefined-- 42.835
4.70 --undefined-- 40.632
4.71 --undefined-- 39.686
4.72 --undefined-- 41.455
4.73 --undefined-- 52.015
4.74 --undefined-- 61.898
4.75 --undefined-- 67.571
4.76 129.783 69.863
4.77 118.800 70.016
4.78 111.966 69.204
4.79 102.195 68.158
4.80 102.548 67.730
4.81 103.707 67.782
4.82 104.616 67.850
4.83 104.322 67.847
4.84 102.453 67.612
4.85 102.732 67.276
4.86 107.623 67.409
4.87 108.232 67.818
4.88 107.397 67.960
4.89 106.841 68.136
4.90 105.886 68.623
4.91 104.619 69.225
4.92 104.001 69.582
4.93 104.081 69.729
4.94 104.542 69.317
4.95 103.270 67.338
4.96 100.732 63.227
4.97 95.417 57.566
4.98 --undefined-- 51.549
4.99 --undefined-- 46.024
5.00 --undefined-- 47.481
5.01 --undefined-- 56.863
5.02 --undefined-- 65.686
5.03 --undefined-- 71.297
5.04 --undefined-- 74.110
5.05 123.818 75.132
5.06 122.810 75.289
5.07 122.805 74.864
5.08 123.251 74.239
5.09 123.496 73.997
5.10 124.383 74.115
5.11 125.647 74.314
5.12 126.818 74.585
5.13 126.562 74.910
5.14 124.809 75.219
5.15 126.211 75.371
5.16 126.286 74.903
5.17 122.210 73.259
5.18 112.059 69.994
5.19 107.990 65.234
5.20 --undefined-- 59.380
5.21 --undefined-- 54.934
5.22 --undefined-- 55.406
5.23 --undefined-- 60.734
5.24 134.062 67.219
5.25 131.525 70.883
5.26 122.549 72.019
5.27 117.562 71.813
5.28 109.053 71.111
5.29 101.844 70.319
5.30 100.080 69.922
5.31 100.259 69.891
5.32 103.371 70.351
5.33 105.794 71.055
5.34 107.981 71.683
5.35 109.730 72.313
5.36 110.927 72.742
5.37 111.291 72.816
5.38 112.440 72.743
5.39 112.824 72.305
5.40 111.222 71.007
5.41 112.367 69.114
5.42 --undefined-- 66.400
5.43 --undefined-- 61.546
5.44 --undefined-- 55.432
5.45 --undefined-- 49.952
5.46 --undefined-- 46.342
5.47 --undefined-- 42.737
5.48 --undefined-- 38.031
5.49 --undefined-- 34.201
5.50 --undefined-- 32.775
5.51 --undefined-- 34.291
5.52 --undefined-- 35.533
5.53 --undefined-- 34.787
5.54 --undefined-- 34.544
5.55 --undefined-- 35.079
5.56 --undefined-- 34.520
5.57 --undefined-- 34.495
5.58 --undefined-- 34.927
5.59 --undefined-- 33.776
5.60 --undefined-- 31.168
5.61 --undefined-- 30.599
5.62 --undefined-- 33.296
5.63 --undefined-- 35.731
5.64 --undefined-- 36.218
5.65 --undefined-- 35.927
5.66 --undefined-- 35.811
5.67 --undefined-- 36.420
5.68 --undefined-- 37.512
5.69 --undefined-- 37.297
5.70 --undefined-- 36.610
5.71 --undefined-- 37.354
5.72 --undefined-- 38.873
5.73 --undefined-- 39.223
5.74 --undefined-- 38.443
5.75 --undefined-- 38.439
5.76 --undefined-- 38.260
5.77 --undefined-- 37.650
5.78 --undefined-- 38.006
5.79 --undefined-- 38.945
5.80 --undefined-- 38.470
5.81 --undefined-- 36.420
5.82 --undefined-- 35.940
5.83 --undefined-- 37.244
5.84 --undefined-- 37.590
5.85 --undefined-- 36.689
5.86 --undefined-- 35.733
5.87 --undefined-- 36.090
5.88 --undefined-- 35.942
5.89 --undefined-- 35.603
5.90 --undefined-- 35.365
5.91 --undefined-- 35.911
5.92 --undefined-- 36.647
5.93 --undefined-- 35.952
5.94 --undefined-- 34.507
5.95 --undefined-- 34.383
5.96 --undefined-- 35.646
5.97 --undefined-- 36.502
5.98 --undefined-- 36.852
5.99 --undefined-- 37.161
6.00 --undefined-- 37.245
6.01 --undefined-- 37.050
6.02 --undefined-- 37.106
6.03 --undefined-- 36.868
6.04 --undefined-- 37.417
6.05 --undefined-- 39.492
6.06 --undefined-- 40.171
6.07 --undefined-- 38.566
6.08 --undefined-- 36.342
6.09 --undefined-- 37.076
6.10 --undefined-- 39.326
6.11 --undefined-- 40.526
6.12 --undefined-- 39.745
6.13 --undefined-- 37.581
6.14 --undefined-- 36.343
6.15 --undefined-- 36.730
6.16 --undefined-- 37.247
6.17 --undefined-- 37.377
6.18 --undefined-- 37.329
6.19 --undefined-- 37.168
6.20 --undefined-- 36.211
6.21 --undefined-- 35.856
6.22 --undefined-- 37.099
6.23 --undefined-- 38.786
6.24 --undefined-- 39.560
6.25 --undefined-- 39.205
6.26 --undefined-- 39.414
6.27 --undefined-- 39.707
6.28 --undefined-- 39.085
6.29 --undefined-- 38.400
6.30 --undefined-- 38.742
6.31 --undefined-- 39.783
6.32 --undefined-- 40.120
6.33 --undefined-- 39.806
6.34 --undefined-- 39.328
6.35 --undefined-- 38.472
6.36 --undefined-- 38.188
6.37 --undefined-- 39.311
6.38 --undefined-- 39.923
6.39 --undefined-- 38.617
6.40 --undefined-- 36.734
6.41 --undefined-- 37.935
6.42 --undefined-- 40.381
6.43 --undefined-- 41.508
6.44 --undefined-- 41.496
6.45 --undefined-- 41.905
6.46 --undefined-- 42.245
6.47 --undefined-- 40.692
6.48 --undefined-- 38.252
6.49 --undefined-- 38.819
6.50 --undefined-- 50.316
6.51 --undefined-- 60.382
6.52 --undefined-- 66.405
6.53 79.097 69.978
6.54 76.830 72.446
6.55 77.132 74.544
6.56 79.300 76.578
6.57 79.086 --undefined--
6.58 78.574 --undefined--
6.59 --undefined-- --undefined--
6.60 --undefined-- --undefined--
