Time Pitch Intensity
0.01 --undefined-- --undefined--
0.02 103.762 --undefined--
0.03 106.623 --undefined--
0.04 107.882 --undefined--
0.05 109.578 71.362
0.06 111.264 71.463
0.07 113.326 71.149
0.08 114.902 70.461
0.09 116.182 69.142
0.10 116.906 66.865
0.11 117.810 63.938
0.12 119.410 60.745
0.13 --undefined-- 56.771
0.14 --undefined-- 51.818
0.15 --undefined-- 46.649
0.16 --undefined-- 41.826
0.17 --undefined-- 38.807
0.18 --undefined-- 37.184
0.19 --undefined-- 36.561
0.20 --undefined-- 36.919
0.21 --undefined-- 37.578
0.22 --undefined-- 38.357
0.23 --undefined-- 38.696
0.24 --undefined-- 38.228
0.25 --undefined-- 36.923
0.26 --undefined-- 35.682
0.27 --undefined-- 35.428
0.28 --undefined-- 36.815
0.29 --undefined-- 38.435
0.30 --undefined-- 38.794
0.31 --undefined-- 37.824
0.32 --undefined-- 38.531
0.33 --undefined-- 39.869
0.34 --undefined-- 39.248
0.35 --undefined-- 38.594
0.36 --undefined-- 38.945
0.37 --undefined-- 38.925
0.38 --undefined-- 38.369
0.39 --undefined-- 38.233
0.40 --undefined-- 38.379
0.41 --undefined-- 38.260
0.42 --undefined-- 38.240
0.43 --undefined-- 38.692
0.44 --undefined-- 38.888
0.45 --undefined-- 38.529
0.46 --undefined-- 38.641
0.47 --undefined-- 39.542
0.48 --undefined-- 39.630
0.49 --undefined-- 38.840
0.50 --undefined-- 38.092
0.51 --undefined-- 37.308
0.52 --undefined-- 38.004
0.53 --undefined-- 38.949
0.54 --undefined-- 38.700
0.55 --undefined-- 37.937
0.56 --undefined-- 37.744
0.57 --undefined-- 37.497
0.58 --undefined-- 37.541
0.59 --undefined-- 38.392
0.60 --undefined-- 38.701
0.61 --undefined-- 37.604
0.62 --undefined-- 36.585
0.63 --undefined-- 37.255
0.64 --undefined-- 40.799
0.65 --undefined-- 45.589
0.66 --undefined-- 47.234
0.67 --undefined-- 45.163
0.68 --undefined-- 41.502
0.69 --undefined-- 43.357
0.70 --undefined-- 53.489
0.71 --undefined-- 61.589
0.72 120.763 66.819
0.73 127.648 69.932
0.74 130.783 71.395
0.75 134.980 71.829
0.76 137.806 71.831
0.77 139.052 71.151
0.78 139.252 68.885
0.79 141.458 64.359
0.80 142.411 59.211
0.81 142.430 57.783
0.82 141.945 61.124
0.83 142.855 67.666
0.84 142.367 72.357
0.85 141.390 75.146
0.86 141.748 76.683
0.87 142.355 77.277
0.88 144.294 77.304
0.89 150.371 77.137
0.90 153.872 76.975
0.91 157.347 76.630
0.92 168.763 75.562
0.93 174.318 74.014
0.94 181.327 73.207
0.95 180.894 72.607
0.96 176.088 71.372
0.97 170.315 70.548
0.98 163.728 70.145
0.99 155.252 69.314
1.00 149.613 67.822
1.01 142.682 65.916
1.02 136.757 64.334
1.03 132.989 63.166
1.04 129.463 62.157
1.05 126.639 61.520
1.06 122.714 60.881
1.07 118.514 60.308
1.08 114.869 60.915
1.09 113.912 63.512
1.10 114.074 67.043
1.11 113.974 70.049
1.12 112.165 71.799
1.13 106.565 72.796
1.14 106.642 73.931
1.15 107.392 74.879
1.16 --undefined-- 75.029
1.17 117.122 74.320
1.18 119.963 73.113
1.19 121.146 71.440
1.20 121.876 69.272
1.21 122.158 66.982
1.22 121.831 64.124
1.23 120.757 59.542
1.24 --undefined-- 52.791
1.25 --undefined-- 46.286
1.26 --undefined-- 41.907
1.27 --undefined-- 38.576
1.28 --undefined-- 37.173
1.29 --undefined-- 37.005
1.30 --undefined-- 37.000
1.31 --undefined-- 38.827
1.32 --undefined-- 41.128
1.33 --undefined-- 42.442
1.34 --undefined-- 44.459
1.35 --undefined-- 51.462
1.36 148.915 58.750
1.37 150.749 63.433
1.38 153.214 65.527
1.39 153.721 65.461
1.40 156.206 63.930
1.41 154.908 61.773
1.42 --undefined-- 60.328
1.43 --undefined-- 60.464
1.44 --undefined-- 60.651
1.45 --undefined-- 60.548
1.46 --undefined-- 60.584
1.47 --undefined-- 62.875
1.48 --undefined-- 67.837
1.49 --undefined-- 72.218
1.50 --undefined-- 75.345
1.51 --undefined-- 76.875
1.52 --undefined-- 76.735
1.53 --undefined-- 75.419
1.54 107.407 73.941
1.55 107.224 72.625
1.56 104.482 71.296
1.57 100.608 70.350
1.58 98.369 69.506
1.59 99.406 68.296
1.60 96.714 67.171
1.61 95.361 65.859
1.62 96.546 64.189
1.63 93.673 62.649
1.64 113.138 60.659
1.65 112.740 57.286
1.66 --undefined-- 52.025
1.67 --undefined-- 47.809
1.68 --undefined-- 44.981
1.69 --undefined-- 41.458
1.70 --undefined-- 39.117
1.71 --undefined-- 38.248
1.72 --undefined-- 38.081
1.73 --undefined-- 38.098
1.74 --undefined-- 36.562
1.75 --undefined-- 34.393
1.76 --undefined-- 33.282
1.77 --undefined-- 33.117
1.78 --undefined-- 34.213
1.79 --undefined-- 35.445
1.80 --undefined-- 35.359
1.81 --undefined-- 33.978
1.82 --undefined-- 33.507
1.83 --undefined-- 34.753
1.84 --undefined-- 42.605
1.85 --undefined-- 53.450
1.86 --undefined-- 60.209
1.87 138.325 63.462
1.88 138.976 63.966
1.89 140.990 62.482
1.90 142.870 60.254
1.91 144.028 58.263
1.92 143.429 55.448
1.93 --undefined-- 50.683
1.94 --undefined-- 45.483
1.95 --undefined-- 43.776
1.96 --undefined-- 45.772
1.97 --undefined-- 54.132
1.98 186.020 61.530
1.99 180.164 65.896
2.00 175.953 68.225
2.01 174.032 69.408
2.02 171.853 69.337
2.03 169.331 68.286
2.04 170.354 68.021
2.05 168.549 68.266
2.06 165.740 68.085
2.07 163.647 68.479
2.08 161.138 70.893
2.09 156.515 73.709
2.10 152.588 75.033
2.11 148.056 74.852
2.12 144.683 73.423
2.13 142.051 70.372
2.14 141.435 65.528
2.15 142.251 60.551
2.16 142.657 58.164
2.17 144.340 56.727
2.18 146.100 54.790
2.19 --undefined-- 51.832
2.20 --undefined-- 47.491
2.21 --undefined-- 43.345
2.22 --undefined-- 47.346
2.23 --undefined-- 53.335
2.24 --undefined-- 56.331
2.25 --undefined-- 56.912
2.26 --undefined-- 57.163
2.27 126.157 60.112
2.28 125.348 62.774
2.29 118.248 63.670
2.30 111.352 63.198
2.31 108.031 61.585
2.32 --undefined-- 58.290
2.33 --undefined-- 52.671
2.34 --undefined-- 45.559
2.35 --undefined-- 41.489
2.36 --undefined-- 51.576
2.37 --undefined-- 63.891
2.38 --undefined-- 71.242
2.39 --undefined-- 74.784
2.40 --undefined-- 75.788
2.41 --undefined-- 75.275
2.42 102.600 73.667
2.43 --undefined-- 71.475
2.44 109.370 69.132
2.45 111.978 66.278
2.46 --undefined-- 62.102
2.47 --undefined-- 55.477
2.48 --undefined-- 46.790
2.49 --undefined-- 42.253
2.50 --undefined-- 40.018
2.51 --undefined-- 37.859
2.52 --undefined-- 37.931
2.53 --undefined-- 45.675
2.54 --undefined-- 56.838
2.55 135.781 64.251
2.56 132.133 68.171
2.57 126.447 69.125
2.58 121.771 67.558
2.59 120.800 64.125
2.60 --undefined-- 59.380
2.61 --undefined-- 52.913
2.62 --undefined-- 46.182
2.63 --undefined-- 43.175
2.64 --undefined-- 40.520
2.65 --undefined-- 40.037
2.66 --undefined-- 42.511
2.67 --undefined-- 44.478
2.68 --undefined-- 44.781
2.69 --undefined-- 43.140
2.70 --undefined-- 41.413
2.71 --undefined-- 42.452
2.72 --undefined-- 43.224
2.73 --undefined-- 42.713
2.74 --undefined-- 42.610
2.75 --undefined-- 42.690
2.76 --undefined-- 41.967
2.77 --undefined-- 41.457
2.78 --undefined-- 41.727
2.79 --undefined-- 42.893
2.80 --undefined-- 44.984
2.81 --undefined-- 47.740
2.82 --undefined-- 51.322
2.83 88.984 53.820
2.84 100.837 54.607
2.85 101.288 53.883
2.86 --undefined-- 52.113
2.87 --undefined-- 50.105
2.88 --undefined-- 50.560
2.89 99.620 54.492
2.90 99.288 58.538
2.91 107.934 61.301
2.92 103.896 63.167
2.93 102.851 64.674
2.94 102.920 65.520
2.95 103.463 65.373
2.96 103.506 64.171
2.97 102.821 61.443
2.98 --undefined-- 56.502
2.99 --undefined-- 49.663
3.00 --undefined-- 44.136
3.01 --undefined-- 46.870
3.02 --undefined-- 58.128
3.03 --undefined-- 65.614
3.04 --undefined-- 69.551
3.05 95.973 70.913
3.06 97.469 70.416
3.07 98.916 69.162
3.08 100.171 68.804
3.09 100.684 68.538
3.10 102.022 67.014
3.11 --undefined-- 63.911
3.12 --undefined-- 59.372
3.13 --undefined-- 54.550
3.14 --undefined-- 52.159
3.15 106.152 53.829
3.16 106.905 58.193
3.17 107.211 62.314
3.18 106.143 65.600
3.19 104.718 67.709
3.20 103.563 68.441
3.21 286.150 68.042
3.22 278.570 67.032
3.23 268.454 65.582
3.24 268.445 63.039
3.25 --undefined-- 59.850
3.26 --undefined-- 58.542
3.27 --undefined-- 57.781
3.28 --undefined-- 56.585
3.29 --undefined-- 55.859
3.30 --undefined-- 55.117
3.31 --undefined-- 53.487
3.32 --undefined-- 50.866
3.33 --undefined-- 48.912
3.34 --undefined-- 45.771
3.35 --undefined-- 41.450
3.36 --undefined-- 40.616
3.37 --undefined-- 40.783
3.38 --undefined-- 40.649
3.39 --undefined-- 40.290
3.40 --undefined-- 40.074
3.41 --undefined-- 40.526
3.42 --undefined-- 45.561
3.43 --undefined-- 55.755
3.44 --undefined-- 64.107
3.45 140.414 69.555
3.46 139.500 72.230
3.47 137.882 72.575
3.48 136.431 71.457
3.49 135.508 70.001
3.50 138.167 68.779
3.51 139.193 68.880
3.52 139.335 71.191
3.53 140.094 74.071
3.54 138.729 75.998
3.55 135.995 76.699
3.56 133.412 76.523
3.57 130.274 76.322
3.58 125.375 75.909
3.59 118.604 74.547
3.60 118.530 71.997
3.61 117.145 67.919
3.62 --undefined-- 61.884
3.63 --undefined-- 53.918
3.64 --undefined-- 47.830
3.65 --undefined-- 45.393
3.66 --undefined-- 44.003
3.67 --undefined-- 44.106
3.68 --undefined-- 48.797
3.69 --undefined-- 56.084
3.70 230.844 62.430
3.71 236.713 66.418
3.72 246.301 67.330
3.73 227.978 66.205
3.74 226.604 64.344
3.75 --undefined-- 61.923
3.76 --undefined-- 60.602
3.77 --undefined-- 60.040
3.78 --undefined-- 58.546
3.79 --undefined-- 56.134
3.80 --undefined-- 54.098
3.81 --undefined-- 51.935
3.82 --undefined-- 50.775
3.83 --undefined-- 51.880
3.84 --undefined-- 53.456
3.85 --undefined-- 55.109
3.86 --undefined-- 55.882
3.87 --undefined-- 54.710
3.88 --undefined-- 52.240
3.89 --undefined-- 56.241
3.90 116.087 62.721
3.91 116.312 67.383
3.92 114.902 70.052
3.93 111.622 71.170
3.94 109.874 71.314
3.95 109.079 70.671
3.96 110.171 69.408
3.97 110.376 67.593
3.98 109.413 64.300
3.99 111.778 59.665
4.00 113.016 57.343
4.01 113.588 57.196
4.02 112.519 56.135
4.03 --undefined-- 53.026
4.04 --undefined-- 47.970
4.05 --undefined-- 42.981
4.06 --undefined-- 42.841
4.07 --undefined-- 48.855
4.08 --undefined-- 52.627
4.09 --undefined-- 53.520
4.10 --undefined-- 52.687
4.11 --undefined-- 51.258
4.12 --undefined-- 50.088
4.13 --undefined-- 49.165
4.14 --undefined-- 48.945
4.15 --undefined-- 53.507
4.16 --undefined-- 58.219
4.17 113.306 60.450
4.18 108.658 61.014
4.19 104.946 60.602
4.20 104.272 59.540
4.21 104.979 58.533
4.22 104.660 57.973
4.23 105.885 57.527
4.24 106.020 56.805
4.25 108.290 55.290
4.26 --undefined-- 52.442
4.27 --undefined-- 48.070
4.28 --undefined-- 44.236
4.29 --undefined-- 52.300
4.30 --undefined-- 59.772
4.31 --undefined-- 62.875
4.32 --undefined-- 62.780
4.33 --undefined-- 63.098
4.34 --undefined-- 65.966
4.35 --undefined-- 68.321
4.36 --undefined-- 68.119
4.37 --undefined-- 64.818
4.38 --undefined-- 58.798
4.39 --undefined-- 51.630
4.40 --undefined-- 46.434
4.41 --undefined-- 44.616
4.42 --undefined-- 44.928
4.43 --undefined-- 47.522
4.44 --undefined-- 52.012
4.45 --undefined-- 57.424
4.46 --undefined-- 62.287
4.47 --undefined-- 65.128
4.48 --undefined-- 66.212
4.49 --undefined-- 66.222
4.50 --undefined-- 65.283
4.51 --undefined-- 63.566
4.52 --undefined-- 62.744
4.53 --undefined-- 61.710
4.54 --undefined-- 58.344
4.55 --undefined-- 52.431
4.56 --undefined-- 45.721
4.57 --undefined-- 41.880
4.58 --undefined-- 40.284
4.59 --undefined-- 40.007
4.60 --undefined-- 39.764
4.61 --undefined-- 40.124
4.62 --undefined-- 40.917
4.63 --undefined-- 40.724
4.64 --undefined-- 39.575
4.65 --undefined-- 38.541
4.66 --undefined-- 37.575
4.67 --undefined-- 37.373
4.68 --undefined-- 38.265
4.69 --undefined-- 38.119
4.70 --undefined-- 37.208
4.71 --undefined-- 38.722
4.72 --undefined-- 40.646
4.73 --undefined-- 41.024
4.74 --undefined-- 40.951
4.75 --undefined-- 41.042
4.76 --undefined-- 40.510
4.77 --undefined-- 40.878
4.78 --undefined-- 44.685
4.79 --undefined-- 48.813
4.80 --undefined-- 52.918
4.81 120.689 56.117
4.82 120.219 57.222
4.83 --undefined-- 57.708
4.84 --undefined-- 58.295
4.85 --undefined-- 57.850
4.86 --undefined-- 56.158
4.87 --undefined-- 53.611
4.88 --undefined-- 51.779
4.89 --undefined-- 52.261
4.90 --undefined-- 53.303
4.91 --undefined-- 53.352
4.92 --undefined-- 51.673
4.93 --undefined-- 48.616
4.94 --undefined-- 45.253
4.95 --undefined-- 41.340
4.96 --undefined-- 39.687
4.97 --undefined-- 43.934
4.98 --undefined-- 55.769
4.99 --undefined-- 65.929
5.00 137.546 72.294
5.01 134.317 75.207
5.02 132.584 75.305
5.03 131.972 73.501
5.04 130.186 70.318
5.05 130.095 65.479
5.06 131.286 59.268
5.07 129.793 54.196
5.08 --undefined-- 49.454
5.09 --undefined-- 45.651
5.10 --undefined-- 45.618
5.11 --undefined-- 47.293
5.12 --undefined-- 48.554
5.13 --undefined-- 49.658
5.14 --undefined-- 50.617
5.15 --undefined-- 50.599
5.16 --undefined-- 49.507
5.17 --undefined-- 48.152
5.18 --undefined-- 48.067
5.19 --undefined-- 48.774
5.20 --undefined-- 48.399
5.21 --undefined-- 46.920
5.22 --undefined-- 45.469
5.23 --undefined-- 44.658
5.24 --undefined-- 44.791
5.25 --undefined-- 48.187
5.26 --undefined-- 53.606
5.27 95.659 57.292
5.28 97.914 59.087
5.29 98.384 59.791
5.30 96.679 60.111
5.31 96.306 60.093
5.32 96.219 59.227
5.33 95.641 56.891
5.34 --undefined-- 52.776
5.35 --undefined-- 49.989
5.36 --undefined-- 59.446
5.37 --undefined-- 67.430
5.38 --undefined-- 71.526
5.39 110.120 73.119
5.40 109.865 73.665
5.41 108.291 73.916
5.42 108.471 73.662
5.43 110.299 72.657
5.44 111.753 70.613
5.45 112.395 67.240
5.46 114.058 63.107
5.47 113.800 60.837
5.48 113.349 60.748
5.49 113.200 60.841
5.50 112.223 61.370
5.51 109.418 64.204
5.52 106.516 68.855
5.53 --undefined-- 72.213
5.54 --undefined-- 73.290
5.55 --undefined-- 72.422
5.56 --undefined-- 70.870
5.57 --undefined-- 69.327
5.58 --undefined-- 67.278
5.59 --undefined-- 65.584
5.60 94.729 65.374
5.61 94.170 65.565
5.62 123.064 64.557
5.63 --undefined-- 61.091
5.64 --undefined-- 54.965
5.65 --undefined-- 51.735
5.66 --undefined-- 50.061
5.67 --undefined-- 45.973
5.68 --undefined-- 41.608
5.69 --undefined-- 39.770
5.70 --undefined-- 39.686
5.71 --undefined-- 39.531
5.72 --undefined-- 38.221
5.73 --undefined-- 37.212
5.74 --undefined-- 37.744
5.75 --undefined-- 37.847
5.76 --undefined-- 38.337
5.77 --undefined-- 39.873
5.78 --undefined-- 40.552
5.79 --undefined-- 39.996
5.80 --undefined-- 41.569
5.81 --undefined-- 46.381
5.82 --undefined-- 53.569
5.83 --undefined-- 60.964
5.84 --undefined-- 68.159
5.85 --undefined-- 72.990
5.86 --undefined-- 74.790
5.87 --undefined-- 74.306
5.88 --undefined-- 72.934
5.89 --undefined-- 70.914
5.90 132.734 67.895
5.91 134.660 64.933
5.92 137.471 63.441
5.93 142.614 63.548
5.94 146.429 64.076
5.95 149.840 64.160
5.96 149.681 63.278
5.97 148.678 61.742
5.98 146.428 60.598
5.99 145.750 59.926
6.00 144.964 59.816
6.01 144.373 60.511
6.02 146.463 63.255
6.03 148.763 67.814
6.04 149.720 72.100
6.05 147.351 75.272
6.06 139.786 77.261
6.07 133.348 78.218
6.08 130.497 78.405
6.09 130.635 78.134
6.10 133.027 77.513
6.11 135.678 76.347
6.12 138.239 74.572
6.13 142.366 72.832
6.14 143.954 72.167
6.15 143.411 71.731
6.16 143.725 70.226
6.17 145.160 67.855
6.18 144.711 64.866
6.19 --undefined-- 61.525
6.20 --undefined-- 63.174
6.21 --undefined-- 66.741
6.22 --undefined-- --undefined--
6.23 --undefined-- --undefined--
6.24 --undefined-- --undefined--
6.25 --undefined-- --undefined--
