Time Pitch Intensity
0.01 --undefined-- --undefined--
0.02 165.646 --undefined--
0.03 169.406 --undefined--
0.04 178.451 --undefined--
0.05 178.089 67.082
0.06 173.608 67.648
0.07 165.257 67.736
0.08 157.887 67.128
0.09 150.739 65.956
0.10 146.590 64.943
0.11 145.559 64.340
0.12 144.971 63.908
0.13 144.667 63.664
0.14 144.786 63.470
0.15 145.083 63.373
0.16 147.178 63.851
0.17 150.595 64.703
0.18 152.259 65.307
0.19 152.946 65.682
0.20 154.135 65.954
0.21 155.862 65.543
0.22 148.750 63.892
0.23 140.062 61.242
0.24 139.567 58.208
0.25 147.726 56.287
0.26 154.613 57.448
0.27 165.244 61.225
0.28 176.946 64.930
0.29 185.424 67.590
0.30 184.588 69.423
0.31 180.446 70.567
0.32 178.051 71.437
0.33 175.993 72.368
0.34 174.197 73.011
0.35 173.117 72.968
0.36 172.949 72.339
0.37 174.485 71.505
0.38 175.255 70.796
0.39 174.669 70.147
0.40 175.728 69.010
0.41 174.849 66.639
0.42 169.384 62.672
0.43 168.700 57.169
0.44 --undefined-- 49.928
0.45 --undefined-- 44.138
0.46 --undefined-- 42.979
0.47 --undefined-- 45.772
0.48 --undefined-- 52.122
0.49 --undefined-- 60.528
0.50 221.645 66.815
0.51 208.979 69.817
0.52 196.039 70.435
0.53 193.401 70.414
0.54 192.393 70.695
0.55 191.566 71.011
0.56 190.941 71.168
0.57 190.530 71.207
0.58 190.617 71.169
0.59 190.909 71.139
0.60 191.379 71.179
0.61 191.709 71.206
0.62 192.126 71.188
0.63 192.709 71.176
0.64 193.649 71.205
0.65 194.732 71.219
0.66 195.902 71.132
0.67 196.797 70.921
0.68 197.170 70.547
0.69 197.084 70.090
0.70 193.527 69.422
0.71 --undefined-- 67.873
0.72 --undefined-- 64.843
0.73 --undefined-- 60.640
0.74 --undefined-- 56.431
0.75 --undefined-- 52.719
0.76 --undefined-- 48.685
0.77 --undefined-- 44.866
0.78 --undefined-- 43.427
0.79 --undefined-- 42.809
0.80 --undefined-- 44.816
0.81 --undefined-- 47.355
0.82 --undefined-- 48.019
0.83 --undefined-- 55.676
0.84 --undefined-- 64.308
0.85 247.806 69.286
0.86 247.582 71.521
0.87 246.076 72.164
0.88 244.537 72.213
0.89 243.597 72.130
0.90 242.384 71.856
0.91 240.638 71.365
0.92 239.248 71.185
0.93 241.056 71.375
0.94 241.630 71.658
0.95 245.315 72.043
0.96 245.807 72.016
0.97 246.292 71.886
0.98 251.200 71.916
0.99 250.744 71.196
1.00 243.408 69.301
1.01 234.381 66.396
1.02 236.720 62.358
1.03 130.419 57.615
1.04 133.085 55.436
1.05 132.306 56.313
1.06 131.056 57.051
1.07 128.337 57.395
1.08 126.536 57.875
1.09 125.313 58.490
1.10 123.689 61.281
1.11 292.045 65.354
1.12 267.607 68.172
1.13 260.947 69.954
1.14 256.866 70.840
1.15 254.276 70.543
1.16 251.755 68.944
1.17 238.464 66.264
1.18 221.201 63.092
1.19 217.712 59.700
1.20 223.444 55.647
1.21 --undefined-- 51.647
1.22 --undefined-- 49.191
1.23 --undefined-- 47.387
1.24 --undefined-- 48.232
1.25 --undefined-- 49.244
1.26 --undefined-- 48.831
1.27 108.528 49.093
1.28 108.650 49.718
1.29 108.582 49.314
1.30 --undefined-- 48.009
1.31 --undefined-- 46.713
1.32 --undefined-- 45.987
1.33 --undefined-- 45.766
1.34 --undefined-- 44.688
1.35 --undefined-- 42.789
1.36 --undefined-- 43.139
1.37 --undefined-- 48.634
1.38 --undefined-- 52.996
1.39 --undefined-- 53.702
1.40 --undefined-- 51.691
1.41 --undefined-- 50.321
1.42 --undefined-- 49.741
1.43 --undefined-- 49.752
1.44 --undefined-- 56.734
1.45 213.353 64.239
1.46 205.484 68.652
1.47 198.941 70.643
1.48 193.419 71.260
1.49 190.626 71.347
1.50 188.630 71.278
1.51 187.481 71.157
1.52 186.383 71.187
1.53 185.876 71.489
1.54 184.738 71.820
1.55 184.156 72.094
1.56 184.242 72.246
1.57 185.996 72.084
1.58 187.569 70.982
1.59 185.917 68.115
1.60 178.157 63.146
1.61 --undefined-- 57.093
1.62 121.991 53.021
1.63 119.677 51.513
1.64 118.322 50.131
1.65 --undefined-- 49.320
1.66 --undefined-- 52.344
1.67 --undefined-- 54.955
1.68 --undefined-- 55.334
1.69 179.318 56.930
1.70 180.037 60.290
1.71 186.726 63.369
1.72 195.857 65.922
1.73 195.639 67.620
1.74 190.946 68.552
1.75 188.766 69.072
1.76 185.542 69.286
1.77 182.732 69.352
1.78 181.804 69.427
1.79 181.504 69.481
1.80 180.636 69.635
1.81 179.577 69.788
1.82 179.668 69.560
1.83 181.166 69.126
1.84 182.077 69.011
1.85 181.159 69.303
1.86 180.542 69.547
1.87 178.652 69.209
1.88 176.579 68.104
1.89 178.178 66.421
1.90 175.418 64.813
1.91 177.346 64.926
1.92 185.053 66.439
1.93 187.960 67.704
1.94 184.424 68.257
1.95 176.741 68.349
1.96 170.737 68.524
1.97 168.465 68.720
1.98 169.337 68.651
1.99 171.205 68.796
2.00 174.197 69.510
2.01 179.735 70.437
2.02 185.390 71.458
2.03 192.072 72.425
2.04 199.158 73.082
2.05 206.048 73.417
2.06 213.738 73.699
2.07 219.700 73.998
2.08 223.899 73.898
2.09 226.242 72.927
2.10 225.280 70.798
2.11 221.998 67.258
2.12 218.968 61.867
2.13 --undefined-- 54.238
2.14 --undefined-- 46.936
2.15 --undefined-- 46.138
2.16 --undefined-- 45.850
2.17 --undefined-- 46.291
2.18 --undefined-- 54.330
2.19 --undefined-- 61.890
2.20 148.939 66.449
2.21 152.517 69.004
2.22 149.773 70.220
2.23 151.403 70.477
2.24 154.664 70.215
2.25 158.722 69.752
2.26 166.052 69.461
2.27 171.267 69.758
2.28 177.585 70.772
2.29 185.558 71.977
2.30 189.901 72.805
2.31 194.855 73.281
2.32 201.032 73.580
2.33 207.661 73.852
2.34 213.210 74.032
2.35 217.396 73.805
2.36 218.715 72.676
2.37 218.668 69.977
2.38 223.572 65.036
2.39 220.807 57.851
2.40 --undefined-- 54.716
2.41 --undefined-- 62.191
2.42 210.978 68.277
2.43 207.065 71.885
2.44 198.186 74.105
2.45 188.883 75.259
2.46 180.959 75.709
2.47 178.011 76.044
2.48 178.224 75.881
2.49 178.952 74.574
2.50 178.734 72.060
2.51 177.367 68.765
2.52 173.003 64.903
2.53 164.536 60.211
2.54 172.118 54.534
2.55 --undefined-- 47.740
2.56 --undefined-- 43.979
2.57 --undefined-- 45.605
2.58 --undefined-- 46.298
2.59 --undefined-- 45.770
2.60 --undefined-- 45.018
2.61 --undefined-- 47.805
2.62 --undefined-- 55.628
2.63 208.853 63.247
2.64 197.813 67.575
2.65 184.640 69.053
2.66 178.310 69.182
2.67 174.979 69.502
2.68 173.534 70.160
2.69 172.661 70.497
2.70 171.989 70.452
2.71 172.228 70.268
2.72 171.944 70.170
2.73 172.489 70.065
2.74 173.725 69.847
2.75 173.370 69.304
2.76 171.741 67.618
2.77 173.936 64.231
2.78 92.660 59.430
2.79 91.684 55.669
2.80 90.839 54.214
2.81 89.780 53.400
2.82 --undefined-- 57.186
2.83 --undefined-- 64.285
2.84 211.182 68.741
2.85 213.764 70.898
2.86 215.297 71.990
2.87 217.247 72.508
2.88 217.769 72.359
2.89 218.703 71.817
2.90 215.947 71.706
2.91 215.449 72.806
2.92 219.956 74.187
2.93 220.015 74.902
2.94 220.055 75.075
2.95 220.023 74.988
2.96 218.942 74.678
2.97 216.835 73.793
2.98 214.078 71.692
2.99 214.775 67.626
3.00 224.036 60.827
3.01 --undefined-- 51.285
3.02 --undefined-- 45.951
3.03 --undefined-- 52.799
3.04 --undefined-- 61.814
3.05 --undefined-- 67.178
3.06 --undefined-- 69.510
3.07 147.104 70.027
3.08 141.217 69.931
3.09 139.191 69.721
3.10 139.151 69.325
3.11 140.537 68.967
3.12 141.792 68.915
3.13 143.081 68.979
3.14 144.353 68.887
3.15 148.193 68.683
3.16 152.478 68.873
3.17 155.945 69.556
3.18 160.889 70.072
3.19 167.635 70.328
3.20 175.312 70.876
3.21 180.606 71.611
3.22 189.383 71.729
3.23 202.375 71.028
3.24 208.328 70.127
3.25 213.564 69.509
3.26 218.566 68.857
3.27 220.451 67.712
3.28 213.114 65.840
3.29 189.503 63.085
3.30 179.672 59.161
3.31 --undefined-- 53.280
3.32 --undefined-- 45.122
3.33 --undefined-- 38.919
3.34 --undefined-- 37.558
3.35 --undefined-- 38.364
3.36 --undefined-- 39.166
3.37 --undefined-- 38.267
3.38 --undefined-- 37.473
3.39 --undefined-- 38.053
3.40 --undefined-- 39.371
3.41 --undefined-- 41.459
3.42 --undefined-- 42.528
3.43 --undefined-- 41.787
3.44 --undefined-- 40.389
3.45 --undefined-- 40.025
3.46 --undefined-- 40.358
3.47 --undefined-- 40.764
3.48 --undefined-- 40.306
3.49 --undefined-- 39.117
3.50 --undefined-- 38.298
3.51 --undefined-- 37.723
3.52 --undefined-- 38.482
3.53 --undefined-- 39.479
3.54 --undefined-- 40.051
3.55 --undefined-- 40.850
3.56 --undefined-- 40.004
3.57 --undefined-- 37.878
3.58 --undefined-- 37.050
3.59 --undefined-- 37.684
3.60 --undefined-- 39.480
3.61 --undefined-- 39.763
3.62 --undefined-- 38.463
3.63 --undefined-- 37.259
3.64 --undefined-- 37.056
3.65 --undefined-- 38.471
3.66 --undefined-- 39.981
3.67 --undefined-- 39.877
3.68 --undefined-- 38.563
3.69 --undefined-- 38.240
3.70 --undefined-- 39.419
3.71 --undefined-- 40.682
3.72 --undefined-- 40.685
3.73 --undefined-- 39.869
3.74 --undefined-- 39.558
3.75 --undefined-- 39.400
3.76 --undefined-- 39.951
3.77 --undefined-- 40.553
3.78 --undefined-- 41.029
3.79 --undefined-- 46.628
3.80 --undefined-- 53.098
3.81 --undefined-- 56.743
3.82 --undefined-- 58.199
3.83 173.396 58.702
3.84 174.540 58.737
3.85 176.855 58.086
3.86 182.740 57.619
3.87 189.441 58.074
3.88 195.037 58.332
3.89 199.773 57.917
3.90 204.914 57.760
3.91 210.472 61.784
3.92 222.675 68.086
3.93 219.048 72.057
3.94 208.889 73.831
3.95 204.168 74.614
3.96 201.616 75.260
3.97 200.212 75.700
3.98 200.113 75.767
3.99 200.424 75.415
4.00 200.184 74.468
4.01 199.740 73.144
4.02 197.049 72.427
4.03 197.700 72.412
4.04 202.730 71.885
4.05 210.475 71.074
4.06 214.291 70.949
4.07 217.049 71.400
4.08 220.408 72.077
4.09 218.192 72.721
4.10 210.558 72.995
4.11 204.008 72.789
4.12 199.294 72.239
4.13 198.721 71.679
4.14 198.366 71.177
4.15 196.856 70.739
4.16 195.021 70.609
4.17 193.932 70.626
4.18 192.825 70.516
4.19 192.380 70.407
4.20 192.699 70.505
4.21 193.214 70.736
4.22 194.091 71.067
4.23 194.425 71.404
4.24 194.986 71.533
4.25 196.111 71.518
4.26 196.707 71.416
4.27 197.268 71.036
4.28 194.803 70.042
4.29 188.195 68.071
4.30 177.470 65.042
4.31 166.777 61.505
4.32 156.691 59.078
4.33 155.056 57.837
4.34 152.279 57.753
4.35 150.635 57.900
4.36 149.455 57.530
4.37 147.160 56.441
4.38 144.406 55.292
4.39 --undefined-- 57.155
4.40 --undefined-- 61.329
4.41 185.405 64.899
4.42 194.047 67.598
4.43 197.933 69.696
4.44 201.444 71.143
4.45 204.053 71.952
4.46 203.147 72.312
4.47 204.385 72.489
4.48 201.216 72.495
4.49 198.483 72.502
4.50 196.472 72.562
4.51 194.985 72.565
4.52 193.605 72.528
4.53 192.277 72.432
4.54 191.545 72.216
4.55 189.525 72.122
4.56 191.225 72.475
4.57 193.229 72.807
4.58 193.009 72.787
4.59 191.921 72.594
4.60 191.749 72.339
4.61 192.522 71.926
4.62 193.208 71.046
4.63 192.282 69.222
4.64 192.914 65.676
4.65 --undefined-- 60.434
4.66 138.907 55.890
4.67 138.765 54.684
4.68 138.606 56.391
4.69 --undefined-- 62.802
4.70 217.118 68.062
4.71 211.447 70.465
4.72 206.639 70.958
4.73 204.249 70.900
4.74 202.769 70.981
4.75 201.798 71.297
4.76 201.478 71.800
4.77 201.233 72.383
4.78 201.650 72.908
4.79 202.522 73.160
4.80 204.046 72.764
4.81 207.519 71.187
4.82 205.039 67.965
4.83 194.305 63.279
4.84 --undefined-- 59.164
4.85 120.739 57.436
4.86 119.500 57.048
4.87 117.674 56.670
4.88 116.496 56.279
4.89 115.572 56.243
4.90 113.812 56.456
4.91 112.521 56.826
4.92 111.774 56.976
4.93 111.648 56.803
4.94 112.572 58.312
4.95 194.199 61.502
4.96 191.126 63.939
4.97 183.117 65.500
4.98 178.970 66.213
4.99 165.917 66.015
5.00 155.833 65.373
5.01 151.259 65.015
5.02 151.797 65.118
5.03 152.975 65.393
5.04 152.761 65.509
5.05 153.792 65.545
5.06 153.917 65.688
5.07 153.568 65.738
5.08 152.791 65.718
5.09 152.085 65.617
5.10 152.273 65.647
5.11 154.029 66.201
5.12 157.598 66.931
5.13 160.895 67.227
5.14 163.913 66.927
5.15 168.199 66.367
5.16 176.923 66.670
5.17 189.032 68.572
5.18 192.634 70.746
5.19 194.650 72.262
5.20 196.297 73.375
5.21 197.150 74.274
5.22 197.672 74.979
5.23 197.897 75.481
5.24 197.771 75.781
5.25 196.647 75.927
5.26 194.746 75.996
5.27 192.622 76.016
5.28 190.965 75.914
5.29 189.835 75.691
5.30 189.436 75.407
5.31 189.682 74.990
5.32 190.334 74.293
5.33 189.997 73.237
5.34 185.521 71.983
5.35 176.399 70.392
5.36 172.921 67.785
5.37 171.837 63.367
5.38 --undefined-- 56.881
5.39 --undefined-- 49.909
5.40 --undefined-- 45.475
5.41 --undefined-- 41.291
5.42 --undefined-- 39.217
5.43 --undefined-- 37.824
5.44 --undefined-- 37.030
5.45 --undefined-- 38.210
5.46 --undefined-- 39.079
5.47 --undefined-- 40.886
5.48 --undefined-- 41.931
5.49 --undefined-- 40.819
5.50 --undefined-- 39.682
5.51 --undefined-- 40.519
5.52 --undefined-- 45.547
5.53 --undefined-- 51.986
5.54 133.558 56.121
5.55 129.359 58.469
5.56 125.612 60.115
5.57 123.190 --undefined--
5.58 121.799 --undefined--
5.59 --undefined-- --undefined--
5.60 --undefined-- --undefined--
