Time Pitch Intensity
0.01 --undefined-- --undefined--
0.02 144.588 --undefined--
0.03 148.259 --undefined--
0.04 151.873 --undefined--
0.05 154.718 76.754
0.06 156.217 76.662
0.07 156.169 76.695
0.08 155.429 75.863
0.09 154.288 73.687
0.10 158.209 70.327
0.11 156.831 66.607
0.12 156.369 64.422
0.13 --undefined-- 65.216
0.14 --undefined-- 66.865
0.15 --undefined-- 68.016
0.16 --undefined-- 71.739
0.17 159.015 75.315
0.18 144.351 76.195
0.19 128.506 75.606
0.20 121.359 75.134
0.21 117.313 74.910
0.22 115.172 74.655
0.23 114.957 74.518
0.24 118.031 74.697
0.25 119.514 74.922
0.26 122.421 74.939
0.27 124.344 74.778
0.28 125.737 74.728
0.29 129.893 75.017
0.30 133.734 75.446
0.31 134.492 75.778
0.32 135.450 75.954
0.33 134.991 75.947
0.34 134.391 75.848
0.35 132.760 75.631
0.36 127.913 75.106
0.37 124.189 74.765
0.38 126.015 75.851
0.39 123.547 76.937
0.40 115.991 76.981
0.41 107.657 76.731
0.42 106.293 76.682
0.43 102.123 76.634
0.44 98.779 76.462
0.45 95.079 75.975
0.46 92.071 74.930
0.47 87.705 73.885
0.48 82.955 73.144
0.49 81.190 71.937
0.50 --undefined-- 71.795
0.51 --undefined-- 73.500
0.52 79.404 74.710
0.53 100.795 75.144
0.54 102.235 75.245
0.55 106.960 75.687
0.56 112.326 76.253
0.57 115.597 76.475
0.58 122.643 76.760
0.59 133.177 77.562
0.60 136.027 78.325
0.61 137.973 78.755
0.62 139.862 78.914
0.63 141.380 78.792
0.64 142.487 78.601
0.65 142.876 78.517
0.66 142.721 78.446
0.67 141.779 78.352
0.68 139.763 78.276
0.69 137.676 78.174
0.70 136.096 77.834
0.71 133.266 77.062
0.72 128.038 75.642
0.73 124.401 73.367
0.74 123.447 71.088
0.75 130.882 71.514
0.76 134.407 74.080
0.77 134.165 76.334
0.78 132.205 77.288
0.79 128.364 76.783
0.80 123.725 75.262
0.81 125.075 74.243
0.82 132.621 74.859
0.83 135.771 75.883
0.84 139.338 76.665
0.85 143.429 77.119
0.86 149.376 77.172
0.87 154.316 76.877
0.88 156.192 76.346
0.89 157.011 75.319
0.90 155.749 73.238
0.91 157.078 69.622
0.92 156.881 64.080
0.93 158.160 57.481
0.94 155.992 55.618
0.95 --undefined-- 61.338
0.96 --undefined-- 67.259
0.97 --undefined-- 71.116
0.98 --undefined-- 73.392
0.99 --undefined-- 75.576
1.00 --undefined-- 76.859
1.01 --undefined-- 76.734
1.02 99.298 76.333
1.03 88.925 75.954
1.04 86.223 75.220
1.05 76.864 74.391
1.06 77.598 73.794
1.07 83.691 73.777
1.08 93.942 74.255
1.09 100.524 74.747
1.10 105.685 75.016
1.11 110.632 75.248
1.12 112.424 75.571
1.13 115.252 75.919
1.14 118.482 76.270
1.15 120.694 76.341
1.16 123.727 75.858
1.17 128.950 75.229
1.18 135.489 75.226
1.19 139.015 75.848
1.20 140.648 76.248
1.21 141.604 76.195
1.22 142.974 76.019
1.23 143.866 75.990
1.24 144.187 76.203
1.25 145.401 76.413
1.26 146.154 76.416
1.27 145.804 76.350
1.28 146.309 76.404
1.29 147.437 76.604
1.30 144.787 76.845
1.31 144.243 77.028
1.32 144.022 77.098
1.33 142.621 77.051
1.34 141.789 76.941
1.35 141.412 76.784
1.36 141.270 76.603
1.37 140.696 76.374
1.38 139.239 76.070
1.39 138.525 75.773
1.40 137.423 75.466
1.41 136.394 75.213
1.42 136.876 75.541
1.43 137.442 76.404
1.44 137.263 77.097
1.45 136.160 77.382
1.46 133.454 77.369
1.47 129.286 77.137
1.48 125.773 76.833
1.49 119.122 76.759
1.50 113.421 76.843
1.51 109.230 76.936
1.52 107.253 77.097
1.53 106.541 77.183
1.54 107.547 77.117
1.55 108.150 76.993
1.56 108.889 76.962
1.57 110.050 76.987
1.58 111.576 76.875
1.59 113.943 76.459
1.60 116.740 76.138
1.61 119.222 76.481
1.62 121.606 77.079
1.63 123.931 77.441
1.64 127.703 77.526
1.65 124.781 77.140
1.66 125.767 76.509
1.67 127.309 76.077
1.68 129.128 75.894
1.69 129.031 75.850
1.70 128.055 75.734
1.71 127.637 75.762
1.72 130.970 75.892
1.73 130.996 75.783
1.74 130.853 75.621
1.75 129.910 75.518
1.76 129.083 75.435
1.77 128.717 75.432
1.78 129.953 75.586
1.79 129.870 75.666
1.80 127.170 75.506
1.81 126.569 75.435
1.82 126.478 75.530
1.83 127.300 75.711
1.84 129.931 75.990
1.85 133.185 76.354
1.86 134.221 76.520
1.87 134.922 76.291
1.88 135.524 75.620
1.89 136.178 73.803
1.90 123.255 70.113
1.91 133.373 65.672
1.92 138.739 62.896
1.93 137.160 63.521
1.94 --undefined-- 70.276
1.95 151.406 75.198
1.96 146.451 77.058
1.97 137.003 77.050
1.98 132.029 76.799
1.99 131.019 77.024
2.00 130.255 77.314
2.01 129.243 77.429
2.02 128.347 77.426
2.03 126.826 77.390
2.04 125.874 77.453
2.05 124.527 77.546
2.06 123.622 77.628
2.07 122.436 77.719
2.08 122.024 77.740
2.09 121.693 77.578
2.10 121.963 77.373
2.11 123.977 77.342
2.12 125.687 77.361
2.13 126.483 77.295
2.14 126.635 77.216
2.15 125.561 77.230
2.16 124.563 77.349
2.17 123.321 77.455
2.18 124.076 77.176
2.19 125.112 76.208
2.20 126.250 74.851
2.21 128.402 73.880
2.22 129.297 73.602
2.23 130.129 73.846
2.24 129.055 74.541
2.25 127.151 75.306
2.26 125.583 75.711
2.27 124.513 75.735
2.28 125.358 75.715
2.29 128.232 75.768
2.30 132.039 75.843
2.31 135.172 75.980
2.32 139.110 76.110
2.33 146.857 76.454
2.34 153.384 76.877
2.35 155.593 76.180
2.36 155.784 73.314
2.37 152.372 67.848
2.38 152.794 60.666
2.39 --undefined-- 55.212
2.40 --undefined-- 53.939
2.41 --undefined-- 60.190
2.42 --undefined-- 69.026
2.43 159.422 74.278
2.44 158.207 75.927
2.45 141.835 74.871
2.46 129.119 72.740
2.47 128.634 71.078
2.48 128.898 70.570
2.49 128.272 71.460
2.50 127.025 73.307
2.51 125.268 74.999
2.52 125.523 75.920
2.53 124.548 76.347
2.54 123.742 76.769
2.55 121.643 77.034
2.56 122.641 76.784
2.57 123.299 75.706
2.58 120.560 73.267
2.59 115.931 69.515
2.60 113.296 65.404
2.61 112.141 61.918
2.62 117.107 61.588
2.63 --undefined-- 63.596
2.64 --undefined-- 65.839
2.65 --undefined-- 70.831
2.66 --undefined-- 75.265
2.67 145.340 76.827
2.68 135.681 76.367
2.69 128.904 75.682
2.70 127.951 75.763
2.71 128.319 76.174
2.72 129.026 76.336
2.73 128.888 76.230
2.74 127.819 76.017
2.75 127.013 75.898
2.76 126.176 75.882
2.77 125.375 75.910
2.78 124.898 75.774
2.79 124.489 74.730
2.80 123.657 71.854
2.81 --undefined-- 66.951
2.82 --undefined-- 63.451
2.83 130.395 62.812
2.84 129.990 61.153
2.85 125.269 58.679
2.86 --undefined-- 57.737
2.87 --undefined-- 58.412
2.88 --undefined-- 59.297
2.89 --undefined-- 60.057
2.90 --undefined-- 59.946
2.91 --undefined-- 59.091
2.92 --undefined-- 58.179
2.93 --undefined-- 57.387
2.94 --undefined-- 57.429
2.95 --undefined-- 63.435
2.96 --undefined-- 69.852
2.97 120.072 73.629
2.98 119.260 75.542
2.99 118.918 76.460
3.00 118.558 76.923
3.01 120.479 77.109
3.02 122.412 76.890
3.03 126.815 76.380
3.04 128.745 75.975
3.05 130.685 76.122
3.06 132.420 76.668
3.07 131.641 77.055
3.08 129.889 76.969
3.09 126.556 76.431
3.10 123.633 75.777
3.11 108.675 75.255
3.12 107.276 74.903
3.13 109.380 74.756
3.14 107.965 74.611
3.15 106.436 74.258
3.16 103.975 74.157
3.17 104.604 74.760
3.18 104.279 75.436
3.19 104.009 75.861
3.20 104.236 76.098
3.21 106.274 76.219
3.22 108.857 76.298
3.23 109.699 76.222
3.24 109.645 75.863
3.25 107.798 75.349
3.26 105.560 75.010
3.27 105.188 75.110
3.28 104.368 75.494
3.29 103.713 75.946
3.30 103.286 76.191
3.31 104.151 76.117
3.32 104.467 75.960
3.33 112.430 75.817
3.34 111.204 75.343
3.35 109.635 74.321
3.36 108.291 72.732
3.37 106.497 70.641
3.38 112.060 68.073
3.39 108.059 64.721
3.40 109.304 61.154
3.41 --undefined-- 59.202
3.42 --undefined-- 58.689
3.43 --undefined-- 59.043
3.44 --undefined-- 60.057
3.45 --undefined-- 64.940
3.46 --undefined-- 71.352
3.47 --undefined-- 75.098
3.48 110.318 76.550
3.49 111.318 76.868
3.50 112.878 76.931
3.51 117.642 77.396
3.52 120.876 78.085
3.53 124.243 78.240
3.54 129.592 77.931
3.55 144.072 77.994
3.56 150.442 78.257
3.57 159.508 78.018
3.58 168.016 77.371
3.59 171.083 76.197
3.60 170.630 73.845
3.61 --undefined-- 70.072
3.62 --undefined-- 64.901
3.63 --undefined-- 60.087
3.64 --undefined-- 58.318
3.65 --undefined-- 56.577
3.66 --undefined-- 55.749
3.67 --undefined-- 55.983
3.68 --undefined-- 56.005
3.69 --undefined-- 56.029
3.70 --undefined-- 56.304
3.71 --undefined-- 55.978
3.72 --undefined-- 55.661
3.73 --undefined-- 55.712
3.74 --undefined-- 55.659
3.75 --undefined-- 56.282
3.76 --undefined-- 57.347
3.77 --undefined-- 57.787
3.78 --undefined-- 57.692
3.79 --undefined-- 57.937
3.80 --undefined-- 58.502
3.81 --undefined-- 58.350
3.82 --undefined-- 58.029
3.83 --undefined-- 58.872
3.84 182.548 60.108
3.85 186.251 60.611
3.86 168.723 60.546
3.87 155.143 60.011
3.88 157.636 58.858
3.89 --undefined-- 56.353
3.90 --undefined-- 52.360
3.91 --undefined-- 50.284
3.92 --undefined-- 54.464
3.93 --undefined-- 65.165
3.94 236.392 72.418
3.95 226.576 75.990
3.96 225.197 77.188
3.97 226.121 77.554
3.98 226.351 77.934
3.99 223.124 78.321
4.00 216.383 78.768
4.01 210.303 79.213
4.02 206.943 79.266
4.03 201.326 78.704
4.04 192.107 78.038
4.05 180.922 77.712
4.06 169.670 77.806
4.07 165.104 77.883
4.08 159.568 77.764
4.09 154.988 77.689
4.10 151.709 77.643
4.11 150.266 77.084
4.12 151.069 76.191
4.13 154.438 75.695
4.14 159.563 75.984
4.15 165.828 76.951
4.16 166.860 77.611
4.17 170.984 77.529
4.18 176.406 77.081
4.19 180.322 76.946
4.20 182.565 76.857
4.21 181.790 76.620
4.22 177.676 76.358
4.23 175.713 76.291
4.24 169.606 76.386
4.25 162.993 76.284
4.26 156.110 76.312
4.27 150.880 76.653
4.28 144.270 76.872
4.29 139.000 76.952
4.30 135.347 76.871
4.31 132.737 75.908
4.32 125.225 73.206
4.33 121.750 68.500
4.34 137.364 62.690
4.35 136.347 57.804
4.36 135.973 55.772
4.37 134.457 54.326
4.38 134.534 52.718
4.39 --undefined-- 52.481
4.40 --undefined-- 55.771
4.41 --undefined-- 61.036
4.42 --undefined-- 68.915
4.43 --undefined-- 74.648
4.44 159.111 76.986
4.45 153.376 77.110
4.46 146.212 76.520
4.47 141.927 75.874
4.48 138.510 74.870
4.49 133.466 74.077
4.50 136.031 74.766
4.51 137.923 75.819
4.52 138.027 76.204
4.53 138.118 76.115
4.54 138.337 75.925
4.55 139.044 75.775
4.56 139.837 75.692
4.57 140.027 75.615
4.58 139.692 75.499
4.59 139.407 75.419
4.60 138.908 75.426
4.61 138.423 75.530
4.62 138.154 75.679
4.63 137.393 75.744
4.64 136.312 75.497
4.65 134.493 74.479
4.66 131.027 72.165
4.67 127.773 68.275
4.68 131.348 62.533
4.69 131.142 56.935
4.70 130.454 55.198
4.71 134.374 55.197
4.72 --undefined-- 56.176
4.73 --undefined-- 57.183
4.74 --undefined-- 56.675
4.75 --undefined-- 55.090
4.76 --undefined-- 54.714
4.77 --undefined-- 61.572
4.78 --undefined-- 67.691
4.79 124.681 71.285
4.80 120.729 73.479
4.81 119.325 75.049
4.82 117.686 76.036
4.83 117.996 76.665
4.84 120.779 77.126
4.85 124.523 77.513
4.86 130.121 77.867
4.87 136.550 78.153
4.88 142.341 78.382
4.89 145.665 78.321
4.90 146.660 77.622
4.91 146.919 76.702
4.92 147.113 76.684
4.93 154.083 --undefined--
4.94 156.517 --undefined--
4.95 --undefined-- --undefined--
4.96 --undefined-- --undefined--
