Time Pitch Intensity
0.01 --undefined-- --undefined--
0.02 --undefined-- --undefined--
0.03 --undefined-- --undefined--
0.04 --undefined-- --undefined--
0.05 --undefined-- 47.210
0.06 --undefined-- 44.932
0.07 --undefined-- 41.910
0.08 --undefined-- 38.669
0.09 --undefined-- 35.114
0.10 --undefined-- 31.718
0.11 --undefined-- 29.488
0.12 --undefined-- 27.904
0.13 --undefined-- 27.486
0.14 --undefined-- 27.898
0.15 --undefined-- 27.561
0.16 --undefined-- 25.981
0.17 --undefined-- 24.186
0.18 --undefined-- 25.054
0.19 --undefined-- 27.561
0.20 --undefined-- 29.102
0.21 --undefined-- 32.998
0.22 --undefined-- 47.444
0.23 --undefined-- 58.571
0.24 --undefined-- 65.324
0.25 --undefined-- 68.707
0.26 --undefined-- 69.796
0.27 --undefined-- 69.711
0.28 --undefined-- 69.512
0.29 163.771 69.254
0.30 162.989 69.270
0.31 162.994 69.470
0.32 163.260 69.427
0.33 162.770 69.141
0.34 162.893 68.654
0.35 163.289 68.171
0.36 162.670 67.908
0.37 161.265 67.633
0.38 159.880 67.601
0.39 159.458 68.010
0.40 159.415 68.539
0.41 159.428 68.930
0.42 159.795 68.953
0.43 161.144 68.665
0.44 160.580 68.481
0.45 160.817 68.424
0.46 163.263 68.140
0.47 165.535 67.667
0.48 166.052 66.637
0.49 166.048 64.171
0.50 164.374 60.005
0.51 159.688 54.315
0.52 --undefined-- 47.791
0.53 --undefined-- 44.485
0.54 --undefined-- 49.180
0.55 --undefined-- 52.891
0.56 --undefined-- 54.018
0.57 --undefined-- 54.059
0.58 183.227 54.438
0.59 189.501 55.964
0.60 193.728 58.439
0.61 184.460 60.380
0.62 168.039 61.395
0.63 158.872 61.763
0.64 151.322 61.856
0.65 146.940 61.462
0.66 143.456 60.466
0.67 143.183 60.056
0.68 142.764 60.404
0.69 143.916 61.164
0.70 145.767 62.593
0.71 144.941 64.452
0.72 142.765 66.079
0.73 141.267 66.861
0.74 140.666 66.617
0.75 --undefined-- 65.742
0.76 --undefined-- 65.242
0.77 --undefined-- 64.640
0.78 --undefined-- 63.974
0.79 --undefined-- 63.954
0.80 --undefined-- 65.088
0.81 --undefined-- 66.493
0.82 --undefined-- 65.989
0.83 --undefined-- 64.191
0.84 --undefined-- 63.423
0.85 --undefined-- 63.819
0.86 182.765 65.566
0.87 191.347 67.564
0.88 195.360 69.136
0.89 198.782 70.051
0.90 204.165 70.332
0.91 205.886 70.414
0.92 205.331 70.454
0.93 204.678 70.373
0.94 204.737 70.154
0.95 202.346 69.942
0.96 200.088 69.741
0.97 198.277 68.797
0.98 193.824 66.434
0.99 190.602 62.550
1.00 186.280 57.745
1.01 184.664 53.356
1.02 183.337 48.679
1.03 --undefined-- 43.499
1.04 --undefined-- 43.605
1.05 --undefined-- 51.471
1.06 --undefined-- 58.980
1.07 160.178 63.435
1.08 159.545 65.751
1.09 158.177 67.069
1.10 156.576 67.750
1.11 154.542 67.496
1.12 154.031 66.760
1.13 155.931 66.428
1.14 161.064 66.530
1.15 165.406 66.685
1.16 160.899 66.708
1.17 159.530 66.735
1.18 159.549 66.427
1.19 157.969 65.656
1.20 153.851 65.077
1.21 150.684 65.165
1.22 148.413 65.659
1.23 147.991 66.149
1.24 149.099 66.707
1.25 151.407 67.410
1.26 154.447 67.538
1.27 156.530 66.967
1.28 158.727 66.385
1.29 160.508 66.287
1.30 162.835 66.768
1.31 163.224 67.519
1.32 162.832 68.089
1.33 161.695 68.197
1.34 159.895 67.797
1.35 159.746 67.190
1.36 159.652 66.989
1.37 159.625 67.270
1.38 159.143 67.318
1.39 158.644 66.893
1.40 158.901 66.593
1.41 159.903 66.778
1.42 160.202 67.114
1.43 158.961 67.150
1.44 157.373 66.703
1.45 158.149 65.446
1.46 111.736 62.766
1.47 107.875 58.379
1.48 --undefined-- 55.135
1.49 --undefined-- 56.708
1.50 --undefined-- 56.720
1.51 --undefined-- 53.010
1.52 --undefined-- 45.034
1.53 --undefined-- 34.625
1.54 --undefined-- 41.069
1.55 --undefined-- 50.478
1.56 --undefined-- 55.753
1.57 --undefined-- 58.135
1.58 --undefined-- 62.896
1.59 --undefined-- 68.044
1.60 --undefined-- 70.484
1.61 163.659 70.489
1.62 162.912 69.147
1.63 163.695 68.097
1.64 165.706 67.887
1.65 162.878 67.863
1.66 160.545 67.329
1.67 158.642 66.455
1.68 155.805 66.247
1.69 153.024 66.636
1.70 151.248 67.010
1.71 151.926 66.913
1.72 154.158 66.249
1.73 156.361 65.830
1.74 156.177 65.939
1.75 156.229 66.219
1.76 156.600 66.621
1.77 156.532 66.741
1.78 157.177 66.392
1.79 157.555 66.164
1.80 156.292 66.267
1.81 153.514 66.055
1.82 152.325 65.262
1.83 154.992 63.880
1.84 --undefined-- 62.422
1.85 --undefined-- 62.380
1.86 --undefined-- 63.344
1.87 --undefined-- 63.729
1.88 --undefined-- 64.208
1.89 149.780 64.850
1.90 151.068 65.109
1.91 152.040 64.584
1.92 --undefined-- 64.243
1.93 --undefined-- 63.980
1.94 --undefined-- 62.405
1.95 --undefined-- 59.980
1.96 --undefined-- 56.908
1.97 --undefined-- 53.851
1.98 --undefined-- 51.208
1.99 --undefined-- 45.565
2.00 --undefined-- 44.286
2.01 --undefined-- 50.203
2.02 --undefined-- 52.061
2.03 --undefined-- 49.542
2.04 --undefined-- 42.316
2.05 --undefined-- 31.222
2.06 --undefined-- 27.332
2.07 --undefined-- 26.960
2.08 --undefined-- 31.444
2.09 --undefined-- 41.588
2.10 --undefined-- 49.424
2.11 --undefined-- 54.862
2.12 --undefined-- 58.518
2.13 123.524 60.640
2.14 132.794 61.394
2.15 143.531 61.373
2.16 154.235 61.956
2.17 165.862 65.642
2.18 166.000 70.356
2.19 164.411 72.868
2.20 162.609 73.053
2.21 162.513 71.954
2.22 162.648 70.618
2.23 162.156 68.740
2.24 162.151 66.056
2.25 163.720 63.263
2.26 166.049 60.919
2.27 166.921 59.630
2.28 164.203 59.702
2.29 163.056 60.208
2.30 163.492 60.278
2.31 164.326 60.348
2.32 165.974 60.749
2.33 168.916 60.970
2.34 172.103 60.412
2.35 171.506 58.524
2.36 167.926 55.246
2.37 166.190 51.025
2.38 --undefined-- 46.659
2.39 --undefined-- 46.174
2.40 --undefined-- 49.642
2.41 --undefined-- 50.560
2.42 --undefined-- 49.146
2.43 --undefined-- 50.228
2.44 --undefined-- 57.467
2.45 252.036 64.341
2.46 248.971 68.314
2.47 246.638 69.998
2.48 244.001 70.357
2.49 245.359 70.001
2.50 249.845 69.290
2.51 246.911 69.264
2.52 243.759 70.917
2.53 245.313 72.319
2.54 249.111 72.438
2.55 250.315 72.047
2.56 251.351 71.732
2.57 254.364 71.501
2.58 256.012 70.999
2.59 256.539 69.545
2.60 257.210 67.421
2.61 257.112 65.741
2.62 257.974 65.587
2.63 262.047 66.960
2.64 266.968 69.183
2.65 269.465 71.840
2.66 268.658 73.633
2.67 266.951 73.900
2.68 268.105 73.037
2.69 271.498 71.737
2.70 274.800 70.188
2.71 278.476 68.306
2.72 284.779 66.390
2.73 288.488 64.890
2.74 294.754 63.765
2.75 298.771 62.717
2.76 152.256 61.519
2.77 153.200 60.474
2.78 153.151 60.162
2.79 151.753 60.282
2.80 150.722 60.267
2.81 147.857 59.845
2.82 145.971 58.921
2.83 143.043 57.644
2.84 138.167 56.244
2.85 136.068 54.198
2.86 --undefined-- 50.491
2.87 --undefined-- 44.830
2.88 --undefined-- 37.990
2.89 --undefined-- 31.496
2.90 --undefined-- 27.551
2.91 --undefined-- 26.338
2.92 --undefined-- 26.647
2.93 --undefined-- 35.816
2.94 --undefined-- 46.259
2.95 --undefined-- 52.397
2.96 --undefined-- 55.602
2.97 --undefined-- 56.695
2.98 --undefined-- 57.805
2.99 --undefined-- 62.315
3.00 --undefined-- 66.907
3.01 190.727 69.611
3.02 190.388 70.122
3.03 191.195 68.951
3.04 192.816 67.357
3.05 192.872 66.655
3.06 193.740 66.421
3.07 195.964 66.040
3.08 195.595 65.539
3.09 192.962 64.789
3.10 190.724 64.337
3.11 191.128 64.358
3.12 193.725 64.261
3.13 194.351 63.759
3.14 195.042 62.667
3.15 199.176 60.783
3.16 209.869 58.639
3.17 212.027 57.418
3.18 --undefined-- 58.440
3.19 --undefined-- 60.992
3.20 --undefined-- 61.794
3.21 --undefined-- 60.404
3.22 --undefined-- 59.397
3.23 --undefined-- 59.628
3.24 --undefined-- 59.109
3.25 --undefined-- 58.294
3.26 --undefined-- 60.417
3.27 --undefined-- 64.905
3.28 --undefined-- 68.633
3.29 --undefined-- 70.800
3.30 158.080 71.632
3.31 156.106 71.511
3.32 155.138 70.961
3.33 153.753 69.984
3.34 153.570 68.453
3.35 159.646 66.986
3.36 164.387 66.344
3.37 170.770 65.887
3.38 192.849 65.367
3.39 205.322 65.132
3.40 214.760 65.481
3.41 219.336 66.832
3.42 223.100 68.767
3.43 226.796 69.930
3.44 231.671 70.276
3.45 234.369 71.586
3.46 235.337 73.234
3.47 238.854 73.817
3.48 241.921 73.378
3.49 242.101 72.327
3.50 243.882 71.015
3.51 247.173 70.030
3.52 248.644 69.587
3.53 249.245 69.148
3.54 249.627 68.342
3.55 249.512 66.931
3.56 249.663 64.916
3.57 249.988 62.317
3.58 250.960 58.918
3.59 266.378 55.241
3.60 251.882 51.617
3.61 --undefined-- 47.257
3.62 --undefined-- 42.736
3.63 --undefined-- 38.118
3.64 --undefined-- 32.965
3.65 --undefined-- 34.942
3.66 --undefined-- 39.925
3.67 --undefined-- 44.168
3.68 --undefined-- 47.078
3.69 --undefined-- 48.467
3.70 --undefined-- 49.308
3.71 --undefined-- 50.189
3.72 --undefined-- 51.126
3.73 --undefined-- 51.935
3.74 --undefined-- 52.078
3.75 --undefined-- 51.594
3.76 --undefined-- 50.705
3.77 --undefined-- 49.899
3.78 --undefined-- 50.405
3.79 --undefined-- 50.234
3.80 --undefined-- 48.457
3.81 --undefined-- 45.315
3.82 --undefined-- 40.253
3.83 --undefined-- 33.782
3.84 --undefined-- 28.304
3.85 --undefined-- 25.884
3.86 --undefined-- 25.358
3.87 --undefined-- 25.332
3.88 --undefined-- 25.714
3.89 --undefined-- 26.059
3.90 --undefined-- 26.156
3.91 --undefined-- 26.887
3.92 --undefined-- 35.286
3.93 --undefined-- 45.278
3.94 238.627 54.384
3.95 236.362 62.701
3.96 238.816 68.603
3.97 238.033 71.836
3.98 239.298 72.850
3.99 239.857 72.575
4.00 245.361 71.937
4.01 247.650 70.792
4.02 248.262 68.714
4.03 248.982 65.710
4.04 239.940 61.791
4.05 228.145 58.093
4.06 229.270 56.790
4.07 233.889 57.827
4.08 239.898 60.517
4.09 247.289 63.480
4.10 248.934 65.527
4.11 246.154 66.158
4.12 243.482 65.541
4.13 241.618 63.687
4.14 231.028 60.748
4.15 223.666 58.308
4.16 219.352 56.896
4.17 219.586 55.892
4.18 213.271 55.015
4.19 199.870 56.887
4.20 188.267 61.985
4.21 181.520 66.394
4.22 176.400 69.475
4.23 172.029 71.645
4.24 169.412 72.377
4.25 167.342 71.172
4.26 163.777 68.837
4.27 165.650 67.067
4.28 170.144 66.384
4.29 173.554 66.122
4.30 174.924 66.374
4.31 175.869 67.642
4.32 178.433 68.802
4.33 180.743 69.722
4.34 181.327 70.561
4.35 183.092 70.900
4.36 185.641 70.618
4.37 188.777 69.781
4.38 192.990 68.421
4.39 194.610 66.529
4.40 194.376 64.919
4.41 194.343 64.613
4.42 194.135 64.858
4.43 191.645 65.104
4.44 189.908 65.436
4.45 186.727 65.964
4.46 181.697 66.259
4.47 174.910 65.981
4.48 169.970 65.613
4.49 166.169 65.176
4.50 158.281 64.383
4.51 152.816 63.575
4.52 150.790 63.375
4.53 151.440 63.991
4.54 150.240 64.510
4.55 147.647 64.365
4.56 142.642 64.130
4.57 153.646 64.204
4.58 155.120 64.225
4.59 144.710 63.908
4.60 147.232 63.682
4.61 148.359 63.616
4.62 147.999 63.168
4.63 157.224 62.740
4.64 160.497 62.268
4.65 161.724 60.846
4.66 161.739 58.610
4.67 161.349 56.655
4.68 --undefined-- 56.036
4.69 --undefined-- 56.477
4.70 --undefined-- 57.773
4.71 --undefined-- 59.248
4.72 --undefined-- 59.688
4.73 --undefined-- 58.616
4.74 --undefined-- 57.155
4.75 --undefined-- 61.584
4.76 292.114 66.847
4.77 294.884 69.160
4.78 --undefined-- 69.495
4.79 --undefined-- 69.216
4.80 --undefined-- 68.691
4.81 --undefined-- 68.198
4.82 --undefined-- 67.632
4.83 --undefined-- 67.583
4.84 --undefined-- 67.755
4.85 160.304 67.303
4.86 157.396 66.005
4.87 167.295 65.659
4.88 171.852 66.363
4.89 170.637 66.522
4.90 166.708 65.700
4.91 163.629 65.997
4.92 159.738 69.596
4.93 155.416 72.396
4.94 150.709 72.940
4.95 --undefined-- 72.188
4.96 134.300 71.032
4.97 132.187 69.507
4.98 --undefined-- 68.595
4.99 --undefined-- 68.586
5.00 --undefined-- 67.803
5.01 --undefined-- 65.400
5.02 114.147 62.870
5.03 126.434 61.252
5.04 --undefined-- 58.674
5.05 --undefined-- 54.277
5.06 --undefined-- 48.315
5.07 --undefined-- 42.748
5.08 --undefined-- 39.113
5.09 --undefined-- 37.957
5.10 --undefined-- 36.627
5.11 --undefined-- 33.679
5.12 --undefined-- 29.878
5.13 --undefined-- 26.754
5.14 --undefined-- 24.793
5.15 --undefined-- 24.581
5.16 --undefined-- 25.664
5.17 --undefined-- 26.439
5.18 --undefined-- 26.394
5.19 --undefined-- 25.869
5.20 --undefined-- 24.785
5.21 --undefined-- 23.057
5.22 --undefined-- 21.903
5.23 --undefined-- 21.758
5.24 --undefined-- 22.118
5.25 --undefined-- 22.705
5.26 --undefined-- 22.703
5.27 --undefined-- 21.988
5.28 --undefined-- 22.193
5.29 --undefined-- 25.184
5.30 --undefined-- 32.293
5.31 --undefined-- 41.077
5.32 --undefined-- 46.096
5.33 --undefined-- 47.344
5.34 --undefined-- 45.967
5.35 --undefined-- 45.485
5.36 --undefined-- 46.819
5.37 --undefined-- 47.501
5.38 --undefined-- 48.065
5.39 --undefined-- 48.645
5.40 --undefined-- 49.025
5.41 --undefined-- 48.715
5.42 --undefined-- 47.548
5.43 --undefined-- 46.434
5.44 --undefined-- 46.441
5.45 --undefined-- 46.551
5.46 --undefined-- 45.444
5.47 --undefined-- 44.802
5.48 --undefined-- 45.743
5.49 --undefined-- 45.982
5.50 --undefined-- 44.828
5.51 --undefined-- 43.201
5.52 --undefined-- 41.685
5.53 --undefined-- 40.588
5.54 --undefined-- 39.626
5.55 --undefined-- 37.941
5.56 --undefined-- 34.831
5.57 --undefined-- 30.205
5.58 --undefined-- 27.138
5.59 --undefined-- 26.790
5.60 --undefined-- 28.120
5.61 --undefined-- 40.837
5.62 --undefined-- 51.841
5.63 --undefined-- 57.745
5.64 --undefined-- 60.018
5.65 --undefined-- 62.334
5.66 163.186 67.776
5.67 163.071 71.602
5.68 163.276 72.977
5.69 166.446 72.449
5.70 173.503 70.911
5.71 182.993 68.442
5.72 212.009 65.421
5.73 229.426 64.018
5.74 235.848 64.351
5.75 234.322 65.211
5.76 229.203 66.059
5.77 221.663 66.759
5.78 216.172 67.013
5.79 209.081 66.820
5.80 200.234 66.658
5.81 196.880 66.887
5.82 195.694 --undefined--
5.83 188.503 --undefined--
5.84 --undefined-- --undefined--
5.85 --undefined-- --undefined--
