Time Pitch Intensity
0.01 --undefined-- --undefined--
0.02 85.381 --undefined--
0.03 85.445 --undefined--
0.04 85.828 --undefined--
0.05 87.715 64.953
0.06 87.775 64.248
0.07 --undefined-- 61.816
0.08 --undefined-- 56.589
0.09 --undefined-- 47.945
0.10 --undefined-- 39.294
0.11 --undefined-- 36.224
0.12 --undefined-- 33.095
0.13 --undefined-- 32.224
0.14 --undefined-- 32.833
0.15 --undefined-- 33.343
0.16 --undefined-- 41.281
0.17 --undefined-- 53.156
0.18 --undefined-- 59.857
0.19 --undefined-- 62.629
0.20 --undefined-- 63.356
0.21 --undefined-- 65.069
0.22 --undefined-- 68.331
0.23 --undefined-- 71.289
0.24 --undefined-- 73.089
0.25 117.981 73.748
0.26 114.821 73.880
0.27 111.933 73.698
0.28 111.465 72.892
0.29 111.425 71.456
0.30 110.258 69.297
0.31 109.045 66.422
0.32 107.362 63.225
0.33 107.806 60.681
0.34 107.805 59.210
0.35 108.029 58.671
0.36 109.111 59.222
0.37 108.619 60.734
0.38 106.370 62.600
0.39 103.368 64.431
0.40 99.144 65.881
0.41 96.590 66.919
0.42 96.320 67.323
0.43 97.119 67.413
0.44 97.522 67.445
0.45 96.825 67.155
0.46 95.710 66.870
0.47 91.393 66.121
0.48 --undefined-- 64.164
0.49 --undefined-- 60.659
0.50 --undefined-- 55.639
0.51 --undefined-- 53.035
0.52 91.074 57.622
0.53 91.160 62.692
0.54 90.500 65.844
0.55 87.839 67.164
0.56 87.931 67.401
0.57 87.912 67.363
0.58 88.017 67.322
0.59 87.704 66.645
0.60 89.033 65.154
0.61 89.988 63.555
0.62 91.204 62.414
0.63 91.262 61.994
0.64 96.963 62.562
0.65 100.056 64.224
0.66 99.460 64.993
0.67 99.177 63.367
0.68 96.927 60.234
0.69 94.404 57.241
0.70 94.657 54.216
0.71 --undefined-- 51.191
0.72 --undefined-- 49.276
0.73 --undefined-- 49.541
0.74 86.846 52.260
0.75 86.633 55.455
0.76 85.198 58.329
0.77 83.185 60.758
0.78 --undefined-- 62.111
0.79 80.161 62.622
0.80 80.334 63.077
0.81 --undefined-- 63.405
0.82 --undefined-- 63.477
0.83 --undefined-- 63.177
0.84 --undefined-- 61.937
0.85 --undefined-- 60.005
0.86 --undefined-- 57.722
0.87 --undefined-- 54.219
0.88 --undefined-- 48.645
0.89 --undefined-- 41.646
0.90 --undefined-- 37.382
0.91 --undefined-- 47.253
0.92 --undefined-- 56.626
0.93 --undefined-- 60.895
0.94 --undefined-- 61.146
0.95 --undefined-- 58.883
0.96 --undefined-- 56.870
0.97 --undefined-- 58.455
0.98 --undefined-- 61.443
0.99 78.197 62.289
1.00 78.157 60.827
1.01 74.795 57.784
1.02 78.219 56.058
1.03 81.849 57.310
1.04 77.399 57.749
1.05 77.502 56.648
1.06 75.359 54.535
1.07 --undefined-- 51.832
1.08 --undefined-- 48.958
1.09 --undefined-- 48.961
1.10 76.059 51.808
1.11 76.250 54.867
1.12 76.014 57.511
1.13 75.640 59.372
1.14 75.405 60.223
1.15 74.933 59.667
1.16 --undefined-- 58.493
1.17 --undefined-- 56.725
1.18 --undefined-- 53.018
1.19 --undefined-- 49.333
1.20 --undefined-- 50.846
1.21 --undefined-- 53.553
1.22 --undefined-- 54.504
1.23 --undefined-- 54.832
1.24 --undefined-- 55.520
1.25 --undefined-- 55.245
1.26 --undefined-- 54.208
1.27 --undefined-- 53.057
1.28 --undefined-- 53.009
1.29 --undefined-- 54.844
1.30 --undefined-- 58.278
1.31 --undefined-- 61.232
1.32 --undefined-- 62.563
1.33 --undefined-- 62.994
1.34 --undefined-- 62.816
1.35 --undefined-- 62.188
1.36 --undefined-- 61.499
1.37 --undefined-- 60.613
1.38 --undefined-- 59.414
1.39 --undefined-- 58.091
1.40 --undefined-- 56.678
1.41 --undefined-- 54.770
1.42 --undefined-- 53.232
1.43 --undefined-- 53.783
1.44 --undefined-- 55.709
1.45 --undefined-- 57.326
1.46 --undefined-- 57.590
1.47 --undefined-- 58.189
1.48 --undefined-- 60.311
1.49 --undefined-- 61.395
1.50 84.406 61.822
1.51 89.287 62.479
1.52 90.004 62.459
1.53 --undefined-- 61.066
1.54 --undefined-- 58.386
1.55 --undefined-- 55.707
1.56 --undefined-- 54.016
1.57 --undefined-- 51.002
1.58 --undefined-- 45.598
1.59 --undefined-- 39.073
1.60 --undefined-- 34.630
1.61 --undefined-- 33.913
1.62 --undefined-- 33.509
1.63 --undefined-- 33.509
1.64 --undefined-- 35.177
1.65 --undefined-- 37.557
1.66 --undefined-- 39.641
1.67 --undefined-- 40.764
1.68 --undefined-- 41.290
1.69 --undefined-- 41.850
1.70 --undefined-- 42.416
1.71 --undefined-- 42.831
1.72 --undefined-- 42.978
1.73 --undefined-- 42.619
1.74 --undefined-- 42.892
1.75 --undefined-- 43.363
1.76 --undefined-- 42.728
1.77 --undefined-- 41.561
1.78 --undefined-- 42.391
1.79 --undefined-- 48.216
1.80 --undefined-- 52.277
1.81 --undefined-- 52.619
1.82 --undefined-- 49.506
1.83 --undefined-- 44.194
1.84 --undefined-- 41.239
1.85 --undefined-- 41.333
1.86 --undefined-- 40.981
1.87 --undefined-- 38.578
1.88 --undefined-- 35.566
1.89 --undefined-- 34.487
1.90 --undefined-- 34.247
1.91 --undefined-- 36.244
1.92 --undefined-- 45.137
1.93 --undefined-- 55.110
1.94 --undefined-- 62.060
1.95 101.647 67.443
1.96 --undefined-- 71.526
1.97 --undefined-- 73.648
1.98 --undefined-- 73.744
1.99 --undefined-- 71.989
2.00 --undefined-- 68.163
2.01 --undefined-- 61.734
2.02 --undefined-- 58.143
2.03 --undefined-- 63.589
2.04 102.785 68.015
2.05 98.377 70.274
2.06 96.639 70.922
2.07 93.975 70.713
2.08 91.367 69.576
2.09 91.403 66.901
2.10 --undefined-- 62.210
2.11 --undefined-- 54.974
2.12 --undefined-- 48.272
2.13 --undefined-- 53.095
2.14 --undefined-- 57.745
2.15 --undefined-- 60.311
2.16 --undefined-- 63.046
2.17 --undefined-- 67.995
2.18 --undefined-- 71.326
2.19 --undefined-- 72.649
2.20 --undefined-- 73.078
2.21 86.983 73.216
2.22 85.011 72.837
2.23 82.472 71.650
2.24 82.288 70.158
2.25 80.953 68.895
2.26 81.137 67.620
2.27 81.332 66.423
2.28 82.042 65.559
2.29 83.192 65.288
2.30 84.567 65.690
2.31 85.193 66.208
2.32 85.487 66.447
2.33 85.493 66.430
2.34 84.207 66.332
2.35 83.518 66.458
2.36 83.024 66.063
2.37 --undefined-- 63.927
2.38 --undefined-- 59.743
2.39 --undefined-- 55.420
2.40 --undefined-- 54.206
2.41 --undefined-- 53.891
2.42 --undefined-- 52.606
2.43 --undefined-- 50.979
2.44 --undefined-- 50.712
2.45 --undefined-- 52.932
2.46 77.984 57.369
2.47 87.392 61.388
2.48 86.295 64.257
2.49 85.346 66.169
2.50 84.821 67.178
2.51 84.994 67.477
2.52 85.899 67.423
2.53 87.569 67.419
2.54 89.870 67.762
2.55 93.002 68.468
2.56 96.804 69.237
2.57 99.128 69.570
2.58 104.218 69.006
2.59 106.476 67.312
2.60 111.491 65.270
2.61 116.433 64.303
2.62 118.091 64.223
2.63 113.846 64.695
2.64 113.592 65.545
2.65 112.190 66.493
2.66 106.890 66.884
2.67 101.416 66.465
2.68 97.902 65.432
2.69 96.583 64.106
2.70 94.506 62.540
2.71 90.885 60.031
2.72 --undefined-- 55.746
2.73 --undefined-- 49.108
2.74 --undefined-- 40.645
2.75 --undefined-- 46.433
2.76 --undefined-- 56.955
2.77 --undefined-- 62.796
2.78 --undefined-- 64.940
2.79 --undefined-- 64.612
2.80 --undefined-- 63.490
2.81 --undefined-- 63.607
2.82 --undefined-- 66.485
2.83 --undefined-- 69.602
2.84 120.481 71.723
2.85 119.160 73.103
2.86 118.525 73.524
2.87 117.513 72.615
2.88 115.092 70.805
2.89 113.722 68.755
2.90 112.869 65.860
2.91 111.925 62.300
2.92 111.634 59.779
2.93 111.507 58.703
2.94 110.849 59.721
2.95 110.642 62.090
2.96 108.777 64.155
2.97 108.565 65.524
2.98 102.248 66.276
2.99 97.489 66.286
3.00 92.589 66.293
3.01 90.356 66.817
3.02 90.380 67.070
3.03 91.508 67.139
3.04 93.214 66.724
3.05 93.182 65.445
3.06 92.273 63.550
3.07 --undefined-- 60.450
3.08 --undefined-- 55.309
3.09 --undefined-- 48.114
3.10 --undefined-- 42.008
3.11 --undefined-- 46.319
3.12 --undefined-- 53.536
3.13 --undefined-- 57.994
3.14 --undefined-- 58.665
3.15 --undefined-- 55.882
3.16 --undefined-- 57.030
3.17 --undefined-- 62.067
3.18 --undefined-- 64.556
3.19 86.678 64.517
3.20 83.970 62.526
3.21 80.090 59.023
3.22 79.945 54.573
3.23 80.580 52.094
3.24 80.325 53.960
3.25 86.130 58.588
3.26 88.818 63.015
3.27 85.285 65.722
3.28 82.945 66.999
3.29 83.082 67.584
3.30 80.412 67.446
3.31 77.459 66.647
3.32 78.028 66.083
3.33 78.282 65.662
3.34 78.392 65.028
3.35 78.018 64.627
3.36 76.848 64.464
3.37 76.172 64.062
3.38 76.108 63.285
3.39 76.542 62.332
3.40 76.820 61.395
3.41 76.876 60.635
3.42 76.958 59.422
3.43 75.445 56.871
3.44 --undefined-- 52.814
3.45 --undefined-- 48.760
3.46 --undefined-- 45.885
3.47 --undefined-- 43.385
3.48 --undefined-- 40.707
3.49 --undefined-- 37.392
3.50 --undefined-- 35.354
3.51 --undefined-- 37.385
3.52 --undefined-- 40.929
3.53 --undefined-- 44.098
3.54 --undefined-- 46.193
3.55 --undefined-- 47.197
3.56 --undefined-- 47.900
3.57 --undefined-- 49.014
3.58 --undefined-- 50.332
3.59 --undefined-- 51.546
3.60 --undefined-- 52.782
3.61 --undefined-- 53.585
3.62 --undefined-- 53.343
3.63 --undefined-- 53.074
3.64 --undefined-- 53.569
3.65 --undefined-- 54.280
3.66 --undefined-- 55.508
3.67 --undefined-- 56.177
3.68 --undefined-- 55.391
3.69 --undefined-- 53.552
3.70 --undefined-- 52.246
3.71 --undefined-- 51.911
3.72 --undefined-- 51.557
3.73 --undefined-- 50.841
3.74 --undefined-- 49.720
3.75 --undefined-- 48.251
3.76 --undefined-- 46.537
3.77 --undefined-- 44.704
3.78 --undefined-- 42.957
3.79 --undefined-- 40.938
3.80 --undefined-- 38.754
3.81 --undefined-- 36.591
3.82 --undefined-- 35.802
3.83 --undefined-- 45.278
3.84 --undefined-- 53.896
3.85 --undefined-- 58.751
3.86 --undefined-- 62.789
3.87 --undefined-- 66.391
3.88 98.041 68.223
3.89 96.463 68.559
3.90 93.907 68.112
3.91 94.346 67.129
3.92 94.578 65.851
3.93 94.286 64.769
3.94 94.128 63.850
3.95 94.153 62.257
3.96 --undefined-- 59.723
3.97 --undefined-- 58.712
3.98 --undefined-- 57.880
3.99 --undefined-- 55.898
4.00 --undefined-- 58.932
4.01 --undefined-- 62.072
4.02 108.800 63.612
4.03 108.527 64.246
4.04 111.483 64.116
4.05 110.312 63.012
4.06 108.938 60.734
4.07 105.294 57.873
4.08 103.687 56.617
4.09 105.410 59.403
4.10 107.585 63.109
4.11 101.911 65.442
4.12 99.500 66.868
4.13 94.108 67.296
4.14 91.185 66.350
4.15 91.128 64.821
4.16 91.118 63.380
4.17 90.643 61.578
4.18 89.446 58.303
4.19 --undefined-- 52.733
4.20 --undefined-- 44.403
4.21 --undefined-- 35.915
4.22 --undefined-- 33.005
4.23 --undefined-- 33.235
4.24 --undefined-- 35.433
4.25 --undefined-- 47.803
4.26 --undefined-- 58.407
4.27 --undefined-- 64.708
4.28 --undefined-- 68.648
4.29 --undefined-- 70.348
4.30 --undefined-- 69.129
4.31 --undefined-- 64.583
4.32 --undefined-- 57.036
4.33 --undefined-- 48.826
4.34 --undefined-- 42.227
4.35 --undefined-- 37.500
4.36 --undefined-- 36.111
4.37 --undefined-- 35.714
4.38 --undefined-- 35.776
4.39 --undefined-- 37.510
4.40 --undefined-- 47.879
4.41 --undefined-- 57.327
4.42 --undefined-- 64.682
4.43 --undefined-- 70.035
4.44 --undefined-- 72.937
4.45 --undefined-- 73.581
4.46 --undefined-- 72.216
4.47 --undefined-- 69.066
4.48 --undefined-- 63.533
4.49 94.276 55.472
4.50 101.185 52.672
4.51 106.804 54.040
4.52 111.855 55.147
4.53 112.331 55.682
4.54 113.429 56.630
4.55 113.570 60.218
4.56 --undefined-- 63.421
4.57 114.934 63.746
4.58 114.052 61.751
4.59 111.412 58.769
4.60 105.206 55.903
4.61 99.917 56.278
4.62 --undefined-- 60.154
4.63 --undefined-- 62.953
4.64 --undefined-- 63.810
4.65 --undefined-- 62.365
4.66 --undefined-- 58.035
4.67 --undefined-- 51.534
4.68 --undefined-- 48.697
4.69 --undefined-- 51.103
4.70 --undefined-- 58.273
4.71 --undefined-- 64.063
4.72 --undefined-- 66.595
4.73 --undefined-- 66.786
4.74 --undefined-- 65.509
4.75 --undefined-- 62.784
4.76 --undefined-- 58.311
4.77 --undefined-- 52.320
4.78 --undefined-- 47.835
4.79 --undefined-- 45.412
4.80 --undefined-- 42.800
4.81 --undefined-- 46.046
4.82 --undefined-- 54.107
4.83 --undefined-- 58.114
4.84 --undefined-- 58.224
4.85 --undefined-- 56.688
4.86 --undefined-- 57.320
4.87 --undefined-- 58.600
4.88 --undefined-- 59.122
4.89 --undefined-- 59.021
4.90 --undefined-- 59.121
4.91 --undefined-- 59.759
4.92 --undefined-- 60.065
4.93 --undefined-- 60.282
4.94 --undefined-- 61.039
4.95 --undefined-- 61.190
4.96 --undefined-- 59.825
4.97 --undefined-- 58.422
4.98 --undefined-- 58.998
4.99 --undefined-- 59.852
5.00 --undefined-- 59.548
5.01 --undefined-- 58.267
5.02 --undefined-- 58.228
5.03 --undefined-- 59.194
5.04 78.604 59.698
5.05 81.200 60.670
5.06 80.596 61.814
5.07 80.965 61.966
5.08 81.700 61.268
5.09 81.969 61.638
5.10 80.315 62.170
5.11 79.795 61.490
5.12 80.566 61.088
5.13 80.079 61.183
5.14 79.783 60.520
5.15 --undefined-- 58.302
5.16 --undefined-- 53.785
5.17 --undefined-- 47.681
5.18 --undefined-- 44.380
5.19 --undefined-- 44.691
5.20 --undefined-- 45.638
5.21 --undefined-- 48.390
5.22 --undefined-- 52.303
5.23 --undefined-- 54.181
5.24 80.764 54.011
5.25 80.628 53.645
5.26 80.950 54.578
5.27 81.398 56.916
5.28 81.706 60.037
5.29 82.023 62.789
5.30 81.919 64.267
5.31 81.527 65.282
5.32 82.596 65.854
5.33 82.936 66.030
5.34 83.489 66.672
5.35 83.839 66.325
5.36 84.652 64.331
5.37 87.858 62.007
5.38 92.829 60.533
5.39 92.406 59.917
5.40 93.758 59.168
5.41 --undefined-- 56.983
5.42 --undefined-- 52.174
5.43 --undefined-- 44.221
5.44 --undefined-- 38.257
5.45 --undefined-- 36.484
5.46 --undefined-- 36.238
5.47 --undefined-- 35.693
5.48 --undefined-- 34.355
5.49 --undefined-- 35.067
5.50 --undefined-- 36.121
5.51 --undefined-- 35.856
5.52 --undefined-- 35.937
5.53 --undefined-- 36.408
5.54 --undefined-- 36.789
5.55 --undefined-- 45.140
5.56 --undefined-- 54.120
5.57 --undefined-- 60.332
5.58 --undefined-- 63.783
5.59 --undefined-- 64.740
5.60 --undefined-- 66.818
5.61 --undefined-- 70.946
5.62 --undefined-- 72.937
5.63 --undefined-- 72.257
5.64 --undefined-- 69.078
5.65 --undefined-- 63.555
5.66 --undefined-- --undefined--
5.67 94.078 --undefined--
5.68 --undefined-- --undefined--
5.69 --undefined-- --undefined--
