Time Pitch Intensity
0.01 --undefined-- --undefined--
0.02 145.594 --undefined--
0.03 148.209 --undefined--
0.04 150.897 --undefined--
0.05 152.728 64.093
0.06 153.015 64.427
0.07 153.363 64.365
0.08 157.882 63.392
0.09 158.885 60.895
0.10 153.965 57.680
0.11 --undefined-- 58.564
0.12 --undefined-- 61.988
0.13 --undefined-- 65.134
0.14 --undefined-- 66.444
0.15 --undefined-- 65.409
0.16 --undefined-- 62.792
0.17 --undefined-- 60.351
0.18 --undefined-- 61.410
0.19 230.245 66.339
0.20 240.331 70.503
0.21 244.893 73.068
0.22 237.691 74.660
0.23 236.293 75.594
0.24 235.623 75.950
0.25 237.242 75.972
0.26 238.946 75.848
0.27 239.957 75.623
0.28 241.347 75.358
0.29 242.459 75.056
0.30 244.824 74.749
0.31 247.462 74.393
0.32 249.205 73.849
0.33 250.847 73.032
0.34 251.125 71.869
0.35 249.638 70.304
0.36 247.631 68.135
0.37 247.648 64.707
0.38 245.742 59.090
0.39 --undefined-- 51.256
0.40 --undefined-- 44.704
0.41 --undefined-- 42.248
0.42 --undefined-- 42.878
0.43 --undefined-- 47.355
0.44 --undefined-- 51.483
0.45 --undefined-- 54.762
0.46 --undefined-- 56.303
0.47 --undefined-- 58.722
0.48 199.836 65.045
0.49 188.595 69.456
0.50 173.623 71.048
0.51 163.627 70.414
0.52 155.830 68.479
0.53 152.396 66.253
0.54 151.501 64.121
0.55 151.374 61.766
0.56 166.149 58.568
0.57 162.926 53.973
0.58 --undefined-- 48.640
0.59 --undefined-- 49.989
0.60 --undefined-- 57.193
0.61 --undefined-- 63.931
0.62 171.142 68.172
0.63 169.509 70.191
0.64 162.021 70.546
0.65 156.326 70.313
0.66 153.747 70.352
0.67 154.390 70.544
0.68 157.238 70.563
0.69 156.976 69.977
0.70 154.389 68.141
0.71 154.218 64.529
0.72 154.135 59.378
0.73 157.482 55.097
0.74 156.846 52.829
0.75 --undefined-- 51.154
0.76 --undefined-- 50.754
0.77 --undefined-- 51.395
0.78 --undefined-- 53.557
0.79 --undefined-- 56.721
0.80 --undefined-- 59.526
0.81 --undefined-- 60.662
0.82 --undefined-- 61.132
0.83 --undefined-- 63.094
0.84 144.594 64.767
0.85 143.553 64.965
0.86 134.564 63.638
0.87 128.718 61.534
0.88 127.564 60.268
0.89 157.706 60.821
0.90 148.553 62.101
0.91 157.872 63.169
0.92 161.035 64.055
0.93 165.289 64.847
0.94 168.976 65.290
0.95 173.649 65.305
0.96 177.396 65.132
0.97 176.522 64.480
0.98 170.438 62.450
0.99 176.098 58.440
1.00 --undefined-- 54.870
1.01 --undefined-- 55.527
1.02 --undefined-- 55.953
1.03 --undefined-- 56.604
1.04 --undefined-- 58.926
1.05 --undefined-- 65.117
1.06 226.562 70.257
1.07 222.916 72.705
1.08 218.830 73.288
1.09 217.564 72.923
1.10 216.321 72.257
1.11 215.091 71.802
1.12 214.218 71.681
1.13 213.823 71.586
1.14 214.827 71.547
1.15 217.205 71.566
1.16 217.040 71.413
1.17 215.147 71.388
1.18 217.410 71.800
1.19 217.525 72.092
1.20 216.610 72.046
1.21 215.557 71.842
1.22 214.596 71.560
1.23 213.957 71.174
1.24 212.534 70.851
1.25 216.020 71.127
1.26 205.692 71.924
1.27 193.018 72.716
1.28 180.077 73.311
1.29 163.891 73.492
1.30 160.411 73.172
1.31 157.028 72.550
1.32 155.613 71.992
1.33 154.100 71.687
1.34 151.145 71.440
1.35 149.823 70.956
1.36 150.776 70.182
1.37 156.193 69.315
1.38 162.179 68.581
1.39 169.064 68.010
1.40 177.365 67.749
1.41 190.025 68.397
1.42 201.443 69.557
1.43 210.476 70.317
1.44 216.291 71.324
1.45 219.004 72.618
1.46 219.851 72.916
1.47 218.876 71.427
1.48 213.677 67.743
1.49 201.347 61.485
1.50 215.575 53.076
1.51 --undefined-- 46.544
1.52 --undefined-- 42.325
1.53 --undefined-- 41.205
1.54 --undefined-- 43.586
1.55 --undefined-- 49.848
1.56 --undefined-- 54.808
1.57 --undefined-- 60.733
1.58 252.190 67.228
1.59 235.686 71.466
1.60 230.684 73.409
1.61 226.527 73.838
1.62 224.310 73.580
1.63 222.817 73.369
1.64 223.794 73.391
1.65 226.621 73.311
1.66 229.139 73.018
1.67 232.427 72.793
1.68 235.084 72.639
1.69 234.619 72.021
1.70 233.245 71.388
1.71 234.306 71.456
1.72 232.636 71.659
1.73 230.654 71.702
1.74 228.624 71.613
1.75 225.836 71.511
1.76 222.163 71.576
1.77 217.620 71.848
1.78 214.073 72.371
1.79 197.670 73.048
1.80 190.680 73.223
1.81 180.819 72.360
1.82 171.117 70.439
1.83 162.521 67.613
1.84 157.287 64.187
1.85 153.243 60.510
1.86 155.423 57.399
1.87 --undefined-- 54.713
1.88 --undefined-- 51.313
1.89 --undefined-- 49.492
1.90 --undefined-- 52.500
1.91 --undefined-- 55.088
1.92 --undefined-- 54.616
1.93 --undefined-- 51.418
1.94 --undefined-- 47.722
1.95 --undefined-- 44.951
1.96 --undefined-- 42.948
1.97 --undefined-- 41.613
1.98 --undefined-- 40.863
1.99 --undefined-- 42.106
2.00 --undefined-- 44.790
2.01 --undefined-- 49.167
2.02 --undefined-- 57.293
2.03 273.124 63.725
2.04 253.860 66.958
2.05 250.378 68.081
2.06 249.759 68.601
2.07 251.010 69.435
2.08 252.692 70.715
2.09 251.604 71.889
2.10 248.547 72.038
2.11 242.606 70.983
2.12 235.491 70.043
2.13 238.187 70.378
2.14 238.731 71.049
2.15 232.238 71.216
2.16 225.385 71.014
2.17 216.062 71.349
2.18 --undefined-- 72.401
2.19 --undefined-- 72.782
2.20 --undefined-- 71.927
2.21 --undefined-- 70.341
2.22 --undefined-- 67.999
2.23 --undefined-- 64.312
2.24 --undefined-- 59.998
2.25 80.184 56.755
2.26 --undefined-- 54.071
2.27 --undefined-- 51.149
2.28 --undefined-- 47.691
2.29 --undefined-- 48.046
2.30 --undefined-- 51.728
2.31 --undefined-- 55.094
2.32 153.995 57.591
2.33 155.908 57.900
2.34 158.454 55.356
2.35 --undefined-- 49.897
2.36 --undefined-- 44.852
2.37 --undefined-- 46.282
2.38 --undefined-- 49.854
2.39 --undefined-- 56.330
2.40 --undefined-- 64.317
2.41 237.717 69.652
2.42 232.437 71.977
2.43 228.724 72.233
2.44 225.994 71.735
2.45 224.832 71.090
2.46 222.157 70.032
2.47 219.205 68.820
2.48 220.742 68.412
2.49 225.517 68.836
2.50 229.209 69.333
2.51 232.375 69.656
2.52 236.182 69.904
2.53 239.313 70.149
2.54 242.362 70.393
2.55 245.380 70.526
2.56 247.143 70.130
2.57 246.795 68.577
2.58 238.879 65.313
2.59 230.080 60.056
2.60 233.668 53.818
2.61 234.621 50.508
2.62 236.192 49.322
2.63 --undefined-- 48.581
2.64 --undefined-- 50.057
2.65 --undefined-- 57.084
2.66 283.459 65.847
2.67 274.237 71.447
2.68 268.211 74.136
2.69 263.197 75.007
2.70 260.069 75.219
2.71 259.475 75.335
2.72 259.223 74.997
2.73 258.212 73.470
2.74 258.050 70.938
2.75 260.737 69.440
2.76 261.353 69.155
2.77 261.543 68.803
2.78 262.843 67.744
2.79 259.682 65.105
2.80 250.202 60.010
2.81 --undefined-- 51.968
2.82 --undefined-- 42.067
2.83 --undefined-- 35.985
2.84 --undefined-- 36.017
2.85 --undefined-- 37.915
2.86 --undefined-- 40.466
2.87 --undefined-- 42.379
2.88 --undefined-- 43.709
2.89 --undefined-- 44.650
2.90 --undefined-- 45.069
2.91 --undefined-- 45.358
2.92 --undefined-- 45.655
2.93 --undefined-- 45.440
2.94 --undefined-- 44.888
2.95 --undefined-- 44.391
2.96 --undefined-- 44.691
2.97 --undefined-- 45.265
2.98 --undefined-- 44.971
2.99 --undefined-- 44.103
3.00 --undefined-- 43.038
3.01 --undefined-- 47.218
3.02 --undefined-- 54.361
3.03 --undefined-- 57.484
3.04 --undefined-- 56.364
3.05 --undefined-- 50.996
3.06 --undefined-- 41.448
3.07 --undefined-- 32.872
3.08 --undefined-- 31.601
3.09 --undefined-- 30.820
3.10 --undefined-- 41.648
3.11 --undefined-- 57.112
3.12 255.608 67.222
3.13 247.558 72.936
3.14 229.018 75.246
3.15 221.421 75.537
3.16 218.283 75.596
3.17 217.513 76.104
3.18 217.113 76.710
3.19 215.292 77.096
3.20 214.606 76.975
3.21 216.442 75.986
3.22 219.530 74.317
3.23 217.500 72.862
3.24 214.146 72.051
3.25 210.886 71.474
3.26 207.399 70.708
3.27 203.678 69.730
3.28 201.114 69.249
3.29 203.932 70.369
3.30 205.531 72.032
3.31 202.763 72.967
3.32 192.692 73.443
3.33 183.303 73.513
3.34 174.025 72.954
3.35 167.281 71.940
3.36 159.096 70.834
3.37 155.661 69.614
3.38 151.997 68.463
3.39 148.565 67.353
3.40 146.798 66.209
3.41 151.281 65.587
3.42 154.861 65.462
3.43 156.795 65.639
3.44 157.989 65.862
3.45 159.501 65.952
3.46 162.039 65.975
3.47 163.757 65.874
3.48 165.242 65.256
3.49 164.023 63.403
3.50 155.284 59.568
3.51 157.089 54.051
3.52 158.703 50.054
3.53 --undefined-- 48.198
3.54 --undefined-- 50.121
3.55 --undefined-- 55.805
3.56 --undefined-- 58.007
3.57 --undefined-- 56.238
3.58 --undefined-- 53.590
3.59 --undefined-- 54.061
3.60 --undefined-- 54.574
3.61 --undefined-- 54.760
3.62 --undefined-- 56.541
3.63 --undefined-- 63.504
3.64 230.926 69.218
3.65 232.882 72.425
3.66 232.219 73.976
3.67 230.758 74.640
3.68 229.211 74.824
3.69 227.286 74.643
3.70 225.323 74.352
3.71 224.594 74.183
3.72 224.331 74.077
3.73 224.859 74.044
3.74 225.475 74.085
3.75 226.361 74.162
3.76 227.079 74.232
3.77 227.454 74.239
3.78 226.463 74.001
3.79 224.675 73.239
3.80 223.066 71.847
3.81 220.835 69.898
3.82 217.691 67.664
3.83 213.708 66.194
3.84 215.162 67.023
3.85 215.297 69.345
3.86 211.321 71.308
3.87 203.002 72.946
3.88 197.349 74.324
3.89 192.805 74.529
3.90 186.673 73.613
3.91 182.442 72.564
3.92 180.541 72.013
3.93 180.226 71.872
3.94 179.543 71.640
3.95 178.440 71.230
3.96 177.917 71.088
3.97 177.614 71.418
3.98 178.180 71.896
3.99 179.861 71.885
4.00 184.782 71.355
4.01 188.951 70.955
4.02 191.675 70.631
4.03 193.359 69.889
4.04 188.590 67.915
4.05 181.124 63.657
4.06 --undefined-- 56.364
4.07 --undefined-- 48.033
4.08 --undefined-- 47.056
4.09 --undefined-- 46.902
4.10 --undefined-- 46.511
4.11 --undefined-- 48.284
4.12 --undefined-- 50.238
4.13 --undefined-- 52.059
4.14 --undefined-- 57.654
4.15 --undefined-- 65.124
4.16 158.986 69.526
4.17 156.314 71.215
4.18 155.918 71.832
4.19 154.356 72.811
4.20 152.520 73.803
4.21 299.361 73.853
4.22 293.997 72.901
4.23 288.393 71.316
4.24 281.987 69.425
4.25 273.893 67.550
4.26 270.067 66.064
4.27 241.239 65.589
4.28 256.164 66.762
4.29 261.055 69.508
4.30 247.675 72.307
4.31 236.040 74.227
4.32 219.112 75.154
4.33 204.875 75.678
4.34 192.011 76.044
4.35 181.710 75.830
4.36 174.840 74.685
4.37 170.774 72.920
4.38 168.253 71.404
4.39 167.185 70.252
4.40 168.151 69.292
4.41 169.121 68.385
4.42 168.285 67.040
4.43 163.813 64.785
4.44 162.923 61.692
4.45 160.678 57.441
4.46 --undefined-- 51.778
4.47 --undefined-- 46.851
4.48 --undefined-- 44.338
4.49 --undefined-- 42.712
4.50 --undefined-- 48.282
4.51 --undefined-- 55.244
4.52 --undefined-- 58.471
4.53 --undefined-- 61.243
4.54 --undefined-- 65.691
4.55 163.283 68.188
4.56 159.692 68.389
4.57 143.882 67.469
4.58 139.100 66.670
4.59 135.477 66.113
4.60 134.710 65.482
4.61 136.812 64.668
4.62 139.550 64.100
4.63 145.059 64.434
4.64 151.506 65.215
4.65 158.577 66.025
4.66 165.658 67.018
4.67 171.867 67.708
4.68 180.298 67.759
4.69 189.373 67.568
4.70 192.235 67.270
4.71 195.038 66.245
4.72 195.859 64.436
4.73 198.300 62.298
4.74 201.844 59.719
4.75 207.284 60.134
4.76 233.849 67.128
4.77 225.911 72.010
4.78 215.269 74.305
4.79 202.294 75.375
4.80 188.790 75.910
4.81 174.392 75.688
4.82 162.556 74.619
4.83 157.555 72.695
4.84 155.497 69.606
4.85 --undefined-- 64.762
4.86 --undefined-- 57.990
4.87 --undefined-- 50.182
4.88 --undefined-- 45.658
4.89 --undefined-- 43.477
4.90 --undefined-- 41.009
4.91 --undefined-- 39.088
4.92 --undefined-- 42.124
4.93 --undefined-- 46.446
4.94 --undefined-- 47.411
4.95 --undefined-- 45.125
4.96 --undefined-- 42.982
4.97 --undefined-- 43.264
4.98 --undefined-- 42.272
4.99 --undefined-- 41.479
5.00 --undefined-- 42.076
5.01 --undefined-- 42.567
5.02 --undefined-- 42.995
5.03 --undefined-- 43.372
5.04 --undefined-- 43.935
5.05 --undefined-- 44.776
5.06 --undefined-- 45.188
5.07 --undefined-- 44.594
5.08 --undefined-- 43.495
5.09 --undefined-- 42.385
5.10 --undefined-- 40.994
5.11 --undefined-- 39.680
5.12 --undefined-- 38.162
5.13 --undefined-- 36.153
5.14 --undefined-- 34.465
5.15 --undefined-- 35.167
5.16 --undefined-- 37.811
5.17 --undefined-- 43.800
5.18 --undefined-- 54.377
5.19 --undefined-- 61.287
5.20 --undefined-- 65.313
5.21 156.339 67.608
5.22 157.777 69.300
5.23 158.833 71.167
5.24 161.680 72.666
5.25 166.177 73.570
5.26 171.350 74.165
5.27 176.917 74.273
5.28 183.460 74.080
5.29 191.155 73.768
5.30 201.159 73.070
5.31 209.430 72.635
5.32 214.965 72.828
5.33 221.227 72.905
5.34 227.111 72.703
5.35 229.142 72.372
5.36 230.957 72.337
5.37 233.001 73.204
5.38 233.828 --undefined--
5.39 227.030 --undefined--
5.40 --undefined-- --undefined--
5.41 --undefined-- --undefined--
