Time Pitch Intensity
0.01 --undefined-- --undefined--
0.02 --undefined-- --undefined--
0.03 --undefined-- --undefined--
0.04 170.070 --undefined--
0.05 159.334 77.794
0.06 150.119 78.420
0.07 144.392 77.863
0.08 141.381 77.598
0.09 139.596 77.732
0.10 138.488 77.532
0.11 136.921 76.050
0.12 --undefined-- 72.175
0.13 --undefined-- 64.994
0.14 --undefined-- 55.390
0.15 --undefined-- 53.131
0.16 --undefined-- 53.355
0.17 --undefined-- 54.349
0.18 --undefined-- 63.890
0.19 --undefined-- 72.177
0.20 --undefined-- 76.475
0.21 --undefined-- 77.575
0.22 131.780 77.258
0.23 126.758 77.519
0.24 124.516 78.010
0.25 122.993 78.138
0.26 122.396 78.097
0.27 121.157 78.035
0.28 119.637 77.845
0.29 118.201 77.320
0.30 117.014 76.220
0.31 113.968 74.333
0.32 111.437 71.557
0.33 112.230 67.752
0.34 112.686 62.766
0.35 117.081 57.727
0.36 118.738 54.284
0.37 --undefined-- 52.064
0.38 --undefined-- 50.866
0.39 --undefined-- 50.656
0.40 --undefined-- 57.121
0.41 --undefined-- 65.887
0.42 134.540 71.447
0.43 118.851 74.468
0.44 119.578 76.015
0.45 118.489 76.433
0.46 115.277 75.684
0.47 112.100 74.514
0.48 126.281 75.791
0.49 133.137 78.242
0.50 132.349 79.205
0.51 134.385 79.058
0.52 138.431 78.439
0.53 140.465 77.135
0.54 141.812 74.707
0.55 144.151 71.330
0.56 156.668 70.336
0.57 158.544 73.862
0.58 154.832 76.940
0.59 147.744 78.232
0.60 135.756 78.402
0.61 130.242 78.546
0.62 126.052 78.777
0.63 122.552 78.542
0.64 120.419 77.566
0.65 121.176 75.941
0.66 120.913 74.111
0.67 122.066 73.193
0.68 123.185 73.558
0.69 124.451 74.234
0.70 127.306 74.907
0.71 130.244 75.481
0.72 131.784 75.897
0.73 132.704 76.134
0.74 133.063 76.073
0.75 133.278 75.547
0.76 133.038 74.263
0.77 133.769 71.743
0.78 134.975 67.623
0.79 133.279 62.974
0.80 148.282 61.599
0.81 140.251 62.350
0.82 140.152 62.625
0.83 --undefined-- 62.163
0.84 --undefined-- 66.991
0.85 --undefined-- 73.596
0.86 148.778 77.516
0.87 150.873 79.131
0.88 148.311 78.931
0.89 142.479 77.320
0.90 136.273 75.618
0.91 137.900 75.962
0.92 136.299 77.186
0.93 132.626 77.759
0.94 127.417 77.576
0.95 112.992 76.976
0.96 106.169 76.546
0.97 99.689 76.550
0.98 100.244 76.473
0.99 99.597 76.024
1.00 101.057 75.501
1.01 100.966 75.120
1.02 101.652 75.002
1.03 101.615 74.932
1.04 101.979 74.193
1.05 100.791 72.167
1.06 96.402 68.721
1.07 96.975 64.326
1.08 --undefined-- 64.795
1.09 --undefined-- 71.068
1.10 --undefined-- 75.366
1.11 113.308 77.424
1.12 109.648 77.930
1.13 109.362 77.708
1.14 110.752 77.176
1.15 111.966 75.975
1.16 109.713 73.416
1.17 110.437 68.828
1.18 109.723 61.622
1.19 --undefined-- 52.150
1.20 --undefined-- 50.870
1.21 --undefined-- 63.054
1.22 --undefined-- 71.341
1.23 --undefined-- 75.772
1.24 122.490 77.556
1.25 119.819 77.894
1.26 116.323 77.029
1.27 110.441 74.293
1.28 103.141 69.366
1.29 115.279 62.836
1.30 117.677 56.745
1.31 --undefined-- 56.543
1.32 --undefined-- 60.495
1.33 --undefined-- 65.751
1.34 --undefined-- 71.922
1.35 --undefined-- 75.745
1.36 --undefined-- 77.088
1.37 96.631 77.188
1.38 98.096 77.221
1.39 97.121 77.312
1.40 98.107 77.348
1.41 101.172 77.462
1.42 105.378 77.744
1.43 108.048 77.873
1.44 110.709 77.587
1.45 114.073 77.229
1.46 119.423 77.261
1.47 125.293 77.402
1.48 128.163 76.451
1.49 126.162 73.430
1.50 135.253 68.430
1.51 138.136 62.147
1.52 --undefined-- 58.120
1.53 --undefined-- 65.293
1.54 --undefined-- 73.551
1.55 --undefined-- 78.092
1.56 180.674 79.300
1.57 179.803 78.539
1.58 178.653 77.703
1.59 164.719 77.201
1.60 --undefined-- 75.510
1.61 --undefined-- 71.121
1.62 166.921 63.974
1.63 169.051 59.151
1.64 --undefined-- 59.177
1.65 --undefined-- 59.909
1.66 --undefined-- 58.009
1.67 --undefined-- 53.830
1.68 --undefined-- 52.624
1.69 --undefined-- 55.067
1.70 --undefined-- 56.669
1.71 --undefined-- 57.030
1.72 --undefined-- 56.388
1.73 --undefined-- 55.441
1.74 --undefined-- 55.162
1.75 --undefined-- 55.641
1.76 --undefined-- 56.168
1.77 --undefined-- 56.608
1.78 --undefined-- 57.043
1.79 --undefined-- 57.678
1.80 167.175 58.548
1.81 164.249 58.527
1.82 160.786 58.025
1.83 148.511 57.868
1.84 153.319 56.444
1.85 --undefined-- 53.549
1.86 --undefined-- 50.777
1.87 --undefined-- 48.350
1.88 --undefined-- 47.627
1.89 --undefined-- 49.795
1.90 --undefined-- 54.538
1.91 --undefined-- 63.910
1.92 203.926 70.445
1.93 206.439 73.953
1.94 213.181 75.443
1.95 217.397 75.791
1.96 217.123 75.565
1.97 211.740 75.171
1.98 205.810 74.629
1.99 199.742 73.749
2.00 196.359 73.886
2.01 210.684 76.451
2.02 207.593 78.307
2.03 192.675 78.372
2.04 185.650 77.950
2.05 177.024 77.761
2.06 166.438 77.559
2.07 160.780 77.305
2.08 155.311 77.002
2.09 150.011 77.022
2.10 148.780 77.334
2.11 148.215 77.463
2.12 147.757 77.529
2.13 148.021 77.847
2.14 148.974 78.305
2.15 148.280 78.372
2.16 146.473 77.339
2.17 144.267 74.433
2.18 139.085 69.052
2.19 --undefined-- 61.536
2.20 --undefined-- 57.511
2.21 --undefined-- 59.282
2.22 --undefined-- 60.164
2.23 --undefined-- 61.783
2.24 --undefined-- 69.459
2.25 176.921 75.690
2.26 169.469 78.712
2.27 163.041 79.306
2.28 156.327 78.628
2.29 145.352 77.920
2.30 144.451 77.823
2.31 145.553 78.004
2.32 148.827 78.189
2.33 152.540 78.334
2.34 159.244 78.429
2.35 163.318 78.147
2.36 167.666 77.097
2.37 171.200 75.713
2.38 178.114 74.914
2.39 184.395 75.626
2.40 200.056 77.441
2.41 203.230 78.675
2.42 203.800 79.069
2.43 202.789 79.087
2.44 200.374 78.881
2.45 196.883 78.476
2.46 195.141 77.936
2.47 192.740 77.350
2.48 187.420 76.874
2.49 176.764 76.231
2.50 171.262 74.666
2.51 169.672 71.434
2.52 173.782 66.045
2.53 --undefined-- 59.461
2.54 --undefined-- 56.183
2.55 --undefined-- 55.007
2.56 --undefined-- 53.680
2.57 --undefined-- 52.879
2.58 --undefined-- 53.928
2.59 --undefined-- 55.619
2.60 --undefined-- 55.719
2.61 --undefined-- 54.441
2.62 --undefined-- 60.113
2.63 --undefined-- 67.722
2.64 --undefined-- 72.316
2.65 139.161 74.736
2.66 136.677 75.887
2.67 133.609 76.301
2.68 131.533 76.269
2.69 129.952 75.763
2.70 128.706 74.350
2.71 123.617 71.552
2.72 127.536 67.496
2.73 140.063 63.281
2.74 139.099 59.967
2.75 --undefined-- 60.284
2.76 --undefined-- 65.745
2.77 --undefined-- 72.473
2.78 140.577 76.818
2.79 141.565 78.764
2.80 143.720 78.900
2.81 148.778 78.188
2.82 154.075 77.785
2.83 159.124 78.055
2.84 165.538 78.671
2.85 170.885 78.958
2.86 175.366 78.817
2.87 178.513 78.641
2.88 178.577 78.608
2.89 175.859 78.699
2.90 171.669 78.658
2.91 165.790 78.277
2.92 155.506 77.610
2.93 148.460 76.391
2.94 139.605 73.894
2.95 133.186 69.226
2.96 150.296 62.173
2.97 --undefined-- 55.571
2.98 --undefined-- 51.944
2.99 --undefined-- 50.331
3.00 --undefined-- 48.878
3.01 --undefined-- 54.044
3.02 --undefined-- 65.801
3.03 --undefined-- 73.723
3.04 177.460 77.688
3.05 173.600 78.753
3.06 173.351 78.490
3.07 174.689 78.311
3.08 175.480 78.370
3.09 175.143 78.358
3.10 173.623 78.097
3.11 170.807 77.286
3.12 164.302 75.204
3.13 157.894 71.553
3.14 163.646 67.039
3.15 167.124 62.234
3.16 166.805 57.785
3.17 169.937 54.896
3.18 --undefined-- 54.654
3.19 --undefined-- 58.668
3.20 --undefined-- 67.671
3.21 --undefined-- 74.488
3.22 155.762 77.632
3.23 144.756 78.057
3.24 136.679 77.585
3.25 132.482 77.566
3.26 128.291 77.753
3.27 125.888 77.899
3.28 124.218 78.051
3.29 122.970 78.513
3.30 122.245 79.206
3.31 120.680 79.670
3.32 119.087 79.595
3.33 116.991 78.965
3.34 114.550 78.107
3.35 112.562 77.183
3.36 111.040 75.805
3.37 110.423 73.806
3.38 110.759 71.333
3.39 115.534 68.085
3.40 116.429 63.395
3.41 114.503 57.237
3.42 --undefined-- 52.162
3.43 --undefined-- 50.692
3.44 --undefined-- 50.994
3.45 --undefined-- 52.411
3.46 --undefined-- 53.801
3.47 --undefined-- 54.065
3.48 --undefined-- 53.508
3.49 --undefined-- 54.331
3.50 --undefined-- 58.021
3.51 --undefined-- 60.659
3.52 --undefined-- 61.783
3.53 --undefined-- 61.504
3.54 --undefined-- 58.325
3.55 --undefined-- 51.911
3.56 --undefined-- 46.671
3.57 --undefined-- 45.865
3.58 --undefined-- 48.288
3.59 --undefined-- 59.801
3.60 --undefined-- 68.075
3.61 --undefined-- 72.715
3.62 --undefined-- 75.334
3.63 124.992 76.493
3.64 125.260 76.423
3.65 120.941 76.248
3.66 118.465 76.343
3.67 116.692 76.360
3.68 114.551 76.262
3.69 112.802 76.180
3.70 111.239 76.317
3.71 111.349 76.449
3.72 111.610 76.510
3.73 112.233 76.622
3.74 112.972 76.714
3.75 113.720 76.756
3.76 114.003 76.639
3.77 114.244 76.008
3.78 116.478 74.269
3.79 114.004 70.706
3.80 107.433 65.346
3.81 116.171 60.448
3.82 124.598 57.026
3.83 130.026 54.408
3.84 --undefined-- 53.121
3.85 --undefined-- 54.068
3.86 --undefined-- 63.685
3.87 --undefined-- 71.881
3.88 155.426 76.161
3.89 140.728 77.585
3.90 138.784 77.689
3.91 136.339 77.709
3.92 134.482 77.786
3.93 133.477 77.685
3.94 132.512 77.074
3.95 131.305 75.830
3.96 133.573 73.813
3.97 136.027 70.311
3.98 130.401 64.917
3.99 128.737 59.666
4.00 134.332 57.245
4.01 --undefined-- 55.554
4.02 --undefined-- 54.121
4.03 --undefined-- 54.441
4.04 --undefined-- 56.568
4.05 --undefined-- 64.818
4.06 --undefined-- 72.369
4.07 170.532 76.175
4.08 167.085 77.188
4.09 163.232 76.878
4.10 161.043 76.519
4.11 160.648 76.422
4.12 161.718 76.579
4.13 161.831 76.812
4.14 161.326 77.060
4.15 160.746 77.439
4.16 159.270 77.748
4.17 154.568 77.537
4.18 149.000 76.354
4.19 148.484 73.840
4.20 145.815 69.867
4.21 141.660 66.299
4.22 132.755 66.728
4.23 132.709 69.380
4.24 144.730 72.477
4.25 136.323 74.646
4.26 128.801 75.681
4.27 115.230 76.461
4.28 114.572 77.225
4.29 114.664 77.738
4.30 115.449 78.159
4.31 118.547 78.616
4.32 119.166 78.740
4.33 124.824 78.242
4.34 126.730 77.451
4.35 130.944 76.492
4.36 131.557 75.337
4.37 132.070 74.894
4.38 149.023 76.762
4.39 150.112 78.703
4.40 150.306 79.050
4.41 150.838 78.579
4.42 150.029 77.676
4.43 147.375 75.571
4.44 141.662 71.815
4.45 147.488 67.137
4.46 150.069 63.304
4.47 151.667 61.820
4.48 163.633 67.926
4.49 153.596 73.744
4.50 147.949 76.760
4.51 137.595 77.807
4.52 132.635 78.249
4.53 129.932 78.716
4.54 127.745 78.993
4.55 125.085 78.967
4.56 122.420 78.840
4.57 120.849 78.805
4.58 119.536 78.771
4.59 118.993 78.728
4.60 119.154 78.763
4.61 120.141 78.936
4.62 121.178 79.106
4.63 121.769 79.146
4.64 122.979 78.823
4.65 120.207 77.220
4.66 116.446 73.803
4.67 --undefined-- 70.139
4.68 --undefined-- 66.916
4.69 --undefined-- 62.260
4.70 --undefined-- 59.213
4.71 --undefined-- 62.003
4.72 108.112 66.773
4.73 125.418 71.384
4.74 115.465 74.570
4.75 117.941 75.828
4.76 118.458 76.016
4.77 112.741 76.033
4.78 111.739 76.097
4.79 110.628 76.152
4.80 109.970 76.167
4.81 109.849 76.192
4.82 110.067 76.006
4.83 109.826 75.473
4.84 108.662 75.008
4.85 108.552 74.698
4.86 108.364 74.384
4.87 108.820 74.159
4.88 114.425 74.021
4.89 117.119 73.492
4.90 116.402 71.867
4.91 110.853 69.117
4.92 114.685 66.536
4.93 128.049 65.075
4.94 130.039 64.270
4.95 130.728 62.757
4.96 --undefined-- 59.925
4.97 183.431 59.055
4.98 189.276 60.351
4.99 192.886 59.239
5.00 --undefined-- 55.090
5.01 --undefined-- 48.770
5.02 --undefined-- 43.153
5.03 --undefined-- 40.587
5.04 --undefined-- 39.410
5.05 --undefined-- 39.520
5.06 --undefined-- 40.950
5.07 --undefined-- 42.170
5.08 --undefined-- 42.184
5.09 --undefined-- 41.391
5.10 --undefined-- 40.828
5.11 --undefined-- 40.604
5.12 --undefined-- 40.697
5.13 --undefined-- 41.260
5.14 --undefined-- 41.655
5.15 --undefined-- 46.686
5.16 --undefined-- 58.256
5.17 196.628 66.212
5.18 179.312 71.027
5.19 175.108 --undefined--
5.20 174.481 --undefined--
5.21 --undefined-- --undefined--
5.22 --undefined-- --undefined--
