Time Pitch Intensity
0.01 --undefined-- --undefined--
0.02 102.840 --undefined--
0.03 100.616 --undefined--
0.04 98.446 --undefined--
0.05 98.737 65.367
0.06 99.364 65.148
0.07 99.611 64.747
0.08 98.618 64.160
0.09 99.603 64.531
0.10 103.393 66.502
0.11 --undefined-- 67.974
0.12 --undefined-- 67.666
0.13 --undefined-- 66.577
0.14 --undefined-- 65.482
0.15 --undefined-- 63.455
0.16 --undefined-- 62.367
0.17 --undefined-- 62.867
0.18 --undefined-- 62.807
0.19 --undefined-- 62.431
0.20 --undefined-- 61.873
0.21 --undefined-- 60.691
0.22 --undefined-- 59.899
0.23 --undefined-- 58.799
0.24 --undefined-- 56.760
0.25 --undefined-- 55.809
0.26 144.930 56.067
0.27 143.299 56.855
0.28 --undefined-- 58.253
0.29 --undefined-- 59.509
0.30 75.404 60.657
0.31 77.688 61.720
0.32 75.532 62.528
0.33 91.530 63.465
0.34 92.235 64.534
0.35 93.398 65.521
0.36 96.115 66.111
0.37 97.269 66.368
0.38 97.744 66.183
0.39 96.679 65.192
0.40 96.165 62.900
0.41 90.149 58.530
0.42 --undefined-- 51.820
0.43 --undefined-- 43.740
0.44 --undefined-- 41.180
0.45 --undefined-- 43.067
0.46 --undefined-- 44.632
0.47 --undefined-- 46.310
0.48 --undefined-- 48.468
0.49 --undefined-- 50.057
0.50 --undefined-- 50.425
0.51 --undefined-- 51.043
0.52 --undefined-- 52.082
0.53 --undefined-- 52.155
0.54 --undefined-- 51.377
0.55 --undefined-- 51.161
0.56 --undefined-- 51.435
0.57 --undefined-- 51.539
0.58 --undefined-- 51.858
0.59 --undefined-- 52.773
0.60 --undefined-- 53.430
0.61 --undefined-- 53.004
0.62 --undefined-- 51.956
0.63 --undefined-- 51.621
0.64 --undefined-- 51.714
0.65 --undefined-- 51.378
0.66 --undefined-- 50.985
0.67 --undefined-- 50.637
0.68 --undefined-- 50.229
0.69 --undefined-- 49.727
0.70 --undefined-- 47.961
0.71 --undefined-- 44.234
0.72 --undefined-- 39.458
0.73 --undefined-- 35.425
0.74 --undefined-- 37.253
0.75 --undefined-- 48.422
0.76 --undefined-- 58.214
0.77 --undefined-- 67.303
0.78 --undefined-- 73.829
0.79 148.739 77.490
0.80 149.019 78.931
0.81 151.319 78.852
0.82 152.685 77.271
0.83 151.759 73.626
0.84 178.704 69.165
0.85 181.399 67.367
0.86 186.597 66.932
0.87 196.854 67.819
0.88 196.435 69.492
0.89 188.267 70.413
0.90 179.006 70.831
0.91 173.286 70.758
0.92 165.049 69.372
0.93 152.077 67.415
0.94 145.732 66.855
0.95 141.162 67.124
0.96 137.721 67.287
0.97 136.034 67.559
0.98 136.517 67.829
0.99 137.657 68.016
1.00 140.010 68.354
1.01 142.839 69.005
1.02 143.993 69.793
1.03 142.439 70.131
1.04 140.983 69.463
1.05 141.537 67.948
1.06 137.600 65.701
1.07 137.860 62.270
1.08 137.840 59.156
1.09 178.609 63.759
1.10 177.289 69.720
1.11 175.369 73.194
1.12 173.734 74.365
1.13 171.506 73.847
1.14 170.768 72.647
1.15 167.975 71.504
1.16 165.427 70.420
1.17 164.101 69.390
1.18 162.278 68.306
1.19 159.674 67.322
1.20 156.773 66.934
1.21 152.751 66.952
1.22 148.457 66.750
1.23 146.896 66.039
1.24 146.026 65.310
1.25 142.930 65.940
1.26 142.277 68.457
1.27 143.787 71.261
1.28 142.607 72.769
1.29 138.670 72.427
1.30 130.021 70.539
1.31 120.172 68.106
1.32 122.412 66.436
1.33 123.882 65.880
1.34 123.773 65.481
1.35 123.068 64.564
1.36 124.678 63.449
1.37 129.525 63.044
1.38 134.815 63.387
1.39 139.837 64.279
1.40 144.173 67.236
1.41 156.433 71.871
1.42 158.065 74.620
1.43 155.461 74.643
1.44 147.445 73.064
1.45 146.213 71.851
1.46 145.623 71.277
1.47 145.309 70.716
1.48 145.534 70.047
1.49 146.048 69.636
1.50 146.800 69.710
1.51 145.755 69.847
1.52 144.647 69.380
1.53 141.020 68.240
1.54 141.529 67.469
1.55 139.505 67.388
1.56 135.785 67.200
1.57 132.341 66.744
1.58 125.649 66.359
1.59 119.881 66.342
1.60 116.494 66.631
1.61 115.160 66.733
1.62 113.531 66.615
1.63 114.430 66.699
1.64 115.200 66.929
1.65 116.446 67.253
1.66 118.551 67.632
1.67 120.076 67.602
1.68 119.146 66.845
1.69 122.556 66.485
1.70 128.269 67.445
1.71 130.987 68.486
1.72 133.526 69.000
1.73 132.033 68.886
1.74 131.632 68.579
1.75 132.005 68.490
1.76 131.681 68.520
1.77 131.395 68.637
1.78 131.241 68.924
1.79 129.998 69.350
1.80 128.328 69.612
1.81 125.567 68.957
1.82 121.085 66.927
1.83 116.967 64.231
1.84 117.622 62.679
1.85 118.300 63.251
1.86 118.569 65.417
1.87 118.246 67.566
1.88 115.284 68.361
1.89 110.263 67.791
1.90 107.366 66.740
1.91 104.059 65.862
1.92 103.358 65.443
1.93 99.519 65.525
1.94 97.594 66.017
1.95 99.338 66.361
1.96 106.281 66.320
1.97 106.854 66.223
1.98 106.934 66.132
1.99 107.830 65.990
2.00 107.534 65.861
2.01 108.575 65.877
2.02 109.496 66.092
2.03 109.852 66.275
2.04 109.848 66.089
2.05 110.063 66.124
2.06 114.729 66.878
2.07 116.012 67.556
2.08 117.733 68.002
2.09 120.656 68.553
2.10 127.369 69.363
2.11 126.024 69.959
2.12 125.840 70.005
2.13 126.430 69.806
2.14 126.601 69.678
2.15 126.643 69.533
2.16 125.092 69.103
2.17 123.478 68.567
2.18 122.991 68.208
2.19 122.589 68.027
2.20 122.746 68.047
2.21 123.566 68.223
2.22 123.345 68.306
2.23 122.774 67.853
2.24 118.924 66.420
2.25 124.485 63.666
2.26 122.624 59.044
2.27 --undefined-- 52.475
2.28 --undefined-- 47.297
2.29 --undefined-- 45.361
2.30 --undefined-- 51.382
2.31 --undefined-- 61.634
2.32 --undefined-- 67.635
2.33 127.400 70.129
2.34 128.050 70.441
2.35 126.155 69.879
2.36 124.989 69.222
2.37 124.460 68.913
2.38 124.161 69.016
2.39 123.559 69.103
2.40 122.400 68.806
2.41 120.906 68.220
2.42 121.728 68.054
2.43 124.415 68.416
2.44 124.267 68.604
2.45 122.136 68.434
2.46 118.607 68.006
2.47 114.306 67.361
2.48 111.433 66.842
2.49 105.415 66.819
2.50 101.352 66.677
2.51 97.645 65.917
2.52 94.869 64.953
2.53 92.146 64.353
2.54 91.880 64.312
2.55 93.986 64.544
2.56 94.683 64.445
2.57 92.504 63.844
2.58 93.781 63.571
2.59 98.801 64.031
2.60 101.221 64.655
2.61 104.463 65.471
2.62 109.632 66.610
2.63 112.547 67.443
2.64 111.465 67.664
2.65 111.526 67.748
2.66 111.443 67.897
2.67 111.891 67.950
2.68 111.555 67.881
2.69 111.898 67.808
2.70 111.980 67.760
2.71 111.917 67.617
2.72 111.935 67.195
2.73 109.590 65.973
2.74 107.470 63.744
2.75 108.692 61.158
2.76 114.189 58.769
2.77 119.913 56.097
2.78 --undefined-- 52.002
2.79 --undefined-- 47.759
2.80 --undefined-- 56.118
2.81 --undefined-- 65.005
2.82 144.068 70.402
2.83 137.329 72.682
2.84 129.599 72.655
2.85 126.722 71.652
2.86 126.697 70.818
2.87 126.872 70.324
2.88 126.925 69.913
2.89 127.625 69.499
2.90 128.268 69.116
2.91 128.936 68.818
2.92 129.603 68.647
2.93 130.212 68.573
2.94 129.755 68.504
2.95 128.778 68.406
2.96 127.840 68.284
2.97 126.618 68.085
2.98 125.764 67.820
2.99 125.312 67.481
3.00 125.327 67.072
3.01 125.537 66.682
3.02 126.027 66.484
3.03 126.813 66.526
3.04 127.352 66.630
3.05 128.369 66.606
3.06 129.205 66.248
3.07 129.017 65.179
3.08 126.625 63.299
3.09 140.777 61.129
3.10 164.130 58.900
3.11 149.338 57.094
3.12 141.866 55.762
3.13 171.346 55.276
3.14 168.001 56.026
3.15 156.671 55.273
3.16 --undefined-- 52.092
3.17 --undefined-- 46.819
3.18 --undefined-- 42.610
3.19 --undefined-- 46.514
3.20 --undefined-- 52.145
3.21 --undefined-- 63.200
3.22 --undefined-- 72.047
3.23 145.573 77.071
3.24 144.941 78.894
3.25 139.171 78.115
3.26 129.383 75.870
3.27 128.084 73.836
3.28 124.875 71.892
3.29 120.536 68.845
3.30 105.934 64.118
3.31 100.575 58.658
3.32 --undefined-- 53.297
3.33 --undefined-- 46.585
3.34 --undefined-- 38.952
3.35 --undefined-- 34.887
3.36 --undefined-- 38.559
3.37 --undefined-- 50.970
3.38 --undefined-- 59.961
3.39 --undefined-- 65.167
3.40 102.312 67.448
3.41 89.191 67.942
3.42 89.594 68.044
3.43 90.336 68.549
3.44 90.546 69.060
3.45 93.732 68.968
3.46 98.919 68.629
3.47 101.224 68.778
3.48 104.412 69.207
3.49 106.584 69.636
3.50 110.021 70.195
3.51 113.145 70.786
3.52 116.283 71.072
3.53 119.852 70.842
3.54 124.028 70.293
3.55 127.570 69.687
3.56 130.491 68.791
3.57 130.892 67.227
3.58 125.174 65.069
3.59 115.756 62.888
3.60 --undefined-- 60.425
3.61 --undefined-- 56.354
3.62 --undefined-- 51.943
3.63 --undefined-- 50.712
3.64 --undefined-- 48.248
3.65 --undefined-- 42.278
3.66 --undefined-- 36.218
3.67 --undefined-- 38.111
3.68 --undefined-- 43.124
3.69 --undefined-- 47.635
3.70 --undefined-- 51.466
3.71 --undefined-- 55.490
3.72 --undefined-- 59.472
3.73 136.054 62.442
3.74 145.524 64.553
3.75 139.314 67.989
3.76 124.501 71.691
3.77 119.186 73.750
3.78 116.049 74.113
3.79 116.211 73.764
3.80 123.869 73.833
3.81 131.986 74.235
3.82 140.032 74.458
3.83 146.471 73.981
3.84 150.647 72.645
3.85 162.226 71.376
3.86 166.952 70.569
3.87 170.273 70.131
3.88 170.930 70.162
3.89 169.816 70.296
3.90 172.517 70.404
3.91 152.039 69.910
3.92 146.791 68.377
3.93 130.560 66.593
3.94 120.692 65.345
3.95 119.713 64.638
3.96 119.795 64.703
3.97 121.296 65.427
3.98 123.283 66.235
3.99 125.482 66.748
4.00 126.657 66.648
4.01 113.882 65.828
4.02 120.941 64.413
4.03 120.780 62.337
4.04 119.628 59.662
4.05 118.586 56.280
4.06 --undefined-- 53.880
4.07 --undefined-- 59.798
4.08 --undefined-- 66.198
4.09 125.244 69.969
4.10 118.847 71.553
4.11 113.583 71.811
4.12 113.535 71.507
4.13 114.301 71.170
4.14 116.662 70.977
4.15 120.351 70.674
4.16 124.592 69.879
4.17 129.652 68.912
4.18 138.380 68.883
4.19 143.697 69.769
4.20 148.075 70.491
4.21 150.627 70.663
4.22 150.760 70.477
4.23 150.342 70.108
4.24 148.637 69.664
4.25 145.526 69.278
4.26 140.789 68.856
4.27 133.923 68.238
4.28 124.594 67.594
4.29 117.760 67.177
4.30 107.730 67.215
4.31 99.008 67.350
4.32 93.091 66.948
4.33 89.626 66.386
4.34 87.732 66.144
4.35 87.137 66.563
4.36 89.894 67.355
4.37 91.695 67.374
4.38 105.782 67.464
4.39 109.987 69.212
4.40 114.097 71.179
4.41 116.719 72.237
4.42 119.538 72.692
4.43 120.584 73.114
4.44 119.596 72.902
4.45 115.921 71.242
4.46 111.424 67.919
4.47 110.901 63.571
4.48 108.360 60.028
4.49 105.246 57.945
4.50 106.692 56.874
4.51 109.244 56.886
4.52 107.042 58.003
4.53 107.581 59.841
4.54 104.982 62.175
4.55 105.895 64.695
4.56 105.944 66.664
4.57 104.179 67.460
4.58 103.936 67.118
4.59 103.010 65.989
4.60 103.010 64.656
4.61 104.343 63.805
4.62 109.427 64.002
4.63 116.291 65.778
4.64 122.737 68.587
4.65 127.233 71.133
4.66 129.958 72.921
4.67 131.891 74.093
4.68 133.281 74.905
4.69 133.562 75.100
4.70 132.132 74.341
4.71 129.305 72.413
4.72 123.887 69.396
4.73 119.167 67.162
4.74 114.764 67.077
4.75 117.193 67.751
4.76 108.451 68.603
4.77 99.421 68.951
4.78 96.255 68.312
4.79 90.923 66.621
4.80 87.155 64.505
4.81 82.560 62.129
4.82 82.205 59.291
4.83 86.051 55.660
4.84 --undefined-- 51.553
4.85 --undefined-- 48.632
4.86 --undefined-- 49.147
4.87 --undefined-- 53.577
4.88 --undefined-- 58.442
4.89 94.309 61.465
4.90 89.811 62.904
4.91 92.929 63.878
4.92 96.241 64.816
4.93 99.534 65.728
4.94 103.946 66.456
4.95 107.231 66.972
4.96 110.515 67.436
4.97 112.246 67.957
4.98 114.010 68.573
4.99 115.373 69.062
5.00 116.951 69.275
5.01 117.926 69.311
5.02 118.711 69.272
5.03 118.528 69.283
5.04 118.335 --undefined--
5.05 116.905 --undefined--
5.06 --undefined-- --undefined--
5.07 --undefined-- --undefined--
