Time Pitch Intensity
0.01 --undefined-- --undefined--
0.02 150.964 --undefined--
0.03 149.158 --undefined--
0.04 146.929 --undefined--
0.05 144.951 68.638
0.06 142.766 68.804
0.07 140.589 69.106
0.08 139.365 69.200
0.09 137.279 68.887
0.10 136.592 68.381
0.11 135.905 68.055
0.12 134.686 68.093
0.13 131.031 68.310
0.14 130.686 68.401
0.15 128.891 68.284
0.16 125.404 68.028
0.17 121.161 67.865
0.18 119.623 67.421
0.19 115.863 66.076
0.20 107.379 64.032
0.21 101.215 62.381
0.22 96.561 61.314
0.23 89.113 60.295
0.24 --undefined-- 59.603
0.25 --undefined-- 58.907
0.26 --undefined-- 57.221
0.27 114.495 55.471
0.28 --undefined-- 53.988
0.29 --undefined-- 50.128
0.30 --undefined-- 42.941
0.31 --undefined-- 36.262
0.32 --undefined-- 34.365
0.33 --undefined-- 34.012
0.34 --undefined-- 34.256
0.35 --undefined-- 34.018
0.36 --undefined-- 33.651
0.37 --undefined-- 33.533
0.38 --undefined-- 32.163
0.39 --undefined-- 30.386
0.40 --undefined-- 30.494
0.41 --undefined-- 31.302
0.42 --undefined-- 31.281
0.43 --undefined-- 30.255
0.44 --undefined-- 28.501
0.45 --undefined-- 29.692
0.46 --undefined-- 34.012
0.47 --undefined-- 36.489
0.48 --undefined-- 36.573
0.49 --undefined-- 36.409
0.50 --undefined-- 36.529
0.51 --undefined-- 35.186
0.52 --undefined-- 35.293
0.53 --undefined-- 37.630
0.54 --undefined-- 38.089
0.55 --undefined-- 36.417
0.56 --undefined-- 33.586
0.57 --undefined-- 33.058
0.58 --undefined-- 34.822
0.59 --undefined-- 34.944
0.60 --undefined-- 33.838
0.61 --undefined-- 34.482
0.62 --undefined-- 35.091
0.63 --undefined-- 33.041
0.64 --undefined-- 30.977
0.65 --undefined-- 33.752
0.66 --undefined-- 35.818
0.67 --undefined-- 35.713
0.68 --undefined-- 36.270
0.69 --undefined-- 38.244
0.70 --undefined-- 38.054
0.71 --undefined-- 35.882
0.72 --undefined-- 35.583
0.73 --undefined-- 35.730
0.74 --undefined-- 34.029
0.75 --undefined-- 31.875
0.76 --undefined-- 31.544
0.77 --undefined-- 31.553
0.78 --undefined-- 31.435
0.79 --undefined-- 32.006
0.80 --undefined-- 32.935
0.81 --undefined-- 33.791
0.82 --undefined-- 32.777
0.83 --undefined-- 31.167
0.84 --undefined-- 33.827
0.85 --undefined-- 36.186
0.86 --undefined-- 35.702
0.87 --undefined-- 32.858
0.88 --undefined-- 30.276
0.89 --undefined-- 29.137
0.90 --undefined-- 29.192
0.91 --undefined-- 31.974
0.92 --undefined-- 33.269
0.93 --undefined-- 31.135
0.94 --undefined-- 26.330
0.95 --undefined-- 27.350
0.96 --undefined-- 31.847
0.97 --undefined-- 34.799
0.98 --undefined-- 36.182
0.99 --undefined-- 47.366
1.00 --undefined-- 58.147
1.01 202.122 64.374
1.02 193.037 67.751
1.03 188.952 69.791
1.04 184.685 71.379
1.05 182.367 72.539
1.06 182.143 73.086
1.07 181.546 73.077
1.08 181.876 72.735
1.09 180.124 72.801
1.10 183.460 73.317
1.11 182.991 73.569
1.12 182.612 73.525
1.13 180.963 73.200
1.14 178.085 72.480
1.15 174.391 71.144
1.16 168.659 68.625
1.17 156.167 64.272
1.18 --undefined-- 57.766
1.19 --undefined-- 51.152
1.20 --undefined-- 50.341
1.21 --undefined-- 51.043
1.22 --undefined-- 56.349
1.23 203.457 64.675
1.24 202.374 70.155
1.25 200.795 72.686
1.26 193.566 73.315
1.27 180.891 73.087
1.28 172.231 72.720
1.29 169.222 72.374
1.30 166.808 71.987
1.31 164.903 71.396
1.32 163.187 70.536
1.33 159.578 70.297
1.34 163.695 71.146
1.35 165.527 71.905
1.36 166.701 72.264
1.37 167.539 72.369
1.38 167.782 72.106
1.39 166.449 71.192
1.40 163.188 69.230
1.41 158.220 65.644
1.42 152.809 59.841
1.43 --undefined-- 52.976
1.44 --undefined-- 54.998
1.45 --undefined-- 63.286
1.46 189.762 69.096
1.47 186.611 71.938
1.48 184.339 72.937
1.49 183.663 73.130
1.50 186.182 72.805
1.51 191.652 72.229
1.52 197.600 71.681
1.53 203.583 71.245
1.54 210.517 70.933
1.55 217.530 70.095
1.56 216.734 67.618
1.57 213.490 62.730
1.58 230.938 55.516
1.59 219.983 47.540
1.60 --undefined-- 45.541
1.61 --undefined-- 56.266
1.62 --undefined-- 65.109
1.63 296.005 69.796
1.64 286.502 71.589
1.65 285.471 71.898
1.66 285.893 71.655
1.67 286.405 71.098
1.68 285.026 70.202
1.69 263.414 68.851
1.70 252.116 66.867
1.71 252.076 63.479
1.72 256.281 57.728
1.73 --undefined-- 49.842
1.74 --undefined-- 42.366
1.75 --undefined-- 37.181
1.76 --undefined-- 35.213
1.77 --undefined-- 34.363
1.78 --undefined-- 33.090
1.79 --undefined-- 33.460
1.80 --undefined-- 33.428
1.81 --undefined-- 30.751
1.82 --undefined-- 31.455
1.83 --undefined-- 39.590
1.84 --undefined-- 47.548
1.85 --undefined-- 52.428
1.86 --undefined-- 54.475
1.87 --undefined-- 54.877
1.88 --undefined-- 55.309
1.89 --undefined-- 58.793
1.90 181.221 62.619
1.91 183.143 65.683
1.92 184.656 68.084
1.93 179.201 69.547
1.94 164.641 70.206
1.95 158.682 70.459
1.96 156.538 70.451
1.97 153.742 70.048
1.98 151.566 69.169
1.99 148.832 67.970
2.00 145.443 67.267
2.01 146.900 67.716
2.02 150.413 68.659
2.03 153.879 69.435
2.04 155.733 69.964
2.05 157.502 70.383
2.06 161.421 70.618
2.07 164.902 70.450
2.08 168.163 69.693
2.09 169.407 68.611
2.10 177.999 68.985
2.11 183.713 70.915
2.12 185.309 72.127
2.13 189.331 71.925
2.14 189.170 70.649
2.15 184.567 68.717
2.16 173.997 66.092
2.17 173.386 62.133
2.18 --undefined-- 55.830
2.19 --undefined-- 46.553
2.20 --undefined-- 36.522
2.21 --undefined-- 32.254
2.22 --undefined-- 31.400
2.23 --undefined-- 32.275
2.24 --undefined-- 33.962
2.25 --undefined-- 35.599
2.26 --undefined-- 36.889
2.27 --undefined-- 45.635
2.28 --undefined-- 54.638
2.29 --undefined-- 59.964
2.30 --undefined-- 64.443
2.31 234.174 69.354
2.32 240.891 73.140
2.33 245.437 75.427
2.34 248.067 76.549
2.35 253.106 76.975
2.36 257.963 76.997
2.37 261.733 76.745
2.38 263.632 76.438
2.39 265.246 76.155
2.40 267.430 75.833
2.41 267.004 75.422
2.42 260.962 74.359
2.43 248.713 71.726
2.44 250.548 66.892
2.45 258.834 59.655
2.46 --undefined-- 50.944
2.47 --undefined-- 48.848
2.48 --undefined-- 54.739
2.49 --undefined-- 60.473
2.50 233.029 66.923
2.51 235.948 71.492
2.52 234.238 73.807
2.53 227.243 74.560
2.54 215.457 74.439
2.55 205.408 73.886
2.56 192.573 72.988
2.57 171.464 72.050
2.58 151.458 71.564
2.59 143.708 71.538
2.60 140.702 71.676
2.61 139.291 71.780
2.62 139.520 71.716
2.63 140.897 71.490
2.64 142.631 71.231
2.65 144.165 71.008
2.66 145.888 70.787
2.67 148.109 70.464
2.68 149.643 69.939
2.69 151.955 69.104
2.70 154.043 67.822
2.71 154.205 66.148
2.72 155.381 65.747
2.73 188.035 68.683
2.74 194.546 71.518
2.75 200.010 72.992
2.76 205.202 73.638
2.77 209.175 73.759
2.78 209.196 73.288
2.79 211.078 72.177
2.80 218.472 70.219
2.81 222.963 67.479
2.82 226.094 65.551
2.83 226.223 65.713
2.84 222.829 66.811
2.85 220.426 68.041
2.86 216.838 69.294
2.87 207.847 70.285
2.88 193.559 70.660
2.89 181.677 70.597
2.90 173.918 70.384
2.91 168.537 70.010
2.92 164.192 69.506
2.93 160.277 68.951
2.94 158.202 68.415
2.95 156.591 68.017
2.96 156.618 67.906
2.97 154.513 68.073
2.98 152.624 68.377
2.99 151.690 68.801
3.00 150.624 69.326
3.01 150.764 69.558
3.02 149.017 68.831
3.03 142.890 66.583
3.04 135.951 62.450
3.05 133.085 56.351
3.06 --undefined-- 48.867
3.07 --undefined-- 42.725
3.08 --undefined-- 41.260
3.09 --undefined-- 40.853
3.10 --undefined-- 41.703
3.11 --undefined-- 51.799
3.12 --undefined-- 60.674
3.13 184.355 65.441
3.14 169.109 67.167
3.15 160.830 67.154
3.16 156.501 66.400
3.17 150.330 65.052
3.18 141.408 63.242
3.19 127.199 61.916
3.20 --undefined-- 60.416
3.21 --undefined-- 57.576
3.22 --undefined-- 55.261
3.23 --undefined-- 54.398
3.24 --undefined-- 54.822
3.25 111.444 56.540
3.26 108.840 58.193
3.27 122.736 59.268
3.28 142.441 59.966
3.29 146.702 60.866
3.30 148.270 61.984
3.31 148.169 62.960
3.32 147.519 63.705
3.33 147.717 64.229
3.34 147.888 64.654
3.35 148.428 65.151
3.36 148.405 65.496
3.37 148.283 65.482
3.38 147.553 65.467
3.39 150.534 65.673
3.40 150.248 65.824
3.41 151.058 65.913
3.42 151.992 66.200
3.43 148.834 66.687
3.44 149.762 67.109
3.45 151.339 67.355
3.46 151.216 67.505
3.47 151.372 67.598
3.48 151.535 67.557
3.49 152.848 67.276
3.50 153.238 66.809
3.51 148.118 66.035
3.52 140.160 64.638
3.53 123.600 62.596
3.54 115.354 59.511
3.55 --undefined-- 54.130
3.56 --undefined-- 45.579
3.57 --undefined-- 38.440
3.58 --undefined-- 36.479
3.59 --undefined-- 33.357
3.60 --undefined-- 31.412
3.61 --undefined-- 32.765
3.62 --undefined-- 32.355
3.63 --undefined-- 30.475
3.64 --undefined-- 31.513
3.65 --undefined-- 34.128
3.66 --undefined-- 35.510
3.67 --undefined-- 35.911
3.68 --undefined-- 34.989
3.69 --undefined-- 32.610
3.70 --undefined-- 31.595
3.71 --undefined-- 31.745
3.72 --undefined-- 30.840
3.73 --undefined-- 31.218
3.74 --undefined-- 33.566
3.75 --undefined-- 35.403
3.76 --undefined-- 35.853
3.77 --undefined-- 35.869
3.78 --undefined-- 36.877
3.79 --undefined-- 37.493
3.80 --undefined-- 37.110
3.81 --undefined-- 37.567
3.82 --undefined-- 38.477
3.83 --undefined-- 37.639
3.84 --undefined-- 35.088
3.85 --undefined-- 33.380
3.86 --undefined-- 33.195
3.87 --undefined-- 33.564
3.88 --undefined-- 33.533
3.89 --undefined-- 33.105
3.90 --undefined-- 33.971
3.91 --undefined-- 34.212
3.92 --undefined-- 33.115
3.93 --undefined-- 33.575
3.94 --undefined-- 34.773
3.95 --undefined-- 34.783
3.96 --undefined-- 34.038
3.97 --undefined-- 32.992
3.98 --undefined-- 33.092
3.99 --undefined-- 33.046
4.00 --undefined-- 32.043
4.01 --undefined-- 30.921
4.02 --undefined-- 30.902
4.03 --undefined-- 33.581
4.04 --undefined-- 41.461
4.05 --undefined-- 47.339
4.06 --undefined-- 49.587
4.07 --undefined-- 50.114
4.08 --undefined-- 58.421
4.09 251.655 67.795
4.10 240.098 73.330
4.11 231.374 75.665
4.12 228.340 75.579
4.13 224.451 73.485
4.14 207.043 69.809
4.15 205.871 65.360
4.16 198.622 60.648
4.17 240.928 65.496
4.18 231.884 71.894
4.19 226.337 75.185
4.20 211.969 76.245
4.21 204.668 76.059
4.22 197.920 75.406
4.23 195.685 74.724
4.24 193.496 73.581
4.25 189.728 70.852
4.26 181.459 66.123
4.27 181.559 59.998
4.28 --undefined-- 52.528
4.29 --undefined-- 43.398
4.30 --undefined-- 42.768
4.31 --undefined-- 56.427
4.32 207.748 65.682
4.33 194.760 70.811
4.34 192.548 72.999
4.35 185.137 73.470
4.36 185.099 73.291
4.37 186.472 73.121
4.38 189.263 73.059
4.39 194.449 73.196
4.40 199.970 73.390
4.41 210.089 73.177
4.42 224.391 72.676
4.43 235.213 72.592
4.44 244.522 73.002
4.45 250.330 73.392
4.46 251.214 73.190
4.47 248.000 71.683
4.48 246.732 68.291
4.49 251.041 62.687
4.50 250.686 55.239
4.51 --undefined-- 48.281
4.52 --undefined-- 43.503
4.53 --undefined-- 41.473
4.54 --undefined-- 41.337
4.55 --undefined-- 41.111
4.56 --undefined-- 41.086
4.57 --undefined-- 42.134
4.58 --undefined-- 44.377
4.59 --undefined-- 48.197
4.60 227.234 56.492
4.61 227.087 64.301
4.62 206.584 68.882
4.63 192.442 70.991
4.64 185.877 71.865
4.65 181.131 72.213
4.66 177.912 72.264
4.67 174.776 72.146
4.68 171.415 71.973
4.69 169.092 71.780
4.70 167.504 71.587
4.71 166.949 71.451
4.72 166.497 71.428
4.73 165.052 71.491
4.74 164.934 71.608
4.75 165.226 71.787
4.76 165.397 71.963
4.77 165.608 72.083
4.78 165.612 72.145
4.79 166.280 72.207
4.80 167.398 72.230
4.81 169.032 72.147
4.82 169.941 71.986
4.83 170.121 71.565
4.84 169.634 70.427
4.85 --undefined-- 68.438
4.86 --undefined-- 65.955
4.87 --undefined-- 62.592
4.88 --undefined-- 57.447
4.89 --undefined-- 49.501
4.90 --undefined-- 40.362
4.91 --undefined-- 34.831
4.92 --undefined-- 33.374
4.93 --undefined-- 34.280
4.94 --undefined-- 42.837
4.95 --undefined-- 51.009
4.96 --undefined-- 55.270
4.97 --undefined-- 56.493
4.98 --undefined-- 55.964
4.99 --undefined-- 55.287
5.00 --undefined-- 56.009
5.01 --undefined-- 56.753
5.02 --undefined-- 57.016
5.03 --undefined-- 61.868
5.04 183.782 67.708
5.05 179.734 70.827
5.06 176.448 71.947
5.07 171.668 72.153
5.08 169.009 72.308
5.09 167.496 72.548
5.10 165.865 72.536
5.11 164.782 72.023
5.12 164.834 71.023
5.13 164.160 69.578
5.14 161.026 67.543
5.15 158.748 65.257
5.16 156.240 63.197
5.17 152.316 61.390
5.18 150.163 60.280
5.19 152.195 61.504
5.20 156.735 65.104
5.21 158.287 68.551
5.22 155.449 70.388
5.23 152.262 70.702
5.24 147.981 70.320
5.25 145.988 69.888
5.26 144.775 69.555
5.27 143.705 69.323
5.28 142.372 69.148
5.29 141.505 68.894
5.30 140.532 68.607
5.31 139.017 68.426
5.32 137.345 68.262
5.33 136.311 68.009
5.34 136.314 67.648
5.35 137.131 67.088
5.36 138.707 66.029
5.37 138.330 64.017
5.38 135.846 60.654
5.39 132.328 55.312
5.40 --undefined-- 48.697
5.41 --undefined-- 44.776
5.42 --undefined-- 44.702
5.43 --undefined-- 46.035
5.44 --undefined-- 47.314
5.45 --undefined-- 52.711
5.46 --undefined-- 61.748
5.47 180.849 67.218
5.48 173.985 69.211
5.49 162.982 68.809
5.50 156.949 67.452
5.51 152.905 66.233
5.52 150.600 65.737
5.53 152.430 66.129
5.54 157.635 67.109
5.55 163.400 68.248
5.56 168.459 69.201
5.57 175.388 69.975
5.58 181.519 70.997
5.59 192.415 72.467
5.60 202.073 73.745
5.61 207.967 74.436
5.62 213.504 74.694
5.63 216.794 74.241
5.64 217.375 72.395
5.65 219.417 68.486
5.66 228.052 61.941
5.67 --undefined-- 53.571
5.68 --undefined-- 49.695
5.69 --undefined-- 56.124
5.70 --undefined-- 63.815
5.71 185.655 67.998
5.72 179.833 69.407
5.73 170.813 69.474
5.74 165.174 69.526
5.75 161.974 69.955
5.76 160.705 70.506
5.77 160.355 70.996
5.78 160.965 71.400
5.79 163.006 71.728
5.80 165.542 71.953
5.81 168.847 71.987
5.82 173.260 71.960
5.83 179.153 72.151
5.84 184.697 72.377
5.85 190.926 72.356
5.86 196.743 72.157
5.87 202.645 72.148
5.88 206.449 72.228
5.89 177.313 71.407
5.90 174.856 68.961
5.91 211.470 64.939
5.92 212.976 59.308
5.93 --undefined-- 50.688
5.94 --undefined-- 41.160
5.95 --undefined-- 42.311
5.96 --undefined-- 50.432
5.97 --undefined-- 59.747
5.98 --undefined-- 66.219
5.99 203.542 69.840
6.00 200.272 71.515
6.01 193.900 72.127
6.02 189.204 72.307
6.03 183.756 72.300
6.04 179.446 71.879
6.05 176.414 70.887
6.06 175.387 69.508
6.07 176.958 68.186
6.08 180.513 67.184
6.09 183.521 66.321
6.10 188.092 65.090
6.11 190.604 62.412
6.12 --undefined-- 56.904
6.13 --undefined-- 47.887
6.14 --undefined-- 41.514
6.15 --undefined-- 43.268
6.16 --undefined-- 48.532
6.17 --undefined-- 58.843
6.18 283.145 66.809
6.19 259.130 71.063
6.20 254.961 72.795
6.21 255.610 73.263
6.22 257.046 73.319
6.23 257.269 73.189
6.24 256.542 72.940
6.25 255.295 72.592
6.26 253.575 72.163
6.27 251.381 71.624
6.28 245.984 70.476
6.29 238.407 67.911
6.30 234.397 63.283
6.31 --undefined-- 56.177
6.32 --undefined-- 47.382
6.33 --undefined-- 45.219
6.34 --undefined-- 50.052
6.35 --undefined-- 57.806
6.36 --undefined-- 65.022
6.37 206.925 68.958
6.38 195.915 70.203
6.39 186.570 70.345
6.40 179.534 70.444
6.41 173.275 70.445
6.42 169.109 70.341
6.43 165.957 70.259
6.44 163.515 70.263
6.45 161.293 70.307
6.46 160.268 --undefined--
6.47 160.787 --undefined--
6.48 --undefined-- --undefined--
6.49 --undefined-- --undefined--
