Time Pitch Intensity
0.01 --undefined-- --undefined--
0.02 144.225 --undefined--
0.03 142.235 --undefined--
0.04 143.472 --undefined--
0.05 145.677 70.331
0.06 145.811 70.532
0.07 146.128 70.694
0.08 145.719 70.793
0.09 144.779 70.868
0.10 143.511 70.874
0.11 141.798 70.646
0.12 141.710 69.724
0.13 137.831 67.394
0.14 133.559 63.387
0.15 146.849 58.633
0.16 --undefined-- 55.694
0.17 --undefined-- 56.030
0.18 --undefined-- 58.166
0.19 --undefined-- 61.504
0.20 166.763 65.602
0.21 170.368 68.497
0.22 165.770 69.772
0.23 153.523 69.996
0.24 150.308 69.947
0.25 149.961 70.005
0.26 151.357 70.160
0.27 154.823 70.359
0.28 157.802 70.699
0.29 161.267 71.009
0.30 168.382 71.152
0.31 182.558 71.558
0.32 194.113 72.385
0.33 204.181 73.277
0.34 211.877 73.793
0.35 213.984 73.254
0.36 213.722 71.163
0.37 --undefined-- 67.809
0.38 259.581 64.479
0.39 266.672 60.609
0.40 --undefined-- 54.543
0.41 --undefined-- 52.976
0.42 --undefined-- 56.679
0.43 --undefined-- 61.746
0.44 --undefined-- 66.074
0.45 --undefined-- 68.912
0.46 195.564 70.727
0.47 193.431 72.024
0.48 191.561 72.925
0.49 190.958 73.279
0.50 188.998 73.164
0.51 187.254 72.633
0.52 186.546 71.695
0.53 186.568 70.577
0.54 187.138 69.675
0.55 187.755 69.101
0.56 188.697 68.618
0.57 189.352 67.834
0.58 189.074 66.180
0.59 187.691 62.970
0.60 212.760 57.681
0.61 --undefined-- 50.081
0.62 --undefined-- 42.023
0.63 --undefined-- 42.296
0.64 --undefined-- 50.032
0.65 --undefined-- 61.057
0.66 --undefined-- 68.568
0.67 246.305 72.853
0.68 243.330 74.890
0.69 242.228 75.689
0.70 241.459 75.854
0.71 240.996 75.649
0.72 240.823 75.187
0.73 241.283 74.660
0.74 242.824 74.333
0.75 244.198 74.263
0.76 245.237 74.270
0.77 245.816 73.992
0.78 244.861 72.670
0.79 236.413 69.399
0.80 231.539 63.747
0.81 --undefined-- 55.945
0.82 --undefined-- 49.376
0.83 --undefined-- 58.146
0.84 --undefined-- 66.124
0.85 213.743 70.240
0.86 200.487 71.308
0.87 182.682 70.731
0.88 171.911 70.180
0.89 162.596 70.077
0.90 156.124 70.290
0.91 155.112 70.679
0.92 154.273 70.928
0.93 153.808 71.007
0.94 154.904 71.017
0.95 157.217 70.990
0.96 159.907 70.813
0.97 162.149 70.214
0.98 163.337 68.854
0.99 165.630 66.166
1.00 171.412 61.311
1.01 --undefined-- 53.953
1.02 --undefined-- 52.669
1.03 --undefined-- 56.579
1.04 --undefined-- 60.152
1.05 217.932 66.019
1.06 221.638 70.653
1.07 221.955 73.234
1.08 223.280 74.702
1.09 223.216 75.642
1.10 222.798 76.160
1.11 222.941 76.227
1.12 222.448 75.888
1.13 221.166 75.435
1.14 221.011 75.215
1.15 220.566 75.194
1.16 219.390 75.324
1.17 218.513 75.716
1.18 218.156 76.204
1.19 219.271 76.386
1.20 222.817 75.835
1.21 225.867 74.475
1.22 224.538 72.777
1.23 220.706 71.150
1.24 212.034 69.454
1.25 195.885 67.240
1.26 --undefined-- 64.177
1.27 --undefined-- 60.564
1.28 --undefined-- 56.443
1.29 --undefined-- 52.073
1.30 --undefined-- 46.945
1.31 --undefined-- 40.959
1.32 --undefined-- 38.555
1.33 --undefined-- 38.273
1.34 --undefined-- 37.085
1.35 --undefined-- 35.232
1.36 --undefined-- 34.044
1.37 --undefined-- 33.216
1.38 --undefined-- 32.348
1.39 --undefined-- 32.751
1.40 --undefined-- 33.430
1.41 --undefined-- 32.343
1.42 --undefined-- 31.907
1.43 --undefined-- 33.013
1.44 --undefined-- 33.966
1.45 --undefined-- 33.658
1.46 --undefined-- 31.902
1.47 --undefined-- 31.166
1.48 --undefined-- 32.559
1.49 --undefined-- 32.844
1.50 --undefined-- 31.746
1.51 --undefined-- 30.226
1.52 --undefined-- 30.171
1.53 --undefined-- 33.076
1.54 --undefined-- 35.522
1.55 --undefined-- 35.712
1.56 --undefined-- 34.415
1.57 --undefined-- 35.411
1.58 --undefined-- 37.076
1.59 --undefined-- 37.298
1.60 --undefined-- 36.100
1.61 --undefined-- 33.041
1.62 --undefined-- 31.860
1.63 --undefined-- 34.068
1.64 --undefined-- 35.349
1.65 --undefined-- 34.727
1.66 --undefined-- 34.023
1.67 --undefined-- 34.605
1.68 --undefined-- 36.277
1.69 --undefined-- 36.977
1.70 --undefined-- 35.377
1.71 --undefined-- 32.596
1.72 --undefined-- 32.289
1.73 --undefined-- 33.994
1.74 --undefined-- 35.090
1.75 --undefined-- 34.450
1.76 --undefined-- 32.411
1.77 --undefined-- 32.383
1.78 --undefined-- 34.002
1.79 --undefined-- 34.225
1.80 --undefined-- 33.828
1.81 --undefined-- 34.409
1.82 --undefined-- 35.508
1.83 --undefined-- 34.862
1.84 --undefined-- 31.747
1.85 --undefined-- 31.474
1.86 --undefined-- 34.901
1.87 --undefined-- 37.476
1.88 --undefined-- 43.351
1.89 --undefined-- 51.266
1.90 --undefined-- 61.673
1.91 244.465 69.024
1.92 223.651 72.951
1.93 219.378 74.507
1.94 216.848 74.954
1.95 215.552 75.074
1.96 213.231 75.334
1.97 212.515 76.299
1.98 215.975 77.385
1.99 215.814 77.823
2.00 215.318 77.720
2.01 214.858 77.238
2.02 213.322 76.107
2.03 210.063 73.798
2.04 206.160 69.742
2.05 215.686 63.673
2.06 226.229 60.643
2.07 223.269 67.087
2.08 214.935 71.478
2.09 203.079 72.853
2.10 193.277 72.598
2.11 189.704 72.376
2.12 185.892 72.520
2.13 183.422 72.649
2.14 181.623 72.717
2.15 180.398 72.764
2.16 179.769 72.770
2.17 179.533 72.746
2.18 180.057 72.621
2.19 181.375 72.357
2.20 182.560 71.985
2.21 180.045 71.354
2.22 170.055 69.950
2.23 165.224 67.400
2.24 --undefined-- 64.304
2.25 --undefined-- 61.562
2.26 --undefined-- 57.633
2.27 --undefined-- 51.759
2.28 --undefined-- 55.984
2.29 --undefined-- 61.494
2.30 --undefined-- 65.088
2.31 185.863 67.889
2.32 187.197 69.692
2.33 189.845 70.445
2.34 189.759 70.754
2.35 189.054 71.001
2.36 188.434 71.134
2.37 187.681 71.186
2.38 187.560 71.177
2.39 186.819 71.063
2.40 186.170 70.687
2.41 187.180 69.646
2.42 185.763 67.265
2.43 184.696 63.215
2.44 196.989 57.981
2.45 --undefined-- 51.190
2.46 --undefined-- 43.537
2.47 --undefined-- 48.175
2.48 --undefined-- 59.521
2.49 242.174 67.482
2.50 239.106 71.796
2.51 237.675 73.663
2.52 240.077 74.239
2.53 243.796 74.198
2.54 248.250 73.935
2.55 253.388 73.777
2.56 258.862 73.655
2.57 263.306 73.293
2.58 265.349 72.448
2.59 261.074 70.827
2.60 247.438 67.971
2.61 246.199 63.378
2.62 --undefined-- 56.541
2.63 --undefined-- 47.434
2.64 --undefined-- 42.313
2.65 --undefined-- 54.063
2.66 --undefined-- 64.654
2.67 238.808 70.914
2.68 224.792 73.668
2.69 209.703 73.903
2.70 197.799 72.999
2.71 188.428 72.098
2.72 181.823 71.612
2.73 179.052 71.493
2.74 178.345 71.533
2.75 178.973 71.667
2.76 179.217 71.761
2.77 179.233 71.760
2.78 179.083 71.530
2.79 177.608 70.614
2.80 175.706 68.342
2.81 174.628 63.957
2.82 --undefined-- 56.733
2.83 --undefined-- 47.096
2.84 --undefined-- 43.000
2.85 --undefined-- 43.726
2.86 --undefined-- 44.123
2.87 --undefined-- 43.488
2.88 --undefined-- 42.702
2.89 --undefined-- 46.681
2.90 --undefined-- 55.499
2.91 177.820 61.124
2.92 155.762 63.899
2.93 156.764 65.296
2.94 156.386 66.243
2.95 157.403 66.958
2.96 159.064 67.447
2.97 160.693 67.663
2.98 162.998 67.680
2.99 167.807 67.798
3.00 175.450 68.355
3.01 183.896 69.230
3.02 190.297 70.045
3.03 197.387 70.640
3.04 204.162 70.901
3.05 208.436 70.132
3.06 209.902 67.171
3.07 217.439 61.087
3.08 --undefined-- 51.778
3.09 --undefined-- 48.339
3.10 --undefined-- 53.070
3.11 --undefined-- 60.068
3.12 224.778 67.550
3.13 227.542 72.252
3.14 227.592 74.562
3.15 218.771 75.240
3.16 201.039 74.766
3.17 171.450 73.706
3.18 160.286 72.781
3.19 154.976 72.115
3.20 152.641 71.738
3.21 151.030 71.619
3.22 149.397 71.541
3.23 149.170 71.405
3.24 149.870 71.176
3.25 150.646 70.830
3.26 149.893 70.295
3.27 148.376 69.354
3.28 145.493 67.634
3.29 140.241 64.680
3.30 133.431 60.022
3.31 --undefined-- 53.090
3.32 --undefined-- 46.453
3.33 --undefined-- 52.754
3.34 --undefined-- 60.602
3.35 --undefined-- 65.673
3.36 155.714 67.881
3.37 153.086 68.196
3.38 150.519 67.738
3.39 150.647 67.197
3.40 153.166 67.091
3.41 159.574 67.684
3.42 166.956 68.385
3.43 175.541 68.773
3.44 183.724 68.972
3.45 191.794 69.612
3.46 206.080 70.634
3.47 210.971 71.290
3.48 217.789 71.335
3.49 222.856 70.394
3.50 225.177 67.981
3.51 224.468 63.601
3.52 216.400 57.329
3.53 --undefined-- 58.100
3.54 228.756 64.180
3.55 206.616 67.135
3.56 186.264 67.549
3.57 167.331 66.892
3.58 157.612 65.816
3.59 151.857 63.490
3.60 149.223 59.007
3.61 --undefined-- 51.771
3.62 --undefined-- 42.176
3.63 --undefined-- 38.336
3.64 --undefined-- 44.414
3.65 --undefined-- 55.519
3.66 --undefined-- 62.891
3.67 180.257 66.584
3.68 174.998 67.818
3.69 170.817 67.932
3.70 166.798 67.824
3.71 163.988 67.836
3.72 162.109 67.833
3.73 161.137 67.708
3.74 161.161 67.671
3.75 162.144 67.796
3.76 162.531 67.900
3.77 162.160 67.818
3.78 161.586 67.567
3.79 160.826 67.346
3.80 160.349 67.231
3.81 160.917 67.007
3.82 161.401 66.271
3.83 157.321 64.556
3.84 158.976 61.521
3.85 168.808 56.618
3.86 --undefined-- 48.950
3.87 --undefined-- 39.478
3.88 --undefined-- 38.864
3.89 --undefined-- 49.472
3.90 --undefined-- 59.215
3.91 --undefined-- 64.976
3.92 174.696 67.376
3.93 164.081 67.606
3.94 161.420 67.116
3.95 161.659 66.827
3.96 162.378 66.842
3.97 163.097 66.949
3.98 163.073 66.905
3.99 162.786 66.350
4.00 161.142 64.731
4.01 158.934 61.406
4.02 --undefined-- 55.402
4.03 --undefined-- 46.027
4.04 --undefined-- 37.639
4.05 --undefined-- 35.701
4.06 --undefined-- 36.237
4.07 --undefined-- 43.528
4.08 --undefined-- 54.279
4.09 171.473 61.347
4.10 160.405 64.840
4.11 143.401 66.066
4.12 136.391 66.689
4.13 133.385 67.437
4.14 132.728 68.130
4.15 133.098 68.389
4.16 133.145 68.122
4.17 132.430 67.277
4.18 131.760 65.517
4.19 129.984 62.588
4.20 128.410 58.578
4.21 --undefined-- 55.732
4.22 --undefined-- 59.661
4.23 165.843 64.760
4.24 163.195 67.491
4.25 163.129 68.655
4.26 163.162 69.127
4.27 162.079 69.117
4.28 163.983 68.282
4.29 167.571 66.018
4.30 162.514 61.984
4.31 162.252 56.257
4.32 --undefined-- 50.139
4.33 --undefined-- 45.215
4.34 --undefined-- 43.984
4.35 --undefined-- 44.347
4.36 --undefined-- 43.362
4.37 --undefined-- 44.239
4.38 --undefined-- 53.184
4.39 201.112 61.380
4.40 181.534 65.787
4.41 174.492 67.694
4.42 174.365 68.272
4.43 171.437 67.771
4.44 162.780 65.710
4.45 134.694 62.364
4.46 127.355 59.612
4.47 129.506 57.662
4.48 --undefined-- 55.603
4.49 --undefined-- 52.094
4.50 --undefined-- 50.108
4.51 --undefined-- 53.385
4.52 74.448 56.210
4.53 108.874 58.469
4.54 135.856 60.121
4.55 145.700 61.409
4.56 144.668 62.389
4.57 139.259 62.780
4.58 141.363 63.028
4.59 142.810 63.662
4.60 143.713 64.436
4.61 144.866 65.105
4.62 144.756 65.719
4.63 143.813 66.248
4.64 143.816 66.678
4.65 144.748 66.978
4.66 145.870 67.190
4.67 146.982 67.373
4.68 149.240 67.657
4.69 151.507 68.021
4.70 153.491 68.391
4.71 155.768 68.782
4.72 157.869 69.211
4.73 160.286 69.638
4.74 162.358 70.014
4.75 165.739 70.341
4.76 166.893 70.501
4.77 165.419 70.249
4.78 163.321 69.224
4.79 156.237 67.047
4.80 162.443 63.945
4.81 --undefined-- 60.193
4.82 --undefined-- 54.868
4.83 --undefined-- 46.325
4.84 --undefined-- 36.128
4.85 --undefined-- 34.068
4.86 --undefined-- 33.988
4.87 --undefined-- 36.183
4.88 --undefined-- 40.940
4.89 --undefined-- 43.007
4.90 --undefined-- 41.574
4.91 --undefined-- 38.754
4.92 --undefined-- 37.689
4.93 --undefined-- 37.249
4.94 --undefined-- 37.530
4.95 --undefined-- 37.817
4.96 --undefined-- 36.772
4.97 --undefined-- 34.858
4.98 --undefined-- 33.912
4.99 --undefined-- 34.519
5.00 --undefined-- 35.182
5.01 --undefined-- 35.070
5.02 --undefined-- 33.683
5.03 --undefined-- 31.731
5.04 --undefined-- 31.397
5.05 --undefined-- 33.291
5.06 --undefined-- 33.669
5.07 --undefined-- 31.927
5.08 --undefined-- 31.284
5.09 --undefined-- 32.028
5.10 --undefined-- 33.740
5.11 --undefined-- 35.310
5.12 --undefined-- 35.402
5.13 --undefined-- 34.353
5.14 --undefined-- 33.464
5.15 --undefined-- 35.147
5.16 --undefined-- 36.403
5.17 --undefined-- 37.133
5.18 --undefined-- 40.344
5.19 --undefined-- 42.522
5.20 --undefined-- 42.305
5.21 --undefined-- 40.177
5.22 --undefined-- 37.630
5.23 --undefined-- 38.649
5.24 --undefined-- 39.855
5.25 --undefined-- 39.015
5.26 --undefined-- 39.634
5.27 --undefined-- 41.986
5.28 --undefined-- 42.585
5.29 --undefined-- 41.001
5.30 --undefined-- 39.915
5.31 --undefined-- 45.494
5.32 --undefined-- 49.517
5.33 --undefined-- 51.206
5.34 --undefined-- 57.862
5.35 217.342 66.304
5.36 207.240 71.128
5.37 195.284 73.079
5.38 191.246 73.403
5.39 192.008 73.263
5.40 193.473 72.960
5.41 193.997 71.856
5.42 187.531 69.066
5.43 175.503 63.980
5.44 --undefined-- 58.629
5.45 --undefined-- 63.836
5.46 --undefined-- 69.645
5.47 192.645 72.150
5.48 187.607 72.682
5.49 183.966 72.916
5.50 180.610 73.153
5.51 177.875 73.183
5.52 176.086 73.183
5.53 174.641 73.083
5.54 173.680 72.838
5.55 173.245 72.618
5.56 173.017 72.496
5.57 173.034 72.517
5.58 173.240 72.692
5.59 173.557 72.903
5.60 173.117 72.853
5.61 171.298 72.347
5.62 168.126 71.361
5.63 165.709 69.695
5.64 161.235 67.454
5.65 160.775 66.200
5.66 170.934 66.984
5.67 175.244 68.751
5.68 184.066 70.361
5.69 180.504 71.106
5.70 175.791 71.145
5.71 173.626 70.902
5.72 172.882 70.564
5.73 173.015 70.292
5.74 172.867 70.216
5.75 172.137 70.288
5.76 170.453 70.342
5.77 168.549 70.254
5.78 169.981 69.957
5.79 172.905 69.654
5.80 176.820 69.757
5.81 177.439 70.099
5.82 173.427 70.439
5.83 170.437 70.881
5.84 169.131 71.538
5.85 168.894 72.432
5.86 171.018 73.189
5.87 175.613 73.469
5.88 181.876 73.272
5.89 189.101 72.673
5.90 198.556 72.164
5.91 205.021 71.959
5.92 212.135 71.858
5.93 219.868 71.991
5.94 228.064 72.153
5.95 233.231 72.393
5.96 232.754 72.692
5.97 232.172 72.918
5.98 230.322 73.139
5.99 226.874 73.322
6.00 222.287 73.354
6.01 216.380 73.221
6.02 209.098 72.888
6.03 201.331 72.267
6.04 195.044 71.569
6.05 190.550 71.201
6.06 185.674 --undefined--
6.07 182.549 --undefined--
6.08 --undefined-- --undefined--
6.09 --undefined-- --undefined--
