Time Pitch Intensity
0.01 --undefined-- --undefined--
0.02 136.101 --undefined--
0.03 134.233 --undefined--
0.04 133.999 --undefined--
0.05 134.600 76.105
0.06 136.299 76.306
0.07 132.916 76.416
0.08 125.675 75.988
0.09 121.597 75.272
0.10 118.061 74.814
0.11 115.883 74.661
0.12 112.669 74.787
0.13 111.141 75.116
0.14 109.772 75.337
0.15 108.624 75.362
0.16 109.551 75.402
0.17 108.866 75.426
0.18 107.695 75.250
0.19 106.831 75.023
0.20 106.344 74.981
0.21 104.150 74.925
0.22 102.612 74.791
0.23 102.786 74.952
0.24 104.493 75.384
0.25 105.412 75.706
0.26 105.985 76.004
0.27 106.431 76.245
0.28 106.760 76.332
0.29 107.446 76.291
0.30 109.084 76.172
0.31 110.984 75.790
0.32 112.747 74.870
0.33 113.847 73.441
0.34 112.585 71.763
0.35 112.196 70.020
0.36 112.407 68.205
0.37 115.795 66.167
0.38 128.300 66.492
0.39 155.627 71.371
0.40 150.180 74.845
0.41 146.567 75.874
0.42 142.338 75.406
0.43 140.322 74.839
0.44 139.358 74.558
0.45 139.091 74.317
0.46 139.157 74.112
0.47 139.339 74.015
0.48 138.756 74.133
0.49 138.085 74.493
0.50 137.919 74.664
0.51 136.902 73.853
0.52 134.642 71.393
0.53 130.527 67.226
0.54 --undefined-- 64.729
0.55 --undefined-- 66.073
0.56 --undefined-- 68.148
0.57 --undefined-- 72.525
0.58 --undefined-- 75.482
0.59 122.946 76.204
0.60 118.947 76.128
0.61 115.169 75.979
0.62 111.886 75.339
0.63 109.591 74.087
0.64 107.028 73.258
0.65 108.722 73.753
0.66 108.179 74.419
0.67 106.607 74.759
0.68 105.403 74.917
0.69 103.617 74.930
0.70 105.104 74.898
0.71 104.127 74.859
0.72 103.448 74.740
0.73 103.008 74.656
0.74 102.894 74.753
0.75 104.621 74.897
0.76 106.541 74.963
0.77 107.838 74.991
0.78 108.130 74.731
0.79 107.672 73.786
0.80 107.674 72.392
0.81 109.978 71.391
0.82 110.247 71.308
0.83 116.141 72.845
0.84 125.012 74.905
0.85 126.187 75.882
0.86 130.214 75.918
0.87 131.744 75.741
0.88 132.154 75.604
0.89 132.370 75.425
0.90 131.125 75.374
0.91 129.355 75.641
0.92 125.631 76.096
0.93 122.799 76.562
0.94 120.948 76.751
0.95 116.788 76.372
0.96 113.320 75.582
0.97 112.781 74.648
0.98 110.321 72.814
0.99 103.311 69.462
1.00 104.854 65.529
1.01 113.305 62.155
1.02 --undefined-- 62.685
1.03 --undefined-- 67.319
1.04 --undefined-- 69.581
1.05 --undefined-- 71.413
1.06 --undefined-- 74.243
1.07 105.190 75.543
1.08 102.886 75.464
1.09 98.823 75.226
1.10 98.129 75.175
1.11 97.550 75.150
1.12 97.506 75.155
1.13 98.287 75.142
1.14 100.020 74.846
1.15 102.443 74.140
1.16 106.783 73.282
1.17 111.333 72.706
1.18 113.666 72.538
1.19 114.091 72.320
1.20 114.587 71.342
1.21 113.896 69.231
1.22 119.886 65.930
1.23 112.186 61.401
1.24 113.428 60.463
1.25 --undefined-- 68.357
1.26 --undefined-- 73.589
1.27 --undefined-- 75.462
1.28 --undefined-- 75.408
1.29 113.204 75.097
1.30 110.847 75.019
1.31 109.162 75.035
1.32 108.313 74.986
1.33 107.218 74.703
1.34 105.842 73.754
1.35 99.063 71.325
1.36 94.532 66.973
1.37 93.763 62.162
1.38 129.053 59.432
1.39 132.594 57.978
1.40 134.728 57.165
1.41 134.879 59.233
1.42 139.437 64.975
1.43 154.750 71.109
1.44 124.013 74.851
1.45 123.571 76.263
1.46 121.172 76.464
1.47 119.004 76.477
1.48 117.404 76.466
1.49 116.654 76.315
1.50 116.881 76.071
1.51 117.338 75.788
1.52 118.036 75.475
1.53 117.204 75.179
1.54 115.859 75.010
1.55 115.852 74.906
1.56 116.013 74.893
1.57 116.225 75.093
1.58 115.660 75.513
1.59 115.116 76.109
1.60 113.730 76.544
1.61 112.392 76.667
1.62 109.612 76.581
1.63 107.089 76.262
1.64 104.893 75.780
1.65 103.581 75.284
1.66 103.136 74.799
1.67 102.901 74.470
1.68 102.106 74.371
1.69 101.998 74.310
1.70 100.622 74.065
1.71 98.745 73.736
1.72 97.925 73.813
1.73 97.910 74.360
1.74 98.279 74.892
1.75 97.493 75.176
1.76 97.406 75.322
1.77 97.091 75.370
1.78 95.975 75.318
1.79 94.903 75.081
1.80 94.108 74.737
1.81 95.274 74.727
1.82 93.762 74.915
1.83 90.600 74.079
1.84 --undefined-- 71.076
1.85 --undefined-- 66.374
1.86 --undefined-- 65.334
1.87 77.324 68.395
1.88 87.103 72.421
1.89 89.723 74.972
1.90 105.952 76.000
1.91 105.744 76.176
1.92 102.601 75.662
1.93 100.728 75.015
1.94 97.424 74.708
1.95 96.248 74.383
1.96 94.743 74.093
1.97 93.823 74.320
1.98 93.930 74.648
1.99 94.157 74.777
2.00 94.989 74.869
2.01 96.027 74.766
2.02 94.222 73.712
2.03 --undefined-- 70.698
2.04 --undefined-- 65.123
2.05 --undefined-- 57.957
2.06 --undefined-- 53.454
2.07 --undefined-- 57.588
2.08 --undefined-- 66.484
2.09 --undefined-- 72.832
2.10 --undefined-- 75.753
2.11 138.587 75.958
2.12 138.323 74.737
2.13 134.434 72.868
2.14 --undefined-- 69.618
2.15 --undefined-- 64.200
2.16 --undefined-- 59.837
2.17 --undefined-- 62.069
2.18 --undefined-- 65.350
2.19 108.445 68.792
2.20 121.354 71.583
2.21 122.919 73.427
2.22 117.711 74.617
2.23 102.983 75.557
2.24 100.658 76.077
2.25 90.920 76.137
2.26 88.537 76.098
2.27 90.761 76.152
2.28 88.846 75.932
2.29 87.646 75.250
2.30 89.487 74.344
2.31 89.186 73.497
2.32 87.418 72.789
2.33 87.129 72.157
2.34 89.297 71.845
2.35 90.746 71.146
2.36 88.291 68.930
2.37 83.140 64.905
2.38 --undefined-- 59.740
2.39 --undefined-- 54.036
2.40 --undefined-- 49.467
2.41 --undefined-- 52.496
2.42 --undefined-- 63.086
2.43 --undefined-- 70.730
2.44 --undefined-- 74.979
2.45 --undefined-- 76.411
2.46 106.043 76.163
2.47 101.426 75.915
2.48 100.108 76.008
2.49 99.091 76.023
2.50 98.769 76.133
2.51 98.422 76.395
2.52 97.231 76.581
2.53 96.709 76.413
2.54 97.063 75.794
2.55 97.763 75.164
2.56 97.696 74.937
2.57 97.913 74.901
2.58 97.636 74.825
2.59 97.616 74.683
2.60 97.174 74.546
2.61 97.478 74.635
2.62 98.742 75.124
2.63 99.572 75.859
2.64 100.619 76.449
2.65 101.186 76.558
2.66 100.499 76.268
2.67 99.791 75.998
2.68 99.405 75.977
2.69 99.035 76.097
2.70 98.228 76.177
2.71 98.125 76.146
2.72 97.851 76.088
2.73 98.903 76.158
2.74 100.842 76.359
2.75 97.891 76.301
2.76 93.994 75.739
2.77 91.141 75.173
2.78 87.830 74.847
2.79 89.668 74.792
2.80 90.170 75.267
2.81 89.454 75.567
2.82 92.230 75.640
2.83 93.381 75.716
2.84 96.422 75.847
2.85 100.009 76.199
2.86 102.275 76.493
2.87 103.320 76.436
2.88 105.490 76.274
2.89 109.001 76.264
2.90 110.581 76.266
2.91 112.312 76.007
2.92 112.590 75.254
2.93 108.613 73.807
2.94 108.850 72.494
2.95 114.365 73.751
2.96 121.027 76.074
2.97 125.377 77.151
2.98 125.094 77.113
2.99 124.671 76.820
3.00 124.836 76.511
3.01 125.161 76.055
3.02 128.406 75.838
3.03 132.175 75.891
3.04 133.419 75.618
3.05 129.988 74.709
3.06 128.987 73.155
3.07 214.798 70.878
3.08 212.886 66.971
3.09 --undefined-- 61.011
3.10 129.381 55.593
3.11 --undefined-- 51.755
3.12 --undefined-- 48.816
3.13 --undefined-- 50.014
3.14 --undefined-- 58.916
3.15 --undefined-- 66.671
3.16 143.648 71.374
3.17 150.968 73.901
3.18 155.519 74.840
3.19 159.553 74.650
3.20 160.812 74.202
3.21 166.280 74.349
3.22 172.971 74.747
3.23 177.245 74.949
3.24 179.376 75.078
3.25 180.058 75.318
3.26 179.227 75.581
3.27 174.892 75.805
3.28 169.612 76.002
3.29 163.837 76.034
3.30 158.112 75.876
3.31 151.912 75.487
3.32 146.226 74.941
3.33 141.827 74.479
3.34 139.191 74.503
3.35 137.700 74.655
3.36 136.813 74.671
3.37 137.716 74.955
3.38 139.718 75.497
3.39 144.069 76.204
3.40 152.863 77.111
3.41 154.175 77.656
3.42 155.951 77.605
3.43 158.366 77.415
3.44 160.936 77.265
3.45 162.255 76.977
3.46 161.555 76.496
3.47 159.482 75.701
3.48 159.219 74.259
3.49 149.164 71.857
3.50 152.783 68.043
3.51 163.785 62.625
3.52 162.639 57.431
3.53 161.040 54.824
3.54 160.167 54.238
3.55 --undefined-- 56.058
3.56 --undefined-- 58.429
3.57 --undefined-- 59.800
3.58 --undefined-- 60.027
3.59 --undefined-- 59.567
3.60 --undefined-- 59.111
3.61 --undefined-- 59.089
3.62 --undefined-- 59.165
3.63 --undefined-- 58.979
3.64 --undefined-- 58.180
3.65 --undefined-- 57.124
3.66 --undefined-- 56.719
3.67 --undefined-- 56.540
3.68 --undefined-- 55.907
3.69 --undefined-- 54.893
3.70 --undefined-- 54.330
3.71 --undefined-- 54.002
3.72 --undefined-- 53.301
3.73 --undefined-- 52.722
3.74 --undefined-- 51.957
3.75 --undefined-- 50.107
3.76 --undefined-- 48.222
3.77 --undefined-- 51.041
3.78 --undefined-- 55.649
3.79 --undefined-- 64.032
3.80 --undefined-- 70.879
3.81 --undefined-- 74.404
3.82 166.725 75.772
3.83 169.426 76.088
3.84 167.797 75.649
3.85 164.721 74.079
3.86 160.399 71.055
3.87 142.525 67.415
3.88 162.871 65.397
3.89 168.344 67.891
3.90 173.459 72.787
3.91 168.113 76.078
3.92 166.326 77.454
3.93 164.189 77.896
3.94 163.296 78.298
3.95 164.362 78.453
3.96 166.357 77.590
3.97 165.294 75.053
3.98 163.681 70.776
3.99 165.657 67.002
4.00 176.151 69.478
4.01 196.385 73.903
4.02 196.819 75.998
4.03 199.480 76.070
4.04 200.836 75.350
4.05 199.850 74.273
4.06 196.078 72.015
4.07 185.078 67.552
4.08 199.521 60.515
4.09 199.060 53.154
4.10 198.619 51.776
4.11 196.735 51.424
4.12 --undefined-- 50.633
4.13 --undefined-- 59.956
4.14 --undefined-- 69.207
4.15 --undefined-- 74.169
4.16 --undefined-- 76.187
4.17 160.453 76.853
4.18 154.227 77.033
4.19 149.933 76.880
4.20 148.616 76.588
4.21 147.618 76.144
4.22 146.759 75.923
4.23 145.618 76.114
4.24 145.117 76.418
4.25 143.924 76.579
4.26 142.858 76.330
4.27 141.747 74.857
4.28 140.306 71.206
4.29 141.555 64.991
4.30 147.085 58.170
4.31 145.881 61.631
4.32 --undefined-- 69.662
4.33 --undefined-- 73.259
4.34 --undefined-- 72.640
4.35 --undefined-- 68.984
4.36 --undefined-- 66.998
4.37 --undefined-- 68.716
4.38 163.084 73.361
4.39 157.897 76.496
4.40 151.673 77.172
4.41 142.502 76.704
4.42 138.529 76.367
4.43 138.635 76.313
4.44 138.175 76.233
4.45 137.227 75.888
4.46 137.249 75.271
4.47 136.809 74.705
4.48 136.373 74.390
4.49 135.705 74.352
4.50 135.789 74.210
4.51 135.618 73.185
4.52 129.977 71.360
4.53 133.522 69.630
4.54 130.465 68.944
4.55 135.226 70.473
4.56 139.015 72.979
4.57 144.815 74.688
4.58 136.132 75.208
4.59 125.553 74.875
4.60 125.388 74.477
4.61 129.094 74.376
4.62 133.871 74.485
4.63 143.747 75.014
4.64 149.934 75.523
4.65 157.235 75.342
4.66 162.020 74.588
4.67 163.622 73.360
4.68 165.142 71.311
4.69 175.415 69.624
4.70 180.605 72.075
4.71 172.713 75.525
4.72 166.337 77.126
4.73 158.145 77.387
4.74 150.081 77.293
4.75 143.352 77.283
4.76 138.161 77.079
4.77 134.373 76.398
4.78 129.987 75.726
4.79 126.749 75.409
4.80 123.530 75.131
4.81 121.644 74.328
4.82 119.533 72.112
4.83 118.647 67.770
4.84 121.793 61.828
4.85 122.172 57.519
4.86 122.058 55.836
4.87 --undefined-- 55.788
4.88 --undefined-- 57.773
4.89 --undefined-- 59.944
4.90 --undefined-- 61.797
4.91 --undefined-- 62.756
4.92 --undefined-- 62.520
4.93 --undefined-- --undefined--
4.94 --undefined-- --undefined--
4.95 --undefined-- --undefined--
4.96 --undefined-- --undefined--
