Time Pitch Intensity
0.01 --undefined-- --undefined--
0.02 112.875 --undefined--
0.03 113.582 --undefined--
0.04 114.588 --undefined--
0.05 116.567 66.520
0.06 120.352 66.810
0.07 126.199 66.937
0.08 128.055 66.514
0.09 133.928 64.833
0.10 124.819 60.984
0.11 --undefined-- 54.739
0.12 --undefined-- 48.412
0.13 --undefined-- 45.513
0.14 --undefined-- 44.962
0.15 --undefined-- 44.963
0.16 --undefined-- 44.435
0.17 --undefined-- 43.405
0.18 --undefined-- 42.658
0.19 --undefined-- 45.002
0.20 --undefined-- 55.983
0.21 220.466 64.423
0.22 192.402 69.284
0.23 182.853 71.715
0.24 180.833 72.712
0.25 181.644 72.929
0.26 183.125 72.852
0.27 184.360 72.763
0.28 184.988 72.640
0.29 185.445 72.372
0.30 186.101 71.867
0.31 186.394 71.100
0.32 185.515 70.151
0.33 183.525 69.213
0.34 181.884 68.561
0.35 180.687 68.307
0.36 180.428 68.237
0.37 180.999 68.202
0.38 181.272 68.193
0.39 180.689 68.142
0.40 180.412 67.941
0.41 179.842 67.443
0.42 178.453 66.802
0.43 87.612 66.489
0.44 86.602 65.970
0.45 --undefined-- 64.536
0.46 --undefined-- 63.484
0.47 --undefined-- 63.578
0.48 --undefined-- 62.975
0.49 --undefined-- 61.274
0.50 --undefined-- 64.153
0.51 --undefined-- 69.525
0.52 --undefined-- 73.276
0.53 89.728 75.694
0.54 88.127 77.472
0.55 173.326 78.693
0.56 172.265 79.284
0.57 170.706 79.493
0.58 169.814 79.595
0.59 169.300 79.644
0.60 169.605 79.556
0.61 170.831 79.167
0.62 172.593 78.243
0.63 173.762 76.892
0.64 173.741 75.704
0.65 173.207 75.087
0.66 172.598 74.866
0.67 171.902 74.724
0.68 170.959 74.441
0.69 169.729 73.851
0.70 167.401 72.828
0.71 163.864 71.354
0.72 165.981 69.462
0.73 169.513 66.991
0.74 166.440 63.583
0.75 --undefined-- 59.042
0.76 --undefined-- 54.559
0.77 --undefined-- 49.476
0.78 --undefined-- 42.015
0.79 --undefined-- 36.804
0.80 --undefined-- 37.896
0.81 --undefined-- 38.212
0.82 --undefined-- 37.633
0.83 --undefined-- 37.277
0.84 --undefined-- 36.138
0.85 --undefined-- 39.379
0.86 --undefined-- 50.452
0.87 174.136 57.846
0.88 155.700 61.884
0.89 143.782 63.865
0.90 136.992 64.815
0.91 135.528 65.321
0.92 132.751 65.651
0.93 130.287 65.773
0.94 129.223 65.767
0.95 131.626 66.407
0.96 139.830 68.990
0.97 149.888 72.876
0.98 161.742 76.463
0.99 168.002 79.158
1.00 167.914 80.751
1.01 166.600 81.419
1.02 168.134 81.729
1.03 169.885 81.667
1.04 170.855 80.929
1.05 171.543 79.647
1.06 172.553 78.456
1.07 172.766 77.504
1.08 171.330 75.571
1.09 169.803 71.124
1.10 --undefined-- 63.021
1.11 --undefined-- 51.298
1.12 --undefined-- 44.703
1.13 --undefined-- 46.345
1.14 --undefined-- 50.039
1.15 --undefined-- 51.303
1.16 --undefined-- 49.221
1.17 --undefined-- 44.376
1.18 --undefined-- 41.636
1.19 --undefined-- 42.976
1.20 --undefined-- 41.998
1.21 --undefined-- 39.681
1.22 --undefined-- 41.122
1.23 --undefined-- 43.031
1.24 --undefined-- 43.594
1.25 --undefined-- 43.210
1.26 --undefined-- 43.548
1.27 --undefined-- 45.366
1.28 --undefined-- 47.440
1.29 --undefined-- 49.962
1.30 --undefined-- 52.446
1.31 --undefined-- 54.094
1.32 --undefined-- 55.688
1.33 --undefined-- 57.392
1.34 --undefined-- 60.731
1.35 198.911 66.094
1.36 194.931 70.294
1.37 189.663 72.710
1.38 185.781 73.808
1.39 184.951 74.149
1.40 183.367 73.692
1.41 181.491 71.630
1.42 --undefined-- 66.986
1.43 --undefined-- 59.290
1.44 --undefined-- 49.749
1.45 --undefined-- 42.958
1.46 --undefined-- 40.855
1.47 --undefined-- 39.569
1.48 --undefined-- 38.414
1.49 --undefined-- 41.516
1.50 --undefined-- 48.497
1.51 --undefined-- 54.446
1.52 --undefined-- 58.341
1.53 --undefined-- 60.520
1.54 123.117 62.254
1.55 115.964 64.233
1.56 118.490 66.257
1.57 120.030 67.789
1.58 121.971 68.469
1.59 121.549 68.521
1.60 120.615 68.450
1.61 118.228 68.432
1.62 116.017 68.112
1.63 111.511 67.335
1.64 112.106 66.899
1.65 114.686 67.329
1.66 115.454 68.037
1.67 115.905 68.678
1.68 115.429 68.949
1.69 114.119 68.667
1.70 113.108 67.990
1.71 113.022 67.129
1.72 113.370 66.224
1.73 112.445 65.128
1.74 --undefined-- 63.873
1.75 --undefined-- 62.255
1.76 132.845 60.377
1.77 124.850 59.522
1.78 123.246 58.899
1.79 118.630 57.406
1.80 --undefined-- 54.098
1.81 --undefined-- 47.997
1.82 --undefined-- 39.628
1.83 --undefined-- 37.665
1.84 --undefined-- 45.947
1.85 --undefined-- 53.188
1.86 --undefined-- 57.509
1.87 --undefined-- 60.863
1.88 79.304 64.517
1.89 145.610 68.297
1.90 150.100 71.690
1.91 149.628 73.957
1.92 146.119 75.160
1.93 145.156 75.956
1.94 143.977 76.495
1.95 142.387 76.500
1.96 136.196 75.954
1.97 132.844 75.536
1.98 135.151 75.755
1.99 137.454 76.003
2.00 137.126 75.840
2.01 135.368 75.257
2.02 133.788 74.506
2.03 132.536 73.952
2.04 128.817 73.520
2.05 125.918 73.064
2.06 123.786 72.645
2.07 122.206 72.428
2.08 122.770 72.753
2.09 123.787 73.373
2.10 123.406 73.625
2.11 122.795 73.465
2.12 121.887 73.215
2.13 121.261 72.726
2.14 120.855 71.813
2.15 121.934 71.066
2.16 122.127 70.898
2.17 119.689 70.869
2.18 117.002 70.769
2.19 114.527 70.554
2.20 113.895 70.315
2.21 113.791 70.005
2.22 117.633 69.604
2.23 118.185 69.401
2.24 118.323 69.305
2.25 117.449 69.074
2.26 116.847 68.582
2.27 116.593 67.600
2.28 113.398 66.048
2.29 --undefined-- 64.004
2.30 --undefined-- 61.315
2.31 --undefined-- 58.406
2.32 --undefined-- 55.328
2.33 --undefined-- 51.810
2.34 --undefined-- 47.774
2.35 --undefined-- 42.743
2.36 --undefined-- 38.384
2.37 --undefined-- 37.831
2.38 --undefined-- 38.096
2.39 --undefined-- 37.635
2.40 --undefined-- 37.433
2.41 --undefined-- 38.356
2.42 --undefined-- 37.975
2.43 --undefined-- 36.651
2.44 --undefined-- 36.683
2.45 --undefined-- 37.197
2.46 --undefined-- 39.007
2.47 --undefined-- 40.094
2.48 --undefined-- 39.137
2.49 --undefined-- 37.526
2.50 --undefined-- 36.473
2.51 --undefined-- 36.181
2.52 --undefined-- 37.100
2.53 --undefined-- 37.944
2.54 --undefined-- 38.806
2.55 --undefined-- 39.381
2.56 --undefined-- 38.741
2.57 --undefined-- 38.148
2.58 --undefined-- 38.890
2.59 --undefined-- 39.577
2.60 --undefined-- 39.386
2.61 --undefined-- 38.923
2.62 --undefined-- 39.406
2.63 --undefined-- 40.394
2.64 --undefined-- 41.391
2.65 --undefined-- 41.725
2.66 --undefined-- 41.609
2.67 --undefined-- 41.555
2.68 --undefined-- 41.572
2.69 --undefined-- 42.149
2.70 --undefined-- 42.424
2.71 --undefined-- 41.782
2.72 --undefined-- 40.445
2.73 --undefined-- 39.587
2.74 --undefined-- 39.440
2.75 --undefined-- 39.022
2.76 --undefined-- 40.074
2.77 --undefined-- 42.391
2.78 --undefined-- 42.534
2.79 --undefined-- 39.951
2.80 --undefined-- 36.516
2.81 --undefined-- 34.518
2.82 --undefined-- 35.112
2.83 --undefined-- 50.656
2.84 --undefined-- 63.324
2.85 --undefined-- 71.197
2.86 --undefined-- 75.396
2.87 191.144 76.970
2.88 192.314 77.322
2.89 193.136 77.641
2.90 195.285 78.103
2.91 197.438 78.620
2.92 198.668 79.135
2.93 199.443 79.594
2.94 200.731 79.948
2.95 202.503 80.029
2.96 205.780 79.630
2.97 208.572 78.859
2.98 209.567 78.227
2.99 209.624 77.763
3.00 208.533 76.497
3.01 201.569 73.343
3.02 180.194 68.212
3.03 190.116 62.417
3.04 206.393 56.199
3.05 204.935 51.681
3.06 --undefined-- 52.261
3.07 --undefined-- 57.482
3.08 290.878 65.606
3.09 284.952 70.785
3.10 286.088 72.603
3.11 --undefined-- 72.433
3.12 280.161 73.135
3.13 257.207 74.712
3.14 238.652 76.397
3.15 231.659 78.082
3.16 226.880 78.839
3.17 221.789 78.307
3.18 216.092 76.439
3.19 212.703 72.769
3.20 196.974 66.868
3.21 205.335 61.869
3.22 --undefined-- 64.551
3.23 --undefined-- 67.052
3.24 --undefined-- 68.790
3.25 212.343 72.853
3.26 194.830 76.081
3.27 186.243 77.846
3.28 174.547 78.704
3.29 168.970 78.943
3.30 164.208 78.440
3.31 159.330 77.077
3.32 152.489 75.651
3.33 151.064 75.233
3.34 148.018 75.389
3.35 144.396 75.196
3.36 139.736 74.360
3.37 134.436 73.242
3.38 132.721 72.847
3.39 130.438 73.169
3.40 128.992 73.136
3.41 122.137 72.463
3.42 116.931 71.644
3.43 113.124 71.085
3.44 112.010 70.864
3.45 112.466 70.862
3.46 113.345 70.967
3.47 115.294 71.182
3.48 117.891 71.353
3.49 120.101 71.387
3.50 121.365 71.092
3.51 120.508 69.749
3.52 110.135 66.598
3.53 --undefined-- 61.317
3.54 --undefined-- 54.254
3.55 --undefined-- 49.389
3.56 --undefined-- 49.954
3.57 --undefined-- 56.478
3.58 --undefined-- 64.695
3.59 162.541 69.636
3.60 151.262 71.830
3.61 144.589 72.393
3.62 137.432 72.364
3.63 134.407 72.440
3.64 133.555 72.806
3.65 133.091 73.260
3.66 132.753 73.499
3.67 134.435 73.631
3.68 135.230 73.537
3.69 134.378 72.536
3.70 132.288 70.519
3.71 132.680 68.466
3.72 127.430 67.862
3.73 127.674 68.840
3.74 129.220 70.624
3.75 132.746 72.224
3.76 133.389 73.159
3.77 132.062 72.977
3.78 128.652 70.796
3.79 104.627 66.016
3.80 101.389 59.283
3.81 --undefined-- 52.695
3.82 --undefined-- 47.641
3.83 --undefined-- 47.277
3.84 --undefined-- 47.586
3.85 --undefined-- 44.991
3.86 --undefined-- 44.874
3.87 --undefined-- 53.292
3.88 --undefined-- 59.486
3.89 --undefined-- 64.346
3.90 166.864 68.884
3.91 151.430 71.968
3.92 146.764 73.310
3.93 141.574 73.559
3.94 138.284 73.734
3.95 136.549 74.233
3.96 136.074 74.773
3.97 136.708 75.165
3.98 138.171 75.374
3.99 139.210 75.413
4.00 139.710 75.247
4.01 139.987 74.893
4.02 141.063 74.552
4.03 142.308 74.383
4.04 143.058 74.325
4.05 144.225 74.250
4.06 144.641 73.900
4.07 144.780 73.043
4.08 143.755 72.114
4.09 143.119 71.629
4.10 142.928 71.029
4.11 143.335 69.625
4.12 139.347 67.394
4.13 74.909 64.725
4.14 76.366 61.768
4.15 75.679 58.115
4.16 --undefined-- 53.725
4.17 --undefined-- 49.694
4.18 --undefined-- 46.463
4.19 --undefined-- 41.514
4.20 --undefined-- 35.107
4.21 --undefined-- 32.254
4.22 --undefined-- 33.998
4.23 --undefined-- 35.757
4.24 --undefined-- 36.991
4.25 --undefined-- 38.165
4.26 --undefined-- 38.169
4.27 --undefined-- 36.769
4.28 --undefined-- 35.167
4.29 --undefined-- 36.649
4.30 --undefined-- 39.529
4.31 --undefined-- 39.999
4.32 --undefined-- 37.507
4.33 --undefined-- 35.205
4.34 --undefined-- 37.515
4.35 --undefined-- 39.546
4.36 --undefined-- 39.633
4.37 --undefined-- 38.414
4.38 --undefined-- 37.217
4.39 --undefined-- 37.331
4.40 --undefined-- 40.422
4.41 --undefined-- 44.370
4.42 --undefined-- 49.171
4.43 --undefined-- 58.186
4.44 217.563 66.529
4.45 202.461 71.648
4.46 194.147 73.698
4.47 178.088 73.549
4.48 173.149 72.993
4.49 166.257 73.279
4.50 161.211 73.995
4.51 162.260 74.412
4.52 167.153 74.448
4.53 169.654 74.314
4.54 170.915 74.137
4.55 171.141 74.026
4.56 170.675 74.002
4.57 169.657 73.968
4.58 168.229 73.718
4.59 167.702 73.272
4.60 167.845 72.883
4.61 167.381 72.516
4.62 167.111 72.177
4.63 165.363 72.023
4.64 162.818 72.049
4.65 160.113 72.383
4.66 159.412 73.464
4.67 157.052 75.335
4.68 151.844 76.979
4.69 148.268 77.873
4.70 144.686 78.224
4.71 142.453 78.247
4.72 140.193 77.949
4.73 137.600 77.249
4.74 132.672 76.233
4.75 130.512 75.481
4.76 137.091 75.331
4.77 137.922 75.291
4.78 137.341 74.844
4.79 135.942 73.610
4.80 132.812 71.221
4.81 126.199 67.334
4.82 115.304 61.845
4.83 --undefined-- 55.348
4.84 --undefined-- 55.307
4.85 --undefined-- 64.074
4.86 --undefined-- 70.314
4.87 155.686 73.806
4.88 151.963 75.440
4.89 149.583 76.184
4.90 148.371 76.399
4.91 147.990 76.118
4.92 148.665 75.740
4.93 149.134 75.790
4.94 149.286 76.046
4.95 151.016 75.824
4.96 154.073 75.436
4.97 153.611 75.671
4.98 152.785 76.002
4.99 152.092 75.369
5.00 147.947 72.944
5.01 140.358 68.473
5.02 132.793 62.775
5.03 --undefined-- 56.698
5.04 --undefined-- 49.562
5.05 --undefined-- 44.658
5.06 --undefined-- 47.702
5.07 --undefined-- 51.629
5.08 --undefined-- 54.842
5.09 --undefined-- 56.741
5.10 --undefined-- 57.513
5.11 --undefined-- 57.949
5.12 --undefined-- 58.047
5.13 --undefined-- 57.824
5.14 --undefined-- 57.191
5.15 --undefined-- 56.632
5.16 --undefined-- 61.563
5.17 145.567 66.635
5.18 133.653 68.685
5.19 119.364 68.679
5.20 112.346 68.406
5.21 112.709 68.406
5.22 109.387 68.279
5.23 108.495 68.266
5.24 110.432 68.717
5.25 112.332 69.322
5.26 115.017 69.779
5.27 117.681 69.906
5.28 118.832 69.406
5.29 117.924 67.835
5.30 114.099 64.571
5.31 105.345 59.210
5.32 --undefined-- 52.255
5.33 --undefined-- 47.150
5.34 --undefined-- 46.260
5.35 --undefined-- 47.037
5.36 --undefined-- 52.316
5.37 --undefined-- 60.919
5.38 155.453 66.634
5.39 139.890 69.590
5.40 135.366 70.819
5.41 133.593 71.438
5.42 132.574 72.123
5.43 132.843 72.758
5.44 136.144 73.372
5.45 141.153 74.371
5.46 145.904 75.494
5.47 149.283 75.755
5.48 153.847 74.623
5.49 159.536 72.682
5.50 173.042 71.459
5.51 178.942 71.574
5.52 182.427 72.334
5.53 182.680 72.981
5.54 180.203 73.271
5.55 175.178 73.178
5.56 169.193 73.028
5.57 163.746 73.712
5.58 155.815 74.811
5.59 150.645 74.914
5.60 141.484 73.792
5.61 135.657 72.281
5.62 132.102 71.441
5.63 127.939 70.967
5.64 128.023 70.326
5.65 125.320 69.890
5.66 122.777 69.933
5.67 121.899 70.303
5.68 124.657 71.072
5.69 130.184 72.173
5.70 131.262 73.043
5.71 130.477 73.609
5.72 130.028 73.860
5.73 125.179 73.610
5.74 124.237 73.281
5.75 123.560 73.008
5.76 121.933 72.320
5.77 119.911 70.577
5.78 116.420 67.365
5.79 114.272 63.072
5.80 110.404 58.436
5.81 --undefined-- 53.832
5.82 --undefined-- 54.935
5.83 --undefined-- 60.718
5.84 --undefined-- 65.889
5.85 141.080 69.058
5.86 132.850 --undefined--
5.87 127.594 --undefined--
5.88 --undefined-- --undefined--
5.89 --undefined-- --undefined--
