Time Pitch Intensity
0.01 --undefined-- --undefined--
0.02 113.616 --undefined--
0.03 112.513 --undefined--
0.04 108.857 --undefined--
0.05 101.805 63.991
0.06 --undefined-- 60.809
0.07 --undefined-- 60.205
0.08 --undefined-- 58.958
0.09 --undefined-- 54.359
0.10 --undefined-- 45.606
0.11 --undefined-- 38.792
0.12 --undefined-- 38.464
0.13 --undefined-- 38.725
0.14 --undefined-- 40.051
0.15 --undefined-- 41.343
0.16 --undefined-- 42.547
0.17 --undefined-- 42.375
0.18 --undefined-- 40.032
0.19 --undefined-- 38.107
0.20 --undefined-- 38.888
0.21 --undefined-- 39.814
0.22 --undefined-- 40.282
0.23 --undefined-- 42.183
0.24 --undefined-- 44.894
0.25 --undefined-- 46.336
0.26 --undefined-- 46.140
0.27 --undefined-- 44.177
0.28 --undefined-- 42.374
0.29 --undefined-- 43.958
0.30 --undefined-- 44.287
0.31 --undefined-- 42.060
0.32 --undefined-- 40.672
0.33 --undefined-- 41.559
0.34 --undefined-- 48.383
0.35 --undefined-- 60.891
0.36 --undefined-- 67.935
0.37 --undefined-- 70.274
0.38 --undefined-- 69.533
0.39 167.468 70.125
0.40 165.260 71.695
0.41 162.853 72.112
0.42 160.989 72.015
0.43 161.278 71.829
0.44 161.850 71.168
0.45 162.204 69.516
0.46 160.641 66.235
0.47 --undefined-- 60.461
0.48 --undefined-- 53.008
0.49 --undefined-- 49.701
0.50 --undefined-- 48.626
0.51 --undefined-- 46.711
0.52 --undefined-- 44.823
0.53 --undefined-- 52.607
0.54 --undefined-- 63.759
0.55 --undefined-- 70.600
0.56 170.520 73.806
0.57 166.169 74.288
0.58 159.066 73.298
0.59 152.545 72.569
0.60 150.654 72.559
0.61 148.912 72.213
0.62 146.767 71.265
0.63 144.968 69.698
0.64 142.581 67.945
0.65 140.427 67.813
0.66 136.153 69.392
0.67 133.736 71.404
0.68 128.828 72.646
0.69 125.180 72.731
0.70 120.734 71.987
0.71 118.967 71.365
0.72 115.520 71.044
0.73 114.312 70.118
0.74 108.932 68.217
0.75 108.840 66.003
0.76 110.798 63.651
0.77 104.669 59.867
0.78 99.732 55.037
0.79 --undefined-- 57.044
0.80 --undefined-- 63.104
0.81 116.937 66.831
0.82 116.541 67.901
0.83 115.993 66.390
0.84 118.611 62.595
0.85 120.938 59.550
0.86 123.003 60.053
0.87 126.184 61.312
0.88 129.783 63.627
0.89 134.197 66.656
0.90 137.268 68.370
0.91 139.297 68.666
0.92 141.058 68.308
0.93 143.260 67.999
0.94 144.817 67.744
0.95 145.441 66.626
0.96 144.554 64.184
0.97 142.819 61.367
0.98 141.210 59.314
0.99 138.398 56.902
1.00 --undefined-- 53.723
1.01 --undefined-- 52.955
1.02 --undefined-- 54.182
1.03 --undefined-- 55.503
1.04 --undefined-- 59.555
1.05 --undefined-- 64.640
1.06 --undefined-- 67.846
1.07 --undefined-- 69.006
1.08 --undefined-- 69.240
1.09 96.992 69.120
1.10 99.855 68.612
1.11 99.892 67.798
1.12 100.778 67.215
1.13 96.783 67.341
1.14 95.681 67.362
1.15 96.727 67.012
1.16 98.026 66.791
1.17 99.139 67.257
1.18 99.434 66.856
1.19 95.433 64.638
1.20 96.382 61.165
1.21 93.091 59.284
1.22 93.416 61.683
1.23 93.615 65.541
1.24 98.928 68.460
1.25 98.859 69.533
1.26 94.703 68.852
1.27 95.740 67.121
1.28 --undefined-- 65.586
1.29 --undefined-- 64.752
1.30 --undefined-- 63.753
1.31 --undefined-- 61.848
1.32 --undefined-- 61.548
1.33 298.868 64.684
1.34 293.055 66.260
1.35 291.210 64.325
1.36 --undefined-- 58.782
1.37 --undefined-- 52.011
1.38 --undefined-- 47.601
1.39 --undefined-- 44.062
1.40 --undefined-- 42.820
1.41 --undefined-- 42.231
1.42 --undefined-- 42.472
1.43 --undefined-- 43.670
1.44 --undefined-- 42.837
1.45 --undefined-- 40.146
1.46 --undefined-- 39.081
1.47 --undefined-- 40.767
1.48 --undefined-- 41.184
1.49 --undefined-- 39.424
1.50 --undefined-- 39.307
1.51 --undefined-- 40.878
1.52 --undefined-- 40.852
1.53 --undefined-- 45.639
1.54 --undefined-- 57.526
1.55 205.796 65.590
1.56 200.073 70.011
1.57 201.884 71.721
1.58 205.088 71.765
1.59 207.999 71.169
1.60 211.243 70.610
1.61 214.368 70.109
1.62 216.477 69.274
1.63 217.859 67.459
1.64 218.237 64.106
1.65 217.383 60.621
1.66 217.469 60.123
1.67 217.787 60.388
1.68 217.294 60.415
1.69 215.934 60.749
1.70 214.309 60.970
1.71 210.940 61.028
1.72 208.240 61.554
1.73 205.999 62.236
1.74 203.212 62.666
1.75 199.627 63.111
1.76 196.593 63.809
1.77 191.291 64.648
1.78 185.046 66.170
1.79 178.636 68.557
1.80 174.053 70.324
1.81 166.961 71.119
1.82 157.801 71.406
1.83 149.600 70.952
1.84 141.881 69.858
1.85 133.963 69.458
1.86 128.349 69.993
1.87 124.310 70.356
1.88 116.693 70.353
1.89 116.311 70.026
1.90 113.726 69.258
1.91 113.591 68.471
1.92 113.347 68.116
1.93 112.634 67.953
1.94 112.425 67.693
1.95 112.988 67.297
1.96 113.875 66.978
1.97 114.373 66.989
1.98 114.370 67.113
1.99 114.146 67.239
2.00 114.337 67.398
2.01 114.882 67.456
2.02 115.160 67.555
2.03 115.111 67.753
2.04 114.350 67.754
2.05 114.114 67.412
2.06 114.140 66.943
2.07 114.305 66.631
2.08 114.474 66.375
2.09 114.286 65.955
2.10 113.547 65.112
2.11 113.454 63.681
2.12 111.242 61.920
2.13 110.599 59.793
2.14 108.030 56.872
2.15 104.127 53.371
2.16 101.137 50.780
2.17 103.847 49.701
2.18 --undefined-- 48.538
2.19 --undefined-- 48.278
2.20 99.105 52.024
2.21 103.565 56.400
2.22 103.197 59.128
2.23 103.050 60.060
2.24 107.220 59.790
2.25 107.373 60.343
2.26 108.338 62.463
2.27 109.188 64.681
2.28 109.708 66.498
2.29 109.812 67.626
2.30 109.974 67.692
2.31 110.482 67.029
2.32 111.463 66.574
2.33 112.224 66.671
2.34 112.938 66.967
2.35 113.249 67.153
2.36 113.943 67.363
2.37 114.865 67.643
2.38 115.973 67.583
2.39 116.849 67.355
2.40 117.462 67.442
2.41 117.340 67.414
2.42 116.829 66.715
2.43 115.896 65.348
2.44 114.447 64.021
2.45 112.605 62.912
2.46 110.746 61.078
2.47 105.652 58.232
2.48 --undefined-- 55.646
2.49 --undefined-- 53.923
2.50 --undefined-- 51.599
2.51 --undefined-- 48.423
2.52 --undefined-- 44.873
2.53 --undefined-- 42.897
2.54 --undefined-- 42.829
2.55 --undefined-- 48.637
2.56 --undefined-- 58.798
2.57 --undefined-- 64.635
2.58 --undefined-- 66.935
2.59 --undefined-- 68.295
2.60 --undefined-- 69.986
2.61 116.176 70.421
2.62 114.589 70.279
2.63 109.542 70.965
2.64 110.335 71.895
2.65 111.538 72.100
2.66 113.915 71.560
2.67 115.482 70.968
2.68 117.832 70.786
2.69 120.155 70.688
2.70 123.151 70.380
2.71 128.103 70.151
2.72 133.863 70.565
2.73 140.408 71.239
2.74 144.007 71.520
2.75 148.199 71.345
2.76 152.459 70.988
2.77 156.742 70.289
2.78 160.725 69.461
2.79 163.859 68.960
2.80 167.131 68.670
2.81 171.038 68.620
2.82 173.583 68.356
2.83 174.015 67.107
2.84 172.505 65.460
2.85 169.293 64.827
2.86 166.990 65.076
2.87 164.243 65.398
2.88 160.515 65.566
2.89 156.633 65.679
2.90 152.834 65.768
2.91 147.353 66.021
2.92 144.488 66.414
2.93 137.447 67.040
2.94 135.421 68.575
2.95 129.659 70.059
2.96 122.735 70.262
2.97 117.074 69.411
2.98 111.696 68.592
2.99 109.683 68.323
3.00 107.653 68.579
3.01 103.740 68.667
3.02 103.209 68.401
3.03 101.840 67.724
3.04 101.897 66.687
3.05 102.257 66.118
3.06 104.068 66.163
3.07 104.739 66.651
3.08 106.948 67.136
3.09 107.906 67.194
3.10 109.207 67.187
3.11 109.816 66.989
3.12 112.888 66.862
3.13 114.735 67.239
3.14 116.116 67.526
3.15 118.170 67.721
3.16 119.149 67.983
3.17 120.405 68.227
3.18 120.882 68.247
3.19 120.537 67.925
3.20 119.933 67.438
3.21 118.710 66.791
3.22 118.029 65.924
3.23 117.067 65.011
3.24 114.693 64.238
3.25 112.126 63.041
3.26 112.225 60.391
3.27 94.619 57.048
3.28 118.703 55.488
3.29 116.490 54.103
3.30 120.496 52.214
3.31 117.535 50.602
3.32 --undefined-- 48.685
3.33 --undefined-- 47.282
3.34 --undefined-- 46.763
3.35 --undefined-- 46.311
3.36 --undefined-- 45.516
3.37 --undefined-- 47.142
3.38 --undefined-- 50.480
3.39 --undefined-- 53.704
3.40 100.765 56.172
3.41 101.388 57.881
3.42 104.260 59.274
3.43 102.428 60.278
3.44 105.171 60.555
3.45 103.077 60.096
3.46 102.237 59.316
3.47 100.103 58.792
3.48 99.112 58.736
3.49 98.381 58.409
3.50 96.071 58.205
3.51 95.682 58.379
3.52 93.134 58.413
3.53 93.445 58.554
3.54 92.839 58.893
3.55 92.419 58.945
3.56 92.698 58.411
3.57 93.102 57.826
3.58 94.346 58.007
3.59 94.394 58.457
3.60 94.174 58.456
3.61 93.908 58.581
3.62 93.756 58.864
3.63 93.998 58.801
3.64 93.385 58.814
3.65 92.766 59.004
3.66 92.311 58.717
3.67 92.514 58.158
3.68 92.549 57.897
3.69 92.602 57.673
3.70 92.599 57.275
3.71 92.727 56.864
3.72 92.835 56.713
3.73 93.221 56.777
3.74 93.458 56.939
3.75 93.793 56.910
3.76 94.209 56.832
3.77 93.660 56.914
3.78 93.483 56.984
3.79 93.723 57.448
3.80 93.622 58.122
3.81 93.596 58.191
3.82 94.170 58.053
3.83 --undefined-- 58.186
3.84 --undefined-- 57.365
3.85 --undefined-- 54.974
3.86 --undefined-- 53.026
3.87 --undefined-- 54.984
3.88 --undefined-- 58.239
3.89 --undefined-- 59.146
3.90 --undefined-- 57.619
3.91 --undefined-- 55.349
3.92 --undefined-- 53.143
3.93 --undefined-- 50.175
3.94 --undefined-- 46.623
3.95 --undefined-- 43.908
3.96 --undefined-- 43.928
3.97 --undefined-- 47.371
3.98 --undefined-- 51.777
3.99 --undefined-- 55.426
4.00 --undefined-- 58.158
4.01 --undefined-- 59.993
4.02 255.218 61.055
4.03 254.395 62.612
4.04 256.978 64.350
4.05 256.234 65.042
4.06 --undefined-- 65.682
4.07 113.792 67.581
4.08 114.009 69.175
4.09 107.541 69.919
4.10 107.735 70.274
4.11 107.225 69.650
4.12 105.713 67.768
4.13 106.198 65.499
4.14 117.821 63.590
4.15 123.354 61.965
4.16 129.793 60.867
4.17 131.425 60.832
4.18 138.210 60.983
4.19 143.858 60.475
4.20 145.892 59.337
4.21 147.648 58.093
4.22 144.499 56.714
4.23 138.224 55.050
4.24 --undefined-- 56.080
4.25 --undefined-- 58.991
4.26 --undefined-- 59.218
4.27 --undefined-- 57.185
4.28 --undefined-- 56.572
4.29 --undefined-- 58.402
4.30 --undefined-- 60.638
4.31 --undefined-- 61.955
4.32 --undefined-- 62.096
4.33 --undefined-- 61.710
4.34 --undefined-- 61.865
4.35 --undefined-- 63.491
4.36 --undefined-- 66.099
4.37 133.024 68.299
4.38 129.497 69.637
4.39 124.389 70.363
4.40 120.741 70.424
4.41 117.735 69.920
4.42 116.313 69.016
4.43 115.893 67.945
4.44 114.792 67.300
4.45 113.989 66.944
4.46 113.502 66.624
4.47 114.098 66.616
4.48 113.725 66.790
4.49 111.799 67.067
4.50 109.680 67.176
4.51 109.596 66.987
4.52 109.589 66.459
4.53 109.037 65.712
4.54 109.048 64.852
4.55 108.558 63.371
4.56 108.663 60.542
4.57 100.645 55.982
4.58 --undefined-- 50.149
4.59 --undefined-- 45.529
4.60 --undefined-- 42.646
4.61 --undefined-- 41.180
4.62 --undefined-- 42.091
4.63 --undefined-- 43.266
4.64 --undefined-- 44.008
4.65 --undefined-- 45.751
4.66 --undefined-- 49.556
4.67 --undefined-- 54.334
4.68 --undefined-- 57.618
4.69 --undefined-- 58.841
4.70 --undefined-- 61.567
4.71 --undefined-- 66.258
4.72 --undefined-- 69.374
4.73 --undefined-- 70.514
4.74 --undefined-- 69.725
4.75 --undefined-- 68.179
4.76 --undefined-- 67.830
4.77 --undefined-- 67.678
4.78 --undefined-- 67.845
4.79 --undefined-- 67.539
4.80 --undefined-- 67.267
4.81 87.900 67.746
4.82 88.801 68.098
4.83 87.692 68.312
4.84 97.647 67.570
4.85 96.860 66.873
4.86 98.042 66.435
4.87 103.027 65.943
4.88 105.301 65.028
4.89 108.019 63.701
4.90 111.592 63.422
4.91 115.431 64.040
4.92 119.683 64.609
4.93 121.610 65.328
4.94 123.490 66.474
4.95 126.274 67.927
4.96 128.675 68.907
4.97 129.377 68.971
4.98 131.278 68.640
4.99 133.688 68.927
5.00 133.910 69.799
5.01 135.054 70.664
5.02 133.165 71.580
5.03 132.154 71.772
5.04 131.865 70.981
5.05 131.737 70.659
5.06 131.704 71.072
5.07 132.122 71.172
5.08 132.496 70.785
5.09 132.872 70.260
5.10 133.419 69.811
5.11 134.093 69.131
5.12 135.249 68.443
5.13 136.032 68.089
5.14 136.652 67.687
5.15 138.557 66.722
5.16 141.039 64.906
5.17 139.817 61.723
5.18 135.475 56.301
5.19 --undefined-- 49.791
5.20 --undefined-- 45.297
5.21 --undefined-- 42.915
5.22 --undefined-- 42.212
5.23 --undefined-- 41.623
5.24 --undefined-- 41.740
5.25 --undefined-- 42.694
5.26 --undefined-- 45.990
5.27 --undefined-- 50.420
5.28 --undefined-- 52.871
5.29 --undefined-- 56.629
5.30 --undefined-- 60.390
5.31 149.683 61.938
5.32 146.924 61.945
5.33 142.945 61.311
5.34 140.795 60.154
5.35 139.129 58.154
5.36 138.514 54.986
5.37 139.596 51.490
5.38 141.323 49.874
5.39 --undefined-- 50.030
5.40 --undefined-- 50.838
5.41 143.205 51.857
5.42 143.269 53.343
5.43 144.691 --undefined--
5.44 145.302 --undefined--
5.45 --undefined-- --undefined--
5.46 --undefined-- --undefined--
