Time Pitch Intensity
0.01 --undefined-- --undefined--
0.02 --undefined-- --undefined--
0.03 242.997 --undefined--
0.04 247.936 --undefined--
0.05 253.902 70.074
0.06 265.106 69.842
0.07 278.337 69.051
0.08 --undefined-- 68.527
0.09 157.413 68.572
0.10 162.680 68.730
0.11 164.067 68.703
0.12 162.149 67.724
0.13 156.854 64.781
0.14 144.645 60.191
0.15 165.214 57.300
0.16 165.532 55.490
0.17 167.882 52.920
0.18 --undefined-- 51.688
0.19 --undefined-- 52.874
0.20 --undefined-- 55.689
0.21 --undefined-- 57.624
0.22 252.690 57.305
0.23 251.374 55.314
0.24 227.727 55.073
0.25 213.039 56.684
0.26 213.663 58.118
0.27 --undefined-- 59.447
0.28 --undefined-- 60.561
0.29 --undefined-- 61.725
0.30 173.879 63.251
0.31 165.981 63.740
0.32 161.834 63.005
0.33 159.437 62.314
0.34 155.349 62.039
0.35 154.275 62.289
0.36 155.167 62.867
0.37 156.108 63.040
0.38 156.367 62.942
0.39 156.615 62.728
0.40 157.916 62.225
0.41 158.220 61.601
0.42 159.807 61.019
0.43 162.764 60.349
0.44 164.872 59.786
0.45 168.427 59.977
0.46 171.692 60.991
0.47 176.109 62.362
0.48 183.469 63.276
0.49 186.344 62.830
0.50 183.609 60.622
0.51 192.152 58.863
0.52 227.361 61.720
0.53 241.084 65.243
0.54 246.263 67.200
0.55 253.650 67.764
0.56 260.160 67.566
0.57 263.667 67.125
0.58 265.469 66.791
0.59 267.308 66.718
0.60 271.456 67.110
0.61 275.882 68.084
0.62 279.808 69.191
0.63 281.658 70.024
0.64 282.256 70.385
0.65 283.347 70.308
0.66 284.031 70.010
0.67 284.357 69.712
0.68 285.114 69.440
0.69 285.870 69.167
0.70 284.091 69.027
0.71 280.959 69.139
0.72 276.544 69.335
0.73 271.039 69.523
0.74 265.496 69.888
0.75 259.957 70.460
0.76 255.855 70.885
0.77 251.449 70.792
0.78 245.352 70.601
0.79 240.961 70.649
0.80 236.916 70.276
0.81 234.946 68.884
0.82 232.279 66.389
0.83 230.983 63.105
0.84 229.978 59.188
0.85 237.715 55.154
0.86 237.935 51.723
0.87 --undefined-- 50.939
0.88 --undefined-- 50.414
0.89 --undefined-- 50.674
0.90 --undefined-- 53.034
0.91 --undefined-- 54.732
0.92 293.882 54.658
0.93 294.183 57.191
0.94 294.920 62.342
0.95 283.900 65.339
0.96 283.632 66.641
0.97 286.681 67.206
0.98 289.456 67.404
0.99 290.819 67.385
1.00 291.576 67.300
1.01 293.885 67.110
1.02 294.971 66.737
1.03 294.992 66.509
1.04 292.541 67.086
1.05 291.383 67.881
1.06 288.292 68.055
1.07 289.253 67.550
1.08 290.375 66.383
1.09 282.579 64.999
1.10 274.053 64.001
1.11 266.618 63.055
1.12 258.121 62.093
1.13 250.604 61.696
1.14 245.514 61.737
1.15 240.754 61.762
1.16 228.617 61.889
1.17 217.665 62.713
1.18 201.852 64.597
1.19 194.128 66.806
1.20 178.468 68.833
1.21 173.236 70.263
1.22 170.810 70.889
1.23 172.610 70.853
1.24 174.191 70.236
1.25 174.950 69.378
1.26 177.239 68.933
1.27 180.862 69.095
1.28 180.782 69.371
1.29 179.865 69.199
1.30 179.763 68.525
1.31 180.767 67.745
1.32 182.221 67.098
1.33 181.992 66.483
1.34 182.319 65.783
1.35 182.583 65.052
1.36 183.195 63.951
1.37 184.918 61.562
1.38 183.439 57.443
1.39 184.382 52.554
1.40 181.458 49.689
1.41 183.532 50.784
1.42 --undefined-- 53.383
1.43 --undefined-- 54.831
1.44 --undefined-- 54.051
1.45 --undefined-- 56.425
1.46 --undefined-- 62.689
1.47 244.832 66.593
1.48 242.292 68.561
1.49 241.228 69.782
1.50 241.566 70.620
1.51 242.318 70.970
1.52 243.904 71.049
1.53 246.315 71.072
1.54 249.690 71.200
1.55 253.163 71.802
1.56 255.559 72.605
1.57 257.707 72.995
1.58 259.486 73.052
1.59 261.299 73.207
1.60 262.370 73.267
1.61 264.030 72.516
1.62 267.369 70.736
1.63 271.244 69.137
1.64 271.591 68.728
1.65 274.680 68.269
1.66 277.263 67.322
1.67 273.403 65.638
1.68 264.502 62.279
1.69 262.672 56.583
1.70 271.255 51.887
1.71 272.707 53.658
1.72 272.559 54.691
1.73 --undefined-- 53.645
1.74 --undefined-- 51.826
1.75 --undefined-- 50.543
1.76 --undefined-- 50.674
1.77 --undefined-- 53.087
1.78 --undefined-- 56.142
1.79 --undefined-- 58.259
1.80 240.863 60.814
1.81 225.840 63.414
1.82 215.757 65.029
1.83 204.003 66.296
1.84 193.968 67.936
1.85 193.956 69.417
1.86 195.035 70.012
1.87 197.389 69.737
1.88 199.014 68.904
1.89 201.636 67.447
1.90 203.340 65.446
1.91 205.358 63.884
1.92 207.394 63.418
1.93 210.887 63.102
1.94 210.361 62.065
1.95 207.390 60.270
1.96 208.163 58.491
1.97 211.109 57.203
1.98 206.393 56.842
1.99 207.901 56.247
2.00 203.093 53.743
2.01 215.094 51.429
2.02 214.138 53.692
2.03 204.301 57.238
2.04 206.777 60.967
2.05 201.573 63.836
2.06 196.625 65.678
2.07 194.879 66.847
2.08 193.475 67.622
2.09 193.777 68.139
2.10 193.809 68.465
2.11 194.287 68.687
2.12 194.974 68.592
2.13 193.256 68.284
2.14 192.968 68.387
2.15 193.568 68.948
2.16 193.802 69.759
2.17 193.386 70.779
2.18 193.516 71.747
2.19 194.446 72.275
2.20 196.489 71.989
2.21 198.992 70.746
2.22 200.436 68.949
2.23 200.860 67.392
2.24 201.182 66.404
2.25 201.163 66.069
2.26 200.515 66.157
2.27 199.407 65.681
2.28 198.251 64.203
2.29 196.592 62.099
2.30 189.902 59.892
2.31 190.399 58.621
2.32 --undefined-- 59.689
2.33 --undefined-- 61.231
2.34 --undefined-- 60.804
2.35 267.334 58.868
2.36 267.107 60.767
2.37 285.374 63.350
2.38 283.684 62.714
2.39 283.297 60.310
2.40 219.928 60.987
2.41 204.175 62.678
2.42 193.944 63.744
2.43 189.601 64.710
2.44 187.803 65.542
2.45 186.403 66.091
2.46 185.860 66.329
2.47 185.687 66.366
2.48 185.853 66.321
2.49 185.736 66.327
2.50 184.741 66.258
2.51 182.692 65.784
2.52 181.248 65.303
2.53 185.841 65.515
2.54 186.015 65.981
2.55 186.259 66.126
2.56 186.825 65.967
2.57 187.615 65.636
2.58 189.276 65.042
2.59 190.807 64.037
2.60 190.924 62.408
2.61 185.702 59.700
2.62 181.044 55.683
2.63 191.134 51.494
2.64 --undefined-- 49.746
2.65 --undefined-- 54.216
2.66 --undefined-- 60.526
2.67 204.027 64.275
2.68 198.957 65.766
2.69 193.086 66.047
2.70 190.851 66.023
2.71 190.037 65.654
2.72 189.392 64.765
2.73 188.687 63.670
2.74 187.505 62.243
2.75 186.073 59.927
2.76 187.564 56.518
2.77 189.514 52.720
2.78 --undefined-- 51.354
2.79 --undefined-- 52.880
2.80 --undefined-- 52.344
2.81 --undefined-- 49.061
2.82 --undefined-- 47.507
2.83 --undefined-- 48.743
2.84 --undefined-- 49.032
2.85 --undefined-- 48.666
2.86 --undefined-- 47.536
2.87 --undefined-- 46.760
2.88 --undefined-- 46.300
2.89 --undefined-- 46.606
2.90 --undefined-- 48.503
2.91 --undefined-- 49.657
2.92 --undefined-- 50.774
2.93 --undefined-- 53.210
2.94 --undefined-- 58.161
2.95 240.963 63.104
2.96 238.060 66.541
2.97 235.195 68.804
2.98 233.794 70.290
2.99 233.630 71.205
3.00 233.776 71.634
3.01 234.111 71.726
3.02 235.792 71.402
3.03 237.942 70.252
3.04 239.162 68.596
3.05 239.831 67.294
3.06 240.919 66.565
3.07 241.500 66.294
3.08 241.192 65.909
3.09 241.142 65.212
3.10 239.773 64.655
3.11 237.764 64.528
3.12 237.382 64.217
3.13 238.504 62.935
3.14 235.326 60.224
3.15 235.445 55.734
3.16 --undefined-- 49.887
3.17 --undefined-- 46.606
3.18 --undefined-- 49.880
3.19 --undefined-- 53.949
3.20 --undefined-- 55.697
3.21 --undefined-- 56.682
3.22 --undefined-- 58.023
3.23 --undefined-- 57.500
3.24 --undefined-- 54.790
3.25 264.162 56.328
3.26 260.656 60.709
3.27 256.736 63.125
3.28 249.938 64.319
3.29 245.591 65.431
3.30 242.170 66.384
3.31 240.735 66.802
3.32 241.080 66.807
3.33 242.698 66.599
3.34 244.521 66.003
3.35 246.152 64.974
3.36 247.228 63.965
3.37 247.053 63.110
3.38 246.235 62.078
3.39 243.255 60.499
3.40 237.373 58.123
3.41 237.590 55.787
3.42 236.493 55.638
3.43 --undefined-- 55.313
3.44 --undefined-- 52.870
3.45 --undefined-- 50.684
3.46 --undefined-- 50.813
3.47 --undefined-- 49.852
3.48 --undefined-- 49.356
3.49 --undefined-- 52.017
3.50 --undefined-- 54.122
3.51 --undefined-- 55.213
3.52 --undefined-- 54.971
3.53 --undefined-- 54.552
3.54 219.835 57.436
3.55 184.902 60.545
3.56 173.477 61.983
3.57 170.101 62.200
3.58 169.239 61.995
3.59 168.758 62.089
3.60 168.686 62.858
3.61 85.272 64.072
3.62 85.459 65.198
3.63 87.344 65.798
3.64 87.356 66.069
3.65 87.971 66.544
3.66 88.192 67.127
3.67 88.156 67.245
3.68 90.198 66.791
3.69 92.277 65.985
3.70 91.905 64.574
3.71 91.514 62.079
3.72 90.078 58.795
3.73 90.985 56.407
3.74 --undefined-- 55.341
3.75 --undefined-- 54.711
3.76 --undefined-- 55.163
3.77 257.876 56.341
3.78 258.206 58.019
3.79 272.294 60.181
3.80 --undefined-- 62.118
3.81 111.717 63.380
3.82 112.323 64.367
3.83 116.174 65.433
3.84 115.338 66.276
3.85 230.805 67.318
3.86 233.722 68.826
3.87 235.619 70.078
3.88 236.692 70.666
3.89 237.036 70.670
3.90 237.399 70.181
3.91 237.918 69.297
3.92 237.848 68.176
3.93 236.561 66.498
3.94 234.349 63.491
3.95 235.941 58.609
3.96 237.351 53.208
3.97 240.388 53.259
3.98 --undefined-- 56.387
3.99 --undefined-- 58.721
4.00 --undefined-- 58.577
4.01 --undefined-- 56.357
4.02 --undefined-- 56.945
4.03 199.099 59.176
4.04 193.807 60.191
4.05 174.690 61.161
4.06 167.752 62.872
4.07 158.785 64.514
4.08 149.090 65.638
4.09 144.190 66.112
4.10 144.133 65.831
4.11 147.505 65.375
4.12 147.091 65.018
4.13 146.287 64.304
4.14 147.631 62.961
4.15 146.268 60.419
4.16 143.342 56.157
4.17 --undefined-- 53.026
4.18 --undefined-- 52.674
4.19 --undefined-- 53.045
4.20 --undefined-- 55.794
4.21 --undefined-- 58.181
4.22 --undefined-- 57.775
4.23 --undefined-- 56.939
4.24 --undefined-- 60.419
4.25 --undefined-- 63.752
4.26 166.419 66.062
4.27 161.931 67.592
4.28 157.943 68.286
4.29 156.539 68.762
4.30 157.018 69.217
4.31 157.634 69.504
4.32 157.937 69.611
4.33 159.022 69.530
4.34 161.862 69.150
4.35 166.314 68.566
4.36 169.262 67.710
4.37 183.566 67.024
4.38 185.822 66.856
4.39 196.425 66.397
4.40 211.335 65.374
4.41 216.569 64.136
4.42 214.640 62.660
4.43 209.562 60.174
4.44 202.032 56.187
4.45 --undefined-- 50.893
4.46 --undefined-- 47.973
4.47 --undefined-- 48.205
4.48 --undefined-- 47.596
4.49 --undefined-- 46.191
4.50 --undefined-- 44.918
4.51 --undefined-- 44.711
4.52 --undefined-- 45.696
4.53 --undefined-- 49.828
4.54 --undefined-- 57.668
4.55 --undefined-- 63.435
4.56 186.328 66.630
4.57 176.803 67.816
4.58 169.494 68.001
4.59 170.668 68.076
4.60 172.245 68.259
4.61 173.417 68.378
4.62 174.560 68.543
4.63 177.538 69.071
4.64 178.115 69.863
4.65 180.157 70.499
4.66 181.070 70.717
4.67 181.714 70.263
4.68 181.199 68.893
4.69 180.385 67.249
4.70 181.929 66.724
4.71 182.004 66.589
4.72 181.878 65.821
4.73 181.824 64.497
4.74 183.068 62.598
4.75 184.426 59.842
4.76 190.249 55.758
4.77 --undefined-- 50.785
4.78 --undefined-- 49.752
4.79 --undefined-- 51.015
4.80 --undefined-- 51.854
4.81 --undefined-- 51.582
4.82 --undefined-- 49.312
4.83 --undefined-- 46.452
4.84 --undefined-- 47.287
4.85 --undefined-- 50.760
4.86 --undefined-- 53.599
4.87 --undefined-- 55.194
4.88 --undefined-- 54.740
4.89 --undefined-- 52.367
4.90 --undefined-- 49.639
4.91 --undefined-- 47.782
4.92 --undefined-- 48.062
4.93 --undefined-- 49.796
4.94 --undefined-- 51.018
4.95 --undefined-- 51.776
4.96 --undefined-- 51.949
4.97 --undefined-- 51.754
4.98 --undefined-- 51.297
4.99 --undefined-- --undefined--
5.00 --undefined-- --undefined--
5.01 --undefined-- --undefined--
5.02 --undefined-- --undefined--
