Time Pitch Intensity
0.01 --undefined-- --undefined--
0.02 115.925 --undefined--
0.03 112.791 --undefined--
0.04 --undefined-- --undefined--
0.05 --undefined-- 56.291
0.06 --undefined-- 54.919
0.07 --undefined-- 55.277
0.08 --undefined-- 56.274
0.09 --undefined-- 57.595
0.10 --undefined-- 58.808
0.11 --undefined-- 58.895
0.12 --undefined-- 59.822
0.13 --undefined-- 64.580
0.14 --undefined-- 67.232
0.15 --undefined-- 66.332
0.16 --undefined-- 62.478
0.17 --undefined-- 57.953
0.18 --undefined-- 53.695
0.19 --undefined-- 47.762
0.20 --undefined-- 42.876
0.21 --undefined-- 40.160
0.22 --undefined-- 39.982
0.23 --undefined-- 43.327
0.24 --undefined-- 48.057
0.25 --undefined-- 51.686
0.26 --undefined-- 54.267
0.27 --undefined-- 57.105
0.28 --undefined-- 61.194
0.29 --undefined-- 64.481
0.30 96.250 65.659
0.31 105.262 65.812
0.32 99.894 66.192
0.33 102.958 66.950
0.34 103.814 67.493
0.35 104.178 67.612
0.36 104.213 67.394
0.37 108.064 66.991
0.38 107.894 66.548
0.39 111.042 65.803
0.40 110.176 64.315
0.41 --undefined-- 61.492
0.42 --undefined-- 57.494
0.43 --undefined-- 51.639
0.44 --undefined-- 43.191
0.45 --undefined-- 38.871
0.46 --undefined-- 37.979
0.47 --undefined-- 37.744
0.48 --undefined-- 42.883
0.49 --undefined-- 51.485
0.50 --undefined-- 60.261
0.51 --undefined-- 66.210
0.52 92.104 68.495
0.53 94.473 68.258
0.54 98.194 67.345
0.55 99.579 66.902
0.56 100.483 66.667
0.57 101.474 66.051
0.58 102.492 64.585
0.59 102.191 61.790
0.60 101.503 57.775
0.61 101.808 55.232
0.62 100.930 55.852
0.63 100.517 58.668
0.64 98.857 61.029
0.65 99.193 62.209
0.66 97.249 63.078
0.67 94.919 63.066
0.68 95.473 61.289
0.69 --undefined-- 58.055
0.70 --undefined-- 55.905
0.71 --undefined-- 56.453
0.72 --undefined-- 57.761
0.73 --undefined-- 58.798
0.74 --undefined-- 58.734
0.75 --undefined-- 57.788
0.76 --undefined-- 57.185
0.77 --undefined-- 57.237
0.78 --undefined-- 57.100
0.79 --undefined-- 57.704
0.80 --undefined-- 58.786
0.81 --undefined-- 59.229
0.82 --undefined-- 60.189
0.83 100.752 62.097
0.84 103.966 63.664
0.85 103.552 63.987
0.86 101.939 63.100
0.87 106.305 62.025
0.88 111.679 61.910
0.89 116.452 62.286
0.90 120.053 62.374
0.91 121.648 62.030
0.92 124.278 61.103
0.93 124.536 59.287
0.94 122.081 56.099
0.95 --undefined-- 52.049
0.96 --undefined-- 52.228
0.97 --undefined-- 59.142
0.98 --undefined-- 65.528
0.99 --undefined-- 69.218
1.00 124.726 70.743
1.01 124.704 71.051
1.02 124.353 70.707
1.03 124.330 70.245
1.04 124.944 70.082
1.05 124.702 69.501
1.06 121.624 67.318
1.07 --undefined-- 62.929
1.08 --undefined-- 56.968
1.09 --undefined-- 54.446
1.10 --undefined-- 55.046
1.11 --undefined-- 55.792
1.12 --undefined-- 55.628
1.13 --undefined-- 53.889
1.14 --undefined-- 51.820
1.15 --undefined-- 51.780
1.16 --undefined-- 52.666
1.17 --undefined-- 53.508
1.18 --undefined-- 57.699
1.19 --undefined-- 66.216
1.20 --undefined-- 71.412
1.21 137.682 73.338
1.22 138.427 73.290
1.23 135.570 72.408
1.24 133.109 71.431
1.25 131.788 71.014
1.26 130.260 70.693
1.27 129.354 70.126
1.28 128.662 69.729
1.29 128.155 69.516
1.30 128.316 69.242
1.31 128.821 68.664
1.32 128.365 67.502
1.33 127.419 65.642
1.34 125.837 62.433
1.35 127.089 57.470
1.36 126.952 53.258
1.37 123.128 52.333
1.38 120.823 52.368
1.39 119.328 52.430
1.40 118.935 52.723
1.41 118.449 53.208
1.42 117.732 53.447
1.43 116.396 53.002
1.44 114.328 51.394
1.45 --undefined-- 48.200
1.46 --undefined-- 45.480
1.47 --undefined-- 50.875
1.48 --undefined-- 54.956
1.49 --undefined-- 55.710
1.50 --undefined-- 55.618
1.51 --undefined-- 55.492
1.52 --undefined-- 54.493
1.53 78.590 55.512
1.54 78.042 58.100
1.55 77.006 61.613
1.56 --undefined-- 64.754
1.57 --undefined-- 66.478
1.58 88.413 67.526
1.59 80.950 67.900
1.60 92.945 67.743
1.61 91.294 67.590
1.62 90.228 67.279
1.63 92.611 66.725
1.64 97.591 66.247
1.65 101.435 66.125
1.66 105.123 66.029
1.67 110.168 66.051
1.68 109.991 66.050
1.69 110.690 65.218
1.70 112.488 63.463
1.71 112.244 61.860
1.72 108.186 61.354
1.73 105.626 61.485
1.74 102.157 61.824
1.75 101.875 61.893
1.76 97.387 60.855
1.77 --undefined-- 57.881
1.78 --undefined-- 52.432
1.79 --undefined-- 45.038
1.80 --undefined-- 39.363
1.81 --undefined-- 37.522
1.82 --undefined-- 37.305
1.83 --undefined-- 42.057
1.84 --undefined-- 52.373
1.85 --undefined-- 58.478
1.86 --undefined-- 60.228
1.87 --undefined-- 61.810
1.88 --undefined-- 66.109
1.89 116.491 68.196
1.90 116.421 67.916
1.91 115.807 66.946
1.92 115.540 66.291
1.93 115.419 65.727
1.94 113.965 65.205
1.95 111.886 64.676
1.96 110.788 63.999
1.97 108.594 63.288
1.98 107.728 62.972
1.99 107.100 62.724
2.00 107.279 62.162
2.01 107.178 61.600
2.02 106.358 61.140
2.03 104.488 60.425
2.04 100.621 59.027
2.05 96.182 56.915
2.06 92.625 54.742
2.07 93.196 53.198
2.08 --undefined-- 52.347
2.09 --undefined-- 52.395
2.10 --undefined-- 52.398
2.11 106.488 52.995
2.12 108.558 54.567
2.13 87.342 56.458
2.14 87.399 58.206
2.15 --undefined-- 59.262
2.16 --undefined-- 59.823
2.17 79.170 59.605
2.18 78.099 59.150
2.19 82.239 59.347
2.20 83.355 60.191
2.21 83.462 60.958
2.22 84.362 61.445
2.23 84.985 61.937
2.24 85.272 62.311
2.25 85.190 62.642
2.26 85.418 63.343
2.27 86.613 64.159
2.28 86.994 64.182
2.29 --undefined-- 62.984
2.30 --undefined-- 60.817
2.31 --undefined-- 57.784
2.32 --undefined-- 55.098
2.33 --undefined-- 54.905
2.34 --undefined-- 55.204
2.35 --undefined-- 53.755
2.36 --undefined-- 49.988
2.37 --undefined-- 45.224
2.38 --undefined-- 41.625
2.39 --undefined-- 39.435
2.40 --undefined-- 38.342
2.41 --undefined-- 38.756
2.42 --undefined-- 40.528
2.43 --undefined-- 42.651
2.44 --undefined-- 43.917
2.45 --undefined-- 44.655
2.46 --undefined-- 44.984
2.47 --undefined-- 44.732
2.48 --undefined-- 44.690
2.49 --undefined-- 44.937
2.50 --undefined-- 45.598
2.51 --undefined-- 45.973
2.52 --undefined-- 46.061
2.53 --undefined-- 46.704
2.54 --undefined-- 47.493
2.55 --undefined-- 47.688
2.56 --undefined-- 47.548
2.57 --undefined-- 47.445
2.58 --undefined-- 46.481
2.59 --undefined-- 44.232
2.60 --undefined-- 42.176
2.61 --undefined-- 41.309
2.62 --undefined-- 40.849
2.63 --undefined-- 40.416
2.64 --undefined-- 40.205
2.65 --undefined-- 39.813
2.66 --undefined-- 38.898
2.67 --undefined-- 38.293
2.68 --undefined-- 38.413
2.69 --undefined-- 38.783
2.70 --undefined-- 38.517
2.71 --undefined-- 37.881
2.72 --undefined-- 38.480
2.73 --undefined-- 41.050
2.74 --undefined-- 48.322
2.75 --undefined-- 58.564
2.76 --undefined-- 65.387
2.77 140.384 68.696
2.78 135.748 69.557
2.79 135.979 69.187
2.80 135.380 68.262
2.81 134.114 67.401
2.82 132.443 67.615
2.83 130.512 68.478
2.84 127.766 68.809
2.85 123.158 68.274
2.86 118.787 67.528
2.87 114.472 67.184
2.88 113.569 67.100
2.89 108.021 66.501
2.90 107.538 64.043
2.91 --undefined-- 58.799
2.92 --undefined-- 52.373
2.93 --undefined-- 55.784
2.94 --undefined-- 62.868
2.95 --undefined-- 67.906
2.96 129.730 70.441
2.97 130.276 71.179
2.98 130.616 71.129
2.99 130.956 70.766
3.00 130.730 70.164
3.01 129.731 69.492
3.02 127.722 68.951
3.03 125.775 68.584
3.04 122.609 68.217
3.05 120.235 67.743
3.06 111.753 67.003
3.07 110.183 65.532
3.08 105.237 62.740
3.09 --undefined-- 57.970
3.10 --undefined-- 50.662
3.11 --undefined-- 43.106
3.12 --undefined-- 39.330
3.13 --undefined-- 36.772
3.14 --undefined-- 39.297
3.15 --undefined-- 46.586
3.16 --undefined-- 52.201
3.17 --undefined-- 56.071
3.18 --undefined-- 58.851
3.19 --undefined-- 60.883
3.20 --undefined-- 61.640
3.21 --undefined-- 60.145
3.22 --undefined-- 56.537
3.23 --undefined-- 54.595
3.24 --undefined-- 58.988
3.25 137.069 63.222
3.26 137.449 65.129
3.27 135.911 65.280
3.28 134.381 64.017
3.29 132.091 61.753
3.30 133.823 60.506
3.31 134.046 60.777
3.32 132.463 60.832
3.33 129.685 60.138
3.34 125.849 58.924
3.35 120.255 57.655
3.36 114.611 56.259
3.37 117.954 55.006
3.38 111.852 56.891
3.39 108.962 60.194
3.40 108.810 62.270
3.41 109.561 63.392
3.42 105.732 63.819
3.43 103.705 63.990
3.44 106.032 64.731
3.45 104.118 65.936
3.46 101.869 66.735
3.47 100.093 66.797
3.48 98.841 66.534
3.49 100.159 66.257
3.50 100.107 66.098
3.51 100.009 65.482
3.52 100.408 64.020
3.53 101.097 61.867
3.54 101.300 59.672
3.55 97.293 57.347
3.56 100.362 55.368
3.57 --undefined-- 56.847
3.58 --undefined-- 61.083
3.59 --undefined-- 65.369
3.60 --undefined-- 68.138
3.61 101.796 69.281
3.62 100.750 69.687
3.63 100.252 69.904
3.64 100.163 69.987
3.65 99.508 69.834
3.66 99.267 69.509
3.67 99.633 69.165
3.68 99.278 69.029
3.69 98.441 68.976
3.70 98.246 68.782
3.71 97.344 68.569
3.72 97.046 68.487
3.73 97.057 68.625
3.74 97.076 68.784
3.75 97.233 68.696
3.76 96.907 68.464
3.77 96.337 68.254
3.78 96.529 67.970
3.79 96.796 67.701
3.80 96.341 67.733
3.81 96.200 68.074
3.82 96.026 68.459
3.83 94.541 68.577
3.84 95.091 68.587
3.85 94.883 68.641
3.86 95.763 68.679
3.87 96.128 68.664
3.88 96.825 68.577
3.89 97.019 68.350
3.90 97.364 68.150
3.91 96.811 68.083
3.92 98.177 67.849
3.93 98.280 67.586
3.94 97.315 67.661
3.95 96.277 67.706
3.96 95.581 67.198
3.97 95.995 66.087
3.98 97.103 64.544
3.99 96.593 62.301
4.00 --undefined-- 58.205
4.01 --undefined-- 52.040
4.02 --undefined-- 49.444
4.03 --undefined-- 50.195
4.04 86.245 50.040
4.05 79.288 50.080
4.06 77.333 50.476
4.07 78.314 50.781
4.08 79.254 50.822
4.09 80.212 50.688
4.10 82.503 50.678
4.11 83.737 50.599
4.12 87.314 50.885
4.13 87.804 52.042
4.14 87.358 53.109
4.15 86.337 53.243
4.16 87.264 52.791
4.17 86.909 52.257
4.18 88.945 52.363
4.19 88.963 54.987
4.20 --undefined-- 60.888
4.21 --undefined-- 65.891
4.22 95.504 68.429
4.23 93.823 68.969
4.24 91.914 68.608
4.25 91.200 68.091
4.26 91.434 66.945
4.27 92.909 64.477
4.28 --undefined-- 60.307
4.29 96.400 55.094
4.30 100.710 53.216
4.31 101.302 54.056
4.32 104.004 55.111
4.33 107.593 56.312
4.34 109.910 57.255
4.35 114.518 57.753
4.36 117.548 57.919
4.37 120.630 57.550
4.38 121.645 56.507
4.39 119.921 54.722
4.40 118.767 52.016
4.41 --undefined-- 48.653
4.42 --undefined-- 51.397
4.43 --undefined-- 57.069
4.44 --undefined-- 62.116
4.45 --undefined-- 66.040
4.46 98.010 67.272
4.47 97.724 66.175
4.48 94.639 63.631
4.49 94.069 60.088
4.50 91.878 56.718
4.51 91.601 55.472
4.52 90.912 55.567
4.53 92.270 55.636
4.54 95.488 56.098
4.55 98.240 58.270
4.56 98.106 61.227
4.57 95.917 63.379
4.58 95.487 64.878
4.59 97.275 66.257
4.60 100.361 67.182
4.61 102.109 66.634
4.62 100.865 64.055
4.63 --undefined-- 59.136
4.64 --undefined-- 51.419
4.65 --undefined-- 43.578
4.66 --undefined-- 39.920
4.67 --undefined-- 42.396
4.68 --undefined-- 51.972
4.69 --undefined-- 59.164
4.70 --undefined-- 64.063
4.71 120.819 68.074
4.72 121.473 70.918
4.73 120.348 71.975
4.74 115.832 71.765
4.75 111.040 71.108
4.76 109.295 70.122
4.77 106.999 68.974
4.78 105.281 68.071
4.79 105.093 67.268
4.80 106.312 66.635
4.81 109.210 65.758
4.82 110.141 63.827
4.83 110.429 60.518
4.84 110.289 56.908
4.85 108.029 55.200
4.86 102.883 54.152
4.87 98.447 53.474
4.88 96.921 54.388
4.89 95.244 55.839
4.90 95.879 57.116
4.91 96.648 58.098
4.92 90.225 59.084
4.93 91.664 60.573
4.94 88.712 62.132
4.95 --undefined-- 63.506
4.96 --undefined-- 64.327
4.97 --undefined-- 64.472
4.98 78.146 64.253
4.99 78.445 64.016
5.00 80.877 63.860
5.01 82.156 63.663
5.02 82.728 63.424
5.03 83.514 62.815
5.04 86.634 61.849
5.05 91.249 62.235
5.06 97.800 64.753
5.07 98.875 67.181
5.08 100.330 68.701
5.09 100.538 69.272
5.10 99.745 69.057
5.11 99.773 68.344
5.12 99.068 66.745
5.13 --undefined-- 63.436
5.14 --undefined-- 58.510
5.15 --undefined-- 54.686
5.16 --undefined-- 52.789
5.17 --undefined-- 50.573
5.18 --undefined-- 46.975
5.19 --undefined-- 42.435
5.20 --undefined-- 38.451
5.21 --undefined-- 36.983
5.22 --undefined-- 36.858
5.23 --undefined-- 37.422
5.24 --undefined-- 38.460
5.25 --undefined-- 39.836
5.26 --undefined-- 41.081
5.27 --undefined-- 42.071
5.28 --undefined-- 42.809
5.29 --undefined-- 43.205
5.30 --undefined-- 43.984
5.31 --undefined-- 44.830
5.32 --undefined-- 44.726
5.33 --undefined-- 44.273
5.34 --undefined-- 44.388
5.35 --undefined-- 44.587
5.36 --undefined-- 44.760
5.37 --undefined-- 44.646
5.38 --undefined-- 44.130
5.39 --undefined-- 43.976
5.40 --undefined-- 44.352
5.41 --undefined-- 44.378
5.42 --undefined-- 43.630
5.43 --undefined-- --undefined--
5.44 --undefined-- --undefined--
5.45 --undefined-- --undefined--
5.46 --undefined-- --undefined--
