Time Pitch Intensity
0.01 --undefined-- --undefined--
0.02 120.929 --undefined--
0.03 121.091 --undefined--
0.04 121.741 --undefined--
0.05 122.391 71.504
0.06 122.593 71.311
0.07 121.637 70.595
0.08 118.915 69.017
0.09 115.300 66.388
0.10 111.158 62.465
0.11 --undefined-- 60.404
0.12 --undefined-- 66.299
0.13 --undefined-- 71.976
0.14 150.835 75.416
0.15 145.930 77.142
0.16 141.090 77.691
0.17 138.990 77.806
0.18 138.185 77.966
0.19 137.933 78.009
0.20 138.708 77.761
0.21 138.889 77.278
0.22 139.392 76.735
0.23 139.737 76.035
0.24 139.396 74.834
0.25 138.886 72.968
0.26 --undefined-- 70.672
0.27 --undefined-- 68.198
0.28 --undefined-- 65.136
0.29 --undefined-- 61.059
0.30 --undefined-- 55.585
0.31 --undefined-- 51.106
0.32 --undefined-- 47.815
0.33 --undefined-- 43.028
0.34 --undefined-- 38.991
0.35 --undefined-- 38.288
0.36 --undefined-- 38.632
0.37 --undefined-- 37.794
0.38 --undefined-- 36.940
0.39 --undefined-- 36.587
0.40 --undefined-- 35.922
0.41 --undefined-- 36.540
0.42 --undefined-- 37.904
0.43 --undefined-- 38.533
0.44 --undefined-- 37.959
0.45 --undefined-- 37.103
0.46 --undefined-- 36.831
0.47 --undefined-- 37.463
0.48 --undefined-- 37.890
0.49 --undefined-- 37.678
0.50 --undefined-- 37.626
0.51 --undefined-- 38.593
0.52 --undefined-- 40.313
0.53 --undefined-- 40.837
0.54 --undefined-- 40.150
0.55 --undefined-- 39.843
0.56 --undefined-- 40.901
0.57 --undefined-- 42.401
0.58 --undefined-- 42.484
0.59 --undefined-- 47.930
0.60 --undefined-- 60.280
0.61 --undefined-- 68.761
0.62 --undefined-- 73.611
0.63 146.847 75.795
0.64 142.360 76.161
0.65 141.751 75.805
0.66 146.076 75.568
0.67 149.465 75.580
0.68 149.257 74.814
0.69 147.485 71.878
0.70 --undefined-- 65.872
0.71 --undefined-- 56.780
0.72 --undefined-- 48.362
0.73 --undefined-- 45.021
0.74 --undefined-- 53.051
0.75 --undefined-- 65.042
0.76 --undefined-- 72.763
0.77 --undefined-- 77.089
0.78 171.317 79.276
0.79 167.117 80.396
0.80 163.778 80.941
0.81 161.723 81.296
0.82 161.349 81.673
0.83 163.502 81.674
0.84 165.391 81.026
0.85 165.601 80.109
0.86 166.232 79.313
0.87 166.942 78.732
0.88 166.176 78.037
0.89 164.643 76.506
0.90 164.789 73.934
0.91 166.590 71.439
0.92 164.782 70.125
0.93 163.068 69.357
0.94 159.987 68.784
0.95 159.108 68.506
0.96 153.893 68.005
0.97 146.311 66.907
0.98 137.499 66.082
0.99 139.227 67.718
1.00 135.104 70.685
1.01 133.839 72.949
1.02 135.470 74.755
1.03 138.161 76.793
1.04 139.457 78.917
1.05 138.998 80.540
1.06 138.360 81.407
1.07 139.096 81.554
1.08 141.218 80.765
1.09 147.106 78.985
1.10 154.191 77.520
1.11 157.553 77.264
1.12 158.028 76.748
1.13 155.192 74.444
1.14 144.094 69.432
1.15 144.699 62.145
1.16 --undefined-- 58.074
1.17 --undefined-- 61.258
1.18 --undefined-- 66.645
1.19 145.220 70.656
1.20 131.948 72.590
1.21 120.911 73.174
1.22 120.767 73.123
1.23 119.343 72.650
1.24 116.239 71.790
1.25 110.612 70.467
1.26 102.788 68.734
1.27 108.996 67.601
1.28 98.661 67.267
1.29 103.701 67.116
1.30 102.668 67.073
1.31 104.819 66.583
1.32 105.654 65.177
1.33 102.929 62.337
1.34 101.129 57.528
1.35 --undefined-- 50.796
1.36 --undefined-- 44.054
1.37 --undefined-- 41.599
1.38 --undefined-- 49.205
1.39 --undefined-- 61.551
1.40 --undefined-- 69.894
1.41 179.798 74.782
1.42 170.983 77.559
1.43 169.840 79.244
1.44 171.178 80.285
1.45 172.553 81.040
1.46 172.918 81.676
1.47 172.750 82.019
1.48 171.732 81.857
1.49 170.009 81.027
1.50 168.128 79.345
1.51 167.105 76.896
1.52 167.248 74.418
1.53 168.599 72.604
1.54 167.070 70.766
1.55 162.184 68.300
1.56 160.727 65.424
1.57 162.799 62.665
1.58 167.187 59.899
1.59 175.850 56.929
1.60 170.628 57.580
1.61 186.016 64.175
1.62 183.946 69.991
1.63 168.019 73.613
1.64 164.177 75.331
1.65 161.984 75.656
1.66 159.901 75.187
1.67 159.180 74.572
1.68 161.812 74.208
1.69 162.171 73.902
1.70 162.133 73.542
1.71 161.783 73.243
1.72 160.432 73.057
1.73 158.248 72.979
1.74 155.783 73.043
1.75 152.871 73.089
1.76 147.572 72.762
1.77 141.360 71.928
1.78 135.042 70.678
1.79 126.168 69.372
1.80 121.217 69.469
1.81 121.148 70.709
1.82 113.718 71.069
1.83 110.165 70.371
1.84 107.645 69.581
1.85 105.905 69.520
1.86 104.579 69.836
1.87 103.806 69.991
1.88 105.671 70.129
1.89 106.772 70.370
1.90 108.341 70.204
1.91 111.793 69.869
1.92 115.023 69.925
1.93 119.588 70.103
1.94 122.204 70.069
1.95 123.402 69.766
1.96 124.973 69.069
1.97 124.897 67.865
1.98 121.801 66.351
1.99 130.646 64.815
2.00 96.445 63.033
2.01 98.655 60.397
2.02 --undefined-- 56.313
2.03 --undefined-- 51.893
2.04 --undefined-- 49.524
2.05 --undefined-- 46.380
2.06 --undefined-- 41.252
2.07 --undefined-- 37.322
2.08 --undefined-- 37.232
2.09 --undefined-- 37.956
2.10 --undefined-- 38.257
2.11 --undefined-- 37.723
2.12 --undefined-- 37.382
2.13 --undefined-- 41.560
2.14 --undefined-- 47.962
2.15 --undefined-- 51.519
2.16 --undefined-- 51.582
2.17 --undefined-- 49.021
2.18 --undefined-- 46.088
2.19 --undefined-- 45.129
2.20 --undefined-- 45.311
2.21 --undefined-- 45.223
2.22 --undefined-- 45.422
2.23 --undefined-- 48.076
2.24 --undefined-- 58.239
2.25 --undefined-- 66.937
2.26 148.949 71.962
2.27 144.056 74.104
2.28 135.439 74.379
2.29 130.466 74.232
2.30 130.015 74.731
2.31 129.949 75.564
2.32 135.659 76.137
2.33 135.152 76.592
2.34 135.587 77.511
2.35 135.814 78.551
2.36 134.483 78.972
2.37 133.420 78.712
2.38 131.853 77.764
2.39 125.814 76.279
2.40 126.420 75.150
2.41 127.461 74.409
2.42 127.025 73.687
2.43 126.300 73.334
2.44 125.959 73.544
2.45 130.215 73.955
2.46 118.534 74.079
2.47 117.136 73.937
2.48 115.151 73.434
2.49 111.334 72.265
2.50 108.079 70.876
2.51 109.088 70.499
2.52 111.186 71.025
2.53 111.761 71.242
2.54 110.482 70.819
2.55 108.913 70.238
2.56 105.461 70.238
2.57 112.347 70.801
2.58 114.310 71.151
2.59 115.573 71.102
2.60 115.622 70.618
2.61 113.741 69.275
2.62 107.908 66.553
2.63 103.584 62.191
2.64 --undefined-- 56.811
2.65 --undefined-- 55.371
2.66 --undefined-- 58.890
2.67 --undefined-- 64.420
2.68 117.736 68.343
2.69 116.405 69.888
2.70 108.733 69.844
2.71 106.912 69.553
2.72 106.625 70.036
2.73 109.797 70.671
2.74 114.405 70.929
2.75 123.139 71.280
2.76 132.693 71.783
2.77 138.323 72.194
2.78 143.544 72.479
2.79 145.425 72.010
2.80 145.817 70.186
2.81 141.959 66.667
2.82 137.694 61.273
2.83 --undefined-- 55.191
2.84 --undefined-- 51.136
2.85 --undefined-- 48.957
2.86 --undefined-- 55.111
2.87 174.953 63.066
2.88 153.056 68.325
2.89 142.062 70.998
2.90 135.506 71.718
2.91 129.194 71.550
2.92 128.053 71.519
2.93 124.787 71.724
2.94 122.552 71.786
2.95 119.121 71.609
2.96 117.985 71.361
2.97 116.769 71.272
2.98 116.555 71.077
2.99 115.970 70.331
3.00 112.974 69.148
3.01 114.290 68.302
3.02 115.863 67.994
3.03 116.842 67.677
3.04 117.697 67.053
3.05 116.823 66.114
3.06 114.904 64.685
3.07 --undefined-- 62.399
3.08 --undefined-- 59.289
3.09 --undefined-- 55.314
3.10 --undefined-- 49.871
3.11 --undefined-- 44.897
3.12 --undefined-- 42.258
3.13 --undefined-- 38.832
3.14 --undefined-- 34.655
3.15 --undefined-- 33.025
3.16 --undefined-- 33.487
3.17 --undefined-- 36.892
3.18 --undefined-- 39.142
3.19 --undefined-- 39.401
3.20 --undefined-- 40.809
3.21 --undefined-- 42.182
3.22 --undefined-- 41.163
3.23 --undefined-- 39.485
3.24 --undefined-- 38.694
3.25 --undefined-- 37.244
3.26 --undefined-- 36.021
3.27 --undefined-- 35.024
3.28 --undefined-- 35.520
3.29 --undefined-- 37.058
3.30 --undefined-- 38.290
3.31 --undefined-- 38.618
3.32 --undefined-- 38.159
3.33 --undefined-- 37.714
3.34 --undefined-- 37.446
3.35 --undefined-- 37.575
3.36 --undefined-- 38.604
3.37 --undefined-- 40.129
3.38 --undefined-- 39.805
3.39 --undefined-- 37.825
3.40 --undefined-- 36.907
3.41 --undefined-- 38.104
3.42 --undefined-- 38.689
3.43 --undefined-- 37.271
3.44 --undefined-- 35.687
3.45 --undefined-- 35.580
3.46 --undefined-- 36.804
3.47 --undefined-- 37.980
3.48 --undefined-- 37.363
3.49 --undefined-- 36.100
3.50 --undefined-- 36.061
3.51 --undefined-- 36.224
3.52 --undefined-- 35.681
3.53 --undefined-- 37.166
3.54 --undefined-- 38.927
3.55 --undefined-- 39.579
3.56 --undefined-- 40.582
3.57 --undefined-- 40.214
3.58 --undefined-- 37.548
3.59 --undefined-- 35.922
3.60 --undefined-- 36.678
3.61 --undefined-- 37.170
3.62 --undefined-- 37.867
3.63 --undefined-- 38.979
3.64 --undefined-- 39.879
3.65 --undefined-- 40.233
3.66 --undefined-- 40.159
3.67 --undefined-- 39.856
3.68 --undefined-- 39.654
3.69 --undefined-- 39.883
3.70 --undefined-- 40.535
3.71 --undefined-- 40.901
3.72 --undefined-- 40.748
3.73 --undefined-- 40.249
3.74 --undefined-- 39.336
3.75 --undefined-- 38.763
3.76 --undefined-- 38.408
3.77 --undefined-- 37.450
3.78 --undefined-- 39.106
3.79 --undefined-- 47.422
3.80 --undefined-- 55.623
3.81 --undefined-- 60.250
3.82 --undefined-- 62.423
3.83 --undefined-- 63.775
3.84 95.309 64.378
3.85 97.263 64.585
3.86 100.938 64.780
3.87 114.339 63.616
3.88 --undefined-- 59.822
3.89 --undefined-- 52.768
3.90 --undefined-- 45.985
3.91 --undefined-- 53.389
3.92 --undefined-- 58.809
3.93 --undefined-- 60.287
3.94 --undefined-- 59.063
3.95 --undefined-- 57.506
3.96 --undefined-- 60.186
3.97 --undefined-- 67.176
3.98 166.253 72.219
3.99 162.343 74.870
4.00 159.609 76.211
4.01 158.520 77.047
4.02 161.539 77.475
4.03 163.495 77.521
4.04 167.106 77.622
4.05 167.525 77.907
4.06 166.289 78.179
4.07 163.727 78.228
4.08 158.360 78.194
4.09 157.041 78.209
4.10 148.823 77.734
4.11 139.876 76.628
4.12 130.150 75.598
4.13 119.425 75.072
4.14 110.831 74.183
4.15 102.252 72.459
4.16 98.491 70.440
4.17 97.002 68.308
4.18 98.438 65.553
4.19 101.039 62.287
4.20 83.599 58.572
4.21 78.781 55.764
4.22 --undefined-- 58.628
4.23 123.736 65.571
4.24 129.319 70.715
4.25 129.902 73.557
4.26 122.305 74.729
4.27 121.258 75.194
4.28 119.009 75.415
4.29 118.594 75.372
4.30 116.599 75.517
4.31 114.635 75.855
4.32 112.436 75.744
4.33 112.813 74.957
4.34 117.072 74.016
4.35 119.454 73.546
4.36 120.000 73.263
4.37 121.752 72.685
4.38 122.482 71.659
4.39 119.185 70.137
4.40 120.451 68.636
4.41 134.818 66.785
4.42 --undefined-- 62.957
4.43 --undefined-- 56.445
4.44 --undefined-- 50.131
4.45 --undefined-- 46.431
4.46 --undefined-- 43.244
4.47 --undefined-- 41.148
4.48 --undefined-- 41.152
4.49 --undefined-- 42.518
4.50 --undefined-- 44.210
4.51 --undefined-- 45.612
4.52 --undefined-- 47.741
4.53 --undefined-- 49.496
4.54 --undefined-- 54.078
4.55 --undefined-- 63.654
4.56 --undefined-- 70.789
4.57 --undefined-- 74.386
4.58 146.455 75.109
4.59 145.347 73.544
4.60 140.211 71.439
4.61 143.023 71.963
4.62 146.076 73.258
4.63 145.550 73.870
4.64 145.119 73.883
4.65 139.923 73.920
4.66 136.294 74.522
4.67 136.021 74.931
4.68 135.862 74.869
4.69 135.790 74.730
4.70 134.555 74.593
4.71 133.310 74.193
4.72 129.054 73.361
4.73 120.680 72.153
4.74 115.000 70.918
4.75 114.603 70.054
4.76 111.168 69.792
4.77 118.650 69.894
4.78 106.857 69.967
4.79 106.509 70.030
4.80 106.262 70.387
4.81 105.597 70.871
4.82 105.366 70.997
4.83 105.403 70.275
4.84 106.425 68.411
4.85 103.424 65.008
4.86 109.536 61.017
4.87 106.313 58.811
4.88 106.763 59.632
4.89 130.097 64.463
4.90 133.313 68.984
4.91 136.763 71.851
4.92 137.383 73.393
4.93 136.236 74.059
4.94 135.284 74.023
4.95 133.008 73.080
4.96 127.448 70.663
4.97 115.269 66.220
4.98 --undefined-- 59.522
4.99 --undefined-- 51.967
5.00 --undefined-- 48.740
5.01 --undefined-- 48.662
5.02 --undefined-- 48.200
5.03 --undefined-- 47.633
5.04 --undefined-- 48.634
5.05 --undefined-- 55.465
5.06 --undefined-- 63.647
5.07 --undefined-- 68.071
5.08 113.179 69.110
5.09 100.275 67.742
5.10 94.693 65.618
5.11 95.747 64.683
5.12 103.878 64.869
5.13 120.006 65.549
5.14 123.302 67.618
5.15 117.684 70.204
5.16 114.715 71.666
5.17 116.188 72.191
5.18 120.133 72.325
5.19 123.934 72.178
5.20 125.128 71.672
5.21 124.021 71.031
5.22 123.447 70.920
5.23 121.648 71.363
5.24 116.635 71.507
5.25 108.700 70.666
5.26 101.100 68.857
5.27 90.495 66.895
5.28 89.395 65.551
5.29 88.054 64.977
5.30 93.744 65.076
5.31 92.644 65.241
5.32 94.176 65.483
5.33 96.446 65.892
5.34 97.510 65.830
5.35 96.736 64.391
5.36 95.690 61.010
5.37 --undefined-- 56.431
5.38 --undefined-- 57.363
5.39 --undefined-- 60.745
5.40 --undefined-- 61.040
5.41 --undefined-- 60.229
5.42 --undefined-- 63.641
5.43 112.414 68.259
5.44 114.878 70.628
5.45 118.580 71.138
5.46 116.079 70.794
5.47 111.048 70.506
5.48 108.502 70.678
5.49 110.682 71.297
5.50 111.577 72.053
5.51 112.291 72.577
5.52 113.002 72.839
5.53 114.278 73.016
5.54 115.614 73.233
5.55 116.056 73.385
5.56 115.220 73.478
5.57 115.517 73.538
5.58 112.400 73.126
5.59 107.230 71.955
5.60 104.216 70.423
5.61 98.696 68.948
5.62 94.619 67.513
5.63 95.193 66.589
5.64 95.015 66.204
5.65 93.789 65.944
5.66 93.740 66.020
5.67 97.407 66.992
5.68 100.548 68.154
5.69 102.309 68.602
5.70 103.361 68.432
5.71 104.586 67.852
5.72 104.320 66.784
5.73 102.597 65.581
5.74 119.733 64.480
5.75 77.504 62.268
5.76 --undefined-- 58.919
5.77 --undefined-- 54.561
5.78 --undefined-- 47.941
5.79 --undefined-- 41.890
5.80 --undefined-- 39.659
5.81 --undefined-- 37.949
5.82 --undefined-- 36.081
5.83 --undefined-- 37.337
5.84 --undefined-- 39.361
5.85 --undefined-- 39.480
5.86 --undefined-- 38.096
5.87 --undefined-- 36.556
5.88 --undefined-- 35.269
5.89 --undefined-- 34.828
5.90 --undefined-- 36.167
5.91 --undefined-- 38.187
5.92 --undefined-- 39.208
5.93 --undefined-- 38.753
5.94 --undefined-- 37.247
5.95 --undefined-- 35.758
5.96 --undefined-- 34.872
5.97 --undefined-- 34.426
5.98 --undefined-- 33.738
5.99 --undefined-- 32.361
6.00 --undefined-- 31.260
6.01 --undefined-- 31.901
6.02 --undefined-- 33.609
6.03 --undefined-- 34.193
6.04 --undefined-- 32.910
6.05 --undefined-- 32.369
6.06 --undefined-- 34.510
6.07 --undefined-- 35.854
6.08 --undefined-- 35.848
6.09 --undefined-- 35.540
6.10 --undefined-- 35.058
6.11 --undefined-- 35.310
6.12 --undefined-- 36.618
6.13 --undefined-- 37.153
6.14 --undefined-- 37.176
6.15 --undefined-- 37.556
6.16 --undefined-- 37.669
6.17 --undefined-- 37.249
6.18 --undefined-- 37.337
6.19 --undefined-- 38.659
6.20 --undefined-- 39.414
6.21 --undefined-- 38.745
6.22 --undefined-- 37.763
6.23 --undefined-- 37.009
6.24 --undefined-- 36.283
6.25 --undefined-- 36.302
6.26 --undefined-- 36.735
6.27 --undefined-- 36.670
6.28 --undefined-- 37.374
6.29 --undefined-- 38.283
6.30 --undefined-- 37.565
6.31 --undefined-- 37.189
6.32 --undefined-- 39.571
6.33 --undefined-- 43.643
6.34 --undefined-- 48.256
6.35 --undefined-- 50.476
6.36 --undefined-- 48.896
6.37 --undefined-- 43.938
6.38 --undefined-- 38.224
6.39 --undefined-- 36.213
6.40 --undefined-- 37.920
6.41 --undefined-- 38.494
6.42 --undefined-- 37.432
6.43 --undefined-- 37.376
6.44 --undefined-- 44.173
6.45 --undefined-- 52.255
6.46 154.145 57.994
6.47 149.105 62.270
6.48 123.690 65.196
6.49 113.123 66.929
6.50 112.389 67.769
6.51 111.951 67.951
6.52 111.594 67.650
6.53 112.016 66.983
6.54 114.015 65.326
6.55 106.244 61.629
6.56 --undefined-- 55.204
6.57 --undefined-- 46.929
6.58 --undefined-- 49.560
6.59 --undefined-- 57.262
6.60 --undefined-- 63.208
6.61 143.396 68.423
6.62 142.875 72.613
6.63 143.682 75.588
6.64 146.632 77.815
6.65 150.058 79.139
6.66 153.358 79.494
6.67 157.261 79.409
6.68 162.720 79.101
6.69 167.457 77.971
6.70 171.071 75.905
6.71 174.128 73.956
6.72 171.339 72.339
6.73 163.067 70.003
6.74 153.037 --undefined--
6.75 158.227 --undefined--
6.76 --undefined-- --undefined--
6.77 --undefined-- --undefined--
