Time Pitch Intensity
0.01 --undefined-- --undefined--
0.02 184.109 --undefined--
0.03 178.549 --undefined--
0.04 173.241 --undefined--
0.05 169.704 75.051
0.06 167.909 75.097
0.07 167.004 75.391
0.08 166.021 75.610
0.09 165.377 75.626
0.10 165.396 75.659
0.11 165.545 75.812
0.12 165.538 75.888
0.13 165.640 75.801
0.14 165.897 75.657
0.15 166.195 75.520
0.16 166.340 75.406
0.17 166.645 75.269
0.18 166.715 75.070
0.19 166.970 74.866
0.20 166.703 74.596
0.21 166.244 74.206
0.22 165.643 73.537
0.23 164.442 72.303
0.24 161.798 70.325
0.25 159.551 68.393
0.26 164.561 67.852
0.27 166.128 68.136
0.28 167.131 68.455
0.29 168.275 68.507
0.30 168.835 68.506
0.31 172.048 69.073
0.32 173.268 70.605
0.33 173.860 72.510
0.34 173.904 73.982
0.35 173.583 74.901
0.36 172.439 75.486
0.37 171.838 75.915
0.38 172.257 76.170
0.39 172.789 76.051
0.40 173.268 75.495
0.41 173.801 74.675
0.42 174.191 73.902
0.43 174.535 73.293
0.44 174.977 72.846
0.45 176.256 72.608
0.46 177.214 72.553
0.47 177.411 72.202
0.48 176.018 70.635
0.49 168.055 67.216
0.50 165.701 61.979
0.51 --undefined-- 55.870
0.52 --undefined-- 52.586
0.53 --undefined-- 53.352
0.54 --undefined-- 58.548
0.55 --undefined-- 66.920
0.56 232.149 72.519
0.57 228.691 75.118
0.58 225.714 75.736
0.59 222.737 75.475
0.60 220.448 75.126
0.61 220.046 75.030
0.62 220.026 75.043
0.63 220.688 74.826
0.64 222.297 74.233
0.65 222.447 73.436
0.66 222.051 72.813
0.67 221.650 72.622
0.68 220.660 72.855
0.69 221.071 73.233
0.70 220.596 72.973
0.71 216.620 71.160
0.72 202.949 67.529
0.73 202.916 62.588
0.74 --undefined-- 56.299
0.75 --undefined-- 48.927
0.76 --undefined-- 46.233
0.77 --undefined-- 47.039
0.78 --undefined-- 47.144
0.79 --undefined-- 47.868
0.80 --undefined-- 50.155
0.81 --undefined-- 53.151
0.82 --undefined-- 56.189
0.83 --undefined-- 61.290
0.84 224.370 67.306
0.85 206.326 71.325
0.86 203.666 73.496
0.87 199.699 74.548
0.88 193.986 74.819
0.89 187.181 74.494
0.90 182.713 73.789
0.91 179.267 73.063
0.92 177.684 72.722
0.93 175.714 72.610
0.94 173.823 72.280
0.95 172.757 71.765
0.96 172.729 71.549
0.97 173.494 71.536
0.98 173.374 71.372
0.99 173.674 71.244
1.00 174.158 71.208
1.01 174.705 71.157
1.02 174.624 71.178
1.03 175.149 71.258
1.04 175.868 71.285
1.05 176.065 71.173
1.06 175.636 70.831
1.07 173.614 70.102
1.08 171.536 68.585
1.09 170.551 65.935
1.10 177.177 62.068
1.11 193.987 57.863
1.12 --undefined-- 59.213
1.13 --undefined-- 65.325
1.14 --undefined-- 71.048
1.15 204.534 74.464
1.16 200.331 75.760
1.17 197.288 75.892
1.18 194.135 75.715
1.19 191.916 75.577
1.20 191.565 75.447
1.21 191.851 75.238
1.22 192.853 75.000
1.23 192.888 74.931
1.24 193.275 74.866
1.25 192.633 74.535
1.26 192.590 74.496
1.27 196.656 75.166
1.28 199.561 75.952
1.29 202.342 76.494
1.30 208.105 76.824
1.31 209.876 76.858
1.32 209.160 76.312
1.33 208.924 74.978
1.34 210.829 72.551
1.35 228.078 68.692
1.36 220.661 63.151
1.37 --undefined-- 56.227
1.38 --undefined-- 51.078
1.39 --undefined-- 49.090
1.40 --undefined-- 45.756
1.41 --undefined-- 41.297
1.42 --undefined-- 42.487
1.43 --undefined-- 44.433
1.44 --undefined-- 44.747
1.45 --undefined-- 44.133
1.46 --undefined-- 42.775
1.47 --undefined-- 41.170
1.48 --undefined-- 44.659
1.49 --undefined-- 51.445
1.50 --undefined-- 56.520
1.51 --undefined-- 60.698
1.52 --undefined-- 66.604
1.53 228.886 72.628
1.54 230.459 76.068
1.55 225.161 77.130
1.56 221.325 76.894
1.57 219.421 76.276
1.58 216.423 75.351
1.59 211.474 73.563
1.60 204.330 71.455
1.61 205.642 70.935
1.62 206.573 71.290
1.63 205.612 71.373
1.64 204.520 71.168
1.65 204.419 71.038
1.66 204.506 71.564
1.67 208.312 72.706
1.68 215.380 73.153
1.69 226.649 72.223
1.70 231.194 70.509
1.71 221.170 68.683
1.72 --undefined-- 66.965
1.73 --undefined-- 66.480
1.74 --undefined-- 66.456
1.75 --undefined-- 65.723
1.76 --undefined-- 65.231
1.77 175.296 66.612
1.78 164.709 68.989
1.79 162.927 70.511
1.80 157.137 70.519
1.81 145.683 69.316
1.82 141.169 67.912
1.83 139.649 66.948
1.84 141.920 66.689
1.85 147.908 67.194
1.86 151.919 67.955
1.87 154.495 68.632
1.88 156.670 69.224
1.89 159.596 69.911
1.90 162.731 70.479
1.91 167.578 70.743
1.92 173.474 70.980
1.93 184.772 71.783
1.94 188.209 73.031
1.95 194.183 73.679
1.96 199.071 73.390
1.97 200.228 72.200
1.98 195.770 70.274
1.99 195.152 68.137
2.00 197.114 65.783
2.01 202.745 63.268
2.02 205.979 63.577
2.03 243.494 68.943
2.04 220.217 73.631
2.05 217.040 75.955
2.06 212.523 76.481
2.07 207.089 76.302
2.08 201.863 76.112
2.09 197.262 75.944
2.10 192.710 75.826
2.11 189.352 75.674
2.12 185.836 75.253
2.13 183.565 74.544
2.14 182.060 73.533
2.15 180.648 71.971
2.16 182.789 69.609
2.17 189.607 66.574
2.18 196.812 63.328
2.19 197.916 60.647
2.20 --undefined-- 59.322
2.21 --undefined-- 58.751
2.22 --undefined-- 58.376
2.23 --undefined-- 58.034
2.24 --undefined-- 56.979
2.25 --undefined-- 55.951
2.26 --undefined-- 55.656
2.27 --undefined-- 57.919
2.28 258.063 64.116
2.29 266.970 69.299
2.30 274.094 72.716
2.31 269.607 74.908
2.32 263.688 75.922
2.33 257.511 75.706
2.34 252.287 74.630
2.35 249.055 73.581
2.36 249.285 73.288
2.37 250.782 73.355
2.38 251.538 73.315
2.39 251.661 73.176
2.40 251.678 73.032
2.41 251.113 72.888
2.42 250.758 72.717
2.43 250.688 72.495
2.44 250.490 72.201
2.45 249.511 71.918
2.46 248.140 71.709
2.47 245.223 71.370
2.48 238.544 70.504
2.49 227.580 68.629
2.50 216.735 65.222
2.51 203.681 60.317
2.52 216.064 55.982
2.53 --undefined-- 56.085
2.54 --undefined-- 60.382
2.55 --undefined-- 63.574
2.56 --undefined-- 67.424
2.57 256.312 72.199
2.58 255.630 75.102
2.59 252.126 75.969
2.60 247.041 75.522
2.61 243.225 74.665
2.62 241.716 73.834
2.63 240.909 73.054
2.64 240.888 72.789
2.65 242.158 73.052
2.66 241.830 73.241
2.67 240.981 73.198
2.68 239.708 73.032
2.69 238.658 72.866
2.70 237.733 72.753
2.71 237.340 72.643
2.72 236.517 72.426
2.73 235.281 71.959
2.74 232.491 71.071
2.75 227.024 69.503
2.76 219.921 67.044
2.77 213.981 63.665
2.78 214.593 59.256
2.79 --undefined-- 53.627
2.80 --undefined-- 47.852
2.81 --undefined-- 44.444
2.82 --undefined-- 43.284
2.83 --undefined-- 42.187
2.84 --undefined-- 42.583
2.85 --undefined-- 49.636
2.86 --undefined-- 59.491
2.87 --undefined-- 65.999
2.88 250.121 70.144
2.89 253.701 73.167
2.90 240.523 74.847
2.91 231.385 75.311
2.92 226.024 75.171
2.93 222.343 74.765
2.94 109.552 74.477
2.95 108.394 74.337
2.96 107.342 74.095
2.97 106.332 73.631
2.98 105.741 72.758
2.99 108.000 71.621
3.00 109.236 70.622
3.01 109.981 70.018
3.02 109.765 69.772
3.03 108.822 69.882
3.04 107.623 70.412
3.05 106.627 71.264
3.06 103.668 72.297
3.07 201.321 73.162
3.08 200.794 73.592
3.09 199.484 73.786
3.10 197.383 74.031
3.11 194.759 74.141
3.12 192.335 74.012
3.13 188.087 73.712
3.14 180.446 73.251
3.15 173.540 73.251
3.16 171.095 74.240
3.17 170.553 75.051
3.18 165.481 74.700
3.19 155.690 73.714
3.20 151.707 72.862
3.21 148.401 72.104
3.22 144.903 71.178
3.23 144.381 70.258
3.24 145.704 70.254
3.25 146.678 71.589
3.26 147.782 73.325
3.27 149.605 74.519
3.28 152.710 75.142
3.29 155.806 75.539
3.30 159.072 75.827
3.31 161.986 76.136
3.32 164.038 76.512
3.33 165.171 76.710
3.34 165.361 76.396
3.35 166.362 75.348
3.36 166.907 73.414
3.37 164.776 70.350
3.38 164.338 66.240
3.39 164.338 61.780
3.40 --undefined-- 60.295
3.41 --undefined-- 63.515
3.42 --undefined-- 68.802
3.43 169.741 73.216
3.44 168.854 75.134
3.45 163.550 75.104
3.46 158.535 74.116
3.47 156.145 72.371
3.48 151.155 69.296
3.49 154.334 64.827
3.50 156.510 60.001
3.51 165.239 57.414
3.52 --undefined-- 57.830
3.53 --undefined-- 59.291
3.54 --undefined-- 64.594
3.55 183.811 69.558
3.56 174.038 71.963
3.57 170.655 72.552
3.58 169.336 72.400
3.59 169.181 72.087
3.60 169.243 71.596
3.61 169.550 71.054
3.62 170.440 70.741
3.63 171.251 70.601
3.64 171.937 70.533
3.65 172.276 70.574
3.66 172.525 70.644
3.67 172.561 70.743
3.68 172.244 70.819
3.69 172.264 70.756
3.70 172.341 70.559
3.71 171.416 70.148
3.72 169.584 69.152
3.73 167.340 67.119
3.74 165.349 63.544
3.75 154.909 59.342
3.76 --undefined-- 59.880
3.77 --undefined-- 62.745
3.78 --undefined-- 67.545
3.79 --undefined-- 72.778
3.80 191.132 75.629
3.81 186.533 76.533
3.82 179.072 76.590
3.83 173.680 76.364
3.84 168.811 76.129
3.85 164.936 75.827
3.86 161.921 75.216
3.87 --undefined-- 74.241
3.88 --undefined-- 72.700
3.89 --undefined-- 69.886
3.90 --undefined-- 65.202
3.91 --undefined-- 58.563
3.92 --undefined-- 51.548
3.93 --undefined-- 48.520
3.94 --undefined-- 46.193
3.95 --undefined-- 43.139
3.96 --undefined-- 41.865
3.97 --undefined-- 44.207
3.98 --undefined-- 46.911
3.99 --undefined-- 48.707
4.00 --undefined-- 49.880
4.01 --undefined-- 50.382
4.02 --undefined-- 50.047
4.03 --undefined-- 49.828
4.04 --undefined-- 50.642
4.05 --undefined-- 51.370
4.06 --undefined-- 51.476
4.07 --undefined-- 51.665
4.08 --undefined-- 52.117
4.09 --undefined-- 52.485
4.10 --undefined-- 53.285
4.11 --undefined-- 54.648
4.12 --undefined-- 55.250
4.13 --undefined-- 54.772
4.14 --undefined-- 54.285
4.15 --undefined-- 54.927
4.16 --undefined-- 55.508
4.17 --undefined-- 55.028
4.18 --undefined-- 54.208
4.19 --undefined-- 53.751
4.20 --undefined-- 53.650
4.21 --undefined-- 53.802
4.22 --undefined-- 53.237
4.23 --undefined-- 52.139
4.24 --undefined-- 51.632
4.25 --undefined-- 51.658
4.26 --undefined-- 52.072
4.27 --undefined-- 52.735
4.28 --undefined-- 52.806
4.29 --undefined-- 51.081
4.30 --undefined-- 48.454
4.31 --undefined-- 51.204
4.32 --undefined-- 60.034
4.33 --undefined-- 66.805
4.34 198.551 70.236
4.35 205.696 71.845
4.36 219.581 73.006
4.37 231.938 73.911
4.38 241.890 74.671
4.39 249.708 75.442
4.40 256.952 75.832
4.41 267.570 75.702
4.42 282.427 75.475
4.43 288.363 75.213
4.44 288.215 75.299
4.45 153.292 76.701
4.46 157.272 77.514
4.47 154.405 76.575
4.48 278.507 74.941
4.49 246.966 74.329
4.50 228.189 74.421
4.51 213.881 74.237
4.52 200.319 73.828
4.53 191.190 73.482
4.54 186.446 73.113
4.55 183.351 72.717
4.56 181.649 72.129
4.57 183.044 71.026
4.58 188.685 68.925
4.59 182.948 65.254
4.60 --undefined-- 59.731
4.61 --undefined-- 53.841
4.62 --undefined-- 50.530
4.63 --undefined-- 51.049
4.64 --undefined-- 57.982
4.65 --undefined-- 65.960
4.66 170.499 71.156
4.67 166.888 74.099
4.68 164.449 75.712
4.69 163.364 76.519
4.70 163.080 76.892
4.71 162.711 76.888
4.72 162.215 76.518
4.73 161.889 76.080
4.74 162.007 75.627
4.75 163.534 74.941
4.76 163.977 73.832
4.77 161.418 71.801
4.78 154.403 68.358
4.79 152.793 63.902
4.80 159.540 59.624
4.81 --undefined-- 55.209
4.82 --undefined-- 54.177
4.83 217.713 59.133
4.84 211.013 65.085
4.85 205.344 70.208
4.86 208.599 73.442
4.87 212.139 75.048
4.88 213.213 75.523
4.89 215.365 75.455
4.90 220.457 75.314
4.91 228.505 75.027
4.92 239.761 74.249
4.93 254.788 73.160
4.94 260.343 72.432
4.95 260.789 72.141
4.96 259.080 72.321
4.97 257.991 72.915
4.98 254.598 73.526
4.99 243.734 74.064
5.00 226.757 74.673
5.01 214.911 75.108
5.02 203.599 75.223
5.03 193.389 75.190
5.04 188.802 75.136
5.05 185.208 74.980
5.06 183.509 74.547
5.07 181.851 74.433
5.08 179.652 75.072
5.09 179.769 75.681
5.10 177.111 75.674
5.11 172.286 75.387
5.12 169.663 75.357
5.13 167.906 75.381
5.14 166.992 75.197
5.15 168.858 --undefined--
5.16 172.499 --undefined--
5.17 --undefined-- --undefined--
5.18 --undefined-- --undefined--
