Time Pitch Intensity
0.01 --undefined-- --undefined--
0.02 100.575 --undefined--
0.03 99.789 --undefined--
0.04 98.702 --undefined--
0.05 99.693 70.117
0.06 102.278 69.940
0.07 113.366 71.996
0.08 116.295 74.722
0.09 119.082 76.595
0.10 121.677 76.906
0.11 123.730 75.533
0.12 135.944 74.138
0.13 153.660 74.744
0.14 162.741 75.823
0.15 176.100 76.517
0.16 186.173 76.997
0.17 192.908 77.344
0.18 194.629 77.422
0.19 194.020 77.006
0.20 188.667 76.165
0.21 178.545 75.166
0.22 160.352 74.807
0.23 147.775 75.365
0.24 133.194 75.309
0.25 115.455 74.056
0.26 104.801 72.558
0.27 96.276 71.521
0.28 97.467 70.013
0.29 93.474 67.205
0.30 --undefined-- 62.970
0.31 --undefined-- 57.534
0.32 --undefined-- 55.966
0.33 --undefined-- 60.813
0.34 --undefined-- 64.541
0.35 --undefined-- 66.968
0.36 --undefined-- 68.107
0.37 --undefined-- 67.626
0.38 --undefined-- 65.771
0.39 --undefined-- 63.580
0.40 --undefined-- 62.930
0.41 --undefined-- 66.675
0.42 206.002 73.091
0.43 215.711 77.223
0.44 220.224 78.905
0.45 222.384 79.310
0.46 219.312 78.840
0.47 209.993 76.502
0.48 --undefined-- 71.413
0.49 --undefined-- 63.670
0.50 --undefined-- 56.606
0.51 --undefined-- 51.635
0.52 --undefined-- 48.410
0.53 --undefined-- 49.028
0.54 --undefined-- 51.371
0.55 --undefined-- 54.865
0.56 87.786 58.355
0.57 77.575 61.278
0.58 77.553 63.993
0.59 79.730 66.999
0.60 154.051 69.861
0.61 152.079 72.004
0.62 150.833 73.545
0.63 147.194 74.639
0.64 143.270 75.365
0.65 139.120 75.806
0.66 133.926 75.996
0.67 131.904 76.253
0.68 125.771 76.891
0.69 119.660 77.513
0.70 115.148 77.675
0.71 110.175 77.497
0.72 107.327 77.388
0.73 105.092 77.348
0.74 104.368 77.132
0.75 105.084 76.795
0.76 105.963 76.467
0.77 107.114 76.227
0.78 108.526 76.144
0.79 110.461 76.325
0.80 112.826 76.673
0.81 115.627 76.961
0.82 120.325 77.252
0.83 123.430 77.421
0.84 129.097 77.163
0.85 138.321 76.871
0.86 142.577 77.038
0.87 149.249 77.169
0.88 158.230 77.250
0.89 167.606 77.668
0.90 173.065 77.980
0.91 179.294 77.939
0.92 182.669 78.081
0.93 183.463 78.613
0.94 183.474 79.079
0.95 184.358 79.226
0.96 184.140 79.257
0.97 183.643 79.382
0.98 187.284 79.499
0.99 192.265 79.307
1.00 194.090 78.884
1.01 194.037 78.679
1.02 193.869 78.647
1.03 193.165 78.514
1.04 191.614 78.205
1.05 189.364 77.714
1.06 185.759 77.081
1.07 180.864 76.319
1.08 176.915 74.813
1.09 167.264 71.770
1.10 155.250 66.730
1.11 154.432 60.032
1.12 169.821 55.337
1.13 169.710 54.334
1.14 174.318 53.081
1.15 --undefined-- 50.554
1.16 --undefined-- 48.057
1.17 --undefined-- 47.738
1.18 --undefined-- 48.817
1.19 --undefined-- 50.234
1.20 --undefined-- 51.494
1.21 --undefined-- 52.497
1.22 --undefined-- 53.033
1.23 --undefined-- 52.988
1.24 --undefined-- 53.027
1.25 --undefined-- 53.350
1.26 --undefined-- 53.528
1.27 --undefined-- 53.477
1.28 --undefined-- 52.877
1.29 --undefined-- 51.823
1.30 --undefined-- 50.953
1.31 --undefined-- 50.788
1.32 --undefined-- 50.978
1.33 --undefined-- 50.305
1.34 --undefined-- 47.564
1.35 --undefined-- 43.274
1.36 --undefined-- 45.645
1.37 --undefined-- 49.385
1.38 --undefined-- 50.207
1.39 --undefined-- 53.211
1.40 --undefined-- 63.359
1.41 --undefined-- 70.625
1.42 142.355 75.081
1.43 139.916 77.723
1.44 138.993 78.920
1.45 138.192 78.616
1.46 135.265 76.601
1.47 120.622 72.578
1.48 98.629 66.520
1.49 96.101 60.136
1.50 133.767 57.218
1.51 133.588 55.557
1.52 134.932 53.028
1.53 --undefined-- 49.835
1.54 --undefined-- 47.798
1.55 --undefined-- 48.012
1.56 --undefined-- 47.914
1.57 --undefined-- 46.462
1.58 --undefined-- 43.435
1.59 --undefined-- 40.163
1.60 --undefined-- 39.973
1.61 --undefined-- 40.432
1.62 --undefined-- 40.045
1.63 --undefined-- 47.703
1.64 --undefined-- 62.073
1.65 --undefined-- 71.921
1.66 226.117 77.600
1.67 217.911 80.101
1.68 209.416 80.609
1.69 202.626 80.594
1.70 200.183 80.721
1.71 200.320 80.715
1.72 201.054 80.576
1.73 202.478 80.512
1.74 205.121 80.415
1.75 209.208 80.058
1.76 213.138 79.390
1.77 212.419 78.448
1.78 207.573 77.249
1.79 198.477 75.554
1.80 186.958 73.272
1.81 166.062 71.174
1.82 149.040 71.295
1.83 146.472 73.131
1.84 137.998 74.218
1.85 125.880 74.351
1.86 119.463 74.463
1.87 114.393 74.801
1.88 111.009 75.020
1.89 108.711 75.261
1.90 107.510 75.574
1.91 107.168 75.586
1.92 107.604 75.151
1.93 108.693 74.645
1.94 109.734 74.358
1.95 111.124 74.260
1.96 111.086 74.101
1.97 109.219 73.567
1.98 106.213 72.530
1.99 103.887 71.318
2.00 106.193 72.671
2.01 137.406 76.850
2.02 131.008 79.260
2.03 124.027 79.680
2.04 119.661 79.302
2.05 118.124 79.030
2.06 119.037 78.966
2.07 120.728 79.005
2.08 122.001 79.173
2.09 123.577 79.467
2.10 123.746 79.896
2.11 122.444 80.163
2.12 120.660 79.262
2.13 120.457 76.519
2.14 118.771 72.167
2.15 103.639 67.782
2.16 117.736 65.536
2.17 124.949 65.661
2.18 132.975 68.923
2.19 137.639 73.739
2.20 140.952 77.523
2.21 143.747 79.708
2.22 148.601 80.736
2.23 155.475 81.181
2.24 163.661 81.031
2.25 120.273 79.995
2.26 123.311 78.578
2.27 118.023 77.683
2.28 --undefined-- 76.978
2.29 --undefined-- 75.689
2.30 --undefined-- 73.147
2.31 --undefined-- 70.504
2.32 --undefined-- 69.053
2.33 --undefined-- 68.721
2.34 153.754 72.039
2.35 154.073 76.727
2.36 159.795 79.755
2.37 173.321 80.782
2.38 177.774 80.028
2.39 164.512 77.532
2.40 153.534 73.377
2.41 171.142 68.545
2.42 170.011 65.595
2.43 167.197 63.603
2.44 161.307 60.850
2.45 --undefined-- 57.078
2.46 --undefined-- 53.353
2.47 --undefined-- 56.280
2.48 --undefined-- 60.217
2.49 --undefined-- 66.041
2.50 --undefined-- 72.673
2.51 148.242 76.854
2.52 142.720 78.548
2.53 134.881 78.501
2.54 128.671 77.902
2.55 126.792 77.537
2.56 123.765 77.049
2.57 122.823 76.569
2.58 122.859 76.595
2.59 118.514 76.957
2.60 116.522 77.369
2.61 115.924 77.686
2.62 114.111 77.840
2.63 113.104 77.880
2.64 110.382 77.592
2.65 109.482 76.477
2.66 108.339 73.889
2.67 106.472 69.579
2.68 --undefined-- 65.510
2.69 --undefined-- 64.514
2.70 --undefined-- 63.382
2.71 --undefined-- 61.714
2.72 --undefined-- 61.314
2.73 --undefined-- 64.059
2.74 --undefined-- 70.259
2.75 --undefined-- 74.906
2.76 --undefined-- 76.664
2.77 95.623 75.926
2.78 99.923 74.269
2.79 100.610 73.302
2.80 98.426 73.637
2.81 97.396 74.068
2.82 105.754 73.522
2.83 108.776 72.786
2.84 110.130 72.646
2.85 109.000 73.114
2.86 105.215 73.935
2.87 106.389 74.759
2.88 109.359 75.354
2.89 112.592 75.683
2.90 118.430 75.997
2.91 123.138 76.543
2.92 128.755 77.379
2.93 135.060 78.352
2.94 138.729 79.394
2.95 140.949 80.203
2.96 143.173 80.231
2.97 144.915 79.299
2.98 144.918 77.507
2.99 143.005 74.953
3.00 138.441 71.357
3.01 133.711 66.162
3.02 142.223 59.848
3.03 143.464 54.979
3.04 --undefined-- 51.963
3.05 --undefined-- 50.591
3.06 --undefined-- 50.504
3.07 --undefined-- 50.001
3.08 --undefined-- 48.613
3.09 --undefined-- 51.865
3.10 --undefined-- 58.871
3.11 --undefined-- 62.833
3.12 --undefined-- 65.347
3.13 --undefined-- 68.004
3.14 --undefined-- 70.539
3.15 96.039 72.392
3.16 105.261 73.699
3.17 105.372 74.723
3.18 104.222 75.882
3.19 106.727 77.039
3.20 106.422 77.252
3.21 104.623 76.882
3.22 105.054 76.884
3.23 105.036 76.762
3.24 101.907 76.429
3.25 99.551 76.132
3.26 99.454 75.815
3.27 100.200 75.534
3.28 100.398 75.342
3.29 104.184 75.219
3.30 104.553 75.081
3.31 105.750 75.203
3.32 103.308 75.758
3.33 98.872 76.162
3.34 96.911 76.108
3.35 95.769 75.880
3.36 95.705 75.625
3.37 99.675 75.377
3.38 102.943 75.616
3.39 107.036 76.552
3.40 109.134 77.336
3.41 110.743 77.458
3.42 114.681 77.224
3.43 116.689 76.982
3.44 119.450 76.843
3.45 121.614 76.410
3.46 123.157 74.916
3.47 138.729 71.795
3.48 127.097 67.329
3.49 127.217 63.397
3.50 133.372 60.753
3.51 135.243 57.790
3.52 --undefined-- 54.653
3.53 --undefined-- 52.844
3.54 --undefined-- 51.066
3.55 --undefined-- 48.966
3.56 --undefined-- 47.384
3.57 --undefined-- 45.723
3.58 --undefined-- 44.088
3.59 --undefined-- 54.062
3.60 --undefined-- 63.630
3.61 --undefined-- 69.452
3.62 135.330 73.000
3.63 138.563 75.319
3.64 140.172 76.985
3.65 140.873 78.136
3.66 136.390 78.683
3.67 132.606 78.786
3.68 128.706 78.664
3.69 127.142 78.174
3.70 127.003 77.373
3.71 126.410 76.255
3.72 129.678 74.854
3.73 134.103 73.656
3.74 138.986 73.298
3.75 143.278 73.768
3.76 146.966 74.603
3.77 151.975 75.858
3.78 156.505 77.237
3.79 161.845 78.235
3.80 165.424 78.675
3.81 169.878 78.629
3.82 174.021 78.395
3.83 176.766 78.158
3.84 180.342 78.238
3.85 184.987 78.732
3.86 191.008 79.250
3.87 205.638 79.538
3.88 218.756 79.673
3.89 229.563 79.858
3.90 243.654 79.947
3.91 250.864 79.683
3.92 254.686 78.580
3.93 257.179 76.607
3.94 273.971 75.259
3.95 280.116 74.658
3.96 284.997 74.029
3.97 283.054 73.693
3.98 276.190 73.536
3.99 266.143 73.520
4.00 254.107 74.432
4.01 242.084 76.229
4.02 227.330 77.387
4.03 199.066 77.350
4.04 180.829 77.496
4.05 174.226 78.463
4.06 170.354 79.171
4.07 169.154 79.176
4.08 174.756 78.387
4.09 188.436 77.089
4.10 199.127 76.982
4.11 205.121 78.885
4.12 217.149 80.650
4.13 219.106 80.998
4.14 221.916 80.328
4.15 224.819 79.186
4.16 225.159 76.778
4.17 214.189 72.430
4.18 201.547 67.291
4.19 203.423 63.016
4.20 216.152 58.017
4.21 --undefined-- 53.315
4.22 --undefined-- 51.867
4.23 --undefined-- 56.942
4.24 --undefined-- 66.609
4.25 172.948 72.946
4.26 164.678 76.361
4.27 156.501 77.772
4.28 150.948 77.628
4.29 142.891 76.454
4.30 137.050 75.459
4.31 133.565 75.144
4.32 130.834 75.190
4.33 127.758 74.994
4.34 122.687 74.410
4.35 120.418 73.947
4.36 119.951 73.795
4.37 119.271 73.916
4.38 118.773 74.330
4.39 117.401 74.150
4.40 117.069 72.461
4.41 113.371 69.286
4.42 117.398 66.123
4.43 120.682 63.573
4.44 119.834 60.501
4.45 118.823 56.174
4.46 --undefined-- 50.916
4.47 --undefined-- 49.890
4.48 --undefined-- 55.222
4.49 --undefined-- 61.164
4.50 --undefined-- 66.367
4.51 119.373 69.598
4.52 114.767 70.902
4.53 108.382 71.018
4.54 106.121 70.707
4.55 105.181 70.457
4.56 105.768 70.473
4.57 107.905 70.590
4.58 111.248 70.359
4.59 115.502 69.860
4.60 121.325 69.666
4.61 127.064 69.947
4.62 133.066 70.453
4.63 140.995 71.246
4.64 147.227 72.213
4.65 152.974 72.855
4.66 157.067 72.964
4.67 159.485 72.557
4.68 161.577 71.418
4.69 162.416 69.095
4.70 162.699 65.382
4.71 155.848 61.447
4.72 157.728 63.163
4.73 --undefined-- 69.518
4.74 --undefined-- 73.727
4.75 --undefined-- 75.332
4.76 --undefined-- 75.226
4.77 115.650 74.522
4.78 113.625 73.770
4.79 113.297 72.997
4.80 112.715 72.069
4.81 113.695 71.381
4.82 120.735 71.513
4.83 123.895 71.835
4.84 127.750 71.934
4.85 131.610 71.996
4.86 134.438 72.165
4.87 136.924 72.276
4.88 138.617 72.172
4.89 140.713 72.131
4.90 142.237 72.586
4.91 139.199 73.051
4.92 138.632 73.083
4.93 137.776 72.932
4.94 137.575 72.966
4.95 136.568 73.219
4.96 134.800 73.360
4.97 131.799 72.666
4.98 127.479 70.473
4.99 130.896 67.111
5.00 134.616 63.724
5.01 132.265 59.790
5.02 137.260 57.218
5.03 138.185 64.332
5.04 153.962 71.438
5.05 155.701 75.551
5.06 154.213 77.138
5.07 146.009 76.733
5.08 132.663 75.869
5.09 127.172 --undefined--
5.10 122.927 --undefined--
5.11 --undefined-- --undefined--
5.12 --undefined-- --undefined--
