Time Pitch Intensity
0.01 --undefined-- --undefined--
0.02 83.225 --undefined--
0.03 83.317 --undefined--
0.04 84.851 --undefined--
0.05 85.334 63.591
0.06 87.041 60.592
0.07 90.537 58.728
0.08 93.400 56.337
0.09 96.932 53.430
0.10 --undefined-- 55.111
0.11 --undefined-- 61.085
0.12 --undefined-- 65.986
0.13 98.345 68.852
0.14 95.860 69.920
0.15 92.910 69.968
0.16 90.872 69.350
0.17 84.083 68.094
0.18 77.350 66.789
0.19 --undefined-- 65.695
0.20 --undefined-- 63.931
0.21 80.824 61.042
0.22 79.409 57.467
0.23 78.964 54.318
0.24 77.084 52.982
0.25 79.430 53.549
0.26 --undefined-- 54.983
0.27 --undefined-- 56.479
0.28 --undefined-- 58.530
0.29 --undefined-- 62.950
0.30 --undefined-- 67.101
0.31 79.144 69.583
0.32 80.175 70.690
0.33 81.085 70.783
0.34 81.953 70.600
0.35 83.308 70.536
0.36 83.752 70.144
0.37 84.231 68.704
0.38 --undefined-- 65.556
0.39 --undefined-- 59.996
0.40 --undefined-- 52.259
0.41 --undefined-- 46.329
0.42 --undefined-- 43.446
0.43 --undefined-- 41.638
0.44 --undefined-- 40.365
0.45 --undefined-- 44.826
0.46 --undefined-- 53.110
0.47 94.739 60.062
0.48 96.448 65.560
0.49 96.009 69.772
0.50 95.696 72.268
0.51 94.824 72.990
0.52 92.774 72.689
0.53 92.569 71.951
0.54 92.339 70.315
0.55 91.285 67.280
0.56 --undefined-- 62.824
0.57 --undefined-- 57.302
0.58 --undefined-- 51.018
0.59 --undefined-- 44.785
0.60 --undefined-- 41.459
0.61 --undefined-- 39.908
0.62 --undefined-- 38.914
0.63 --undefined-- 38.257
0.64 --undefined-- 38.080
0.65 --undefined-- 41.555
0.66 --undefined-- 46.965
0.67 80.186 51.591
0.68 79.155 55.194
0.69 78.282 58.731
0.70 78.113 62.647
0.71 79.503 66.408
0.72 80.181 69.391
0.73 85.881 70.976
0.74 88.085 70.963
0.75 90.837 69.897
0.76 93.887 68.953
0.77 96.286 69.213
0.78 95.077 69.848
0.79 93.182 69.758
0.80 91.101 69.137
0.81 87.736 68.761
0.82 80.942 68.823
0.83 --undefined-- 68.810
0.84 --undefined-- 67.986
0.85 --undefined-- 65.524
0.86 --undefined-- 61.496
0.87 --undefined-- 57.099
0.88 --undefined-- 54.582
0.89 --undefined-- 52.879
0.90 --undefined-- 50.704
0.91 --undefined-- 49.773
0.92 --undefined-- 49.264
0.93 --undefined-- 48.432
0.94 --undefined-- 48.534
0.95 --undefined-- 50.403
0.96 --undefined-- 55.295
0.97 --undefined-- 60.230
0.98 --undefined-- 64.393
0.99 --undefined-- 67.504
1.00 --undefined-- 69.109
1.01 --undefined-- 69.663
1.02 --undefined-- 70.061
1.03 --undefined-- 70.742
1.04 --undefined-- 70.918
1.05 82.763 70.697
1.06 84.711 70.807
1.07 87.918 70.940
1.08 74.639 70.769
1.09 75.241 70.346
1.10 76.020 69.657
1.11 76.542 68.509
1.12 --undefined-- 66.849
1.13 266.651 64.226
1.14 269.167 59.727
1.15 267.569 53.702
1.16 --undefined-- 48.332
1.17 --undefined-- 41.810
1.18 --undefined-- 34.655
1.19 --undefined-- 35.913
1.20 --undefined-- 37.191
1.21 --undefined-- 36.858
1.22 --undefined-- 36.095
1.23 --undefined-- 35.224
1.24 --undefined-- 34.480
1.25 --undefined-- 35.011
1.26 --undefined-- 36.187
1.27 --undefined-- 36.185
1.28 --undefined-- 36.614
1.29 --undefined-- 37.280
1.30 --undefined-- 38.284
1.31 --undefined-- 39.692
1.32 --undefined-- 39.772
1.33 --undefined-- 40.147
1.34 --undefined-- 41.213
1.35 --undefined-- 41.319
1.36 --undefined-- 40.793
1.37 --undefined-- 40.818
1.38 --undefined-- 42.295
1.39 --undefined-- 49.346
1.40 --undefined-- 58.582
1.41 --undefined-- 65.174
1.42 84.035 69.091
1.43 82.533 71.037
1.44 81.587 71.452
1.45 80.901 70.759
1.46 79.945 69.901
1.47 80.661 69.623
1.48 81.379 69.920
1.49 82.074 70.184
1.50 82.693 69.611
1.51 --undefined-- 67.491
1.52 --undefined-- 63.016
1.53 --undefined-- 55.840
1.54 --undefined-- 47.612
1.55 --undefined-- 41.410
1.56 --undefined-- 37.527
1.57 --undefined-- 35.514
1.58 --undefined-- 35.789
1.59 --undefined-- 42.063
1.60 --undefined-- 51.987
1.61 --undefined-- 59.862
1.62 93.275 65.507
1.63 91.588 69.584
1.64 91.456 72.076
1.65 84.652 72.900
1.66 83.055 72.337
1.67 83.795 71.007
1.68 84.420 69.685
1.69 85.150 68.731
1.70 86.311 68.257
1.71 87.175 68.328
1.72 87.255 68.296
1.73 88.460 68.007
1.74 88.199 67.852
1.75 86.983 67.738
1.76 85.501 67.436
1.77 85.570 67.031
1.78 88.020 66.702
1.79 88.347 66.499
1.80 87.231 66.094
1.81 86.273 64.799
1.82 86.518 61.885
1.83 --undefined-- 56.619
1.84 --undefined-- 49.856
1.85 --undefined-- 48.015
1.86 --undefined-- 47.658
1.87 --undefined-- 46.643
1.88 --undefined-- 45.836
1.89 --undefined-- 49.474
1.90 --undefined-- 56.843
1.91 --undefined-- 60.482
1.92 --undefined-- 60.677
1.93 --undefined-- 62.597
1.94 --undefined-- 66.791
1.95 97.977 69.273
1.96 95.834 70.455
1.97 92.391 71.135
1.98 88.331 71.425
1.99 85.990 71.485
2.00 83.467 71.658
2.01 79.660 71.846
2.02 76.712 71.625
2.03 --undefined-- 70.899
2.04 --undefined-- 70.093
2.05 --undefined-- 69.981
2.06 74.909 69.878
2.07 76.150 69.190
2.08 75.878 68.264
2.09 75.659 68.306
2.10 79.524 70.152
2.11 79.462 71.872
2.12 78.609 72.601
2.13 76.614 72.715
2.14 75.331 72.470
2.15 74.902 72.059
2.16 75.207 71.573
2.17 77.178 70.752
2.18 --undefined-- 69.476
2.19 89.491 68.214
2.20 91.660 67.752
2.21 94.865 68.312
2.22 95.856 69.432
2.23 95.089 70.299
2.24 92.787 70.815
2.25 92.411 71.195
2.26 86.312 71.102
2.27 78.808 70.511
2.28 --undefined-- 69.037
2.29 --undefined-- 66.183
2.30 --undefined-- 62.009
2.31 --undefined-- 56.401
2.32 --undefined-- 50.022
2.33 --undefined-- 45.003
2.34 --undefined-- 42.236
2.35 --undefined-- 41.239
2.36 --undefined-- 42.957
2.37 --undefined-- 46.347
2.38 --undefined-- 50.746
2.39 76.273 55.213
2.40 --undefined-- 59.579
2.41 --undefined-- 63.494
2.42 79.873 66.487
2.43 79.673 67.911
2.44 79.124 67.702
2.45 80.389 67.460
2.46 80.280 67.321
2.47 80.374 65.807
2.48 --undefined-- 62.308
2.49 --undefined-- 56.046
2.50 --undefined-- 47.217
2.51 --undefined-- 43.086
2.52 --undefined-- 42.475
2.53 --undefined-- 42.522
2.54 --undefined-- 43.418
2.55 --undefined-- 49.781
2.56 --undefined-- 58.564
2.57 --undefined-- 65.789
2.58 --undefined-- 70.452
2.59 --undefined-- 72.333
2.60 --undefined-- 72.371
2.61 89.527 72.028
2.62 86.114 71.634
2.63 86.564 71.032
2.64 87.794 70.715
2.65 89.544 70.881
2.66 89.667 70.810
2.67 90.084 70.076
2.68 90.649 68.752
2.69 89.736 66.639
2.70 --undefined-- 63.065
2.71 --undefined-- 57.356
2.72 --undefined-- 49.520
2.73 --undefined-- 43.189
2.74 --undefined-- 45.410
2.75 --undefined-- 54.533
2.76 --undefined-- 62.411
2.77 --undefined-- 67.653
2.78 --undefined-- 70.652
2.79 81.521 71.826
2.80 78.013 71.918
2.81 77.688 71.750
2.82 77.665 71.810
2.83 77.636 72.266
2.84 76.121 72.353
2.85 75.805 71.887
2.86 75.414 71.037
2.87 87.128 69.392
2.88 --undefined-- 66.616
2.89 --undefined-- 62.572
2.90 --undefined-- 57.377
2.91 --undefined-- 50.254
2.92 --undefined-- 41.107
2.93 --undefined-- 35.455
2.94 --undefined-- 34.483
2.95 --undefined-- 36.143
2.96 --undefined-- 37.453
2.97 --undefined-- 36.631
2.98 --undefined-- 35.797
2.99 --undefined-- 36.519
3.00 --undefined-- 36.839
3.01 --undefined-- 36.880
3.02 --undefined-- 37.986
3.03 --undefined-- 44.796
3.04 --undefined-- 56.268
3.05 --undefined-- 65.371
3.06 --undefined-- 70.867
3.07 96.004 73.567
3.08 88.387 74.269
3.09 82.300 73.414
3.10 82.190 71.219
3.11 78.354 68.054
3.12 --undefined-- 64.013
3.13 --undefined-- 59.052
3.14 --undefined-- 53.986
3.15 --undefined-- 49.888
3.16 --undefined-- 45.984
3.17 --undefined-- 41.181
3.18 --undefined-- 37.716
3.19 --undefined-- 35.926
3.20 --undefined-- 35.230
3.21 --undefined-- 37.653
3.22 --undefined-- 42.435
3.23 --undefined-- 46.272
3.24 --undefined-- 48.899
3.25 --undefined-- 50.146
3.26 --undefined-- 49.932
3.27 --undefined-- 48.792
3.28 --undefined-- 47.543
3.29 --undefined-- 46.018
3.30 --undefined-- 43.764
3.31 --undefined-- 41.414
3.32 --undefined-- 40.069
3.33 --undefined-- 39.304
3.34 --undefined-- 38.649
3.35 --undefined-- 39.794
3.36 --undefined-- 42.256
3.37 --undefined-- 45.571
3.38 --undefined-- 51.388
3.39 95.466 57.788
3.40 92.617 62.898
3.41 91.138 65.770
3.42 90.907 66.254
3.43 90.853 64.582
3.44 89.508 61.090
3.45 --undefined-- 56.743
3.46 --undefined-- 54.085
3.47 --undefined-- 53.670
3.48 --undefined-- 53.685
3.49 --undefined-- 53.724
3.50 --undefined-- 54.481
3.51 --undefined-- 56.281
3.52 --undefined-- 58.847
3.53 --undefined-- 61.077
3.54 --undefined-- 65.688
3.55 --undefined-- 70.785
3.56 --undefined-- 73.277
3.57 --undefined-- 73.280
3.58 --undefined-- 71.249
3.59 --undefined-- 67.659
3.60 --undefined-- 62.574
3.61 --undefined-- 54.744
3.62 --undefined-- 44.613
3.63 --undefined-- 38.509
3.64 --undefined-- 37.504
3.65 --undefined-- 37.874
3.66 --undefined-- 37.452
3.67 --undefined-- 36.273
3.68 --undefined-- 37.705
3.69 --undefined-- 39.952
3.70 --undefined-- 42.888
3.71 --undefined-- 47.962
3.72 77.447 53.533
3.73 77.163 58.584
3.74 76.819 63.125
3.75 76.684 66.867
3.76 76.369 68.971
3.77 76.045 69.254
3.78 74.759 67.981
3.79 74.448 65.771
3.80 --undefined-- 63.145
3.81 --undefined-- 59.060
3.82 --undefined-- 52.052
3.83 --undefined-- 43.872
3.84 --undefined-- 38.856
3.85 --undefined-- 36.405
3.86 --undefined-- 40.426
3.87 --undefined-- 47.854
3.88 --undefined-- 52.083
3.89 --undefined-- 55.362
3.90 --undefined-- 60.019
3.91 75.479 63.410
3.92 74.617 64.742
3.93 87.839 64.085
3.94 88.657 62.269
3.95 --undefined-- 60.569
3.96 79.217 59.855
3.97 79.941 60.174
3.98 83.240 61.057
3.99 85.481 63.525
4.00 85.377 66.625
4.01 82.408 68.774
4.02 81.297 69.981
4.03 79.076 70.425
4.04 76.347 70.239
4.05 74.408 69.718
4.06 87.019 69.154
4.07 86.569 68.787
4.08 87.302 68.618
4.09 75.434 68.629
4.10 75.999 68.668
4.11 76.250 68.314
4.12 75.554 66.453
4.13 75.116 62.153
4.14 --undefined-- 55.486
4.15 --undefined-- 47.316
4.16 --undefined-- 41.218
4.17 --undefined-- 38.311
4.18 --undefined-- 35.743
4.19 --undefined-- 36.032
4.20 --undefined-- 35.959
4.21 --undefined-- 34.904
4.22 --undefined-- 34.478
4.23 --undefined-- 35.017
4.24 --undefined-- 35.271
4.25 --undefined-- 35.896
4.26 --undefined-- 36.692
4.27 --undefined-- 37.722
4.28 --undefined-- 38.001
4.29 --undefined-- 37.291
4.30 --undefined-- 37.857
4.31 --undefined-- 38.928
4.32 --undefined-- 38.851
4.33 --undefined-- 38.773
4.34 --undefined-- 39.011
4.35 --undefined-- 38.853
4.36 --undefined-- 37.951
4.37 --undefined-- 37.603
4.38 --undefined-- 38.607
4.39 --undefined-- 39.092
4.40 --undefined-- 40.843
4.41 --undefined-- 43.712
4.42 --undefined-- 44.427
4.43 --undefined-- 43.597
4.44 --undefined-- 42.918
4.45 --undefined-- 42.461
4.46 --undefined-- 42.684
4.47 --undefined-- 43.128
4.48 --undefined-- 42.692
4.49 --undefined-- 41.573
4.50 --undefined-- 41.201
4.51 --undefined-- 41.013
4.52 --undefined-- 40.547
4.53 --undefined-- 40.607
4.54 --undefined-- 40.205
4.55 --undefined-- 38.903
4.56 --undefined-- 38.082
4.57 --undefined-- 38.342
4.58 --undefined-- 38.417
4.59 --undefined-- 38.329
4.60 --undefined-- 38.580
4.61 --undefined-- 38.012
4.62 --undefined-- 35.828
4.63 --undefined-- 34.636
4.64 --undefined-- 35.410
4.65 --undefined-- 35.731
4.66 --undefined-- 36.415
4.67 --undefined-- 36.469
4.68 --undefined-- 36.234
4.69 --undefined-- 37.287
4.70 --undefined-- 41.947
4.71 --undefined-- 49.802
4.72 --undefined-- 57.256
4.73 87.398 63.346
4.74 85.245 67.655
4.75 85.037 70.328
4.76 85.547 71.771
4.77 84.462 72.171
4.78 --undefined-- 71.306
4.79 --undefined-- 68.808
4.80 --undefined-- 65.931
4.81 --undefined-- 64.899
4.82 --undefined-- 64.001
4.83 --undefined-- 62.079
4.84 92.184 60.716
4.85 92.502 62.836
4.86 92.628 67.361
4.87 91.477 70.926
4.88 87.895 72.344
4.89 85.331 72.148
4.90 84.741 71.643
4.91 84.208 71.523
4.92 82.818 71.502
4.93 82.659 71.070
4.94 83.199 70.325
4.95 86.052 69.506
4.96 88.757 68.237
4.97 93.889 66.409
4.98 99.217 63.640
4.99 --undefined-- 58.968
5.00 --undefined-- 51.679
5.01 --undefined-- 41.893
5.02 --undefined-- 34.964
5.03 --undefined-- 34.092
5.04 --undefined-- 36.958
5.05 --undefined-- 47.916
5.06 --undefined-- 57.973
5.07 --undefined-- 65.083
5.08 --undefined-- 69.732
5.09 --undefined-- 72.352
5.10 90.452 73.565
5.11 88.772 73.448
5.12 89.382 71.863
5.13 108.157 68.595
5.14 107.811 62.950
5.15 109.911 55.484
5.16 --undefined-- 49.276
5.17 --undefined-- 53.640
5.18 --undefined-- 62.755
5.19 105.128 68.763
5.20 104.473 71.909
5.21 104.466 72.720
5.22 105.732 71.957
5.23 105.971 70.352
5.24 105.652 68.037
5.25 104.794 64.637
5.26 104.038 59.658
5.27 --undefined-- 52.768
5.28 --undefined-- 44.227
5.29 --undefined-- 37.236
5.30 --undefined-- 37.388
5.31 --undefined-- 40.494
5.32 --undefined-- 42.432
5.33 --undefined-- 42.236
5.34 --undefined-- 47.724
5.35 --undefined-- 56.953
5.36 100.640 63.285
5.37 82.138 67.266
5.38 82.426 69.604
5.39 82.556 70.682
5.40 80.162 70.662
5.41 82.768 70.371
5.42 81.012 69.895
5.43 80.264 68.294
5.44 --undefined-- 65.011
5.45 --undefined-- 59.446
5.46 --undefined-- 51.641
5.47 --undefined-- 43.078
5.48 --undefined-- 37.407
5.49 --undefined-- 35.363
5.50 --undefined-- 34.463
5.51 --undefined-- 34.294
5.52 --undefined-- 35.118
5.53 --undefined-- 35.717
5.54 --undefined-- 36.979
5.55 --undefined-- 40.239
5.56 --undefined-- 45.088
5.57 --undefined-- 50.821
5.58 --undefined-- 59.226
5.59 --undefined-- 65.640
5.60 --undefined-- 69.667
5.61 --undefined-- 71.715
5.62 95.283 72.290
5.63 92.160 72.116
5.64 92.024 71.935
5.65 91.817 71.823
5.66 91.542 71.574
5.67 91.798 71.051
5.68 92.791 70.153
5.69 93.348 69.265
5.70 93.315 68.906
5.71 93.503 68.897
5.72 94.198 68.959
5.73 94.201 69.128
5.74 93.895 69.254
5.75 94.649 69.165
5.76 94.619 69.310
5.77 94.541 69.892
5.78 94.526 70.815
5.79 94.154 71.987
5.80 93.615 72.822
5.81 91.294 73.105
5.82 91.218 73.084
5.83 90.068 72.842
5.84 89.313 72.427
5.85 88.743 71.825
5.86 88.664 71.045
5.87 89.069 69.998
5.88 89.497 68.284
5.89 91.387 65.486
5.90 --undefined-- 61.426
5.91 --undefined-- 55.532
5.92 --undefined-- 48.456
5.93 --undefined-- 42.801
5.94 --undefined-- 40.403
5.95 --undefined-- 39.293
5.96 --undefined-- 38.104
5.97 --undefined-- 38.592
5.98 --undefined-- 39.731
5.99 --undefined-- 42.081
6.00 --undefined-- 46.273
6.01 --undefined-- 52.429
6.02 111.394 60.066
6.03 111.930 66.460
6.04 111.921 70.242
6.05 109.319 71.508
6.06 107.555 71.287
6.07 105.549 70.487
6.08 102.533 69.101
6.09 100.562 67.943
6.10 102.068 68.566
6.11 104.905 70.276
6.12 105.911 71.603
6.13 104.507 72.411
6.14 102.989 72.982
6.15 100.362 73.060
6.16 96.235 72.707
6.17 94.352 72.246
6.18 89.865 71.401
6.19 --undefined-- 69.556
6.20 --undefined-- 66.269
6.21 --undefined-- 61.118
6.22 --undefined-- 53.339
6.23 --undefined-- 44.397
6.24 --undefined-- 37.501
6.25 --undefined-- 37.024
6.26 --undefined-- 37.307
6.27 --undefined-- 37.254
6.28 --undefined-- 38.968
6.29 --undefined-- 42.740
6.30 --undefined-- 49.270
6.31 80.493 55.703
6.32 80.971 60.952
6.33 80.688 64.420
6.34 80.138 65.683
6.35 95.048 64.753
6.36 93.426 61.860
6.37 --undefined-- 59.244
6.38 --undefined-- 62.816
6.39 --undefined-- 68.086
6.40 94.793 70.849
6.41 96.248 71.462
6.42 96.706 71.228
6.43 95.037 --undefined--
6.44 92.499 --undefined--
6.45 --undefined-- --undefined--
6.46 --undefined-- --undefined--
