Time Pitch Intensity
0.01 --undefined-- --undefined--
0.02 99.466 --undefined--
0.03 103.077 --undefined--
0.04 101.659 --undefined--
0.05 101.806 63.355
0.06 102.663 64.744
0.07 103.340 65.534
0.08 103.692 66.079
0.09 104.959 66.480
0.10 105.318 66.874
0.11 105.431 67.203
0.12 104.090 67.319
0.13 103.041 67.307
0.14 101.639 67.193
0.15 100.810 66.859
0.16 101.404 66.541
0.17 100.575 66.460
0.18 100.138 66.373
0.19 100.568 66.379
0.20 100.844 66.607
0.21 101.173 66.655
0.22 101.350 66.437
0.23 100.954 66.089
0.24 99.929 65.602
0.25 99.095 65.083
0.26 96.718 64.533
0.27 93.362 64.091
0.28 91.648 63.778
0.29 103.764 63.092
0.30 101.676 62.053
0.31 102.073 60.008
0.32 --undefined-- 56.745
0.33 --undefined-- 52.666
0.34 --undefined-- 47.056
0.35 --undefined-- 41.296
0.36 --undefined-- 39.689
0.37 --undefined-- 38.417
0.38 --undefined-- 37.055
0.39 --undefined-- 36.425
0.40 --undefined-- 36.356
0.41 --undefined-- 37.049
0.42 --undefined-- 36.971
0.43 --undefined-- 36.125
0.44 --undefined-- 36.785
0.45 --undefined-- 37.630
0.46 --undefined-- 38.209
0.47 --undefined-- 45.148
0.48 --undefined-- 55.115
0.49 --undefined-- 61.077
0.50 --undefined-- 65.166
0.51 --undefined-- 68.997
0.52 89.450 70.943
0.53 89.130 70.926
0.54 89.114 69.955
0.55 --undefined-- 68.371
0.56 --undefined-- 65.906
0.57 --undefined-- 62.319
0.58 --undefined-- 57.715
0.59 --undefined-- 53.822
0.60 --undefined-- 49.398
0.61 --undefined-- 43.436
0.62 --undefined-- 42.814
0.63 --undefined-- 44.505
0.64 --undefined-- 45.771
0.65 --undefined-- 46.429
0.66 --undefined-- 47.136
0.67 --undefined-- 48.674
0.68 --undefined-- 50.424
0.69 --undefined-- 51.490
0.70 --undefined-- 51.183
0.71 --undefined-- 49.052
0.72 --undefined-- 45.593
0.73 --undefined-- 44.241
0.74 --undefined-- 45.390
0.75 --undefined-- 47.032
0.76 --undefined-- 50.577
0.77 --undefined-- 56.109
0.78 --undefined-- 60.260
0.79 --undefined-- 62.214
0.80 --undefined-- 62.372
0.81 --undefined-- 61.036
0.82 --undefined-- 58.449
0.83 --undefined-- 54.570
0.84 --undefined-- 49.311
0.85 --undefined-- 45.318
0.86 --undefined-- 44.570
0.87 --undefined-- 44.423
0.88 --undefined-- 44.374
0.89 --undefined-- 48.499
0.90 --undefined-- 54.077
0.91 --undefined-- 58.388
0.92 --undefined-- 61.384
0.93 --undefined-- 63.107
0.94 --undefined-- 63.354
0.95 --undefined-- 62.049
0.96 --undefined-- 59.412
0.97 --undefined-- 55.525
0.98 --undefined-- 49.964
0.99 --undefined-- 43.401
1.00 --undefined-- 41.299
1.01 --undefined-- 45.336
1.02 --undefined-- 51.651
1.03 --undefined-- 56.669
1.04 --undefined-- 59.594
1.05 --undefined-- 62.702
1.06 --undefined-- 66.145
1.07 --undefined-- 67.169
1.08 --undefined-- 65.305
1.09 --undefined-- 60.853
1.10 --undefined-- 54.479
1.11 --undefined-- 49.752
1.12 --undefined-- 48.628
1.13 --undefined-- 47.851
1.14 --undefined-- 47.153
1.15 --undefined-- 46.874
1.16 --undefined-- 46.864
1.17 --undefined-- 46.456
1.18 --undefined-- 45.956
1.19 --undefined-- 45.529
1.20 --undefined-- 44.893
1.21 --undefined-- 47.118
1.22 --undefined-- 55.238
1.23 --undefined-- 60.698
1.24 --undefined-- 62.312
1.25 --undefined-- 61.982
1.26 --undefined-- 63.030
1.27 --undefined-- 63.902
1.28 --undefined-- 63.562
1.29 --undefined-- 63.721
1.30 --undefined-- 64.954
1.31 --undefined-- 65.058
1.32 --undefined-- 63.181
1.33 --undefined-- 60.610
1.34 --undefined-- 60.277
1.35 --undefined-- 61.976
1.36 --undefined-- 62.594
1.37 --undefined-- 62.439
1.38 --undefined-- 61.620
1.39 --undefined-- 58.750
1.40 --undefined-- 54.893
1.41 --undefined-- 53.261
1.42 --undefined-- 51.505
1.43 --undefined-- 47.241
1.44 --undefined-- 41.675
1.45 --undefined-- 39.810
1.46 --undefined-- 39.378
1.47 --undefined-- 39.607
1.48 --undefined-- 39.984
1.49 --undefined-- 39.088
1.50 --undefined-- 38.110
1.51 --undefined-- 38.094
1.52 --undefined-- 37.700
1.53 --undefined-- 39.085
1.54 --undefined-- 41.555
1.55 --undefined-- 42.245
1.56 --undefined-- 41.937
1.57 --undefined-- 42.016
1.58 --undefined-- 42.409
1.59 --undefined-- 42.836
1.60 --undefined-- 43.076
1.61 --undefined-- 42.857
1.62 --undefined-- 42.284
1.63 --undefined-- 41.935
1.64 --undefined-- 41.655
1.65 --undefined-- 41.220
1.66 --undefined-- 40.391
1.67 --undefined-- 39.466
1.68 --undefined-- 38.982
1.69 --undefined-- 38.041
1.70 --undefined-- 36.218
1.71 --undefined-- 34.981
1.72 --undefined-- 35.624
1.73 --undefined-- 37.582
1.74 --undefined-- 37.884
1.75 --undefined-- 36.926
1.76 --undefined-- 37.682
1.77 --undefined-- 37.977
1.78 --undefined-- 37.649
1.79 --undefined-- 43.322
1.80 --undefined-- 48.507
1.81 --undefined-- 51.100
1.82 --undefined-- 53.804
1.83 --undefined-- 59.910
1.84 138.157 65.962
1.85 133.291 69.417
1.86 124.301 70.517
1.87 121.033 70.584
1.88 118.700 70.520
1.89 117.104 70.198
1.90 115.179 69.112
1.91 111.030 66.650
1.92 104.377 62.691
1.93 98.980 58.900
1.94 98.134 60.796
1.95 98.826 65.964
1.96 99.963 69.926
1.97 99.297 71.955
1.98 98.188 71.961
1.99 96.687 70.161
2.00 95.077 66.758
2.01 --undefined-- 61.511
2.02 --undefined-- 54.183
2.03 --undefined-- 45.019
2.04 --undefined-- 38.608
2.05 --undefined-- 37.863
2.06 --undefined-- 42.559
2.07 --undefined-- 48.662
2.08 --undefined-- 51.686
2.09 --undefined-- 53.956
2.10 --undefined-- 59.114
2.11 108.814 63.063
2.12 106.677 64.910
2.13 104.537 65.673
2.14 104.702 66.018
2.15 107.160 65.757
2.16 107.994 64.563
2.17 106.646 61.868
2.18 --undefined-- 56.848
2.19 --undefined-- 49.649
2.20 --undefined-- 44.950
2.21 --undefined-- 48.028
2.22 --undefined-- 51.501
2.23 --undefined-- 54.686
2.24 --undefined-- 58.624
2.25 113.997 63.463
2.26 110.201 67.184
2.27 106.856 68.692
2.28 104.322 68.737
2.29 102.601 68.327
2.30 99.798 67.932
2.31 97.212 67.450
2.32 96.510 66.565
2.33 93.795 65.079
2.34 --undefined-- 63.186
2.35 --undefined-- 60.625
2.36 --undefined-- 58.125
2.37 --undefined-- 57.813
2.38 --undefined-- 55.952
2.39 --undefined-- 50.306
2.40 --undefined-- 40.783
2.41 --undefined-- 36.041
2.42 --undefined-- 45.913
2.43 --undefined-- 55.108
2.44 --undefined-- 60.548
2.45 --undefined-- 64.456
2.46 106.538 67.387
2.47 103.586 68.547
2.48 102.757 67.703
2.49 102.925 65.105
2.50 104.063 61.577
2.51 107.664 58.914
2.52 111.215 58.408
2.53 113.186 58.542
2.54 113.657 57.508
2.55 --undefined-- 54.892
2.56 --undefined-- 51.794
2.57 --undefined-- 50.317
2.58 --undefined-- 52.529
2.59 --undefined-- 55.607
2.60 --undefined-- 57.337
2.61 --undefined-- 59.201
2.62 --undefined-- 62.878
2.63 114.624 65.670
2.64 111.328 66.491
2.65 109.427 66.105
2.66 106.640 65.257
2.67 105.611 63.848
2.68 102.344 61.499
2.69 97.394 58.135
2.70 --undefined-- 54.245
2.71 --undefined-- 52.101
2.72 --undefined-- 53.271
2.73 --undefined-- 55.054
2.74 --undefined-- 56.086
2.75 --undefined-- 56.574
2.76 --undefined-- 57.733
2.77 --undefined-- 60.631
2.78 112.710 63.159
2.79 109.435 64.297
2.80 108.276 64.812
2.81 108.043 65.482
2.82 108.621 66.268
2.83 107.739 66.801
2.84 107.397 66.806
2.85 107.753 66.403
2.86 107.991 65.948
2.87 107.292 65.411
2.88 105.386 64.276
2.89 102.371 62.798
2.90 101.572 63.660
2.91 101.558 66.358
2.92 99.253 67.409
2.93 --undefined-- 66.035
2.94 --undefined-- 62.229
2.95 --undefined-- 55.743
2.96 --undefined-- 46.122
2.97 --undefined-- 38.607
2.98 --undefined-- 42.999
2.99 --undefined-- 49.748
3.00 --undefined-- 53.295
3.01 --undefined-- 53.501
3.02 --undefined-- 51.890
3.03 --undefined-- 51.884
3.04 --undefined-- 52.644
3.05 --undefined-- 52.576
3.06 --undefined-- 52.159
3.07 --undefined-- 51.614
3.08 --undefined-- 50.984
3.09 --undefined-- 51.411
3.10 --undefined-- 54.442
3.11 --undefined-- 57.641
3.12 --undefined-- 58.850
3.13 --undefined-- 58.297
3.14 --undefined-- 57.793
3.15 106.696 59.352
3.16 101.566 61.227
3.17 101.524 62.271
3.18 101.926 62.735
3.19 102.524 62.664
3.20 102.778 61.575
3.21 102.065 58.885
3.22 --undefined-- 54.154
3.23 --undefined-- 50.817
3.24 --undefined-- 57.921
3.25 --undefined-- 63.523
3.26 --undefined-- 67.593
3.27 --undefined-- 70.509
3.28 --undefined-- 71.711
3.29 --undefined-- 71.016
3.30 --undefined-- 68.640
3.31 87.695 66.275
3.32 87.814 65.469
3.33 --undefined-- 64.345
3.34 --undefined-- 61.874
3.35 --undefined-- 58.648
3.36 --undefined-- 54.633
3.37 --undefined-- 48.775
3.38 --undefined-- 42.238
3.39 --undefined-- 43.322
3.40 --undefined-- 52.286
3.41 --undefined-- 61.102
3.42 --undefined-- 66.516
3.43 --undefined-- 68.961
3.44 99.757 69.415
3.45 102.464 69.110
3.46 105.997 68.726
3.47 106.812 68.159
3.48 107.190 67.331
3.49 107.261 65.840
3.50 --undefined-- 62.919
3.51 --undefined-- 57.731
3.52 --undefined-- 50.472
3.53 --undefined-- 53.120
3.54 --undefined-- 58.368
3.55 --undefined-- 60.256
3.56 --undefined-- 61.287
3.57 --undefined-- 62.079
3.58 --undefined-- 61.244
3.59 --undefined-- 60.626
3.60 --undefined-- 62.096
3.61 117.210 64.533
3.62 114.656 65.918
3.63 107.667 65.645
3.64 105.445 64.630
3.65 104.390 63.567
3.66 103.677 61.491
3.67 101.807 58.268
3.68 101.906 54.571
3.69 103.392 51.374
3.70 103.917 50.224
3.71 102.649 49.861
3.72 --undefined-- 49.270
3.73 --undefined-- 47.780
3.74 --undefined-- 44.871
3.75 --undefined-- 41.834
3.76 --undefined-- 42.782
3.77 --undefined-- 46.258
3.78 --undefined-- 49.420
3.79 --undefined-- 58.380
3.80 --undefined-- 65.912
3.81 104.128 69.718
3.82 105.235 70.545
3.83 104.141 69.623
3.84 102.773 68.668
3.85 102.829 67.805
3.86 102.317 66.673
3.87 102.549 65.364
3.88 102.922 63.680
3.89 103.305 61.263
3.90 103.532 58.121
3.91 103.419 54.849
3.92 101.853 51.913
3.93 --undefined-- 49.335
3.94 --undefined-- 47.344
3.95 --undefined-- 46.959
3.96 --undefined-- 47.522
3.97 --undefined-- 48.705
3.98 --undefined-- 50.457
3.99 --undefined-- 52.125
4.00 --undefined-- 53.126
4.01 --undefined-- 53.090
4.02 --undefined-- 52.315
4.03 --undefined-- 53.331
4.04 106.889 55.984
4.05 106.471 57.383
4.06 103.804 57.059
4.07 103.576 55.570
4.08 101.842 53.734
4.09 100.534 52.092
4.10 99.761 50.707
4.11 99.930 49.834
4.12 100.925 49.746
4.13 100.708 49.933
4.14 100.484 50.809
4.15 100.197 53.282
4.16 99.639 56.449
4.17 100.922 58.967
4.18 101.275 60.710
4.19 102.438 62.120
4.20 103.496 63.478
4.21 104.337 64.771
4.22 104.299 65.766
4.23 103.267 66.222
4.24 99.996 66.364
4.25 --undefined-- 66.086
4.26 89.885 65.567
4.27 87.555 65.251
4.28 85.421 65.194
4.29 85.005 65.054
4.30 84.321 64.328
4.31 82.363 63.405
4.32 81.685 62.167
4.33 86.744 59.948
4.34 --undefined-- 57.236
4.35 --undefined-- 53.425
4.36 --undefined-- 48.658
4.37 --undefined-- 45.581
4.38 --undefined-- 44.600
4.39 --undefined-- 43.065
4.40 --undefined-- 39.954
4.41 --undefined-- 38.073
4.42 --undefined-- 35.821
4.43 --undefined-- 30.021
4.44 --undefined-- 19.306
4.45 --undefined-- 3.010
4.46 --undefined-- -1.816
4.47 --undefined-- -1.915
4.48 --undefined-- -1.880
4.49 --undefined-- -1.912
4.50 --undefined-- -1.625
4.51 --undefined-- -1.442
4.52 --undefined-- -1.776
4.53 --undefined-- -2.009
4.54 --undefined-- -1.898
4.55 --undefined-- -1.842
4.56 --undefined-- -2.186
4.57 --undefined-- -2.602
4.58 --undefined-- -2.530
4.59 --undefined-- -2.410
4.60 --undefined-- -2.843
4.61 --undefined-- -3.148
4.62 --undefined-- -2.824
4.63 --undefined-- 10.053
4.64 --undefined-- 26.586
4.65 --undefined-- 36.105
4.66 --undefined-- 40.919
4.67 --undefined-- 42.227
4.68 --undefined-- 41.590
4.69 --undefined-- 41.714
4.70 --undefined-- 43.032
4.71 --undefined-- 43.818
4.72 --undefined-- 43.987
4.73 --undefined-- 45.459
4.74 --undefined-- 52.708
4.75 --undefined-- 58.368
4.76 --undefined-- 59.600
4.77 --undefined-- 57.004
4.78 --undefined-- 57.776
4.79 --undefined-- 64.175
4.80 --undefined-- 68.709
4.81 105.125 70.335
4.82 105.332 69.220
4.83 --undefined-- 65.524
4.84 --undefined-- 59.244
4.85 111.360 54.075
4.86 117.396 54.846
4.87 120.235 56.276
4.88 125.300 57.177
4.89 126.820 57.798
4.90 130.178 58.495
4.91 131.858 59.290
4.92 133.369 60.139
4.93 134.802 60.951
4.94 135.513 61.554
4.95 138.280 62.156
4.96 139.067 62.853
4.97 139.369 63.304
4.98 141.101 63.441
4.99 142.303 63.439
5.00 142.947 63.517
5.01 142.391 63.819
5.02 142.198 64.308
5.03 141.445 64.682
5.04 141.361 64.658
5.05 141.319 64.446
5.06 142.258 64.499
5.07 141.838 64.867
5.08 142.595 64.893
5.09 143.102 63.884
5.10 145.978 62.049
5.11 143.960 60.038
5.12 143.410 57.073
5.13 --undefined-- 52.715
5.14 --undefined-- 47.175
5.15 --undefined-- 41.210
5.16 --undefined-- 36.968
5.17 --undefined-- 36.715
5.18 --undefined-- 36.303
5.19 --undefined-- 35.347
5.20 --undefined-- 35.656
5.21 --undefined-- 35.775
5.22 --undefined-- 35.926
5.23 --undefined-- 37.561
5.24 --undefined-- 40.560
5.25 --undefined-- 43.276
5.26 --undefined-- 43.404
5.27 --undefined-- 40.989
5.28 --undefined-- 41.113
5.29 --undefined-- 43.406
5.30 --undefined-- 44.273
5.31 --undefined-- 43.886
5.32 --undefined-- 43.347
5.33 --undefined-- 43.256
5.34 --undefined-- 43.339
5.35 --undefined-- 43.357
5.36 --undefined-- 43.232
5.37 --undefined-- 49.060
5.38 --undefined-- 61.276
5.39 --undefined-- 68.478
5.40 --undefined-- 70.944
5.41 --undefined-- 70.544
5.42 --undefined-- 71.790
5.43 146.901 74.396
5.44 147.187 74.934
5.45 146.945 72.709
5.46 147.079 67.359
5.47 149.610 58.865
5.48 150.295 52.908
5.49 152.457 52.596
5.50 153.066 53.116
5.51 148.281 54.181
5.52 146.615 55.727
5.53 138.913 58.283
5.54 136.922 61.986
5.55 133.972 64.334
5.56 132.010 64.739
5.57 133.276 64.351
5.58 134.947 63.999
5.59 139.174 63.535
5.60 143.288 62.979
5.61 146.060 62.905
5.62 152.001 63.617
5.63 151.599 63.555
5.64 --undefined-- 61.366
5.65 --undefined-- 58.025
5.66 --undefined-- 56.406
5.67 --undefined-- 56.792
5.68 --undefined-- 58.369
5.69 --undefined-- 60.021
5.70 --undefined-- 60.803
5.71 --undefined-- 60.682
5.72 --undefined-- 63.495
5.73 --undefined-- 69.157
5.74 --undefined-- 72.636
5.75 --undefined-- 73.764
5.76 124.421 73.855
5.77 121.716 73.749
5.78 121.107 72.877
5.79 121.115 70.844
5.80 121.038 68.190
5.81 120.932 66.412
5.82 119.945 65.798
5.83 112.604 64.741
5.84 --undefined-- 62.414
5.85 --undefined-- 59.489
5.86 --undefined-- 58.364
5.87 105.972 58.805
5.88 101.555 59.842
5.89 101.358 61.518
5.90 101.655 63.172
5.91 103.303 64.998
5.92 103.648 66.862
5.93 101.463 68.059
5.94 102.116 67.993
5.95 101.464 67.118
5.96 101.726 66.269
5.97 101.393 65.425
5.98 101.232 63.879
5.99 97.763 60.865
6.00 97.385 57.547
6.01 100.141 --undefined--
6.02 102.727 --undefined--
6.03 --undefined-- --undefined--
6.04 --undefined-- --undefined--
