Time Pitch Intensity
0.01 --undefined-- --undefined--
0.02 193.428 --undefined--
0.03 191.037 --undefined--
0.04 186.531 --undefined--
0.05 177.334 77.538
0.06 170.066 76.154
0.07 165.336 74.083
0.08 154.201 71.049
0.09 135.909 68.360
0.10 136.551 68.455
0.11 139.018 70.362
0.12 143.852 72.285
0.13 146.067 74.014
0.14 144.838 75.656
0.15 142.830 77.248
0.16 140.053 78.477
0.17 137.253 79.088
0.18 134.817 79.166
0.19 133.091 79.002
0.20 132.308 78.827
0.21 133.217 78.716
0.22 128.375 78.757
0.23 124.321 78.937
0.24 121.677 78.959
0.25 119.325 78.543
0.26 117.382 77.748
0.27 116.965 76.893
0.28 117.052 76.111
0.29 116.142 75.560
0.30 113.722 75.213
0.31 --undefined-- 74.414
0.32 --undefined-- 72.598
0.33 --undefined-- 69.987
0.34 --undefined-- 66.555
0.35 --undefined-- 61.081
0.36 --undefined-- 54.105
0.37 --undefined-- 50.121
0.38 --undefined-- 48.576
0.39 --undefined-- 47.937
0.40 --undefined-- 47.084
0.41 --undefined-- 45.743
0.42 --undefined-- 47.495
0.43 118.167 52.990
0.44 118.735 57.717
0.45 123.855 61.069
0.46 135.175 63.734
0.47 140.359 66.099
0.48 143.018 68.018
0.49 144.111 69.527
0.50 145.959 70.819
0.51 149.157 71.925
0.52 151.913 72.693
0.53 153.739 73.132
0.54 155.176 73.323
0.55 157.518 73.300
0.56 160.926 73.500
0.57 168.333 75.363
0.58 175.856 77.987
0.59 180.203 79.168
0.60 175.123 79.062
0.61 174.053 79.090
0.62 171.827 79.071
0.63 168.574 78.615
0.64 164.889 78.248
0.65 160.521 77.625
0.66 158.050 75.785
0.67 165.406 73.607
0.68 160.186 72.942
0.69 156.194 73.411
0.70 153.590 74.194
0.71 149.566 75.063
0.72 146.920 76.014
0.73 141.996 76.599
0.74 133.243 76.462
0.75 127.723 76.283
0.76 124.344 76.479
0.77 122.081 76.492
0.78 120.073 76.242
0.79 117.869 76.060
0.80 116.875 76.098
0.81 116.923 76.282
0.82 116.851 76.449
0.83 116.006 76.391
0.84 114.103 75.405
0.85 111.517 72.591
0.86 101.572 67.637
0.87 111.411 61.358
0.88 --undefined-- 55.614
0.89 --undefined-- 50.726
0.90 --undefined-- 47.748
0.91 --undefined-- 52.107
0.92 --undefined-- 56.922
0.93 --undefined-- 60.061
0.94 --undefined-- 61.575
0.95 --undefined-- 61.657
0.96 --undefined-- 61.296
0.97 --undefined-- 60.336
0.98 --undefined-- 58.173
0.99 --undefined-- 55.937
1.00 --undefined-- 56.183
1.01 --undefined-- 62.075
1.02 124.560 67.273
1.03 121.540 69.592
1.04 106.339 69.896
1.05 103.771 69.713
1.06 102.092 69.747
1.07 98.866 69.763
1.08 100.336 69.807
1.09 101.940 70.101
1.10 102.978 70.549
1.11 104.751 71.120
1.12 106.041 71.855
1.13 108.852 72.657
1.14 111.923 73.491
1.15 115.655 74.403
1.16 119.887 75.241
1.17 123.336 75.951
1.18 126.981 76.629
1.19 130.061 77.105
1.20 133.990 77.286
1.21 137.958 77.155
1.22 139.688 76.500
1.23 139.410 74.973
1.24 131.783 72.476
1.25 122.891 69.999
1.26 117.695 68.383
1.27 112.405 66.674
1.28 105.777 63.980
1.29 --undefined-- 60.489
1.30 --undefined-- 58.557
1.31 159.562 59.700
1.32 155.245 60.635
1.33 153.283 60.723
1.34 153.344 60.635
1.35 151.318 60.538
1.36 149.619 60.375
1.37 148.103 60.030
1.38 147.128 59.527
1.39 147.801 58.913
1.40 148.925 58.286
1.41 149.136 57.861
1.42 149.247 57.605
1.43 147.352 57.293
1.44 144.512 56.346
1.45 142.820 54.212
1.46 --undefined-- 51.013
1.47 --undefined-- 47.578
1.48 --undefined-- 43.849
1.49 --undefined-- 39.547
1.50 --undefined-- 38.351
1.51 --undefined-- 45.777
1.52 --undefined-- 52.388
1.53 --undefined-- 55.966
1.54 --undefined-- 57.826
1.55 --undefined-- 59.028
1.56 --undefined-- 60.116
1.57 --undefined-- 61.501
1.58 --undefined-- 62.660
1.59 --undefined-- 63.054
1.60 137.314 64.656
1.61 127.409 68.062
1.62 117.279 70.419
1.63 114.138 71.519
1.64 110.802 71.938
1.65 109.160 72.130
1.66 107.031 72.327
1.67 106.134 72.441
1.68 104.976 72.406
1.69 104.662 72.286
1.70 104.555 72.099
1.71 104.927 71.769
1.72 104.361 71.234
1.73 103.019 70.367
1.74 99.595 68.723
1.75 94.845 66.072
1.76 100.455 63.164
1.77 --undefined-- 61.175
1.78 --undefined-- 62.386
1.79 --undefined-- 67.631
1.80 --undefined-- 72.869
1.81 121.011 75.832
1.82 121.401 77.221
1.83 125.713 78.108
1.84 128.397 78.548
1.85 131.162 78.427
1.86 137.596 78.029
1.87 143.304 77.615
1.88 147.631 77.265
1.89 153.201 77.175
1.90 157.336 77.529
1.91 160.394 78.448
1.92 162.938 79.822
1.93 164.617 80.853
1.94 167.727 80.686
1.95 168.792 78.926
1.96 163.230 75.466
1.97 168.614 70.930
1.98 166.335 67.515
1.99 163.115 64.569
2.00 160.036 60.271
2.01 --undefined-- 55.389
2.02 --undefined-- 53.628
2.03 --undefined-- 55.772
2.04 --undefined-- 59.229
2.05 --undefined-- 61.239
2.06 144.273 65.526
2.07 156.528 71.339
2.08 138.295 74.925
2.09 132.189 76.579
2.10 128.450 77.323
2.11 126.055 77.770
2.12 124.431 78.017
2.13 125.937 78.085
2.14 127.248 78.357
2.15 132.344 79.025
2.16 136.124 79.802
2.17 142.877 80.638
2.18 146.062 81.416
2.19 148.188 81.802
2.20 151.259 81.471
2.21 157.883 80.272
2.22 168.398 78.566
2.23 169.580 77.004
2.24 169.620 75.751
2.25 166.763 75.332
2.26 167.150 77.048
2.27 174.768 79.493
2.28 172.449 80.507
2.29 161.812 80.257
2.30 --undefined-- 79.239
2.31 --undefined-- 77.614
2.32 --undefined-- 76.066
2.33 107.349 75.113
2.34 103.644 74.394
2.35 98.902 73.670
2.36 96.336 72.594
2.37 85.223 70.429
2.38 94.336 68.197
2.39 93.919 67.971
2.40 92.655 68.610
2.41 95.249 69.503
2.42 98.747 70.566
2.43 103.718 71.668
2.44 112.133 72.750
2.45 121.667 73.808
2.46 129.686 74.722
2.47 140.594 75.888
2.48 152.747 77.561
2.49 157.072 78.830
2.50 162.537 79.264
2.51 167.753 79.139
2.52 171.916 78.768
2.53 176.133 78.524
2.54 176.833 78.548
2.55 176.802 78.556
2.56 174.333 78.086
2.57 171.978 76.356
2.58 171.414 72.463
2.59 170.104 65.868
2.60 173.416 57.419
2.61 --undefined-- 52.442
2.62 --undefined-- 51.729
2.63 --undefined-- 51.720
2.64 --undefined-- 52.164
2.65 --undefined-- 52.931
2.66 --undefined-- 53.609
2.67 --undefined-- 53.594
2.68 --undefined-- 53.356
2.69 --undefined-- 53.421
2.70 --undefined-- 53.472
2.71 --undefined-- 53.664
2.72 --undefined-- 53.805
2.73 --undefined-- 53.284
2.74 --undefined-- 52.160
2.75 --undefined-- 51.033
2.76 --undefined-- 50.079
2.77 --undefined-- 49.344
2.78 --undefined-- 48.722
2.79 --undefined-- 47.734
2.80 --undefined-- 45.694
2.81 --undefined-- 45.266
2.82 --undefined-- 48.702
2.83 --undefined-- 51.792
2.84 134.150 53.587
2.85 133.855 54.709
2.86 132.946 57.359
2.87 186.422 65.046
2.88 196.783 72.224
2.89 207.060 77.043
2.90 219.661 79.802
2.91 224.798 80.456
2.92 225.222 79.050
2.93 221.553 76.551
2.94 219.924 73.850
2.95 87.837 70.101
2.96 90.774 66.658
2.97 --undefined-- 65.106
2.98 --undefined-- 65.412
2.99 --undefined-- 66.276
3.00 --undefined-- 66.937
3.01 --undefined-- 67.720
3.02 --undefined-- 67.438
3.03 --undefined-- 65.601
3.04 --undefined-- 63.678
3.05 --undefined-- 64.141
3.06 --undefined-- 69.429
3.07 164.218 74.598
3.08 162.657 77.169
3.09 159.324 77.692
3.10 152.815 77.222
3.11 150.738 76.648
3.12 151.196 76.452
3.13 150.766 76.494
3.14 149.990 76.333
3.15 149.156 75.772
3.16 149.195 75.109
3.17 150.775 74.954
3.18 150.687 75.164
3.19 150.695 75.371
3.20 150.694 75.493
3.21 150.900 75.538
3.22 151.809 75.495
3.23 153.055 75.031
3.24 151.610 73.726
3.25 152.772 71.872
3.26 154.607 69.858
3.27 155.979 67.414
3.28 156.380 65.290
3.29 155.948 68.843
3.30 204.776 74.868
3.31 201.965 78.288
3.32 200.803 79.385
3.33 198.687 79.489
3.34 196.871 79.748
3.35 195.575 80.047
3.36 195.149 79.940
3.37 195.689 79.276
3.38 197.479 78.157
3.39 195.617 77.364
3.40 188.121 78.085
3.41 182.805 79.523
3.42 173.408 80.207
3.43 163.640 80.161
3.44 156.436 79.652
3.45 145.087 78.800
3.46 139.359 77.976
3.47 135.370 77.086
3.48 134.231 76.634
3.49 134.049 76.987
3.50 134.248 77.735
3.51 133.873 78.250
3.52 131.558 78.074
3.53 127.584 76.841
3.54 129.771 74.023
3.55 126.304 69.483
3.56 124.973 64.319
3.57 --undefined-- 60.108
3.58 --undefined-- 58.947
3.59 --undefined-- 59.655
3.60 --undefined-- 59.640
3.61 --undefined-- 60.171
3.62 --undefined-- 61.100
3.63 80.976 61.399
3.64 81.240 61.593
3.65 81.336 61.325
3.66 80.985 60.271
3.67 82.393 59.374
3.68 81.985 60.905
3.69 112.726 65.364
3.70 113.498 68.997
3.71 107.176 70.678
3.72 103.502 71.084
3.73 103.285 71.548
3.74 104.505 72.352
3.75 105.463 73.051
3.76 107.861 73.817
3.77 110.656 74.804
3.78 114.072 75.750
3.79 118.495 76.532
3.80 123.550 77.353
3.81 129.287 78.371
3.82 136.267 79.333
3.83 142.796 79.683
3.84 147.288 78.786
3.85 150.512 76.379
3.86 159.190 73.635
3.87 161.934 72.441
3.88 166.925 73.926
3.89 173.781 77.711
3.90 171.302 80.188
3.91 165.700 80.887
3.92 160.376 80.819
3.93 153.948 79.938
3.94 142.768 77.502
3.95 129.241 73.976
3.96 138.682 72.080
3.97 133.529 72.703
3.98 127.837 73.550
3.99 123.460 73.977
4.00 121.672 74.277
4.01 121.132 74.562
4.02 117.886 74.436
4.03 110.702 73.788
4.04 107.665 73.101
4.05 105.525 72.320
4.06 102.257 71.129
4.07 98.322 69.711
4.08 95.562 68.652
4.09 93.491 67.915
4.10 91.979 67.154
4.11 90.658 66.343
4.12 90.686 66.067
4.13 91.773 66.499
4.14 93.267 66.801
4.15 94.583 66.669
4.16 97.292 66.414
4.17 105.641 65.489
4.18 108.490 63.192
4.19 --undefined-- 59.762
4.20 --undefined-- 57.734
4.21 --undefined-- 64.489
4.22 --undefined-- 71.790
4.23 155.453 75.973
4.24 148.227 77.494
4.25 146.757 77.546
4.26 149.435 77.301
4.27 148.619 76.729
4.28 147.254 75.843
4.29 149.893 75.323
4.30 150.652 75.369
4.31 150.417 75.561
4.32 149.735 75.666
4.33 148.295 75.645
4.34 146.198 75.464
4.35 143.295 75.003
4.36 139.224 74.520
4.37 140.426 75.607
4.38 140.412 77.787
4.39 139.599 78.986
4.40 133.611 79.151
4.41 131.859 79.175
4.42 129.137 79.102
4.43 127.209 78.643
4.44 125.628 78.017
4.45 124.178 77.505
4.46 123.737 77.092
4.47 124.360 76.753
4.48 125.527 76.345
4.49 126.506 75.689
4.50 126.857 74.865
4.51 126.527 73.584
4.52 119.776 71.441
4.53 --undefined-- 68.276
4.54 --undefined-- 64.076
4.55 --undefined-- 59.197
4.56 --undefined-- 53.157
4.57 --undefined-- 48.362
4.58 --undefined-- 48.747
4.59 --undefined-- 49.349
4.60 --undefined-- 48.575
4.61 --undefined-- 48.191
4.62 --undefined-- 49.303
4.63 --undefined-- 50.367
4.64 --undefined-- 50.696
4.65 --undefined-- 50.672
4.66 --undefined-- 50.446
4.67 --undefined-- 50.562
4.68 --undefined-- 51.232
4.69 --undefined-- 51.502
4.70 --undefined-- 51.116
4.71 --undefined-- 50.524
4.72 --undefined-- 50.108
4.73 --undefined-- 49.943
4.74 --undefined-- 49.770
4.75 --undefined-- 49.678
4.76 --undefined-- 49.779
4.77 --undefined-- 50.420
4.78 --undefined-- 51.088
4.79 --undefined-- 52.193
4.80 --undefined-- 54.129
4.81 152.787 55.005
4.82 154.511 56.131
4.83 149.249 58.449
4.84 146.842 59.680
4.85 144.822 59.412
4.86 142.603 57.953
4.87 139.483 57.931
4.88 --undefined-- 64.294
4.89 151.299 69.980
4.90 151.641 73.394
4.91 157.138 75.451
4.92 162.619 76.667
4.93 167.670 77.375
4.94 173.149 77.713
4.95 178.859 77.946
4.96 182.903 78.344
4.97 185.223 78.680
4.98 186.912 78.599
4.99 186.443 78.159
5.00 182.919 77.781
5.01 179.901 78.378
5.02 171.000 80.075
5.03 162.455 81.432
5.04 156.741 81.787
5.05 144.501 --undefined--
5.06 137.381 --undefined--
5.07 --undefined-- --undefined--
5.08 --undefined-- --undefined--
