Time Pitch Intensity
0.01 --undefined-- --undefined--
0.02 148.520 --undefined--
0.03 153.270 --undefined--
0.04 154.804 --undefined--
0.05 157.778 77.385
0.06 162.728 77.792
0.07 167.038 77.739
0.08 171.531 77.078
0.09 176.611 75.754
0.10 178.241 73.762
0.11 178.992 71.447
0.12 184.184 70.234
0.13 188.468 70.005
0.14 190.951 69.754
0.15 188.711 69.197
0.16 184.840 68.170
0.17 178.385 66.636
0.18 170.169 64.612
0.19 166.394 61.834
0.20 --undefined-- 57.877
0.21 --undefined-- 54.387
0.22 --undefined-- 52.803
0.23 --undefined-- 49.457
0.24 --undefined-- 42.976
0.25 --undefined-- 39.388
0.26 --undefined-- 38.715
0.27 --undefined-- 37.525
0.28 --undefined-- 36.131
0.29 --undefined-- 37.050
0.30 --undefined-- 38.979
0.31 --undefined-- 39.144
0.32 --undefined-- 38.325
0.33 --undefined-- 37.021
0.34 --undefined-- 36.030
0.35 --undefined-- 35.481
0.36 --undefined-- 34.883
0.37 --undefined-- 34.955
0.38 --undefined-- 34.725
0.39 --undefined-- 34.435
0.40 --undefined-- 36.610
0.41 --undefined-- 38.628
0.42 --undefined-- 39.099
0.43 --undefined-- 39.475
0.44 --undefined-- 39.883
0.45 --undefined-- 38.944
0.46 --undefined-- 37.235
0.47 --undefined-- 37.493
0.48 --undefined-- 40.141
0.49 --undefined-- 41.867
0.50 --undefined-- 41.238
0.51 --undefined-- 39.651
0.52 --undefined-- 40.551
0.53 --undefined-- 41.183
0.54 --undefined-- 39.862
0.55 --undefined-- 38.501
0.56 --undefined-- 37.558
0.57 --undefined-- 37.515
0.58 --undefined-- 39.064
0.59 --undefined-- 39.510
0.60 --undefined-- 39.284
0.61 --undefined-- 39.669
0.62 --undefined-- 40.044
0.63 --undefined-- 40.842
0.64 --undefined-- 41.454
0.65 --undefined-- 41.739
0.66 --undefined-- 41.778
0.67 --undefined-- 41.630
0.68 --undefined-- 41.754
0.69 --undefined-- 41.612
0.70 --undefined-- 41.369
0.71 --undefined-- 40.653
0.72 --undefined-- 38.637
0.73 --undefined-- 37.763
0.74 --undefined-- 38.754
0.75 --undefined-- 38.539
0.76 --undefined-- 36.701
0.77 --undefined-- 35.658
0.78 --undefined-- 35.690
0.79 --undefined-- 36.543
0.80 --undefined-- 38.022
0.81 --undefined-- 39.994
0.82 --undefined-- 41.526
0.83 --undefined-- 41.363
0.84 --undefined-- 39.625
0.85 --undefined-- 37.925
0.86 --undefined-- 45.141
0.87 --undefined-- 55.131
0.88 147.590 61.466
0.89 123.051 65.049
0.90 114.736 66.889
0.91 116.211 67.982
0.92 116.849 68.732
0.93 117.511 69.233
0.94 117.442 69.629
0.95 118.277 69.868
0.96 118.766 69.910
0.97 118.902 69.888
0.98 118.303 69.840
0.99 118.447 69.849
1.00 120.987 70.161
1.01 128.897 70.380
1.02 128.536 69.511
1.03 120.588 66.903
1.04 113.890 63.039
1.05 112.930 58.541
1.06 --undefined-- 54.287
1.07 --undefined-- 58.688
1.08 --undefined-- 64.949
1.09 --undefined-- 68.266
1.10 --undefined-- 71.943
1.11 167.633 76.024
1.12 162.972 78.237
1.13 156.811 78.868
1.14 154.743 79.132
1.15 153.670 79.430
1.16 153.021 79.571
1.17 153.578 79.161
1.18 159.408 78.169
1.19 158.039 77.555
1.20 155.214 77.237
1.21 153.907 76.236
1.22 151.633 74.044
1.23 145.758 70.453
1.24 137.204 65.217
1.25 --undefined-- 59.023
1.26 --undefined-- 55.384
1.27 --undefined-- 54.031
1.28 --undefined-- 53.708
1.29 --undefined-- 60.056
1.30 231.949 68.489
1.31 222.241 73.890
1.32 206.486 76.684
1.33 202.527 77.762
1.34 202.258 77.600
1.35 203.955 76.328
1.36 204.331 74.984
1.37 200.127 74.399
1.38 185.981 73.380
1.39 175.588 70.622
1.40 171.619 65.457
1.41 --undefined-- 57.914
1.42 --undefined-- 50.190
1.43 --undefined-- 45.635
1.44 --undefined-- 43.321
1.45 --undefined-- 41.521
1.46 --undefined-- 40.584
1.47 --undefined-- 40.642
1.48 --undefined-- 41.054
1.49 --undefined-- 40.563
1.50 --undefined-- 39.447
1.51 --undefined-- 39.247
1.52 --undefined-- 39.465
1.53 --undefined-- 39.979
1.54 --undefined-- 40.427
1.55 --undefined-- 39.779
1.56 --undefined-- 38.958
1.57 --undefined-- 39.311
1.58 --undefined-- 39.597
1.59 --undefined-- 39.744
1.60 --undefined-- 40.206
1.61 --undefined-- 40.595
1.62 --undefined-- 39.820
1.63 --undefined-- 38.022
1.64 --undefined-- 36.264
1.65 --undefined-- 37.198
1.66 --undefined-- 39.841
1.67 --undefined-- 40.566
1.68 --undefined-- 38.719
1.69 --undefined-- 36.391
1.70 --undefined-- 35.517
1.71 --undefined-- 39.202
1.72 --undefined-- 49.241
1.73 --undefined-- 57.343
1.74 --undefined-- 63.130
1.75 196.926 67.902
1.76 190.488 71.736
1.77 185.679 74.856
1.78 186.878 77.852
1.79 188.921 80.533
1.80 189.669 82.498
1.81 189.621 83.658
1.82 189.765 84.006
1.83 189.870 83.708
1.84 189.716 83.236
1.85 190.133 83.047
1.86 190.750 82.938
1.87 190.436 82.342
1.88 193.937 80.938
1.89 200.147 79.308
1.90 198.395 79.070
1.91 193.694 79.401
1.92 193.029 78.631
1.93 198.479 76.682
1.94 195.980 74.301
1.95 183.610 71.130
1.96 160.451 66.437
1.97 --undefined-- 60.327
1.98 --undefined-- 53.227
1.99 --undefined-- 50.780
2.00 --undefined-- 53.033
2.01 --undefined-- 54.626
2.02 --undefined-- 55.928
2.03 --undefined-- 57.755
2.04 --undefined-- 63.331
2.05 180.544 69.640
2.06 163.206 73.340
2.07 150.763 74.940
2.08 141.823 75.404
2.09 135.586 75.296
2.10 132.081 74.874
2.11 129.748 74.101
2.12 128.561 73.155
2.13 125.977 72.572
2.14 126.800 71.869
2.15 127.664 70.299
2.16 121.948 67.629
2.17 114.397 64.074
2.18 107.067 60.282
2.19 --undefined-- 57.111
2.20 --undefined-- 60.218
2.21 145.309 66.907
2.22 143.956 71.625
2.23 143.475 74.512
2.24 141.020 75.990
2.25 137.135 76.090
2.26 135.313 75.629
2.27 135.151 75.660
2.28 135.066 75.886
2.29 132.271 75.384
2.30 129.237 73.091
2.31 124.726 68.376
2.32 116.903 62.149
2.33 115.789 56.835
2.34 --undefined-- 51.636
2.35 --undefined-- 46.960
2.36 --undefined-- 48.911
2.37 --undefined-- 52.506
2.38 --undefined-- 54.087
2.39 --undefined-- 56.263
2.40 --undefined-- 62.463
2.41 158.958 68.144
2.42 144.646 71.205
2.43 137.241 72.198
2.44 129.941 72.323
2.45 127.698 72.298
2.46 126.049 72.075
2.47 124.969 71.896
2.48 124.748 72.138
2.49 125.030 72.487
2.50 125.998 72.253
2.51 128.069 71.147
2.52 124.500 69.030
2.53 117.045 65.611
2.54 109.913 60.930
2.55 --undefined-- 55.973
2.56 --undefined-- 53.037
2.57 --undefined-- 54.918
2.58 --undefined-- 57.468
2.59 --undefined-- 61.685
2.60 --undefined-- 67.837
2.61 164.688 72.308
2.62 156.573 75.130
2.63 154.238 76.744
2.64 152.980 77.466
2.65 153.289 77.441
2.66 155.801 76.666
2.67 158.031 75.404
2.68 158.549 74.431
2.69 158.160 74.152
2.70 157.055 74.169
2.71 154.717 74.121
2.72 151.174 73.809
2.73 147.836 73.041
2.74 144.528 71.889
2.75 138.867 71.047
2.76 136.591 71.123
2.77 129.943 71.712
2.78 129.403 72.037
2.79 118.284 71.337
2.80 110.636 69.617
2.81 102.133 67.080
2.82 95.139 64.126
2.83 88.741 61.125
2.84 85.389 58.365
2.85 89.837 58.329
2.86 93.618 59.703
2.87 95.021 60.598
2.88 95.924 61.162
2.89 98.218 61.632
2.90 99.606 61.964
2.91 99.561 61.577
2.92 99.477 60.037
2.93 --undefined-- 57.183
2.94 --undefined-- 52.818
2.95 --undefined-- 48.408
2.96 --undefined-- 46.315
2.97 --undefined-- 46.043
2.98 --undefined-- 51.103
2.99 --undefined-- 59.764
3.00 145.165 65.736
3.01 128.465 68.897
3.02 126.249 70.229
3.03 122.395 70.988
3.04 119.459 71.652
3.05 118.648 71.998
3.06 118.246 71.942
3.07 117.470 71.402
3.08 115.676 70.233
3.09 113.605 68.368
3.10 107.718 65.583
3.11 --undefined-- 61.365
3.12 --undefined-- 55.668
3.13 --undefined-- 48.862
3.14 --undefined-- 42.053
3.15 --undefined-- 39.860
3.16 --undefined-- 40.919
3.17 --undefined-- 41.349
3.18 --undefined-- 39.790
3.19 --undefined-- 38.593
3.20 --undefined-- 38.578
3.21 --undefined-- 38.936
3.22 --undefined-- 39.129
3.23 --undefined-- 37.662
3.24 --undefined-- 37.073
3.25 --undefined-- 39.158
3.26 --undefined-- 40.367
3.27 --undefined-- 38.967
3.28 --undefined-- 36.133
3.29 --undefined-- 36.259
3.30 --undefined-- 38.084
3.31 --undefined-- 39.250
3.32 --undefined-- 40.524
3.33 --undefined-- 41.740
3.34 --undefined-- 42.985
3.35 --undefined-- 46.296
3.36 --undefined-- 50.349
3.37 --undefined-- 53.429
3.38 --undefined-- 56.726
3.39 --undefined-- 62.569
3.40 145.484 67.866
3.41 132.960 70.667
3.42 127.473 71.707
3.43 126.886 72.270
3.44 128.921 72.676
3.45 128.286 72.642
3.46 122.495 72.370
3.47 121.996 72.023
3.48 122.026 71.612
3.49 121.516 71.401
3.50 120.153 71.406
3.51 119.153 71.303
3.52 119.118 70.428
3.53 115.300 67.865
3.54 110.025 62.997
3.55 --undefined-- 56.095
3.56 --undefined-- 50.594
3.57 --undefined-- 49.440
3.58 --undefined-- 50.179
3.59 --undefined-- 54.203
3.60 --undefined-- 62.011
3.61 147.305 67.823
3.62 144.877 70.634
3.63 129.393 71.154
3.64 121.907 70.593
3.65 116.031 69.636
3.66 112.607 68.164
3.67 113.222 65.948
3.68 105.080 62.273
3.69 --undefined-- 56.522
3.70 --undefined-- 49.254
3.71 --undefined-- 43.826
3.72 --undefined-- 41.908
3.73 --undefined-- 42.501
3.74 --undefined-- 43.387
3.75 --undefined-- 44.024
3.76 --undefined-- 44.551
3.77 --undefined-- 46.379
3.78 --undefined-- 55.047
3.79 --undefined-- 62.462
3.80 --undefined-- 66.813
3.81 114.424 69.222
3.82 113.224 70.518
3.83 113.298 70.888
3.84 113.592 70.624
3.85 114.206 70.314
3.86 115.585 70.423
3.87 116.979 71.000
3.88 118.303 71.384
3.89 117.741 70.795
3.90 123.665 69.643
3.91 131.851 69.491
3.92 136.837 69.939
3.93 141.631 70.156
3.94 145.081 70.118
3.95 148.117 70.007
3.96 148.934 69.761
3.97 147.283 68.899
3.98 143.585 66.642
3.99 135.633 62.158
4.00 --undefined-- 55.346
4.01 --undefined-- 49.378
4.02 --undefined-- 47.014
4.03 --undefined-- 45.918
4.04 --undefined-- 44.539
4.05 --undefined-- 43.033
4.06 --undefined-- 43.115
4.07 --undefined-- 45.971
4.08 --undefined-- 55.746
4.09 --undefined-- 63.948
4.10 --undefined-- 68.777
4.11 128.099 70.995
4.12 121.972 71.715
4.13 116.351 71.839
4.14 112.347 71.498
4.15 110.068 70.530
4.16 112.341 69.756
4.17 115.559 69.831
4.18 117.719 70.120
4.19 121.511 70.252
4.20 121.774 69.925
4.21 119.212 68.419
4.22 114.836 65.314
4.23 113.769 61.000
4.24 --undefined-- 56.024
4.25 --undefined-- 51.446
4.26 --undefined-- 51.520
4.27 --undefined-- 55.288
4.28 --undefined-- 58.233
4.29 --undefined-- 59.511
4.30 --undefined-- 60.611
4.31 --undefined-- 62.056
4.32 --undefined-- 61.960
4.33 --undefined-- 60.196
4.34 --undefined-- 62.728
4.35 174.739 68.586
4.36 160.504 71.807
4.37 151.675 72.727
4.38 150.236 72.400
4.39 149.168 71.277
4.40 142.984 69.778
4.41 147.071 68.967
4.42 148.521 68.745
4.43 150.525 68.760
4.44 154.465 69.291
4.45 157.784 70.561
4.46 163.841 72.985
4.47 158.090 75.660
4.48 158.178 76.945
4.49 157.489 76.799
4.50 156.720 76.290
4.51 157.078 76.102
4.52 157.482 75.850
4.53 156.518 74.702
4.54 152.349 72.467
4.55 156.335 70.466
4.56 158.255 69.471
4.57 160.913 68.774
4.58 161.848 67.997
4.59 159.734 67.106
4.60 156.037 66.054
4.61 150.954 64.496
4.62 140.808 61.785
4.63 --undefined-- 57.775
4.64 --undefined-- 53.128
4.65 --undefined-- 50.000
4.66 --undefined-- 48.701
4.67 --undefined-- 46.273
4.68 --undefined-- 42.156
4.69 --undefined-- 40.216
4.70 --undefined-- 39.972
4.71 --undefined-- 39.756
4.72 --undefined-- 38.309
4.73 --undefined-- 36.529
4.74 --undefined-- 38.612
4.75 --undefined-- 40.538
4.76 --undefined-- 40.025
4.77 --undefined-- 38.003
4.78 --undefined-- 36.455
4.79 --undefined-- 34.744
4.80 --undefined-- 32.581
4.81 --undefined-- 33.915
4.82 --undefined-- 36.133
4.83 --undefined-- 39.088
4.84 --undefined-- 42.164
4.85 --undefined-- 42.643
4.86 --undefined-- 40.359
4.87 --undefined-- 39.487
4.88 --undefined-- 40.062
4.89 --undefined-- 39.811
4.90 --undefined-- 40.314
4.91 --undefined-- 41.006
4.92 --undefined-- 40.800
4.93 --undefined-- 39.276
4.94 --undefined-- 37.425
4.95 --undefined-- 37.501
4.96 --undefined-- 37.863
4.97 --undefined-- 38.285
4.98 --undefined-- 38.951
4.99 --undefined-- 39.039
5.00 --undefined-- 39.447
5.01 --undefined-- 38.748
5.02 --undefined-- 36.424
5.03 --undefined-- 36.084
5.04 --undefined-- 38.085
5.05 --undefined-- 38.825
5.06 --undefined-- 39.216
5.07 --undefined-- 40.440
5.08 --undefined-- 40.968
5.09 --undefined-- 40.638
5.10 --undefined-- 40.845
5.11 --undefined-- 41.456
5.12 --undefined-- 41.538
5.13 --undefined-- 41.506
5.14 --undefined-- 41.976
5.15 --undefined-- 43.020
5.16 --undefined-- 44.040
5.17 --undefined-- 43.962
5.18 --undefined-- 43.037
5.19 --undefined-- 42.573
5.20 --undefined-- 43.144
5.21 --undefined-- 43.430
5.22 --undefined-- 42.856
5.23 --undefined-- 41.981
5.24 --undefined-- 41.558
5.25 --undefined-- 41.352
5.26 --undefined-- 41.491
5.27 --undefined-- 41.945
5.28 --undefined-- 41.315
5.29 --undefined-- 40.473
5.30 --undefined-- 41.066
5.31 --undefined-- 41.009
5.32 --undefined-- 40.421
5.33 --undefined-- 41.278
5.34 --undefined-- 41.042
5.35 --undefined-- 43.019
5.36 --undefined-- 49.724
5.37 --undefined-- 57.002
5.38 142.490 63.634
5.39 140.419 68.506
5.40 139.843 71.670
5.41 141.630 73.572
5.42 143.803 74.131
5.43 144.165 73.635
5.44 154.579 72.979
5.45 160.700 72.404
5.46 166.579 71.887
5.47 169.641 71.170
5.48 167.725 69.356
5.49 152.092 65.958
5.50 142.140 61.403
5.51 --undefined-- 56.252
5.52 --undefined-- 50.851
5.53 --undefined-- 50.459
5.54 --undefined-- 59.671
5.55 --undefined-- 67.183
5.56 165.680 71.875
5.57 156.498 74.184
5.58 149.442 74.873
5.59 145.531 74.538
5.60 144.284 73.536
5.61 145.494 72.107
5.62 145.066 70.502
5.63 143.335 69.179
5.64 141.867 68.266
5.65 141.158 67.806
5.66 142.517 68.127
5.67 146.420 69.364
5.68 155.625 71.446
5.69 164.465 73.954
5.70 169.063 76.452
5.71 171.475 78.570
5.72 172.844 80.162
5.73 173.956 81.174
5.74 174.983 81.663
5.75 176.211 81.839
5.76 177.435 81.871
5.77 178.011 81.751
5.78 178.043 81.440
5.79 177.724 80.982
5.80 177.044 80.407
5.81 176.502 79.715
5.82 175.733 78.952
5.83 174.901 78.047
5.84 172.529 76.654
5.85 169.985 74.147
5.86 155.443 70.572
5.87 134.891 68.108
5.88 135.417 67.041
5.89 135.186 64.289
5.90 --undefined-- 58.572
5.91 --undefined-- 49.939
5.92 --undefined-- 44.085
5.93 --undefined-- 41.239
5.94 --undefined-- 40.614
5.95 --undefined-- 42.282
5.96 --undefined-- 43.078
5.97 --undefined-- 45.925
5.98 --undefined-- 52.977
5.99 122.916 57.691
6.00 116.046 60.185
6.01 126.393 61.581
6.02 123.002 62.614
6.03 124.784 63.367
6.04 127.277 63.667
6.05 129.532 63.707
6.06 129.648 63.610
6.07 131.429 63.716
6.08 139.746 65.096
6.09 148.472 68.023
6.10 155.729 71.417
6.11 163.225 74.212
6.12 170.282 76.245
6.13 175.448 77.515
6.14 180.085 78.223
6.15 185.349 78.406
6.16 188.591 77.696
6.17 186.291 75.626
6.18 191.241 72.990
6.19 188.711 72.156
6.20 185.065 72.801
6.21 182.460 74.348
6.22 175.431 76.247
6.23 168.890 76.961
6.24 160.211 75.783
6.25 142.896 72.797
6.26 133.768 69.295
6.27 133.379 67.963
6.28 142.248 69.100
6.29 149.576 71.064
6.30 153.484 73.442
6.31 150.342 75.805
6.32 147.045 77.618
6.33 146.570 78.726
6.34 150.763 79.124
6.35 155.903 78.781
6.36 162.761 78.131
6.37 170.286 77.711
6.38 175.870 77.591
6.39 178.872 77.183
6.40 184.625 75.549
6.41 192.150 72.959
6.42 193.428 70.696
6.43 193.357 69.157
6.44 194.222 68.618
6.45 197.822 69.296
6.46 202.941 70.573
6.47 206.790 72.052
6.48 208.770 73.735
6.49 209.390 75.542
6.50 209.169 77.226
6.51 209.013 78.742
6.52 208.977 80.036
6.53 208.282 81.032
6.54 206.925 81.572
6.55 204.587 81.433
6.56 202.277 80.358
6.57 201.304 78.086
6.58 199.639 74.884
6.59 186.308 71.897
6.60 176.749 69.886
6.61 161.909 68.319
6.62 146.575 66.924
6.63 137.676 66.587
6.64 131.699 67.277
6.65 127.850 68.535
6.66 124.171 69.926
6.67 122.669 71.022
6.68 119.931 --undefined--
6.69 119.806 --undefined--
6.70 --undefined-- --undefined--
6.71 --undefined-- --undefined--
