Time Pitch Intensity
0.01 --undefined-- --undefined--
0.02 --undefined-- --undefined--
0.03 --undefined-- --undefined--
0.04 --undefined-- --undefined--
0.05 98.266 61.633
0.06 103.449 65.700
0.07 103.285 68.693
0.08 103.293 70.119
0.09 104.393 70.526
0.10 105.189 70.696
0.11 104.986 70.841
0.12 104.705 70.862
0.13 104.779 70.740
0.14 105.259 70.822
0.15 105.155 71.063
0.16 105.654 71.213
0.17 106.283 71.121
0.18 106.209 70.685
0.19 107.243 70.166
0.20 107.775 69.749
0.21 108.263 69.489
0.22 109.516 69.602
0.23 110.055 69.812
0.24 110.778 69.877
0.25 111.317 70.096
0.26 111.243 70.274
0.27 110.798 70.340
0.28 110.150 70.533
0.29 109.737 70.389
0.30 109.646 69.888
0.31 110.053 69.502
0.32 110.495 69.065
0.33 110.173 68.351
0.34 108.955 67.271
0.35 107.238 65.058
0.36 105.920 61.155
0.37 --undefined-- 56.125
0.38 --undefined-- 50.829
0.39 --undefined-- 46.525
0.40 --undefined-- 44.589
0.41 --undefined-- 43.545
0.42 --undefined-- 42.282
0.43 --undefined-- 41.567
0.44 --undefined-- 50.710
0.45 --undefined-- 59.416
0.46 --undefined-- 64.075
0.47 --undefined-- 67.337
0.48 --undefined-- 70.974
0.49 --undefined-- 73.020
0.50 --undefined-- 72.714
0.51 --undefined-- 70.536
0.52 --undefined-- 67.674
0.53 100.595 66.445
0.54 98.724 67.994
0.55 87.418 69.755
0.56 94.213 70.963
0.57 93.325 71.149
0.58 --undefined-- 70.379
0.59 99.223 69.811
0.60 102.039 69.378
0.61 107.197 68.845
0.62 112.027 68.784
0.63 115.830 68.941
0.64 118.925 68.647
0.65 123.343 68.110
0.66 124.091 67.635
0.67 125.638 67.209
0.68 127.521 66.643
0.69 127.789 65.149
0.70 --undefined-- 61.613
0.71 --undefined-- 55.485
0.72 --undefined-- 49.438
0.73 --undefined-- 47.953
0.74 --undefined-- 53.032
0.75 --undefined-- 60.546
0.76 --undefined-- 66.591
0.77 --undefined-- 69.982
0.78 119.297 70.847
0.79 112.051 70.134
0.80 108.669 69.473
0.81 105.319 69.508
0.82 103.539 69.376
0.83 101.441 68.774
0.84 100.447 67.910
0.85 100.138 67.069
0.86 102.480 66.916
0.87 102.859 67.181
0.88 102.743 67.232
0.89 100.203 66.924
0.90 100.363 66.034
0.91 102.515 64.710
0.92 102.195 63.937
0.93 100.799 64.684
0.94 100.947 66.209
0.95 101.140 67.199
0.96 101.384 67.389
0.97 101.431 67.260
0.98 101.238 67.409
0.99 100.794 67.764
1.00 101.086 67.821
1.01 101.332 67.651
1.02 101.523 67.511
1.03 101.326 66.909
1.04 101.573 65.901
1.05 102.070 65.534
1.06 101.434 65.823
1.07 101.277 66.000
1.08 100.395 65.988
1.09 100.608 66.226
1.10 100.422 66.625
1.11 100.167 66.546
1.12 100.950 65.942
1.13 101.421 65.613
1.14 101.875 66.250
1.15 102.178 67.505
1.16 101.799 68.596
1.17 100.853 68.954
1.18 100.212 68.513
1.19 99.951 67.456
1.20 100.452 65.959
1.21 102.154 64.908
1.22 102.275 64.805
1.23 102.380 64.578
1.24 102.772 63.636
1.25 103.589 62.059
1.26 104.790 60.977
1.27 --undefined-- 62.018
1.28 --undefined-- 63.768
1.29 --undefined-- 65.306
1.30 --undefined-- 66.401
1.31 106.100 67.066
1.32 103.013 67.461
1.33 102.597 67.295
1.34 98.674 66.111
1.35 --undefined-- 63.793
1.36 --undefined-- 62.098
1.37 --undefined-- 61.660
1.38 --undefined-- 61.763
1.39 --undefined-- 63.087
1.40 104.730 65.625
1.41 107.219 68.611
1.42 104.134 70.315
1.43 102.999 70.517
1.44 103.586 69.738
1.45 104.760 67.937
1.46 --undefined-- 64.614
1.47 115.091 59.955
1.48 119.228 58.011
1.49 123.131 58.606
1.50 125.630 59.499
1.51 125.869 62.553
1.52 --undefined-- 67.870
1.53 --undefined-- 71.345
1.54 --undefined-- 72.347
1.55 --undefined-- 71.911
1.56 --undefined-- 70.725
1.57 --undefined-- 69.289
1.58 --undefined-- 68.082
1.59 83.307 67.021
1.60 84.936 66.505
1.61 87.011 66.271
1.62 89.384 65.964
1.63 90.894 65.516
1.64 91.109 64.006
1.65 --undefined-- 60.389
1.66 --undefined-- 54.452
1.67 --undefined-- 47.494
1.68 --undefined-- 44.198
1.69 --undefined-- 48.710
1.70 --undefined-- 58.095
1.71 --undefined-- 64.595
1.72 --undefined-- 67.815
1.73 --undefined-- 68.800
1.74 --undefined-- 68.736
1.75 --undefined-- 68.463
1.76 --undefined-- 68.078
1.77 83.791 67.273
1.78 82.310 66.423
1.79 81.931 65.503
1.80 83.188 64.771
1.81 85.203 63.925
1.82 --undefined-- 61.691
1.83 --undefined-- 57.414
1.84 --undefined-- 52.299
1.85 --undefined-- 51.260
1.86 --undefined-- 52.302
1.87 --undefined-- 53.581
1.88 --undefined-- 55.424
1.89 --undefined-- 57.060
1.90 133.330 58.511
1.91 145.941 59.993
1.92 149.492 61.657
1.93 152.232 63.273
1.94 152.354 64.495
1.95 151.686 65.124
1.96 151.740 64.577
1.97 150.476 64.297
1.98 --undefined-- 67.206
1.99 107.690 68.998
2.00 108.302 68.471
2.01 108.559 67.481
2.02 --undefined-- 69.704
2.03 156.505 72.507
2.04 152.143 73.283
2.05 145.259 72.600
2.06 144.171 71.585
2.07 144.927 70.739
2.08 147.847 70.181
2.09 147.864 69.298
2.10 146.454 68.344
2.11 145.497 68.130
2.12 145.197 68.420
2.13 144.661 69.037
2.14 143.092 69.722
2.15 141.942 70.008
2.16 141.057 69.630
2.17 140.558 68.847
2.18 140.799 67.904
2.19 140.996 66.963
2.20 141.541 67.589
2.21 141.967 69.893
2.22 142.744 72.132
2.23 143.423 73.574
2.24 143.560 74.244
2.25 143.719 74.115
2.26 143.867 72.907
2.27 143.344 70.473
2.28 142.389 67.045
2.29 141.723 62.947
2.30 --undefined-- 57.914
2.31 --undefined-- 51.973
2.32 --undefined-- 49.438
2.33 --undefined-- 50.156
2.34 --undefined-- 50.296
2.35 --undefined-- 50.226
2.36 --undefined-- 54.354
2.37 --undefined-- 60.033
2.38 --undefined-- 63.520
2.39 --undefined-- 64.939
2.40 99.302 65.761
2.41 99.077 66.954
2.42 91.224 67.644
2.43 93.260 68.251
2.44 85.123 68.445
2.45 94.905 68.062
2.46 95.099 67.404
2.47 94.756 66.124
2.48 94.291 65.166
2.49 85.873 64.182
2.50 94.251 62.747
2.51 --undefined-- 60.377
2.52 --undefined-- 56.367
2.53 --undefined-- 51.954
2.54 --undefined-- 48.744
2.55 --undefined-- 45.946
2.56 --undefined-- 43.056
2.57 --undefined-- 41.202
2.58 --undefined-- 39.639
2.59 --undefined-- 37.843
2.60 --undefined-- 37.772
2.61 --undefined-- 40.922
2.62 --undefined-- 48.594
2.63 --undefined-- 56.180
2.64 --undefined-- 62.423
2.65 --undefined-- 66.544
2.66 --undefined-- 68.485
2.67 --undefined-- 69.807
2.68 104.109 70.569
2.69 104.747 70.303
2.70 103.966 70.219
2.71 103.609 71.044
2.72 96.353 71.961
2.73 95.012 71.884
2.74 94.405 70.672
2.75 94.529 69.734
2.76 94.518 69.309
2.77 94.885 68.049
2.78 100.283 66.539
2.79 101.195 65.887
2.80 103.939 65.295
2.81 106.682 64.797
2.82 108.565 64.704
2.83 111.957 65.096
2.84 113.882 66.072
2.85 113.824 67.418
2.86 110.874 68.553
2.87 111.517 69.470
2.88 --undefined-- 70.096
2.89 --undefined-- 70.252
2.90 --undefined-- 70.299
2.91 95.597 69.888
2.92 95.311 68.250
2.93 --undefined-- 64.752
2.94 --undefined-- 59.042
2.95 --undefined-- 53.183
2.96 --undefined-- 51.758
2.97 --undefined-- 51.697
2.98 --undefined-- 51.390
2.99 --undefined-- 52.506
3.00 --undefined-- 56.055
3.01 --undefined-- 60.220
3.02 --undefined-- 63.410
3.03 91.432 65.357
3.04 89.287 66.310
3.05 87.856 66.129
3.06 86.922 65.440
3.07 87.237 65.512
3.08 87.138 66.000
3.09 87.323 65.978
3.10 87.772 65.079
3.11 88.090 63.381
3.12 87.231 61.700
3.13 89.703 60.292
3.14 89.547 57.754
3.15 88.844 53.756
3.16 88.644 50.568
3.17 --undefined-- 49.970
3.18 --undefined-- 50.605
3.19 --undefined-- 51.008
3.20 --undefined-- 50.390
3.21 --undefined-- 49.308
3.22 --undefined-- 48.913
3.23 --undefined-- 48.669
3.24 --undefined-- 47.235
3.25 --undefined-- 44.577
3.26 --undefined-- 47.149
3.27 --undefined-- 51.737
3.28 --undefined-- 53.158
3.29 --undefined-- 56.348
3.30 --undefined-- 64.076
3.31 --undefined-- 69.069
3.32 --undefined-- 70.793
3.33 --undefined-- 69.796
3.34 --undefined-- 68.363
3.35 --undefined-- 69.879
3.36 --undefined-- 71.465
3.37 --undefined-- 71.929
3.38 106.449 71.933
3.39 104.444 71.570
3.40 103.039 71.072
3.41 102.147 70.314
3.42 102.022 69.137
3.43 102.299 68.655
3.44 103.075 68.748
3.45 104.473 68.460
3.46 106.294 67.977
3.47 106.680 68.102
3.48 103.947 68.448
3.49 110.112 68.011
3.50 109.484 66.404
3.51 106.074 64.207
3.52 102.503 62.288
3.53 104.014 61.349
3.54 101.460 62.976
3.55 --undefined-- 66.011
3.56 --undefined-- 68.158
3.57 --undefined-- 69.529
3.58 --undefined-- 70.233
3.59 --undefined-- 70.273
3.60 --undefined-- 70.274
3.61 --undefined-- 70.001
3.62 95.358 69.893
3.63 95.485 70.236
3.64 95.556 70.195
3.65 95.945 69.486
3.66 99.755 68.970
3.67 102.601 69.010
3.68 102.362 68.368
3.69 102.178 66.802
3.70 106.014 66.387
3.71 112.295 67.667
3.72 111.869 69.088
3.73 116.270 70.476
3.74 116.057 71.637
3.75 116.295 71.999
3.76 116.850 71.670
3.77 116.908 71.251
3.78 117.457 71.165
3.79 116.643 71.119
3.80 116.811 71.062
3.81 115.531 71.139
3.82 116.670 71.042
3.83 115.685 70.474
3.84 115.544 69.600
3.85 115.379 68.304
3.86 114.471 66.122
3.87 113.600 63.402
3.88 112.736 61.466
3.89 109.242 59.970
3.90 107.985 60.022
3.91 --undefined-- 63.742
3.92 --undefined-- 66.163
3.93 --undefined-- 66.462
3.94 --undefined-- 65.708
3.95 98.284 64.077
3.96 97.192 63.028
3.97 97.758 63.795
3.98 97.006 65.070
3.99 97.633 66.151
4.00 96.528 66.848
4.01 94.981 66.936
4.02 97.518 66.816
4.03 94.899 66.363
4.04 97.471 65.114
4.05 95.335 62.801
4.06 95.471 59.333
4.07 94.651 54.859
4.08 --undefined-- 50.649
4.09 --undefined-- 49.749
4.10 --undefined-- 50.890
4.11 --undefined-- 52.726
4.12 --undefined-- 53.903
4.13 --undefined-- 53.035
4.14 --undefined-- 58.252
4.15 --undefined-- 64.568
4.16 106.426 67.566
4.17 97.056 68.289
4.18 99.425 67.915
4.19 99.153 66.961
4.20 96.310 65.142
4.21 96.878 61.866
4.22 93.162 57.505
4.23 95.400 54.720
4.24 97.065 54.468
4.25 96.395 54.109
4.26 95.837 53.596
4.27 96.560 53.772
4.28 96.873 53.941
4.29 97.338 53.579
4.30 94.791 52.864
4.31 --undefined-- 55.688
4.32 --undefined-- 62.008
4.33 --undefined-- 66.252
4.34 --undefined-- 67.982
4.35 90.715 67.813
4.36 89.845 66.556
4.37 89.989 65.252
4.38 91.058 64.745
4.39 91.134 65.033
4.40 93.348 65.718
4.41 94.559 65.988
4.42 92.528 65.248
4.43 --undefined-- 64.599
4.44 99.952 65.179
4.45 100.966 66.247
4.46 100.822 67.098
4.47 --undefined-- 67.687
4.48 --undefined-- 68.836
4.49 103.935 70.011
4.50 106.603 70.679
4.51 105.643 71.122
4.52 106.195 71.294
4.53 105.045 70.993
4.54 108.740 70.463
4.55 104.852 70.072
4.56 107.190 69.635
4.57 106.164 69.050
4.58 108.899 68.416
4.59 109.543 67.531
4.60 110.008 65.491
4.61 --undefined-- 61.223
4.62 --undefined-- 54.433
4.63 --undefined-- 48.778
4.64 --undefined-- 47.075
4.65 --undefined-- 46.716
4.66 --undefined-- 47.708
4.67 --undefined-- 49.481
4.68 --undefined-- 56.156
4.69 --undefined-- 64.007
4.70 --undefined-- 68.265
4.71 --undefined-- 69.416
4.72 89.847 69.121
4.73 90.500 68.608
4.74 91.043 67.767
4.75 91.340 66.772
4.76 91.678 64.934
4.77 --undefined-- 60.897
4.78 --undefined-- 54.231
4.79 --undefined-- 47.541
4.80 --undefined-- 48.224
4.81 --undefined-- 58.276
4.82 --undefined-- 65.853
4.83 109.582 69.704
4.84 109.498 70.716
4.85 110.450 70.142
4.86 111.169 69.389
4.87 110.314 68.686
4.88 111.250 67.685
4.89 112.114 66.231
4.90 112.666 63.750
4.91 --undefined-- 59.321
4.92 --undefined-- 52.501
4.93 --undefined-- 45.499
4.94 --undefined-- 46.635
4.95 --undefined-- 53.187
4.96 --undefined-- 56.585
4.97 --undefined-- 56.755
4.98 --undefined-- 58.634
4.99 --undefined-- 62.892
5.00 105.832 65.306
5.01 104.522 65.768
5.02 106.786 --undefined--
5.03 105.254 --undefined--
5.04 --undefined-- --undefined--
5.05 --undefined-- --undefined--
