Time Pitch Intensity
0.01 --undefined-- --undefined--
0.02 109.051 --undefined--
0.03 105.755 --undefined--
0.04 104.364 --undefined--
0.05 100.446 50.376
0.06 --undefined-- 50.383
0.07 --undefined-- 52.324
0.08 --undefined-- 55.394
0.09 93.398 57.990
0.10 92.417 59.956
0.11 92.601 61.662
0.12 92.515 63.002
0.13 94.992 64.230
0.14 95.063 65.116
0.15 98.969 65.073
0.16 104.334 64.056
0.17 105.629 61.692
0.18 --undefined-- 57.163
0.19 --undefined-- 50.040
0.20 --undefined-- 42.654
0.21 --undefined-- 40.013
0.22 --undefined-- 38.748
0.23 --undefined-- 37.634
0.24 --undefined-- 37.434
0.25 --undefined-- 37.921
0.26 --undefined-- 38.864
0.27 --undefined-- 39.798
0.28 --undefined-- 39.871
0.29 --undefined-- 39.842
0.30 --undefined-- 39.814
0.31 --undefined-- 39.041
0.32 --undefined-- 38.304
0.33 --undefined-- 38.200
0.34 --undefined-- 38.458
0.35 --undefined-- 38.904
0.36 --undefined-- 39.331
0.37 --undefined-- 39.397
0.38 --undefined-- 39.359
0.39 --undefined-- 39.366
0.40 --undefined-- 39.057
0.41 --undefined-- 38.822
0.42 --undefined-- 39.054
0.43 --undefined-- 39.952
0.44 --undefined-- 42.488
0.45 --undefined-- 45.234
0.46 --undefined-- 46.190
0.47 --undefined-- 44.988
0.48 --undefined-- 44.045
0.49 --undefined-- 45.470
0.50 --undefined-- 47.460
0.51 --undefined-- 49.419
0.52 --undefined-- 51.701
0.53 --undefined-- 53.975
0.54 --undefined-- 55.594
0.55 --undefined-- 56.696
0.56 --undefined-- 58.106
0.57 95.148 60.185
0.58 93.058 62.427
0.59 94.134 65.087
0.60 93.923 67.259
0.61 93.482 68.245
0.62 96.984 68.892
0.63 98.908 69.383
0.64 99.849 68.990
0.65 100.492 67.791
0.66 100.269 65.826
0.67 98.886 62.622
0.68 --undefined-- 59.332
0.69 --undefined-- 59.370
0.70 --undefined-- 59.714
0.71 --undefined-- 59.006
0.72 122.820 60.599
0.73 123.496 64.828
0.74 123.443 68.195
0.75 122.236 69.638
0.76 119.891 69.292
0.77 117.391 67.783
0.78 113.611 66.339
0.79 112.746 65.304
0.80 112.784 64.412
0.81 111.982 63.253
0.82 111.520 61.269
0.83 111.256 58.967
0.84 107.893 57.062
0.85 105.624 55.911
0.86 109.289 56.764
0.87 112.989 60.163
0.88 113.990 64.151
0.89 108.843 66.869
0.90 108.186 67.993
0.91 104.100 67.915
0.92 99.804 66.656
0.93 --undefined-- 63.611
0.94 --undefined-- 58.210
0.95 --undefined-- 53.462
0.96 98.797 54.833
0.97 96.962 56.819
0.98 98.630 59.158
0.99 101.260 62.653
1.00 102.048 65.371
1.01 101.949 66.444
1.02 104.972 66.477
1.03 106.766 66.398
1.04 107.584 66.542
1.05 108.472 66.646
1.06 108.936 66.107
1.07 104.547 64.458
1.08 104.361 61.088
1.09 101.563 55.223
1.10 --undefined-- 47.479
1.11 --undefined-- 42.569
1.12 --undefined-- 44.307
1.13 --undefined-- 52.080
1.14 --undefined-- 58.481
1.15 --undefined-- 61.427
1.16 --undefined-- 61.528
1.17 --undefined-- 60.492
1.18 --undefined-- 59.647
1.19 --undefined-- 58.439
1.20 --undefined-- 56.500
1.21 --undefined-- 54.001
1.22 --undefined-- 53.569
1.23 --undefined-- 57.004
1.24 --undefined-- 59.575
1.25 --undefined-- 59.965
1.26 --undefined-- 58.221
1.27 --undefined-- 54.759
1.28 75.275 52.095
1.29 76.047 52.062
1.30 76.097 52.350
1.31 76.511 52.248
1.32 77.052 51.681
1.33 79.020 50.909
1.34 79.692 49.914
1.35 79.963 48.533
1.36 --undefined-- 46.353
1.37 --undefined-- 43.174
1.38 --undefined-- 40.634
1.39 --undefined-- 43.378
1.40 --undefined-- 51.157
1.41 --undefined-- 59.556
1.42 110.406 65.260
1.43 87.275 68.184
1.44 87.734 68.973
1.45 88.349 68.627
1.46 88.288 68.239
1.47 87.959 67.836
1.48 88.779 66.785
1.49 90.178 64.848
1.50 91.001 62.727
1.51 91.778 61.353
1.52 --undefined-- 59.919
1.53 --undefined-- 57.084
1.54 --undefined-- 51.167
1.55 --undefined-- 43.367
1.56 --undefined-- 47.669
1.57 --undefined-- 52.670
1.58 --undefined-- 54.643
1.59 --undefined-- 59.758
1.60 --undefined-- 65.433
1.61 103.792 68.215
1.62 106.633 68.684
1.63 110.548 67.577
1.64 111.334 65.596
1.65 111.637 63.291
1.66 110.370 60.276
1.67 110.305 56.977
1.68 110.673 55.625
1.69 111.018 55.998
1.70 108.080 56.184
1.71 102.732 56.029
1.72 97.013 55.817
1.73 90.971 55.097
1.74 86.367 53.727
1.75 83.463 52.581
1.76 81.007 52.441
1.77 80.100 52.395
1.78 79.368 52.132
1.79 77.683 51.744
1.80 76.587 51.306
1.81 76.428 51.018
1.82 --undefined-- 50.809
1.83 --undefined-- 51.085
1.84 --undefined-- 52.587
1.85 78.295 54.579
1.86 78.321 55.970
1.87 77.985 56.666
1.88 77.188 57.265
1.89 77.362 59.632
1.90 --undefined-- 62.390
1.91 --undefined-- 63.499
1.92 75.880 63.679
1.93 78.097 63.590
1.94 78.805 62.756
1.95 79.492 60.618
1.96 78.155 57.529
1.97 75.613 55.262
1.98 75.526 54.343
1.99 --undefined-- 53.997
2.00 77.409 53.822
2.01 74.985 53.525
2.02 75.022 53.247
2.03 75.298 53.419
2.04 79.207 53.931
2.05 78.155 54.015
2.06 78.039 53.139
2.07 76.071 51.210
2.08 75.304 48.367
2.09 --undefined-- 44.906
2.10 --undefined-- 41.859
2.11 --undefined-- 48.275
2.12 --undefined-- 56.482
2.13 --undefined-- 60.485
2.14 --undefined-- 61.971
2.15 --undefined-- 62.528
2.16 --undefined-- 64.389
2.17 --undefined-- 67.248
2.18 --undefined-- 68.565
2.19 86.984 68.958
2.20 81.444 69.193
2.21 85.602 69.312
2.22 86.487 69.124
2.23 87.249 68.376
2.24 86.604 67.414
2.25 86.927 66.875
2.26 87.238 66.304
2.27 86.952 65.261
2.28 87.343 64.209
2.29 88.855 63.549
2.30 91.808 63.341
2.31 97.871 63.548
2.32 99.943 64.321
2.33 100.613 65.228
2.34 105.236 66.773
2.35 105.298 68.320
2.36 104.853 68.965
2.37 106.072 69.031
2.38 105.276 69.008
2.39 104.327 68.829
2.40 104.370 68.156
2.41 101.762 66.921
2.42 99.000 64.970
2.43 --undefined-- 61.677
2.44 --undefined-- 56.017
2.45 --undefined-- 47.921
2.46 --undefined-- 47.646
2.47 --undefined-- 53.713
2.48 --undefined-- 57.224
2.49 --undefined-- 58.979
2.50 --undefined-- 59.411
2.51 --undefined-- 58.377
2.52 --undefined-- 57.512
2.53 --undefined-- 57.932
2.54 --undefined-- 59.982
2.55 111.911 63.116
2.56 113.195 65.221
2.57 108.778 65.192
2.58 --undefined-- 62.582
2.59 --undefined-- 57.215
2.60 --undefined-- 49.489
2.61 --undefined-- 44.262
2.62 --undefined-- 46.003
2.63 --undefined-- 46.586
2.64 --undefined-- 45.767
2.65 --undefined-- 46.714
2.66 --undefined-- 47.521
2.67 76.497 47.402
2.68 76.541 47.481
2.69 75.811 48.147
2.70 74.475 49.687
2.71 --undefined-- 52.798
2.72 --undefined-- 56.412
2.73 --undefined-- 59.652
2.74 77.586 61.818
2.75 --undefined-- 62.991
2.76 --undefined-- 63.699
2.77 --undefined-- 63.916
2.78 --undefined-- 63.738
2.79 --undefined-- 62.998
2.80 --undefined-- 60.798
2.81 --undefined-- 56.715
2.82 --undefined-- 51.574
2.83 --undefined-- 49.536
2.84 --undefined-- 50.764
2.85 81.702 54.244
2.86 81.562 57.689
2.87 81.982 59.171
2.88 82.053 60.234
2.89 80.436 61.482
2.90 80.466 61.798
2.91 80.922 60.780
2.92 --undefined-- 58.578
2.93 --undefined-- 56.586
2.94 --undefined-- 56.478
2.95 --undefined-- 56.297
2.96 --undefined-- 55.137
2.97 --undefined-- 53.157
2.98 --undefined-- 50.613
2.99 --undefined-- 48.345
3.00 --undefined-- 46.460
3.01 --undefined-- 46.866
3.02 117.642 53.455
3.03 118.096 60.243
3.04 118.814 64.865
3.05 118.583 67.476
3.06 118.202 68.403
3.07 117.655 68.178
3.08 117.116 67.551
3.09 118.121 66.862
3.10 113.708 65.907
3.11 114.286 64.266
3.12 110.217 62.085
3.13 107.531 60.776
3.14 107.497 61.520
3.15 105.097 63.326
3.16 101.559 64.806
3.17 99.853 65.162
3.18 94.616 64.664
3.19 95.595 64.099
3.20 96.202 62.801
3.21 82.576 59.587
3.22 --undefined-- 55.574
3.23 --undefined-- 55.484
3.24 --undefined-- 57.532
3.25 --undefined-- 58.810
3.26 --undefined-- 58.559
3.27 --undefined-- 57.504
3.28 --undefined-- 57.495
3.29 --undefined-- 58.109
3.30 --undefined-- 58.300
3.31 --undefined-- 60.301
3.32 --undefined-- 63.963
3.33 --undefined-- 65.147
3.34 --undefined-- 63.377
3.35 --undefined-- 60.210
3.36 --undefined-- 56.465
3.37 --undefined-- 50.577
3.38 --undefined-- 42.998
3.39 --undefined-- 39.570
3.40 --undefined-- 38.307
3.41 --undefined-- 37.802
3.42 --undefined-- 37.989
3.43 --undefined-- 38.103
3.44 --undefined-- 38.087
3.45 --undefined-- 39.092
3.46 --undefined-- 43.454
3.47 --undefined-- 51.900
3.48 --undefined-- 58.296
3.49 --undefined-- 61.663
3.50 --undefined-- 62.270
3.51 --undefined-- 62.154
3.52 --undefined-- 65.454
3.53 103.052 68.276
3.54 103.261 69.320
3.55 91.389 69.431
3.56 90.205 69.008
3.57 88.913 68.477
3.58 88.801 68.029
3.59 88.465 67.834
3.60 88.065 67.858
3.61 86.719 67.780
3.62 86.867 67.452
3.63 88.309 66.780
3.64 89.981 65.915
3.65 91.126 65.166
3.66 91.814 64.377
3.67 93.438 63.713
3.68 94.477 63.479
3.69 97.440 63.827
3.70 100.265 65.390
3.71 103.149 67.777
3.72 105.448 69.113
3.73 106.965 69.363
3.74 106.906 69.269
3.75 106.608 68.839
3.76 106.976 68.244
3.77 104.235 67.721
3.78 102.123 67.213
3.79 95.308 66.641
3.80 92.269 65.583
3.81 --undefined-- 63.891
3.82 --undefined-- 61.285
3.83 --undefined-- 58.766
3.84 86.438 58.360
3.85 87.466 60.419
3.86 87.581 62.528
3.87 89.188 63.471
3.88 89.302 63.480
3.89 88.093 63.582
3.90 --undefined-- 63.763
3.91 81.434 62.925
3.92 80.097 62.413
3.93 78.929 62.467
3.94 78.207 62.076
3.95 --undefined-- 61.589
3.96 --undefined-- 60.921
3.97 76.479 59.837
3.98 75.624 59.207
3.99 75.805 58.908
4.00 75.851 57.901
4.01 75.320 56.978
4.02 77.773 56.654
4.03 77.963 56.669
4.04 78.010 57.021
4.05 77.832 57.355
4.06 77.492 57.068
4.07 78.013 56.449
4.08 77.886 56.074
4.09 79.649 55.958
4.10 79.510 56.329
4.11 81.578 56.571
4.12 81.001 56.344
4.13 80.665 55.967
4.14 80.391 55.727
4.15 82.147 55.952
4.16 84.463 56.535
4.17 84.384 56.673
4.18 84.822 56.929
4.19 83.863 57.571
4.20 83.851 57.686
4.21 86.595 57.949
4.22 --undefined-- 57.100
4.23 --undefined-- 54.973
4.24 --undefined-- 53.255
4.25 --undefined-- 51.520
4.26 --undefined-- 51.423
4.27 --undefined-- 52.480
4.28 --undefined-- 53.493
4.29 --undefined-- 52.388
4.30 --undefined-- 48.386
4.31 --undefined-- 43.714
4.32 --undefined-- 42.550
4.33 --undefined-- 43.226
4.34 --undefined-- 44.357
4.35 --undefined-- 44.760
4.36 --undefined-- 45.270
4.37 --undefined-- 45.885
4.38 --undefined-- 46.587
4.39 --undefined-- 46.969
4.40 --undefined-- 46.922
4.41 --undefined-- 47.455
4.42 --undefined-- 48.000
4.43 --undefined-- 47.647
4.44 --undefined-- 46.679
4.45 --undefined-- 47.522
4.46 --undefined-- 55.071
4.47 --undefined-- 60.831
4.48 81.025 63.509
4.49 94.427 64.557
4.50 91.332 64.814
4.51 90.099 64.356
4.52 91.122 63.236
4.53 91.094 61.528
4.54 93.994 59.771
4.55 98.522 58.875
4.56 103.758 59.590
4.57 107.009 60.651
4.58 110.670 60.701
4.59 --undefined-- 58.569
4.60 --undefined-- 53.028
4.61 --undefined-- 45.170
4.62 --undefined-- 51.682
4.63 --undefined-- 61.369
4.64 --undefined-- 67.526
4.65 --undefined-- 70.440
4.66 --undefined-- 70.564
4.67 --undefined-- 68.184
4.68 --undefined-- 63.913
4.69 --undefined-- 60.412
4.70 --undefined-- 60.284
4.71 --undefined-- 60.621
4.72 --undefined-- 60.226
4.73 --undefined-- 59.585
4.74 --undefined-- 59.144
4.75 --undefined-- 58.993
4.76 --undefined-- 58.573
4.77 --undefined-- 56.844
4.78 --undefined-- 53.732
4.79 --undefined-- 52.059
4.80 --undefined-- 54.634
4.81 --undefined-- 56.970
4.82 --undefined-- 57.745
4.83 --undefined-- 58.217
4.84 --undefined-- 58.799
4.85 --undefined-- 58.871
4.86 --undefined-- 58.765
4.87 --undefined-- 63.233
4.88 122.529 68.539
4.89 122.180 71.176
4.90 120.036 71.088
4.91 113.187 69.077
4.92 108.881 66.558
4.93 106.931 63.715
4.94 105.674 60.237
4.95 101.911 56.845
4.96 100.395 53.849
4.97 99.582 50.384
4.98 --undefined-- 45.933
4.99 --undefined-- 41.425
5.00 --undefined-- 38.546
5.01 --undefined-- 37.344
5.02 --undefined-- 36.549
5.03 --undefined-- 35.623
5.04 --undefined-- 35.685
5.05 --undefined-- 36.818
5.06 --undefined-- 37.184
5.07 --undefined-- 36.731
5.08 --undefined-- 37.077
5.09 --undefined-- 40.679
5.10 --undefined-- 47.023
5.11 --undefined-- 50.280
5.12 --undefined-- 49.709
5.13 --undefined-- 46.001
5.14 --undefined-- 42.069
5.15 --undefined-- 41.874
5.16 --undefined-- 42.954
5.17 --undefined-- 44.104
5.18 --undefined-- 45.202
5.19 --undefined-- 46.399
5.20 --undefined-- 48.197
5.21 --undefined-- 49.688
5.22 --undefined-- 50.173
5.23 --undefined-- 50.409
5.24 --undefined-- 50.412
5.25 --undefined-- 49.851
5.26 --undefined-- 49.508
5.27 --undefined-- 49.890
5.28 --undefined-- 50.830
5.29 --undefined-- 51.248
5.30 --undefined-- 50.715
5.31 --undefined-- 50.061
5.32 --undefined-- 50.050
5.33 --undefined-- 50.050
5.34 --undefined-- 50.088
5.35 --undefined-- 51.027
5.36 --undefined-- 52.321
5.37 --undefined-- 53.287
5.38 --undefined-- 53.564
5.39 --undefined-- 52.892
5.40 --undefined-- 52.769
5.41 --undefined-- 53.412
5.42 --undefined-- 53.657
5.43 --undefined-- 53.281
5.44 --undefined-- 52.165
5.45 --undefined-- 50.908
5.46 --undefined-- 50.482
5.47 --undefined-- 50.715
5.48 --undefined-- --undefined--
5.49 --undefined-- --undefined--
5.50 --undefined-- --undefined--
5.51 --undefined-- --undefined--
