Time Pitch Intensity
0.01 --undefined-- --undefined--
0.02 209.606 --undefined--
0.03 203.625 --undefined--
0.04 196.748 --undefined--
0.05 190.287 65.413
0.06 186.136 65.550
0.07 186.490 67.010
0.08 190.105 69.665
0.09 195.141 71.688
0.10 202.032 72.353
0.11 212.934 71.958
0.12 220.449 71.003
0.13 226.016 69.382
0.14 230.897 66.798
0.15 227.988 62.850
0.16 221.961 57.259
0.17 --undefined-- 50.221
0.18 --undefined-- 42.948
0.19 --undefined-- 40.094
0.20 --undefined-- 40.148
0.21 --undefined-- 41.355
0.22 --undefined-- 42.690
0.23 --undefined-- 50.039
0.24 279.439 59.782
0.25 286.648 65.351
0.26 283.816 67.674
0.27 280.914 68.064
0.28 279.875 67.793
0.29 278.688 67.173
0.30 275.724 65.755
0.31 253.115 63.938
0.32 244.495 63.132
0.33 245.037 62.771
0.34 268.479 65.030
0.35 266.821 68.858
0.36 264.112 70.484
0.37 255.268 70.168
0.38 247.182 69.603
0.39 242.161 69.721
0.40 238.625 70.033
0.41 235.713 70.228
0.42 231.889 70.195
0.43 230.992 70.190
0.44 233.638 70.500
0.45 238.797 70.867
0.46 246.020 70.925
0.47 254.126 70.819
0.48 253.251 71.022
0.49 252.020 71.530
0.50 251.660 71.705
0.51 250.886 71.448
0.52 249.335 71.193
0.53 246.434 71.204
0.54 242.584 71.198
0.55 238.286 70.691
0.56 233.574 69.326
0.57 222.627 67.785
0.58 218.163 67.403
0.59 214.867 67.649
0.60 212.934 68.700
0.61 208.112 69.681
0.62 206.270 69.362
0.63 204.149 67.908
0.64 202.696 66.241
0.65 199.247 64.208
0.66 197.296 61.236
0.67 201.380 57.718
0.68 205.846 53.290
0.69 --undefined-- 46.914
0.70 --undefined-- 42.353
0.71 --undefined-- 46.907
0.72 --undefined-- 57.852
0.73 271.050 65.307
0.74 262.287 69.203
0.75 260.954 70.624
0.76 261.341 70.353
0.77 260.441 68.512
0.78 252.229 65.996
0.79 246.634 66.529
0.80 252.523 68.985
0.81 256.284 70.782
0.82 255.511 71.543
0.83 252.661 71.538
0.84 248.960 71.144
0.85 247.222 70.642
0.86 238.082 70.202
0.87 226.436 69.953
0.88 209.098 69.837
0.89 193.986 69.607
0.90 --undefined-- 68.942
0.91 --undefined-- 68.135
0.92 --undefined-- 67.161
0.93 --undefined-- 65.447
0.94 --undefined-- 63.918
0.95 --undefined-- 63.893
0.96 --undefined-- 64.689
0.97 178.834 65.694
0.98 189.567 67.076
0.99 204.896 69.110
1.00 206.606 70.641
1.01 210.444 71.167
1.02 214.896 71.270
1.03 218.308 71.179
1.04 219.512 71.101
1.05 219.472 71.200
1.06 218.277 71.223
1.07 216.021 70.717
1.08 212.863 68.938
1.09 207.423 65.506
1.10 199.350 61.501
1.11 200.152 57.764
1.12 210.815 52.684
1.13 --undefined-- 48.551
1.14 --undefined-- 56.282
1.15 205.695 63.647
1.16 191.281 67.527
1.17 176.756 68.664
1.18 171.839 68.511
1.19 169.192 68.227
1.20 167.443 67.946
1.21 165.720 67.582
1.22 164.388 66.952
1.23 164.628 66.122
1.24 164.965 65.264
1.25 164.795 64.595
1.26 165.249 64.341
1.27 165.687 64.639
1.28 165.004 65.352
1.29 164.439 66.165
1.30 164.137 66.795
1.31 164.552 67.194
1.32 165.591 67.423
1.33 166.908 67.479
1.34 168.921 67.433
1.35 170.957 67.369
1.36 173.145 67.143
1.37 174.760 66.347
1.38 175.882 64.468
1.39 173.709 61.025
1.40 176.020 55.566
1.41 --undefined-- 47.796
1.42 --undefined-- 40.489
1.43 --undefined-- 38.047
1.44 --undefined-- 36.160
1.45 --undefined-- 34.503
1.46 --undefined-- 32.726
1.47 --undefined-- 33.311
1.48 --undefined-- 40.757
1.49 --undefined-- 47.352
1.50 --undefined-- 54.195
1.51 --undefined-- 62.175
1.52 215.461 67.202
1.53 201.138 68.867
1.54 194.690 67.820
1.55 185.810 65.036
1.56 --undefined-- 62.574
1.57 --undefined-- 62.038
1.58 --undefined-- 61.558
1.59 --undefined-- 60.169
1.60 --undefined-- 58.722
1.61 --undefined-- 57.822
1.62 --undefined-- 57.465
1.63 --undefined-- 58.952
1.64 193.496 63.800
1.65 190.146 68.032
1.66 189.086 70.026
1.67 187.218 70.383
1.68 186.090 69.974
1.69 186.099 69.261
1.70 185.886 68.181
1.71 184.903 65.978
1.72 178.838 61.492
1.73 --undefined-- 53.855
1.74 --undefined-- 44.945
1.75 --undefined-- 46.088
1.76 --undefined-- 55.699
1.77 --undefined-- 63.300
1.78 --undefined-- 67.398
1.79 172.063 68.442
1.80 168.021 67.279
1.81 142.137 65.460
1.82 139.789 64.999
1.83 141.644 65.973
1.84 142.895 67.113
1.85 140.778 67.631
1.86 138.006 67.312
1.87 138.120 66.686
1.88 139.880 66.144
1.89 142.001 65.608
1.90 148.506 64.390
1.91 148.108 61.494
1.92 151.445 56.348
1.93 --undefined-- 48.684
1.94 --undefined-- 41.556
1.95 --undefined-- 46.166
1.96 --undefined-- 57.573
1.97 --undefined-- 65.119
1.98 --undefined-- 69.014
1.99 193.099 70.457
2.00 195.849 70.691
2.01 199.442 70.485
2.02 203.877 70.232
2.03 207.050 70.147
2.04 209.696 69.984
2.05 212.456 69.537
2.06 212.418 68.763
2.07 210.972 67.911
2.08 210.793 67.526
2.09 210.020 67.417
2.10 208.928 67.277
2.11 207.777 67.343
2.12 207.759 68.212
2.13 204.215 69.504
2.14 200.815 70.166
2.15 197.407 70.235
2.16 193.847 70.100
2.17 189.236 69.594
2.18 184.385 68.691
2.19 178.045 67.725
2.20 172.817 66.764
2.21 163.131 65.494
2.22 160.348 63.908
2.23 --undefined-- 62.349
2.24 --undefined-- 59.273
2.25 --undefined-- 52.837
2.26 --undefined-- 44.631
2.27 --undefined-- 43.809
2.28 --undefined-- 47.848
2.29 --undefined-- 51.787
2.30 --undefined-- 54.386
2.31 --undefined-- 55.734
2.32 --undefined-- 55.490
2.33 --undefined-- 53.889
2.34 --undefined-- 52.307
2.35 --undefined-- 51.086
2.36 --undefined-- 48.930
2.37 --undefined-- 45.814
2.38 --undefined-- 43.494
2.39 --undefined-- 41.848
2.40 --undefined-- 39.451
2.41 --undefined-- 36.330
2.42 --undefined-- 34.525
2.43 --undefined-- 35.830
2.44 --undefined-- 37.490
2.45 --undefined-- 37.716
2.46 --undefined-- 44.764
2.47 --undefined-- 54.412
2.48 204.711 60.475
2.49 193.093 64.934
2.50 192.072 68.880
2.51 191.865 71.307
2.52 189.014 71.867
2.53 189.497 71.560
2.54 191.978 71.370
2.55 193.060 71.032
2.56 192.486 70.222
2.57 192.108 69.306
2.58 193.766 69.578
2.59 197.602 70.872
2.60 198.518 71.619
2.61 198.156 71.635
2.62 197.631 71.366
2.63 197.835 71.089
2.64 199.790 70.888
2.65 204.185 70.677
2.66 207.154 70.584
2.67 213.146 70.912
2.68 218.945 71.243
2.69 223.662 71.235
2.70 229.714 71.020
2.71 244.806 70.667
2.72 257.943 70.127
2.73 264.552 69.754
2.74 271.769 69.805
2.75 277.911 69.988
2.76 280.549 70.021
2.77 280.664 69.883
2.78 279.219 69.808
2.79 276.586 69.904
2.80 273.773 70.133
2.81 271.799 70.277
2.82 270.698 70.183
2.83 271.091 69.888
2.84 272.408 69.359
2.85 272.782 68.284
2.86 270.249 65.970
2.87 255.710 61.749
2.88 250.652 55.407
2.89 --undefined-- 47.051
2.90 --undefined-- 37.877
2.91 --undefined-- 38.629
2.92 --undefined-- 45.871
2.93 --undefined-- 55.735
2.94 260.352 64.095
2.95 244.620 68.935
2.96 233.856 70.992
2.97 225.841 71.325
2.98 219.135 70.987
2.99 213.303 70.645
3.00 208.953 70.136
3.01 206.040 69.115
3.02 203.578 67.421
3.03 201.087 65.863
3.04 201.481 65.195
3.05 203.162 64.423
3.06 196.356 63.295
3.07 190.915 61.928
3.08 185.116 60.770
3.09 187.962 61.663
3.10 189.969 64.290
3.11 184.350 66.376
3.12 --undefined-- 67.193
3.13 --undefined-- 67.077
3.14 --undefined-- 66.339
3.15 122.382 65.292
3.16 120.888 64.098
3.17 122.548 63.094
3.18 --undefined-- 63.566
3.19 --undefined-- 65.182
3.20 141.978 66.604
3.21 144.513 67.864
3.22 151.797 69.060
3.23 164.773 69.873
3.24 181.280 70.378
3.25 194.606 70.756
3.26 219.407 71.046
3.27 243.111 70.628
3.28 272.843 69.384
3.29 296.358 68.269
3.30 153.648 66.701
3.31 156.331 63.151
3.32 155.388 56.891
3.33 --undefined-- 48.507
3.34 --undefined-- 44.045
3.35 --undefined-- 49.908
3.36 --undefined-- 55.842
3.37 --undefined-- 57.960
3.38 --undefined-- 57.453
3.39 --undefined-- 59.842
3.40 230.171 64.715
3.41 235.893 67.892
3.42 227.252 69.459
3.43 215.211 69.808
3.44 182.736 69.120
3.45 152.785 67.966
3.46 136.980 66.812
3.47 126.903 65.624
3.48 123.321 64.557
3.49 123.786 63.663
3.50 127.311 62.849
3.51 137.410 62.594
3.52 137.902 62.900
3.53 138.964 63.385
3.54 141.524 63.889
3.55 145.847 64.471
3.56 154.661 65.235
3.57 163.176 66.038
3.58 171.637 66.866
3.59 179.531 67.671
3.60 187.647 68.435
3.61 193.534 69.309
3.62 194.701 70.067
3.63 189.199 70.423
3.64 183.121 70.370
3.65 179.802 69.968
3.66 179.070 69.358
3.67 179.788 68.856
3.68 181.145 68.732
3.69 183.040 68.904
3.70 184.829 69.140
3.71 186.355 69.279
3.72 188.365 69.076
3.73 190.241 68.131
3.74 187.848 66.195
3.75 179.238 63.555
3.76 179.482 60.460
3.77 180.421 55.885
3.78 --undefined-- 48.573
3.79 --undefined-- 40.607
3.80 --undefined-- 39.980
3.81 --undefined-- 41.585
3.82 --undefined-- 44.498
3.83 --undefined-- 47.297
3.84 --undefined-- 53.002
3.85 --undefined-- 61.873
3.86 207.809 67.703
3.87 198.402 70.334
3.88 190.432 70.510
3.89 174.424 69.340
3.90 164.270 68.428
3.91 158.564 68.132
3.92 156.606 67.845
3.93 155.650 67.649
3.94 154.826 67.512
3.95 154.490 67.265
3.96 154.661 67.009
3.97 155.765 66.822
3.98 158.138 66.806
3.99 161.465 67.025
4.00 165.277 67.469
4.01 167.726 67.913
4.02 170.063 68.170
4.03 181.964 68.364
4.04 188.268 68.461
4.05 194.644 68.502
4.06 201.079 68.903
4.07 217.353 69.863
4.08 220.193 70.387
4.09 226.081 70.232
4.10 232.974 70.081
4.11 239.693 70.129
4.12 244.958 70.243
4.13 249.069 70.299
4.14 250.398 70.365
4.15 249.908 70.433
4.16 249.358 70.250
4.17 249.429 69.564
4.18 249.231 68.273
4.19 247.522 66.213
4.20 243.241 62.704
4.21 240.615 57.058
4.22 --undefined-- 49.528
4.23 --undefined-- 43.272
4.24 --undefined-- 41.398
4.25 --undefined-- 44.256
4.26 --undefined-- 50.394
4.27 --undefined-- 59.988
4.28 224.120 66.888
4.29 211.594 70.380
4.30 205.205 71.126
4.31 196.880 70.000
4.32 191.550 68.055
4.33 186.270 65.460
4.34 179.176 62.000
4.35 176.777 58.101
4.36 188.217 53.423
4.37 --undefined-- 46.511
4.38 --undefined-- 40.144
4.39 --undefined-- 41.314
4.40 --undefined-- 43.371
4.41 --undefined-- 51.789
4.42 196.977 60.764
4.43 203.041 66.101
4.44 189.132 68.342
4.45 183.156 68.770
4.46 181.657 68.262
4.47 179.846 66.789
4.48 171.929 64.136
4.49 170.403 60.245
4.50 171.089 54.492
4.51 --undefined-- 46.904
4.52 --undefined-- 44.870
4.53 --undefined-- 51.407
4.54 --undefined-- 60.329
4.55 169.864 66.000
4.56 167.392 68.852
4.57 165.778 69.682
4.58 162.844 69.583
4.59 159.357 69.251
4.60 155.680 68.792
4.61 152.089 68.152
4.62 149.357 67.337
4.63 148.202 66.456
4.64 147.932 65.455
4.65 153.388 64.481
4.66 159.324 63.747
4.67 158.829 63.263
4.68 158.064 62.899
4.69 157.996 62.545
4.70 158.594 62.255
4.71 160.690 62.511
4.72 163.100 63.703
4.73 167.172 65.674
4.74 166.927 67.751
4.75 164.691 68.917
4.76 159.062 68.660
4.77 --undefined-- 67.640
4.78 --undefined-- 67.057
4.79 115.983 67.254
4.80 118.650 66.984
4.81 119.602 65.922
4.82 121.083 65.389
4.83 123.280 65.356
4.84 123.503 65.281
4.85 124.211 65.742
4.86 124.013 67.045
4.87 126.102 68.703
4.88 133.435 69.648
4.89 139.282 69.615
4.90 149.129 69.358
4.91 165.109 69.056
4.92 174.146 68.404
4.93 189.528 68.130
4.94 199.111 68.666
4.95 206.887 69.263
4.96 214.349 69.725
4.97 220.460 70.192
4.98 226.350 70.338
4.99 236.023 69.842
5.00 248.101 69.001
5.01 256.232 68.385
5.02 262.568 67.992
5.03 267.713 67.296
5.04 270.054 65.699
5.05 266.057 62.753
5.06 263.465 57.823
5.07 --undefined-- 50.715
5.08 --undefined-- 42.005
5.09 --undefined-- 35.874
5.10 --undefined-- 32.912
5.11 --undefined-- 31.698
5.12 --undefined-- 40.407
5.13 --undefined-- 50.824
5.14 --undefined-- 56.693
5.15 --undefined-- 58.455
5.16 --undefined-- 57.143
5.17 --undefined-- 55.262
5.18 --undefined-- 58.963
5.19 204.395 65.028
5.20 195.624 68.614
5.21 185.694 70.127
5.22 160.708 70.678
5.23 150.701 70.564
5.24 140.493 69.783
5.25 138.151 68.794
5.26 134.695 67.840
5.27 133.585 66.683
5.28 131.348 65.403
5.29 126.338 64.402
5.30 123.918 63.708
5.31 122.700 63.049
5.32 122.564 62.018
5.33 120.414 60.494
5.34 120.061 59.018
5.35 125.398 57.692
5.36 128.817 56.191
5.37 134.149 --undefined--
5.38 136.322 --undefined--
5.39 --undefined-- --undefined--
5.40 --undefined-- --undefined--
