Time Pitch Intensity
0.01 --undefined-- --undefined--
0.02 134.456 --undefined--
0.03 128.637 --undefined--
0.04 122.099 --undefined--
0.05 121.530 71.045
0.06 122.238 71.377
0.07 122.568 71.417
0.08 122.096 71.167
0.09 120.677 70.412
0.10 117.430 68.729
0.11 112.694 65.975
0.12 112.561 62.188
0.13 --undefined-- 58.455
0.14 --undefined-- 57.580
0.15 --undefined-- 58.600
0.16 --undefined-- 62.050
0.17 133.984 66.919
0.18 134.913 70.560
0.19 136.041 72.449
0.20 135.677 73.035
0.21 134.834 72.811
0.22 134.278 71.818
0.23 132.763 69.937
0.24 131.134 66.958
0.25 125.316 62.672
0.26 --undefined-- 57.833
0.27 --undefined-- 53.774
0.28 --undefined-- 50.695
0.29 --undefined-- 50.469
0.30 --undefined-- 58.094
0.31 --undefined-- 66.533
0.32 --undefined-- 71.876
0.33 142.011 74.418
0.34 139.582 74.965
0.35 136.806 74.309
0.36 135.812 73.363
0.37 135.267 72.681
0.38 134.622 72.069
0.39 133.433 71.228
0.40 130.887 70.237
0.41 131.182 69.660
0.42 130.688 70.068
0.43 129.470 71.016
0.44 127.916 72.198
0.45 125.466 72.890
0.46 124.419 72.494
0.47 123.687 71.439
0.48 122.675 70.820
0.49 122.162 70.459
0.50 121.333 69.163
0.51 118.959 66.484
0.52 119.626 63.742
0.53 122.714 62.259
0.54 125.966 61.955
0.55 128.104 62.657
0.56 130.547 64.029
0.57 134.521 65.794
0.58 138.163 68.255
0.59 142.623 71.075
0.60 146.774 73.235
0.61 148.150 74.679
0.62 149.972 75.697
0.63 151.779 75.973
0.64 153.617 75.657
0.65 155.109 75.347
0.66 156.654 75.159
0.67 157.203 74.840
0.68 157.729 74.490
0.69 158.328 74.385
0.70 159.010 74.479
0.71 159.491 74.545
0.72 159.615 74.324
0.73 159.648 73.973
0.74 159.287 73.751
0.75 158.859 73.462
0.76 158.788 73.035
0.77 158.914 72.613
0.78 159.122 72.020
0.79 158.816 70.855
0.80 159.085 69.323
0.81 159.546 68.229
0.82 159.589 67.250
0.83 159.728 65.310
0.84 157.903 62.210
0.85 147.673 60.272
0.86 146.723 62.616
0.87 144.507 67.056
0.88 --undefined-- 71.339
0.89 --undefined-- 74.050
0.90 --undefined-- 74.366
0.91 --undefined-- 73.119
0.92 121.202 71.845
0.93 118.395 70.620
0.94 117.122 69.426
0.95 117.070 68.551
0.96 117.084 68.327
0.97 116.359 68.376
0.98 115.950 67.756
0.99 116.298 66.531
1.00 117.373 65.165
1.01 117.778 63.394
1.02 115.804 60.297
1.03 --undefined-- 55.571
1.04 --undefined-- 51.604
1.05 --undefined-- 49.251
1.06 --undefined-- 46.805
1.07 --undefined-- 49.346
1.08 --undefined-- 57.999
1.09 --undefined-- 63.245
1.10 --undefined-- 64.292
1.11 --undefined-- 63.309
1.12 --undefined-- 66.400
1.13 --undefined-- 69.772
1.14 110.329 70.974
1.15 107.446 70.865
1.16 106.593 70.400
1.17 107.378 69.676
1.18 108.958 69.054
1.19 111.948 69.897
1.20 101.651 71.443
1.21 100.899 71.846
1.22 103.393 71.406
1.23 108.614 71.157
1.24 115.079 71.233
1.25 117.897 70.587
1.26 123.493 68.866
1.27 128.479 67.346
1.28 131.594 66.689
1.29 135.535 65.814
1.30 139.667 64.220
1.31 140.844 62.420
1.32 141.081 61.274
1.33 139.584 60.510
1.34 136.795 58.911
1.35 132.784 56.026
1.36 --undefined-- 52.305
1.37 --undefined-- 48.542
1.38 --undefined-- 52.701
1.39 --undefined-- 58.863
1.40 --undefined-- 61.923
1.41 --undefined-- 64.798
1.42 --undefined-- 69.114
1.43 110.817 71.676
1.44 106.181 71.804
1.45 107.557 70.700
1.46 106.952 69.973
1.47 107.104 69.250
1.48 --undefined-- 68.671
1.49 --undefined-- 68.804
1.50 --undefined-- 69.009
1.51 127.889 68.875
1.52 128.949 67.601
1.53 129.430 64.360
1.54 --undefined-- 58.704
1.55 --undefined-- 52.338
1.56 --undefined-- 49.577
1.57 --undefined-- 47.853
1.58 --undefined-- 47.462
1.59 --undefined-- 52.884
1.60 --undefined-- 59.533
1.61 --undefined-- 64.970
1.62 109.667 68.265
1.63 110.379 69.543
1.64 108.978 69.587
1.65 108.566 68.528
1.66 108.550 65.610
1.67 108.499 60.740
1.68 113.297 56.586
1.69 116.977 56.607
1.70 120.049 58.063
1.71 121.250 59.293
1.72 121.899 60.160
1.73 122.048 60.447
1.74 121.200 60.105
1.75 121.481 59.363
1.76 129.066 59.534
1.77 --undefined-- 60.882
1.78 --undefined-- 61.786
1.79 --undefined-- 61.691
1.80 --undefined-- 62.474
1.81 105.395 64.256
1.82 106.070 64.361
1.83 106.299 64.226
1.84 120.743 66.594
1.85 119.759 68.864
1.86 116.354 69.940
1.87 111.718 70.393
1.88 105.676 70.629
1.89 105.124 70.747
1.90 99.375 70.308
1.91 102.897 69.454
1.92 102.338 68.653
1.93 101.869 67.335
1.94 101.210 64.515
1.95 --undefined-- 59.487
1.96 --undefined-- 52.606
1.97 --undefined-- 48.461
1.98 --undefined-- 46.916
1.99 --undefined-- 45.440
2.00 --undefined-- 43.882
2.01 --undefined-- 42.215
2.02 --undefined-- 40.884
2.03 --undefined-- 38.938
2.04 --undefined-- 36.526
2.05 --undefined-- 34.505
2.06 --undefined-- 33.749
2.07 --undefined-- 38.022
2.08 --undefined-- 54.136
2.09 --undefined-- 65.394
2.10 --undefined-- 71.701
2.11 147.938 74.372
2.12 147.591 74.830
2.13 144.373 74.775
2.14 142.647 74.805
2.15 141.546 74.696
2.16 140.589 74.372
2.17 139.795 74.003
2.18 138.796 73.781
2.19 137.357 73.611
2.20 136.560 73.504
2.21 135.940 73.470
2.22 135.936 73.292
2.23 136.464 73.090
2.24 137.151 73.008
2.25 137.405 72.575
2.26 137.768 71.485
2.27 138.455 69.731
2.28 139.342 67.185
2.29 139.925 63.370
2.30 143.029 58.977
2.31 144.062 57.616
2.32 144.194 58.036
2.33 145.031 58.256
2.34 144.603 58.419
2.35 144.073 58.595
2.36 143.232 58.557
2.37 142.472 58.328
2.38 141.852 58.373
2.39 140.947 58.725
2.40 138.795 58.375
2.41 135.173 56.491
2.42 --undefined-- 52.803
2.43 --undefined-- 52.092
2.44 --undefined-- 58.854
2.45 --undefined-- 65.633
2.46 --undefined-- 69.448
2.47 --undefined-- 70.437
2.48 --undefined-- 70.753
2.49 --undefined-- 71.721
2.50 --undefined-- 71.669
2.51 --undefined-- 69.669
2.52 --undefined-- 65.862
2.53 --undefined-- 63.744
2.54 --undefined-- 66.735
2.55 --undefined-- 69.434
2.56 107.992 70.569
2.57 103.599 70.251
2.58 101.200 69.298
2.59 97.967 68.473
2.60 106.090 68.024
2.61 103.319 68.545
2.62 91.897 68.954
2.63 95.121 68.506
2.64 96.736 67.819
2.65 96.188 67.574
2.66 95.763 68.317
2.67 93.798 68.843
2.68 --undefined-- 68.300
2.69 96.960 67.660
2.70 95.904 67.313
2.71 96.382 67.289
2.72 96.285 67.801
2.73 95.408 68.390
2.74 95.510 68.548
2.75 96.381 68.241
2.76 96.320 67.716
2.77 93.665 67.096
2.78 104.112 66.980
2.79 100.290 66.673
2.80 97.437 65.701
2.81 97.269 64.673
2.82 100.631 63.532
2.83 96.208 61.623
2.84 96.388 58.304
2.85 --undefined-- 53.404
2.86 --undefined-- 46.953
2.87 --undefined-- 41.028
2.88 --undefined-- 39.328
2.89 --undefined-- 39.581
2.90 --undefined-- 39.522
2.91 --undefined-- 37.969
2.92 --undefined-- 39.422
2.93 --undefined-- 48.613
2.94 --undefined-- 55.617
2.95 --undefined-- 60.623
2.96 --undefined-- 64.411
2.97 --undefined-- 65.664
2.98 --undefined-- 65.555
2.99 --undefined-- 67.804
3.00 89.859 69.813
3.01 88.962 70.382
3.02 100.237 70.315
3.03 --undefined-- 70.496
3.04 95.807 70.382
3.05 98.766 69.351
3.06 99.399 68.665
3.07 97.598 68.615
3.08 96.125 68.467
3.09 96.160 68.552
3.10 97.036 68.898
3.11 97.389 69.407
3.12 98.142 70.007
3.13 98.222 70.302
3.14 98.077 70.030
3.15 95.875 69.171
3.16 104.776 68.278
3.17 102.176 67.524
3.18 102.432 66.476
3.19 102.538 64.784
3.20 --undefined-- 61.717
3.21 --undefined-- 56.423
3.22 --undefined-- 49.147
3.23 --undefined-- 43.841
3.24 --undefined-- 41.588
3.25 --undefined-- 42.652
3.26 --undefined-- 50.354
3.27 --undefined-- 57.476
3.28 --undefined-- 63.362
3.29 --undefined-- 67.147
3.30 119.338 68.379
3.31 104.609 67.799
3.32 100.080 67.045
3.33 101.020 66.765
3.34 96.351 66.865
3.35 92.594 66.644
3.36 92.964 65.298
3.37 94.317 64.285
3.38 95.174 64.945
3.39 95.375 65.510
3.40 95.213 64.842
3.41 95.197 63.466
3.42 --undefined-- 62.309
3.43 --undefined-- 62.228
3.44 --undefined-- 63.058
3.45 --undefined-- 63.888
3.46 --undefined-- 64.736
3.47 --undefined-- 66.269
3.48 --undefined-- 66.809
3.49 --undefined-- 66.159
3.50 --undefined-- 66.498
3.51 --undefined-- 67.932
3.52 --undefined-- 68.875
3.53 --undefined-- 69.435
3.54 114.387 70.329
3.55 115.313 71.159
3.56 114.285 71.394
3.57 113.069 71.240
3.58 112.570 71.463
3.59 111.331 72.152
3.60 111.683 72.412
3.61 106.106 71.739
3.62 112.540 70.925
3.63 112.844 71.015
3.64 113.359 71.140
3.65 113.322 70.693
3.66 113.151 69.543
3.67 112.991 67.505
3.68 109.752 64.212
3.69 --undefined-- 58.855
3.70 --undefined-- 51.189
3.71 --undefined-- 44.909
3.72 --undefined-- 42.114
3.73 --undefined-- 40.985
3.74 --undefined-- 40.550
3.75 --undefined-- 39.405
3.76 --undefined-- 41.563
3.77 --undefined-- 51.945
3.78 --undefined-- 59.489
3.79 --undefined-- 64.369
3.80 --undefined-- 67.546
3.81 117.155 68.945
3.82 104.367 69.007
3.83 99.865 68.128
3.84 99.754 67.272
3.85 103.430 67.506
3.86 103.250 67.166
3.87 103.351 65.684
3.88 98.772 63.677
3.89 98.924 60.907
3.90 98.665 57.730
3.91 102.000 56.330
3.92 101.403 55.907
3.93 106.751 55.182
3.94 106.357 54.142
3.95 --undefined-- 53.207
3.96 --undefined-- 52.963
3.97 --undefined-- 52.318
3.98 --undefined-- 50.268
3.99 --undefined-- 47.081
4.00 --undefined-- 49.179
4.01 --undefined-- 55.659
4.02 --undefined-- 58.984
4.03 --undefined-- 59.841
4.04 --undefined-- 60.062
4.05 --undefined-- 59.716
4.06 --undefined-- 58.265
4.07 --undefined-- 56.004
4.08 --undefined-- 53.473
4.09 --undefined-- 52.523
4.10 --undefined-- 55.393
4.11 107.060 59.484
4.12 116.887 63.647
4.13 122.241 66.723
4.14 122.862 68.711
4.15 128.598 69.988
4.16 129.545 70.530
4.17 130.482 70.322
4.18 131.019 69.485
4.19 130.211 69.008
4.20 129.467 69.453
4.21 128.736 70.188
4.22 128.219 70.754
4.23 125.495 70.894
4.24 123.831 70.626
4.25 120.692 70.393
4.26 119.581 70.070
4.27 119.145 68.720
4.28 119.556 66.175
4.29 119.910 62.930
4.30 114.787 59.820
4.31 119.991 58.479
4.32 120.808 58.685
4.33 120.316 58.570
4.34 118.505 59.234
4.35 117.266 63.313
4.36 112.332 67.374
4.37 107.434 69.452
4.38 106.549 69.982
4.39 105.925 69.124
4.40 104.898 66.270
4.41 104.064 61.481
4.42 102.837 57.025
4.43 101.327 54.960
4.44 103.687 53.791
4.45 --undefined-- 53.151
4.46 --undefined-- 54.684
4.47 --undefined-- 58.664
4.48 --undefined-- 61.984
4.49 --undefined-- 64.194
4.50 95.600 65.518
4.51 98.172 66.250
4.52 97.301 66.262
4.53 --undefined-- 66.100
4.54 100.377 66.638
4.55 99.200 66.828
4.56 99.729 66.608
4.57 99.198 66.409
4.58 100.545 66.108
4.59 101.492 65.705
4.60 101.891 65.403
4.61 102.907 65.990
4.62 99.932 67.052
4.63 96.846 67.263
4.64 96.697 66.342
4.65 96.766 64.688
4.66 --undefined-- 62.200
4.67 --undefined-- 58.730
4.68 --undefined-- 54.817
4.69 99.211 53.185
4.70 99.712 53.187
4.71 101.501 54.359
4.72 111.082 58.547
4.73 111.695 63.031
4.74 111.970 64.448
4.75 112.442 62.242
4.76 112.565 57.614
4.77 --undefined-- 59.141
4.78 --undefined-- 66.306
4.79 --undefined-- 70.042
4.80 --undefined-- 70.093
4.81 --undefined-- 67.222
4.82 --undefined-- 62.962
4.83 --undefined-- 61.263
4.84 --undefined-- 63.312
4.85 --undefined-- 65.159
4.86 --undefined-- 65.060
4.87 --undefined-- 63.968
4.88 --undefined-- 63.492
4.89 --undefined-- 63.174
4.90 --undefined-- 62.682
4.91 197.172 61.803
4.92 195.730 60.574
4.93 --undefined-- 57.300
4.94 --undefined-- 51.420
4.95 --undefined-- 44.484
4.96 --undefined-- 40.615
4.97 --undefined-- 41.212
4.98 --undefined-- 44.297
4.99 --undefined-- 49.603
5.00 --undefined-- 54.247
5.01 --undefined-- 58.239
5.02 --undefined-- 62.248
5.03 --undefined-- 65.624
5.04 --undefined-- 66.569
5.05 --undefined-- 65.451
5.06 --undefined-- 64.852
5.07 --undefined-- 64.898
5.08 --undefined-- 63.273
5.09 --undefined-- 59.909
5.10 --undefined-- 58.367
5.11 --undefined-- 57.186
5.12 --undefined-- 55.170
5.13 --undefined-- 52.159
5.14 --undefined-- 50.006
5.15 --undefined-- 52.838
5.16 253.726 55.628
5.17 256.632 55.360
5.18 --undefined-- 51.832
5.19 --undefined-- 46.611
5.20 --undefined-- --undefined--
5.21 --undefined-- --undefined--
5.22 --undefined-- --undefined--
5.23 --undefined-- --undefined--
