Time Pitch Intensity
0.01 --undefined-- --undefined--
0.02 165.854 --undefined--
0.03 163.332 --undefined--
0.04 159.948 --undefined--
0.05 157.917 77.887
0.06 156.772 77.197
0.07 153.837 76.106
0.08 151.685 74.502
0.09 150.165 72.277
0.10 150.191 69.145
0.11 158.107 64.762
0.12 --undefined-- 58.927
0.13 --undefined-- 54.501
0.14 --undefined-- 55.970
0.15 --undefined-- 59.165
0.16 --undefined-- 61.798
0.17 --undefined-- 64.536
0.18 --undefined-- 70.717
0.19 --undefined-- 76.071
0.20 166.991 78.549
0.21 160.130 78.798
0.22 151.959 78.092
0.23 145.580 77.352
0.24 143.042 77.019
0.25 142.241 76.891
0.26 141.706 77.081
0.27 142.351 77.914
0.28 142.791 78.900
0.29 143.349 79.398
0.30 143.662 79.258
0.31 142.896 78.739
0.32 142.784 78.291
0.33 143.772 78.000
0.34 144.196 77.924
0.35 145.038 78.361
0.36 145.203 78.856
0.37 144.199 78.921
0.38 142.116 78.410
0.39 140.740 77.050
0.40 139.043 74.798
0.41 138.939 72.429
0.42 138.415 70.927
0.43 136.357 69.995
0.44 136.323 70.109
0.45 142.702 72.954
0.46 146.358 76.500
0.47 147.529 78.662
0.48 147.724 79.176
0.49 146.220 78.642
0.50 141.812 77.978
0.51 139.649 77.884
0.52 137.994 78.034
0.53 136.233 77.995
0.54 134.861 77.887
0.55 133.351 77.841
0.56 131.187 77.792
0.57 128.901 77.682
0.58 128.230 77.517
0.59 128.895 77.399
0.60 130.299 77.338
0.61 132.651 77.149
0.62 135.585 76.716
0.63 136.292 76.142
0.64 137.978 75.620
0.65 144.472 75.592
0.66 153.546 75.915
0.67 160.467 76.267
0.68 166.614 76.848
0.69 173.079 77.338
0.70 180.056 77.531
0.71 183.056 77.303
0.72 182.563 75.752
0.73 182.222 72.474
0.74 --undefined-- 69.931
0.75 --undefined-- 69.394
0.76 192.316 72.350
0.77 177.666 76.400
0.78 157.348 78.220
0.79 141.035 78.289
0.80 --undefined-- 77.696
0.81 97.682 77.210
0.82 95.270 76.725
0.83 95.838 76.090
0.84 99.518 75.466
0.85 102.218 74.470
0.86 104.107 72.133
0.87 103.773 67.912
0.88 --undefined-- 62.069
0.89 --undefined-- 57.129
0.90 --undefined-- 59.548
0.91 --undefined-- 68.146
0.92 --undefined-- 74.491
0.93 145.969 77.502
0.94 124.520 78.339
0.95 121.179 78.270
0.96 119.063 77.347
0.97 117.507 74.646
0.98 103.461 69.939
0.99 120.056 64.556
1.00 119.364 59.468
1.01 --undefined-- 55.798
1.02 --undefined-- 60.104
1.03 --undefined-- 68.512
1.04 191.246 74.388
1.05 178.465 77.504
1.06 177.104 78.671
1.07 178.770 78.906
1.08 179.939 78.776
1.09 180.640 77.917
1.10 176.328 75.741
1.11 163.080 72.648
1.12 158.865 71.760
1.13 166.887 75.224
1.14 163.335 78.160
1.15 157.680 79.108
1.16 139.871 78.808
1.17 125.514 78.581
1.18 120.599 79.100
1.19 117.772 79.577
1.20 116.245 79.491
1.21 116.771 78.915
1.22 118.417 78.115
1.23 119.281 77.196
1.24 122.353 76.244
1.25 123.573 75.556
1.26 121.420 74.297
1.27 115.662 71.308
1.28 121.052 66.446
1.29 120.191 60.788
1.30 118.980 58.107
1.31 119.832 64.901
1.32 --undefined-- 72.525
1.33 --undefined-- 76.516
1.34 171.970 77.603
1.35 168.976 76.971
1.36 --undefined-- 75.391
1.37 --undefined-- 72.062
1.38 --undefined-- 66.288
1.39 --undefined-- 59.116
1.40 --undefined-- 53.365
1.41 --undefined-- 49.798
1.42 --undefined-- 47.523
1.43 --undefined-- 52.972
1.44 --undefined-- 59.593
1.45 --undefined-- 63.787
1.46 135.208 67.242
1.47 143.814 70.595
1.48 141.460 73.137
1.49 136.323 74.875
1.50 124.325 75.899
1.51 118.514 75.968
1.52 107.531 75.223
1.53 103.922 74.334
1.54 103.114 73.880
1.55 105.220 73.873
1.56 106.691 74.405
1.57 108.294 75.416
1.58 109.925 76.421
1.59 113.754 77.244
1.60 119.134 77.915
1.61 122.966 78.333
1.62 125.864 78.306
1.63 126.664 77.613
1.64 127.386 75.667
1.65 123.008 71.629
1.66 161.386 65.252
1.67 165.949 58.185
1.68 --undefined-- 54.733
1.69 --undefined-- 57.086
1.70 --undefined-- 61.094
1.71 --undefined-- 63.754
1.72 --undefined-- 64.893
1.73 --undefined-- 65.875
1.74 --undefined-- 68.455
1.75 151.576 71.237
1.76 147.060 73.023
1.77 140.388 74.411
1.78 141.988 75.352
1.79 124.843 75.668
1.80 115.340 76.111
1.81 111.912 76.718
1.82 107.348 76.727
1.83 99.994 75.923
1.84 97.664 74.304
1.85 96.571 71.436
1.86 --undefined-- 68.061
1.87 --undefined-- 68.763
1.88 --undefined-- 70.556
1.89 91.251 71.232
1.90 87.139 71.730
1.91 96.359 72.768
1.92 97.182 74.127
1.93 101.857 75.129
1.94 102.779 75.704
1.95 104.334 76.055
1.96 105.968 76.178
1.97 106.459 76.188
1.98 107.969 76.295
1.99 109.667 76.491
2.00 110.551 76.667
2.01 110.322 76.754
2.02 110.709 76.754
2.03 111.634 76.671
2.04 110.660 76.429
2.05 110.668 76.296
2.06 118.451 77.233
2.07 120.015 78.643
2.08 120.485 79.331
2.09 120.841 79.498
2.10 122.477 79.482
2.11 124.500 79.268
2.12 127.376 78.949
2.13 127.562 78.298
2.14 121.792 76.569
2.15 117.252 73.038
2.16 --undefined-- 67.332
2.17 127.690 60.038
2.18 126.549 54.889
2.19 --undefined-- 53.299
2.20 --undefined-- 55.197
2.21 --undefined-- 58.065
2.22 --undefined-- 59.184
2.23 --undefined-- 58.841
2.24 --undefined-- 58.047
2.25 --undefined-- 57.298
2.26 --undefined-- 56.103
2.27 --undefined-- 55.085
2.28 --undefined-- 54.812
2.29 --undefined-- 54.709
2.30 --undefined-- 54.896
2.31 --undefined-- 55.560
2.32 --undefined-- 56.078
2.33 --undefined-- 55.964
2.34 --undefined-- 56.142
2.35 --undefined-- 56.818
2.36 --undefined-- 57.224
2.37 --undefined-- 57.463
2.38 --undefined-- 57.436
2.39 --undefined-- 57.236
2.40 --undefined-- 57.886
2.41 183.281 59.135
2.42 180.862 59.682
2.43 165.297 59.476
2.44 149.433 58.302
2.45 148.050 55.292
2.46 --undefined-- 50.655
2.47 --undefined-- 48.705
2.48 --undefined-- 49.632
2.49 --undefined-- 57.440
2.50 --undefined-- 67.472
2.51 216.439 73.745
2.52 212.775 77.079
2.53 216.960 78.601
2.54 221.859 79.262
2.55 223.570 79.602
2.56 225.679 79.802
2.57 232.219 79.991
2.58 241.027 80.320
2.59 242.322 80.603
2.60 241.842 80.613
2.61 240.232 80.484
2.62 236.514 80.291
2.63 231.402 79.931
2.64 227.143 79.573
2.65 223.588 79.310
2.66 217.005 79.136
2.67 210.423 79.096
2.68 200.179 78.906
2.69 187.810 78.512
2.70 173.213 78.279
2.71 166.126 78.272
2.72 159.971 77.994
2.73 154.755 77.041
2.74 154.926 75.678
2.75 156.717 74.974
2.76 161.897 75.315
2.77 168.767 76.349
2.78 189.071 77.617
2.79 193.262 78.460
2.80 195.585 78.915
2.81 196.838 79.160
2.82 197.368 79.006
2.83 197.001 78.099
2.84 194.819 75.827
2.85 169.126 71.563
2.86 166.579 65.363
2.87 188.011 58.855
2.88 194.324 54.696
2.89 --undefined-- 55.041
2.90 --undefined-- 60.194
2.91 --undefined-- 65.723
2.92 199.788 72.214
2.93 197.559 77.218
2.94 189.993 79.562
2.95 184.305 80.071
2.96 180.759 79.985
2.97 176.282 79.937
2.98 173.280 80.046
2.99 170.780 80.045
3.00 166.347 79.731
3.01 163.941 79.388
3.02 163.245 78.971
3.03 160.252 77.890
3.04 154.364 75.658
3.05 149.380 72.274
3.06 153.941 68.996
3.07 159.659 70.184
3.08 159.830 74.760
3.09 161.945 78.035
3.10 157.638 79.517
3.11 152.526 79.697
3.12 147.649 79.009
3.13 142.756 77.360
3.14 133.922 74.727
3.15 135.298 73.971
3.16 140.909 75.975
3.17 141.802 77.340
3.18 141.019 77.720
3.19 140.234 77.720
3.20 138.776 77.706
3.21 136.603 77.551
3.22 135.178 77.120
3.23 132.674 76.709
3.24 131.444 76.629
3.25 130.839 76.286
3.26 --undefined-- 74.786
3.27 --undefined-- 71.501
3.28 --undefined-- 66.769
3.29 --undefined-- 63.338
3.30 --undefined-- 60.560
3.31 --undefined-- 55.906
3.32 --undefined-- 54.883
3.33 --undefined-- 59.692
3.34 136.932 63.709
3.35 137.016 66.781
3.36 128.247 69.355
3.37 134.703 71.719
3.38 135.205 73.673
3.39 132.993 75.121
3.40 133.664 76.262
3.41 134.895 77.190
3.42 132.304 77.734
3.43 130.375 77.848
3.44 129.263 77.775
3.45 128.406 77.804
3.46 127.750 78.015
3.47 127.370 78.246
3.48 127.261 78.326
3.49 127.518 78.189
3.50 127.671 77.619
3.51 125.718 76.363
3.52 122.455 75.216
3.53 127.791 75.510
3.54 131.227 76.489
3.55 134.018 77.293
3.56 135.482 77.751
3.57 137.118 77.965
3.58 141.634 78.038
3.59 142.642 77.869
3.60 143.362 77.590
3.61 143.676 77.516
3.62 142.907 77.708
3.63 142.121 77.969
3.64 141.233 78.073
3.65 139.507 77.884
3.66 136.207 77.611
3.67 131.849 77.697
3.68 129.256 78.092
3.69 126.483 78.288
3.70 123.088 77.874
3.71 119.614 76.714
3.72 118.587 75.475
3.73 121.131 75.101
3.74 120.673 75.255
3.75 120.214 75.457
3.76 119.796 75.551
3.77 119.700 75.463
3.78 118.795 75.235
3.79 120.196 75.461
3.80 121.355 76.767
3.81 122.599 77.979
3.82 127.163 78.429
3.83 132.999 78.657
3.84 138.552 78.968
3.85 142.443 79.148
3.86 146.311 79.062
3.87 151.541 78.383
3.88 153.570 76.349
3.89 147.836 72.397
3.90 153.491 67.235
3.91 --undefined-- 64.742
3.92 --undefined-- 66.856
3.93 211.890 72.815
3.94 208.384 77.225
3.95 200.424 78.792
3.96 198.517 78.736
3.97 199.930 78.548
3.98 202.530 78.647
3.99 203.274 78.753
4.00 202.649 78.644
4.01 200.424 78.470
4.02 198.246 78.356
4.03 194.574 77.683
4.04 191.307 75.429
4.05 194.434 70.698
4.06 207.280 63.398
4.07 201.137 58.315
4.08 196.693 63.702
4.09 214.222 71.669
4.10 170.554 76.185
4.11 155.853 77.601
4.12 143.067 77.474
4.13 136.721 77.272
4.14 132.377 76.892
4.15 127.676 75.852
4.16 121.434 74.950
4.17 124.012 75.181
4.18 124.706 75.641
4.19 122.628 75.257
4.20 121.023 73.523
4.21 117.832 70.068
4.22 112.940 64.789
4.23 108.700 58.348
4.24 --undefined-- 53.722
4.25 --undefined-- 55.576
4.26 --undefined-- 64.152
4.27 160.578 70.912
4.28 148.681 74.938
4.29 149.630 76.906
4.30 153.824 77.434
4.31 155.831 76.875
4.32 155.756 75.299
4.33 154.474 72.935
4.34 154.965 70.689
4.35 160.892 70.659
4.36 163.380 74.177
4.37 162.037 77.467
4.38 160.760 78.795
4.39 157.736 78.558
4.40 143.851 77.693
4.41 134.162 76.929
4.42 128.406 75.780
4.43 122.187 73.177
4.44 104.326 68.814
4.45 97.285 63.335
4.46 --undefined-- 59.797
4.47 --undefined-- 66.570
4.48 --undefined-- 73.516
4.49 --undefined-- 77.096
4.50 126.924 77.833
4.51 120.751 76.343
4.52 116.770 72.783
4.53 99.838 67.124
4.54 100.426 61.016
4.55 120.692 57.553
4.56 --undefined-- 56.106
4.57 --undefined-- 54.052
4.58 --undefined-- 51.052
4.59 --undefined-- 52.969
4.60 --undefined-- 57.902
4.61 --undefined-- 61.866
4.62 --undefined-- 66.867
4.63 --undefined-- 73.298
4.64 --undefined-- 77.350
4.65 165.921 78.677
4.66 160.838 78.637
4.67 155.441 77.825
4.68 147.744 75.614
4.69 138.505 71.717
4.70 --undefined-- 66.538
4.71 --undefined-- 62.240
4.72 --undefined-- 59.678
4.73 --undefined-- 57.896
4.74 --undefined-- 56.410
4.75 --undefined-- 55.383
4.76 --undefined-- 54.913
4.77 --undefined-- 54.435
4.78 --undefined-- 54.458
4.79 --undefined-- 55.063
4.80 --undefined-- 56.262
4.81 --undefined-- 60.132
4.82 --undefined-- 68.595
4.83 190.599 74.899
4.84 180.204 77.800
4.85 172.496 78.450
4.86 168.171 78.399
4.87 164.465 78.366
4.88 160.436 78.010
4.89 156.152 77.695
4.90 158.024 78.164
4.91 160.011 78.867
4.92 161.760 79.271
4.93 163.225 79.381
4.94 164.244 79.337
4.95 164.948 79.247
4.96 164.742 79.132
4.97 164.316 78.975
4.98 163.205 --undefined--
4.99 161.171 --undefined--
5.00 --undefined-- --undefined--
5.01 --undefined-- --undefined--
