Time Pitch Intensity
0.01 --undefined-- --undefined--
0.02 142.550 --undefined--
0.03 133.331 --undefined--
0.04 127.072 --undefined--
0.05 123.113 73.443
0.06 121.013 73.539
0.07 120.367 75.047
0.08 125.593 77.711
0.09 127.812 79.892
0.10 128.291 80.967
0.11 131.161 81.228
0.12 134.465 81.332
0.13 141.556 81.566
0.14 148.363 81.712
0.15 152.789 81.359
0.16 161.143 80.245
0.17 172.242 78.539
0.18 174.483 76.469
0.19 169.289 73.633
0.20 160.564 69.205
0.21 144.710 62.742
0.22 --undefined-- 55.465
0.23 --undefined-- 52.013
0.24 --undefined-- 50.984
0.25 --undefined-- 51.261
0.26 --undefined-- 51.517
0.27 --undefined-- 51.374
0.28 --undefined-- 51.491
0.29 --undefined-- 51.699
0.30 --undefined-- 51.590
0.31 --undefined-- 51.143
0.32 --undefined-- 50.485
0.33 --undefined-- 50.088
0.34 --undefined-- 49.676
0.35 --undefined-- 48.960
0.36 --undefined-- 48.215
0.37 --undefined-- 47.697
0.38 --undefined-- 48.882
0.39 --undefined-- 50.458
0.40 --undefined-- 50.890
0.41 --undefined-- 49.363
0.42 --undefined-- 46.009
0.43 --undefined-- 47.208
0.44 --undefined-- 54.883
0.45 --undefined-- 60.096
0.46 --undefined-- 62.131
0.47 --undefined-- 61.541
0.48 --undefined-- 61.512
0.49 256.173 69.833
0.50 248.073 77.405
0.51 225.842 81.476
0.52 215.647 82.905
0.53 215.050 83.155
0.54 216.288 83.109
0.55 217.104 82.871
0.56 220.240 82.594
0.57 224.211 82.520
0.58 226.605 82.563
0.59 227.098 82.379
0.60 225.230 81.863
0.61 220.860 81.098
0.62 216.299 79.911
0.63 211.151 77.874
0.64 202.610 74.900
0.65 191.863 71.208
0.66 187.307 66.734
0.67 --undefined-- 60.613
0.68 --undefined-- 53.939
0.69 --undefined-- 53.106
0.70 --undefined-- 54.588
0.71 --undefined-- 56.093
0.72 --undefined-- 59.326
0.73 --undefined-- 68.545
0.74 270.216 75.996
0.75 251.887 80.100
0.76 240.234 81.717
0.77 233.017 81.920
0.78 232.438 81.687
0.79 232.847 81.507
0.80 233.887 81.418
0.81 234.854 81.334
0.82 235.475 81.198
0.83 235.423 81.025
0.84 235.957 80.935
0.85 236.244 80.982
0.86 236.286 81.041
0.87 235.440 80.954
0.88 232.630 80.643
0.89 226.637 79.837
0.90 214.301 77.789
0.91 190.519 73.641
0.92 152.086 66.920
0.93 --undefined-- 58.908
0.94 --undefined-- 56.180
0.95 --undefined-- 60.509
0.96 --undefined-- 63.797
0.97 --undefined-- 64.708
0.98 --undefined-- 63.163
0.99 --undefined-- 60.691
1.00 --undefined-- 63.356
1.01 139.215 67.933
1.02 132.285 71.503
1.03 121.479 74.097
1.04 118.953 75.733
1.05 103.658 76.259
1.06 102.130 75.760
1.07 92.968 74.576
1.08 91.073 73.236
1.09 91.087 72.290
1.10 92.556 71.751
1.11 94.097 71.223
1.12 94.354 69.999
1.13 95.299 67.883
1.14 107.233 65.646
1.15 111.847 63.837
1.16 127.588 64.661
1.17 131.687 69.505
1.18 131.791 74.012
1.19 129.302 76.833
1.20 121.601 78.249
1.21 120.481 78.854
1.22 121.907 79.221
1.23 123.888 79.471
1.24 124.317 79.470
1.25 123.992 79.250
1.26 122.537 78.826
1.27 120.897 78.166
1.28 119.454 77.299
1.29 117.159 76.389
1.30 115.034 75.907
1.31 113.632 76.209
1.32 112.644 77.104
1.33 111.544 78.166
1.34 110.577 78.952
1.35 110.853 79.277
1.36 111.220 79.175
1.37 110.983 78.558
1.38 110.455 77.245
1.39 108.379 75.127
1.40 108.272 72.225
1.41 104.442 68.871
1.42 --undefined-- 65.932
1.43 --undefined-- 64.737
1.44 --undefined-- 64.458
1.45 --undefined-- 64.025
1.46 --undefined-- 63.370
1.47 --undefined-- 65.411
1.48 --undefined-- 71.420
1.49 145.686 75.462
1.50 138.955 77.339
1.51 130.277 77.992
1.52 126.779 78.099
1.53 125.434 77.897
1.54 123.191 77.430
1.55 121.697 76.876
1.56 120.417 76.367
1.57 119.035 75.972
1.58 120.300 76.018
1.59 122.082 76.567
1.60 122.045 77.161
1.61 120.934 77.495
1.62 119.334 77.629
1.63 118.746 77.721
1.64 118.600 77.801
1.65 117.910 77.857
1.66 117.970 77.899
1.67 117.730 77.854
1.68 117.095 77.623
1.69 116.927 77.209
1.70 115.861 76.527
1.71 114.647 75.549
1.72 115.022 74.258
1.73 112.284 72.230
1.74 108.821 69.019
1.75 106.035 64.605
1.76 106.167 60.110
1.77 --undefined-- 58.417
1.78 --undefined-- 59.755
1.79 --undefined-- 61.384
1.80 --undefined-- 67.423
1.81 140.332 73.400
1.82 130.746 76.504
1.83 118.507 77.645
1.84 113.988 77.878
1.85 111.199 77.768
1.86 110.920 77.493
1.87 110.135 77.109
1.88 109.377 77.041
1.89 111.209 77.445
1.90 111.810 77.789
1.91 111.229 77.835
1.92 110.455 77.597
1.93 109.872 77.220
1.94 111.958 77.291
1.95 114.934 77.833
1.96 114.678 78.183
1.97 113.640 78.392
1.98 112.679 78.631
1.99 112.490 78.842
2.00 112.482 78.994
2.01 112.391 79.023
2.02 111.867 78.968
2.03 111.464 78.887
2.04 111.001 78.888
2.05 110.228 79.138
2.06 111.329 79.528
2.07 112.328 79.732
2.08 111.786 79.735
2.09 111.928 79.725
2.10 112.625 79.704
2.11 112.979 79.601
2.12 113.537 79.434
2.13 114.612 79.237
2.14 114.600 78.972
2.15 114.323 78.618
2.16 114.062 78.175
2.17 113.566 77.451
2.18 112.778 76.069
2.19 111.880 73.905
2.20 112.098 71.507
2.21 111.019 69.608
2.22 111.737 68.255
2.23 116.707 67.611
2.24 117.098 68.144
2.25 118.285 69.573
2.26 118.119 71.270
2.27 116.343 73.345
2.28 112.277 75.474
2.29 110.411 76.916
2.30 110.747 77.577
2.31 111.215 77.583
2.32 110.767 76.649
2.33 104.708 74.336
2.34 99.928 70.979
2.35 102.662 68.307
2.36 116.001 68.653
2.37 125.413 72.207
2.38 115.143 75.574
2.39 114.187 77.182
2.40 110.698 77.418
2.41 111.231 77.611
2.42 114.721 78.178
2.43 117.343 78.394
2.44 119.994 78.131
2.45 121.651 77.547
2.46 121.070 76.168
2.47 117.983 73.334
2.48 115.044 68.833
2.49 111.299 62.740
2.50 --undefined-- 58.397
2.51 --undefined-- 61.803
2.52 --undefined-- 65.183
2.53 --undefined-- 70.928
2.54 --undefined-- 75.680
2.55 121.944 77.857
2.56 116.841 78.434
2.57 113.808 78.258
2.58 112.094 77.595
2.59 109.701 76.721
2.60 110.293 76.299
2.61 111.707 76.321
2.62 110.746 76.387
2.63 109.801 76.631
2.64 108.944 76.948
2.65 107.599 77.109
2.66 106.032 77.042
2.67 104.795 76.959
2.68 98.526 77.014
2.69 98.635 76.769
2.70 92.954 76.007
2.71 90.771 75.490
2.72 96.442 75.924
2.73 98.221 76.676
2.74 97.578 76.613
2.75 98.100 75.800
2.76 96.684 74.393
2.77 94.505 72.297
2.78 93.550 69.840
2.79 89.560 66.797
2.80 --undefined-- 62.947
2.81 --undefined-- 57.907
2.82 --undefined-- 52.863
2.83 --undefined-- 51.660
2.84 --undefined-- 50.003
2.85 --undefined-- 48.647
2.86 --undefined-- 48.894
2.87 --undefined-- 48.862
2.88 --undefined-- 48.677
2.89 --undefined-- 48.959
2.90 --undefined-- 49.671
2.91 --undefined-- 50.203
2.92 --undefined-- 50.019
2.93 --undefined-- 48.863
2.94 --undefined-- 47.741
2.95 --undefined-- 47.591
2.96 --undefined-- 47.256
2.97 --undefined-- 46.785
2.98 --undefined-- 46.733
2.99 --undefined-- 46.641
3.00 --undefined-- 46.157
3.01 --undefined-- 46.318
3.02 --undefined-- 47.055
3.03 --undefined-- 47.159
3.04 --undefined-- 45.928
3.05 --undefined-- 45.524
3.06 --undefined-- 49.368
3.07 --undefined-- 53.193
3.08 --undefined-- 54.646
3.09 --undefined-- 58.898
3.10 --undefined-- 65.784
3.11 151.198 70.506
3.12 129.177 73.430
3.13 121.526 75.002
3.14 119.951 75.603
3.15 120.008 75.770
3.16 122.515 75.976
3.17 125.992 76.290
3.18 128.952 76.320
3.19 129.195 75.666
3.20 127.797 74.118
3.21 125.349 71.695
3.22 124.141 68.673
3.23 123.056 67.014
3.24 137.035 70.371
3.25 143.400 74.126
3.26 131.243 76.227
3.27 119.644 76.931
3.28 114.294 76.775
3.29 112.668 76.408
3.30 112.948 76.135
3.31 112.284 75.794
3.32 111.426 75.265
3.33 111.441 74.985
3.34 110.933 75.046
3.35 110.122 75.005
3.36 110.080 74.828
3.37 110.904 74.851
3.38 109.285 75.201
3.39 108.684 75.347
3.40 107.972 75.104
3.41 108.172 74.782
3.42 108.220 74.572
3.43 108.085 74.299
3.44 107.466 73.627
3.45 103.254 72.149
3.46 99.745 69.727
3.47 104.313 66.912
3.48 106.881 64.955
3.49 108.886 65.374
3.50 133.371 68.947
3.51 133.249 72.808
3.52 124.201 75.213
3.53 116.853 76.286
3.54 114.996 76.755
3.55 116.663 77.082
3.56 118.004 77.077
3.57 116.114 76.191
3.58 112.505 73.978
3.59 109.536 70.666
3.60 107.565 67.005
3.61 114.292 64.409
3.62 133.032 67.127
3.63 137.298 71.474
3.64 127.358 74.122
3.65 119.002 75.320
3.66 111.426 75.592
3.67 108.876 75.438
3.68 107.782 75.265
3.69 107.256 75.034
3.70 107.033 74.558
3.71 107.478 73.660
3.72 105.284 71.790
3.73 104.173 68.508
3.74 106.024 64.707
3.75 --undefined-- 63.216
3.76 --undefined-- 64.081
3.77 --undefined-- 64.504
3.78 --undefined-- 63.988
3.79 --undefined-- 67.340
3.80 --undefined-- 70.513
3.81 96.454 71.133
3.82 96.460 70.513
3.83 92.762 69.858
3.84 94.827 69.336
3.85 96.760 69.010
3.86 98.999 69.098
3.87 102.720 69.584
3.88 103.463 69.696
3.89 103.964 68.913
3.90 105.850 67.161
3.91 101.412 64.061
3.92 103.511 59.618
3.93 --undefined-- 56.524
3.94 --undefined-- 62.275
3.95 221.651 71.553
3.96 208.426 77.476
3.97 188.970 80.443
3.98 187.026 81.640
3.99 190.707 82.179
4.00 196.276 82.413
4.01 201.545 81.943
4.02 207.285 80.526
4.03 207.870 78.740
4.04 206.177 77.304
4.05 204.094 75.814
4.06 208.254 73.965
4.07 214.159 72.160
4.08 238.578 70.725
4.09 241.843 68.354
4.10 281.150 64.347
4.11 266.416 63.471
4.12 239.154 65.808
4.13 208.732 68.197
4.14 --undefined-- 69.423
4.15 --undefined-- 70.349
4.16 --undefined-- 71.509
4.17 --undefined-- 72.011
4.18 112.202 71.861
4.19 113.650 71.438
4.20 109.560 71.202
4.21 111.572 71.557
4.22 107.011 71.645
4.23 101.705 71.086
4.24 102.964 70.638
4.25 99.691 70.198
4.26 98.938 69.306
4.27 96.345 68.158
4.28 96.820 66.989
4.29 96.110 65.983
4.30 95.829 65.680
4.31 99.634 66.257
4.32 101.698 67.189
4.33 102.513 67.850
4.34 106.313 67.878
4.35 112.978 67.178
4.36 121.543 66.012
4.37 129.953 65.395
4.38 137.179 67.246
4.39 142.146 71.097
4.40 139.172 74.273
4.41 130.956 76.054
4.42 129.742 76.784
4.43 129.263 76.861
4.44 130.423 76.679
4.45 132.732 76.575
4.46 134.810 76.435
4.47 136.266 76.144
4.48 137.153 75.896
4.49 140.308 75.748
4.50 142.622 75.280
4.51 139.222 73.934
4.52 134.143 71.265
4.53 129.064 67.030
4.54 --undefined-- 61.126
4.55 --undefined-- 54.704
4.56 --undefined-- 53.012
4.57 --undefined-- 58.937
4.58 164.544 66.768
4.59 156.752 71.625
4.60 144.278 73.946
4.61 131.974 74.791
4.62 123.739 75.329
4.63 123.307 75.718
4.64 122.733 75.627
4.65 120.545 74.891
4.66 117.685 73.274
4.67 113.168 70.582
4.68 111.965 66.934
4.69 111.866 62.692
4.70 --undefined-- 58.295
4.71 --undefined-- 60.613
4.72 167.110 67.667
4.73 149.121 72.861
4.74 143.437 76.257
4.75 141.530 78.374
4.76 147.056 79.757
4.77 154.794 80.983
4.78 163.908 82.254
4.79 172.175 83.269
4.80 179.398 83.658
4.81 183.419 82.937
4.82 183.350 80.677
4.83 176.318 77.007
4.84 171.833 72.264
4.85 --undefined-- 65.665
4.86 --undefined-- 57.766
4.87 --undefined-- 53.207
4.88 --undefined-- 50.834
4.89 --undefined-- 48.709
4.90 --undefined-- 48.633
4.91 --undefined-- 49.477
4.92 --undefined-- 50.729
4.93 --undefined-- 52.025
4.94 --undefined-- 53.139
4.95 --undefined-- 53.931
4.96 --undefined-- 53.632
4.97 --undefined-- 51.935
4.98 --undefined-- 50.234
4.99 --undefined-- 49.138
5.00 --undefined-- 47.206
5.01 --undefined-- 44.121
5.02 --undefined-- --undefined--
5.03 --undefined-- --undefined--
5.04 --undefined-- --undefined--
5.05 --undefined-- --undefined--
