Time Pitch Intensity
0.01 --undefined-- --undefined--
0.02 103.436 --undefined--
0.03 103.082 --undefined--
0.04 --undefined-- --undefined--
0.05 --undefined-- 46.523
0.06 --undefined-- 42.831
0.07 --undefined-- 40.444
0.08 --undefined-- 39.110
0.09 --undefined-- 37.315
0.10 --undefined-- 36.226
0.11 --undefined-- 36.104
0.12 --undefined-- 35.936
0.13 --undefined-- 35.832
0.14 --undefined-- 35.490
0.15 --undefined-- 35.043
0.16 --undefined-- 35.519
0.17 --undefined-- 36.902
0.18 --undefined-- 37.522
0.19 --undefined-- 37.740
0.20 --undefined-- 39.470
0.21 --undefined-- 40.839
0.22 --undefined-- 40.503
0.23 --undefined-- 39.767
0.24 --undefined-- 39.714
0.25 --undefined-- 40.422
0.26 --undefined-- 40.683
0.27 --undefined-- 39.661
0.28 --undefined-- 39.287
0.29 --undefined-- 40.303
0.30 --undefined-- 40.841
0.31 --undefined-- 40.645
0.32 --undefined-- 40.722
0.33 --undefined-- 40.481
0.34 --undefined-- 39.682
0.35 --undefined-- 39.085
0.36 --undefined-- 38.404
0.37 --undefined-- 38.118
0.38 --undefined-- 38.055
0.39 --undefined-- 37.357
0.40 --undefined-- 36.685
0.41 --undefined-- 36.332
0.42 --undefined-- 36.366
0.43 --undefined-- 37.047
0.44 --undefined-- 37.790
0.45 --undefined-- 37.648
0.46 --undefined-- 36.633
0.47 --undefined-- 35.645
0.48 --undefined-- 35.232
0.49 --undefined-- 35.040
0.50 --undefined-- 34.854
0.51 --undefined-- 35.526
0.52 --undefined-- 35.561
0.53 --undefined-- 34.057
0.54 --undefined-- 33.956
0.55 --undefined-- 35.019
0.56 --undefined-- 34.305
0.57 --undefined-- 32.066
0.58 --undefined-- 30.981
0.59 --undefined-- 31.316
0.60 --undefined-- 31.689
0.61 --undefined-- 31.812
0.62 --undefined-- 31.027
0.63 --undefined-- 29.808
0.64 --undefined-- 30.528
0.65 --undefined-- 32.136
0.66 --undefined-- 32.907
0.67 --undefined-- 33.617
0.68 --undefined-- 35.037
0.69 --undefined-- 37.527
0.70 --undefined-- 40.799
0.71 --undefined-- 44.046
0.72 --undefined-- 46.610
0.73 --undefined-- 48.182
0.74 --undefined-- 48.479
0.75 --undefined-- 47.536
0.76 --undefined-- 52.021
0.77 --undefined-- 61.846
0.78 --undefined-- 68.474
0.79 --undefined-- 72.160
0.80 134.336 73.839
0.81 136.347 74.544
0.82 136.042 74.867
0.83 137.982 74.996
0.84 137.259 75.187
0.85 138.035 75.307
0.86 139.234 74.611
0.87 140.720 72.652
0.88 145.268 70.387
0.89 145.518 69.480
0.90 146.316 69.082
0.91 146.454 68.417
0.92 146.691 68.052
0.93 145.587 68.356
0.94 145.710 69.295
0.95 147.233 70.744
0.96 149.421 72.211
0.97 152.079 73.287
0.98 151.849 73.799
0.99 151.516 73.970
1.00 151.851 74.433
1.01 151.909 75.260
1.02 151.641 76.359
1.03 152.883 77.409
1.04 156.933 77.583
1.05 160.401 76.946
1.06 162.280 76.459
1.07 163.305 76.148
1.08 166.151 75.511
1.09 168.418 74.043
1.10 169.944 70.830
1.11 172.902 65.602
1.12 172.174 60.136
1.13 167.902 56.847
1.14 --undefined-- 54.086
1.15 --undefined-- 51.202
1.16 --undefined-- 48.543
1.17 --undefined-- 45.710
1.18 --undefined-- 42.836
1.19 --undefined-- 40.292
1.20 --undefined-- 38.487
1.21 --undefined-- 37.360
1.22 --undefined-- 36.555
1.23 --undefined-- 36.631
1.24 --undefined-- 37.474
1.25 --undefined-- 37.227
1.26 --undefined-- 35.989
1.27 --undefined-- 39.868
1.28 --undefined-- 46.617
1.29 --undefined-- 51.850
1.30 --undefined-- 55.804
1.31 107.815 59.180
1.32 104.491 62.387
1.33 103.409 65.294
1.34 104.501 67.648
1.35 106.452 69.246
1.36 107.400 69.906
1.37 110.213 69.478
1.38 112.424 68.231
1.39 115.883 66.348
1.40 --undefined-- 62.663
1.41 --undefined-- 56.113
1.42 --undefined-- 49.273
1.43 --undefined-- 45.523
1.44 --undefined-- 42.816
1.45 --undefined-- 42.588
1.46 --undefined-- 44.066
1.47 --undefined-- 50.591
1.48 --undefined-- 60.708
1.49 --undefined-- 67.185
1.50 --undefined-- 70.793
1.51 --undefined-- 72.359
1.52 --undefined-- 72.475
1.53 104.531 71.783
1.54 103.499 70.563
1.55 98.411 68.989
1.56 97.052 68.150
1.57 95.353 68.127
1.58 94.627 67.888
1.59 95.129 67.810
1.60 95.129 68.101
1.61 94.894 68.125
1.62 95.246 67.803
1.63 95.418 67.382
1.64 96.158 67.145
1.65 96.731 67.322
1.66 97.563 67.942
1.67 97.674 68.551
1.68 97.249 68.799
1.69 96.412 68.541
1.70 94.931 67.536
1.71 93.950 65.893
1.72 94.599 64.289
1.73 94.876 63.244
1.74 95.864 62.706
1.75 95.850 62.294
1.76 95.087 61.862
1.77 96.255 62.050
1.78 96.808 62.548
1.79 97.016 62.584
1.80 97.759 62.102
1.81 98.815 61.395
1.82 100.437 60.815
1.83 101.940 59.896
1.84 102.179 57.754
1.85 --undefined-- 53.928
1.86 --undefined-- 48.984
1.87 --undefined-- 44.565
1.88 --undefined-- 40.827
1.89 --undefined-- 37.168
1.90 --undefined-- 34.771
1.91 --undefined-- 34.188
1.92 --undefined-- 34.974
1.93 --undefined-- 35.479
1.94 --undefined-- 33.940
1.95 --undefined-- 32.104
1.96 --undefined-- 32.359
1.97 --undefined-- 32.899
1.98 --undefined-- 33.020
1.99 --undefined-- 32.559
2.00 --undefined-- 31.353
2.01 --undefined-- 30.097
2.02 --undefined-- 29.475
2.03 --undefined-- 31.119
2.04 --undefined-- 33.377
2.05 --undefined-- 34.209
2.06 --undefined-- 33.922
2.07 --undefined-- 34.545
2.08 --undefined-- 34.760
2.09 --undefined-- 33.443
2.10 --undefined-- 32.253
2.11 --undefined-- 33.075
2.12 --undefined-- 33.468
2.13 --undefined-- 32.529
2.14 --undefined-- 32.308
2.15 --undefined-- 32.034
2.16 --undefined-- 31.102
2.17 --undefined-- 30.836
2.18 --undefined-- 30.905
2.19 --undefined-- 31.656
2.20 --undefined-- 32.596
2.21 --undefined-- 32.280
2.22 --undefined-- 32.241
2.23 --undefined-- 38.403
2.24 --undefined-- 51.527
2.25 --undefined-- 63.038
2.26 --undefined-- 70.269
2.27 137.833 73.893
2.28 138.129 74.934
2.29 137.009 74.531
2.30 137.231 73.542
2.31 139.749 72.396
2.32 142.372 71.529
2.33 144.095 71.093
2.34 146.314 70.811
2.35 148.051 70.363
2.36 148.210 69.600
2.37 147.691 68.726
2.38 145.093 67.785
2.39 142.283 66.449
2.40 139.708 64.325
2.41 138.896 61.117
2.42 140.876 56.613
2.43 --undefined-- 51.345
2.44 --undefined-- 46.386
2.45 --undefined-- 42.094
2.46 --undefined-- 39.890
2.47 --undefined-- 38.467
2.48 --undefined-- 40.466
2.49 --undefined-- 48.304
2.50 --undefined-- 56.287
2.51 --undefined-- 63.922
2.52 --undefined-- 68.961
2.53 --undefined-- 71.292
2.54 --undefined-- 71.429
2.55 --undefined-- 70.200
2.56 100.188 68.579
2.57 100.185 66.540
2.58 99.738 64.961
2.59 100.632 64.378
2.60 102.444 63.548
2.61 106.835 62.146
2.62 109.303 60.251
2.63 --undefined-- 56.849
2.64 --undefined-- 51.162
2.65 --undefined-- 44.829
2.66 --undefined-- 42.569
2.67 --undefined-- 51.628
2.68 --undefined-- 62.944
2.69 --undefined-- 70.096
2.70 --undefined-- 73.817
2.71 --undefined-- 74.865
2.72 --undefined-- 74.081
2.73 109.130 72.514
2.74 109.561 71.090
2.75 109.181 70.035
2.76 109.490 68.954
2.77 107.533 67.777
2.78 109.895 67.261
2.79 111.682 67.522
2.80 113.418 68.085
2.81 114.515 68.591
2.82 114.246 68.060
2.83 113.068 65.644
2.84 113.596 61.529
2.85 115.450 58.773
2.86 116.037 57.911
2.87 117.916 56.288
2.88 117.314 53.437
2.89 --undefined-- 49.427
2.90 --undefined-- 44.889
2.91 --undefined-- 44.021
2.92 --undefined-- 46.027
2.93 --undefined-- 46.471
2.94 --undefined-- 45.047
2.95 --undefined-- 43.802
2.96 --undefined-- 43.682
2.97 --undefined-- 44.191
2.98 --undefined-- 49.214
2.99 --undefined-- 58.959
3.00 --undefined-- 65.804
3.01 118.114 69.464
3.02 117.134 70.477
3.03 113.297 69.086
3.04 112.520 65.523
3.05 112.526 61.453
3.06 110.750 59.719
3.07 108.959 58.901
3.08 108.328 58.062
3.09 110.380 57.668
3.10 111.990 57.749
3.11 110.823 57.144
3.12 --undefined-- 54.818
3.13 --undefined-- 50.504
3.14 --undefined-- 49.587
3.15 --undefined-- 53.128
3.16 --undefined-- 56.433
3.17 --undefined-- 62.297
3.18 --undefined-- 65.514
3.19 93.805 64.958
3.20 93.240 62.396
3.21 91.791 61.201
3.22 93.450 60.857
3.23 96.476 60.623
3.24 96.874 60.330
3.25 --undefined-- 58.614
3.26 --undefined-- 54.259
3.27 --undefined-- 47.263
3.28 --undefined-- 41.393
3.29 --undefined-- 40.330
3.30 --undefined-- 41.293
3.31 --undefined-- 44.074
3.32 --undefined-- 47.228
3.33 --undefined-- 48.830
3.34 --undefined-- 48.603
3.35 --undefined-- 47.488
3.36 --undefined-- 46.779
3.37 --undefined-- 49.438
3.38 --undefined-- 54.207
3.39 114.334 57.314
3.40 112.598 58.364
3.41 106.091 58.033
3.42 100.014 56.858
3.43 94.526 55.302
3.44 92.949 53.744
3.45 94.430 52.764
3.46 93.845 53.085
3.47 94.452 53.986
3.48 94.144 54.960
3.49 93.748 55.612
3.50 94.302 55.834
3.51 94.667 54.976
3.52 --undefined-- 51.826
3.53 --undefined-- 45.698
3.54 --undefined-- 39.427
3.55 --undefined-- 41.379
3.56 --undefined-- 48.916
3.57 --undefined-- 54.618
3.58 285.619 57.222
3.59 286.097 56.995
3.60 --undefined-- 54.794
3.61 --undefined-- 52.731
3.62 --undefined-- 52.585
3.63 --undefined-- 52.665
3.64 --undefined-- 54.331
3.65 --undefined-- 57.178
3.66 103.790 58.112
3.67 102.693 56.610
3.68 --undefined-- 52.980
3.69 --undefined-- 47.834
3.70 --undefined-- 42.725
3.71 --undefined-- 40.101
3.72 --undefined-- 39.388
3.73 --undefined-- 39.865
3.74 --undefined-- 40.520
3.75 --undefined-- 40.072
3.76 --undefined-- 39.399
3.77 --undefined-- 39.331
3.78 --undefined-- 39.141
3.79 --undefined-- 38.918
3.80 --undefined-- 38.830
3.81 --undefined-- 38.210
3.82 --undefined-- 36.575
3.83 --undefined-- 35.684
3.84 --undefined-- 39.411
3.85 --undefined-- 43.438
3.86 --undefined-- 45.602
3.87 --undefined-- 46.022
3.88 --undefined-- 44.318
3.89 --undefined-- 42.854
3.90 --undefined-- 43.280
3.91 --undefined-- 41.710
3.92 --undefined-- 38.047
3.93 --undefined-- 34.365
3.94 --undefined-- 31.380
3.95 --undefined-- 31.561
3.96 --undefined-- 38.300
3.97 --undefined-- 44.740
3.98 --undefined-- 48.689
3.99 --undefined-- 52.335
4.00 --undefined-- 55.400
4.01 --undefined-- 57.058
4.02 --undefined-- 58.338
4.03 --undefined-- 59.504
4.04 246.942 60.246
4.05 250.512 60.356
4.06 253.466 59.466
4.07 264.595 57.877
4.08 75.374 55.974
4.09 77.270 55.799
4.10 --undefined-- 55.388
4.11 --undefined-- 52.147
4.12 --undefined-- 45.862
4.13 --undefined-- 44.736
4.14 --undefined-- 46.765
4.15 --undefined-- 45.626
4.16 --undefined-- 42.246
4.17 --undefined-- 41.472
4.18 --undefined-- 41.046
4.19 --undefined-- 39.161
4.20 --undefined-- 39.044
4.21 --undefined-- 39.342
4.22 --undefined-- 37.336
4.23 --undefined-- 34.423
4.24 --undefined-- 35.233
4.25 --undefined-- 38.045
4.26 --undefined-- 38.684
4.27 --undefined-- 37.852
4.28 --undefined-- 36.300
4.29 --undefined-- 33.216
4.30 --undefined-- 30.203
4.31 --undefined-- 30.063
4.32 --undefined-- 30.292
4.33 --undefined-- 32.337
4.34 --undefined-- 41.590
4.35 --undefined-- 49.004
4.36 --undefined-- 54.381
4.37 --undefined-- 59.720
4.38 --undefined-- 63.171
4.39 --undefined-- 64.485
4.40 96.907 64.907
4.41 98.296 64.656
4.42 98.928 63.248
4.43 98.429 61.388
4.44 98.949 60.086
4.45 99.865 59.412
4.46 100.554 59.738
4.47 101.491 61.391
4.48 102.517 63.628
4.49 101.360 65.277
4.50 101.398 66.231
4.51 100.159 66.712
4.52 99.365 66.366
4.53 93.674 64.909
4.54 91.897 63.469
4.55 96.550 63.102
4.56 94.681 62.582
4.57 96.092 62.117
4.58 95.996 61.998
4.59 95.545 61.678
4.60 95.244 61.236
4.61 94.942 61.065
4.62 94.617 61.260
4.63 93.964 61.452
4.64 93.225 61.566
4.65 96.047 61.108
4.66 --undefined-- 59.060
4.67 --undefined-- 55.414
4.68 --undefined-- 51.546
4.69 --undefined-- 49.418
4.70 --undefined-- 47.976
4.71 --undefined-- 46.349
4.72 --undefined-- 45.697
4.73 --undefined-- 46.975
4.74 --undefined-- 52.211
4.75 100.568 57.424
4.76 99.662 60.514
4.77 99.444 61.684
4.78 100.330 61.513
4.79 101.436 60.653
4.80 104.499 59.788
4.81 107.074 59.155
4.82 107.923 58.111
4.83 108.238 56.178
4.84 --undefined-- 53.517
4.85 --undefined-- 51.262
4.86 --undefined-- 56.582
4.87 --undefined-- 62.228
4.88 --undefined-- 64.008
4.89 --undefined-- 62.188
4.90 --undefined-- 57.734
4.91 --undefined-- 53.033
4.92 --undefined-- 52.305
4.93 --undefined-- 53.855
4.94 --undefined-- 54.725
4.95 --undefined-- 59.213
4.96 108.518 64.658
4.97 109.460 67.752
4.98 99.978 68.909
4.99 99.180 68.886
5.00 98.085 68.137
5.01 99.627 67.602
5.02 100.409 67.666
5.03 101.089 67.689
5.04 101.702 67.347
5.05 103.866 66.321
5.06 107.902 64.579
5.07 113.273 63.268
5.08 115.453 63.385
5.09 116.881 64.742
5.10 119.384 66.912
5.11 121.259 68.885
5.12 121.513 70.166
5.13 120.655 70.817
5.14 120.265 70.830
5.15 119.238 69.951
5.16 121.755 68.561
5.17 122.147 67.945
5.18 120.866 68.151
5.19 120.293 68.453
5.20 118.368 68.364
5.21 116.181 68.170
5.22 114.593 69.115
5.23 112.102 70.607
5.24 109.212 71.211
5.25 106.596 71.152
5.26 104.334 70.873
5.27 102.663 70.378
5.28 100.362 69.829
5.29 98.544 69.053
5.30 95.715 67.809
5.31 93.862 66.223
5.32 92.948 64.505
5.33 91.347 63.120
5.34 92.241 62.273
5.35 93.963 61.957
5.36 93.343 61.803
5.37 114.495 60.687
5.38 --undefined-- 57.306
5.39 --undefined-- 50.598
5.40 --undefined-- 43.843
5.41 --undefined-- 41.258
5.42 --undefined-- 37.972
5.43 --undefined-- 35.798
5.44 --undefined-- 35.092
5.45 --undefined-- 34.503
5.46 --undefined-- 33.329
5.47 --undefined-- 31.623
5.48 --undefined-- 33.372
5.49 --undefined-- 35.551
5.50 --undefined-- 36.025
5.51 --undefined-- 36.543
5.52 --undefined-- 37.671
5.53 --undefined-- 38.670
5.54 --undefined-- 38.625
5.55 --undefined-- 37.929
5.56 --undefined-- 37.661
5.57 --undefined-- 37.974
5.58 --undefined-- 38.383
5.59 --undefined-- 38.766
5.60 --undefined-- 39.106
5.61 --undefined-- 39.297
5.62 --undefined-- 38.798
5.63 --undefined-- 37.779
5.64 --undefined-- 37.878
5.65 --undefined-- 38.643
5.66 --undefined-- 38.835
5.67 --undefined-- 38.299
5.68 --undefined-- 36.894
5.69 --undefined-- 35.202
5.70 --undefined-- 34.230
5.71 --undefined-- 34.103
5.72 --undefined-- 33.885
5.73 --undefined-- 33.862
5.74 --undefined-- 34.599
5.75 --undefined-- 34.485
5.76 --undefined-- 33.482
5.77 --undefined-- 33.153
5.78 --undefined-- 33.639
5.79 --undefined-- 33.122
5.80 --undefined-- 32.561
5.81 --undefined-- 32.295
5.82 --undefined-- 31.418
5.83 --undefined-- 32.565
5.84 --undefined-- 34.039
5.85 --undefined-- 33.648
5.86 --undefined-- 32.821
5.87 --undefined-- 33.226
5.88 --undefined-- 32.343
5.89 --undefined-- 32.310
5.90 --undefined-- 44.448
5.91 --undefined-- 56.883
5.92 --undefined-- 65.323
5.93 --undefined-- 70.476
5.94 129.497 72.969
5.95 128.378 73.979
5.96 127.623 74.391
5.97 127.861 74.419
5.98 128.374 74.051
5.99 129.006 73.497
6.00 130.274 72.984
6.01 131.511 72.433
6.02 132.217 71.547
6.03 133.257 70.230
6.04 134.149 68.805
6.05 134.352 67.600
6.06 134.916 66.649
6.07 135.836 65.907
6.08 136.374 65.105
6.09 136.061 63.553
6.10 134.696 60.443
6.11 --undefined-- 55.928
6.12 --undefined-- 51.243
6.13 --undefined-- 48.268
6.14 --undefined-- 49.424
6.15 --undefined-- 55.485
6.16 --undefined-- 64.148
6.17 --undefined-- 69.744
6.18 133.774 71.966
6.19 125.592 70.894
6.20 119.029 66.956
6.21 112.791 61.744
6.22 112.520 58.274
6.23 112.731 56.292
6.24 111.028 54.307
6.25 109.884 54.148
6.26 105.715 57.999
6.27 --undefined-- 62.802
6.28 --undefined-- 65.868
6.29 97.272 66.675
6.30 97.229 65.805
6.31 97.358 64.390
6.32 97.323 63.445
6.33 97.765 62.869
6.34 97.356 61.220
6.35 96.740 57.108
6.36 --undefined-- 50.609
6.37 --undefined-- 44.747
6.38 --undefined-- 47.174
6.39 --undefined-- 53.635
6.40 --undefined-- 58.490
6.41 --undefined-- 60.322
6.42 --undefined-- 59.234
6.43 --undefined-- 56.490
6.44 --undefined-- 54.180
6.45 --undefined-- 53.809
6.46 --undefined-- 57.640
6.47 --undefined-- 61.712
6.48 --undefined-- 63.109
6.49 --undefined-- 61.608
6.50 --undefined-- 57.248
6.51 --undefined-- 50.523
6.52 --undefined-- 43.712
6.53 --undefined-- 39.354
6.54 --undefined-- 37.766
6.55 --undefined-- 38.321
6.56 --undefined-- 41.496
6.57 --undefined-- 48.420
6.58 --undefined-- 55.148
6.59 --undefined-- 58.896
6.60 --undefined-- 61.357
6.61 --undefined-- 65.784
6.62 --undefined-- 69.150
6.63 --undefined-- 70.239
6.64 102.701 69.926
6.65 101.382 69.331
6.66 100.150 68.590
6.67 102.331 67.952
6.68 101.551 67.765
6.69 103.425 67.747
6.70 104.672 67.742
6.71 109.113 67.667
6.72 110.216 67.489
6.73 111.538 67.111
6.74 114.473 66.496
6.75 117.688 65.132
6.76 120.265 62.144
6.77 --undefined-- 56.994
6.78 --undefined-- 50.689
6.79 --undefined-- 47.517
6.80 --undefined-- 46.703
6.81 --undefined-- 46.101
6.82 --undefined-- 45.371
6.83 --undefined-- 44.583
6.84 --undefined-- 43.817
6.85 --undefined-- 43.201
6.86 --undefined-- 43.109
6.87 --undefined-- 43.516
6.88 --undefined-- 44.249
6.89 --undefined-- 47.371
6.90 --undefined-- 54.336
6.91 --undefined-- 58.699
6.92 102.104 59.882
6.93 101.765 59.001
6.94 103.722 57.291
6.95 105.172 55.702
6.96 106.496 54.704
6.97 108.027 53.524
6.98 --undefined-- 51.608
6.99 --undefined-- 49.515
7.00 --undefined-- 47.776
7.01 --undefined-- 46.451
7.02 --undefined-- 46.042
7.03 --undefined-- 46.144
7.04 --undefined-- 46.917
7.05 --undefined-- --undefined--
7.06 --undefined-- --undefined--
7.07 --undefined-- --undefined--
7.08 --undefined-- --undefined--
