Time Pitch Intensity
0.01 --undefined-- --undefined--
0.02 113.758 --undefined--
0.03 115.234 --undefined--
0.04 117.075 --undefined--
0.05 118.922 63.201
0.06 122.732 63.575
0.07 124.838 63.890
0.08 127.997 64.097
0.09 130.728 63.894
0.10 133.184 63.125
0.11 134.086 61.918
0.12 131.603 60.644
0.13 127.438 58.933
0.14 118.986 55.866
0.15 --undefined-- 50.792
0.16 --undefined-- 43.890
0.17 --undefined-- 46.321
0.18 --undefined-- 58.159
0.19 --undefined-- 66.142
0.20 --undefined-- 70.518
0.21 --undefined-- 71.626
0.22 115.429 70.457
0.23 110.754 68.791
0.24 111.414 68.588
0.25 112.010 69.182
0.26 112.642 68.501
0.27 111.987 65.844
0.28 110.507 61.220
0.29 --undefined-- 54.566
0.30 --undefined-- 46.191
0.31 --undefined-- 42.470
0.32 --undefined-- 43.581
0.33 --undefined-- 44.639
0.34 --undefined-- 45.920
0.35 --undefined-- 50.089
0.36 --undefined-- 59.357
0.37 --undefined-- 65.979
0.38 132.569 69.278
0.39 131.287 70.032
0.40 123.619 68.797
0.41 125.435 66.334
0.42 127.979 65.251
0.43 128.274 65.604
0.44 128.226 66.040
0.45 128.067 66.392
0.46 127.464 66.495
0.47 126.866 66.459
0.48 126.253 66.404
0.49 125.954 66.355
0.50 125.673 66.502
0.51 126.451 67.363
0.52 127.216 68.852
0.53 127.617 69.496
0.54 128.611 68.426
0.55 128.594 65.365
0.56 --undefined-- 59.810
0.57 --undefined-- 51.319
0.58 --undefined-- 41.167
0.59 --undefined-- 34.309
0.60 --undefined-- 32.959
0.61 --undefined-- 35.018
0.62 --undefined-- 38.339
0.63 --undefined-- 47.548
0.64 --undefined-- 59.299
0.65 --undefined-- 66.761
0.66 --undefined-- 70.759
0.67 121.845 72.959
0.68 124.967 74.571
0.69 124.170 75.858
0.70 123.975 76.765
0.71 123.662 77.314
0.72 123.496 77.578
0.73 123.273 77.654
0.74 123.045 77.625
0.75 122.222 77.513
0.76 121.116 77.319
0.77 120.044 77.038
0.78 118.850 76.706
0.79 116.141 76.341
0.80 113.541 76.006
0.81 112.060 75.766
0.82 110.717 75.585
0.83 109.623 75.424
0.84 108.685 75.229
0.85 108.047 74.945
0.86 107.296 74.759
0.87 106.735 75.596
0.88 92.718 77.193
0.89 92.518 77.957
0.90 93.248 77.659
0.91 94.828 77.011
0.92 96.389 76.442
0.93 97.401 76.052
0.94 98.315 75.648
0.95 97.959 74.721
0.96 95.539 73.367
0.97 93.608 72.657
0.98 92.314 72.738
0.99 89.986 72.873
1.00 86.900 72.735
1.01 83.018 72.071
1.02 --undefined-- 72.103
1.03 152.868 74.778
1.04 150.139 77.275
1.05 149.349 78.300
1.06 148.317 78.640
1.07 147.207 78.462
1.08 145.877 76.715
1.09 --undefined-- 72.329
1.10 --undefined-- 66.698
1.11 --undefined-- 70.320
1.12 135.551 75.001
1.13 133.746 77.340
1.14 127.673 77.755
1.15 125.560 77.146
1.16 123.636 76.407
1.17 118.312 75.768
1.18 116.271 75.076
1.19 117.071 74.284
1.20 119.128 73.408
1.21 121.340 72.006
1.22 124.546 69.859
1.23 123.320 67.550
1.24 120.924 66.208
1.25 119.173 66.257
1.26 118.806 65.993
1.27 119.438 64.624
1.28 120.809 62.693
1.29 120.346 60.504
1.30 116.525 57.578
1.31 --undefined-- 53.559
1.32 --undefined-- 50.559
1.33 --undefined-- 50.461
1.34 --undefined-- 50.287
1.35 --undefined-- 50.392
1.36 --undefined-- 55.338
1.37 --undefined-- 59.473
1.38 --undefined-- 59.931
1.39 --undefined-- 56.796
1.40 --undefined-- 51.739
1.41 --undefined-- 49.057
1.42 --undefined-- 47.873
1.43 --undefined-- 46.439
1.44 --undefined-- 46.614
1.45 --undefined-- 49.995
1.46 127.141 57.468
1.47 127.683 64.109
1.48 105.009 68.737
1.49 117.824 72.388
1.50 116.920 74.817
1.51 124.260 75.728
1.52 127.876 75.775
1.53 133.295 75.463
1.54 139.328 74.754
1.55 144.076 73.671
1.56 150.350 72.119
1.57 154.340 69.402
1.58 --undefined-- 64.869
1.59 --undefined-- 58.560
1.60 --undefined-- 53.472
1.61 --undefined-- 53.717
1.62 --undefined-- 55.107
1.63 --undefined-- 55.741
1.64 --undefined-- 56.035
1.65 --undefined-- 59.363
1.66 157.536 65.550
1.67 157.268 69.601
1.68 151.227 71.293
1.69 148.645 71.133
1.70 146.906 69.853
1.71 149.560 68.495
1.72 --undefined-- 67.602
1.73 --undefined-- 66.491
1.74 --undefined-- 63.437
1.75 --undefined-- 57.180
1.76 --undefined-- 47.737
1.77 --undefined-- 48.525
1.78 --undefined-- 55.358
1.79 --undefined-- 60.428
1.80 151.959 65.849
1.81 147.568 70.066
1.82 143.421 72.234
1.83 137.806 72.594
1.84 133.130 71.024
1.85 --undefined-- 66.767
1.86 --undefined-- 59.125
1.87 --undefined-- 48.007
1.88 --undefined-- 38.540
1.89 --undefined-- 36.962
1.90 --undefined-- 36.073
1.91 --undefined-- 34.704
1.92 --undefined-- 43.653
1.93 --undefined-- 56.337
1.94 172.223 64.241
1.95 169.855 68.397
1.96 169.160 69.465
1.97 169.289 68.135
1.98 167.538 66.262
1.99 167.020 66.245
2.00 170.354 66.943
2.01 173.394 67.017
2.02 172.793 66.526
2.03 171.219 66.029
2.04 169.584 65.895
2.05 167.402 65.721
2.06 165.318 65.296
2.07 163.954 65.156
2.08 160.537 64.692
2.09 157.484 62.518
2.10 --undefined-- 58.037
2.11 --undefined-- 54.281
2.12 --undefined-- 58.501
2.13 --undefined-- 62.032
2.14 --undefined-- 62.992
2.15 --undefined-- 62.964
2.16 --undefined-- 65.185
2.17 --undefined-- 67.082
2.18 76.886 66.570
2.19 77.617 64.156
2.20 79.711 60.147
2.21 --undefined-- 54.586
2.22 --undefined-- 50.076
2.23 --undefined-- 47.912
2.24 --undefined-- 48.739
2.25 --undefined-- 49.251
2.26 --undefined-- 48.547
2.27 --undefined-- 45.243
2.28 --undefined-- 38.213
2.29 --undefined-- 33.102
2.30 --undefined-- 38.185
2.31 --undefined-- 51.007
2.32 152.293 60.198
2.33 153.946 65.728
2.34 145.752 68.531
2.35 142.287 69.372
2.36 141.249 68.980
2.37 140.762 68.187
2.38 139.164 67.287
2.39 132.428 65.788
2.40 127.913 63.359
2.41 120.699 59.707
2.42 --undefined-- 55.041
2.43 --undefined-- 52.876
2.44 --undefined-- 53.088
2.45 --undefined-- 54.075
2.46 --undefined-- 57.817
2.47 --undefined-- 60.855
2.48 --undefined-- 61.445
2.49 --undefined-- 60.388
2.50 --undefined-- 57.588
2.51 --undefined-- 53.660
2.52 --undefined-- 50.386
2.53 --undefined-- 47.666
2.54 --undefined-- 45.084
2.55 --undefined-- 42.497
2.56 --undefined-- 45.350
2.57 --undefined-- 48.098
2.58 --undefined-- 48.086
2.59 --undefined-- 47.558
2.60 --undefined-- 48.535
2.61 --undefined-- 56.425
2.62 --undefined-- 65.047
2.63 --undefined-- 69.446
2.64 --undefined-- 70.306
2.65 --undefined-- 69.072
2.66 --undefined-- 66.336
2.67 --undefined-- 61.246
2.68 --undefined-- 53.700
2.69 --undefined-- 45.011
2.70 --undefined-- 40.544
2.71 --undefined-- 39.883
2.72 --undefined-- 38.171
2.73 --undefined-- 36.116
2.74 --undefined-- 35.563
2.75 --undefined-- 35.030
2.76 --undefined-- 34.690
2.77 --undefined-- 36.238
2.78 --undefined-- 40.192
2.79 --undefined-- 46.294
2.80 --undefined-- 52.943
2.81 --undefined-- 59.911
2.82 --undefined-- 65.265
2.83 --undefined-- 68.471
2.84 --undefined-- 69.885
2.85 --undefined-- 70.436
2.86 --undefined-- 70.028
2.87 --undefined-- 68.771
2.88 --undefined-- 68.261
2.89 --undefined-- 67.008
2.90 --undefined-- 65.374
2.91 --undefined-- 63.143
2.92 --undefined-- 60.608
2.93 --undefined-- 58.795
2.94 --undefined-- 57.457
2.95 --undefined-- 55.892
2.96 --undefined-- 54.923
2.97 --undefined-- 54.421
2.98 --undefined-- 54.156
2.99 --undefined-- 53.867
3.00 --undefined-- 52.720
3.01 --undefined-- 49.686
3.02 --undefined-- 45.245
3.03 --undefined-- 39.947
3.04 --undefined-- 37.505
3.05 --undefined-- 37.364
3.06 --undefined-- 37.011
3.07 --undefined-- 36.107
3.08 --undefined-- 33.491
3.09 --undefined-- 35.421
3.10 --undefined-- 45.598
3.11 --undefined-- 53.629
3.12 --undefined-- 61.178
3.13 136.741 67.210
3.14 129.887 71.231
3.15 123.711 73.810
3.16 122.134 75.362
3.17 120.469 75.848
3.18 119.534 75.528
3.19 118.616 75.142
3.20 118.114 75.037
3.21 118.398 75.058
3.22 117.856 75.018
3.23 117.454 74.887
3.24 115.332 74.853
3.25 114.184 74.987
3.26 113.407 75.051
3.27 112.274 75.005
3.28 111.436 74.931
3.29 111.317 74.801
3.30 111.049 74.636
3.31 110.170 74.482
3.32 109.496 74.146
3.33 109.292 73.652
3.34 108.594 73.258
3.35 108.934 72.915
3.36 109.579 72.535
3.37 109.783 72.064
3.38 109.428 71.322
3.39 109.184 69.799
3.40 105.882 66.587
3.41 --undefined-- 60.703
3.42 --undefined-- 52.102
3.43 --undefined-- 46.373
3.44 --undefined-- 46.036
3.45 --undefined-- 46.270
3.46 --undefined-- 46.876
3.47 --undefined-- 48.440
3.48 --undefined-- 51.320
3.49 --undefined-- 54.138
3.50 --undefined-- 58.274
3.51 --undefined-- 64.247
3.52 129.117 68.858
3.53 121.674 71.638
3.54 118.534 72.810
3.55 117.869 72.569
3.56 117.540 71.177
3.57 117.261 69.138
3.58 116.836 66.970
3.59 116.278 64.873
3.60 115.282 63.115
3.61 113.983 61.720
3.62 109.518 60.538
3.63 108.319 60.428
3.64 108.193 62.600
3.65 111.536 66.415
3.66 112.460 69.665
3.67 112.176 71.230
3.68 111.694 70.791
3.69 107.274 68.407
3.70 105.184 65.092
3.71 106.357 63.371
3.72 108.124 63.439
3.73 108.341 63.779
3.74 108.409 64.046
3.75 109.257 64.259
3.76 110.265 64.347
3.77 110.917 64.257
3.78 110.864 63.664
3.79 108.960 62.043
3.80 104.663 59.066
3.81 --undefined-- 54.449
3.82 --undefined-- 49.203
3.83 --undefined-- 54.421
3.84 --undefined-- 63.536
3.85 --undefined-- 69.132
3.86 --undefined-- 71.560
3.87 112.360 72.008
3.88 110.858 71.582
3.89 110.944 71.011
3.90 109.894 70.561
3.91 108.331 70.043
3.92 107.012 69.419
3.93 106.017 68.365
3.94 104.972 66.315
3.95 103.328 63.079
3.96 100.555 58.720
3.97 --undefined-- 53.451
3.98 --undefined-- 48.222
3.99 --undefined-- 45.778
4.00 --undefined-- 50.630
4.01 119.503 58.692
4.02 123.198 65.779
4.03 125.115 71.099
4.04 125.536 74.344
4.05 126.048 76.118
4.06 126.364 76.955
4.07 125.656 76.908
4.08 123.996 75.952
4.09 122.378 74.214
4.10 120.328 71.945
4.11 119.116 69.764
4.12 117.290 67.830
4.13 114.713 65.863
4.14 111.483 63.560
4.15 --undefined-- 60.402
4.16 --undefined-- 55.219
4.17 --undefined-- 48.070
4.18 --undefined-- 44.337
4.19 --undefined-- 49.508
4.20 --undefined-- 58.558
4.21 129.138 65.894
4.22 128.827 70.154
4.23 --undefined-- 71.557
4.24 --undefined-- 71.690
4.25 --undefined-- 70.692
4.26 --undefined-- 68.815
4.27 --undefined-- 70.045
4.28 --undefined-- 70.159
4.29 --undefined-- 68.157
4.30 --undefined-- 67.139
4.31 --undefined-- 65.237
4.32 --undefined-- 60.423
4.33 --undefined-- 53.245
4.34 --undefined-- 44.830
4.35 --undefined-- 37.370
4.36 --undefined-- 33.774
4.37 --undefined-- 30.573
4.38 --undefined-- 29.298
4.39 --undefined-- 30.566
4.40 --undefined-- 32.342
4.41 --undefined-- 33.315
4.42 --undefined-- 36.156
4.43 --undefined-- 40.340
4.44 --undefined-- 42.556
4.45 --undefined-- 43.630
4.46 --undefined-- 46.881
4.47 --undefined-- 49.734
4.48 --undefined-- 53.288
4.49 --undefined-- 63.314
4.50 195.882 71.082
4.51 193.649 75.161
4.52 188.625 76.430
4.53 186.392 76.206
4.54 183.815 75.673
4.55 176.669 75.143
4.56 168.231 74.753
4.57 158.679 74.517
4.58 146.290 74.589
4.59 135.574 74.978
4.60 127.224 75.150
4.61 120.966 74.764
4.62 116.725 73.859
4.63 114.266 72.417
4.64 111.450 70.074
4.65 113.148 68.003
4.66 109.540 67.288
4.67 103.735 66.444
4.68 99.043 65.453
4.69 97.799 65.218
4.70 99.887 65.867
4.71 102.400 67.267
4.72 110.206 69.565
4.73 111.890 71.809
4.74 108.755 73.297
4.75 110.037 74.175
4.76 113.377 74.574
4.77 119.557 74.912
4.78 124.829 75.740
4.79 127.360 76.747
4.80 132.695 77.387
4.81 135.396 77.703
4.82 138.054 77.842
4.83 139.902 77.446
4.84 140.075 76.046
4.85 139.625 73.858
4.86 142.304 72.178
4.87 141.612 71.162
4.88 139.390 70.341
4.89 138.595 70.210
4.90 135.620 71.384
4.91 133.884 73.365
4.92 134.985 75.308
4.93 136.009 76.880
4.94 137.010 78.024
4.95 138.573 78.931
4.96 140.484 79.670
4.97 141.892 80.172
4.98 141.661 80.313
4.99 140.902 80.019
5.00 139.571 79.232
5.01 135.331 78.026
5.02 130.237 76.584
5.03 124.975 75.211
5.04 119.724 74.269
5.05 115.672 73.652
5.06 112.164 73.113
5.07 109.455 72.797
5.08 107.654 72.534
5.09 106.081 71.934
5.10 105.290 70.984
5.11 106.622 70.353
5.12 110.874 70.827
5.13 111.801 71.921
5.14 114.659 72.963
5.15 118.689 73.821
5.16 123.326 74.729
5.17 128.613 75.955
5.18 132.408 77.121
5.19 133.642 77.420
5.20 132.494 76.232
5.21 128.194 73.095
5.22 130.052 68.299
5.23 132.313 62.754
5.24 --undefined-- 56.033
5.25 --undefined-- 54.778
5.26 --undefined-- 60.720
5.27 --undefined-- 63.408
5.28 --undefined-- 62.807
5.29 --undefined-- 60.458
5.30 --undefined-- 63.803
5.31 114.489 69.926
5.32 115.560 73.050
5.33 102.795 73.635
5.34 102.456 73.130
5.35 101.336 72.509
5.36 99.901 71.753
5.37 96.841 70.873
5.38 95.398 70.246
5.39 96.844 70.184
5.40 97.947 70.358
5.41 98.131 70.409
5.42 98.908 70.375
5.43 100.122 70.389
5.44 100.998 70.346
5.45 101.400 70.171
5.46 100.186 69.783
5.47 98.090 69.377
5.48 100.738 --undefined--
5.49 103.032 --undefined--
5.50 --undefined-- --undefined--
5.51 --undefined-- --undefined--
