Time Pitch Intensity
0.01 --undefined-- --undefined--
0.02 92.529 --undefined--
0.03 --undefined-- --undefined--
0.04 --undefined-- --undefined--
0.05 --undefined-- 51.196
0.06 --undefined-- 46.478
0.07 --undefined-- 46.434
0.08 --undefined-- 50.582
0.09 --undefined-- 53.977
0.10 --undefined-- 59.264
0.11 --undefined-- 64.797
0.12 119.803 68.448
0.13 117.994 70.321
0.14 115.668 70.360
0.15 113.779 68.506
0.16 111.448 64.545
0.17 --undefined-- 58.139
0.18 --undefined-- 49.639
0.19 --undefined-- 43.042
0.20 --undefined-- 41.437
0.21 --undefined-- 43.682
0.22 --undefined-- 48.791
0.23 --undefined-- 52.314
0.24 --undefined-- 55.316
0.25 --undefined-- 58.633
0.26 106.925 60.517
0.27 105.148 60.873
0.28 104.208 60.496
0.29 102.596 59.912
0.30 101.408 59.713
0.31 100.804 60.036
0.32 101.248 60.507
0.33 102.061 60.905
0.34 103.093 61.196
0.35 103.789 61.556
0.36 105.034 61.967
0.37 105.089 61.979
0.38 104.286 61.406
0.39 103.329 60.482
0.40 102.398 58.805
0.41 99.505 55.393
0.42 --undefined-- 49.578
0.43 --undefined-- 41.470
0.44 --undefined-- 36.034
0.45 --undefined-- 37.221
0.46 --undefined-- 41.647
0.47 --undefined-- 48.284
0.48 --undefined-- 54.570
0.49 --undefined-- 61.794
0.50 --undefined-- 68.162
0.51 --undefined-- 71.339
0.52 --undefined-- 71.320
0.53 --undefined-- 68.971
0.54 114.104 64.780
0.55 110.046 58.701
0.56 109.157 52.676
0.57 109.399 50.123
0.58 108.071 49.045
0.59 --undefined-- 48.323
0.60 --undefined-- 48.167
0.61 --undefined-- 48.344
0.62 --undefined-- 48.495
0.63 --undefined-- 48.823
0.64 --undefined-- 49.654
0.65 111.398 51.151
0.66 110.676 52.912
0.67 109.951 56.519
0.68 110.962 62.920
0.69 --undefined-- 67.802
0.70 --undefined-- 70.136
0.71 --undefined-- 70.637
0.72 --undefined-- 69.997
0.73 --undefined-- 68.591
0.74 --undefined-- 67.502
0.75 90.559 66.850
0.76 87.879 65.997
0.77 87.927 65.666
0.78 86.702 65.352
0.79 89.327 64.374
0.80 87.010 63.537
0.81 91.092 63.993
0.82 91.260 65.158
0.83 91.340 66.075
0.84 91.200 66.596
0.85 90.073 66.358
0.86 90.523 65.178
0.87 92.815 63.303
0.88 93.846 61.697
0.89 95.933 60.556
0.90 97.068 59.427
0.91 99.602 57.924
0.92 98.687 56.429
0.93 96.542 55.761
0.94 95.020 57.042
0.95 99.203 60.783
0.96 102.184 64.016
0.97 101.874 65.871
0.98 100.523 66.775
0.99 100.928 67.048
1.00 102.582 67.365
1.01 103.913 67.935
1.02 102.869 68.284
1.03 100.263 68.351
1.04 97.467 67.913
1.05 95.590 67.017
1.06 93.941 66.702
1.07 94.105 67.116
1.08 92.849 67.236
1.09 91.981 66.961
1.10 92.272 66.506
1.11 92.540 65.721
1.12 91.712 64.670
1.13 90.007 63.303
1.14 89.878 61.754
1.15 --undefined-- 60.285
1.16 --undefined-- 58.609
1.17 --undefined-- 56.566
1.18 --undefined-- 54.263
1.19 --undefined-- 51.923
1.20 --undefined-- 50.525
1.21 --undefined-- 50.467
1.22 --undefined-- 50.830
1.23 --undefined-- 50.238
1.24 --undefined-- 47.983
1.25 --undefined-- 44.756
1.26 --undefined-- 41.260
1.27 --undefined-- 37.571
1.28 --undefined-- 34.930
1.29 --undefined-- 33.648
1.30 --undefined-- 33.547
1.31 --undefined-- 36.294
1.32 --undefined-- 39.129
1.33 --undefined-- 40.332
1.34 --undefined-- 40.176
1.35 --undefined-- 39.684
1.36 --undefined-- 39.761
1.37 --undefined-- 40.195
1.38 --undefined-- 40.157
1.39 --undefined-- 39.476
1.40 --undefined-- 39.415
1.41 --undefined-- 40.304
1.42 --undefined-- 40.874
1.43 --undefined-- 40.947
1.44 --undefined-- 41.414
1.45 --undefined-- 42.595
1.46 --undefined-- 44.584
1.47 --undefined-- 46.645
1.48 --undefined-- 48.148
1.49 --undefined-- 49.160
1.50 --undefined-- 49.813
1.51 --undefined-- 50.302
1.52 --undefined-- 51.086
1.53 --undefined-- 51.679
1.54 --undefined-- 51.788
1.55 --undefined-- 51.754
1.56 --undefined-- 51.774
1.57 --undefined-- 51.562
1.58 --undefined-- 50.930
1.59 --undefined-- 50.476
1.60 --undefined-- 50.481
1.61 --undefined-- 50.220
1.62 --undefined-- 48.923
1.63 --undefined-- 46.746
1.64 --undefined-- 44.931
1.65 --undefined-- 43.402
1.66 --undefined-- 41.725
1.67 --undefined-- 40.705
1.68 --undefined-- 40.906
1.69 --undefined-- 41.453
1.70 --undefined-- 44.398
1.71 --undefined-- 53.003
1.72 --undefined-- 58.525
1.73 --undefined-- 59.916
1.74 --undefined-- 58.918
1.75 --undefined-- 59.664
1.76 --undefined-- 64.041
1.77 --undefined-- 69.112
1.78 --undefined-- 71.736
1.79 --undefined-- 71.423
1.80 --undefined-- 68.212
1.81 135.611 62.672
1.82 136.749 58.934
1.83 143.372 58.749
1.84 144.706 58.567
1.85 149.417 57.499
1.86 150.744 56.172
1.87 150.623 54.973
1.88 149.559 53.392
1.89 --undefined-- 51.506
1.90 --undefined-- 48.109
1.91 --undefined-- 42.092
1.92 --undefined-- 36.794
1.93 --undefined-- 34.923
1.94 --undefined-- 33.789
1.95 --undefined-- 35.014
1.96 --undefined-- 46.567
1.97 --undefined-- 56.284
1.98 --undefined-- 61.818
1.99 --undefined-- 65.751
2.00 132.972 69.394
2.01 137.366 71.596
2.02 143.337 71.915
2.03 148.488 70.995
2.04 154.146 69.551
2.05 --undefined-- 67.364
2.06 --undefined-- 63.697
2.07 167.563 60.068
2.08 168.765 58.476
2.09 168.938 58.679
2.10 167.846 63.385
2.11 --undefined-- 68.984
2.12 --undefined-- 72.711
2.13 139.125 74.404
2.14 122.470 74.352
2.15 118.759 73.294
2.16 116.758 71.942
2.17 113.617 70.410
2.18 110.536 68.799
2.19 109.152 66.700
2.20 103.745 63.304
2.21 109.046 59.456
2.22 112.490 57.280
2.23 117.483 57.030
2.24 --undefined-- 62.130
2.25 --undefined-- 67.728
2.26 --undefined-- 71.015
2.27 --undefined-- 72.401
2.28 --undefined-- 72.551
2.29 --undefined-- 71.823
2.30 --undefined-- 69.693
2.31 --undefined-- 65.171
2.32 --undefined-- 57.569
2.33 --undefined-- 52.754
2.34 --undefined-- 58.080
2.35 --undefined-- 61.404
2.36 --undefined-- 63.360
2.37 151.028 66.298
2.38 144.612 69.110
2.39 136.019 70.252
2.40 136.452 69.404
2.41 130.950 67.364
2.42 131.052 65.075
2.43 131.430 63.057
2.44 131.277 61.992
2.45 131.201 61.522
2.46 --undefined-- 60.675
2.47 --undefined-- 59.510
2.48 --undefined-- 59.159
2.49 --undefined-- 58.585
2.50 --undefined-- 57.316
2.51 --undefined-- 56.824
2.52 --undefined-- 56.605
2.53 --undefined-- 56.971
2.54 --undefined-- 58.647
2.55 --undefined-- 61.337
2.56 --undefined-- 63.725
2.57 --undefined-- 64.999
2.58 --undefined-- 66.113
2.59 --undefined-- 67.160
2.60 --undefined-- 67.556
2.61 108.104 67.675
2.62 112.779 67.894
2.63 112.157 67.982
2.64 112.119 68.378
2.65 112.463 69.316
2.66 112.926 70.220
2.67 114.713 70.483
2.68 116.630 69.868
2.69 117.400 68.246
2.70 116.792 66.263
2.71 123.768 66.912
2.72 128.813 69.585
2.73 130.958 72.253
2.74 132.546 73.940
2.75 134.364 74.552
2.76 136.092 74.576
2.77 137.434 74.243
2.78 138.532 73.636
2.79 139.186 72.922
2.80 137.828 72.001
2.81 134.904 70.596
2.82 133.586 68.101
2.83 --undefined-- 63.323
2.84 --undefined-- 55.203
2.85 --undefined-- 45.474
2.86 --undefined-- 44.064
2.87 --undefined-- 48.812
2.88 --undefined-- 54.921
2.89 --undefined-- 63.013
2.90 --undefined-- 69.325
2.91 --undefined-- 72.130
2.92 --undefined-- 72.002
2.93 --undefined-- 70.072
2.94 105.987 67.569
2.95 102.858 65.464
2.96 101.665 64.022
2.97 99.245 62.769
2.98 97.819 61.769
2.99 97.671 61.173
3.00 98.752 60.431
3.01 102.096 59.953
3.02 105.023 62.290
3.03 105.582 65.403
3.04 105.119 67.266
3.05 105.201 68.473
3.06 104.294 69.098
3.07 102.293 68.609
3.08 102.263 67.564
3.09 101.300 66.857
3.10 98.255 66.571
3.11 97.928 66.359
3.12 98.696 65.982
3.13 98.319 65.270
3.14 98.048 64.389
3.15 96.376 63.364
3.16 96.253 62.059
3.17 96.845 61.078
3.18 97.704 60.755
3.19 98.158 60.891
3.20 100.170 61.266
3.21 101.801 61.506
3.22 105.352 61.339
3.23 --undefined-- 61.233
3.24 --undefined-- 60.853
3.25 --undefined-- 59.975
3.26 --undefined-- 57.716
3.27 --undefined-- 54.173
3.28 --undefined-- 51.513
3.29 --undefined-- 50.655
3.30 --undefined-- 52.631
3.31 --undefined-- 54.005
3.32 --undefined-- 53.323
3.33 --undefined-- 51.573
3.34 --undefined-- 51.227
3.35 --undefined-- 52.654
3.36 --undefined-- 54.410
3.37 --undefined-- 55.950
3.38 --undefined-- 56.811
3.39 --undefined-- 57.278
3.40 --undefined-- 57.790
3.41 --undefined-- 58.577
3.42 --undefined-- 59.759
3.43 --undefined-- 62.205
3.44 --undefined-- 65.827
3.45 136.109 68.277
3.46 135.552 69.258
3.47 133.803 69.401
3.48 131.994 69.253
3.49 131.286 69.253
3.50 131.832 69.618
3.51 132.537 70.480
3.52 133.181 71.420
3.53 132.478 71.572
3.54 131.618 71.031
3.55 131.959 71.078
3.56 132.321 71.574
3.57 131.483 71.694
3.58 129.841 71.460
3.59 129.078 71.054
3.60 128.062 70.353
3.61 127.494 69.012
3.62 126.813 66.500
3.63 --undefined-- 62.044
3.64 --undefined-- 54.916
3.65 --undefined-- 46.412
3.66 --undefined-- 45.043
3.67 --undefined-- 49.470
3.68 --undefined-- 53.236
3.69 --undefined-- 55.645
3.70 --undefined-- 56.958
3.71 --undefined-- 56.534
3.72 --undefined-- 55.273
3.73 --undefined-- 57.020
3.74 --undefined-- 62.119
3.75 --undefined-- 66.372
3.76 133.797 68.652
3.77 131.120 69.171
3.78 129.474 68.920
3.79 129.985 69.131
3.80 130.155 69.530
3.81 130.271 69.717
3.82 130.006 69.405
3.83 128.431 67.638
3.84 121.893 64.560
3.85 121.889 63.154
3.86 118.834 63.841
3.87 117.128 64.589
3.88 114.114 65.364
3.89 111.600 67.593
3.90 --undefined-- 70.107
3.91 107.470 70.898
3.92 104.206 69.956
3.93 102.623 68.972
3.94 102.295 69.320
3.95 102.547 69.966
3.96 103.053 70.030
3.97 103.601 69.485
3.98 102.419 68.530
3.99 100.360 67.090
4.00 98.734 65.078
4.01 96.584 62.551
4.02 --undefined-- 59.206
4.03 --undefined-- 54.136
4.04 --undefined-- 46.952
4.05 --undefined-- 40.089
4.06 --undefined-- 39.089
4.07 --undefined-- 38.309
4.08 --undefined-- 41.212
4.09 --undefined-- 48.919
4.10 --undefined-- 54.123
4.11 --undefined-- 59.131
4.12 --undefined-- 64.042
4.13 95.755 66.911
4.14 93.826 67.916
4.15 92.253 67.504
4.16 90.992 65.921
4.17 90.110 63.404
4.18 88.682 60.283
4.19 88.494 57.704
4.20 88.560 56.452
4.21 90.707 56.513
4.22 95.785 57.213
4.23 97.972 58.643
4.24 99.504 61.549
4.25 98.976 64.886
4.26 98.945 67.534
4.27 99.288 68.810
4.28 99.354 68.174
4.29 99.476 65.738
4.30 99.416 62.950
4.31 --undefined-- 60.684
4.32 --undefined-- 57.969
4.33 --undefined-- 55.597
4.34 --undefined-- 55.957
4.35 --undefined-- 56.717
4.36 --undefined-- 56.622
4.37 --undefined-- 57.231
4.38 --undefined-- 58.623
4.39 --undefined-- 58.834
4.40 --undefined-- 57.504
4.41 --undefined-- 55.663
4.42 --undefined-- 54.881
4.43 --undefined-- 55.981
4.44 --undefined-- 57.336
4.45 100.194 58.244
4.46 97.993 58.805
4.47 92.916 58.999
4.48 90.772 58.561
4.49 92.786 57.735
4.50 92.651 56.642
4.51 --undefined-- 54.518
4.52 --undefined-- 50.665
4.53 --undefined-- 44.659
4.54 --undefined-- 39.334
4.55 --undefined-- 40.039
4.56 --undefined-- 48.489
4.57 --undefined-- 55.706
4.58 --undefined-- 58.441
4.59 --undefined-- 57.845
4.60 --undefined-- 57.551
4.61 --undefined-- 60.917
4.62 103.452 64.188
4.63 97.699 65.255
4.64 94.505 63.954
4.65 91.877 61.261
4.66 91.383 59.368
4.67 92.070 58.488
4.68 93.469 57.279
4.69 90.752 54.986
4.70 --undefined-- 52.067
4.71 --undefined-- 50.705
4.72 --undefined-- 51.152
4.73 101.258 52.092
4.74 106.699 52.954
4.75 111.775 53.304
4.76 112.888 54.238
4.77 114.989 57.904
4.78 115.271 63.258
4.79 114.210 67.135
4.80 113.288 68.837
4.81 112.866 69.057
4.82 112.017 68.709
4.83 110.448 68.370
4.84 108.913 68.252
4.85 107.535 68.366
4.86 105.878 68.959
4.87 105.155 69.565
4.88 103.703 69.593
4.89 101.669 68.925
4.90 100.084 67.634
4.91 98.852 66.224
4.92 97.782 65.093
4.93 97.964 64.101
4.94 97.199 63.273
4.95 96.501 62.097
4.96 95.325 60.677
4.97 94.302 58.686
4.98 --undefined-- 55.084
4.99 --undefined-- 50.171
5.00 --undefined-- 45.917
5.01 --undefined-- 43.487
5.02 --undefined-- 40.985
5.03 --undefined-- 37.494
5.04 --undefined-- 36.328
5.05 --undefined-- 37.993
5.06 --undefined-- 40.539
5.07 --undefined-- 42.497
5.08 --undefined-- 43.348
5.09 --undefined-- 43.463
5.10 --undefined-- 43.808
5.11 --undefined-- 44.979
5.12 --undefined-- 46.682
5.13 --undefined-- 47.352
5.14 --undefined-- 46.883
5.15 --undefined-- 46.640
5.16 --undefined-- 47.554
5.17 --undefined-- 48.540
5.18 --undefined-- 48.466
5.19 --undefined-- 47.741
5.20 --undefined-- 47.614
5.21 --undefined-- 47.732
5.22 --undefined-- 46.721
5.23 --undefined-- 45.100
5.24 --undefined-- 43.878
5.25 --undefined-- 42.582
5.26 --undefined-- 41.994
5.27 --undefined-- 42.241
5.28 --undefined-- 42.480
5.29 --undefined-- 42.442
5.30 --undefined-- 42.453
5.31 --undefined-- 42.479
5.32 --undefined-- 42.148
5.33 --undefined-- 41.398
5.34 --undefined-- 40.734
5.35 --undefined-- 40.769
5.36 --undefined-- 40.947
5.37 --undefined-- 40.614
5.38 --undefined-- 43.652
5.39 --undefined-- 54.295
5.40 --undefined-- 63.785
5.41 --undefined-- 69.537
5.42 --undefined-- 72.251
5.43 104.902 73.054
5.44 101.368 72.513
5.45 97.572 71.180
5.46 96.848 69.638
5.47 95.594 67.788
5.48 93.574 65.490
5.49 93.641 62.902
5.50 --undefined-- 59.483
5.51 --undefined-- 54.063
5.52 --undefined-- 48.018
5.53 --undefined-- 46.288
5.54 --undefined-- 45.825
5.55 --undefined-- 45.024
5.56 --undefined-- 43.957
5.57 --undefined-- 41.740
5.58 --undefined-- --undefined--
5.59 --undefined-- --undefined--
5.60 --undefined-- --undefined--
5.61 --undefined-- --undefined--
