Time Pitch Intensity
0.01 --undefined-- --undefined--
0.02 --undefined-- --undefined--
0.03 --undefined-- --undefined--
0.04 --undefined-- --undefined--
0.05 --undefined-- 61.860
0.06 --undefined-- 58.975
0.07 --undefined-- 54.544
0.08 --undefined-- 46.452
0.09 --undefined-- 37.892
0.10 --undefined-- 44.921
0.11 --undefined-- 52.898
0.12 --undefined-- 57.371
0.13 --undefined-- 58.947
0.14 --undefined-- 61.020
0.15 --undefined-- 66.256
0.16 82.972 69.567
0.17 83.113 70.880
0.18 88.023 71.606
0.19 85.176 71.785
0.20 84.170 71.375
0.21 83.216 70.962
0.22 84.072 70.724
0.23 84.259 70.402
0.24 85.743 70.465
0.25 87.846 70.831
0.26 88.630 70.699
0.27 89.605 69.712
0.28 92.110 68.365
0.29 92.497 67.264
0.30 94.643 66.388
0.31 95.149 65.747
0.32 95.972 64.722
0.33 97.001 63.268
0.34 98.364 62.008
0.35 98.444 60.565
0.36 --undefined-- 57.962
0.37 --undefined-- 53.779
0.38 --undefined-- 48.341
0.39 --undefined-- 43.040
0.40 --undefined-- 39.858
0.41 --undefined-- 37.735
0.42 --undefined-- 35.452
0.43 --undefined-- 35.023
0.44 --undefined-- 36.825
0.45 --undefined-- 39.202
0.46 --undefined-- 41.533
0.47 --undefined-- 43.841
0.48 --undefined-- 46.172
0.49 --undefined-- 47.784
0.50 --undefined-- 48.166
0.51 --undefined-- 49.099
0.52 --undefined-- 50.171
0.53 --undefined-- 50.008
0.54 --undefined-- 49.843
0.55 --undefined-- 50.175
0.56 --undefined-- 49.435
0.57 --undefined-- 48.467
0.58 --undefined-- 47.758
0.59 --undefined-- 46.281
0.60 --undefined-- 44.325
0.61 --undefined-- 42.733
0.62 --undefined-- 41.290
0.63 --undefined-- 39.130
0.64 --undefined-- 37.428
0.65 --undefined-- 36.644
0.66 --undefined-- 35.194
0.67 --undefined-- 33.922
0.68 --undefined-- 34.166
0.69 --undefined-- 36.363
0.70 --undefined-- 38.816
0.71 --undefined-- 39.461
0.72 --undefined-- 39.600
0.73 --undefined-- 40.534
0.74 --undefined-- 42.086
0.75 --undefined-- 45.167
0.76 --undefined-- 51.117
0.77 --undefined-- 57.403
0.78 --undefined-- 62.541
0.79 --undefined-- 65.496
0.80 --undefined-- 66.438
0.81 --undefined-- 66.895
0.82 --undefined-- 66.763
0.83 --undefined-- 65.709
0.84 --undefined-- 65.083
0.85 --undefined-- 65.361
0.86 --undefined-- 65.539
0.87 --undefined-- 65.118
0.88 --undefined-- 64.691
0.89 --undefined-- 63.967
0.90 --undefined-- 63.279
0.91 --undefined-- 63.276
0.92 --undefined-- 63.278
0.93 --undefined-- 64.142
0.94 --undefined-- 64.425
0.95 --undefined-- 62.999
0.96 --undefined-- 60.173
0.97 --undefined-- 55.588
0.98 --undefined-- 50.920
0.99 --undefined-- 50.132
1.00 75.644 51.015
1.01 80.209 52.282
1.02 76.537 54.201
1.03 75.920 55.251
1.04 75.697 54.850
1.05 75.183 54.232
1.06 76.709 53.604
1.07 77.998 52.770
1.08 --undefined-- 52.053
1.09 79.827 52.019
1.10 80.022 52.182
1.11 --undefined-- 52.713
1.12 --undefined-- 55.766
1.13 --undefined-- 58.939
1.14 --undefined-- 59.999
1.15 --undefined-- 59.882
1.16 --undefined-- 60.508
1.17 --undefined-- 61.458
1.18 --undefined-- 63.398
1.19 --undefined-- 67.117
1.20 127.928 71.213
1.21 129.473 74.537
1.22 126.954 76.873
1.23 124.370 78.441
1.24 122.424 79.195
1.25 120.557 79.243
1.26 119.699 78.644
1.27 118.645 77.466
1.28 117.583 76.032
1.29 116.629 74.519
1.30 115.682 72.136
1.31 --undefined-- 67.646
1.32 --undefined-- 61.883
1.33 --undefined-- 59.086
1.34 --undefined-- 58.001
1.35 --undefined-- 57.250
1.36 --undefined-- 57.247
1.37 --undefined-- 57.065
1.38 --undefined-- 57.636
1.39 --undefined-- 60.186
1.40 --undefined-- 62.583
1.41 --undefined-- 66.629
1.42 --undefined-- 71.692
1.43 --undefined-- 74.271
1.44 --undefined-- 74.675
1.45 116.079 73.853
1.46 114.042 71.707
1.47 112.611 67.526
1.48 110.362 62.102
1.49 109.977 59.827
1.50 109.312 59.168
1.51 107.601 58.284
1.52 106.287 57.486
1.53 103.918 57.054
1.54 102.001 56.634
1.55 99.722 55.937
1.56 96.690 55.302
1.57 93.898 56.810
1.58 --undefined-- 60.428
1.59 90.445 62.788
1.60 89.845 63.732
1.61 87.877 64.207
1.62 87.445 64.399
1.63 86.626 64.267
1.64 84.328 64.170
1.65 82.997 64.236
1.66 81.497 64.177
1.67 81.227 63.515
1.68 80.735 61.877
1.69 --undefined-- 59.150
1.70 --undefined-- 55.107
1.71 --undefined-- 50.102
1.72 --undefined-- 49.380
1.73 --undefined-- 52.626
1.74 --undefined-- 54.673
1.75 101.222 55.259
1.76 98.984 55.437
1.77 96.501 57.360
1.78 --undefined-- 60.604
1.79 --undefined-- 61.489
1.80 --undefined-- 59.791
1.81 90.462 59.150
1.82 90.506 60.913
1.83 88.914 62.746
1.84 --undefined-- 63.342
1.85 --undefined-- 61.801
1.86 --undefined-- 58.735
1.87 --undefined-- 56.941
1.88 --undefined-- 56.921
1.89 --undefined-- 58.342
1.90 --undefined-- 59.825
1.91 --undefined-- 60.057
1.92 --undefined-- 59.616
1.93 --undefined-- 59.022
1.94 --undefined-- 58.346
1.95 --undefined-- 57.923
1.96 --undefined-- 56.848
1.97 --undefined-- 59.335
1.98 --undefined-- 65.221
1.99 --undefined-- 68.824
2.00 --undefined-- 69.939
2.01 --undefined-- 69.157
2.02 --undefined-- 68.016
2.03 --undefined-- 67.831
2.04 --undefined-- 67.804
2.05 --undefined-- 66.967
2.06 --undefined-- 66.050
2.07 --undefined-- 65.722
2.08 --undefined-- 64.408
2.09 --undefined-- 62.394
2.10 --undefined-- 60.670
2.11 --undefined-- 58.116
2.12 --undefined-- 55.367
2.13 --undefined-- 54.579
2.14 --undefined-- 58.203
2.15 --undefined-- 62.395
2.16 92.644 64.452
2.17 94.894 65.391
2.18 95.572 66.505
2.19 96.265 67.369
2.20 95.690 67.041
2.21 --undefined-- 64.978
2.22 --undefined-- 61.502
2.23 --undefined-- 57.670
2.24 --undefined-- 52.245
2.25 --undefined-- 44.196
2.26 --undefined-- 39.433
2.27 --undefined-- 39.178
2.28 --undefined-- 39.302
2.29 --undefined-- 39.447
2.30 --undefined-- 39.698
2.31 --undefined-- 39.184
2.32 --undefined-- 39.170
2.33 --undefined-- 40.181
2.34 --undefined-- 40.770
2.35 --undefined-- 40.942
2.36 --undefined-- 41.301
2.37 --undefined-- 41.490
2.38 --undefined-- 41.578
2.39 --undefined-- 41.295
2.40 --undefined-- 40.404
2.41 --undefined-- 39.582
2.42 --undefined-- 39.137
2.43 --undefined-- 37.752
2.44 --undefined-- 36.187
2.45 --undefined-- 35.916
2.46 --undefined-- 35.641
2.47 --undefined-- 35.576
2.48 --undefined-- 35.791
2.49 --undefined-- 37.183
2.50 --undefined-- 40.318
2.51 --undefined-- 41.653
2.52 --undefined-- 40.229
2.53 --undefined-- 38.727
2.54 --undefined-- 40.568
2.55 --undefined-- 43.233
2.56 --undefined-- 46.728
2.57 --undefined-- 54.473
2.58 --undefined-- 63.225
2.59 --undefined-- 68.909
2.60 93.122 71.611
2.61 94.359 72.036
2.62 91.723 70.866
2.63 91.462 68.634
2.64 90.951 65.798
2.65 90.177 63.056
2.66 89.918 60.063
2.67 --undefined-- 56.354
2.68 --undefined-- 54.264
2.69 --undefined-- 56.393
2.70 97.590 60.128
2.71 97.707 63.281
2.72 97.950 64.991
2.73 97.597 65.148
2.74 95.556 63.941
2.75 --undefined-- 61.749
2.76 89.587 58.841
2.77 91.275 55.380
2.78 94.753 53.379
2.79 99.320 54.448
2.80 103.679 56.726
2.81 101.508 57.611
2.82 99.956 56.131
2.83 95.562 52.632
2.84 --undefined-- 47.206
2.85 --undefined-- 40.291
2.86 --undefined-- 36.724
2.87 --undefined-- 36.841
2.88 --undefined-- 46.807
2.89 --undefined-- 57.101
2.90 --undefined-- 63.929
2.91 --undefined-- 68.672
2.92 --undefined-- 71.450
2.93 --undefined-- 71.987
2.94 --undefined-- 70.156
2.95 --undefined-- 65.550
2.96 --undefined-- 57.498
2.97 --undefined-- 46.458
2.98 --undefined-- 39.592
2.99 --undefined-- 38.653
3.00 --undefined-- 37.651
3.01 --undefined-- 36.752
3.02 --undefined-- 36.464
3.03 --undefined-- 36.234
3.04 --undefined-- 36.406
3.05 --undefined-- 44.355
3.06 --undefined-- 55.838
3.07 --undefined-- 65.896
3.08 --undefined-- 72.445
3.09 --undefined-- 75.663
3.10 --undefined-- 76.436
3.11 94.998 75.759
3.12 94.629 74.264
3.13 94.498 72.007
3.14 96.464 69.084
3.15 97.758 65.066
3.16 97.490 59.789
3.17 109.097 56.560
3.18 113.875 56.690
3.19 118.017 57.489
3.20 120.552 58.283
3.21 123.094 58.898
3.22 124.567 59.141
3.23 125.845 59.072
3.24 126.537 59.031
3.25 126.481 59.238
3.26 125.234 59.451
3.27 123.569 59.690
3.28 118.964 59.871
3.29 117.695 59.273
3.30 113.079 57.365
3.31 112.024 54.689
3.32 112.554 52.994
3.33 112.242 52.823
3.34 113.176 53.585
3.35 112.544 56.336
3.36 115.105 61.091
3.37 --undefined-- 64.247
3.38 111.458 65.121
3.39 112.194 64.996
3.40 110.481 64.702
3.41 109.282 63.597
3.42 --undefined-- 61.028
3.43 --undefined-- 56.476
3.44 --undefined-- 51.249
3.45 --undefined-- 48.417
3.46 --undefined-- 45.573
3.47 --undefined-- 41.472
3.48 --undefined-- 37.648
3.49 --undefined-- 38.402
3.50 --undefined-- 52.158
3.51 --undefined-- 62.433
3.52 --undefined-- 68.094
3.53 --undefined-- 70.260
3.54 --undefined-- 69.446
3.55 --undefined-- 66.255
3.56 --undefined-- 66.177
3.57 --undefined-- 69.609
3.58 --undefined-- 71.715
3.59 --undefined-- 72.223
3.60 --undefined-- 71.011
3.61 --undefined-- 68.026
3.62 --undefined-- 63.956
3.63 86.042 61.465
3.64 86.470 61.464
3.65 86.060 62.076
3.66 85.212 62.928
3.67 85.032 64.157
3.68 --undefined-- 65.140
3.69 80.082 65.268
3.70 80.297 64.963
3.71 81.100 65.304
3.72 81.041 65.788
3.73 81.218 65.916
3.74 85.040 66.695
3.75 85.349 67.527
3.76 89.932 67.857
3.77 98.160 68.118
3.78 104.064 68.418
3.79 108.283 68.150
3.80 110.019 67.033
3.81 109.018 65.707
3.82 111.598 66.117
3.83 111.390 68.100
3.84 110.616 69.747
3.85 109.458 70.252
3.86 104.806 69.355
3.87 103.865 66.904
3.88 101.381 62.629
3.89 101.509 57.166
3.90 102.265 54.180
3.91 100.990 53.424
3.92 100.329 52.864
3.93 97.578 53.003
3.94 94.036 54.393
3.95 94.178 59.369
3.96 --undefined-- 64.825
3.97 86.184 68.231
3.98 85.922 70.082
3.99 85.538 70.754
4.00 84.375 70.475
4.01 83.172 70.422
4.02 81.730 71.348
4.03 77.734 72.517
4.04 --undefined-- 73.285
4.05 74.622 73.863
4.06 --undefined-- 74.518
4.07 --undefined-- 75.419
4.08 --undefined-- 75.925
4.09 --undefined-- 74.996
4.10 --undefined-- 72.949
4.11 --undefined-- 71.342
4.12 --undefined-- 69.998
4.13 --undefined-- 67.663
4.14 --undefined-- 63.529
4.15 --undefined-- 58.064
4.16 --undefined-- 51.725
4.17 --undefined-- 44.974
4.18 --undefined-- 39.954
4.19 --undefined-- 41.579
4.20 --undefined-- 54.180
4.21 --undefined-- 64.444
4.22 --undefined-- 71.302
4.23 --undefined-- 75.594
4.24 --undefined-- 77.045
4.25 --undefined-- 75.262
4.26 --undefined-- 70.667
4.27 --undefined-- 68.009
4.28 --undefined-- 69.891
4.29 101.047 71.075
4.30 94.002 71.047
4.31 89.391 70.172
4.32 87.084 68.980
4.33 85.794 67.901
4.34 85.971 66.878
4.35 83.050 65.360
4.36 87.800 63.570
4.37 88.520 62.705
4.38 90.453 62.950
4.39 92.409 63.323
4.40 91.908 63.403
4.41 91.757 63.865
4.42 91.428 65.104
4.43 90.578 66.196
4.44 89.997 66.632
4.45 89.124 66.726
4.46 88.653 66.852
4.47 90.364 67.480
4.48 91.107 68.157
4.49 89.736 68.140
4.50 88.963 68.071
4.51 87.316 68.777
4.52 85.577 69.334
4.53 85.325 69.217
4.54 85.283 68.673
4.55 85.772 67.465
4.56 85.803 66.073
4.57 86.057 65.626
4.58 84.926 65.212
4.59 85.424 64.811
4.60 83.958 65.544
4.61 83.908 65.875
4.62 82.448 64.666
4.63 82.026 62.388
4.64 83.049 60.271
4.65 83.043 59.365
4.66 --undefined-- 58.766
4.67 --undefined-- 57.577
4.68 --undefined-- 54.649
4.69 --undefined-- 49.170
4.70 --undefined-- 41.253
4.71 --undefined-- 35.196
4.72 --undefined-- 33.917
4.73 --undefined-- 33.081
4.74 --undefined-- 32.990
4.75 --undefined-- 44.823
4.76 --undefined-- 55.025
4.77 --undefined-- 59.979
4.78 --undefined-- 60.644
4.79 --undefined-- 58.301
4.80 --undefined-- 56.165
4.81 --undefined-- 55.224
4.82 --undefined-- 54.062
4.83 --undefined-- 52.206
4.84 --undefined-- 49.552
4.85 --undefined-- 46.186
4.86 --undefined-- 42.590
4.87 --undefined-- 39.598
4.88 --undefined-- 37.824
4.89 --undefined-- 40.319
4.90 --undefined-- 54.068
4.91 --undefined-- 63.565
4.92 --undefined-- 68.648
4.93 --undefined-- 70.061
4.94 --undefined-- 68.031
4.95 --undefined-- 63.348
4.96 --undefined-- 62.238
4.97 --undefined-- 65.513
4.98 99.830 67.455
4.99 99.163 68.319
5.00 94.951 68.417
5.01 91.862 67.920
5.02 88.017 67.177
5.03 85.000 66.232
5.04 83.277 65.028
5.05 81.050 63.726
5.06 79.988 62.716
5.07 78.647 62.979
5.08 77.467 64.904
5.09 77.430 66.536
5.10 77.300 66.868
5.11 76.507 66.434
5.12 76.521 65.356
5.13 76.571 63.786
5.14 79.677 63.480
5.15 79.549 64.078
5.16 83.087 64.197
5.17 89.728 64.217
5.18 92.225 64.565
5.19 97.521 64.649
5.20 98.139 63.767
5.21 99.605 61.378
5.22 100.315 58.680
5.23 109.765 60.286
5.24 110.940 64.335
5.25 110.776 67.555
5.26 107.423 69.413
5.27 104.272 69.787
5.28 102.444 68.812
5.29 100.260 67.029
5.30 97.214 64.699
5.31 --undefined-- 60.831
5.32 --undefined-- 54.321
5.33 --undefined-- 44.525
5.34 --undefined-- 37.608
5.35 --undefined-- 37.506
5.36 --undefined-- 38.416
5.37 --undefined-- 50.079
5.38 --undefined-- 60.279
5.39 --undefined-- 65.236
5.40 --undefined-- 65.799
5.41 --undefined-- 64.447
5.42 --undefined-- 65.743
5.43 135.666 67.556
5.44 135.022 67.209
5.45 --undefined-- 65.067
5.46 --undefined-- 64.793
5.47 --undefined-- 66.728
5.48 --undefined-- 67.861
5.49 --undefined-- 67.638
5.50 --undefined-- 66.365
5.51 --undefined-- 64.849
5.52 --undefined-- 63.767
5.53 --undefined-- 62.751
5.54 --undefined-- 61.898
5.55 --undefined-- 62.084
5.56 --undefined-- 62.921
5.57 93.328 62.987
5.58 95.132 62.455
5.59 75.490 61.526
5.60 --undefined-- 59.150
5.61 --undefined-- 54.723
5.62 --undefined-- 48.148
5.63 --undefined-- 39.959
5.64 --undefined-- 34.971
5.65 --undefined-- 33.863
5.66 --undefined-- 32.456
5.67 --undefined-- 32.115
5.68 --undefined-- 49.599
5.69 --undefined-- 62.600
5.70 --undefined-- 69.391
5.71 --undefined-- 71.524
5.72 --undefined-- 70.257
5.73 --undefined-- 68.509
5.74 84.866 68.133
5.75 82.328 67.586
5.76 79.412 66.589
5.77 79.454 65.964
5.78 79.440 65.573
5.79 77.808 64.577
5.80 78.619 --undefined--
5.81 77.155 --undefined--
5.82 --undefined-- --undefined--
5.83 --undefined-- --undefined--
