Time Pitch Intensity
0.01 --undefined-- --undefined--
0.02 130.674 --undefined--
0.03 130.097 --undefined--
0.04 129.719 --undefined--
0.05 130.236 69.875
0.06 131.565 69.490
0.07 133.579 68.727
0.08 138.862 68.113
0.09 142.150 68.286
0.10 143.149 68.627
0.11 143.424 69.110
0.12 145.716 70.167
0.13 149.624 71.057
0.14 154.586 71.395
0.15 155.142 71.976
0.16 156.669 72.782
0.17 159.529 72.984
0.18 162.240 72.828
0.19 163.890 72.764
0.20 163.873 72.502
0.21 162.877 71.754
0.22 160.401 70.800
0.23 153.105 70.227
0.24 151.168 69.939
0.25 149.496 69.050
0.26 144.201 67.441
0.27 134.354 65.632
0.28 127.305 63.932
0.29 122.949 62.649
0.30 121.915 61.702
0.31 119.016 61.472
0.32 114.575 62.720
0.33 110.059 64.359
0.34 105.767 65.486
0.35 112.140 66.232
0.36 123.330 66.781
0.37 133.285 67.286
0.38 140.677 67.766
0.39 149.157 68.151
0.40 153.902 68.373
0.41 161.200 68.443
0.42 165.966 68.334
0.43 168.995 68.061
0.44 170.900 67.912
0.45 170.552 68.033
0.46 167.979 68.332
0.47 165.063 68.839
0.48 161.450 69.306
0.49 156.042 69.535
0.50 150.217 69.417
0.51 144.572 68.877
0.52 140.490 68.075
0.53 138.591 67.342
0.54 137.894 67.000
0.55 137.950 67.205
0.56 136.357 67.650
0.57 132.998 67.826
0.58 130.518 67.988
0.59 128.453 68.421
0.60 125.139 68.796
0.61 123.150 68.965
0.62 122.666 68.881
0.63 117.671 68.441
0.64 115.428 67.931
0.65 112.207 67.645
0.66 107.273 67.154
0.67 105.278 66.596
0.68 105.903 66.323
0.69 106.612 66.439
0.70 107.621 66.820
0.71 109.165 67.337
0.72 112.357 67.942
0.73 113.690 68.079
0.74 115.033 67.726
0.75 116.947 67.330
0.76 118.587 67.042
0.77 121.696 66.835
0.78 125.903 66.770
0.79 129.279 66.722
0.80 130.304 66.290
0.81 130.397 65.324
0.82 130.711 64.078
0.83 131.571 63.070
0.84 131.396 63.089
0.85 131.761 64.173
0.86 132.248 65.509
0.87 131.544 66.648
0.88 126.725 67.405
0.89 123.767 67.408
0.90 118.056 66.340
0.91 114.406 64.927
0.92 106.959 63.977
0.93 99.458 63.130
0.94 98.618 62.239
0.95 94.115 61.519
0.96 89.282 61.077
0.97 84.761 60.844
0.98 83.795 60.973
0.99 86.398 61.355
1.00 90.302 61.743
1.01 94.351 62.065
1.02 99.868 62.451
1.03 105.729 63.233
1.04 110.625 64.391
1.05 113.408 65.621
1.06 115.907 66.602
1.07 120.863 67.222
1.08 121.743 67.383
1.09 121.300 66.622
1.10 118.684 64.285
1.11 114.380 60.009
1.12 108.594 54.496
1.13 104.061 49.608
1.14 --undefined-- 45.210
1.15 --undefined-- 41.751
1.16 --undefined-- 42.221
1.17 --undefined-- 45.428
1.18 --undefined-- 54.108
1.19 --undefined-- 61.613
1.20 --undefined-- 65.734
1.21 118.096 67.208
1.22 112.282 66.953
1.23 105.971 65.499
1.24 104.756 63.168
1.25 100.482 61.373
1.26 106.153 61.058
1.27 109.066 61.168
1.28 110.367 61.434
1.29 109.675 62.293
1.30 109.765 63.446
1.31 108.853 64.393
1.32 108.526 65.152
1.33 111.364 65.827
1.34 110.789 66.169
1.35 110.259 66.178
1.36 110.644 66.111
1.37 111.482 66.123
1.38 113.670 66.211
1.39 110.269 66.149
1.40 105.046 65.774
1.41 101.810 65.137
1.42 99.359 64.559
1.43 97.349 64.339
1.44 95.725 64.282
1.45 94.611 64.035
1.46 94.622 63.819
1.47 96.066 63.786
1.48 97.430 64.031
1.49 100.353 64.319
1.50 102.087 63.999
1.51 103.047 63.620
1.52 107.616 64.134
1.53 111.720 65.074
1.54 114.602 65.795
1.55 118.015 66.148
1.56 124.755 66.259
1.57 132.215 66.675
1.58 134.048 67.463
1.59 142.801 68.197
1.60 144.471 68.673
1.61 145.597 68.854
1.62 147.932 68.787
1.63 149.588 68.455
1.64 147.115 67.644
1.65 137.321 66.126
1.66 127.686 63.788
1.67 --undefined-- 60.783
1.68 --undefined-- 56.865
1.69 --undefined-- 50.906
1.70 --undefined-- 44.566
1.71 --undefined-- 43.003
1.72 --undefined-- 41.698
1.73 --undefined-- 39.161
1.74 --undefined-- 36.103
1.75 --undefined-- 35.739
1.76 --undefined-- 38.592
1.77 --undefined-- 39.934
1.78 --undefined-- 39.336
1.79 --undefined-- 39.139
1.80 --undefined-- 40.898
1.81 --undefined-- 42.592
1.82 --undefined-- 43.681
1.83 --undefined-- 44.371
1.84 --undefined-- 43.866
1.85 --undefined-- 42.368
1.86 --undefined-- 41.104
1.87 --undefined-- 40.077
1.88 --undefined-- 39.213
1.89 --undefined-- 38.840
1.90 --undefined-- 38.879
1.91 --undefined-- 38.494
1.92 --undefined-- 36.916
1.93 --undefined-- 34.526
1.94 --undefined-- 33.623
1.95 --undefined-- 35.721
1.96 --undefined-- 37.794
1.97 --undefined-- 40.399
1.98 --undefined-- 48.695
1.99 --undefined-- 56.526
2.00 139.996 61.175
2.01 140.643 63.583
2.02 140.845 64.957
2.03 138.280 65.854
2.04 132.756 66.223
2.05 131.177 66.425
2.06 132.535 66.724
2.07 133.603 67.010
2.08 133.376 67.192
2.09 132.056 67.312
2.10 131.130 67.411
2.11 130.082 67.472
2.12 129.810 67.492
2.13 130.126 67.453
2.14 130.840 67.411
2.15 131.332 67.395
2.16 131.665 67.386
2.17 131.863 67.368
2.18 131.976 67.372
2.19 132.376 67.398
2.20 132.975 67.431
2.21 133.865 67.443
2.22 134.318 67.338
2.23 133.890 67.141
2.24 132.805 66.724
2.25 127.879 65.322
2.26 118.327 62.401
2.27 127.038 58.708
2.28 150.334 55.203
2.29 146.218 51.127
2.30 --undefined-- 46.104
2.31 --undefined-- 42.747
2.32 --undefined-- 40.822
2.33 --undefined-- 45.779
2.34 --undefined-- 55.622
2.35 --undefined-- 62.297
2.36 152.337 65.900
2.37 137.336 67.135
2.38 133.620 67.044
2.39 132.468 67.141
2.40 131.567 67.988
2.41 131.982 68.752
2.42 131.552 69.081
2.43 128.589 69.116
2.44 --undefined-- 68.848
2.45 --undefined-- 67.865
2.46 --undefined-- 65.971
2.47 128.366 63.484
2.48 129.686 61.097
2.49 146.174 58.775
2.50 149.007 56.274
2.51 149.953 53.684
2.52 --undefined-- 51.744
2.53 --undefined-- 50.449
2.54 --undefined-- 50.386
2.55 --undefined-- 57.433
2.56 181.846 63.812
2.57 179.043 67.130
2.58 173.013 68.341
2.59 169.266 68.695
2.60 165.856 68.770
2.61 164.509 68.473
2.62 162.876 67.814
2.63 161.939 66.639
2.64 152.478 64.406
2.65 153.013 60.830
2.66 159.474 56.136
2.67 153.628 50.596
2.68 --undefined-- 45.072
2.69 --undefined-- 41.263
2.70 --undefined-- 38.357
2.71 --undefined-- 37.870
2.72 --undefined-- 39.793
2.73 --undefined-- 41.070
2.74 --undefined-- 44.912
2.75 --undefined-- 52.873
2.76 177.172 58.997
2.77 160.022 62.795
2.78 138.593 64.816
2.79 137.171 65.684
2.80 131.886 66.039
2.81 129.247 66.408
2.82 126.961 66.723
2.83 124.223 66.648
2.84 121.653 66.159
2.85 121.558 65.618
2.86 122.200 65.400
2.87 120.211 65.472
2.88 118.196 65.731
2.89 113.148 66.077
2.90 107.489 66.432
2.91 104.145 66.831
2.92 102.414 66.916
2.93 103.495 66.618
2.94 103.905 66.772
2.95 104.762 67.348
2.96 107.025 67.744
2.97 109.056 67.490
2.98 112.386 66.439
2.99 117.112 65.426
3.00 120.168 65.187
3.01 123.454 65.723
3.02 126.016 66.464
3.03 128.503 66.915
3.04 130.598 67.011
3.05 132.344 67.030
3.06 133.747 67.507
3.07 133.342 68.401
3.08 133.671 69.129
3.09 132.862 69.325
3.10 131.225 69.106
3.11 129.495 68.633
3.12 129.309 67.625
3.13 130.684 66.346
3.14 128.111 65.737
3.15 123.909 65.547
3.16 125.301 65.404
3.17 124.777 65.112
3.18 125.782 64.488
3.19 128.050 63.791
3.20 129.796 63.432
3.21 129.213 63.709
3.22 127.695 64.588
3.23 126.084 65.643
3.24 120.328 66.616
3.25 116.733 67.274
3.26 113.337 67.239
3.27 110.364 66.273
3.28 106.248 64.092
3.29 101.851 60.453
3.30 102.323 55.620
3.31 114.084 50.326
3.32 --undefined-- 47.333
3.33 --undefined-- 48.579
3.34 --undefined-- 47.909
3.35 --undefined-- 44.150
3.36 --undefined-- 41.158
3.37 --undefined-- 40.009
3.38 --undefined-- 37.224
3.39 --undefined-- 33.947
3.40 --undefined-- 38.305
3.41 --undefined-- 49.998
3.42 --undefined-- 59.012
3.43 --undefined-- 64.479
3.44 157.199 67.120
3.45 149.813 67.803
3.46 146.317 67.675
3.47 144.941 67.343
3.48 144.571 66.941
3.49 146.001 66.766
3.50 147.515 66.603
3.51 146.983 65.983
3.52 143.180 65.195
3.53 138.516 65.594
3.54 138.825 66.675
3.55 133.767 66.620
3.56 126.081 65.469
3.57 119.499 64.188
3.58 111.904 63.323
3.59 107.115 62.830
3.60 102.048 62.270
3.61 95.482 61.565
3.62 88.126 61.029
3.63 84.254 61.153
3.64 82.041 61.462
3.65 80.906 61.211
3.66 83.140 60.591
3.67 85.652 59.444
3.68 --undefined-- 57.031
3.69 --undefined-- 53.557
3.70 --undefined-- 51.794
3.71 --undefined-- 52.040
3.72 --undefined-- 52.101
3.73 --undefined-- 51.702
3.74 --undefined-- 50.940
3.75 --undefined-- 50.718
3.76 --undefined-- 50.297
3.77 --undefined-- 49.882
3.78 --undefined-- 50.486
3.79 --undefined-- 55.411
3.80 --undefined-- 61.790
3.81 136.844 65.467
3.82 135.752 66.838
3.83 128.564 66.898
3.84 125.702 66.569
3.85 125.630 66.458
3.86 128.163 66.870
3.87 129.263 67.452
3.88 130.158 67.566
3.89 131.497 67.262
3.90 130.491 67.170
3.91 127.416 67.395
3.92 125.807 67.609
3.93 125.373 67.778
3.94 124.941 67.899
3.95 124.588 67.955
3.96 123.742 67.974
3.97 122.104 67.949
3.98 120.634 67.760
3.99 118.261 67.155
4.00 114.249 66.212
4.01 109.956 65.379
4.02 --undefined-- 64.552
4.03 --undefined-- 63.256
4.04 292.898 61.673
4.05 290.516 60.059
4.06 295.191 56.513
4.07 --undefined-- 49.454
4.08 --undefined-- 41.762
4.09 --undefined-- 47.415
4.10 --undefined-- 54.171
4.11 --undefined-- 57.036
4.12 --undefined-- 58.050
4.13 86.076 59.492
4.14 95.899 61.416
4.15 98.543 63.261
4.16 104.190 65.097
4.17 101.346 66.324
4.18 97.615 66.374
4.19 96.024 65.612
4.20 96.379 64.676
4.21 97.073 63.925
4.22 97.687 63.619
4.23 97.402 63.573
4.24 97.293 63.261
4.25 96.992 62.490
4.26 94.474 61.313
4.27 93.539 59.371
4.28 92.191 56.258
4.29 98.867 52.183
4.30 --undefined-- 48.800
4.31 112.526 48.086
4.32 113.706 49.023
4.33 113.470 49.026
4.34 --undefined-- 47.195
4.35 --undefined-- 46.766
4.36 --undefined-- 53.931
4.37 --undefined-- 59.538
4.38 124.068 61.859
4.39 105.229 61.782
4.40 103.923 60.595
4.41 103.415 59.530
4.42 100.717 58.987
4.43 95.533 59.564
4.44 94.107 60.728
4.45 88.466 61.060
4.46 91.146 60.910
4.47 89.953 61.057
4.48 92.608 61.124
4.49 91.606 60.691
4.50 91.377 60.300
4.51 88.632 60.181
4.52 88.299 59.851
4.53 87.784 59.693
4.54 87.640 59.878
4.55 85.920 59.615
4.56 86.276 59.141
4.57 87.186 58.652
4.58 87.271 57.914
4.59 86.914 57.368
4.60 87.532 56.953
4.61 90.063 56.651
4.62 93.177 56.749
4.63 93.475 57.608
4.64 94.263 58.649
4.65 94.038 59.414
4.66 90.784 59.851
4.67 88.045 60.085
4.68 85.937 60.205
4.69 84.932 60.189
4.70 83.082 60.147
4.71 83.048 60.247
4.72 83.554 60.562
4.73 86.048 60.328
4.74 93.049 59.454
4.75 93.448 58.554
4.76 95.403 57.613
4.77 95.861 56.516
4.78 96.233 55.825
4.79 99.508 56.450
4.80 101.648 58.053
4.81 94.180 59.450
4.82 93.993 60.269
4.83 93.336 60.806
4.84 103.607 61.518
4.85 114.129 62.737
4.86 118.736 63.984
4.87 124.459 64.775
4.88 128.791 65.249
4.89 133.907 65.610
4.90 140.891 65.913
4.91 145.273 66.369
4.92 149.315 67.132
4.93 151.351 67.792
4.94 151.407 67.964
4.95 149.707 67.822
4.96 147.735 67.369
4.97 146.013 66.514
4.98 136.565 65.385
4.99 131.777 64.189
5.00 123.173 63.118
5.01 --undefined-- 61.995
5.02 --undefined-- 60.145
5.03 --undefined-- 57.872
5.04 --undefined-- 55.301
5.05 --undefined-- 50.526
5.06 --undefined-- 44.295
5.07 --undefined-- 49.001
5.08 --undefined-- 53.207
5.09 --undefined-- 54.815
5.10 --undefined-- 56.034
5.11 --undefined-- 57.507
5.12 85.573 59.095
5.13 94.965 60.642
5.14 101.462 61.830
5.15 101.566 62.434
5.16 103.649 62.945
5.17 102.150 63.364
5.18 102.391 63.330
5.19 103.320 62.884
5.20 105.307 62.295
5.21 107.006 61.652
5.22 106.430 60.524
5.23 102.318 58.532
5.24 101.581 55.962
5.25 95.760 53.229
5.26 108.724 50.558
5.27 118.744 47.554
5.28 --undefined-- 43.574
5.29 --undefined-- 40.441
5.30 --undefined-- 40.630
5.31 --undefined-- 40.568
5.32 --undefined-- 42.114
5.33 --undefined-- 48.095
5.34 113.293 52.931
5.35 108.580 56.151
5.36 106.983 58.079
5.37 103.950 59.294
5.38 100.891 60.197
5.39 95.105 60.791
5.40 92.904 60.683
5.41 89.932 59.480
5.42 91.273 58.398
5.43 94.098 59.249
5.44 95.236 60.280
5.45 96.895 --undefined--
5.46 96.675 --undefined--
5.47 --undefined-- --undefined--
5.48 --undefined-- --undefined--
