Time Pitch Intensity
0.01 --undefined-- --undefined--
0.02 --undefined-- --undefined--
0.03 --undefined-- --undefined--
0.04 --undefined-- --undefined--
0.05 --undefined-- 48.843
0.06 --undefined-- 52.257
0.07 242.252 57.897
0.08 223.559 63.307
0.09 211.842 67.298
0.10 202.942 70.211
0.11 198.874 71.935
0.12 195.201 72.697
0.13 193.447 72.804
0.14 192.510 72.588
0.15 193.083 72.464
0.16 193.056 72.290
0.17 193.693 71.476
0.18 196.553 69.858
0.19 199.417 68.056
0.20 200.396 67.128
0.21 196.986 67.840
0.22 194.437 69.291
0.23 192.554 70.445
0.24 189.827 70.878
0.25 184.847 70.112
0.26 181.942 67.488
0.27 179.185 62.904
0.28 --undefined-- 57.758
0.29 --undefined-- 53.737
0.30 --undefined-- 51.671
0.31 --undefined-- 50.791
0.32 --undefined-- 49.367
0.33 --undefined-- 50.143
0.34 --undefined-- 51.856
0.35 --undefined-- 51.697
0.36 --undefined-- 49.974
0.37 --undefined-- 49.823
0.38 --undefined-- 51.790
0.39 --undefined-- 51.417
0.40 --undefined-- 48.555
0.41 --undefined-- 45.213
0.42 --undefined-- 44.290
0.43 --undefined-- 46.428
0.44 --undefined-- 49.287
0.45 --undefined-- 50.045
0.46 --undefined-- 48.148
0.47 --undefined-- 45.459
0.48 --undefined-- 47.604
0.49 --undefined-- 52.240
0.50 --undefined-- 54.484
0.51 --undefined-- 54.082
0.52 --undefined-- 52.684
0.53 --undefined-- 52.031
0.54 --undefined-- 50.699
0.55 --undefined-- 48.606
0.56 --undefined-- 48.611
0.57 --undefined-- 49.010
0.58 --undefined-- 48.794
0.59 --undefined-- 50.521
0.60 --undefined-- 51.414
0.61 --undefined-- 49.873
0.62 --undefined-- 47.970
0.63 --undefined-- 48.845
0.64 --undefined-- 49.906
0.65 --undefined-- 49.116
0.66 --undefined-- 47.206
0.67 --undefined-- 46.643
0.68 --undefined-- 47.156
0.69 --undefined-- 46.826
0.70 --undefined-- 47.576
0.71 --undefined-- 47.925
0.72 --undefined-- 46.413
0.73 --undefined-- 52.048
0.74 188.640 59.345
0.75 193.801 63.637
0.76 197.605 65.766
0.77 197.559 66.945
0.78 191.403 67.287
0.79 186.276 65.689
0.80 192.380 61.459
0.81 194.633 56.200
0.82 --undefined-- 55.956
0.83 --undefined-- 59.064
0.84 --undefined-- 62.195
0.85 291.120 64.003
0.86 281.168 64.580
0.87 278.315 64.864
0.88 277.152 65.702
0.89 277.531 67.466
0.90 268.222 68.987
0.91 226.845 69.676
0.92 218.726 69.628
0.93 214.990 69.414
0.94 215.240 69.150
0.95 219.839 68.687
0.96 229.493 68.781
0.97 237.589 68.894
0.98 250.600 68.076
0.99 274.045 67.594
1.00 287.105 68.560
1.01 293.348 69.693
1.02 297.930 69.987
1.03 297.775 68.829
1.04 292.391 65.750
1.05 282.085 60.366
1.06 --undefined-- 54.132
1.07 --undefined-- 52.304
1.08 --undefined-- 51.920
1.09 --undefined-- 53.042
1.10 --undefined-- 54.741
1.11 --undefined-- 55.163
1.12 --undefined-- 60.105
1.13 166.943 66.106
1.14 166.382 69.369
1.15 164.479 70.592
1.16 162.828 70.852
1.17 160.654 70.882
1.18 159.786 70.993
1.19 159.756 71.097
1.20 159.953 71.152
1.21 160.211 71.222
1.22 160.657 71.375
1.23 161.419 71.522
1.24 162.552 71.551
1.25 163.577 71.467
1.26 164.855 71.310
1.27 165.644 71.076
1.28 165.696 70.813
1.29 165.642 70.538
1.30 165.519 70.282
1.31 165.054 70.063
1.32 164.546 69.758
1.33 164.368 69.298
1.34 162.624 69.094
1.35 159.408 69.797
1.36 158.651 70.774
1.37 157.917 71.216
1.38 158.116 71.170
1.39 159.220 70.809
1.40 162.875 70.279
1.41 166.164 69.861
1.42 163.675 69.727
1.43 161.167 69.721
1.44 160.197 69.662
1.45 159.719 69.461
1.46 159.264 69.188
1.47 159.434 69.039
1.48 159.823 68.993
1.49 160.029 69.000
1.50 159.996 69.078
1.51 159.233 69.012
1.52 157.975 68.677
1.53 157.087 68.322
1.54 156.614 68.084
1.55 157.185 67.989
1.56 158.298 68.005
1.57 158.172 67.887
1.58 158.386 67.685
1.59 159.509 67.623
1.60 159.705 67.660
1.61 158.842 67.603
1.62 156.802 67.166
1.63 150.609 66.348
1.64 284.600 65.500
1.65 260.470 64.765
1.66 235.801 64.363
1.67 211.669 64.740
1.68 183.609 66.472
1.69 --undefined-- 67.885
1.70 --undefined-- 67.183
1.71 --undefined-- 64.429
1.72 --undefined-- 61.085
1.73 --undefined-- 59.046
1.74 --undefined-- 57.588
1.75 --undefined-- 55.216
1.76 --undefined-- 54.623
1.77 --undefined-- 55.597
1.78 --undefined-- 55.773
1.79 --undefined-- 56.252
1.80 --undefined-- 56.872
1.81 --undefined-- 56.867
1.82 216.829 56.896
1.83 211.071 57.898
1.84 234.619 59.171
1.85 248.216 60.494
1.86 266.300 62.428
1.87 --undefined-- 64.856
1.88 171.617 67.032
1.89 174.731 68.534
1.90 177.706 69.529
1.91 182.052 70.108
1.92 184.356 70.171
1.93 185.209 69.818
1.94 184.844 69.564
1.95 182.009 69.473
1.96 176.713 68.884
1.97 168.220 67.592
1.98 161.820 66.303
1.99 162.078 65.767
2.00 160.150 65.886
2.01 274.007 66.253
2.02 259.695 67.230
2.03 258.131 68.335
2.04 259.222 68.594
2.05 263.104 67.805
2.06 271.733 66.551
2.07 280.090 65.997
2.08 284.266 65.811
2.09 282.930 64.443
2.10 274.254 60.944
2.11 --undefined-- 55.629
2.12 --undefined-- 52.763
2.13 --undefined-- 57.768
2.14 260.321 63.208
2.15 245.926 65.714
2.16 224.719 65.861
2.17 193.424 65.578
2.18 190.167 66.567
2.19 188.001 67.882
2.20 186.136 68.646
2.21 185.676 68.649
2.22 186.776 67.406
2.23 187.482 64.196
2.24 188.517 58.745
2.25 --undefined-- 52.961
2.26 --undefined-- 52.135
2.27 --undefined-- 56.561
2.28 255.793 62.011
2.29 254.340 65.259
2.30 258.030 66.369
2.31 263.080 66.087
2.32 269.061 64.839
2.33 269.426 62.435
2.34 260.688 58.303
2.35 --undefined-- 53.873
2.36 --undefined-- 53.348
2.37 --undefined-- 53.849
2.38 --undefined-- 53.595
2.39 --undefined-- 53.147
2.40 285.027 57.418
2.41 261.511 62.582
2.42 254.351 65.695
2.43 257.390 66.854
2.44 262.832 66.854
2.45 264.672 66.708
2.46 267.918 66.809
2.47 274.414 67.166
2.48 279.064 67.676
2.49 279.995 68.126
2.50 278.494 68.364
2.51 275.828 68.284
2.52 269.815 67.813
2.53 261.402 66.970
2.54 249.680 66.011
2.55 237.229 65.069
2.56 222.278 64.128
2.57 199.145 64.718
2.58 188.287 67.055
2.59 182.880 68.319
2.60 175.169 67.584
2.61 165.870 65.897
2.62 177.437 65.049
2.63 180.658 65.297
2.64 179.695 65.651
2.65 178.933 65.412
2.66 178.412 65.001
2.67 186.463 65.289
2.68 192.489 65.728
2.69 196.902 65.431
2.70 203.717 64.528
2.71 219.635 64.488
2.72 237.161 66.148
2.73 239.537 67.834
2.74 245.128 68.889
2.75 252.053 69.713
2.76 259.897 70.323
2.77 265.657 69.863
2.78 273.373 68.116
2.79 276.156 65.866
2.80 272.129 62.920
2.81 269.756 58.499
2.82 270.256 56.605
2.83 --undefined-- 58.390
2.84 --undefined-- 58.432
2.85 --undefined-- 56.216
2.86 --undefined-- 54.149
2.87 --undefined-- 55.439
2.88 --undefined-- 56.121
2.89 --undefined-- 54.915
2.90 --undefined-- 52.766
2.91 --undefined-- 49.704
2.92 --undefined-- 46.122
2.93 --undefined-- 46.834
2.94 --undefined-- 49.246
2.95 --undefined-- 49.869
2.96 --undefined-- 49.952
2.97 --undefined-- 50.584
2.98 --undefined-- 51.237
2.99 --undefined-- 51.051
3.00 --undefined-- 49.813
3.01 --undefined-- 48.981
3.02 --undefined-- 48.029
3.03 --undefined-- 49.959
3.04 --undefined-- 52.019
3.05 --undefined-- 53.615
3.06 271.379 57.272
3.07 251.017 60.550
3.08 229.530 62.438
3.09 224.331 63.892
3.10 224.056 65.292
3.11 225.132 66.345
3.12 226.333 66.872
3.13 227.248 67.040
3.14 227.985 67.109
3.15 229.140 67.119
3.16 230.863 67.159
3.17 232.818 67.482
3.18 235.337 68.051
3.19 237.611 68.371
3.20 239.479 68.272
3.21 239.262 68.137
3.22 237.783 67.954
3.23 237.033 67.585
3.24 234.898 66.916
3.25 232.759 65.654
3.26 222.433 64.166
3.27 220.828 63.415
3.28 220.272 63.693
3.29 220.011 64.682
3.30 218.340 65.620
3.31 213.393 66.389
3.32 206.663 67.365
3.33 198.915 68.150
3.34 192.413 68.584
3.35 186.884 68.786
3.36 184.257 68.322
3.37 182.473 67.342
3.38 180.293 66.288
3.39 178.486 65.406
3.40 176.952 64.594
3.41 174.079 63.647
3.42 172.815 62.892
3.43 172.164 62.634
3.44 172.030 62.654
3.45 173.052 62.335
3.46 172.658 61.794
3.47 173.594 61.624
3.48 175.344 61.942
3.49 176.321 62.533
3.50 177.627 63.381
3.51 181.781 64.407
3.52 182.085 65.032
3.53 175.827 65.055
3.54 176.672 64.787
3.55 178.083 64.362
3.56 179.617 64.119
3.57 180.229 64.274
3.58 180.002 64.381
3.59 179.503 64.294
3.60 180.520 64.503
3.61 182.232 64.945
3.62 182.130 64.989
3.63 182.102 64.719
3.64 182.426 64.474
3.65 182.268 64.275
3.66 182.416 64.017
3.67 182.327 63.383
3.68 180.684 61.521
3.69 177.558 57.593
3.70 --undefined-- 53.480
3.71 --undefined-- 52.885
3.72 --undefined-- 54.302
3.73 214.527 59.405
3.74 191.924 63.436
3.75 180.762 65.549
3.76 173.159 66.424
3.77 166.394 66.445
3.78 162.435 65.966
3.79 163.679 66.014
3.80 165.801 66.803
3.81 167.651 67.319
3.82 171.085 67.376
3.83 178.851 67.497
3.84 187.613 67.719
3.85 195.793 67.530
3.86 210.994 66.972
3.87 229.773 66.296
3.88 244.682 65.397
3.89 255.775 64.944
3.90 269.866 66.151
3.91 274.986 67.823
3.92 290.763 69.172
3.93 152.542 69.801
3.94 151.175 69.341
3.95 291.044 68.233
3.96 267.787 67.092
3.97 241.531 66.252
3.98 216.779 66.127
3.99 192.148 66.191
4.00 181.275 65.829
4.01 165.682 64.894
4.02 158.368 63.683
4.03 165.747 62.118
4.04 172.390 60.470
4.05 172.515 58.910
4.06 181.635 56.250
4.07 --undefined-- 52.100
4.08 --undefined-- 48.817
4.09 --undefined-- 50.166
4.10 --undefined-- 53.475
4.11 --undefined-- 56.271
4.12 --undefined-- 57.087
4.13 --undefined-- 56.928
4.14 286.555 57.036
4.15 266.878 56.003
4.16 235.413 56.567
4.17 207.085 59.209
4.18 186.916 60.761
4.19 175.425 61.384
4.20 169.483 61.638
4.21 161.932 61.314
4.22 158.300 59.966
4.23 156.509 58.911
4.24 160.264 58.733
4.25 159.268 58.144
4.26 155.667 58.272
4.27 156.006 59.761
4.28 157.392 60.323
4.29 158.376 59.439
4.30 157.896 59.163
4.31 161.816 59.024
4.32 162.721 57.987
4.33 164.269 57.671
4.34 165.759 58.371
4.35 166.473 59.474
4.36 171.100 61.117
4.37 173.175 62.517
4.38 178.074 63.303
4.39 178.816 64.393
4.40 180.143 66.445
4.41 181.943 69.174
4.42 181.347 71.165
4.43 180.991 72.211
4.44 181.721 72.852
4.45 182.190 73.169
4.46 183.711 72.884
4.47 183.830 71.870
4.48 182.978 71.497
4.49 --undefined-- 72.231
4.50 --undefined-- 71.748
4.51 --undefined-- 69.643
4.52 --undefined-- 65.910
4.53 --undefined-- 60.261
4.54 --undefined-- 54.005
4.55 --undefined-- 49.881
4.56 --undefined-- 49.577
4.57 --undefined-- 50.161
4.58 --undefined-- 50.319
4.59 --undefined-- 52.630
4.60 --undefined-- 53.785
4.61 --undefined-- 52.904
4.62 --undefined-- 53.193
4.63 --undefined-- 53.577
4.64 --undefined-- 53.928
4.65 --undefined-- 55.997
4.66 --undefined-- 58.286
4.67 --undefined-- 60.454
4.68 234.504 62.501
4.69 238.134 64.187
4.70 241.144 65.553
4.71 247.901 66.608
4.72 255.832 67.266
4.73 261.489 67.627
4.74 266.315 67.662
4.75 267.615 66.946
4.76 263.645 65.563
4.77 257.743 64.948
4.78 254.891 65.236
4.79 246.943 66.230
4.80 242.124 67.649
4.81 227.134 67.863
4.82 208.486 67.075
4.83 195.474 66.737
4.84 194.812 66.630
4.85 195.304 66.134
4.86 195.494 65.377
4.87 195.580 64.636
4.88 195.296 64.044
4.89 195.415 63.766
4.90 198.460 63.635
4.91 207.133 63.348
4.92 221.804 63.593
4.93 246.726 64.941
4.94 265.061 66.446
4.95 275.770 67.618
4.96 290.305 --undefined--
4.97 152.426 --undefined--
4.98 --undefined-- --undefined--
4.99 --undefined-- --undefined--
