Time Pitch Intensity
0.01 --undefined-- --undefined--
0.02 139.200 --undefined--
0.03 138.197 --undefined--
0.04 138.710 --undefined--
0.05 140.898 79.673
0.06 143.573 79.593
0.07 144.861 78.718
0.08 146.176 76.703
0.09 148.242 73.377
0.10 154.094 68.221
0.11 154.285 61.618
0.12 135.551 57.236
0.13 --undefined-- 58.075
0.14 --undefined-- 66.614
0.15 236.565 74.230
0.16 219.000 78.385
0.17 215.704 79.773
0.18 213.276 79.508
0.19 206.185 78.864
0.20 202.675 78.678
0.21 198.163 78.829
0.22 191.863 78.843
0.23 183.333 78.601
0.24 175.362 78.354
0.25 166.609 78.289
0.26 159.542 78.253
0.27 152.967 78.055
0.28 147.754 77.884
0.29 146.164 77.954
0.30 147.715 77.936
0.31 149.988 77.504
0.32 151.498 77.072
0.33 162.945 77.538
0.34 165.553 78.227
0.35 166.229 78.440
0.36 168.476 78.346
0.37 171.745 78.048
0.38 173.872 77.751
0.39 172.376 77.297
0.40 169.789 75.985
0.41 173.039 74.813
0.42 182.875 76.385
0.43 187.472 78.513
0.44 187.875 79.169
0.45 186.970 78.812
0.46 185.930 78.402
0.47 184.458 77.979
0.48 182.098 77.252
0.49 179.660 75.578
0.50 172.529 71.847
0.51 160.838 64.979
0.52 --undefined-- 55.485
0.53 --undefined-- 51.026
0.54 --undefined-- 51.073
0.55 --undefined-- 50.573
0.56 --undefined-- 49.417
0.57 --undefined-- 48.699
0.58 --undefined-- 50.750
0.59 --undefined-- 54.584
0.60 --undefined-- 63.092
0.61 --undefined-- 71.584
0.62 157.579 76.230
0.63 148.426 77.584
0.64 138.706 76.274
0.65 --undefined-- 72.757
0.66 --undefined-- 67.189
0.67 --undefined-- 60.178
0.68 --undefined-- 53.830
0.69 --undefined-- 50.970
0.70 --undefined-- 50.217
0.71 --undefined-- 50.682
0.72 --undefined-- 49.456
0.73 --undefined-- 45.955
0.74 --undefined-- 46.370
0.75 --undefined-- 51.023
0.76 --undefined-- 57.804
0.77 --undefined-- 67.219
0.78 --undefined-- 73.694
0.79 139.826 76.760
0.80 129.775 77.574
0.81 124.194 77.805
0.82 117.859 78.343
0.83 113.353 78.656
0.84 111.363 78.541
0.85 110.793 78.222
0.86 111.199 77.852
0.87 112.750 77.588
0.88 114.194 77.605
0.89 115.997 77.937
0.90 116.814 78.270
0.91 113.190 78.274
0.92 112.184 77.982
0.93 112.391 77.720
0.94 111.066 77.570
0.95 110.808 76.970
0.96 110.097 75.337
0.97 107.303 72.579
0.98 107.504 69.208
0.99 114.816 65.696
1.00 119.098 61.105
1.01 --undefined-- 55.272
1.02 --undefined-- 54.470
1.03 --undefined-- 57.305
1.04 --undefined-- 58.565
1.05 --undefined-- 58.682
1.06 --undefined-- 58.786
1.07 --undefined-- 59.202
1.08 --undefined-- 63.594
1.09 153.734 69.500
1.10 138.612 73.087
1.11 125.572 75.154
1.12 120.636 76.776
1.13 120.936 78.106
1.14 121.771 78.880
1.15 120.647 78.836
1.16 117.465 78.083
1.17 117.068 77.048
1.18 115.918 76.040
1.19 116.161 75.284
1.20 116.058 74.723
1.21 115.916 74.360
1.22 115.051 74.231
1.23 115.772 74.609
1.24 115.551 75.671
1.25 111.086 76.878
1.26 110.564 77.785
1.27 111.692 78.230
1.28 115.535 78.554
1.29 120.188 78.827
1.30 123.902 78.552
1.31 126.113 77.899
1.32 134.410 77.231
1.33 135.427 76.284
1.34 136.970 75.338
1.35 147.376 76.058
1.36 153.690 78.056
1.37 153.817 79.241
1.38 154.040 79.412
1.39 153.020 78.996
1.40 150.600 77.948
1.41 146.890 75.555
1.42 144.911 70.983
1.43 160.364 63.923
1.44 --undefined-- 58.502
1.45 --undefined-- 60.027
1.46 --undefined-- 62.651
1.47 --undefined-- 69.614
1.48 --undefined-- 75.231
1.49 136.682 77.713
1.50 135.061 78.315
1.51 130.319 78.458
1.52 127.088 78.650
1.53 125.535 78.932
1.54 123.300 79.117
1.55 122.111 79.198
1.56 121.559 79.100
1.57 122.115 78.288
1.58 108.649 76.120
1.59 --undefined-- 71.887
1.60 --undefined-- 65.019
1.61 --undefined-- 55.804
1.62 --undefined-- 49.320
1.63 --undefined-- 47.493
1.64 --undefined-- 48.138
1.65 --undefined-- 58.863
1.66 --undefined-- 65.906
1.67 --undefined-- 68.328
1.68 --undefined-- 68.060
1.69 111.814 69.409
1.70 110.382 71.933
1.71 126.086 73.870
1.72 135.147 75.077
1.73 130.996 75.691
1.74 130.035 76.209
1.75 123.876 76.571
1.76 118.802 76.260
1.77 116.734 74.754
1.78 115.701 71.439
1.79 105.295 65.754
1.80 117.989 58.279
1.81 --undefined-- 52.509
1.82 --undefined-- 48.239
1.83 --undefined-- 43.947
1.84 --undefined-- 40.860
1.85 --undefined-- 45.539
1.86 --undefined-- 50.932
1.87 --undefined-- 52.467
1.88 --undefined-- 54.217
1.89 --undefined-- 62.488
1.90 152.819 68.850
1.91 128.602 72.573
1.92 122.664 74.824
1.93 120.552 76.354
1.94 119.224 77.324
1.95 118.938 77.989
1.96 120.800 78.603
1.97 123.976 79.022
1.98 125.280 78.569
1.99 124.418 76.348
2.00 118.901 71.809
2.01 128.278 65.106
2.02 125.963 57.961
2.03 122.502 53.368
2.04 --undefined-- 51.484
2.05 --undefined-- 50.980
2.06 --undefined-- 56.637
2.07 --undefined-- 65.802
2.08 --undefined-- 72.395
2.09 128.595 76.156
2.10 127.513 77.982
2.11 125.316 78.705
2.12 122.478 78.917
2.13 121.620 78.929
2.14 120.432 78.678
2.15 120.056 78.083
2.16 121.772 77.588
2.17 128.722 77.490
2.18 133.127 77.394
2.19 137.373 77.195
2.20 141.627 76.785
2.21 143.590 75.626
2.22 144.367 73.193
2.23 142.586 70.287
2.24 156.069 72.525
2.25 150.980 76.356
2.26 151.326 78.046
2.27 144.760 78.047
2.28 135.434 77.782
2.29 133.143 78.039
2.30 130.792 78.213
2.31 128.873 77.821
2.32 126.215 76.291
2.33 120.759 72.754
2.34 --undefined-- 66.617
2.35 --undefined-- 58.655
2.36 --undefined-- 52.899
2.37 --undefined-- 49.674
2.38 --undefined-- 47.524
2.39 --undefined-- 48.304
2.40 --undefined-- 54.379
2.41 --undefined-- 65.141
2.42 --undefined-- 73.298
2.43 179.806 77.480
2.44 171.298 78.444
2.45 165.407 77.794
2.46 164.017 77.360
2.47 165.149 77.367
2.48 168.631 77.496
2.49 171.740 77.555
2.50 173.966 77.577
2.51 175.046 77.786
2.52 175.094 78.183
2.53 175.188 78.587
2.54 173.697 78.909
2.55 172.394 79.116
2.56 170.300 79.190
2.57 168.328 79.143
2.58 165.574 79.008
2.59 159.601 78.769
2.60 151.266 78.603
2.61 141.221 78.468
2.62 131.989 78.041
2.63 120.074 77.308
2.64 107.232 76.615
2.65 98.585 76.086
2.66 99.067 75.332
2.67 95.742 74.448
2.68 96.378 74.096
2.69 95.210 74.281
2.70 92.912 74.632
2.71 92.552 74.786
2.72 92.555 74.415
2.73 92.504 73.753
2.74 99.038 74.040
2.75 103.816 75.151
2.76 105.122 75.921
2.77 104.746 75.933
2.78 103.932 74.878
2.79 102.951 72.309
2.80 103.223 67.812
2.81 110.396 61.318
2.82 --undefined-- 53.735
2.83 --undefined-- 53.761
2.84 --undefined-- 65.234
2.85 --undefined-- 73.239
2.86 --undefined-- 77.377
2.87 122.007 78.785
2.88 120.513 78.972
2.89 119.034 79.101
2.90 117.345 79.230
2.91 115.899 79.422
2.92 115.915 79.795
2.93 116.623 80.061
2.94 118.102 80.057
2.95 119.478 79.847
2.96 120.916 79.425
2.97 121.818 78.406
2.98 121.996 76.117
2.99 --undefined-- 72.229
3.00 --undefined-- 66.977
3.01 --undefined-- 60.322
3.02 --undefined-- 55.980
3.03 --undefined-- 56.440
3.04 --undefined-- 56.544
3.05 --undefined-- 56.386
3.06 --undefined-- 56.288
3.07 --undefined-- 54.956
3.08 --undefined-- 51.270
3.09 --undefined-- 51.783
3.10 --undefined-- 61.251
3.11 --undefined-- 69.645
3.12 --undefined-- 75.003
3.13 121.709 77.577
3.14 119.102 78.391
3.15 117.576 78.508
3.16 116.980 78.067
3.17 115.318 76.319
3.18 106.660 72.808
3.19 115.767 71.348
3.20 135.995 75.238
3.21 122.557 78.029
3.22 120.541 78.848
3.23 118.033 78.554
3.24 113.785 77.793
3.25 110.986 76.940
3.26 110.228 76.011
3.27 109.340 74.501
3.28 108.462 71.789
3.29 107.978 67.245
3.30 107.799 60.960
3.31 --undefined-- 56.569
3.32 --undefined-- 55.739
3.33 --undefined-- 55.895
3.34 --undefined-- 59.075
3.35 --undefined-- 66.451
3.36 154.813 72.975
3.37 145.914 76.529
3.38 128.725 77.547
3.39 124.027 76.946
3.40 120.919 75.418
3.41 115.635 73.718
3.42 123.080 73.830
3.43 124.518 75.283
3.44 123.981 76.166
3.45 122.447 76.490
3.46 122.434 76.661
3.47 122.681 76.750
3.48 122.162 76.740
3.49 121.240 76.617
3.50 120.123 76.364
3.51 118.828 75.904
3.52 115.356 75.102
3.53 112.397 74.051
3.54 108.960 73.359
3.55 107.800 73.929
3.56 106.743 75.435
3.57 103.126 76.535
3.58 98.765 76.775
3.59 95.020 76.664
3.60 92.821 75.999
3.61 91.302 73.618
3.62 --undefined-- 68.698
3.63 --undefined-- 60.926
3.64 --undefined-- 51.577
3.65 --undefined-- 47.849
3.66 --undefined-- 46.335
3.67 --undefined-- 47.629
3.68 --undefined-- 49.475
3.69 --undefined-- 53.745
3.70 --undefined-- 60.326
3.71 --undefined-- 65.407
3.72 --undefined-- 70.566
3.73 --undefined-- 74.407
3.74 105.989 76.268
3.75 97.396 76.345
3.76 95.221 74.532
3.77 88.095 70.838
3.78 84.916 66.054
3.79 --undefined-- 63.427
3.80 --undefined-- 69.970
3.81 --undefined-- 75.291
3.82 --undefined-- 77.720
3.83 --undefined-- 78.275
3.84 101.378 77.915
3.85 99.367 76.986
3.86 91.208 75.389
3.87 92.141 72.935
3.88 84.295 69.605
3.89 --undefined-- 65.857
3.90 --undefined-- 63.286
3.91 130.861 62.991
3.92 116.784 63.221
3.93 109.923 63.176
3.94 122.796 62.685
3.95 121.214 60.994
3.96 117.009 58.089
3.97 --undefined-- 55.420
3.98 --undefined-- 53.907
3.99 --undefined-- 53.171
4.00 --undefined-- 52.301
4.01 --undefined-- 51.072
4.02 --undefined-- 50.191
4.03 --undefined-- 49.400
4.04 --undefined-- 48.146
4.05 --undefined-- 47.497
4.06 --undefined-- 47.490
4.07 --undefined-- 46.867
4.08 --undefined-- 44.982
4.09 --undefined-- 42.469
4.10 --undefined-- 41.851
4.11 --undefined-- 44.715
4.12 --undefined-- 51.676
4.13 --undefined-- 59.119
4.14 --undefined-- 66.578
4.15 172.754 73.419
4.16 168.511 77.701
4.17 166.245 79.541
4.18 168.254 79.623
4.19 179.016 78.385
4.20 192.636 76.889
4.21 218.554 76.803
4.22 228.464 77.522
4.23 238.580 78.133
4.24 246.313 78.292
4.25 252.560 78.202
4.26 252.829 78.191
4.27 250.397 78.010
4.28 240.803 77.593
4.29 227.303 77.090
4.30 211.423 76.747
4.31 197.872 76.509
4.32 180.530 76.328
4.33 168.144 76.457
4.34 154.368 77.285
4.35 145.859 78.949
4.36 137.096 80.152
4.37 131.470 80.089
4.38 125.578 79.257
4.39 124.053 78.166
4.40 119.875 76.231
4.41 115.962 73.175
4.42 113.671 69.539
4.43 109.947 65.607
4.44 112.334 62.891
4.45 116.624 67.249
4.46 144.319 73.025
4.47 145.173 76.485
4.48 145.266 78.113
4.49 146.503 78.671
4.50 150.175 78.689
4.51 154.887 78.322
4.52 161.070 77.854
4.53 166.682 77.511
4.54 170.977 77.212
4.55 174.003 76.912
4.56 176.192 76.040
4.57 172.762 73.922
4.58 163.608 70.447
4.59 163.028 65.869
4.60 171.396 60.711
4.61 171.392 57.888
4.62 171.325 56.916
4.63 163.994 56.277
4.64 160.056 55.986
4.65 --undefined-- 55.317
4.66 --undefined-- 54.548
4.67 --undefined-- 55.276
4.68 --undefined-- 56.449
4.69 --undefined-- 57.563
4.70 --undefined-- 64.832
4.71 229.020 71.810
4.72 231.005 75.423
4.73 232.246 76.586
4.74 232.362 76.590
4.75 231.751 76.276
4.76 230.112 75.685
4.77 226.682 74.981
4.78 227.257 74.976
4.79 227.507 75.463
4.80 226.085 75.810
4.81 225.684 76.076
4.82 225.277 76.340
4.83 225.241 76.599
4.84 225.581 76.849
4.85 225.610 77.092
4.86 225.765 77.337
4.87 225.845 77.611
4.88 225.761 77.872
4.89 225.341 78.031
4.90 223.400 77.817
4.91 217.884 76.818
4.92 207.600 74.874
4.93 197.531 72.303
4.94 190.108 70.174
4.95 189.985 69.606
4.96 192.368 71.088
4.97 209.476 74.289
4.98 232.983 76.759
4.99 231.336 77.580
5.00 229.854 77.601
5.01 226.786 77.267
5.02 224.192 76.576
5.03 222.970 75.975
5.04 223.860 75.841
5.05 225.068 75.938
5.06 225.677 75.852
5.07 225.155 75.451
5.08 223.608 75.212
5.09 222.324 75.347
5.10 218.702 75.319
5.11 211.129 74.694
5.12 198.288 73.362
5.13 182.959 --undefined--
5.14 174.538 --undefined--
5.15 --undefined-- --undefined--
5.16 --undefined-- --undefined--
