Time Pitch Intensity
0.01 --undefined-- --undefined--
0.02 --undefined-- --undefined--
0.03 --undefined-- --undefined--
0.04 --undefined-- --undefined--
0.05 --undefined-- 38.760
0.06 --undefined-- 39.028
0.07 --undefined-- 38.905
0.08 --undefined-- 39.107
0.09 --undefined-- 39.036
0.10 --undefined-- 38.888
0.11 --undefined-- 38.567
0.12 --undefined-- 38.037
0.13 --undefined-- 38.932
0.14 --undefined-- 39.631
0.15 --undefined-- 38.818
0.16 --undefined-- 38.289
0.17 --undefined-- 38.495
0.18 --undefined-- 38.909
0.19 --undefined-- 39.397
0.20 --undefined-- 39.265
0.21 --undefined-- 38.615
0.22 --undefined-- 38.282
0.23 --undefined-- 38.762
0.24 --undefined-- 38.987
0.25 --undefined-- 38.481
0.26 --undefined-- 38.190
0.27 --undefined-- 38.478
0.28 --undefined-- 38.609
0.29 --undefined-- 39.551
0.30 --undefined-- 42.007
0.31 --undefined-- 43.822
0.32 --undefined-- 44.887
0.33 --undefined-- 50.563
0.34 --undefined-- 56.557
0.35 --undefined-- 62.318
0.36 --undefined-- 68.007
0.37 214.372 71.254
0.38 209.934 71.737
0.39 207.331 69.607
0.40 206.605 65.256
0.41 221.150 62.076
0.42 228.267 62.957
0.43 234.814 64.270
0.44 241.794 65.653
0.45 253.811 68.430
0.46 273.646 71.575
0.47 275.501 73.040
0.48 274.114 72.918
0.49 273.088 72.284
0.50 270.548 71.740
0.51 266.170 71.264
0.52 260.940 70.541
0.53 254.293 69.437
0.54 245.692 67.777
0.55 236.942 64.766
0.56 229.519 59.570
0.57 --undefined-- 53.986
0.58 --undefined-- 54.898
0.59 --undefined-- 63.469
0.60 --undefined-- 69.503
0.61 --undefined-- 72.052
0.62 --undefined-- 72.191
0.63 181.075 71.433
0.64 175.020 70.787
0.65 165.739 70.468
0.66 162.953 70.305
0.67 161.136 69.943
0.68 159.073 69.702
0.69 157.921 69.768
0.70 157.155 69.752
0.71 156.748 69.504
0.72 156.356 69.227
0.73 156.236 69.239
0.74 156.368 69.551
0.75 155.847 69.910
0.76 156.006 70.217
0.77 156.076 70.415
0.78 155.525 70.374
0.79 155.083 70.016
0.80 154.819 69.326
0.81 154.639 68.205
0.82 153.936 66.390
0.83 152.947 63.802
0.84 152.198 60.747
0.85 150.968 57.613
0.86 146.920 54.770
0.87 --undefined-- 53.032
0.88 --undefined-- 52.661
0.89 --undefined-- 53.414
0.90 --undefined-- 54.167
0.91 --undefined-- 53.974
0.92 --undefined-- 53.680
0.93 --undefined-- 54.380
0.94 --undefined-- 56.073
0.95 --undefined-- 61.312
0.96 --undefined-- 67.876
0.97 --undefined-- 71.579
0.98 182.060 72.588
0.99 180.775 72.283
1.00 179.635 71.877
1.01 184.190 71.678
1.02 189.624 71.303
1.03 196.923 70.309
1.04 205.491 69.154
1.05 216.055 68.055
1.06 226.642 66.076
1.07 238.785 62.835
1.08 240.389 59.036
1.09 253.691 56.494
1.10 257.653 54.945
1.11 246.452 52.182
1.12 --undefined-- 49.249
1.13 --undefined-- 49.279
1.14 --undefined-- 49.984
1.15 --undefined-- 49.440
1.16 --undefined-- 49.384
1.17 --undefined-- 53.515
1.18 --undefined-- 59.020
1.19 182.695 63.015
1.20 176.289 65.906
1.21 171.669 68.128
1.22 169.947 69.506
1.23 169.645 69.859
1.24 170.311 69.421
1.25 172.023 68.887
1.26 175.726 68.941
1.27 182.768 69.915
1.28 197.767 71.382
1.29 203.077 72.502
1.30 206.602 73.057
1.31 210.580 72.936
1.32 215.380 72.177
1.33 219.501 71.053
1.34 220.032 69.802
1.35 215.736 68.600
1.36 208.513 66.988
1.37 201.980 63.927
1.38 200.619 58.349
1.39 --undefined-- 50.260
1.40 --undefined-- 48.728
1.41 --undefined-- 54.472
1.42 --undefined-- 61.730
1.43 --undefined-- 67.316
1.44 --undefined-- 70.288
1.45 170.358 71.437
1.46 164.649 71.654
1.47 160.102 71.308
1.48 156.777 70.381
1.49 155.877 68.941
1.50 157.380 67.631
1.51 159.283 66.512
1.52 161.734 64.849
1.53 172.961 63.057
1.54 179.896 61.695
1.55 185.070 60.670
1.56 190.153 63.684
1.57 220.986 69.347
1.58 217.531 72.604
1.59 217.476 73.828
1.60 220.155 74.063
1.61 224.599 73.535
1.62 228.290 72.105
1.63 226.860 69.884
1.64 220.889 66.649
1.65 214.100 61.792
1.66 210.201 55.141
1.67 --undefined-- 50.648
1.68 --undefined-- 51.296
1.69 --undefined-- 52.934
1.70 --undefined-- 61.114
1.71 --undefined-- 68.553
1.72 184.587 72.528
1.73 179.639 73.839
1.74 173.075 73.409
1.75 168.465 72.468
1.76 167.511 72.006
1.77 167.068 71.890
1.78 166.294 71.907
1.79 165.342 71.911
1.80 164.754 71.680
1.81 164.830 71.260
1.82 164.577 70.920
1.83 163.662 70.711
1.84 162.765 70.700
1.85 162.481 70.880
1.86 161.725 71.037
1.87 161.292 71.045
1.88 160.866 70.817
1.89 160.245 70.458
1.90 160.077 70.254
1.91 159.567 70.199
1.92 158.734 70.216
1.93 158.047 70.341
1.94 157.061 70.469
1.95 156.170 70.502
1.96 155.700 70.538
1.97 155.111 70.567
1.98 154.482 70.436
1.99 153.657 69.966
2.00 152.775 69.064
2.01 153.152 68.282
2.02 153.927 68.298
2.03 152.939 68.482
2.04 152.442 68.414
2.05 153.318 68.487
2.06 153.629 68.561
2.07 153.485 68.107
2.08 154.189 67.114
2.09 154.056 65.734
2.10 154.867 64.153
2.11 154.352 62.778
2.12 154.175 62.381
2.13 155.494 63.031
2.14 151.675 63.621
2.15 --undefined-- 63.226
2.16 --undefined-- 60.627
2.17 --undefined-- 54.744
2.18 --undefined-- 46.099
2.19 --undefined-- 41.259
2.20 --undefined-- 39.934
2.21 --undefined-- 39.563
2.22 --undefined-- 40.179
2.23 --undefined-- 41.189
2.24 --undefined-- 41.329
2.25 --undefined-- 41.186
2.26 --undefined-- 51.122
2.27 --undefined-- 61.509
2.28 --undefined-- 67.197
2.29 --undefined-- 69.280
2.30 --undefined-- 69.067
2.31 --undefined-- 68.265
2.32 --undefined-- 67.644
2.33 --undefined-- 67.709
2.34 --undefined-- 68.222
2.35 --undefined-- 66.789
2.36 75.866 63.790
2.37 75.578 62.850
2.38 75.892 63.535
2.39 76.068 64.067
2.40 75.563 64.249
2.41 75.380 64.320
2.42 75.826 64.432
2.43 76.138 64.571
2.44 76.751 64.512
2.45 77.142 64.431
2.46 77.247 64.459
2.47 77.106 64.352
2.48 76.889 64.271
2.49 76.762 64.280
2.50 76.223 64.309
2.51 --undefined-- 64.205
2.52 152.779 63.397
2.53 152.410 61.580
2.54 153.965 59.509
2.55 156.966 58.023
2.56 159.619 57.701
2.57 164.604 58.632
2.58 169.502 60.436
2.59 179.871 63.782
2.60 198.944 67.366
2.61 202.924 69.150
2.62 197.175 69.875
2.63 200.271 71.320
2.64 203.508 72.309
2.65 206.870 71.526
2.66 208.397 68.717
2.67 207.226 64.086
2.68 200.687 58.668
2.69 199.586 55.660
2.70 203.274 55.576
2.71 --undefined-- 58.238
2.72 --undefined-- 63.140
2.73 --undefined-- 68.139
2.74 192.394 70.919
2.75 179.960 71.594
2.76 170.060 70.717
2.77 163.325 68.491
2.78 162.260 65.770
2.79 164.398 64.481
2.80 166.150 64.463
2.81 168.496 64.621
2.82 171.841 64.933
2.83 175.562 65.411
2.84 179.673 65.561
2.85 182.964 65.355
2.86 185.789 65.240
2.87 188.958 65.323
2.88 192.517 65.509
2.89 195.382 65.857
2.90 197.671 66.605
2.91 198.433 67.806
2.92 199.243 69.140
2.93 198.867 70.229
2.94 198.380 70.732
2.95 196.548 70.197
2.96 192.407 68.600
2.97 189.313 67.117
2.98 185.242 67.330
2.99 184.865 69.857
3.00 180.441 72.725
3.01 178.736 73.963
3.02 175.148 73.466
3.03 169.350 71.549
3.04 163.979 67.872
3.05 --undefined-- 61.443
3.06 --undefined-- 52.274
3.07 265.037 50.351
3.08 262.523 51.738
3.09 262.990 50.701
3.10 --undefined-- 47.721
3.11 --undefined-- 45.297
3.12 --undefined-- 44.429
3.13 --undefined-- 43.401
3.14 --undefined-- 42.810
3.15 --undefined-- 43.363
3.16 --undefined-- 46.367
3.17 --undefined-- 56.119
3.18 --undefined-- 64.101
3.19 --undefined-- 69.684
3.20 --undefined-- 72.781
3.21 166.168 73.314
3.22 158.283 72.303
3.23 153.734 71.401
3.24 150.849 70.841
3.25 150.143 70.548
3.26 149.824 70.568
3.27 149.917 70.707
3.28 151.284 70.967
3.29 152.865 71.373
3.30 154.393 71.864
3.31 156.561 72.145
3.32 157.979 72.029
3.33 158.487 71.855
3.34 160.147 72.142
3.35 160.661 72.473
3.36 160.395 72.560
3.37 159.464 72.378
3.38 158.431 71.857
3.39 157.298 71.107
3.40 156.292 69.796
3.41 155.967 66.997
3.42 --undefined-- 61.965
3.43 156.041 54.822
3.44 155.860 49.238
3.45 --undefined-- 47.996
3.46 --undefined-- 51.466
3.47 --undefined-- 55.294
3.48 --undefined-- 56.760
3.49 --undefined-- 58.031
3.50 153.935 59.860
3.51 150.439 60.980
3.52 150.139 61.248
3.53 151.957 60.913
3.54 155.504 59.471
3.55 153.238 56.124
3.56 153.747 52.612
3.57 165.074 55.085
3.58 180.146 60.109
3.59 185.608 63.742
3.60 188.133 66.462
3.61 198.415 69.332
3.62 202.560 71.026
3.63 188.607 71.163
3.64 183.552 71.595
3.65 180.101 72.026
3.66 174.944 71.018
3.67 168.990 69.459
3.68 167.098 68.987
3.69 164.963 68.996
3.70 163.710 68.712
3.71 163.402 68.155
3.72 163.675 67.920
3.73 164.934 68.206
3.74 167.106 68.211
3.75 170.509 67.732
3.76 174.686 67.414
3.77 178.056 67.347
3.78 180.320 67.297
3.79 182.072 67.475
3.80 182.512 67.885
3.81 182.909 68.510
3.82 183.630 69.075
3.83 182.976 69.272
3.84 180.600 69.229
3.85 178.022 69.100
3.86 174.687 68.910
3.87 171.273 68.641
3.88 168.036 68.389
3.89 165.452 68.310
3.90 163.121 68.286
3.91 161.368 68.187
3.92 160.305 67.982
3.93 159.429 67.774
3.94 158.717 67.652
3.95 158.205 67.671
3.96 157.613 67.628
3.97 156.712 67.330
3.98 155.959 66.947
3.99 155.600 66.483
4.00 156.370 65.863
4.01 157.667 65.157
4.02 158.458 64.308
4.03 158.355 63.332
4.04 157.830 62.198
4.05 157.060 60.373
4.06 155.889 57.386
4.07 154.112 53.689
4.08 153.617 51.499
4.09 151.931 50.915
4.10 --undefined-- 50.593
4.11 --undefined-- 50.820
4.12 --undefined-- 51.773
4.13 --undefined-- 53.386
4.14 --undefined-- 54.328
4.15 --undefined-- 53.974
4.16 --undefined-- 52.799
4.17 --undefined-- 50.403
4.18 --undefined-- 45.686
4.19 --undefined-- 40.923
4.20 --undefined-- 39.042
4.21 --undefined-- 38.906
4.22 --undefined-- 46.959
4.23 --undefined-- 58.613
4.24 --undefined-- 65.073
4.25 --undefined-- 67.121
4.26 --undefined-- 65.914
4.27 146.839 64.139
4.28 144.812 64.058
4.29 143.457 64.563
4.30 142.469 65.334
4.31 141.098 66.072
4.32 140.545 66.413
4.33 139.933 66.188
4.34 139.146 65.176
4.35 136.978 62.837
4.36 --undefined-- 58.875
4.37 --undefined-- 54.324
4.38 --undefined-- 51.633
4.39 --undefined-- 51.588
4.40 --undefined-- 53.281
4.41 --undefined-- 56.737
4.42 --undefined-- 58.236
4.43 --undefined-- 56.817
4.44 --undefined-- 57.533
4.45 --undefined-- 61.919
4.46 --undefined-- 65.102
4.47 --undefined-- 66.097
4.48 --undefined-- 64.411
4.49 --undefined-- 60.805
4.50 143.461 61.101
4.51 141.565 62.784
4.52 135.972 62.694
4.53 135.150 61.899
4.54 133.255 61.207
4.55 132.521 61.404
4.56 --undefined-- 62.452
4.57 --undefined-- 63.018
4.58 130.988 64.842
4.59 130.058 66.880
4.60 130.062 67.783
4.61 129.775 67.892
4.62 128.947 67.609
4.63 129.173 67.226
4.64 129.121 66.916
4.65 129.497 66.786
4.66 129.156 66.732
4.67 128.520 66.584
4.68 127.521 66.145
4.69 126.390 65.609
4.70 125.644 65.235
4.71 125.973 65.144
4.72 126.935 65.235
4.73 127.681 65.051
4.74 129.360 64.193
4.75 131.945 63.063
4.76 132.799 62.495
4.77 133.921 62.696
4.78 135.040 63.289
4.79 135.293 63.835
4.80 134.294 64.133
4.81 139.079 64.127
4.82 112.529 64.153
4.83 112.772 63.623
4.84 77.848 61.109
4.85 75.817 56.655
4.86 --undefined-- 52.692
4.87 --undefined-- 49.974
4.88 --undefined-- 47.354
4.89 --undefined-- 44.660
4.90 --undefined-- 42.908
4.91 --undefined-- 42.269
4.92 --undefined-- 41.641
4.93 --undefined-- 40.702
4.94 --undefined-- 39.600
4.95 --undefined-- 39.336
4.96 --undefined-- 40.579
4.97 --undefined-- 49.166
4.98 --undefined-- 57.796
4.99 --undefined-- 62.423
5.00 --undefined-- 63.508
5.01 --undefined-- 61.864
5.02 --undefined-- 59.032
5.03 --undefined-- 58.883
5.04 191.837 63.891
5.05 184.090 68.302
5.06 179.815 70.543
5.07 177.766 70.555
5.08 176.416 68.862
5.09 174.936 66.470
5.10 179.395 66.649
5.11 188.875 70.362
5.12 195.568 73.143
5.13 197.087 73.957
5.14 197.701 73.327
5.15 199.846 72.133
5.16 199.811 70.337
5.17 199.069 66.980
5.18 198.252 61.679
5.19 199.403 59.612
5.20 198.350 61.975
5.21 197.802 66.029
5.22 218.034 70.199
5.23 197.778 72.222
5.24 186.496 72.647
5.25 179.681 72.263
5.26 169.905 70.737
5.27 160.134 67.670
5.28 156.734 63.739
5.29 161.561 60.796
5.30 164.134 58.987
5.31 171.315 57.975
5.32 175.493 58.148
5.33 178.403 59.207
5.34 180.339 60.344
5.35 183.476 61.243
5.36 186.943 62.017
5.37 189.357 62.345
5.38 192.006 62.167
5.39 194.448 61.811
5.40 197.543 61.966
5.41 198.263 63.078
5.42 195.069 64.665
5.43 --undefined-- 66.402
5.44 --undefined-- 67.478
5.45 --undefined-- 67.348
5.46 --undefined-- --undefined--
5.47 --undefined-- --undefined--
5.48 --undefined-- --undefined--
5.49 --undefined-- --undefined--
