Time Pitch Intensity
0.01 --undefined-- --undefined--
0.02 113.049 --undefined--
0.03 113.286 --undefined--
0.04 113.314 --undefined--
0.05 113.832 76.384
0.06 114.302 77.146
0.07 114.236 77.767
0.08 114.118 78.201
0.09 114.379 78.449
0.10 114.276 78.565
0.11 113.509 78.613
0.12 112.662 78.653
0.13 112.965 78.741
0.14 114.398 78.858
0.15 115.869 78.900
0.16 116.855 78.841
0.17 117.059 78.742
0.18 117.505 78.635
0.19 118.189 78.474
0.20 119.058 78.303
0.21 120.266 78.144
0.22 121.312 77.897
0.23 122.541 77.384
0.24 122.798 76.284
0.25 122.574 74.177
0.26 123.520 70.561
0.27 --undefined-- 65.372
0.28 117.515 61.031
0.29 117.606 59.277
0.30 118.772 58.683
0.31 --undefined-- 59.878
0.32 --undefined-- 61.092
0.33 --undefined-- 60.878
0.34 --undefined-- 60.113
0.35 --undefined-- 64.307
0.36 191.154 71.604
0.37 190.318 76.342
0.38 186.909 78.396
0.39 185.183 78.689
0.40 184.268 78.344
0.41 183.037 78.086
0.42 182.140 78.043
0.43 181.989 78.172
0.44 184.121 78.350
0.45 185.462 78.371
0.46 186.725 78.226
0.47 187.339 77.978
0.48 187.557 77.674
0.49 187.362 77.385
0.50 186.207 77.113
0.51 184.098 76.725
0.52 180.975 75.988
0.53 176.843 74.565
0.54 173.022 72.039
0.55 173.298 68.013
0.56 178.720 63.201
0.57 --undefined-- 63.497
0.58 --undefined-- 66.834
0.59 --undefined-- 71.426
0.60 162.141 75.555
0.61 153.221 77.678
0.62 145.662 78.122
0.63 133.860 77.993
0.64 132.019 78.171
0.65 130.789 78.426
0.66 129.745 78.423
0.67 129.037 78.014
0.68 128.678 76.932
0.69 128.683 74.689
0.70 127.615 70.755
0.71 128.039 64.908
0.72 126.436 58.838
0.73 129.958 56.517
0.74 --undefined-- 55.544
0.75 --undefined-- 54.533
0.76 --undefined-- 54.191
0.77 --undefined-- 54.865
0.78 --undefined-- 56.294
0.79 --undefined-- 58.829
0.80 --undefined-- 64.778
0.81 163.065 71.847
0.82 155.028 76.116
0.83 148.157 77.713
0.84 141.865 77.681
0.85 137.648 77.185
0.86 135.129 76.944
0.87 134.145 77.061
0.88 132.186 77.123
0.89 129.654 76.920
0.90 128.083 76.644
0.91 127.552 76.402
0.92 127.082 76.191
0.93 127.707 76.102
0.94 128.006 76.121
0.95 128.269 76.160
0.96 128.404 76.271
0.97 129.011 76.489
0.98 129.250 76.590
0.99 128.603 76.485
1.00 127.868 76.157
1.01 125.440 75.144
1.02 122.447 72.767
1.03 117.854 68.354
1.04 99.924 61.745
1.05 117.202 55.908
1.06 117.509 53.967
1.07 --undefined-- 52.771
1.08 --undefined-- 52.833
1.09 --undefined-- 54.613
1.10 --undefined-- 61.747
1.11 147.158 68.877
1.12 137.886 72.963
1.13 127.812 74.631
1.14 123.139 75.058
1.15 121.816 75.360
1.16 120.789 75.819
1.17 120.561 76.157
1.18 119.417 76.401
1.19 120.303 76.791
1.20 120.708 77.130
1.21 120.713 77.238
1.22 121.755 77.200
1.23 122.559 77.091
1.24 122.526 76.898
1.25 123.465 76.509
1.26 123.996 75.683
1.27 121.532 74.257
1.28 121.175 71.951
1.29 123.906 68.135
1.30 153.064 62.861
1.31 128.560 58.610
1.32 111.121 56.134
1.33 120.707 54.149
1.34 --undefined-- 53.529
1.35 --undefined-- 56.444
1.36 --undefined-- 65.478
1.37 --undefined-- 72.636
1.38 123.115 76.405
1.39 123.360 77.645
1.40 107.049 77.615
1.41 99.226 77.188
1.42 97.954 76.275
1.43 96.035 74.979
1.44 96.608 74.223
1.45 98.519 74.688
1.46 99.144 75.526
1.47 98.219 76.085
1.48 98.234 76.311
1.49 98.827 76.440
1.50 99.737 76.608
1.51 100.194 76.750
1.52 100.764 76.867
1.53 101.246 76.952
1.54 101.383 76.979
1.55 101.690 76.958
1.56 102.517 76.736
1.57 103.272 75.976
1.58 102.723 74.180
1.59 99.425 70.671
1.60 96.314 65.007
1.61 101.489 57.855
1.62 102.129 53.148
1.63 --undefined-- 51.220
1.64 --undefined-- 49.723
1.65 --undefined-- 48.614
1.66 --undefined-- 48.520
1.67 --undefined-- 49.380
1.68 --undefined-- 55.310
1.69 --undefined-- 63.347
1.70 --undefined-- 68.432
1.71 104.996 71.344
1.72 108.192 73.074
1.73 108.507 74.044
1.74 109.198 74.531
1.75 110.991 74.827
1.76 113.096 75.168
1.77 117.919 75.722
1.78 121.391 76.592
1.79 125.386 77.640
1.80 128.951 78.402
1.81 128.586 78.765
1.82 129.384 78.942
1.83 128.909 78.785
1.84 125.696 78.665
1.85 123.035 78.884
1.86 121.410 78.862
1.87 120.175 78.429
1.88 119.191 77.955
1.89 118.770 77.807
1.90 117.802 77.755
1.91 116.380 77.449
1.92 113.992 76.913
1.93 111.298 76.302
1.94 109.137 75.500
1.95 107.841 74.155
1.96 111.567 72.527
1.97 116.654 70.940
1.98 119.452 68.881
1.99 120.729 65.828
2.00 125.816 61.769
2.01 140.738 58.779
2.02 --undefined-- 61.272
2.03 --undefined-- 65.777
2.04 111.050 69.934
2.05 111.261 73.000
2.06 113.296 74.756
2.07 112.972 75.674
2.08 111.887 76.356
2.09 111.675 76.839
2.10 111.819 77.026
2.11 111.949 76.960
2.12 112.333 76.747
2.13 112.949 76.350
2.14 111.526 75.230
2.15 105.705 72.753
2.16 105.284 68.736
2.17 112.828 63.424
2.18 112.001 57.425
2.19 --undefined-- 52.332
2.20 --undefined-- 51.422
2.21 --undefined-- 60.144
2.22 --undefined-- 68.455
2.23 127.301 73.229
2.24 126.532 75.382
2.25 125.840 76.183
2.26 126.876 76.610
2.27 129.619 76.754
2.28 133.982 76.584
2.29 139.291 76.542
2.30 143.212 76.697
2.31 147.389 76.684
2.32 149.293 76.376
2.33 148.579 75.569
2.34 145.185 74.274
2.35 147.744 74.008
2.36 154.480 75.665
2.37 157.311 77.348
2.38 154.819 77.893
2.39 153.922 77.865
2.40 154.412 77.939
2.41 155.123 77.896
2.42 155.564 77.533
2.43 154.744 76.762
2.44 150.998 75.341
2.45 148.505 73.202
2.46 146.854 70.680
2.47 138.873 69.371
2.48 147.490 71.018
2.49 149.282 73.480
2.50 143.346 75.120
2.51 135.453 75.914
2.52 126.127 76.409
2.53 119.140 76.806
2.54 112.735 76.705
2.55 108.601 75.670
2.56 105.513 73.245
2.57 105.367 69.443
2.58 111.873 64.800
2.59 113.602 59.078
2.60 114.631 54.385
2.61 118.751 56.233
2.62 --undefined-- 60.607
2.63 --undefined-- 64.311
2.64 --undefined-- 70.218
2.65 162.721 75.693
2.66 158.416 78.352
2.67 154.152 78.722
2.68 149.030 78.017
2.69 148.797 77.636
2.70 149.546 77.540
2.71 150.354 76.832
2.72 150.833 75.190
2.73 149.874 73.777
2.74 156.084 74.183
2.75 157.693 74.917
2.76 156.578 75.303
2.77 154.402 75.394
2.78 150.589 74.952
2.79 146.942 73.749
2.80 144.044 71.332
2.81 138.484 67.035
2.82 134.801 61.025
2.83 --undefined-- 56.990
2.84 --undefined-- 56.927
2.85 --undefined-- 60.734
2.86 --undefined-- 67.972
2.87 135.406 72.957
2.88 115.925 75.346
2.89 105.018 76.147
2.90 99.794 76.218
2.91 98.932 76.031
2.92 101.910 75.687
2.93 109.503 75.171
2.94 116.166 74.713
2.95 122.659 74.474
2.96 130.326 74.284
2.97 138.860 74.240
2.98 143.310 74.542
2.99 146.746 74.732
3.00 150.008 74.234
3.01 152.796 72.932
3.02 154.760 71.022
3.03 160.942 68.587
3.04 163.546 65.223
3.05 155.747 60.542
3.06 --undefined-- 59.623
3.07 --undefined-- 66.244
3.08 159.095 72.086
3.09 154.478 75.634
3.10 148.701 77.513
3.11 143.613 78.363
3.12 138.407 78.457
3.13 133.116 78.020
3.14 127.520 77.505
3.15 121.900 77.118
3.16 117.587 76.696
3.17 115.556 76.207
3.18 114.956 75.789
3.19 114.417 75.135
3.20 111.377 73.316
3.21 106.617 69.651
3.22 112.801 64.427
3.23 114.857 59.208
3.24 119.090 56.017
3.25 122.576 54.114
3.26 119.912 52.584
3.27 --undefined-- 52.731
3.28 --undefined-- 55.058
3.29 --undefined-- 57.445
3.30 --undefined-- 59.006
3.31 --undefined-- 59.571
3.32 --undefined-- 58.792
3.33 --undefined-- 57.398
3.34 --undefined-- 56.377
3.35 --undefined-- 55.548
3.36 --undefined-- 54.952
3.37 --undefined-- 55.327
3.38 --undefined-- 60.390
3.39 --undefined-- 65.248
3.40 108.609 67.846
3.41 111.744 69.433
3.42 113.758 70.726
3.43 116.191 71.724
3.44 118.872 72.434
3.45 121.903 72.828
3.46 125.179 72.891
3.47 129.045 72.447
3.48 133.895 71.571
3.49 138.667 71.216
3.50 141.113 71.837
3.51 142.806 72.701
3.52 143.513 73.712
3.53 142.441 75.058
3.54 139.724 76.348
3.55 133.963 77.097
3.56 127.907 77.342
3.57 124.934 77.373
3.58 122.623 77.137
3.59 121.269 76.461
3.60 118.643 74.868
3.61 112.287 71.745
3.62 98.712 67.355
3.63 111.882 62.640
3.64 115.812 57.566
3.65 --undefined-- 53.617
3.66 --undefined-- 51.824
3.67 --undefined-- 50.526
3.68 --undefined-- 53.022
3.69 --undefined-- 64.121
3.70 --undefined-- 72.122
3.71 139.966 76.149
3.72 140.480 76.837
3.73 112.430 75.117
3.74 112.545 72.276
3.75 104.582 69.168
3.76 108.641 67.266
3.77 107.413 66.866
3.78 108.130 67.249
3.79 110.669 69.471
3.80 112.933 72.320
3.81 112.546 74.252
3.82 111.732 75.426
3.83 111.341 76.368
3.84 110.832 77.083
3.85 110.702 77.546
3.86 109.426 77.847
3.87 110.599 77.900
3.88 111.556 77.424
3.89 115.203 76.536
3.90 112.110 75.683
3.91 108.633 75.472
3.92 105.100 76.171
3.93 104.835 77.241
3.94 99.344 78.302
3.95 98.916 79.043
3.96 98.410 78.938
3.97 97.365 77.518
3.98 96.980 74.268
3.99 83.658 68.909
4.00 --undefined-- 62.363
4.01 --undefined-- 56.895
4.02 --undefined-- 53.622
4.03 --undefined-- 52.779
4.04 --undefined-- 53.556
4.05 --undefined-- 54.366
4.06 --undefined-- 55.221
4.07 --undefined-- 55.036
4.08 --undefined-- 53.400
4.09 --undefined-- 51.744
4.10 --undefined-- 51.450
4.11 --undefined-- 51.964
4.12 --undefined-- 52.158
4.13 --undefined-- 52.175
4.14 --undefined-- 52.974
4.15 --undefined-- 54.378
4.16 --undefined-- 58.901
4.17 --undefined-- 66.483
4.18 --undefined-- 72.061
4.19 --undefined-- 74.947
4.20 97.811 76.092
4.21 93.337 76.285
4.22 85.417 75.947
4.23 88.305 75.810
4.24 91.259 76.375
4.25 94.919 77.334
4.26 97.608 78.118
4.27 99.294 78.319
4.28 101.794 77.917
4.29 104.821 77.459
4.30 113.240 77.449
4.31 114.093 77.172
4.32 116.253 75.573
4.33 111.639 72.098
4.34 110.860 67.020
4.35 113.665 61.286
4.36 115.245 56.950
4.37 118.504 56.524
4.38 --undefined-- 62.522
4.39 --undefined-- 67.123
4.40 --undefined-- 67.856
4.41 --undefined-- 64.954
4.42 --undefined-- 61.485
4.43 --undefined-- 67.534
4.44 159.030 73.487
4.45 157.974 76.687
4.46 150.445 77.928
4.47 144.405 78.085
4.48 140.321 77.826
4.49 138.425 77.623
4.50 138.517 77.690
4.51 139.195 77.789
4.52 139.331 77.485
4.53 139.338 76.759
4.54 138.675 75.817
4.55 136.563 74.601
4.56 131.383 72.703
4.57 127.550 69.777
4.58 129.530 65.794
4.59 149.956 61.738
4.60 141.408 59.880
4.61 --undefined-- 65.786
4.62 131.777 71.144
4.63 119.501 74.101
4.64 118.231 75.810
4.65 114.883 76.712
4.66 112.540 76.894
4.67 109.030 76.628
4.68 106.852 75.928
4.69 103.955 74.191
4.70 95.287 70.831
4.71 --undefined-- 65.615
4.72 --undefined-- 58.318
4.73 --undefined-- 52.125
4.74 --undefined-- 52.691
4.75 --undefined-- 54.673
4.76 --undefined-- 56.646
4.77 --undefined-- 57.924
4.78 --undefined-- 57.949
4.79 --undefined-- 58.439
4.80 --undefined-- 62.284
4.81 --undefined-- 69.399
4.82 158.089 74.761
4.83 157.659 77.412
4.84 154.952 77.965
4.85 151.929 77.586
4.86 154.675 77.622
4.87 156.982 77.968
4.88 155.026 77.872
4.89 151.812 77.416
4.90 149.020 76.861
4.91 145.291 76.148
4.92 141.687 75.359
4.93 141.244 74.958
4.94 141.828 --undefined--
4.95 142.036 --undefined--
4.96 --undefined-- --undefined--
4.97 --undefined-- --undefined--
