Time Pitch Intensity
0.01 --undefined-- --undefined--
0.02 --undefined-- --undefined--
0.03 --undefined-- --undefined--
0.04 --undefined-- --undefined--
0.05 --undefined-- 66.394
0.06 --undefined-- 67.055
0.07 99.231 65.709
0.08 98.134 63.439
0.09 96.955 60.864
0.10 --undefined-- 58.378
0.11 94.541 57.388
0.12 94.406 57.330
0.13 98.109 57.674
0.14 99.443 58.557
0.15 103.020 59.537
0.16 104.735 60.023
0.17 111.682 60.869
0.18 118.525 63.176
0.19 120.800 65.741
0.20 123.508 67.225
0.21 126.145 67.670
0.22 130.475 67.873
0.23 133.088 68.007
0.24 133.526 66.830
0.25 --undefined-- 63.111
0.26 --undefined-- 56.214
0.27 --undefined-- 47.927
0.28 --undefined-- 44.488
0.29 --undefined-- 42.788
0.30 --undefined-- 41.965
0.31 --undefined-- 45.176
0.32 --undefined-- 50.840
0.33 138.531 56.077
0.34 138.706 59.678
0.35 138.270 61.268
0.36 138.627 61.253
0.37 138.733 60.551
0.38 137.753 59.696
0.39 136.425 58.879
0.40 135.851 58.140
0.41 135.215 57.626
0.42 135.152 57.686
0.43 135.528 58.083
0.44 135.621 58.072
0.45 135.142 57.219
0.46 135.040 55.630
0.47 134.982 53.456
0.48 134.587 50.799
0.49 135.788 47.532
0.50 --undefined-- 43.703
0.51 --undefined-- 40.514
0.52 --undefined-- 38.995
0.53 --undefined-- 38.153
0.54 --undefined-- 37.540
0.55 --undefined-- 37.427
0.56 --undefined-- 38.551
0.57 --undefined-- 42.676
0.58 --undefined-- 47.100
0.59 --undefined-- 53.099
0.60 --undefined-- 59.319
0.61 --undefined-- 62.734
0.62 --undefined-- 64.259
0.63 --undefined-- 67.585
0.64 149.924 70.742
0.65 150.600 71.572
0.66 143.144 70.509
0.67 139.542 68.734
0.68 138.196 66.914
0.69 135.938 64.526
0.70 137.266 61.984
0.71 138.485 60.117
0.72 138.664 59.466
0.73 137.986 59.923
0.74 136.996 60.707
0.75 136.592 61.421
0.76 136.640 62.032
0.77 136.436 62.489
0.78 136.488 62.775
0.79 136.309 63.004
0.80 136.202 63.183
0.81 136.223 63.324
0.82 136.127 63.543
0.83 136.549 63.830
0.84 136.109 64.062
0.85 136.051 64.276
0.86 136.528 64.595
0.87 137.264 64.946
0.88 137.171 65.130
0.89 136.525 65.084
0.90 135.607 64.874
0.91 135.329 64.574
0.92 134.913 64.298
0.93 134.415 64.087
0.94 134.361 63.911
0.95 134.873 63.901
0.96 135.560 64.101
0.97 135.996 64.395
0.98 135.874 64.591
0.99 135.813 64.623
1.00 135.507 64.615
1.01 135.518 64.597
1.02 135.529 64.564
1.03 135.633 64.546
1.04 135.748 64.518
1.05 135.249 64.435
1.06 134.778 64.333
1.07 134.805 64.277
1.08 134.704 64.228
1.09 134.774 64.145
1.10 134.751 63.989
1.11 134.312 63.775
1.12 133.817 63.525
1.13 133.872 63.393
1.14 134.356 63.438
1.15 134.749 63.583
1.16 134.842 63.727
1.17 135.175 63.841
1.18 134.921 63.836
1.19 134.538 63.718
1.20 134.349 63.545
1.21 133.726 63.308
1.22 133.636 63.110
1.23 133.925 63.078
1.24 134.400 63.142
1.25 134.875 63.133
1.26 134.568 63.001
1.27 134.408 62.828
1.28 134.470 62.738
1.29 134.509 62.816
1.30 134.781 62.945
1.31 134.707 63.024
1.32 134.076 62.826
1.33 133.365 62.111
1.34 131.993 60.852
1.35 128.217 59.362
1.36 124.805 57.939
1.37 121.844 56.933
1.38 --undefined-- 56.924
1.39 --undefined-- 56.981
1.40 --undefined-- 57.014
1.41 --undefined-- 57.839
1.42 --undefined-- 59.230
1.43 --undefined-- 59.478
1.44 --undefined-- 58.072
1.45 --undefined-- 56.333
1.46 --undefined-- 55.906
1.47 --undefined-- 55.985
1.48 --undefined-- 56.520
1.49 --undefined-- 58.317
1.50 --undefined-- 63.772
1.51 --undefined-- 68.105
1.52 --undefined-- 69.167
1.53 137.454 67.171
1.54 137.752 62.446
1.55 --undefined-- 55.115
1.56 --undefined-- 46.386
1.57 --undefined-- 40.658
1.58 --undefined-- 38.389
1.59 --undefined-- 38.039
1.60 --undefined-- 37.764
1.61 --undefined-- 37.155
1.62 --undefined-- 36.772
1.63 --undefined-- 37.016
1.64 --undefined-- 38.612
1.65 --undefined-- 44.720
1.66 --undefined-- 52.128
1.67 --undefined-- 57.862
1.68 --undefined-- 61.740
1.69 --undefined-- 63.788
1.70 --undefined-- 64.019
1.71 --undefined-- 62.596
1.72 --undefined-- 61.050
1.73 --undefined-- 61.844
1.74 --undefined-- 65.582
1.75 --undefined-- 68.563
1.76 122.515 69.685
1.77 119.805 69.857
1.78 120.601 69.802
1.79 121.030 69.723
1.80 121.359 69.545
1.81 123.376 69.311
1.82 125.178 68.913
1.83 127.500 67.912
1.84 129.516 66.015
1.85 129.520 62.919
1.86 127.766 58.516
1.87 131.809 55.052
1.88 129.096 54.200
1.89 127.002 53.851
1.90 126.197 53.759
1.91 126.164 53.845
1.92 127.406 53.840
1.93 124.704 53.349
1.94 122.168 52.017
1.95 120.552 49.665
1.96 --undefined-- 48.886
1.97 --undefined-- 52.683
1.98 --undefined-- 54.503
1.99 --undefined-- 54.177
2.00 --undefined-- 54.936
2.01 --undefined-- 57.101
2.02 --undefined-- 60.737
2.03 129.690 64.912
2.04 128.741 67.754
2.05 123.550 69.236
2.06 123.277 69.884
2.07 121.980 69.891
2.08 119.590 69.135
2.09 118.292 67.937
2.10 117.969 66.640
2.11 118.011 64.699
2.12 119.581 61.542
2.13 124.242 57.921
2.14 127.136 56.327
2.15 124.777 56.460
2.16 123.399 56.510
2.17 121.307 56.210
2.18 117.068 55.491
2.19 113.611 54.787
2.20 109.148 56.937
2.21 112.795 62.309
2.22 109.083 66.449
2.23 108.520 68.227
2.24 107.377 68.081
2.25 104.737 66.288
2.26 102.713 63.018
2.27 102.811 60.394
2.28 106.007 60.130
2.29 103.281 60.258
2.30 102.081 61.441
2.31 103.211 64.889
2.32 --undefined-- 68.005
2.33 97.208 69.259
2.34 95.147 69.090
2.35 94.886 68.487
2.36 94.739 67.860
2.37 95.271 67.233
2.38 98.502 66.804
2.39 100.646 66.753
2.40 102.903 66.812
2.41 103.742 66.700
2.42 104.497 66.005
2.43 103.821 64.278
2.44 102.561 61.188
2.45 102.525 56.395
2.46 --undefined-- 50.041
2.47 --undefined-- 44.505
2.48 --undefined-- 42.159
2.49 --undefined-- 44.817
2.50 --undefined-- 50.834
2.51 --undefined-- 54.722
2.52 --undefined-- 60.836
2.53 --undefined-- 66.659
2.54 --undefined-- 69.802
2.55 100.744 70.892
2.56 100.240 70.805
2.57 97.698 70.106
2.58 97.425 69.063
2.59 95.699 67.978
2.60 97.339 67.498
2.61 99.346 67.554
2.62 102.390 67.536
2.63 104.613 67.057
2.64 106.907 65.996
2.65 107.798 64.324
2.66 108.171 61.575
2.67 110.271 57.565
2.68 112.431 54.035
2.69 114.926 53.433
2.70 115.494 53.778
2.71 116.433 53.955
2.72 117.454 53.948
2.73 116.929 53.441
2.74 115.350 52.031
2.75 115.597 49.348
2.76 --undefined-- 45.068
2.77 --undefined-- 40.657
2.78 --undefined-- 47.131
2.79 --undefined-- 55.941
2.80 --undefined-- 60.087
2.81 --undefined-- 60.057
2.82 --undefined-- 57.800
2.83 --undefined-- 58.657
2.84 --undefined-- 60.419
2.85 --undefined-- 62.425
2.86 128.122 64.967
2.87 127.089 66.048
2.88 127.575 65.319
2.89 124.258 62.725
2.90 124.106 59.098
2.91 121.409 57.512
2.92 118.979 57.313
2.93 118.210 57.242
2.94 116.974 57.333
2.95 116.367 57.545
2.96 116.317 57.655
2.97 115.727 57.597
2.98 115.336 57.378
2.99 115.114 57.118
3.00 114.679 57.025
3.01 114.903 57.063
3.02 115.353 57.195
3.03 115.560 57.360
3.04 117.197 57.532
3.05 116.883 57.706
3.06 116.659 57.821
3.07 116.228 57.973
3.08 115.715 58.178
3.09 114.597 58.325
3.10 113.903 58.371
3.11 112.137 58.401
3.12 110.813 58.380
3.13 110.853 58.351
3.14 111.012 58.500
3.15 110.523 58.830
3.16 110.188 59.101
3.17 108.857 58.874
3.18 105.325 58.352
3.19 102.069 57.991
3.20 101.328 57.347
3.21 100.820 56.763
3.22 --undefined-- 58.145
3.23 --undefined-- 60.314
3.24 --undefined-- 61.977
3.25 105.438 63.007
3.26 110.578 63.608
3.27 114.034 64.665
3.28 119.759 66.907
3.29 120.851 68.978
3.30 120.760 69.994
3.31 118.878 69.958
3.32 118.732 69.570
3.33 116.622 69.393
3.34 114.901 69.104
3.35 112.708 68.436
3.36 112.512 67.359
3.37 113.893 66.361
3.38 115.103 66.257
3.39 114.309 66.130
3.40 113.887 64.873
3.41 113.488 62.551
3.42 113.321 59.303
3.43 104.584 54.566
3.44 --undefined-- 48.772
3.45 --undefined-- 44.782
3.46 --undefined-- 41.846
3.47 --undefined-- 40.517
3.48 --undefined-- 49.870
3.49 --undefined-- 57.315
3.50 --undefined-- 60.063
3.51 --undefined-- 59.061
3.52 --undefined-- 59.799
3.53 --undefined-- 64.213
3.54 --undefined-- 66.692
3.55 --undefined-- 67.054
3.56 75.732 65.916
3.57 78.288 64.880
3.58 77.856 64.970
3.59 --undefined-- 65.180
3.60 --undefined-- 64.921
3.61 89.997 64.372
3.62 87.050 63.666
3.63 90.929 62.890
3.64 94.684 62.274
3.65 96.052 61.435
3.66 101.507 60.459
3.67 101.930 60.092
3.68 101.301 60.187
3.69 100.530 59.979
3.70 100.556 60.082
3.71 102.236 61.305
3.72 99.377 61.869
3.73 --undefined-- 60.827
3.74 --undefined-- 57.918
3.75 --undefined-- 54.230
3.76 --undefined-- 52.475
3.77 --undefined-- 50.949
3.78 --undefined-- 48.221
3.79 --undefined-- 44.152
3.80 --undefined-- 40.222
3.81 --undefined-- 38.959
3.82 --undefined-- 38.745
3.83 --undefined-- 39.347
3.84 --undefined-- 41.089
3.85 --undefined-- 42.801
3.86 --undefined-- 44.314
3.87 --undefined-- 45.730
3.88 --undefined-- 46.218
3.89 --undefined-- 45.820
3.90 --undefined-- 45.537
3.91 --undefined-- 46.045
3.92 --undefined-- 46.872
3.93 --undefined-- 47.058
3.94 --undefined-- 46.880
3.95 --undefined-- 46.815
3.96 --undefined-- 47.056
3.97 --undefined-- 47.581
3.98 --undefined-- 47.952
3.99 --undefined-- 47.963
4.00 --undefined-- 47.685
4.01 --undefined-- 47.588
4.02 --undefined-- 47.863
4.03 --undefined-- 47.695
4.04 --undefined-- 46.968
4.05 --undefined-- 46.283
4.06 --undefined-- 45.568
4.07 --undefined-- 44.857
4.08 --undefined-- 44.247
4.09 --undefined-- 44.599
4.10 --undefined-- 45.369
4.11 --undefined-- 44.964
4.12 --undefined-- 43.649
4.13 --undefined-- 42.557
4.14 --undefined-- 41.241
4.15 --undefined-- 39.838
4.16 --undefined-- 39.437
4.17 --undefined-- 39.327
4.18 --undefined-- 39.176
4.19 --undefined-- 39.131
4.20 --undefined-- 39.082
4.21 --undefined-- 40.368
4.22 --undefined-- 45.775
4.23 132.196 51.054
4.24 130.900 54.036
4.25 127.244 55.573
4.26 131.101 57.275
4.27 135.673 59.257
4.28 130.610 60.428
4.29 131.183 60.079
4.30 130.263 58.140
4.31 128.035 54.914
4.32 127.370 51.029
4.33 --undefined-- 52.198
4.34 --undefined-- 59.468
4.35 --undefined-- 64.363
4.36 --undefined-- 65.821
4.37 --undefined-- 64.140
4.38 --undefined-- 64.255
4.39 --undefined-- 67.333
4.40 130.145 68.557
4.41 129.667 68.295
4.42 129.781 67.242
4.43 129.095 64.828
4.44 119.983 60.234
4.45 123.019 53.856
4.46 122.012 51.920
4.47 119.185 57.981
4.48 119.095 63.213
4.49 112.801 66.129
4.50 112.243 67.172
4.51 102.669 67.271
4.52 98.785 67.211
4.53 99.008 66.706
4.54 100.301 65.458
4.55 100.900 63.546
4.56 101.077 60.381
4.57 100.818 55.526
4.58 99.980 50.457
4.59 102.026 48.253
4.60 --undefined-- 49.604
4.61 --undefined-- 56.477
4.62 --undefined-- 63.667
4.63 --undefined-- 68.107
4.64 128.632 69.993
4.65 128.879 70.164
4.66 128.592 69.857
4.67 129.743 69.873
4.68 131.093 70.126
4.69 132.352 70.198
4.70 132.858 69.915
4.71 132.703 69.246
4.72 131.865 68.194
4.73 130.420 66.668
4.74 128.219 64.477
4.75 124.657 61.363
4.76 124.197 57.179
4.77 127.502 52.522
4.78 128.437 48.604
4.79 --undefined-- 45.231
4.80 --undefined-- 41.859
4.81 --undefined-- 38.803
4.82 --undefined-- 37.440
4.83 --undefined-- 40.627
4.84 --undefined-- 51.790
4.85 --undefined-- 59.307
4.86 --undefined-- 62.375
4.87 --undefined-- 62.795
4.88 93.860 62.508
4.89 93.192 63.660
4.90 120.904 66.750
4.91 102.044 68.912
4.92 108.325 69.655
4.93 106.929 69.669
4.94 104.115 69.072
4.95 100.490 67.390
4.96 98.852 63.847
4.97 97.805 57.559
4.98 --undefined-- 48.828
4.99 --undefined-- 41.386
5.00 --undefined-- 38.062
5.01 --undefined-- 37.626
5.02 --undefined-- 41.423
5.03 --undefined-- 46.476
5.04 --undefined-- 47.963
5.05 --undefined-- 45.377
5.06 --undefined-- 39.449
5.07 --undefined-- 35.795
5.08 --undefined-- 35.472
5.09 --undefined-- 36.757
5.10 --undefined-- 47.821
5.11 --undefined-- 59.229
5.12 --undefined-- 66.460
5.13 --undefined-- 70.044
5.14 --undefined-- 71.008
5.15 --undefined-- 70.442
5.16 117.675 69.131
5.17 117.579 67.130
5.18 --undefined-- 64.112
5.19 --undefined-- 60.246
5.20 --undefined-- 56.633
5.21 --undefined-- 53.004
5.22 --undefined-- 48.672
5.23 --undefined-- 49.071
5.24 --undefined-- 51.023
5.25 --undefined-- 54.375
5.26 --undefined-- 59.828
5.27 124.726 64.555
5.28 124.924 67.437
5.29 125.687 68.777
5.30 126.337 69.147
5.31 125.357 69.050
5.32 124.054 68.558
5.33 122.609 67.235
5.34 121.200 64.507
5.35 118.472 59.659
5.36 --undefined-- 52.682
5.37 --undefined-- 45.463
5.38 --undefined-- 41.047
5.39 --undefined-- 37.924
5.40 --undefined-- 36.695
5.41 --undefined-- 43.772
5.42 --undefined-- 53.590
5.43 --undefined-- 58.916
5.44 --undefined-- 60.285
5.45 --undefined-- 62.595
5.46 133.683 67.443
5.47 134.567 70.299
5.48 129.700 71.322
5.49 121.128 --undefined--
5.50 119.949 --undefined--
5.51 --undefined-- --undefined--
5.52 --undefined-- --undefined--
