Time Pitch Intensity
0.01 --undefined-- --undefined--
0.02 --undefined-- --undefined--
0.03 --undefined-- --undefined--
0.04 --undefined-- --undefined--
0.05 --undefined-- 60.751
0.06 --undefined-- 60.510
0.07 99.974 59.391
0.08 100.659 59.589
0.09 100.967 59.423
0.10 101.689 58.706
0.11 102.474 58.554
0.12 101.482 59.421
0.13 100.540 61.376
0.14 99.546 62.948
0.15 99.246 64.292
0.16 98.758 66.004
0.17 96.239 67.043
0.18 94.625 67.018
0.19 91.589 65.994
0.20 --undefined-- 62.987
0.21 --undefined-- 57.194
0.22 --undefined-- 52.129
0.23 --undefined-- 56.806
0.24 --undefined-- 63.066
0.25 86.487 66.688
0.26 84.788 68.301
0.27 85.029 68.539
0.28 82.896 67.978
0.29 80.816 67.009
0.30 80.089 66.261
0.31 78.435 66.072
0.32 78.651 65.700
0.33 78.804 64.782
0.34 78.640 63.794
0.35 77.193 63.178
0.36 77.368 63.016
0.37 77.398 63.625
0.38 77.155 63.984
0.39 76.243 64.151
0.40 76.180 64.069
0.41 75.930 62.627
0.42 --undefined-- 60.060
0.43 --undefined-- 57.549
0.44 --undefined-- 56.533
0.45 --undefined-- 57.494
0.46 --undefined-- 58.904
0.47 --undefined-- 60.029
0.48 --undefined-- 61.172
0.49 --undefined-- 62.889
0.50 98.695 64.996
0.51 98.582 65.996
0.52 101.113 66.671
0.53 104.812 67.991
0.54 109.127 69.368
0.55 111.606 70.834
0.56 111.231 71.909
0.57 110.440 72.300
0.58 109.789 72.198
0.59 109.041 71.992
0.60 109.275 71.831
0.61 109.523 71.653
0.62 109.672 71.256
0.63 109.232 70.129
0.64 108.616 68.715
0.65 108.755 67.400
0.66 108.637 65.193
0.67 105.752 61.623
0.68 104.845 58.506
0.69 103.421 57.263
0.70 100.606 56.580
0.71 100.743 56.585
0.72 98.097 57.046
0.73 96.958 56.971
0.74 92.985 55.580
0.75 90.146 52.828
0.76 --undefined-- 51.240
0.77 --undefined-- 55.466
0.78 --undefined-- 60.004
0.79 82.057 63.937
0.80 82.652 66.774
0.81 83.337 67.019
0.82 81.774 65.477
0.83 80.807 64.298
0.84 80.683 63.676
0.85 80.234 63.430
0.86 79.083 62.518
0.87 77.616 60.684
0.88 77.329 58.691
0.89 77.348 56.661
0.90 76.712 54.820
0.91 77.495 53.739
0.92 76.943 52.661
0.93 --undefined-- 50.611
0.94 --undefined-- 48.464
0.95 --undefined-- 47.497
0.96 --undefined-- 47.526
0.97 --undefined-- 47.743
0.98 --undefined-- 48.116
0.99 --undefined-- 48.243
1.00 --undefined-- 47.792
1.01 --undefined-- 47.247
1.02 --undefined-- 46.447
1.03 --undefined-- 43.974
1.04 --undefined-- 39.252
1.05 --undefined-- 34.002
1.06 --undefined-- 31.840
1.07 --undefined-- 32.084
1.08 --undefined-- 34.210
1.09 --undefined-- 36.715
1.10 --undefined-- 40.352
1.11 --undefined-- 50.859
1.12 --undefined-- 60.989
1.13 109.953 67.210
1.14 109.712 70.322
1.15 102.446 70.917
1.16 98.603 69.357
1.17 90.814 66.955
1.18 91.743 66.870
1.19 93.424 68.430
1.20 91.559 69.737
1.21 89.392 70.544
1.22 87.449 70.357
1.23 87.806 68.785
1.24 88.248 66.608
1.25 87.794 64.715
1.26 --undefined-- 61.709
1.27 --undefined-- 56.273
1.28 --undefined-- 48.535
1.29 --undefined-- 41.198
1.30 --undefined-- 40.039
1.31 --undefined-- 45.428
1.32 --undefined-- 52.984
1.33 --undefined-- 57.010
1.34 --undefined-- 59.029
1.35 --undefined-- 61.056
1.36 --undefined-- 64.118
1.37 --undefined-- 67.774
1.38 --undefined-- 70.065
1.39 --undefined-- 70.234
1.40 --undefined-- 67.909
1.41 --undefined-- 62.356
1.42 --undefined-- 52.555
1.43 --undefined-- 43.129
1.44 --undefined-- 45.978
1.45 --undefined-- 53.879
1.46 --undefined-- 62.889
1.47 --undefined-- 68.187
1.48 --undefined-- 69.672
1.49 --undefined-- 68.519
1.50 --undefined-- 68.584
1.51 94.964 69.394
1.52 92.422 69.095
1.53 92.719 68.259
1.54 94.224 67.168
1.55 95.259 66.123
1.56 96.406 65.488
1.57 99.167 64.970
1.58 99.118 63.562
1.59 99.092 60.064
1.60 --undefined-- 53.823
1.61 --undefined-- 45.962
1.62 --undefined-- 43.075
1.63 --undefined-- 49.307
1.64 --undefined-- 55.496
1.65 --undefined-- 58.889
1.66 --undefined-- 60.095
1.67 --undefined-- 60.164
1.68 101.781 59.260
1.69 100.892 57.650
1.70 100.722 56.895
1.71 101.093 57.682
1.72 107.785 60.896
1.73 111.354 64.860
1.74 111.889 67.449
1.75 112.913 69.160
1.76 111.314 70.331
1.77 111.102 70.733
1.78 110.472 70.674
1.79 109.720 70.510
1.80 109.245 70.139
1.81 108.901 69.156
1.82 107.365 67.511
1.83 105.398 65.512
1.84 104.092 63.426
1.85 102.151 61.801
1.86 102.121 61.676
1.87 101.445 62.971
1.88 --undefined-- 65.415
1.89 --undefined-- 67.949
1.90 --undefined-- 69.607
1.91 --undefined-- 70.224
1.92 --undefined-- 69.565
1.93 --undefined-- 67.664
1.94 --undefined-- 64.729
1.95 --undefined-- 60.359
1.96 --undefined-- 54.672
1.97 --undefined-- 49.262
1.98 --undefined-- 47.750
1.99 --undefined-- 47.653
2.00 --undefined-- 46.621
2.01 --undefined-- 46.489
2.02 --undefined-- 48.034
2.03 --undefined-- 51.451
2.04 --undefined-- 54.239
2.05 --undefined-- 53.947
2.06 --undefined-- 55.167
2.07 --undefined-- 60.824
2.08 85.308 64.842
2.09 85.087 67.510
2.10 83.513 69.627
2.11 83.590 70.796
2.12 81.887 70.339
2.13 82.940 68.460
2.14 --undefined-- 65.654
2.15 --undefined-- 61.548
2.16 --undefined-- 58.002
2.17 --undefined-- 59.527
2.18 --undefined-- 61.470
2.19 --undefined-- 61.685
2.20 --undefined-- 60.707
2.21 --undefined-- 59.608
2.22 --undefined-- 58.259
2.23 --undefined-- 57.319
2.24 --undefined-- 57.951
2.25 --undefined-- 59.412
2.26 --undefined-- 61.598
2.27 --undefined-- 63.522
2.28 --undefined-- 63.731
2.29 --undefined-- 61.701
2.30 --undefined-- 58.055
2.31 --undefined-- 57.171
2.32 --undefined-- 61.955
2.33 --undefined-- 65.450
2.34 --undefined-- 67.196
2.35 --undefined-- 67.725
2.36 --undefined-- 67.029
2.37 --undefined-- 64.870
2.38 --undefined-- 61.956
2.39 --undefined-- 61.010
2.40 --undefined-- 61.487
2.41 --undefined-- 61.580
2.42 --undefined-- 61.695
2.43 --undefined-- 61.985
2.44 --undefined-- 62.383
2.45 --undefined-- 63.275
2.46 --undefined-- 64.372
2.47 --undefined-- 65.375
2.48 80.966 65.951
2.49 79.179 66.058
2.50 78.530 66.141
2.51 76.870 66.069
2.52 76.806 64.823
2.53 76.330 62.933
2.54 76.248 61.407
2.55 76.063 59.093
2.56 --undefined-- 55.233
2.57 --undefined-- 49.734
2.58 --undefined-- 42.981
2.59 --undefined-- 37.766
2.60 --undefined-- 40.674
2.61 --undefined-- 52.659
2.62 --undefined-- 60.753
2.63 --undefined-- 64.769
2.64 --undefined-- 65.219
2.65 --undefined-- 62.285
2.66 --undefined-- 57.458
2.67 --undefined-- 56.363
2.68 --undefined-- 57.241
2.69 --undefined-- 58.492
2.70 --undefined-- 60.738
2.71 94.062 62.773
2.72 92.653 64.820
2.73 92.844 66.482
2.74 90.235 67.434
2.75 88.011 67.892
2.76 87.542 68.118
2.77 87.039 68.045
2.78 86.697 67.554
2.79 86.596 66.728
2.80 87.006 65.669
2.81 87.832 64.390
2.82 89.163 62.750
2.83 89.187 60.961
2.84 89.095 59.648
2.85 89.410 58.388
2.86 87.467 56.034
2.87 84.669 52.803
2.88 --undefined-- 49.680
2.89 --undefined-- 48.020
2.90 --undefined-- 48.590
2.91 --undefined-- 50.181
2.92 --undefined-- 51.937
2.93 --undefined-- 53.260
2.94 --undefined-- 53.809
2.95 --undefined-- 54.516
2.96 --undefined-- 56.312
2.97 85.706 58.103
2.98 85.556 59.981
2.99 86.876 61.693
3.00 87.272 62.575
3.01 87.524 62.920
3.02 87.724 63.678
3.03 88.515 65.052
3.04 88.961 66.447
3.05 90.072 67.439
3.06 92.124 67.977
3.07 94.480 68.507
3.08 --undefined-- 68.251
3.09 --undefined-- 65.996
3.10 --undefined-- 61.335
3.11 --undefined-- 54.166
3.12 --undefined-- 44.944
3.13 --undefined-- 37.544
3.14 --undefined-- 36.085
3.15 --undefined-- 46.333
3.16 --undefined-- 56.819
3.17 --undefined-- 62.257
3.18 --undefined-- 63.749
3.19 --undefined-- 62.654
3.20 --undefined-- 63.679
3.21 --undefined-- 68.025
3.22 133.563 70.955
3.23 123.983 71.796
3.24 123.515 70.432
3.25 123.070 67.128
3.26 118.380 63.492
3.27 119.055 60.415
3.28 121.689 57.863
3.29 121.969 57.450
3.30 121.141 57.952
3.31 121.297 57.792
3.32 121.013 56.976
3.33 118.638 56.406
3.34 119.201 56.462
3.35 114.886 55.731
3.36 --undefined-- 53.205
3.37 --undefined-- 49.798
3.38 --undefined-- 49.884
3.39 --undefined-- 53.397
3.40 --undefined-- 55.071
3.41 --undefined-- 54.966
3.42 --undefined-- 55.585
3.43 --undefined-- 57.689
3.44 --undefined-- 59.521
3.45 --undefined-- 60.769
3.46 --undefined-- 61.148
3.47 --undefined-- 60.700
3.48 95.218 61.647
3.49 90.065 63.297
3.50 90.133 63.929
3.51 86.273 64.070
3.52 85.729 65.073
3.53 82.466 65.926
3.54 81.484 65.865
3.55 81.284 64.878
3.56 80.552 62.792
3.57 81.525 60.459
3.58 83.281 58.800
3.59 --undefined-- 56.935
3.60 --undefined-- 54.180
3.61 --undefined-- 50.526
3.62 --undefined-- 46.469
3.63 --undefined-- 42.423
3.64 --undefined-- 39.686
3.65 --undefined-- 37.968
3.66 --undefined-- 36.441
3.67 --undefined-- 35.576
3.68 --undefined-- 35.925
3.69 --undefined-- 42.649
3.70 --undefined-- 49.376
3.71 --undefined-- 52.355
3.72 --undefined-- 53.910
3.73 --undefined-- 56.968
3.74 --undefined-- 60.226
3.75 --undefined-- 62.663
3.76 --undefined-- 63.651
3.77 --undefined-- 62.940
3.78 --undefined-- 61.596
3.79 --undefined-- 60.997
3.80 --undefined-- 62.025
3.81 --undefined-- 62.317
3.82 --undefined-- 62.567
3.83 --undefined-- 64.614
3.84 119.542 66.079
3.85 119.199 66.781
3.86 118.298 67.297
3.87 116.928 68.155
3.88 115.890 68.965
3.89 115.127 68.994
3.90 114.104 68.379
3.91 113.618 67.720
3.92 113.737 67.060
3.93 113.777 66.538
3.94 113.374 66.179
3.95 112.539 65.348
3.96 110.933 63.908
3.97 107.590 61.730
3.98 107.361 57.965
3.99 --undefined-- 51.634
4.00 --undefined-- 42.616
4.01 --undefined-- 37.167
4.02 --undefined-- 36.315
4.03 --undefined-- 35.764
4.04 --undefined-- 36.376
4.05 --undefined-- 45.468
4.06 --undefined-- 53.891
4.07 --undefined-- 59.700
4.08 --undefined-- 65.055
4.09 104.232 68.870
4.10 90.632 70.399
4.11 90.752 70.330
4.12 86.398 69.878
4.13 85.428 69.350
4.14 84.346 68.477
4.15 82.813 67.346
4.16 82.882 66.159
4.17 83.312 65.245
4.18 83.855 64.652
4.19 84.073 63.967
4.20 83.040 63.046
4.21 81.302 61.897
4.22 80.519 60.553
4.23 79.868 59.499
4.24 79.222 58.916
4.25 78.280 58.341
4.26 77.535 57.370
4.27 76.788 56.104
4.28 75.926 54.871
4.29 --undefined-- 53.056
4.30 --undefined-- 49.997
4.31 --undefined-- 45.219
4.32 --undefined-- 40.323
4.33 --undefined-- 37.510
4.34 --undefined-- 35.451
4.35 --undefined-- 37.453
4.36 --undefined-- 41.529
4.37 --undefined-- 43.970
4.38 --undefined-- 44.712
4.39 --undefined-- 45.491
4.40 --undefined-- 47.517
4.41 --undefined-- 48.919
4.42 --undefined-- 48.852
4.43 --undefined-- 48.507
4.44 --undefined-- 48.918
4.45 --undefined-- 49.381
4.46 --undefined-- 49.467
4.47 --undefined-- 49.157
4.48 --undefined-- 48.477
4.49 --undefined-- 48.319
4.50 --undefined-- 48.633
4.51 --undefined-- 48.412
4.52 --undefined-- 47.915
4.53 --undefined-- 47.590
4.54 --undefined-- 47.133
4.55 --undefined-- 46.856
4.56 --undefined-- 46.947
4.57 --undefined-- 46.654
4.58 --undefined-- 45.752
4.59 --undefined-- 44.253
4.60 --undefined-- 42.154
4.61 --undefined-- 39.874
4.62 --undefined-- 37.844
4.63 --undefined-- 36.673
4.64 --undefined-- 36.593
4.65 --undefined-- 37.728
4.66 --undefined-- 39.202
4.67 --undefined-- 40.115
4.68 --undefined-- 44.347
4.69 --undefined-- 51.055
4.70 107.121 55.484
4.71 107.434 57.887
4.72 103.754 59.885
4.73 103.439 62.270
4.74 99.419 64.265
4.75 97.002 65.859
4.76 91.369 66.761
4.77 90.617 66.566
4.78 88.834 65.740
4.79 88.982 64.260
4.80 88.820 62.003
4.81 88.384 60.480
4.82 87.128 60.125
4.83 86.551 59.391
4.84 85.971 57.786
4.85 87.218 55.396
4.86 90.335 54.236
4.87 90.241 54.698
4.88 --undefined-- 55.205
4.89 --undefined-- 54.809
4.90 --undefined-- 52.319
4.91 --undefined-- 46.777
4.92 --undefined-- 39.696
4.93 --undefined-- 36.729
4.94 --undefined-- 45.353
4.95 --undefined-- 55.708
4.96 --undefined-- 62.721
4.97 --undefined-- 68.130
4.98 --undefined-- 71.659
4.99 --undefined-- 73.051
5.00 --undefined-- 72.513
5.01 --undefined-- 69.849
5.02 --undefined-- 64.609
5.03 --undefined-- 56.352
5.04 --undefined-- 45.837
5.05 --undefined-- 39.820
5.06 --undefined-- 38.623
5.07 --undefined-- 37.901
5.08 --undefined-- 37.124
5.09 --undefined-- 36.258
5.10 --undefined-- 35.669
5.11 --undefined-- 41.429
5.12 --undefined-- 53.933
5.13 --undefined-- 62.744
5.14 --undefined-- 69.807
5.15 --undefined-- 74.586
5.16 --undefined-- 76.886
5.17 91.189 77.181
5.18 91.059 76.366
5.19 91.653 75.053
5.20 92.885 72.910
5.21 --undefined-- 69.628
5.22 --undefined-- 65.678
5.23 104.143 62.250
5.24 105.160 61.382
5.25 105.942 61.111
5.26 108.011 60.252
5.27 110.131 59.232
5.28 110.318 57.352
5.29 113.989 55.298
5.30 --undefined-- 54.719
5.31 --undefined-- 53.649
5.32 --undefined-- 53.614
5.33 --undefined-- 56.102
5.34 --undefined-- 58.261
5.35 --undefined-- 60.558
5.36 --undefined-- 62.699
5.37 --undefined-- 63.875
5.38 --undefined-- 63.759
5.39 --undefined-- 63.410
5.40 --undefined-- 64.645
5.41 --undefined-- 65.676
5.42 85.959 65.902
5.43 88.505 66.578
5.44 88.076 68.121
5.45 87.520 69.655
5.46 87.026 70.529
5.47 88.322 71.256
5.48 88.572 71.855
5.49 90.528 72.285
5.50 92.754 72.572
5.51 92.900 --undefined--
5.52 93.117 --undefined--
5.53 --undefined-- --undefined--
5.54 --undefined-- --undefined--
