Time Pitch Intensity
0.01 --undefined-- --undefined--
0.02 155.387 --undefined--
0.03 156.955 --undefined--
0.04 148.672 --undefined--
0.05 144.988 61.709
0.06 --undefined-- 53.776
0.07 --undefined-- 51.793
0.08 --undefined-- 61.273
0.09 207.718 68.852
0.10 198.525 73.317
0.11 194.290 75.640
0.12 194.263 77.045
0.13 195.502 77.798
0.14 196.387 77.665
0.15 196.564 76.884
0.16 195.194 76.048
0.17 191.947 75.527
0.18 188.282 74.925
0.19 182.278 73.895
0.20 171.703 72.832
0.21 160.594 72.369
0.22 150.877 72.726
0.23 144.448 73.615
0.24 140.532 74.544
0.25 133.361 74.966
0.26 128.082 74.466
0.27 125.204 73.675
0.28 125.973 73.213
0.29 126.564 72.801
0.30 126.679 72.162
0.31 126.888 71.604
0.32 129.494 71.507
0.33 132.425 71.744
0.34 134.547 72.162
0.35 140.453 72.367
0.36 140.843 71.730
0.37 135.725 69.657
0.38 126.972 65.668
0.39 110.765 59.974
0.40 --undefined-- 59.565
0.41 --undefined-- 66.541
0.42 --undefined-- 71.009
0.43 --undefined-- 72.891
0.44 130.648 73.068
0.45 125.833 72.626
0.46 123.342 72.189
0.47 122.544 71.555
0.48 122.835 70.811
0.49 122.009 70.495
0.50 118.439 70.327
0.51 117.584 69.545
0.52 114.605 67.464
0.53 106.159 63.480
0.54 104.237 57.765
0.55 --undefined-- 51.281
0.56 --undefined-- 45.365
0.57 --undefined-- 45.689
0.58 --undefined-- 49.428
0.59 --undefined-- 52.086
0.60 --undefined-- 53.788
0.61 --undefined-- 55.573
0.62 --undefined-- 56.560
0.63 --undefined-- 55.567
0.64 --undefined-- 55.588
0.65 204.389 62.674
0.66 193.282 68.172
0.67 179.704 70.920
0.68 170.545 71.864
0.69 167.491 72.225
0.70 165.891 72.314
0.71 164.408 71.833
0.72 164.727 70.961
0.73 162.984 70.178
0.74 156.250 69.149
0.75 148.521 66.881
0.76 140.917 62.563
0.77 --undefined-- 56.033
0.78 --undefined-- 49.885
0.79 --undefined-- 48.244
0.80 --undefined-- 50.931
0.81 --undefined-- 59.080
0.82 143.501 65.354
0.83 135.521 68.649
0.84 127.768 69.751
0.85 125.494 69.726
0.86 121.325 69.412
0.87 120.137 69.017
0.88 123.315 68.232
0.89 121.655 66.242
0.90 113.932 62.473
0.91 --undefined-- 57.084
0.92 --undefined-- 51.197
0.93 --undefined-- 48.574
0.94 --undefined-- 56.337
0.95 --undefined-- 65.446
0.96 --undefined-- 70.929
0.97 --undefined-- 73.280
0.98 --undefined-- 73.525
0.99 --undefined-- 73.129
1.00 --undefined-- 72.714
1.01 --undefined-- 71.818
1.02 112.614 70.764
1.03 115.240 70.238
1.04 117.306 69.063
1.05 --undefined-- 65.750
1.06 --undefined-- 59.511
1.07 --undefined-- 50.761
1.08 --undefined-- 43.954
1.09 --undefined-- 41.245
1.10 --undefined-- 42.976
1.11 --undefined-- 50.052
1.12 --undefined-- 54.726
1.13 --undefined-- 56.796
1.14 --undefined-- 57.379
1.15 --undefined-- 59.640
1.16 123.236 63.906
1.17 129.146 66.675
1.18 125.303 67.356
1.19 119.797 66.597
1.20 119.083 65.661
1.21 114.924 65.447
1.22 123.533 65.558
1.23 106.858 65.382
1.24 110.447 65.144
1.25 108.015 65.046
1.26 109.658 65.008
1.27 109.118 65.041
1.28 108.365 65.030
1.29 103.790 65.214
1.30 107.992 65.828
1.31 109.417 66.341
1.32 111.080 66.493
1.33 112.100 66.335
1.34 112.701 65.889
1.35 114.526 65.057
1.36 121.190 63.397
1.37 --undefined-- 60.028
1.38 --undefined-- 55.813
1.39 --undefined-- 52.646
1.40 --undefined-- 48.282
1.41 --undefined-- 41.228
1.42 --undefined-- 36.415
1.43 --undefined-- 36.270
1.44 --undefined-- 37.239
1.45 --undefined-- 37.633
1.46 --undefined-- 36.198
1.47 --undefined-- 34.497
1.48 --undefined-- 35.035
1.49 --undefined-- 36.929
1.50 --undefined-- 36.812
1.51 --undefined-- 33.947
1.52 --undefined-- 31.722
1.53 --undefined-- 32.717
1.54 --undefined-- 33.826
1.55 --undefined-- 33.922
1.56 --undefined-- 34.057
1.57 --undefined-- 35.173
1.58 --undefined-- 34.951
1.59 --undefined-- 33.412
1.60 --undefined-- 32.537
1.61 --undefined-- 34.350
1.62 --undefined-- 37.043
1.63 --undefined-- 37.697
1.64 --undefined-- 36.661
1.65 --undefined-- 34.935
1.66 --undefined-- 33.331
1.67 --undefined-- 34.166
1.68 --undefined-- 35.641
1.69 --undefined-- 35.608
1.70 --undefined-- 33.822
1.71 --undefined-- 33.079
1.72 --undefined-- 34.243
1.73 --undefined-- 34.189
1.74 --undefined-- 34.320
1.75 --undefined-- 36.014
1.76 --undefined-- 36.703
1.77 --undefined-- 35.869
1.78 --undefined-- 33.865
1.79 --undefined-- 33.561
1.80 --undefined-- 36.164
1.81 --undefined-- 40.937
1.82 --undefined-- 45.065
1.83 --undefined-- 45.962
1.84 --undefined-- 43.529
1.85 --undefined-- 38.979
1.86 --undefined-- 36.398
1.87 --undefined-- 36.846
1.88 --undefined-- 38.356
1.89 --undefined-- 38.905
1.90 --undefined-- 38.671
1.91 --undefined-- 39.788
1.92 --undefined-- 41.241
1.93 --undefined-- 41.656
1.94 --undefined-- 41.521
1.95 --undefined-- 42.031
1.96 --undefined-- 42.845
1.97 --undefined-- 43.113
1.98 --undefined-- 43.050
1.99 --undefined-- 42.857
2.00 --undefined-- 42.864
2.01 --undefined-- 43.053
2.02 --undefined-- 42.945
2.03 --undefined-- 42.694
2.04 --undefined-- 42.365
2.05 --undefined-- 41.953
2.06 --undefined-- 41.742
2.07 --undefined-- 41.391
2.08 --undefined-- 40.671
2.09 --undefined-- 39.775
2.10 --undefined-- 38.994
2.11 --undefined-- 38.080
2.12 --undefined-- 37.003
2.13 --undefined-- 36.032
2.14 --undefined-- 35.088
2.15 --undefined-- 35.781
2.16 --undefined-- 37.886
2.17 --undefined-- 38.712
2.18 --undefined-- 38.694
2.19 --undefined-- 51.562
2.20 --undefined-- 62.774
2.21 --undefined-- 69.331
2.22 --undefined-- 72.768
2.23 168.088 74.482
2.24 179.485 75.540
2.25 184.541 76.284
2.26 196.943 76.686
2.27 205.971 76.785
2.28 211.146 76.709
2.29 215.071 76.510
2.30 215.880 75.791
2.31 211.837 73.754
2.32 181.415 70.036
2.33 173.252 65.419
2.34 186.239 60.412
2.35 --undefined-- 54.721
2.36 --undefined-- 53.343
2.37 --undefined-- 55.605
2.38 --undefined-- 57.929
2.39 --undefined-- 59.841
2.40 --undefined-- 60.583
2.41 --undefined-- 59.827
2.42 --undefined-- 62.522
2.43 275.525 69.441
2.44 268.251 73.313
2.45 246.145 74.198
2.46 234.918 73.802
2.47 235.778 73.750
2.48 236.490 74.368
2.49 234.115 75.225
2.50 228.378 75.769
2.51 215.808 75.568
2.52 204.148 74.029
2.53 195.534 70.443
2.54 195.405 64.225
2.55 --undefined-- 56.231
2.56 --undefined-- 52.207
2.57 --undefined-- 50.214
2.58 --undefined-- 48.514
2.59 --undefined-- 50.584
2.60 --undefined-- 59.367
2.61 --undefined-- 66.349
2.62 168.374 70.201
2.63 160.928 72.179
2.64 160.948 73.227
2.65 162.590 73.448
2.66 160.869 72.754
2.67 153.849 71.384
2.68 148.928 70.342
2.69 147.454 70.981
2.70 146.413 73.119
2.71 144.591 75.180
2.72 140.094 76.384
2.73 136.177 76.632
2.74 130.785 75.808
2.75 125.045 74.141
2.76 121.623 72.212
2.77 117.471 70.368
2.78 114.027 68.791
2.79 108.982 67.545
2.80 108.943 66.868
2.81 110.393 66.830
2.82 111.794 67.046
2.83 114.211 67.289
2.84 114.519 67.203
2.85 113.764 67.036
2.86 117.828 67.588
2.87 121.435 68.462
2.88 122.588 69.462
2.89 127.011 71.032
2.90 125.833 72.434
2.91 125.275 73.204
2.92 123.656 73.496
2.93 123.331 73.440
2.94 124.078 73.299
2.95 125.540 73.195
2.96 126.136 72.969
2.97 123.136 72.693
2.98 124.902 72.365
2.99 124.886 71.723
3.00 126.465 71.059
3.01 130.122 70.711
3.02 131.786 70.213
3.03 130.839 69.291
3.04 131.019 67.990
3.05 --undefined-- 66.460
3.06 --undefined-- 64.380
3.07 --undefined-- 61.619
3.08 --undefined-- 58.661
3.09 --undefined-- 55.234
3.10 --undefined-- 49.998
3.11 --undefined-- 43.274
3.12 --undefined-- 39.502
3.13 --undefined-- 38.658
3.14 --undefined-- 38.386
3.15 --undefined-- 38.381
3.16 --undefined-- 38.302
3.17 --undefined-- 38.427
3.18 --undefined-- 38.490
3.19 --undefined-- 39.207
3.20 --undefined-- 39.936
3.21 --undefined-- 39.982
3.22 --undefined-- 39.426
3.23 --undefined-- 39.210
3.24 --undefined-- 39.777
3.25 --undefined-- 40.197
3.26 --undefined-- 39.923
3.27 --undefined-- 39.214
3.28 --undefined-- 38.223
3.29 --undefined-- 37.183
3.30 --undefined-- 37.620
3.31 --undefined-- 37.600
3.32 --undefined-- 38.347
3.33 --undefined-- 41.221
3.34 --undefined-- 41.672
3.35 --undefined-- 39.937
3.36 --undefined-- 39.873
3.37 --undefined-- 41.240
3.38 --undefined-- 43.923
3.39 --undefined-- 51.800
3.40 --undefined-- 61.807
3.41 184.312 69.083
3.42 155.569 73.852
3.43 156.712 76.702
3.44 161.226 77.900
3.45 168.925 77.671
3.46 180.064 76.309
3.47 190.239 74.552
3.48 195.737 73.764
3.49 203.683 73.942
3.50 209.010 74.134
3.51 215.512 74.786
3.52 217.767 75.734
3.53 214.343 75.812
3.54 204.698 74.112
3.55 198.256 70.022
3.56 --undefined-- 63.832
3.57 --undefined-- 63.239
3.58 --undefined-- 68.563
3.59 195.602 73.645
3.60 183.806 76.538
3.61 174.742 77.639
3.62 167.960 77.739
3.63 164.054 77.131
3.64 163.561 75.949
3.65 185.434 75.286
3.66 190.082 76.170
3.67 191.304 77.253
3.68 194.223 77.607
3.69 195.766 76.998
3.70 192.093 75.111
3.71 183.270 71.303
3.72 177.196 64.916
3.73 --undefined-- 56.070
3.74 --undefined-- 50.170
3.75 --undefined-- 53.058
3.76 --undefined-- 60.825
3.77 196.582 68.245
3.78 184.990 72.614
3.79 168.417 74.272
3.80 149.801 74.421
3.81 148.511 74.423
3.82 149.461 74.588
3.83 152.556 74.798
3.84 156.512 74.708
3.85 161.487 73.966
3.86 165.630 72.389
3.87 164.453 69.461
3.88 154.953 64.744
3.89 157.924 58.924
3.90 --undefined-- 58.083
3.91 199.627 66.085
3.92 191.155 71.793
3.93 175.979 74.577
3.94 160.728 75.874
3.95 154.078 77.146
3.96 151.422 78.076
3.97 151.539 77.962
3.98 155.396 76.816
3.99 158.945 75.473
4.00 162.040 74.867
4.01 165.836 74.575
4.02 169.340 73.790
4.03 172.924 72.343
4.04 168.796 70.985
4.05 160.044 70.790
4.06 156.658 72.072
4.07 155.348 73.437
4.08 147.474 73.856
4.09 141.588 73.267
4.10 136.601 71.766
4.11 127.755 69.867
4.12 122.427 68.863
4.13 122.779 69.090
4.14 124.146 69.519
4.15 124.390 69.580
4.16 123.677 69.303
4.17 123.699 68.957
4.18 121.847 68.727
4.19 119.287 68.807
4.20 117.401 68.953
4.21 114.239 68.550
4.22 109.677 67.355
4.23 105.300 66.342
4.24 106.438 66.667
4.25 109.259 67.637
4.26 109.506 68.339
4.27 108.874 68.389
4.28 109.766 68.070
4.29 110.714 67.654
4.30 110.680 67.189
4.31 109.411 66.655
4.32 109.769 66.204
4.33 108.975 65.924
4.34 108.443 65.779
4.35 108.842 65.603
4.36 108.997 65.189
4.37 109.889 64.590
4.38 113.364 64.073
4.39 113.381 63.562
4.40 114.967 62.977
4.41 --undefined-- 62.195
4.42 --undefined-- 60.722
4.43 --undefined-- 58.516
4.44 --undefined-- 55.919
4.45 --undefined-- 53.151
4.46 --undefined-- 49.033
4.47 --undefined-- 43.070
4.48 --undefined-- 38.387
4.49 --undefined-- 37.698
4.50 --undefined-- 37.199
4.51 --undefined-- 36.800
4.52 --undefined-- 36.994
4.53 --undefined-- 36.688
4.54 --undefined-- 36.999
4.55 --undefined-- 38.145
4.56 --undefined-- 38.592
4.57 --undefined-- 37.719
4.58 --undefined-- 37.088
4.59 --undefined-- 37.273
4.60 --undefined-- 37.170
4.61 --undefined-- 36.674
4.62 --undefined-- 35.996
4.63 --undefined-- 35.874
4.64 --undefined-- 36.317
4.65 --undefined-- 37.340
4.66 --undefined-- 37.687
4.67 --undefined-- 41.083
4.68 --undefined-- 47.633
4.69 --undefined-- 50.268
4.70 --undefined-- 48.673
4.71 --undefined-- 43.317
4.72 --undefined-- 38.381
4.73 --undefined-- 38.374
4.74 --undefined-- 37.902
4.75 --undefined-- 45.505
4.76 --undefined-- 58.295
4.77 --undefined-- 67.087
4.78 170.705 72.405
4.79 161.244 75.074
4.80 154.404 75.959
4.81 149.485 75.854
4.82 146.313 75.280
4.83 144.927 74.834
4.84 146.537 74.990
4.85 148.686 75.616
4.86 152.077 76.362
4.87 154.942 76.965
4.88 157.475 77.267
4.89 159.140 77.215
4.90 159.761 76.870
4.91 154.181 76.283
4.92 155.993 75.469
4.93 156.114 74.389
4.94 154.342 73.167
4.95 156.042 71.937
4.96 151.918 71.056
4.97 147.747 70.836
4.98 143.540 71.182
4.99 140.284 72.112
5.00 139.358 73.084
5.01 133.383 73.392
5.02 129.194 72.960
5.03 125.702 71.844
5.04 117.344 70.257
5.05 113.639 69.479
5.06 115.081 69.965
5.07 116.515 70.662
5.08 119.292 71.261
5.09 121.756 71.703
5.10 122.520 71.942
5.11 122.776 72.015
5.12 122.428 71.945
5.13 122.479 71.675
5.14 122.183 70.857
5.15 118.428 69.157
5.16 115.332 66.219
5.17 --undefined-- 61.251
5.18 --undefined-- 54.021
5.19 --undefined-- 50.230
5.20 --undefined-- 52.772
5.21 --undefined-- 56.227
5.22 --undefined-- 58.086
5.23 --undefined-- 58.558
5.24 --undefined-- 57.963
5.25 --undefined-- 56.539
5.26 --undefined-- 54.998
5.27 --undefined-- 56.265
5.28 --undefined-- 63.707
5.29 227.944 69.292
5.30 205.920 72.309
5.31 199.517 74.055
5.32 200.363 74.911
5.33 205.694 74.968
5.34 211.081 74.680
5.35 213.572 74.550
5.36 213.703 74.642
5.37 211.669 74.752
5.38 207.275 74.559
5.39 200.232 73.342
5.40 186.231 70.480
5.41 160.715 65.895
5.42 146.121 59.953
5.43 --undefined-- 52.734
5.44 --undefined-- 48.147
5.45 --undefined-- 46.866
5.46 --undefined-- 46.952
5.47 --undefined-- 51.435
5.48 --undefined-- 60.733
5.49 166.318 67.519
5.50 147.361 71.311
5.51 143.951 73.078
5.52 142.336 73.777
5.53 140.429 73.956
5.54 140.070 73.972
5.55 141.023 74.153
5.56 142.760 74.544
5.57 144.766 74.980
5.58 147.473 75.299
5.59 149.645 75.337
5.60 151.728 75.019
5.61 153.625 74.397
5.62 154.618 73.357
5.63 151.708 71.173
5.64 139.759 66.970
5.65 139.459 61.997
5.66 --undefined-- 59.329
5.67 --undefined-- 59.042
5.68 --undefined-- 62.184
5.69 126.048 66.350
5.70 130.121 68.865
5.71 116.161 69.683
5.72 116.456 69.943
5.73 116.131 70.106
5.74 115.151 70.013
5.75 114.346 69.726
5.76 113.172 69.290
5.77 112.465 68.995
5.78 113.749 68.991
5.79 115.312 68.926
5.80 116.141 68.501
5.81 115.405 67.341
5.82 113.383 64.829
5.83 107.043 60.388
5.84 --undefined-- 53.760
5.85 --undefined-- 45.466
5.86 --undefined-- 44.714
5.87 --undefined-- 50.150
5.88 --undefined-- 58.444
5.89 --undefined-- 65.491
5.90 151.587 69.449
5.91 142.445 71.357
5.92 139.000 72.238
5.93 138.696 72.896
5.94 143.021 74.004
5.95 149.972 75.376
5.96 155.215 75.863
5.97 162.080 75.187
5.98 171.103 74.233
5.99 176.085 72.820
6.00 178.075 69.410
6.01 162.669 63.374
6.02 180.896 57.099
6.03 185.143 55.043
6.04 184.925 58.468
6.05 197.127 64.752
6.06 179.860 69.241
6.07 168.152 71.683
6.08 158.238 72.845
6.09 151.992 73.630
6.10 149.428 74.442
6.11 147.672 75.208
6.12 146.945 75.957
6.13 146.072 76.491
6.14 146.207 76.593
6.15 146.073 75.963
6.16 142.091 74.571
6.17 148.055 73.207
6.18 152.633 --undefined--
6.19 154.911 --undefined--
6.20 --undefined-- --undefined--
6.21 --undefined-- --undefined--
