Time Pitch Intensity
0.01 --undefined-- --undefined--
0.02 153.232 --undefined--
0.03 152.962 --undefined--
0.04 151.936 --undefined--
0.05 150.523 64.463
0.06 150.625 65.264
0.07 151.974 65.000
0.08 152.438 64.596
0.09 154.086 64.729
0.10 156.466 64.766
0.11 158.380 64.533
0.12 159.832 63.895
0.13 162.609 63.508
0.14 163.443 63.570
0.15 164.680 62.912
0.16 164.297 61.635
0.17 161.732 60.707
0.18 164.257 60.260
0.19 163.030 60.209
0.20 161.227 60.615
0.21 159.367 60.841
0.22 157.120 61.180
0.23 155.887 62.153
0.24 154.421 62.607
0.25 149.787 62.374
0.26 152.778 62.557
0.27 154.801 63.647
0.28 156.675 64.834
0.29 158.780 65.110
0.30 160.271 64.717
0.31 161.546 64.556
0.32 163.754 64.084
0.33 166.238 63.147
0.34 166.422 63.269
0.35 169.010 64.320
0.36 172.778 64.616
0.37 172.397 64.413
0.38 174.759 64.341
0.39 177.334 64.560
0.40 178.236 65.217
0.41 177.686 65.740
0.42 177.001 65.384
0.43 177.637 63.327
0.44 --undefined-- 59.233
0.45 --undefined-- 56.762
0.46 --undefined-- 59.779
0.47 --undefined-- 62.771
0.48 230.294 63.469
0.49 236.964 64.192
0.50 183.021 66.673
0.51 178.702 67.968
0.52 176.596 67.604
0.53 176.149 66.844
0.54 178.371 66.631
0.55 180.643 66.939
0.56 180.964 67.268
0.57 180.215 67.196
0.58 180.429 66.707
0.59 178.153 66.111
0.60 179.021 66.016
0.61 181.767 66.699
0.62 181.581 67.307
0.63 181.879 67.276
0.64 182.634 66.751
0.65 183.166 65.939
0.66 188.658 64.889
0.67 187.224 63.508
0.68 --undefined-- 63.108
0.69 --undefined-- 66.161
0.70 --undefined-- 68.866
0.71 216.687 69.351
0.72 216.833 67.972
0.73 217.412 65.677
0.74 216.429 63.026
0.75 214.595 60.856
0.76 218.184 59.799
0.77 --undefined-- 57.508
0.78 --undefined-- 53.010
0.79 --undefined-- 49.765
0.80 --undefined-- 50.085
0.81 --undefined-- 50.836
0.82 --undefined-- 51.348
0.83 --undefined-- 52.772
0.84 --undefined-- 53.257
0.85 --undefined-- 52.178
0.86 --undefined-- 50.510
0.87 --undefined-- 51.441
0.88 --undefined-- 54.987
0.89 --undefined-- 57.884
0.90 --undefined-- 58.545
0.91 --undefined-- 56.453
0.92 --undefined-- 53.704
0.93 212.785 56.283
0.94 209.861 59.948
0.95 184.978 62.615
0.96 172.824 64.010
0.97 160.742 64.199
0.98 160.935 64.168
0.99 161.461 64.721
1.00 163.389 65.330
1.01 166.706 65.532
1.02 168.981 65.712
1.03 175.424 66.402
1.04 184.479 67.524
1.05 187.704 68.469
1.06 191.004 68.940
1.07 193.395 69.384
1.08 196.040 70.454
1.09 198.587 71.799
1.10 198.371 72.640
1.11 194.665 73.309
1.12 190.610 74.620
1.13 185.384 75.834
1.14 181.554 76.058
1.15 175.943 75.557
1.16 171.279 75.341
1.17 163.213 75.277
1.18 156.891 74.443
1.19 153.032 72.601
1.20 --undefined-- 69.700
1.21 --undefined-- 66.580
1.22 --undefined-- 65.101
1.23 --undefined-- 64.085
1.24 --undefined-- 62.955
1.25 --undefined-- 61.834
1.26 --undefined-- 59.770
1.27 195.258 58.670
1.28 196.563 59.935
1.29 --undefined-- 60.297
1.30 --undefined-- 58.703
1.31 --undefined-- 55.607
1.32 --undefined-- 56.737
1.33 --undefined-- 59.970
1.34 --undefined-- 60.733
1.35 --undefined-- 59.192
1.36 --undefined-- 57.631
1.37 --undefined-- 58.774
1.38 --undefined-- 58.937
1.39 --undefined-- 56.299
1.40 --undefined-- 53.638
1.41 --undefined-- 54.802
1.42 --undefined-- 55.027
1.43 --undefined-- 54.465
1.44 --undefined-- 55.668
1.45 --undefined-- 57.691
1.46 --undefined-- 58.644
1.47 --undefined-- 57.369
1.48 --undefined-- 56.407
1.49 --undefined-- 58.216
1.50 --undefined-- 58.772
1.51 248.688 57.945
1.52 243.779 57.345
1.53 233.177 59.043
1.54 290.850 59.807
1.55 291.001 57.844
1.56 --undefined-- 55.189
1.57 --undefined-- 56.386
1.58 --undefined-- 58.587
1.59 --undefined-- 59.526
1.60 --undefined-- 58.203
1.61 --undefined-- 56.534
1.62 --undefined-- 57.955
1.63 --undefined-- 59.262
1.64 --undefined-- 59.683
1.65 --undefined-- 59.349
1.66 --undefined-- 59.269
1.67 --undefined-- 60.799
1.68 --undefined-- 62.088
1.69 --undefined-- 61.549
1.70 --undefined-- 59.026
1.71 --undefined-- 56.067
1.72 --undefined-- 54.554
1.73 --undefined-- 53.798
1.74 --undefined-- 53.932
1.75 --undefined-- 54.699
1.76 --undefined-- 55.345
1.77 --undefined-- 54.798
1.78 --undefined-- 56.379
1.79 263.647 61.011
1.80 243.003 64.747
1.81 242.950 66.985
1.82 247.658 68.500
1.83 256.675 70.844
1.84 259.751 72.776
1.85 265.057 73.367
1.86 271.171 73.364
1.87 275.188 73.759
1.88 278.284 74.147
1.89 279.454 74.380
1.90 279.037 74.960
1.91 278.556 75.313
1.92 278.759 74.984
1.93 279.138 74.307
1.94 277.647 73.678
1.95 274.871 73.278
1.96 273.790 73.115
1.97 271.128 73.197
1.98 270.809 73.465
1.99 267.200 73.370
2.00 260.411 73.548
2.01 261.808 74.387
2.02 261.112 74.573
2.03 258.697 74.081
2.04 260.054 73.426
2.05 261.621 72.435
2.06 264.047 70.982
2.07 265.387 69.669
2.08 266.756 69.216
2.09 267.545 69.336
2.10 267.290 69.350
2.11 266.022 68.496
2.12 262.547 66.381
2.13 242.818 63.762
2.14 266.463 61.349
2.15 269.282 59.765
2.16 265.546 62.370
2.17 265.277 66.082
2.18 275.770 68.641
2.19 285.330 70.300
2.20 288.727 71.388
2.21 255.288 72.445
2.22 253.410 73.464
2.23 256.851 73.825
2.24 262.137 72.909
2.25 277.055 71.191
2.26 294.521 70.768
2.27 155.540 71.198
2.28 164.349 70.767
2.29 172.326 69.119
2.30 169.953 67.424
2.31 181.888 68.086
2.32 192.550 69.553
2.33 204.842 70.245
2.34 212.566 71.737
2.35 209.520 73.917
2.36 206.522 74.938
2.37 201.865 74.654
2.38 194.233 74.347
2.39 188.203 74.688
2.40 181.499 74.459
2.41 171.712 73.169
2.42 167.637 70.590
2.43 --undefined-- 66.148
2.44 --undefined-- 60.393
2.45 --undefined-- 57.242
2.46 --undefined-- 57.356
2.47 --undefined-- 56.824
2.48 --undefined-- 57.963
2.49 --undefined-- 60.245
2.50 272.668 61.897
2.51 273.686 62.993
2.52 287.117 64.742
2.53 152.304 66.600
2.54 168.548 68.858
2.55 177.065 71.468
2.56 182.226 73.317
2.57 182.820 74.400
2.58 182.641 74.895
2.59 182.076 74.851
2.60 181.731 74.545
2.61 181.323 74.198
2.62 181.480 73.918
2.63 182.594 73.939
2.64 183.517 74.242
2.65 184.548 74.378
2.66 185.237 73.550
2.67 186.002 70.881
2.68 188.093 66.466
2.69 187.756 64.331
2.70 186.912 65.006
2.71 157.758 64.974
2.72 164.790 66.224
2.73 170.154 68.579
2.74 178.007 71.071
2.75 183.426 73.582
2.76 183.970 75.276
2.77 187.579 75.940
2.78 188.992 76.116
2.79 188.575 76.335
2.80 187.676 76.542
2.81 186.760 76.548
2.82 186.068 76.380
2.83 186.119 76.088
2.84 188.810 75.569
2.85 192.508 74.734
2.86 193.440 74.086
2.87 191.460 74.113
2.88 188.567 73.974
2.89 186.087 72.224
2.90 188.181 67.865
2.91 191.671 60.884
2.92 --undefined-- 56.499
2.93 --undefined-- 58.562
2.94 --undefined-- 61.070
2.95 --undefined-- 63.524
2.96 274.950 66.581
2.97 236.394 69.211
2.98 224.932 70.790
2.99 209.615 71.691
3.00 200.760 72.241
3.01 200.778 72.483
3.02 203.329 72.639
3.03 205.323 72.601
3.04 208.963 72.218
3.05 212.248 71.885
3.06 213.125 71.535
3.07 213.696 70.864
3.08 212.832 70.516
3.09 212.437 70.313
3.10 211.905 69.679
3.11 209.924 68.833
3.12 208.607 68.341
3.13 208.053 68.509
3.14 208.967 68.657
3.15 212.398 67.960
3.16 213.449 66.544
3.17 203.333 65.569
3.18 211.606 64.433
3.19 --undefined-- 61.645
3.20 --undefined-- 60.016
3.21 --undefined-- 61.118
3.22 --undefined-- 62.082
3.23 --undefined-- 63.901
3.24 207.932 65.980
3.25 199.838 67.861
3.26 192.639 69.236
3.27 188.830 69.630
3.28 187.656 69.755
3.29 186.824 70.156
3.30 186.982 70.361
3.31 187.404 70.345
3.32 187.463 70.444
3.33 188.523 70.691
3.34 189.391 71.043
3.35 189.505 71.562
3.36 189.593 72.101
3.37 190.195 72.445
3.38 190.614 72.614
3.39 191.156 72.698
3.40 192.359 72.599
3.41 193.597 72.227
3.42 192.521 71.538
3.43 189.964 70.016
3.44 189.110 66.844
3.45 191.736 61.803
3.46 191.628 57.690
3.47 203.851 60.139
3.48 197.789 64.503
3.49 189.450 67.572
3.50 185.846 69.276
3.51 179.610 69.851
3.52 180.826 69.552
3.53 183.454 69.051
3.54 185.805 68.741
3.55 188.571 68.129
3.56 194.776 67.192
3.57 210.810 66.436
3.58 224.290 66.358
3.59 234.993 66.698
3.60 244.146 66.826
3.61 251.378 67.049
3.62 256.639 67.501
3.63 260.518 67.134
3.64 261.698 65.159
3.65 259.628 61.595
3.66 --undefined-- 58.824
3.67 --undefined-- 58.484
3.68 --undefined-- 58.052
3.69 --undefined-- 56.422
3.70 --undefined-- 53.208
3.71 --undefined-- 51.123
3.72 --undefined-- 54.973
3.73 --undefined-- 62.307
3.74 --undefined-- 68.146
3.75 --undefined-- 71.570
3.76 205.910 73.164
3.77 203.024 73.412
3.78 198.987 72.853
3.79 195.807 72.236
3.80 192.956 72.087
3.81 192.136 72.355
3.82 191.826 72.471
3.83 190.664 72.426
3.84 189.931 72.407
3.85 189.340 72.219
3.86 190.197 71.698
3.87 191.404 71.037
3.88 193.633 70.496
3.89 195.168 70.076
3.90 195.588 69.694
3.91 196.436 69.119
3.92 196.170 68.157
3.93 192.372 66.497
3.94 189.409 64.110
3.95 191.485 62.762
3.96 --undefined-- 62.354
3.97 --undefined-- 60.858
3.98 --undefined-- 60.132
3.99 --undefined-- 63.837
4.00 196.437 66.908
4.01 186.085 68.406
4.02 178.317 69.239
4.03 175.148 69.692
4.04 173.110 69.725
4.05 171.315 69.373
4.06 171.406 68.869
4.07 171.508 68.521
4.08 170.567 68.250
4.09 170.903 67.776
4.10 172.506 67.292
4.11 172.355 67.347
4.12 171.241 67.844
4.13 169.747 68.270
4.14 168.505 68.445
4.15 167.739 68.058
4.16 167.871 67.099
4.17 168.227 66.323
4.18 168.996 66.041
4.19 169.928 66.054
4.20 171.496 66.657
4.21 173.469 67.535
4.22 174.985 67.576
4.23 174.651 66.608
4.24 172.984 65.223
4.25 173.038 64.287
4.26 172.897 64.258
4.27 171.878 64.479
4.28 168.342 64.015
4.29 164.052 62.836
4.30 164.648 62.780
4.31 172.493 64.081
4.32 170.569 64.685
4.33 167.938 64.560
4.34 164.512 64.225
4.35 162.574 63.737
4.36 160.632 63.815
4.37 158.556 64.744
4.38 156.216 65.135
4.39 154.017 64.781
4.40 153.301 64.459
4.41 153.490 64.192
4.42 154.758 64.074
4.43 156.324 64.158
4.44 159.295 64.151
4.45 163.405 64.568
4.46 168.960 65.292
4.47 174.247 65.545
4.48 175.719 65.463
4.49 176.535 65.436
4.50 180.768 65.856
4.51 184.482 66.785
4.52 187.762 67.348
4.53 190.659 67.483
4.54 192.165 67.895
4.55 194.106 68.356
4.56 192.781 68.795
4.57 191.182 70.129
4.58 187.127 71.588
4.59 --undefined-- 71.627
4.60 --undefined-- 69.951
4.61 --undefined-- 67.299
4.62 --undefined-- 65.147
4.63 --undefined-- 65.534
4.64 --undefined-- 65.733
4.65 --undefined-- 64.098
4.66 --undefined-- 63.322
4.67 --undefined-- 63.654
4.68 --undefined-- 62.583
4.69 --undefined-- 60.047
4.70 --undefined-- 56.961
4.71 --undefined-- 53.863
4.72 --undefined-- 52.019
4.73 --undefined-- 56.491
4.74 249.855 61.655
4.75 254.094 64.020
4.76 255.491 63.939
4.77 251.400 63.499
4.78 241.813 64.574
4.79 205.750 65.317
4.80 175.189 64.298
4.81 181.341 60.909
4.82 --undefined-- 57.284
4.83 --undefined-- 58.964
4.84 --undefined-- 60.755
4.85 --undefined-- 60.606
4.86 --undefined-- 58.846
4.87 --undefined-- 57.293
4.88 201.986 58.444
4.89 191.854 60.399
4.90 182.905 61.570
4.91 184.989 62.298
4.92 190.190 --undefined--
4.93 196.738 --undefined--
4.94 --undefined-- --undefined--
4.95 --undefined-- --undefined--
