Time Pitch Intensity
0.01 --undefined-- --undefined--
0.02 139.469 --undefined--
0.03 139.078 --undefined--
0.04 129.891 --undefined--
0.05 124.551 60.220
0.06 --undefined-- 56.902
0.07 --undefined-- 54.865
0.08 --undefined-- 55.424
0.09 --undefined-- 55.483
0.10 --undefined-- 54.378
0.11 --undefined-- 53.344
0.12 --undefined-- 53.282
0.13 --undefined-- 53.672
0.14 --undefined-- 53.615
0.15 --undefined-- 52.657
0.16 --undefined-- 51.565
0.17 --undefined-- 50.918
0.18 --undefined-- 50.210
0.19 --undefined-- 50.238
0.20 --undefined-- 51.063
0.21 --undefined-- 51.906
0.22 --undefined-- 52.968
0.23 117.457 55.502
0.24 117.728 57.816
0.25 111.895 58.470
0.26 112.039 57.755
0.27 107.590 56.436
0.28 105.832 55.987
0.29 105.707 56.825
0.30 107.780 58.107
0.31 111.050 59.787
0.32 115.426 62.051
0.33 119.685 64.387
0.34 124.628 66.232
0.35 126.347 67.393
0.36 127.098 67.522
0.37 126.912 66.553
0.38 125.921 65.852
0.39 124.107 66.320
0.40 122.626 66.996
0.41 119.451 67.748
0.42 116.817 69.254
0.43 114.302 71.907
0.44 112.457 73.909
0.45 111.901 73.875
0.46 112.478 72.398
0.47 --undefined-- 71.593
0.48 --undefined-- 70.688
0.49 --undefined-- 66.735
0.50 --undefined-- 60.384
0.51 --undefined-- 55.153
0.52 --undefined-- 48.161
0.53 --undefined-- 41.961
0.54 --undefined-- 43.032
0.55 --undefined-- 46.104
0.56 --undefined-- 49.229
0.57 --undefined-- 52.271
0.58 --undefined-- 54.361
0.59 --undefined-- 55.710
0.60 --undefined-- 55.540
0.61 --undefined-- 56.032
0.62 --undefined-- 61.918
0.63 --undefined-- 66.325
0.64 --undefined-- 69.036
0.65 113.912 71.571
0.66 116.342 73.078
0.67 116.209 72.544
0.68 113.595 69.715
0.69 --undefined-- 64.394
0.70 --undefined-- 56.295
0.71 --undefined-- 48.035
0.72 --undefined-- 50.277
0.73 --undefined-- 54.745
0.74 --undefined-- 57.643
0.75 --undefined-- 58.557
0.76 --undefined-- 57.087
0.77 --undefined-- 54.013
0.78 --undefined-- 55.679
0.79 127.080 61.887
0.80 126.408 65.635
0.81 124.276 66.308
0.82 --undefined-- 64.468
0.83 --undefined-- 60.378
0.84 --undefined-- 55.068
0.85 --undefined-- 52.225
0.86 --undefined-- 50.368
0.87 --undefined-- 49.790
0.88 --undefined-- 50.984
0.89 --undefined-- 50.638
0.90 --undefined-- 50.305
0.91 --undefined-- 51.043
0.92 --undefined-- 52.159
0.93 --undefined-- 55.235
0.94 --undefined-- 59.474
0.95 --undefined-- 63.241
0.96 --undefined-- 65.861
0.97 --undefined-- 66.924
0.98 --undefined-- 67.336
0.99 --undefined-- 66.935
1.00 --undefined-- 65.604
1.01 --undefined-- 62.987
1.02 --undefined-- 59.916
1.03 --undefined-- 56.968
1.04 --undefined-- 54.660
1.05 --undefined-- 52.873
1.06 --undefined-- 49.292
1.07 --undefined-- 43.796
1.08 --undefined-- 41.168
1.09 --undefined-- 41.748
1.10 --undefined-- 41.930
1.11 --undefined-- 42.371
1.12 --undefined-- 42.603
1.13 --undefined-- 42.388
1.14 --undefined-- 42.809
1.15 --undefined-- 43.247
1.16 --undefined-- 43.276
1.17 --undefined-- 43.965
1.18 --undefined-- 44.988
1.19 --undefined-- 45.550
1.20 --undefined-- 45.536
1.21 --undefined-- 44.853
1.22 --undefined-- 43.579
1.23 --undefined-- 41.765
1.24 --undefined-- 40.746
1.25 --undefined-- 41.193
1.26 --undefined-- 41.039
1.27 --undefined-- 40.824
1.28 --undefined-- 41.424
1.29 --undefined-- 41.583
1.30 --undefined-- 40.860
1.31 --undefined-- 40.229
1.32 --undefined-- 40.177
1.33 --undefined-- 40.269
1.34 --undefined-- 39.810
1.35 --undefined-- 38.076
1.36 --undefined-- 35.585
1.37 --undefined-- 32.981
1.38 --undefined-- 30.333
1.39 --undefined-- 28.510
1.40 --undefined-- 27.729
1.41 --undefined-- 29.123
1.42 --undefined-- 30.562
1.43 --undefined-- 30.457
1.44 --undefined-- 29.324
1.45 --undefined-- 30.150
1.46 --undefined-- 36.731
1.47 --undefined-- 44.434
1.48 --undefined-- 50.455
1.49 --undefined-- 55.191
1.50 --undefined-- 58.489
1.51 --undefined-- 64.553
1.52 --undefined-- 71.649
1.53 --undefined-- 75.846
1.54 160.308 77.581
1.55 164.142 78.016
1.56 170.326 77.922
1.57 181.846 77.490
1.58 189.846 77.026
1.59 194.029 76.413
1.60 195.923 74.996
1.61 199.319 72.100
1.62 203.274 67.581
1.63 199.617 63.261
1.64 197.120 61.835
1.65 196.856 62.499
1.66 197.240 64.677
1.67 198.083 67.821
1.68 197.398 70.745
1.69 195.017 72.972
1.70 191.609 74.111
1.71 187.894 73.925
1.72 180.372 72.827
1.73 171.897 71.859
1.74 167.714 71.188
1.75 163.664 70.357
1.76 158.631 69.774
1.77 154.342 69.475
1.78 151.359 69.141
1.79 149.152 68.756
1.80 148.585 69.297
1.81 149.857 71.769
1.82 151.969 74.742
1.83 152.597 76.578
1.84 153.072 77.014
1.85 153.810 76.434
1.86 154.413 75.174
1.87 154.647 72.880
1.88 154.768 68.616
1.89 --undefined-- 62.001
1.90 --undefined-- 56.182
1.91 --undefined-- 58.904
1.92 145.552 65.562
1.93 143.399 70.486
1.94 142.592 72.898
1.95 137.678 72.954
1.96 130.709 71.642
1.97 130.366 70.255
1.98 130.351 68.970
1.99 130.250 67.604
2.00 130.174 65.998
2.01 129.135 63.830
2.02 125.949 60.649
2.03 --undefined-- 55.459
2.04 --undefined-- 47.711
2.05 --undefined-- 39.557
2.06 --undefined-- 34.036
2.07 --undefined-- 32.795
2.08 --undefined-- 35.126
2.09 --undefined-- 38.357
2.10 --undefined-- 50.247
2.11 --undefined-- 61.902
2.12 204.214 68.797
2.13 200.653 71.837
2.14 198.014 72.106
2.15 194.635 71.111
2.16 192.697 70.313
2.17 197.076 70.691
2.18 202.279 72.177
2.19 204.657 73.497
2.20 205.208 73.917
2.21 204.380 73.337
2.22 200.414 71.830
2.23 193.059 69.395
2.24 184.381 65.986
2.25 180.149 61.640
2.26 --undefined-- 56.727
2.27 --undefined-- 53.079
2.28 --undefined-- 52.055
2.29 --undefined-- 52.892
2.30 --undefined-- 53.959
2.31 --undefined-- 54.335
2.32 --undefined-- 54.583
2.33 --undefined-- 56.419
2.34 132.512 58.688
2.35 131.353 59.426
2.36 120.115 59.918
2.37 122.078 61.352
2.38 120.919 62.920
2.39 117.063 63.653
2.40 111.744 63.273
2.41 110.709 62.086
2.42 109.345 61.025
2.43 107.897 60.752
2.44 106.716 60.544
2.45 105.932 60.078
2.46 105.953 59.498
2.47 106.460 59.067
2.48 106.576 58.928
2.49 107.160 59.035
2.50 107.240 59.076
2.51 107.096 58.958
2.52 107.826 58.931
2.53 108.311 59.082
2.54 109.058 59.722
2.55 109.630 61.572
2.56 111.771 63.793
2.57 110.878 64.511
2.58 108.500 63.326
2.59 109.036 62.163
2.60 112.640 64.766
2.61 116.631 69.536
2.62 120.085 73.651
2.63 120.798 76.020
2.64 121.256 76.622
2.65 121.563 76.227
2.66 120.392 75.422
2.67 120.053 74.200
2.68 120.138 72.760
2.69 116.759 71.498
2.70 116.387 70.318
2.71 115.719 69.119
2.72 115.535 67.450
2.73 115.421 65.271
2.74 115.030 63.259
2.75 112.637 61.894
2.76 107.713 60.930
2.77 103.862 61.056
2.78 106.837 63.429
2.79 111.792 66.167
2.80 116.059 68.110
2.81 116.944 69.295
2.82 116.653 69.513
2.83 116.546 68.420
2.84 120.178 66.800
2.85 126.351 66.294
2.86 132.179 66.105
2.87 140.866 65.537
2.88 148.979 65.514
2.89 155.363 66.219
2.90 159.953 67.362
2.91 164.553 68.340
2.92 164.560 68.422
2.93 161.443 67.170
2.94 155.720 64.117
2.95 --undefined-- 59.473
2.96 --undefined-- 57.112
2.97 --undefined-- 57.383
2.98 --undefined-- 57.814
2.99 --undefined-- 58.885
3.00 --undefined-- 60.257
3.01 --undefined-- 61.489
3.02 --undefined-- 60.967
3.03 --undefined-- 58.974
3.04 --undefined-- 62.009
3.05 --undefined-- 67.497
3.06 --undefined-- 69.917
3.07 117.168 70.125
3.08 111.068 70.226
3.09 110.872 70.678
3.10 110.862 71.102
3.11 112.784 71.536
3.12 113.405 72.092
3.13 113.484 72.870
3.14 113.377 73.450
3.15 112.901 73.243
3.16 112.818 72.305
3.17 114.084 71.002
3.18 115.591 69.199
3.19 121.323 66.940
3.20 126.309 64.803
3.21 131.379 63.165
3.22 136.717 62.512
3.23 140.385 62.448
3.24 141.134 62.654
3.25 139.286 63.035
3.26 137.695 63.200
3.27 136.811 62.551
3.28 135.022 60.526
3.29 131.867 56.780
3.30 --undefined-- 51.459
3.31 --undefined-- 47.046
3.32 --undefined-- 45.410
3.33 --undefined-- 44.830
3.34 --undefined-- 47.492
3.35 --undefined-- 55.920
3.36 197.519 63.093
3.37 179.779 67.185
3.38 168.833 69.496
3.39 162.277 71.261
3.40 158.049 72.288
3.41 153.057 72.217
3.42 150.864 71.456
3.43 138.627 70.823
3.44 138.934 70.680
3.45 137.786 70.532
3.46 133.145 69.908
3.47 127.728 69.009
3.48 123.429 68.092
3.49 122.542 66.787
3.50 117.797 65.209
3.51 116.086 63.862
3.52 113.574 62.763
3.53 111.837 61.578
3.54 111.111 59.904
3.55 110.607 57.650
3.56 --undefined-- 54.630
3.57 --undefined-- 50.321
3.58 --undefined-- 44.688
3.59 --undefined-- 39.742
3.60 --undefined-- 40.046
3.61 --undefined-- 40.483
3.62 --undefined-- 39.798
3.63 --undefined-- 38.770
3.64 --undefined-- 37.409
3.65 --undefined-- 35.825
3.66 --undefined-- 35.158
3.67 --undefined-- 36.073
3.68 --undefined-- 36.194
3.69 --undefined-- 34.165
3.70 --undefined-- 30.399
3.71 --undefined-- 28.142
3.72 --undefined-- 28.674
3.73 --undefined-- 29.234
3.74 --undefined-- 29.173
3.75 --undefined-- 28.916
3.76 --undefined-- 29.275
3.77 --undefined-- 29.751
3.78 --undefined-- 30.632
3.79 --undefined-- 31.531
3.80 --undefined-- 31.625
3.81 --undefined-- 31.367
3.82 --undefined-- 30.593
3.83 --undefined-- 31.460
3.84 --undefined-- 46.921
3.85 --undefined-- 59.703
3.86 --undefined-- 66.739
3.87 --undefined-- 69.144
3.88 --undefined-- 67.883
3.89 --undefined-- 64.382
3.90 --undefined-- 60.341
3.91 --undefined-- 61.257
3.92 --undefined-- 64.656
3.93 --undefined-- 67.481
3.94 --undefined-- 69.265
3.95 --undefined-- 69.994
3.96 --undefined-- 69.981
3.97 --undefined-- 68.803
3.98 --undefined-- 66.428
3.99 --undefined-- 62.472
4.00 --undefined-- 55.977
4.01 --undefined-- 48.588
4.02 --undefined-- 44.773
4.03 --undefined-- 44.008
4.04 --undefined-- 52.619
4.05 --undefined-- 59.406
4.06 --undefined-- 64.722
4.07 157.997 70.470
4.08 157.058 74.745
4.09 155.437 77.135
4.10 153.861 78.221
4.11 152.390 78.497
4.12 76.011 78.256
4.13 75.507 78.056
4.14 75.063 78.103
4.15 75.076 77.886
4.16 75.326 77.459
4.17 75.729 77.345
4.18 76.122 77.396
4.19 76.628 77.476
4.20 76.975 77.183
4.21 77.000 75.842
4.22 77.010 73.443
4.23 --undefined-- 70.390
4.24 --undefined-- 66.031
4.25 --undefined-- 59.052
4.26 --undefined-- 49.586
4.27 --undefined-- 42.924
4.28 --undefined-- 44.618
4.29 --undefined-- 47.670
4.30 --undefined-- 49.663
4.31 --undefined-- 51.117
4.32 --undefined-- 52.222
4.33 --undefined-- 52.848
4.34 --undefined-- 52.880
4.35 --undefined-- 52.519
4.36 --undefined-- 51.963
4.37 --undefined-- 51.177
4.38 --undefined-- 50.056
4.39 --undefined-- 48.519
4.40 --undefined-- 46.943
4.41 --undefined-- 45.579
4.42 --undefined-- 44.007
4.43 --undefined-- 41.400
4.44 --undefined-- 37.371
4.45 --undefined-- 32.162
4.46 --undefined-- 31.060
4.47 --undefined-- 34.090
4.48 --undefined-- 36.070
4.49 --undefined-- 37.295
4.50 --undefined-- 39.060
4.51 --undefined-- 41.074
4.52 --undefined-- 42.590
4.53 --undefined-- 43.278
4.54 --undefined-- 43.375
4.55 --undefined-- 43.477
4.56 --undefined-- 43.540
4.57 --undefined-- 43.135
4.58 --undefined-- 42.463
4.59 --undefined-- 42.570
4.60 --undefined-- 43.317
4.61 --undefined-- 43.295
4.62 --undefined-- 42.149
4.63 --undefined-- 40.702
4.64 --undefined-- 39.788
4.65 --undefined-- 39.084
4.66 --undefined-- 38.220
4.67 --undefined-- 37.987
4.68 --undefined-- 38.308
4.69 --undefined-- 37.817
4.70 --undefined-- 35.898
4.71 --undefined-- 33.121
4.72 --undefined-- 31.145
4.73 --undefined-- 30.057
4.74 --undefined-- 31.467
4.75 --undefined-- 39.080
4.76 --undefined-- 44.277
4.77 --undefined-- 46.249
4.78 --undefined-- 47.661
4.79 --undefined-- 49.599
4.80 --undefined-- 51.311
4.81 --undefined-- 53.438
4.82 137.068 55.376
4.83 135.886 56.894
4.84 135.638 58.351
4.85 136.271 59.540
4.86 136.279 60.016
4.87 135.764 60.072
4.88 135.103 60.349
4.89 135.895 60.704
4.90 136.401 60.682
4.91 136.017 60.410
4.92 135.478 59.925
4.93 135.086 59.021
4.94 133.794 57.651
4.95 131.553 55.966
4.96 --undefined-- 54.005
4.97 --undefined-- 51.669
4.98 --undefined-- 50.406
4.99 --undefined-- 50.695
5.00 --undefined-- 51.016
5.01 --undefined-- 51.306
5.02 --undefined-- 52.301
5.03 --undefined-- 53.439
5.04 --undefined-- 53.285
5.05 --undefined-- 51.361
5.06 --undefined-- 47.674
5.07 --undefined-- 42.352
5.08 --undefined-- 35.389
5.09 --undefined-- 30.498
5.10 --undefined-- 29.475
5.11 --undefined-- 28.322
5.12 --undefined-- 26.622
5.13 --undefined-- 24.559
5.14 --undefined-- 24.050
5.15 --undefined-- 35.252
5.16 --undefined-- 47.961
5.17 --undefined-- 55.615
5.18 --undefined-- 59.094
5.19 --undefined-- 58.524
5.20 --undefined-- 53.852
5.21 --undefined-- 49.245
5.22 --undefined-- 56.916
5.23 --undefined-- 62.514
5.24 --undefined-- 65.388
5.25 --undefined-- 66.080
5.26 --undefined-- 64.711
5.27 --undefined-- 61.386
5.28 --undefined-- 56.213
5.29 --undefined-- 49.322
5.30 --undefined-- 45.816
5.31 --undefined-- 52.297
5.32 --undefined-- 60.577
5.33 145.677 66.150
5.34 145.535 68.973
5.35 147.352 70.085
5.36 148.067 70.134
5.37 147.102 68.839
5.38 142.610 65.378
5.39 --undefined-- 58.864
5.40 --undefined-- 50.021
5.41 --undefined-- 45.336
5.42 --undefined-- 45.437
5.43 --undefined-- 47.802
5.44 --undefined-- 50.734
5.45 --undefined-- 52.689
5.46 --undefined-- 53.442
5.47 --undefined-- 52.324
5.48 --undefined-- 48.710
5.49 --undefined-- 44.995
5.50 --undefined-- 52.786
5.51 --undefined-- 60.412
5.52 171.983 64.201
5.53 171.798 64.708
5.54 169.743 62.669
5.55 --undefined-- 58.853
5.56 --undefined-- 53.620
5.57 --undefined-- 49.550
5.58 --undefined-- 47.986
5.59 --undefined-- 47.150
5.60 --undefined-- 45.910
5.61 --undefined-- 45.706
5.62 --undefined-- 46.369
5.63 --undefined-- 46.404
5.64 --undefined-- 46.194
5.65 --undefined-- 45.853
5.66 --undefined-- 49.416
5.67 --undefined-- 53.429
5.68 --undefined-- 53.827
5.69 --undefined-- 51.312
5.70 --undefined-- 49.940
5.71 --undefined-- 49.007
5.72 --undefined-- 45.777
5.73 --undefined-- 43.874
5.74 --undefined-- 44.918
5.75 --undefined-- 44.111
5.76 --undefined-- 42.797
5.77 --undefined-- 43.377
5.78 --undefined-- 43.248
5.79 --undefined-- 44.174
5.80 --undefined-- 48.491
5.81 --undefined-- 52.849
5.82 --undefined-- 56.137
5.83 --undefined-- 58.024
5.84 --undefined-- 59.303
5.85 --undefined-- 60.919
5.86 113.779 62.449
5.87 108.787 63.502
5.88 108.949 63.747
5.89 108.348 63.155
5.90 108.736 61.255
5.91 107.662 57.158
5.92 --undefined-- 51.104
5.93 --undefined-- 43.271
5.94 --undefined-- 36.145
5.95 --undefined-- 34.486
5.96 --undefined-- 40.513
5.97 --undefined-- 46.920
5.98 --undefined-- 49.311
5.99 --undefined-- 47.860
6.00 --undefined-- 43.219
6.01 --undefined-- 43.010
6.02 --undefined-- 49.180
6.03 --undefined-- 53.245
6.04 --undefined-- 54.656
6.05 --undefined-- 54.284
6.06 --undefined-- 52.883
6.07 --undefined-- 51.391
6.08 --undefined-- 49.400
6.09 --undefined-- 44.545
6.10 --undefined-- 36.125
6.11 --undefined-- 31.172
6.12 --undefined-- 36.914
6.13 --undefined-- 41.636
6.14 --undefined-- 47.604
6.15 134.795 54.315
6.16 134.887 60.214
6.17 138.639 64.980
6.18 138.674 68.329
6.19 138.114 70.098
6.20 136.666 70.522
6.21 135.732 70.001
6.22 133.601 68.490
6.23 134.034 65.361
6.24 --undefined-- 60.239
6.25 --undefined-- 53.538
6.26 --undefined-- 47.256
6.27 --undefined-- 44.038
6.28 --undefined-- 42.106
6.29 --undefined-- 41.223
6.30 --undefined-- 40.860
6.31 --undefined-- 40.500
6.32 --undefined-- 40.389
6.33 --undefined-- 41.455
6.34 --undefined-- 42.988
6.35 --undefined-- 43.344
6.36 --undefined-- 42.792
6.37 --undefined-- 42.749
6.38 --undefined-- 42.726
6.39 --undefined-- 42.469
6.40 --undefined-- 42.701
6.41 --undefined-- 42.504
6.42 --undefined-- 42.343
6.43 --undefined-- 42.613
6.44 --undefined-- 42.561
6.45 --undefined-- 42.185
6.46 --undefined-- 41.558
6.47 --undefined-- 41.284
6.48 --undefined-- 41.729
6.49 --undefined-- 41.776
6.50 --undefined-- 41.206
6.51 --undefined-- 40.305
6.52 --undefined-- 39.522
6.53 --undefined-- 39.336
6.54 --undefined-- 39.328
6.55 --undefined-- 39.392
6.56 --undefined-- 39.023
6.57 --undefined-- 37.416
6.58 --undefined-- 35.432
6.59 --undefined-- 33.991
6.60 --undefined-- 33.156
6.61 --undefined-- 32.718
6.62 --undefined-- 31.356
6.63 --undefined-- 29.145
6.64 --undefined-- 27.937
6.65 --undefined-- 28.200
6.66 --undefined-- 28.807
6.67 --undefined-- 30.625
6.68 --undefined-- 37.717
6.69 --undefined-- 46.755
6.70 --undefined-- 56.157
6.71 178.617 63.467
6.72 177.123 67.378
6.73 160.489 68.793
6.74 157.755 70.145
6.75 157.177 71.693
6.76 156.715 72.408
6.77 157.910 72.349
6.78 160.330 --undefined--
6.79 170.984 --undefined--
6.80 --undefined-- --undefined--
6.81 --undefined-- --undefined--
