Time Pitch Intensity
0.01 --undefined-- --undefined--
0.02 172.085 --undefined--
0.03 172.670 --undefined--
0.04 172.603 --undefined--
0.05 172.002 70.053
0.06 170.864 69.845
0.07 169.932 69.496
0.08 169.314 69.015
0.09 168.125 68.341
0.10 166.380 67.507
0.11 164.251 66.829
0.12 162.069 66.648
0.13 159.013 67.183
0.14 154.709 68.015
0.15 146.280 68.246
0.16 139.763 67.637
0.17 132.173 66.703
0.18 127.541 66.179
0.19 120.256 65.847
0.20 115.080 65.078
0.21 112.828 63.826
0.22 109.579 62.767
0.23 109.178 62.933
0.24 111.927 64.267
0.25 114.196 65.482
0.26 112.953 66.204
0.27 110.959 66.546
0.28 112.795 66.700
0.29 115.238 66.426
0.30 115.571 65.165
0.31 111.417 62.464
0.32 107.137 57.920
0.33 --undefined-- 52.332
0.34 --undefined-- 47.940
0.35 --undefined-- 43.777
0.36 --undefined-- 41.402
0.37 --undefined-- 41.939
0.38 --undefined-- 45.929
0.39 --undefined-- 53.834
0.40 --undefined-- 59.989
0.41 127.055 63.925
0.42 121.155 66.175
0.43 119.386 67.367
0.44 119.375 67.938
0.45 119.800 68.253
0.46 121.591 68.637
0.47 124.053 69.050
0.48 126.188 69.090
0.49 128.051 68.297
0.50 129.606 66.440
0.51 131.070 63.171
0.52 126.780 58.101
0.53 126.496 51.785
0.54 --undefined-- 47.997
0.55 --undefined-- 47.219
0.56 --undefined-- 47.349
0.57 --undefined-- 49.335
0.58 --undefined-- 55.177
0.59 --undefined-- 61.576
0.60 --undefined-- 65.120
0.61 119.635 66.090
0.62 112.213 65.699
0.63 105.743 64.990
0.64 102.125 64.081
0.65 96.321 63.227
0.66 92.537 62.259
0.67 92.308 61.165
0.68 92.330 60.584
0.69 91.942 60.487
0.70 92.225 60.635
0.71 94.503 60.946
0.72 95.831 61.277
0.73 97.135 61.587
0.74 100.044 62.026
0.75 103.009 62.654
0.76 104.934 63.196
0.77 105.379 63.610
0.78 106.717 63.937
0.79 105.678 63.987
0.80 103.363 63.824
0.81 98.388 63.349
0.82 88.948 62.230
0.83 83.590 60.865
0.84 83.549 60.030
0.85 --undefined-- 59.937
0.86 --undefined-- 60.036
0.87 --undefined-- 60.605
0.88 --undefined-- 62.045
0.89 --undefined-- 63.351
0.90 137.317 64.370
0.91 141.781 65.712
0.92 144.469 67.258
0.93 148.117 68.356
0.94 149.865 69.082
0.95 151.358 69.530
0.96 153.446 69.679
0.97 154.353 69.583
0.98 160.703 69.438
0.99 158.915 69.377
1.00 158.805 69.393
1.01 158.883 69.592
1.02 157.961 69.835
1.03 158.005 69.732
1.04 158.317 69.199
1.05 158.169 68.560
1.06 158.877 68.131
1.07 160.551 68.052
1.08 162.631 68.308
1.09 163.953 68.787
1.10 163.432 69.267
1.11 161.603 69.590
1.12 160.562 69.686
1.13 160.760 69.569
1.14 160.984 69.366
1.15 160.786 69.121
1.16 160.318 68.845
1.17 159.344 68.551
1.18 157.592 68.192
1.19 156.481 67.821
1.20 156.813 67.771
1.21 157.239 68.222
1.22 157.235 68.834
1.23 155.604 69.243
1.24 150.609 69.181
1.25 143.255 68.544
1.26 136.985 67.697
1.27 130.554 67.067
1.28 123.818 66.648
1.29 119.830 66.170
1.30 116.597 65.170
1.31 110.930 63.447
1.32 106.956 61.161
1.33 102.961 58.592
1.34 101.252 56.087
1.35 106.900 54.297
1.36 133.448 53.312
1.37 146.677 53.154
1.38 144.323 55.981
1.39 139.483 60.910
1.40 136.483 64.687
1.41 131.157 66.880
1.42 128.077 68.269
1.43 123.465 69.104
1.44 121.177 69.203
1.45 120.296 68.082
1.46 118.845 65.088
1.47 112.212 60.834
1.48 --undefined-- 56.887
1.49 --undefined-- 51.988
1.50 --undefined-- 45.893
1.51 --undefined-- 42.847
1.52 --undefined-- 45.055
1.53 --undefined-- 47.290
1.54 --undefined-- 51.142
1.55 --undefined-- 55.365
1.56 --undefined-- 56.171
1.57 --undefined-- 55.888
1.58 --undefined-- 59.486
1.59 --undefined-- 62.729
1.60 111.497 64.536
1.61 92.962 65.443
1.62 82.261 65.442
1.63 81.644 64.484
1.64 99.909 63.021
1.65 98.277 62.172
1.66 93.005 61.825
1.67 94.955 61.331
1.68 97.305 60.565
1.69 99.316 59.907
1.70 101.988 59.262
1.71 102.158 58.761
1.72 102.814 58.793
1.73 101.166 58.168
1.74 99.732 55.896
1.75 101.211 52.277
1.76 --undefined-- 48.766
1.77 --undefined-- 44.981
1.78 --undefined-- 41.875
1.79 --undefined-- 41.656
1.80 --undefined-- 41.071
1.81 --undefined-- 45.076
1.82 --undefined-- 54.773
1.83 166.721 61.632
1.84 154.929 65.575
1.85 149.922 67.412
1.86 146.230 67.690
1.87 143.375 67.434
1.88 142.629 67.530
1.89 142.776 67.794
1.90 143.195 67.944
1.91 143.525 67.956
1.92 144.408 67.931
1.93 145.089 67.979
1.94 144.290 67.984
1.95 143.852 67.732
1.96 143.399 67.117
1.97 142.173 66.232
1.98 139.581 65.904
1.99 144.535 66.938
2.00 147.203 68.085
2.01 148.626 68.656
2.02 149.467 68.877
2.03 150.295 69.064
2.04 152.605 69.359
2.05 153.785 69.672
2.06 152.860 69.734
2.07 151.537 69.349
2.08 148.537 68.414
2.09 147.301 66.684
2.10 147.601 63.763
2.11 158.493 59.457
2.12 150.690 53.795
2.13 --undefined-- 47.359
2.14 --undefined-- 43.622
2.15 --undefined-- 43.550
2.16 --undefined-- 43.835
2.17 --undefined-- 44.024
2.18 --undefined-- 44.405
2.19 --undefined-- 45.102
2.20 --undefined-- 45.849
2.21 --undefined-- 46.222
2.22 --undefined-- 46.561
2.23 --undefined-- 46.416
2.24 --undefined-- 45.543
2.25 --undefined-- 44.915
2.26 --undefined-- 44.205
2.27 --undefined-- 42.893
2.28 --undefined-- 40.762
2.29 --undefined-- 37.929
2.30 --undefined-- 36.082
2.31 --undefined-- 36.247
2.32 --undefined-- 37.133
2.33 --undefined-- 37.507
2.34 --undefined-- 36.632
2.35 --undefined-- 34.412
2.36 --undefined-- 32.511
2.37 --undefined-- 33.948
2.38 --undefined-- 36.459
2.39 --undefined-- 41.765
2.40 --undefined-- 52.038
2.41 --undefined-- 59.804
2.42 140.228 64.424
2.43 136.511 66.899
2.44 131.952 68.369
2.45 129.653 69.587
2.46 130.933 70.537
2.47 136.544 71.114
2.48 141.848 71.788
2.49 145.515 72.656
2.50 150.684 73.093
2.51 157.214 72.716
2.52 162.269 71.789
2.53 163.708 70.857
2.54 165.659 70.151
2.55 167.156 69.721
2.56 169.285 69.587
2.57 171.141 69.760
2.58 169.529 70.003
2.59 163.919 69.849
2.60 159.116 69.861
2.61 156.079 70.223
2.62 150.200 70.455
2.63 136.024 70.895
2.64 131.864 71.235
2.65 128.998 71.253
2.66 127.866 70.981
2.67 126.396 69.484
2.68 118.621 66.054
2.69 109.557 61.395
2.70 108.505 56.660
2.71 --undefined-- 50.972
2.72 --undefined-- 46.487
2.73 --undefined-- 48.740
2.74 --undefined-- 51.018
2.75 --undefined-- 51.109
2.76 --undefined-- 51.326
2.77 --undefined-- 52.176
2.78 --undefined-- 52.109
2.79 --undefined-- 51.977
2.80 181.805 57.432
2.81 172.069 63.885
2.82 169.498 67.787
2.83 163.639 69.605
2.84 156.154 70.282
2.85 149.625 70.720
2.86 147.071 71.170
2.87 145.280 71.379
2.88 144.096 71.424
2.89 143.555 71.334
2.90 144.624 70.873
2.91 148.551 70.285
2.92 152.105 70.298
2.93 152.488 70.448
2.94 150.194 69.747
2.95 144.362 67.979
2.96 132.421 65.251
2.97 120.861 62.230
2.98 --undefined-- 61.716
2.99 --undefined-- 63.602
3.00 --undefined-- 65.043
3.01 --undefined-- 66.149
3.02 153.402 67.096
3.03 152.589 67.795
3.04 142.528 68.125
3.05 134.571 68.508
3.06 132.244 69.495
3.07 131.507 70.761
3.08 131.664 71.919
3.09 131.173 72.625
3.10 130.983 72.842
3.11 131.920 72.760
3.12 133.316 72.428
3.13 133.918 71.801
3.14 133.412 70.588
3.15 124.697 68.371
3.16 119.863 64.930
3.17 114.458 60.059
3.18 --undefined-- 53.496
3.19 --undefined-- 46.499
3.20 --undefined-- 42.844
3.21 --undefined-- 41.186
3.22 --undefined-- 39.497
3.23 --undefined-- 37.407
3.24 --undefined-- 37.413
3.25 --undefined-- 40.703
3.26 --undefined-- 43.982
3.27 --undefined-- 46.099
3.28 --undefined-- 47.678
3.29 --undefined-- 48.166
3.30 --undefined-- 50.490
3.31 --undefined-- 56.947
3.32 146.427 62.354
3.33 136.500 65.533
3.34 121.605 67.172
3.35 115.676 68.076
3.36 114.157 68.629
3.37 115.015 68.841
3.38 116.969 68.613
3.39 119.072 67.872
3.40 120.246 66.846
3.41 124.390 66.458
3.42 130.084 67.472
3.43 134.517 69.111
3.44 136.442 70.309
3.45 135.314 70.828
3.46 135.212 71.162
3.47 135.765 71.356
3.48 135.785 71.090
3.49 135.931 70.316
3.50 135.754 69.359
3.51 138.542 68.397
3.52 142.867 66.802
3.53 146.911 63.809
3.54 140.162 59.579
3.55 --undefined-- 58.107
3.56 --undefined-- 59.099
3.57 --undefined-- 58.096
3.58 --undefined-- 54.423
3.59 --undefined-- 49.825
3.60 --undefined-- 54.412
3.61 --undefined-- 62.153
3.62 --undefined-- 66.683
3.63 --undefined-- 68.538
3.64 114.004 68.923
3.65 108.416 68.842
3.66 103.040 68.423
3.67 100.949 67.962
3.68 100.160 67.703
3.69 99.221 67.166
3.70 97.447 66.364
3.71 95.734 66.045
3.72 94.623 66.034
3.73 93.638 66.152
3.74 93.366 66.327
3.75 93.455 66.188
3.76 95.382 65.885
3.77 96.122 65.787
3.78 97.130 65.918
3.79 98.273 65.851
3.80 99.837 64.753
3.81 93.910 61.870
3.82 93.949 57.316
3.83 92.743 52.359
3.84 --undefined-- 48.136
3.85 --undefined-- 44.401
3.86 --undefined-- 40.299
3.87 --undefined-- 39.098
3.88 --undefined-- 38.410
3.89 --undefined-- 35.796
3.90 --undefined-- 33.652
3.91 --undefined-- 39.297
3.92 --undefined-- 51.266
3.93 --undefined-- 60.225
3.94 178.498 65.691
3.95 164.802 68.490
3.96 158.895 69.605
3.97 156.351 69.871
3.98 155.844 69.853
3.99 158.430 70.042
4.00 157.901 70.389
4.01 155.725 70.563
4.02 155.330 70.626
4.03 154.347 70.664
4.04 152.801 70.557
4.05 151.406 70.133
4.06 149.078 69.129
4.07 147.454 67.387
4.08 155.370 65.187
4.09 161.207 63.187
4.10 161.866 61.886
4.11 163.171 61.466
4.12 163.088 62.168
4.13 158.110 64.277
4.14 152.980 66.684
4.15 146.970 68.252
4.16 141.821 69.174
4.17 138.963 69.703
4.18 135.278 69.697
4.19 130.346 69.237
4.20 126.539 68.868
4.21 125.582 68.848
4.22 121.208 69.125
4.23 117.085 69.317
4.24 113.951 69.219
4.25 112.664 69.171
4.26 111.938 69.086
4.27 109.282 68.394
4.28 103.887 66.675
4.29 84.483 64.166
4.30 --undefined-- 60.956
4.31 --undefined-- 56.644
4.32 --undefined-- 53.164
4.33 --undefined-- 49.217
4.34 --undefined-- 44.147
4.35 --undefined-- 43.066
4.36 --undefined-- 45.853
4.37 --undefined-- 49.853
4.38 --undefined-- 54.754
4.39 132.141 58.552
4.40 126.530 60.571
4.41 130.781 62.280
4.42 139.713 64.582
4.43 143.575 66.813
4.44 139.023 68.353
4.45 129.927 69.350
4.46 121.491 69.880
4.47 118.629 69.770
4.48 118.324 69.452
4.49 118.868 69.608
4.50 121.215 69.681
4.51 121.200 68.840
4.52 120.850 66.830
4.53 121.578 63.551
4.54 121.790 58.759
4.55 --undefined-- 52.790
4.56 --undefined-- 47.391
4.57 --undefined-- 43.888
4.58 --undefined-- 42.006
4.59 --undefined-- 41.255
4.60 --undefined-- 41.669
4.61 --undefined-- 46.184
4.62 --undefined-- 55.061
4.63 --undefined-- 61.355
4.64 126.437 65.094
4.65 114.689 67.096
4.66 109.928 68.187
4.67 109.801 68.799
4.68 110.478 69.135
4.69 113.204 69.396
4.70 116.940 69.731
4.71 120.043 70.051
4.72 123.692 70.256
4.73 126.386 70.138
4.74 130.257 69.158
4.75 132.257 66.861
4.76 133.597 63.514
4.77 150.536 59.842
4.78 162.485 55.236
4.79 --undefined-- 49.579
4.80 --undefined-- 45.317
4.81 --undefined-- 43.173
4.82 --undefined-- 44.368
4.83 --undefined-- 51.831
4.84 --undefined-- 59.762
4.85 --undefined-- 64.758
4.86 --undefined-- 66.934
4.87 131.293 67.477
4.88 119.816 67.531
4.89 112.838 67.339
4.90 108.179 66.842
4.91 104.551 66.249
4.92 101.528 65.731
4.93 99.070 65.491
4.94 98.083 65.511
4.95 98.420 65.493
4.96 98.924 65.308
4.97 99.079 65.012
4.98 99.255 64.310
4.99 98.531 62.970
5.00 98.828 61.886
5.01 102.759 62.550
5.02 107.467 64.079
5.03 111.290 65.717
5.04 113.115 66.957
5.05 117.050 67.275
5.06 118.253 67.342
5.07 113.940 67.740
5.08 112.837 67.919
5.09 110.661 67.740
5.10 109.681 67.381
5.11 106.450 67.095
5.12 105.825 66.870
5.13 105.287 66.351
5.14 104.636 65.734
5.15 103.232 65.238
5.16 102.224 64.698
5.17 101.378 64.139
5.18 100.718 63.577
5.19 100.248 62.948
5.20 98.794 62.080
5.21 97.189 60.510
5.22 96.958 57.681
5.23 100.396 53.673
5.24 --undefined-- 49.714
5.25 --undefined-- 45.873
5.26 --undefined-- 42.840
5.27 --undefined-- 49.636
5.28 --undefined-- 57.487
5.29 --undefined-- 62.086
5.30 105.522 64.354
5.31 101.940 65.347
5.32 101.872 65.682
5.33 101.488 65.408
5.34 100.226 64.475
5.35 100.537 64.063
5.36 105.698 64.827
5.37 109.035 65.823
5.38 112.158 --undefined--
5.39 114.326 --undefined--
5.40 --undefined-- --undefined--
5.41 --undefined-- --undefined--
