Time Pitch Intensity
0.01 --undefined-- --undefined--
0.02 114.445 --undefined--
0.03 113.997 --undefined--
0.04 --undefined-- --undefined--
0.05 --undefined-- 58.588
0.06 --undefined-- 49.121
0.07 --undefined-- 39.777
0.08 --undefined-- 39.827
0.09 --undefined-- 52.337
0.10 --undefined-- 61.459
0.11 --undefined-- 66.903
0.12 --undefined-- 70.702
0.13 --undefined-- 72.816
0.14 91.733 72.700
0.15 91.449 71.310
0.16 89.880 70.079
0.17 86.856 69.306
0.18 85.794 68.865
0.19 85.526 68.600
0.20 86.072 68.094
0.21 87.924 66.774
0.22 --undefined-- 64.184
0.23 --undefined-- 60.535
0.24 --undefined-- 56.330
0.25 --undefined-- 50.720
0.26 --undefined-- 42.854
0.27 --undefined-- 37.776
0.28 --undefined-- 37.763
0.29 --undefined-- 48.096
0.30 --undefined-- 57.530
0.31 --undefined-- 64.320
0.32 --undefined-- 68.598
0.33 --undefined-- 70.392
0.34 110.834 70.532
0.35 109.935 70.049
0.36 109.638 69.685
0.37 110.007 69.537
0.38 110.820 69.418
0.39 112.050 69.151
0.40 113.447 68.643
0.41 114.466 67.782
0.42 114.149 66.384
0.43 112.588 64.533
0.44 --undefined-- 64.190
0.45 --undefined-- 66.333
0.46 --undefined-- 67.651
0.47 --undefined-- 68.525
0.48 --undefined-- 69.456
0.49 --undefined-- 70.788
0.50 --undefined-- 72.331
0.51 --undefined-- 72.456
0.52 --undefined-- 69.794
0.53 --undefined-- 64.204
0.54 --undefined-- 61.310
0.55 --undefined-- 63.547
0.56 104.768 64.520
0.57 100.864 64.079
0.58 96.847 63.284
0.59 92.897 62.844
0.60 89.649 62.696
0.61 88.007 62.800
0.62 87.874 63.563
0.63 88.312 64.612
0.64 89.744 64.981
0.65 90.074 64.023
0.66 86.201 61.810
0.67 84.927 59.306
0.68 86.525 58.438
0.69 89.941 60.076
0.70 93.826 63.641
0.71 98.278 67.060
0.72 99.236 68.963
0.73 98.944 69.553
0.74 98.951 69.584
0.75 99.534 69.302
0.76 100.423 68.910
0.77 100.889 68.650
0.78 101.053 68.442
0.79 99.522 68.606
0.80 98.178 68.917
0.81 97.819 68.752
0.82 96.567 68.150
0.83 95.081 67.395
0.84 94.970 66.303
0.85 95.493 64.176
0.86 --undefined-- 60.400
0.87 --undefined-- 55.045
0.88 --undefined-- 49.118
0.89 --undefined-- 43.582
0.90 --undefined-- 43.694
0.91 --undefined-- 48.120
0.92 --undefined-- 53.726
0.93 --undefined-- 60.213
0.94 97.268 65.092
0.95 97.204 67.829
0.96 --undefined-- 68.773
0.97 --undefined-- 68.959
0.98 85.072 68.575
0.99 82.936 67.043
1.00 83.509 65.061
1.01 83.862 64.263
1.02 87.515 64.000
1.03 87.595 63.559
1.04 86.346 62.500
1.05 84.694 60.733
1.06 84.964 59.316
1.07 85.231 58.487
1.08 85.312 57.497
1.09 85.921 56.124
1.10 85.826 54.175
1.11 --undefined-- 50.959
1.12 --undefined-- 45.946
1.13 --undefined-- 40.047
1.14 --undefined-- 38.160
1.15 --undefined-- 38.941
1.16 --undefined-- 37.862
1.17 --undefined-- 35.288
1.18 --undefined-- 34.028
1.19 --undefined-- 35.301
1.20 --undefined-- 35.402
1.21 --undefined-- 34.711
1.22 --undefined-- 35.938
1.23 --undefined-- 37.276
1.24 --undefined-- 39.881
1.25 --undefined-- 48.532
1.26 --undefined-- 55.928
1.27 --undefined-- 61.429
1.28 --undefined-- 65.259
1.29 --undefined-- 68.661
1.30 --undefined-- 72.346
1.31 --undefined-- 74.014
1.32 --undefined-- 72.916
1.33 --undefined-- 69.432
1.34 --undefined-- 63.272
1.35 --undefined-- 53.177
1.36 --undefined-- 40.731
1.37 --undefined-- 44.037
1.38 --undefined-- 51.716
1.39 --undefined-- 54.881
1.40 --undefined-- 53.417
1.41 --undefined-- 47.813
1.42 --undefined-- 46.683
1.43 --undefined-- 51.709
1.44 --undefined-- 55.393
1.45 --undefined-- 59.627
1.46 --undefined-- 64.554
1.47 --undefined-- 67.165
1.48 --undefined-- 67.149
1.49 95.178 65.404
1.50 94.546 62.767
1.51 90.269 59.328
1.52 --undefined-- 54.451
1.53 --undefined-- 48.400
1.54 --undefined-- 45.399
1.55 --undefined-- 45.550
1.56 --undefined-- 45.997
1.57 --undefined-- 45.635
1.58 --undefined-- 44.702
1.59 --undefined-- 44.104
1.60 --undefined-- 44.250
1.61 --undefined-- 46.687
1.62 --undefined-- 51.542
1.63 --undefined-- 55.046
1.64 --undefined-- 59.334
1.65 --undefined-- 64.394
1.66 --undefined-- 67.560
1.67 --undefined-- 68.600
1.68 --undefined-- 68.232
1.69 --undefined-- 67.085
1.70 --undefined-- 64.544
1.71 --undefined-- 59.044
1.72 --undefined-- 49.120
1.73 --undefined-- 37.091
1.74 --undefined-- 34.718
1.75 --undefined-- 34.777
1.76 --undefined-- 34.966
1.77 --undefined-- 35.646
1.78 --undefined-- 37.761
1.79 --undefined-- 38.825
1.80 --undefined-- 37.842
1.81 --undefined-- 35.961
1.82 --undefined-- 35.186
1.83 --undefined-- 35.803
1.84 --undefined-- 37.031
1.85 --undefined-- 37.189
1.86 --undefined-- 35.960
1.87 --undefined-- 35.264
1.88 --undefined-- 35.786
1.89 --undefined-- 36.208
1.90 --undefined-- 35.744
1.91 --undefined-- 34.587
1.92 --undefined-- 34.652
1.93 --undefined-- 36.144
1.94 --undefined-- 37.350
1.95 --undefined-- 37.611
1.96 --undefined-- 37.506
1.97 --undefined-- 37.227
1.98 --undefined-- 36.816
1.99 --undefined-- 36.370
2.00 --undefined-- 36.099
2.01 --undefined-- 36.370
2.02 --undefined-- 36.123
2.03 --undefined-- 35.883
2.04 --undefined-- 37.069
2.05 --undefined-- 37.249
2.06 --undefined-- 36.201
2.07 --undefined-- 38.244
2.08 --undefined-- 47.846
2.09 --undefined-- 56.264
2.10 --undefined-- 60.144
2.11 --undefined-- 60.150
2.12 --undefined-- 58.620
2.13 --undefined-- 60.614
2.14 --undefined-- 64.028
2.15 --undefined-- 66.615
2.16 --undefined-- 67.480
2.17 --undefined-- 66.101
2.18 --undefined-- 64.169
2.19 --undefined-- 63.756
2.20 133.592 63.568
2.21 134.243 64.042
2.22 134.650 65.135
2.23 133.400 65.929
2.24 131.428 65.838
2.25 127.656 65.926
2.26 116.748 67.751
2.27 116.766 69.789
2.28 104.856 70.412
2.29 105.119 69.589
2.30 105.399 67.527
2.31 102.289 64.393
2.32 99.770 61.064
2.33 --undefined-- 58.606
2.34 --undefined-- 56.464
2.35 --undefined-- 56.622
2.36 --undefined-- 57.519
2.37 --undefined-- 57.470
2.38 --undefined-- 62.517
2.39 --undefined-- 67.881
2.40 116.292 71.069
2.41 112.968 72.704
2.42 115.191 73.160
2.43 119.429 72.746
2.44 122.742 71.575
2.45 123.503 69.137
2.46 --undefined-- 64.371
2.47 --undefined-- 56.134
2.48 --undefined-- 45.031
2.49 --undefined-- 40.059
2.50 --undefined-- 38.569
2.51 --undefined-- 36.993
2.52 --undefined-- 34.987
2.53 --undefined-- 34.741
2.54 --undefined-- 38.321
2.55 --undefined-- 51.024
2.56 --undefined-- 62.587
2.57 --undefined-- 70.273
2.58 --undefined-- 74.476
2.59 --undefined-- 76.030
2.60 130.810 76.037
2.61 129.198 75.391
2.62 127.647 74.463
2.63 127.008 73.439
2.64 127.523 72.539
2.65 128.447 71.698
2.66 129.182 70.529
2.67 131.088 69.394
2.68 132.974 69.213
2.69 132.029 69.264
2.70 130.575 68.167
2.71 128.481 65.405
2.72 --undefined-- 60.718
2.73 --undefined-- 53.784
2.74 --undefined-- 45.339
2.75 --undefined-- 40.014
2.76 --undefined-- 39.078
2.77 --undefined-- 39.655
2.78 --undefined-- 48.196
2.79 --undefined-- 57.871
2.80 --undefined-- 63.456
2.81 --undefined-- 65.371
2.82 --undefined-- 64.579
2.83 --undefined-- 64.186
2.84 --undefined-- 67.964
2.85 142.277 71.431
2.86 137.019 72.674
2.87 136.917 72.791
2.88 136.639 72.760
2.89 136.108 72.221
2.90 135.398 70.852
2.91 134.778 68.559
2.92 134.287 65.014
2.93 132.751 60.505
2.94 126.992 58.701
2.95 119.718 61.744
2.96 --undefined-- 66.471
2.97 --undefined-- 69.387
2.98 97.787 70.355
2.99 84.845 70.454
3.00 78.618 69.910
3.01 --undefined-- 68.126
3.02 --undefined-- 64.326
3.03 --undefined-- 58.117
3.04 --undefined-- 50.528
3.05 --undefined-- 43.198
3.06 --undefined-- 39.699
3.07 --undefined-- 38.384
3.08 --undefined-- 38.721
3.09 --undefined-- 41.563
3.10 --undefined-- 48.019
3.11 --undefined-- 55.246
3.12 --undefined-- 60.129
3.13 --undefined-- 63.528
3.14 --undefined-- 67.997
3.15 --undefined-- 72.416
3.16 137.420 74.569
3.17 135.816 74.756
3.18 133.079 73.961
3.19 130.866 72.515
3.20 129.600 69.659
3.21 129.715 64.524
3.22 132.638 57.946
3.23 131.751 55.890
3.24 131.541 56.411
3.25 131.026 56.453
3.26 130.988 56.059
3.27 129.332 56.292
3.28 128.183 60.103
3.29 124.797 64.854
3.30 120.011 67.936
3.31 115.673 69.096
3.32 112.753 68.181
3.33 106.215 65.286
3.34 101.487 61.733
3.35 97.907 58.474
3.36 98.279 54.600
3.37 --undefined-- 51.281
3.38 --undefined-- 50.786
3.39 --undefined-- 51.952
3.40 --undefined-- 54.181
3.41 --undefined-- 57.106
3.42 97.942 59.756
3.43 98.495 61.467
3.44 96.536 62.401
3.45 97.286 63.206
3.46 97.444 64.035
3.47 100.272 64.987
3.48 101.911 65.931
3.49 103.086 65.825
3.50 --undefined-- 63.659
3.51 --undefined-- 59.105
3.52 --undefined-- 52.859
3.53 --undefined-- 57.810
3.54 --undefined-- 65.111
3.55 --undefined-- 67.892
3.56 --undefined-- 67.611
3.57 --undefined-- 66.421
3.58 --undefined-- 65.344
3.59 --undefined-- 67.421
3.60 --undefined-- 70.088
3.61 --undefined-- 70.519
3.62 --undefined-- 68.766
3.63 103.100 65.519
3.64 100.021 62.395
3.65 98.002 60.823
3.66 96.488 59.987
3.67 95.894 58.959
3.68 96.756 57.391
3.69 --undefined-- 54.564
3.70 --undefined-- 49.358
3.71 --undefined-- 42.555
3.72 --undefined-- 52.076
3.73 --undefined-- 61.374
3.74 --undefined-- 66.913
3.75 --undefined-- 70.594
3.76 --undefined-- 72.681
3.77 92.454 73.027
3.78 90.922 72.138
3.79 90.041 70.753
3.80 89.272 69.578
3.81 90.008 68.218
3.82 --undefined-- 65.511
3.83 --undefined-- 61.146
3.84 --undefined-- 55.933
3.85 --undefined-- 51.059
3.86 --undefined-- 49.120
3.87 --undefined-- 49.781
3.88 111.800 52.157
3.89 112.656 55.995
3.90 116.017 59.522
3.91 110.062 62.034
3.92 109.172 63.899
3.93 107.938 65.410
3.94 106.792 66.274
3.95 104.808 66.489
3.96 102.880 65.891
3.97 102.016 64.792
3.98 102.035 64.201
3.99 102.126 64.199
4.00 101.502 64.917
4.01 101.118 66.897
4.02 99.423 69.298
4.03 98.426 70.568
4.04 95.586 70.806
4.05 93.572 71.194
4.06 90.628 71.128
4.07 89.085 70.684
4.08 86.095 70.532
4.09 83.945 70.187
4.10 83.264 69.463
4.11 82.056 68.922
4.12 82.009 68.572
4.13 83.690 67.941
4.14 --undefined-- 66.844
4.15 --undefined-- 64.863
4.16 --undefined-- 61.617
4.17 91.937 58.044
4.18 95.191 55.306
4.19 93.025 57.848
4.20 --undefined-- 64.534
4.21 98.715 68.713
4.22 100.451 70.117
4.23 101.438 69.979
4.24 104.685 69.811
4.25 104.770 68.993
4.26 103.903 66.506
4.27 --undefined-- 62.619
4.28 --undefined-- 58.556
4.29 --undefined-- 54.727
4.30 --undefined-- 50.230
4.31 --undefined-- 44.154
4.32 --undefined-- 38.321
4.33 --undefined-- 35.544
4.34 --undefined-- 35.513
4.35 --undefined-- 39.063
4.36 --undefined-- 42.565
4.37 --undefined-- 44.821
4.38 --undefined-- 46.394
4.39 --undefined-- 48.293
4.40 --undefined-- 50.184
4.41 --undefined-- 51.225
4.42 --undefined-- 51.804
4.43 --undefined-- 53.338
4.44 --undefined-- 54.151
4.45 --undefined-- 53.317
4.46 --undefined-- 52.625
4.47 --undefined-- 52.717
4.48 --undefined-- 53.041
4.49 --undefined-- 53.441
4.50 --undefined-- 53.707
4.51 --undefined-- 54.490
4.52 --undefined-- 55.457
4.53 --undefined-- 55.883
4.54 --undefined-- 55.347
4.55 --undefined-- 54.006
4.56 --undefined-- 53.039
4.57 --undefined-- 52.456
4.58 --undefined-- 51.794
4.59 --undefined-- 51.314
4.60 --undefined-- 50.501
4.61 --undefined-- 48.604
4.62 --undefined-- 46.212
4.63 --undefined-- 44.087
4.64 --undefined-- 41.961
4.65 --undefined-- 40.055
4.66 --undefined-- 38.794
4.67 --undefined-- 38.271
4.68 --undefined-- 38.672
4.69 --undefined-- 43.403
4.70 --undefined-- 49.185
4.71 --undefined-- 52.758
4.72 --undefined-- 55.194
4.73 --undefined-- 58.039
4.74 --undefined-- 61.136
4.75 --undefined-- 63.336
4.76 --undefined-- 64.101
4.77 --undefined-- 63.915
4.78 --undefined-- 63.726
4.79 --undefined-- 64.081
4.80 --undefined-- 66.326
4.81 --undefined-- 69.750
4.82 126.221 71.900
4.83 126.680 72.391
4.84 127.760 71.919
4.85 128.553 71.321
4.86 128.488 71.083
4.87 128.118 71.461
4.88 127.373 72.005
4.89 125.019 71.864
4.90 124.134 71.411
4.91 124.344 71.624
4.92 124.440 72.039
4.93 124.286 72.142
4.94 123.796 71.959
4.95 123.367 71.340
4.96 123.228 69.975
4.97 123.576 67.361
4.98 --undefined-- 62.691
4.99 --undefined-- 55.122
5.00 --undefined-- 45.839
5.01 --undefined-- 41.688
5.02 --undefined-- 40.792
5.03 --undefined-- 45.673
5.04 --undefined-- 53.627
5.05 --undefined-- 57.639
5.06 --undefined-- 58.049
5.07 --undefined-- 56.556
5.08 --undefined-- 57.395
5.09 --undefined-- 62.911
5.10 123.644 67.428
5.11 121.965 69.619
5.12 120.807 70.396
5.13 117.604 70.447
5.14 117.210 70.248
5.15 116.693 70.046
5.16 115.969 69.177
5.17 115.043 67.391
5.18 115.853 65.973
5.19 115.649 67.128
5.20 115.984 70.210
5.21 115.959 71.999
5.22 116.032 71.751
5.23 114.958 70.492
5.24 113.642 69.431
5.25 111.238 68.693
5.26 109.275 67.578
5.27 103.603 65.039
5.28 --undefined-- 60.236
5.29 --undefined-- 52.962
5.30 --undefined-- 48.704
5.31 --undefined-- 52.614
5.32 --undefined-- 57.979
5.33 --undefined-- 63.522
5.34 --undefined-- 68.015
5.35 --undefined-- 70.543
5.36 --undefined-- 71.153
5.37 94.767 70.421
5.38 92.795 68.924
5.39 92.318 67.233
5.40 91.423 65.633
5.41 90.505 63.794
5.42 89.613 61.356
5.43 89.060 58.633
5.44 89.144 56.654
5.45 88.642 55.410
5.46 88.054 54.656
5.47 87.932 54.300
5.48 86.805 55.026
5.49 87.141 57.121
5.50 92.659 59.422
5.51 93.591 61.541
5.52 93.864 63.144
5.53 93.923 63.940
5.54 94.668 64.195
5.55 95.552 64.136
5.56 96.470 63.618
5.57 96.962 62.385
5.58 97.134 60.189
5.59 --undefined-- 56.438
5.60 --undefined-- 49.906
5.61 --undefined-- 41.489
5.62 --undefined-- 38.267
5.63 --undefined-- 37.208
5.64 --undefined-- 40.873
5.65 --undefined-- 53.184
5.66 --undefined-- 60.317
5.67 --undefined-- 62.940
5.68 --undefined-- 63.011
5.69 --undefined-- 63.473
5.70 99.472 64.331
5.71 98.973 64.177
5.72 95.906 63.037
5.73 92.020 61.622
5.74 93.047 60.583
5.75 93.153 59.745
5.76 93.316 58.609
5.77 93.312 57.809
5.78 95.871 57.617
5.79 95.621 57.287
5.80 95.828 56.055
5.81 --undefined-- 53.497
5.82 --undefined-- 51.279
5.83 --undefined-- 51.739
5.84 --undefined-- 53.464
5.85 --undefined-- 56.175
5.86 --undefined-- 59.468
5.87 --undefined-- 61.972
5.88 --undefined-- 63.075
5.89 --undefined-- 65.250
5.90 --undefined-- 68.582
5.91 98.158 69.553
5.92 87.620 67.822
5.93 83.758 64.344
5.94 83.422 60.610
5.95 81.721 57.041
5.96 79.262 53.063
5.97 --undefined-- 49.062
5.98 --undefined-- 47.598
5.99 --undefined-- 46.173
6.00 --undefined-- 42.946
6.01 --undefined-- 39.766
6.02 --undefined-- 39.449
6.03 --undefined-- 39.667
6.04 --undefined-- 38.970
6.05 --undefined-- 38.147
6.06 --undefined-- 37.279
6.07 --undefined-- 35.862
6.08 --undefined-- 35.450
6.09 --undefined-- 36.190
6.10 --undefined-- 36.829
6.11 --undefined-- 36.873
6.12 --undefined-- 36.252
6.13 --undefined-- 35.961
6.14 --undefined-- --undefined--
6.15 --undefined-- --undefined--
6.16 --undefined-- --undefined--
6.17 --undefined-- --undefined--
