Time Pitch Intensity
0.01 --undefined-- --undefined--
0.02 133.930 --undefined--
0.03 134.924 --undefined--
0.04 136.056 --undefined--
0.05 140.005 72.007
0.06 140.270 70.030
0.07 138.608 65.888
0.08 136.195 60.265
0.09 --undefined-- 55.271
0.10 --undefined-- 50.339
0.11 --undefined-- 55.047
0.12 --undefined-- 62.855
0.13 --undefined-- 67.715
0.14 --undefined-- 70.657
0.15 223.480 73.677
0.16 212.962 76.484
0.17 212.647 78.571
0.18 213.981 80.123
0.19 213.443 80.870
0.20 215.055 80.852
0.21 219.078 80.108
0.22 222.320 78.567
0.23 222.983 76.794
0.24 220.078 74.988
0.25 212.219 72.929
0.26 212.523 71.965
0.27 209.270 71.952
0.28 202.862 71.876
0.29 195.632 71.819
0.30 189.711 72.528
0.31 180.065 73.900
0.32 165.315 74.532
0.33 148.286 74.387
0.34 140.092 74.021
0.35 133.929 73.292
0.36 126.294 72.115
0.37 122.088 70.646
0.38 117.730 69.339
0.39 117.863 68.701
0.40 119.116 68.358
0.41 119.459 67.602
0.42 116.234 65.916
0.43 105.737 62.854
0.44 101.912 58.171
0.45 --undefined-- 52.838
0.46 --undefined-- 47.933
0.47 --undefined-- 42.836
0.48 --undefined-- 39.065
0.49 --undefined-- 40.591
0.50 --undefined-- 49.346
0.51 --undefined-- 59.884
0.52 151.384 67.045
0.53 151.147 71.504
0.54 148.326 74.039
0.55 146.061 75.417
0.56 145.493 76.229
0.57 146.235 76.468
0.58 148.156 76.008
0.59 149.775 75.105
0.60 152.215 74.166
0.61 154.952 72.904
0.62 155.822 70.245
0.63 146.458 65.183
0.64 151.924 57.978
0.65 --undefined-- 51.985
0.66 --undefined-- 55.527
0.67 --undefined-- 64.661
0.68 203.151 71.085
0.69 189.080 74.517
0.70 183.473 75.906
0.71 178.393 76.460
0.72 175.488 76.954
0.73 174.434 77.133
0.74 176.877 76.538
0.75 182.574 75.356
0.76 184.288 74.820
0.77 182.688 75.056
0.78 180.946 74.653
0.79 177.971 72.418
0.80 162.768 67.551
0.81 157.598 60.014
0.82 --undefined-- 51.183
0.83 --undefined-- 44.633
0.84 --undefined-- 44.780
0.85 --undefined-- 48.157
0.86 --undefined-- 51.751
0.87 --undefined-- 54.594
0.88 --undefined-- 56.573
0.89 --undefined-- 58.032
0.90 --undefined-- 58.520
0.91 --undefined-- 58.106
0.92 --undefined-- 60.953
0.93 186.746 67.403
0.94 189.426 71.672
0.95 184.832 73.470
0.96 179.487 73.523
0.97 176.388 72.749
0.98 175.120 72.184
0.99 178.513 72.201
1.00 178.633 72.399
1.01 177.441 72.505
1.02 176.002 72.487
1.03 174.789 72.381
1.04 172.964 72.220
1.05 170.212 71.901
1.06 165.770 71.308
1.07 159.013 70.580
1.08 153.027 70.376
1.09 150.089 71.043
1.10 137.721 71.675
1.11 132.634 71.612
1.12 125.816 70.835
1.13 114.147 69.436
1.14 105.556 67.596
1.15 99.356 65.767
1.16 98.853 64.549
1.17 97.504 63.856
1.18 99.265 63.392
1.19 103.560 63.132
1.20 105.724 63.051
1.21 105.986 63.109
1.22 106.437 62.944
1.23 106.210 62.224
1.24 104.462 60.742
1.25 100.180 58.319
1.26 --undefined-- 55.255
1.27 --undefined-- 55.506
1.28 --undefined-- 61.531
1.29 130.403 66.617
1.30 132.244 69.752
1.31 131.981 71.295
1.32 128.921 71.833
1.33 128.752 72.041
1.34 128.250 72.072
1.35 128.503 71.922
1.36 128.857 71.500
1.37 128.190 70.161
1.38 120.484 66.975
1.39 108.211 61.650
1.40 --undefined-- 54.860
1.41 --undefined-- 47.369
1.42 --undefined-- 49.484
1.43 --undefined-- 56.833
1.44 --undefined-- 59.929
1.45 --undefined-- 59.096
1.46 --undefined-- 56.715
1.47 --undefined-- 57.075
1.48 --undefined-- 57.148
1.49 --undefined-- 56.015
1.50 --undefined-- 58.458
1.51 --undefined-- 62.070
1.52 123.708 63.799
1.53 119.284 64.723
1.54 116.901 65.614
1.55 115.437 66.249
1.56 114.645 66.504
1.57 114.145 66.625
1.58 114.990 66.855
1.59 116.790 66.980
1.60 115.982 66.313
1.61 119.048 64.666
1.62 90.670 63.813
1.63 93.053 64.781
1.64 98.725 66.496
1.65 110.240 68.049
1.66 124.599 68.610
1.67 132.682 68.196
1.68 123.037 67.079
1.69 117.607 65.749
1.70 114.006 64.960
1.71 111.685 64.359
1.72 107.218 63.305
1.73 103.716 62.772
1.74 103.550 63.012
1.75 106.250 63.139
1.76 109.630 62.494
1.77 110.021 60.442
1.78 --undefined-- 57.686
1.79 --undefined-- 58.191
1.80 --undefined-- 60.757
1.81 --undefined-- 63.396
1.82 105.717 65.253
1.83 107.047 66.273
1.84 120.639 66.897
1.85 127.459 67.154
1.86 124.055 66.946
1.87 121.115 66.603
1.88 117.344 66.394
1.89 115.792 66.205
1.90 114.488 65.719
1.91 113.217 64.901
1.92 113.243 64.401
1.93 113.761 64.680
1.94 116.504 65.622
1.95 118.935 66.850
1.96 119.954 68.000
1.97 121.982 68.901
1.98 123.174 69.667
1.99 128.062 70.517
2.00 128.287 70.965
2.01 122.789 70.943
2.02 121.821 71.092
2.03 119.450 71.355
2.04 118.330 71.413
2.05 119.055 71.561
2.06 121.109 72.092
2.07 123.782 72.619
2.08 126.569 73.021
2.09 131.000 73.846
2.10 136.939 74.839
2.11 139.911 75.143
2.12 144.117 74.764
2.13 149.599 74.241
2.14 154.075 73.256
2.15 155.704 71.537
2.16 153.683 69.369
2.17 --undefined-- 67.214
2.18 --undefined-- 65.215
2.19 --undefined-- 61.885
2.20 --undefined-- 56.828
2.21 --undefined-- 51.956
2.22 --undefined-- 46.100
2.23 --undefined-- 40.573
2.24 --undefined-- 38.881
2.25 --undefined-- 37.541
2.26 --undefined-- 37.254
2.27 --undefined-- 38.332
2.28 --undefined-- 38.780
2.29 --undefined-- 37.738
2.30 --undefined-- 36.481
2.31 --undefined-- 35.744
2.32 --undefined-- 36.248
2.33 --undefined-- 36.991
2.34 --undefined-- 37.148
2.35 --undefined-- 37.318
2.36 --undefined-- 37.606
2.37 --undefined-- 39.590
2.38 --undefined-- 41.576
2.39 --undefined-- 42.074
2.40 --undefined-- 41.108
2.41 --undefined-- 40.488
2.42 --undefined-- 42.391
2.43 --undefined-- 46.751
2.44 --undefined-- 57.444
2.45 --undefined-- 67.302
2.46 187.926 73.737
2.47 179.409 77.510
2.48 167.932 79.051
2.49 163.908 78.082
2.50 --undefined-- 74.123
2.51 --undefined-- 67.237
2.52 --undefined-- 59.556
2.53 --undefined-- 52.892
2.54 --undefined-- 47.227
2.55 --undefined-- 45.357
2.56 --undefined-- 44.600
2.57 --undefined-- 43.855
2.58 --undefined-- 42.495
2.59 --undefined-- 40.546
2.60 --undefined-- 38.864
2.61 --undefined-- 37.128
2.62 --undefined-- 38.240
2.63 --undefined-- 43.530
2.64 --undefined-- 57.164
2.65 --undefined-- 68.033
2.66 --undefined-- 74.875
2.67 181.266 78.449
2.68 177.036 79.626
2.69 173.690 79.390
2.70 173.234 78.638
2.71 174.493 77.994
2.72 176.729 77.688
2.73 178.033 77.553
2.74 178.566 77.324
2.75 178.189 76.997
2.76 177.756 76.704
2.77 177.159 75.760
2.78 174.010 73.415
2.79 166.897 69.229
2.80 162.299 62.874
2.81 --undefined-- 54.452
2.82 --undefined-- 47.246
2.83 --undefined-- 46.341
2.84 --undefined-- 45.802
2.85 --undefined-- 44.452
2.86 --undefined-- 44.738
2.87 --undefined-- 47.192
2.88 --undefined-- 55.257
2.89 --undefined-- 65.225
2.90 210.843 71.486
2.91 186.497 74.767
2.92 176.065 76.500
2.93 171.598 77.393
2.94 171.371 77.167
2.95 172.015 75.956
2.96 169.596 74.802
2.97 167.198 74.063
2.98 163.853 72.637
2.99 155.777 69.464
3.00 146.892 64.646
3.01 145.887 60.452
3.02 160.538 58.852
3.03 169.361 60.198
3.04 186.908 65.005
3.05 176.277 70.061
3.06 166.529 73.408
3.07 159.417 74.882
3.08 156.902 74.180
3.09 151.323 70.767
3.10 122.041 64.482
3.11 --undefined-- 56.553
3.12 --undefined-- 49.289
3.13 --undefined-- 44.182
3.14 --undefined-- 41.253
3.15 --undefined-- 40.441
3.16 --undefined-- 40.495
3.17 --undefined-- 45.383
3.18 --undefined-- 58.632
3.19 --undefined-- 67.873
3.20 --undefined-- 73.282
3.21 184.860 75.857
3.22 179.617 76.647
3.23 176.658 76.832
3.24 176.723 76.809
3.25 178.652 76.235
3.26 180.413 75.250
3.27 180.589 74.516
3.28 179.946 74.155
3.29 177.733 73.591
3.30 175.202 72.677
3.31 175.220 71.602
3.32 174.367 70.215
3.33 171.819 69.750
3.34 182.784 72.656
3.35 184.598 75.808
3.36 182.516 77.339
3.37 180.344 77.555
3.38 179.650 76.930
3.39 179.848 75.375
3.40 174.258 72.347
3.41 162.862 67.392
3.42 160.331 60.686
3.43 --undefined-- 53.420
3.44 --undefined-- 46.988
3.45 --undefined-- 43.213
3.46 --undefined-- 42.290
3.47 --undefined-- 42.603
3.48 --undefined-- 51.599
3.49 --undefined-- 60.375
3.50 --undefined-- 64.621
3.51 --undefined-- 65.289
3.52 --undefined-- 64.005
3.53 --undefined-- 62.117
3.54 --undefined-- 59.625
3.55 --undefined-- 56.814
3.56 --undefined-- 54.147
3.57 --undefined-- 53.021
3.58 --undefined-- 59.608
3.59 --undefined-- 68.139
3.60 --undefined-- 73.433
3.61 187.219 76.277
3.62 183.721 77.620
3.63 181.296 78.101
3.64 178.697 78.158
3.65 174.097 78.060
3.66 167.324 77.911
3.67 159.837 77.705
3.68 153.634 77.432
3.69 146.632 77.141
3.70 141.037 76.802
3.71 136.349 76.218
3.72 129.364 75.233
3.73 120.293 73.887
3.74 114.714 72.251
3.75 109.065 70.237
3.76 103.566 67.764
3.77 --undefined-- 64.661
3.78 --undefined-- 60.904
3.79 --undefined-- 57.767
3.80 --undefined-- 55.360
3.81 --undefined-- 52.241
3.82 --undefined-- 51.777
3.83 --undefined-- 52.399
3.84 --undefined-- 51.641
3.85 --undefined-- 48.733
3.86 --undefined-- 45.364
3.87 --undefined-- 47.549
3.88 --undefined-- 50.779
3.89 --undefined-- 52.531
3.90 --undefined-- 52.463
3.91 --undefined-- 50.004
3.92 --undefined-- 45.843
3.93 --undefined-- 42.605
3.94 --undefined-- 40.470
3.95 --undefined-- 38.543
3.96 --undefined-- 37.075
3.97 --undefined-- 38.695
3.98 --undefined-- 39.739
3.99 --undefined-- 38.388
4.00 --undefined-- 37.287
4.01 --undefined-- 38.565
4.02 --undefined-- 40.189
4.03 --undefined-- 40.451
4.04 --undefined-- 39.765
4.05 --undefined-- 39.373
4.06 --undefined-- 39.340
4.07 --undefined-- 39.616
4.08 --undefined-- 39.546
4.09 --undefined-- 39.219
4.10 --undefined-- 38.673
4.11 --undefined-- 38.178
4.12 --undefined-- 38.246
4.13 --undefined-- 40.817
4.14 --undefined-- 44.202
4.15 --undefined-- 44.541
4.16 --undefined-- 41.860
4.17 --undefined-- 39.532
4.18 --undefined-- 38.669
4.19 --undefined-- 38.041
4.20 --undefined-- 38.534
4.21 --undefined-- 50.578
4.22 --undefined-- 63.825
4.23 --undefined-- 72.406
4.24 197.876 77.318
4.25 192.208 79.543
4.26 187.832 79.877
4.27 183.747 78.605
4.28 179.192 75.384
4.29 --undefined-- 69.558
4.30 --undefined-- 61.049
4.31 --undefined-- 52.138
4.32 --undefined-- 48.604
4.33 --undefined-- 58.586
4.34 --undefined-- 68.246
4.35 --undefined-- 74.122
4.36 193.553 76.813
4.37 187.982 77.739
4.38 185.024 78.200
4.39 183.821 78.579
4.40 182.724 78.789
4.41 182.589 78.960
4.42 183.668 79.075
4.43 185.484 78.927
4.44 187.198 78.400
4.45 188.600 77.657
4.46 188.912 76.915
4.47 188.448 75.884
4.48 186.736 74.148
4.49 185.978 72.621
4.50 186.637 72.143
4.51 186.261 71.910
4.52 184.201 71.196
4.53 176.963 69.355
4.54 165.602 66.038
4.55 157.347 61.338
4.56 --undefined-- 54.949
4.57 --undefined-- 48.145
4.58 --undefined-- 47.226
4.59 --undefined-- 48.937
4.60 --undefined-- 49.641
4.61 --undefined-- 52.503
4.62 --undefined-- 59.963
4.63 139.915 65.273
4.64 132.369 68.027
4.65 126.648 69.010
4.66 125.636 69.218
4.67 125.853 69.198
4.68 126.811 69.236
4.69 131.195 69.768
4.70 136.209 71.086
4.71 142.157 72.712
4.72 147.578 74.030
4.73 153.550 74.685
4.74 166.111 74.521
4.75 172.953 73.819
4.76 182.571 73.108
4.77 188.164 72.713
4.78 196.953 72.480
4.79 197.976 72.221
4.80 196.778 72.070
4.81 191.966 72.204
4.82 184.699 72.251
4.83 178.960 71.554
4.84 173.072 69.669
4.85 178.428 66.387
4.86 182.370 62.271
4.87 182.744 57.680
4.88 --undefined-- 52.435
4.89 --undefined-- 47.663
4.90 --undefined-- 44.217
4.91 --undefined-- 42.710
4.92 --undefined-- 43.207
4.93 --undefined-- 44.656
4.94 --undefined-- 47.934
4.95 --undefined-- 52.239
4.96 --undefined-- 55.704
4.97 --undefined-- 58.301
4.98 --undefined-- 60.528
4.99 141.127 62.411
5.00 137.571 63.982
5.01 141.049 65.645
5.02 148.733 68.178
5.03 142.141 70.765
5.04 140.036 72.329
5.05 141.203 73.196
5.06 142.300 73.962
5.07 143.497 74.707
5.08 145.357 75.292
5.09 148.793 75.394
5.10 153.763 74.892
5.11 156.691 74.302
5.12 159.491 74.121
5.13 162.389 74.261
5.14 164.455 74.449
5.15 166.549 74.346
5.16 168.156 73.201
5.17 166.807 70.087
5.18 152.047 64.213
5.19 --undefined-- 56.230
5.20 --undefined-- 51.394
5.21 --undefined-- 53.231
5.22 --undefined-- 56.169
5.23 --undefined-- 58.601
5.24 --undefined-- 60.201
5.25 --undefined-- 61.325
5.26 --undefined-- 61.733
5.27 --undefined-- 61.233
5.28 --undefined-- 59.886
5.29 --undefined-- 61.297
5.30 241.925 67.736
5.31 228.997 72.278
5.32 216.174 73.557
5.33 --undefined-- 72.177
5.34 --undefined-- 69.397
5.35 --undefined-- 65.889
5.36 --undefined-- 61.632
5.37 --undefined-- 58.483
5.38 76.864 58.896
5.39 74.669 61.625
5.40 75.609 64.591
5.41 145.214 67.371
5.42 138.662 69.422
5.43 129.532 70.220
5.44 119.447 69.994
5.45 116.849 69.756
5.46 114.163 69.548
5.47 111.835 68.867
5.48 109.389 67.809
5.49 108.136 --undefined--
5.50 108.572 --undefined--
5.51 --undefined-- --undefined--
5.52 --undefined-- --undefined--
