Time Pitch Intensity
0.01 --undefined-- --undefined--
0.02 --undefined-- --undefined--
0.03 --undefined-- --undefined--
0.04 --undefined-- --undefined--
0.05 --undefined-- 48.421
0.06 --undefined-- 46.683
0.07 --undefined-- 44.701
0.08 --undefined-- 48.270
0.09 --undefined-- 54.298
0.10 --undefined-- 58.865
0.11 276.924 63.544
0.12 265.462 67.695
0.13 261.169 70.370
0.14 259.720 71.899
0.15 258.302 72.752
0.16 258.530 73.112
0.17 260.072 73.043
0.18 262.335 72.672
0.19 264.643 71.880
0.20 266.434 70.257
0.21 271.840 68.532
0.22 274.979 68.055
0.23 280.515 68.075
0.24 284.495 67.111
0.25 277.418 64.007
0.26 253.046 59.090
0.27 --undefined-- 57.019
0.28 --undefined-- 56.856
0.29 --undefined-- 54.982
0.30 --undefined-- 58.104
0.31 --undefined-- 65.088
0.32 178.923 68.873
0.33 179.800 70.087
0.34 181.880 70.456
0.35 183.326 71.206
0.36 184.201 71.893
0.37 182.943 71.644
0.38 179.305 69.844
0.39 176.689 67.735
0.40 188.371 68.484
0.41 189.460 70.353
0.42 186.227 71.317
0.43 178.381 71.320
0.44 163.712 71.481
0.45 161.252 71.929
0.46 278.178 71.719
0.47 256.177 71.144
0.48 227.961 70.714
0.49 217.790 70.547
0.50 211.115 70.426
0.51 207.225 69.908
0.52 201.493 69.355
0.53 197.740 69.466
0.54 195.799 69.524
0.55 195.543 68.667
0.56 195.310 66.493
0.57 194.704 62.877
0.58 193.500 58.407
0.59 195.317 54.077
0.60 --undefined-- 50.537
0.61 --undefined-- 50.833
0.62 --undefined-- 54.248
0.63 --undefined-- 59.388
0.64 208.042 63.785
0.65 208.399 66.640
0.66 205.073 68.221
0.67 202.822 68.543
0.68 203.058 67.833
0.69 203.566 66.414
0.70 202.874 64.271
0.71 194.102 61.582
0.72 191.958 58.460
0.73 192.821 55.303
0.74 --undefined-- 55.063
0.75 --undefined-- 55.797
0.76 --undefined-- 55.443
0.77 --undefined-- 55.603
0.78 --undefined-- 55.389
0.79 --undefined-- 54.657
0.80 --undefined-- 55.947
0.81 --undefined-- 56.359
0.82 --undefined-- 57.285
0.83 --undefined-- 61.839
0.84 179.896 65.283
0.85 173.365 67.318
0.86 169.537 68.803
0.87 167.393 70.020
0.88 167.072 70.921
0.89 166.539 71.439
0.90 167.305 71.684
0.91 168.393 71.901
0.92 170.444 72.055
0.93 173.195 72.374
0.94 177.061 73.022
0.95 183.559 74.136
0.96 191.575 75.584
0.97 199.787 76.648
0.98 208.567 76.992
0.99 215.579 76.925
1.00 221.243 76.508
1.01 225.685 75.690
1.02 226.472 74.563
1.03 225.282 73.366
1.04 220.217 72.222
1.05 214.705 70.302
1.06 210.364 66.970
1.07 213.534 62.617
1.08 216.639 58.958
1.09 223.368 56.935
1.10 224.066 54.214
1.11 --undefined-- 51.250
1.12 --undefined-- 50.295
1.13 --undefined-- 53.875
1.14 --undefined-- 57.795
1.15 --undefined-- 58.849
1.16 --undefined-- 57.079
1.17 --undefined-- 53.725
1.18 --undefined-- 52.331
1.19 --undefined-- 53.803
1.20 --undefined-- 54.238
1.21 --undefined-- 52.877
1.22 --undefined-- 52.051
1.23 --undefined-- 53.265
1.24 --undefined-- 55.216
1.25 --undefined-- 56.139
1.26 --undefined-- 55.203
1.27 --undefined-- 56.212
1.28 --undefined-- 58.917
1.29 --undefined-- 59.119
1.30 --undefined-- 56.952
1.31 --undefined-- 54.495
1.32 --undefined-- 52.087
1.33 --undefined-- 48.250
1.34 --undefined-- 47.967
1.35 --undefined-- 52.007
1.36 --undefined-- 56.165
1.37 --undefined-- 58.730
1.38 --undefined-- 61.670
1.39 277.435 65.790
1.40 273.262 68.224
1.41 273.075 68.997
1.42 271.160 69.163
1.43 270.345 69.307
1.44 272.321 69.469
1.45 273.461 69.644
1.46 272.867 69.704
1.47 270.235 69.273
1.48 265.249 67.856
1.49 250.964 65.074
1.50 236.687 61.526
1.51 253.148 57.721
1.52 271.952 52.921
1.53 276.856 51.075
1.54 --undefined-- 52.149
1.55 --undefined-- 55.186
1.56 --undefined-- 61.117
1.57 242.925 65.705
1.58 233.046 68.704
1.59 226.368 70.483
1.60 216.019 71.066
1.61 211.085 71.137
1.62 208.705 71.134
1.63 206.758 70.910
1.64 205.127 70.671
1.65 203.520 70.576
1.66 202.486 70.533
1.67 199.452 70.541
1.68 197.544 70.500
1.69 197.235 70.410
1.70 196.045 70.865
1.71 193.945 72.064
1.72 191.947 73.089
1.73 191.022 73.409
1.74 191.059 73.207
1.75 191.031 72.758
1.76 190.954 72.247
1.77 191.764 71.801
1.78 191.067 71.506
1.79 190.267 71.359
1.80 190.138 70.893
1.81 190.169 69.321
1.82 188.189 65.967
1.83 187.543 60.674
1.84 190.137 56.257
1.85 186.887 56.001
1.86 188.470 55.740
1.87 --undefined-- 53.814
1.88 --undefined-- 51.501
1.89 --undefined-- 52.147
1.90 253.113 57.869
1.91 248.139 63.450
1.92 228.635 66.636
1.93 218.193 67.898
1.94 211.239 67.858
1.95 207.955 67.226
1.96 206.783 66.337
1.97 194.566 64.907
1.98 188.430 62.573
1.99 189.766 59.139
2.00 192.412 54.452
2.01 --undefined-- 49.515
2.02 --undefined-- 49.299
2.03 --undefined-- 55.389
2.04 --undefined-- 60.976
2.05 195.363 64.420
2.06 185.083 66.590
2.07 177.559 67.806
2.08 176.234 67.934
2.09 174.487 67.081
2.10 172.995 65.650
2.11 173.106 64.487
2.12 175.561 64.350
2.13 178.047 65.220
2.14 180.219 66.429
2.15 181.582 67.019
2.16 185.732 66.968
2.17 191.751 66.799
2.18 197.244 66.373
2.19 206.019 65.573
2.20 216.581 65.260
2.21 222.537 65.898
2.22 233.105 66.753
2.23 237.933 67.627
2.24 242.436 68.549
2.25 246.247 69.275
2.26 249.016 69.744
2.27 250.480 70.215
2.28 249.854 70.644
2.29 247.812 70.611
2.30 243.757 70.276
2.31 237.869 70.209
2.32 232.783 70.046
2.33 224.923 69.542
2.34 213.405 69.699
2.35 206.445 70.337
2.36 198.070 71.056
2.37 194.213 71.595
2.38 190.696 71.274
2.39 183.376 70.350
2.40 179.877 69.840
2.41 178.907 69.622
2.42 178.738 68.832
2.43 180.028 67.434
2.44 179.620 65.866
2.45 180.411 64.554
2.46 179.953 63.635
2.47 178.280 61.797
2.48 179.945 58.109
2.49 --undefined-- 53.047
2.50 --undefined-- 48.502
2.51 --undefined-- 46.234
2.52 --undefined-- 45.150
2.53 --undefined-- 45.571
2.54 --undefined-- 47.619
2.55 --undefined-- 50.656
2.56 --undefined-- 55.262
2.57 281.037 61.129
2.58 267.861 65.268
2.59 267.783 67.153
2.60 266.459 67.036
2.61 264.195 65.739
2.62 267.587 65.887
2.63 274.670 67.341
2.64 280.088 68.604
2.65 283.056 69.550
2.66 283.843 70.003
2.67 284.701 69.974
2.68 285.482 69.696
2.69 285.028 69.170
2.70 282.271 67.800
2.71 275.894 64.748
2.72 267.499 59.715
2.73 --undefined-- 54.888
2.74 --undefined-- 54.832
2.75 --undefined-- 57.619
2.76 --undefined-- 59.595
2.77 --undefined-- 59.179
2.78 --undefined-- 57.236
2.79 --undefined-- 57.343
2.80 --undefined-- 58.782
2.81 247.963 61.483
2.82 238.424 64.357
2.83 229.056 66.047
2.84 215.336 66.857
2.85 201.272 67.556
2.86 196.918 68.356
2.87 194.763 68.874
2.88 192.902 68.954
2.89 192.147 68.615
2.90 192.333 67.761
2.91 192.588 66.051
2.92 190.319 63.010
2.93 190.494 58.489
2.94 --undefined-- 53.565
2.95 --undefined-- 50.644
2.96 --undefined-- 48.672
2.97 --undefined-- 47.195
2.98 --undefined-- 47.332
2.99 --undefined-- 47.754
3.00 --undefined-- 53.049
3.01 --undefined-- 60.224
3.02 --undefined-- 65.094
3.03 195.096 67.463
3.04 186.255 68.130
3.05 181.607 68.087
3.06 181.139 68.075
3.07 182.109 68.155
3.08 182.549 67.725
3.09 183.557 66.630
3.10 184.119 65.372
3.11 183.871 64.090
3.12 182.704 62.569
3.13 182.850 60.793
3.14 184.024 58.666
3.15 184.379 56.137
3.16 184.054 54.886
3.17 184.736 55.671
3.18 178.267 56.791
3.19 175.994 57.518
3.20 174.419 58.228
3.21 174.635 58.623
3.22 174.729 58.646
3.23 175.011 58.997
3.24 174.504 59.494
3.25 173.228 60.626
3.26 170.999 62.659
3.27 170.699 64.407
3.28 171.097 65.394
3.29 171.494 65.903
3.30 172.209 65.911
3.31 175.169 65.367
3.32 180.194 65.340
3.33 182.426 66.788
3.34 184.759 68.489
3.35 193.938 69.410
3.36 202.767 69.163
3.37 209.782 68.058
3.38 220.747 66.587
3.39 224.243 63.714
3.40 227.903 58.519
3.41 --undefined-- 53.307
3.42 --undefined-- 50.392
3.43 --undefined-- 49.991
3.44 --undefined-- 51.771
3.45 --undefined-- 53.728
3.46 --undefined-- 56.172
3.47 --undefined-- 56.975
3.48 --undefined-- 55.491
3.49 --undefined-- 57.133
3.50 --undefined-- 63.337
3.51 197.054 67.024
3.52 191.077 68.264
3.53 181.005 68.248
3.54 176.473 67.581
3.55 169.264 66.397
3.56 164.851 65.251
3.57 162.035 64.399
3.58 160.510 63.796
3.59 159.695 63.335
3.60 159.615 62.985
3.61 159.829 62.932
3.62 160.302 63.214
3.63 161.620 63.698
3.64 162.760 64.333
3.65 163.535 64.744
3.66 165.567 64.703
3.67 167.692 64.339
3.68 167.763 63.478
3.69 167.049 62.706
3.70 170.405 63.229
3.71 171.415 63.778
3.72 170.984 63.632
3.73 170.007 63.202
3.74 167.869 63.122
3.75 166.495 63.594
3.76 166.561 64.105
3.77 161.538 64.246
3.78 160.988 64.470
3.79 160.524 64.923
3.80 159.528 64.927
3.81 159.419 64.877
3.82 159.927 65.343
3.83 160.620 66.037
3.84 161.503 66.818
3.85 162.012 67.774
3.86 162.355 68.590
3.87 163.324 69.038
3.88 166.312 69.260
3.89 168.544 69.753
3.90 176.302 70.520
3.91 181.901 70.916
3.92 183.439 70.606
3.93 198.305 69.975
3.94 200.551 69.381
3.95 200.287 68.867
3.96 199.069 68.230
3.97 197.353 66.928
3.98 195.848 64.635
3.99 191.013 61.182
4.00 197.805 56.333
4.01 199.376 51.504
4.02 --undefined-- 49.472
4.03 --undefined-- 49.284
4.04 --undefined-- 49.312
4.05 --undefined-- 49.889
4.06 --undefined-- 52.004
4.07 --undefined-- 54.801
4.08 --undefined-- 56.367
4.09 --undefined-- 55.987
4.10 --undefined-- 54.029
4.11 --undefined-- 52.115
4.12 --undefined-- 51.578
4.13 --undefined-- 51.886
4.14 --undefined-- 54.445
4.15 --undefined-- 56.378
4.16 --undefined-- 55.631
4.17 --undefined-- 52.630
4.18 --undefined-- 49.176
4.19 --undefined-- 51.506
4.20 --undefined-- 55.275
4.21 --undefined-- 56.276
4.22 --undefined-- 54.992
4.23 --undefined-- 52.405
4.24 --undefined-- 49.966
4.25 --undefined-- 49.428
4.26 --undefined-- 53.112
4.27 --undefined-- 56.759
4.28 217.926 61.092
4.29 222.605 65.254
4.30 221.635 67.730
4.31 215.619 69.114
4.32 213.393 69.814
4.33 210.391 69.720
4.34 206.965 69.056
4.35 207.979 68.609
4.36 208.336 68.311
4.37 207.829 67.905
4.38 207.196 67.515
4.39 205.912 67.203
4.40 205.602 67.190
4.41 203.108 67.418
4.42 200.858 67.744
4.43 200.055 68.146
4.44 198.101 68.588
4.45 196.432 69.195
4.46 195.081 69.868
4.47 194.326 70.338
4.48 194.539 70.513
4.49 194.017 70.429
4.50 193.022 69.967
4.51 191.656 68.937
4.52 191.844 67.669
4.53 191.564 66.801
4.54 191.721 66.452
4.55 193.108 66.558
4.56 196.186 66.970
4.57 197.269 67.440
4.58 197.347 67.454
4.59 194.761 66.260
4.60 190.966 63.109
4.61 195.143 58.184
4.62 --undefined-- 54.062
4.63 --undefined-- 52.203
4.64 --undefined-- 51.089
4.65 --undefined-- 51.564
4.66 --undefined-- 52.527
4.67 --undefined-- 53.660
4.68 --undefined-- 56.179
4.69 273.425 61.096
4.70 244.899 64.828
4.71 239.892 66.788
4.72 238.614 67.591
4.73 239.974 67.610
4.74 241.595 67.207
4.75 241.489 66.638
4.76 241.434 66.266
4.77 244.952 66.295
4.78 245.132 66.252
4.79 247.092 66.201
4.80 248.579 66.251
4.81 249.963 66.273
4.82 250.523 66.208
4.83 251.466 66.214
4.84 251.874 66.140
4.85 250.040 65.324
4.86 244.368 63.058
4.87 233.337 58.776
4.88 --undefined-- 52.566
4.89 --undefined-- 49.022
4.90 --undefined-- 50.950
4.91 --undefined-- 51.138
4.92 --undefined-- 51.465
4.93 --undefined-- 53.322
4.94 --undefined-- 55.449
4.95 232.314 59.806
4.96 217.068 63.546
4.97 214.842 --undefined--
4.98 219.315 --undefined--
4.99 --undefined-- --undefined--
5.00 --undefined-- --undefined--
