Time Pitch Intensity
0.01 --undefined-- --undefined--
0.02 238.540 --undefined--
0.03 253.398 --undefined--
0.04 264.786 --undefined--
0.05 271.155 67.792
0.06 274.764 67.983
0.07 274.385 67.804
0.08 269.643 66.744
0.09 258.850 64.917
0.10 248.553 63.618
0.11 242.338 64.338
0.12 238.005 66.142
0.13 231.644 67.787
0.14 221.384 69.089
0.15 213.250 70.227
0.16 207.093 71.090
0.17 202.078 71.667
0.18 198.668 71.862
0.19 198.205 71.257
0.20 200.510 69.509
0.21 202.483 67.700
0.22 202.665 67.461
0.23 202.179 68.103
0.24 191.971 68.041
0.25 191.810 66.123
0.26 189.383 62.101
0.27 191.315 56.659
0.28 194.094 51.434
0.29 --undefined-- 52.777
0.30 --undefined-- 57.919
0.31 --undefined-- 60.650
0.32 --undefined-- 61.314
0.33 267.237 62.688
0.34 258.751 64.503
0.35 263.213 65.354
0.36 265.377 65.669
0.37 266.588 65.862
0.38 267.811 66.068
0.39 269.221 66.264
0.40 270.224 66.401
0.41 270.621 66.613
0.42 273.152 67.009
0.43 274.155 67.538
0.44 274.831 68.246
0.45 277.010 68.934
0.46 277.565 69.313
0.47 277.322 69.364
0.48 276.144 68.793
0.49 272.001 66.867
0.50 257.423 62.971
0.51 240.229 58.301
0.52 --undefined-- 60.580
0.53 291.798 64.917
0.54 278.610 66.974
0.55 270.026 67.555
0.56 266.827 68.086
0.57 266.065 69.001
0.58 265.962 69.810
0.59 266.874 70.160
0.60 268.396 70.070
0.61 269.910 69.704
0.62 269.819 69.210
0.63 267.504 68.608
0.64 262.776 67.311
0.65 256.445 64.355
0.66 253.415 59.491
0.67 261.987 53.801
0.68 263.198 50.653
0.69 261.605 56.754
0.70 241.863 62.541
0.71 223.197 65.534
0.72 208.860 66.754
0.73 198.674 67.305
0.74 191.558 67.634
0.75 186.427 67.827
0.76 183.268 67.789
0.77 182.949 67.581
0.78 184.022 67.655
0.79 185.319 68.165
0.80 186.724 68.822
0.81 189.239 69.406
0.82 191.416 69.558
0.83 193.009 69.093
0.84 195.593 68.397
0.85 197.715 67.914
0.86 197.995 67.596
0.87 198.548 67.224
0.88 198.163 66.802
0.89 195.567 66.661
0.90 191.687 66.935
0.91 187.299 67.517
0.92 182.667 68.544
0.93 177.664 69.821
0.94 173.975 70.500
0.95 165.458 70.325
0.96 160.244 69.676
0.97 157.594 68.879
0.98 157.479 67.966
0.99 158.662 66.898
1.00 160.515 66.143
1.01 168.655 66.085
1.02 170.446 66.028
1.03 170.261 65.778
1.04 170.428 65.453
1.05 170.795 64.372
1.06 162.190 62.141
1.07 161.253 59.374
1.08 --undefined-- 56.024
1.09 --undefined-- 54.296
1.10 --undefined-- 59.601
1.11 --undefined-- 64.217
1.12 197.330 66.734
1.13 195.403 67.965
1.14 196.440 68.211
1.15 197.689 67.706
1.16 198.116 66.890
1.17 201.198 66.050
1.18 207.240 65.298
1.19 212.341 64.157
1.20 216.747 62.050
1.21 209.664 59.094
1.22 201.384 56.897
1.23 199.457 56.761
1.24 199.419 56.433
1.25 197.727 55.448
1.26 214.069 55.589
1.27 213.938 56.374
1.28 217.358 57.539
1.29 258.047 59.785
1.30 270.933 62.642
1.31 288.234 65.127
1.32 291.425 66.747
1.33 293.988 67.662
1.34 296.945 68.158
1.35 298.461 68.252
1.36 298.856 68.065
1.37 299.000 67.795
1.38 299.527 67.537
1.39 299.729 67.405
1.40 150.700 67.492
1.41 151.216 67.685
1.42 151.015 67.863
1.43 298.772 68.091
1.44 295.125 68.353
1.45 290.413 68.247
1.46 284.776 67.660
1.47 277.822 66.574
1.48 269.096 64.487
1.49 254.069 61.212
1.50 231.762 58.791
1.51 --undefined-- 59.078
1.52 --undefined-- 61.139
1.53 198.007 64.539
1.54 183.759 67.027
1.55 173.208 67.817
1.56 171.898 67.419
1.57 177.526 67.277
1.58 186.331 67.745
1.59 191.475 67.545
1.60 197.244 66.305
1.61 203.106 64.439
1.62 208.083 62.879
1.63 211.578 61.964
1.64 209.885 60.968
1.65 195.248 59.766
1.66 192.765 57.992
1.67 192.414 56.205
1.68 190.975 56.336
1.69 184.822 57.912
1.70 191.310 59.051
1.71 197.439 59.564
1.72 200.226 60.261
1.73 195.170 61.572
1.74 174.308 63.020
1.75 169.460 64.247
1.76 163.710 65.210
1.77 160.585 65.457
1.78 162.543 65.435
1.79 164.526 66.135
1.80 166.168 67.266
1.81 167.550 67.870
1.82 170.415 67.445
1.83 175.162 66.559
1.84 181.340 66.164
1.85 193.080 66.190
1.86 201.848 65.798
1.87 213.223 65.016
1.88 215.614 63.853
1.89 212.393 61.076
1.90 200.080 56.618
1.91 --undefined-- 53.685
1.92 --undefined-- 53.951
1.93 --undefined-- 53.970
1.94 --undefined-- 52.070
1.95 --undefined-- 50.376
1.96 288.552 53.373
1.97 290.365 56.391
1.98 291.576 56.621
1.99 251.329 56.705
2.00 233.186 59.647
2.01 245.184 62.709
2.02 260.260 65.230
2.03 249.375 67.154
2.04 236.304 68.444
2.05 233.240 69.149
2.06 229.623 69.435
2.07 227.626 69.552
2.08 226.057 69.582
2.09 224.289 69.582
2.10 222.143 69.288
2.11 216.928 68.674
2.12 208.057 68.200
2.13 --undefined-- 67.240
2.14 --undefined-- 64.969
2.15 --undefined-- 61.515
2.16 --undefined-- 57.629
2.17 --undefined-- 53.856
2.18 --undefined-- 50.487
2.19 --undefined-- 49.966
2.20 --undefined-- 49.948
2.21 --undefined-- 50.347
2.22 --undefined-- 52.110
2.23 --undefined-- 52.453
2.24 --undefined-- 51.462
2.25 --undefined-- 50.473
2.26 --undefined-- 50.064
2.27 --undefined-- 51.816
2.28 --undefined-- 54.724
2.29 --undefined-- 56.279
2.30 --undefined-- 55.252
2.31 --undefined-- 52.007
2.32 --undefined-- 50.195
2.33 277.623 51.263
2.34 278.731 52.347
2.35 286.731 54.095
2.36 275.069 54.683
2.37 --undefined-- 53.553
2.38 --undefined-- 52.454
2.39 --undefined-- 50.864
2.40 267.212 51.039
2.41 269.114 54.030
2.42 --undefined-- 55.460
2.43 --undefined-- 54.132
2.44 --undefined-- 51.937
2.45 --undefined-- 50.765
2.46 --undefined-- 48.825
2.47 --undefined-- 48.038
2.48 --undefined-- 48.145
2.49 --undefined-- 48.359
2.50 --undefined-- 50.421
2.51 --undefined-- 52.191
2.52 --undefined-- 52.465
2.53 --undefined-- 53.403
2.54 --undefined-- 54.856
2.55 --undefined-- 54.306
2.56 --undefined-- 51.832
2.57 --undefined-- 50.152
2.58 --undefined-- 51.629
2.59 --undefined-- 57.963
2.60 284.502 63.129
2.61 272.048 65.988
2.62 269.641 67.790
2.63 274.445 69.407
2.64 277.695 70.266
2.65 276.367 69.299
2.66 265.726 65.867
2.67 238.905 60.653
2.68 235.559 57.459
2.69 249.255 61.552
2.70 244.789 68.257
2.71 240.634 72.447
2.72 238.353 74.159
2.73 235.101 74.207
2.74 231.977 73.818
2.75 236.882 73.235
2.76 244.393 71.607
2.77 254.494 69.296
2.78 255.551 68.126
2.79 256.227 68.101
2.80 254.726 68.718
2.81 248.858 70.419
2.82 240.725 71.811
2.83 232.914 71.179
2.84 214.547 68.411
2.85 201.445 64.802
2.86 189.805 60.964
2.87 --undefined-- 56.106
2.88 --undefined-- 52.357
2.89 --undefined-- 53.201
2.90 --undefined-- 53.343
2.91 --undefined-- 52.193
2.92 221.666 55.611
2.93 230.550 60.113
2.94 235.101 63.089
2.95 240.655 64.658
2.96 235.286 65.206
2.97 214.459 65.584
2.98 190.934 66.145
2.99 183.133 65.734
3.00 --undefined-- 63.092
3.01 120.729 58.532
3.02 118.886 55.338
3.03 122.579 54.509
3.04 --undefined-- 55.102
3.05 182.809 57.929
3.06 190.954 61.880
3.07 204.650 65.412
3.08 213.315 67.830
3.09 219.523 69.192
3.10 224.675 69.685
3.11 233.130 69.170
3.12 245.015 67.700
3.13 252.587 65.976
3.14 253.585 64.951
3.15 252.658 64.518
3.16 250.136 64.497
3.17 246.739 65.176
3.18 239.057 66.496
3.19 228.257 67.868
3.20 219.100 68.286
3.21 207.239 67.478
3.22 204.039 66.061
3.23 201.461 64.724
3.24 200.270 64.269
3.25 199.886 64.436
3.26 197.241 64.643
3.27 195.098 64.769
3.28 192.690 64.930
3.29 191.248 65.270
3.30 189.007 65.527
3.31 187.360 65.569
3.32 185.148 65.452
3.33 180.548 65.074
3.34 173.936 64.389
3.35 170.900 64.048
3.36 171.998 65.001
3.37 171.650 66.777
3.38 164.459 68.524
3.39 159.918 69.464
3.40 156.291 69.353
3.41 156.133 68.832
3.42 158.171 68.368
3.43 159.826 67.960
3.44 159.901 67.445
3.45 160.412 66.936
3.46 162.595 67.014
3.47 164.482 67.293
3.48 173.912 67.556
3.49 178.286 68.386
3.50 182.992 69.676
3.51 187.812 70.531
3.52 191.958 70.359
3.53 199.827 69.342
3.54 205.842 68.840
3.55 215.219 70.092
3.56 217.363 71.358
3.57 218.236 71.427
3.58 218.623 70.895
3.59 218.971 70.745
3.60 219.448 70.440
3.61 220.870 68.941
3.62 222.861 65.924
3.63 232.934 62.447
3.64 235.956 60.228
3.65 230.863 58.594
3.66 223.504 57.115
3.67 218.623 56.094
3.68 --undefined-- 55.497
3.69 --undefined-- 55.962
3.70 256.787 58.679
3.71 281.802 62.531
3.72 294.909 65.736
3.73 165.046 67.937
3.74 170.461 69.387
3.75 174.288 70.334
3.76 177.343 70.885
3.77 179.922 71.107
3.78 182.864 71.043
3.79 186.341 70.718
3.80 188.245 70.657
3.81 186.749 70.995
3.82 182.585 71.036
3.83 176.091 70.537
3.84 170.671 69.607
3.85 164.118 68.124
3.86 157.993 65.726
3.87 157.162 62.019
3.88 --undefined-- 58.557
3.89 --undefined-- 59.098
3.90 --undefined-- 62.992
3.91 232.082 66.209
3.92 224.303 67.564
3.93 218.940 67.585
3.94 216.274 67.129
3.95 216.138 66.592
3.96 218.015 66.042
3.97 222.135 65.606
3.98 228.354 65.310
3.99 236.311 65.280
4.00 245.544 65.578
4.01 253.293 65.974
4.02 259.100 66.408
4.03 265.287 66.834
4.04 272.260 67.198
4.05 279.481 67.691
4.06 285.925 68.453
4.07 291.512 69.222
4.08 298.460 69.771
4.09 151.892 70.202
4.10 153.526 70.606
4.11 154.143 70.960
4.12 154.212 71.246
4.13 154.137 71.128
4.14 154.102 69.866
4.15 152.391 66.658
4.16 145.320 61.015
4.17 --undefined-- 57.336
4.18 --undefined-- 62.334
4.19 153.981 66.414
4.20 154.096 68.355
4.21 152.076 68.807
4.22 150.585 68.755
4.23 150.488 68.744
4.24 151.568 68.732
4.25 152.863 68.735
4.26 154.023 68.795
4.27 155.204 68.923
4.28 156.301 68.788
4.29 157.501 68.242
4.30 156.023 67.603
4.31 150.651 66.285
4.32 286.216 63.107
4.33 284.847 57.942
4.34 --undefined-- 54.123
4.35 --undefined-- 51.737
4.36 --undefined-- 49.225
4.37 --undefined-- 50.335
4.38 --undefined-- 52.036
4.39 --undefined-- 52.794
4.40 --undefined-- 53.623
4.41 --undefined-- 55.185
4.42 --undefined-- 56.517
4.43 --undefined-- 56.631
4.44 --undefined-- 56.859
4.45 262.365 59.136
4.46 251.090 61.968
4.47 228.356 63.647
4.48 224.425 64.026
4.49 218.380 63.501
4.50 213.493 63.057
4.51 212.128 63.325
4.52 210.930 63.681
4.53 209.606 63.863
4.54 208.831 63.924
4.55 209.519 63.919
4.56 211.217 63.967
4.57 214.493 64.219
4.58 217.512 64.566
4.59 219.952 64.714
4.60 222.319 64.590
4.61 224.610 64.083
4.62 224.967 62.483
4.63 217.097 59.071
4.64 196.265 54.445
4.65 --undefined-- 55.363
4.66 265.885 60.492
4.67 249.981 64.464
4.68 249.935 67.074
4.69 249.838 68.416
4.70 253.256 68.538
4.71 258.983 67.657
4.72 262.931 66.394
4.73 265.202 65.451
4.74 265.820 65.249
4.75 265.069 65.217
4.76 263.158 64.820
4.77 261.006 64.248
4.78 256.159 63.620
4.79 246.951 63.111
4.80 239.345 62.964
4.81 230.364 63.017
4.82 221.577 63.488
4.83 212.899 65.075
4.84 206.382 67.769
4.85 201.150 70.305
4.86 195.143 71.548
4.87 190.605 71.750
4.88 188.132 71.362
4.89 183.497 70.456
4.90 180.411 69.393
4.91 179.388 68.690
4.92 179.426 68.529
4.93 179.239 --undefined--
4.94 178.520 --undefined--
4.95 --undefined-- --undefined--
4.96 --undefined-- --undefined--
