Time Pitch Intensity
0.01 --undefined-- --undefined--
0.02 164.441 --undefined--
0.03 166.149 --undefined--
0.04 169.668 --undefined--
0.05 177.426 71.532
0.06 185.297 71.732
0.07 187.065 72.319
0.08 189.653 73.130
0.09 187.541 74.424
0.10 179.518 75.245
0.11 170.640 74.439
0.12 --undefined-- 71.401
0.13 --undefined-- 66.559
0.14 --undefined-- 62.127
0.15 --undefined-- 59.163
0.16 --undefined-- 58.066
0.17 --undefined-- 58.207
0.18 --undefined-- 57.423
0.19 --undefined-- 56.410
0.20 --undefined-- 58.026
0.21 198.599 60.272
0.22 195.089 62.265
0.23 194.140 63.917
0.24 181.848 64.724
0.25 172.557 64.136
0.26 162.410 62.451
0.27 157.941 60.823
0.28 151.142 59.641
0.29 148.750 59.316
0.30 150.976 59.381
0.31 150.991 58.753
0.32 147.971 58.000
0.33 150.176 57.795
0.34 154.326 57.969
0.35 157.812 58.763
0.36 162.755 59.262
0.37 173.769 59.396
0.38 188.701 60.728
0.39 200.798 62.609
0.40 209.366 63.579
0.41 219.149 64.190
0.42 226.966 65.220
0.43 238.390 66.317
0.44 251.903 67.009
0.45 264.844 67.138
0.46 283.190 67.154
0.47 292.186 67.402
0.48 296.314 67.545
0.49 296.960 67.220
0.50 294.337 65.894
0.51 285.800 62.736
0.52 --undefined-- 57.654
0.53 --undefined-- 52.247
0.54 --undefined-- 48.352
0.55 --undefined-- 48.042
0.56 --undefined-- 52.758
0.57 --undefined-- 58.486
0.58 --undefined-- 61.702
0.59 204.752 63.449
0.60 194.320 65.085
0.61 182.832 66.341
0.62 176.760 66.646
0.63 176.007 66.233
0.64 176.079 65.708
0.65 175.067 65.511
0.66 172.576 65.734
0.67 170.602 66.096
0.68 167.730 65.972
0.69 165.520 65.161
0.70 165.246 64.223
0.71 164.578 63.646
0.72 164.774 63.385
0.73 166.466 63.297
0.74 168.146 63.375
0.75 169.401 63.579
0.76 171.149 63.984
0.77 173.354 64.974
0.78 176.077 66.454
0.79 177.365 67.669
0.80 177.259 68.570
0.81 178.609 69.772
0.82 181.137 70.857
0.83 181.243 71.170
0.84 182.394 70.912
0.85 185.235 70.086
0.86 187.396 68.140
0.87 188.325 64.782
0.88 184.764 60.227
0.89 183.033 56.205
0.90 186.391 55.988
0.91 189.166 55.444
0.92 --undefined-- 54.609
0.93 --undefined-- 54.293
0.94 --undefined-- 52.433
0.95 --undefined-- 51.199
0.96 --undefined-- 50.615
0.97 --undefined-- 48.522
0.98 --undefined-- 47.912
0.99 --undefined-- 50.944
1.00 --undefined-- 52.650
1.01 --undefined-- 53.908
1.02 --undefined-- 55.699
1.03 --undefined-- 55.883
1.04 --undefined-- 56.645
1.05 --undefined-- 60.140
1.06 190.275 63.093
1.07 188.458 64.875
1.08 184.757 65.575
1.09 184.108 65.645
1.10 176.961 65.357
1.11 172.810 64.609
1.12 170.979 63.759
1.13 168.968 62.835
1.14 167.423 61.928
1.15 164.914 61.602
1.16 165.144 61.486
1.17 164.102 60.586
1.18 159.528 59.508
1.19 160.168 58.658
1.20 161.300 57.192
1.21 153.759 55.792
1.22 148.893 55.805
1.23 150.202 56.113
1.24 177.132 56.326
1.25 187.813 57.558
1.26 194.765 59.180
1.27 202.988 61.265
1.28 200.974 64.331
1.29 188.103 66.971
1.30 182.828 68.404
1.31 179.659 69.297
1.32 178.554 69.785
1.33 177.718 69.096
1.34 --undefined-- 66.613
1.35 --undefined-- 63.042
1.36 --undefined-- 61.168
1.37 --undefined-- 61.163
1.38 --undefined-- 61.881
1.39 --undefined-- 61.655
1.40 --undefined-- 58.781
1.41 --undefined-- 55.310
1.42 --undefined-- 54.890
1.43 --undefined-- 56.362
1.44 --undefined-- 60.006
1.45 --undefined-- 62.304
1.46 --undefined-- 62.713
1.47 231.177 64.702
1.48 218.060 68.260
1.49 214.592 69.754
1.50 208.304 69.636
1.51 205.186 69.832
1.52 204.665 69.857
1.53 205.937 68.482
1.54 206.114 65.273
1.55 201.952 60.244
1.56 210.224 57.119
1.57 210.894 57.688
1.58 208.437 56.767
1.59 --undefined-- 57.167
1.60 --undefined-- 57.925
1.61 --undefined-- 55.424
1.62 --undefined-- 50.220
1.63 --undefined-- 48.770
1.64 --undefined-- 51.120
1.65 --undefined-- 54.594
1.66 --undefined-- 56.681
1.67 --undefined-- 56.290
1.68 --undefined-- 54.909
1.69 --undefined-- 53.703
1.70 --undefined-- 51.475
1.71 --undefined-- 50.641
1.72 --undefined-- 53.514
1.73 --undefined-- 56.163
1.74 --undefined-- 58.849
1.75 240.713 62.953
1.76 237.377 66.218
1.77 227.768 67.787
1.78 218.918 68.062
1.79 209.743 67.868
1.80 205.585 67.663
1.81 203.340 67.444
1.82 202.903 67.294
1.83 204.067 67.325
1.84 203.904 67.340
1.85 202.468 67.123
1.86 201.842 66.574
1.87 201.587 65.645
1.88 203.158 64.521
1.89 203.432 62.920
1.90 202.647 60.095
1.91 201.518 56.023
1.92 203.637 52.484
1.93 --undefined-- 50.865
1.94 --undefined-- 50.893
1.95 --undefined-- 54.296
1.96 294.546 56.658
1.97 291.625 56.214
1.98 298.467 56.725
1.99 288.798 60.711
2.00 284.446 64.160
2.01 284.141 66.488
2.02 287.577 67.935
2.03 290.093 68.712
2.04 291.371 68.715
2.05 292.130 67.843
2.06 290.590 67.571
2.07 286.370 68.912
2.08 283.125 69.835
2.09 278.227 69.813
2.10 271.885 69.181
2.11 251.730 68.214
2.12 229.990 67.304
2.13 --undefined-- 66.648
2.14 --undefined-- 65.405
2.15 --undefined-- 63.191
2.16 --undefined-- 61.432
2.17 --undefined-- 59.974
2.18 --undefined-- 57.571
2.19 --undefined-- 56.096
2.20 --undefined-- 56.576
2.21 --undefined-- 55.836
2.22 --undefined-- 53.837
2.23 --undefined-- 53.594
2.24 286.758 54.002
2.25 276.335 54.495
2.26 283.111 56.693
2.27 284.965 58.743
2.28 284.736 59.384
2.29 282.113 58.420
2.30 210.698 59.130
2.31 184.339 61.620
2.32 174.897 63.001
2.33 166.479 63.331
2.34 161.742 63.615
2.35 160.121 63.889
2.36 159.610 63.438
2.37 160.753 62.324
2.38 165.061 60.782
2.39 176.792 59.639
2.40 185.635 59.745
2.41 186.855 59.884
2.42 187.727 58.767
2.43 187.092 56.163
2.44 --undefined-- 54.001
2.45 --undefined-- 53.232
2.46 --undefined-- 52.023
2.47 --undefined-- 50.946
2.48 --undefined-- 53.307
2.49 --undefined-- 58.567
2.50 292.944 63.453
2.51 280.206 66.816
2.52 278.943 68.479
2.53 284.895 68.860
2.54 290.449 68.456
2.55 290.487 67.428
2.56 281.546 65.617
2.57 277.754 63.101
2.58 --undefined-- 60.884
2.59 --undefined-- 60.719
2.60 --undefined-- 61.067
2.61 --undefined-- 59.660
2.62 --undefined-- 57.537
2.63 --undefined-- 58.165
2.64 --undefined-- 58.827
2.65 --undefined-- 57.839
2.66 --undefined-- 55.284
2.67 --undefined-- 54.453
2.68 --undefined-- 58.341
2.69 --undefined-- 61.253
2.70 --undefined-- 61.386
2.71 --undefined-- 58.371
2.72 --undefined-- 53.349
2.73 --undefined-- 54.582
2.74 193.956 59.143
2.75 200.523 62.012
2.76 205.705 63.802
2.77 201.674 65.652
2.78 190.979 67.377
2.79 185.040 68.290
2.80 184.673 68.093
2.81 182.409 66.807
2.82 182.531 64.628
2.83 --undefined-- 61.655
2.84 --undefined-- 57.565
2.85 --undefined-- 53.366
2.86 --undefined-- 55.035
2.87 --undefined-- 58.519
2.88 --undefined-- 59.190
2.89 --undefined-- 57.943
2.90 --undefined-- 58.191
2.91 --undefined-- 58.214
2.92 --undefined-- 56.096
2.93 --undefined-- 55.665
2.94 187.660 57.244
2.95 183.807 57.616
2.96 180.829 57.886
2.97 189.128 61.059
2.98 204.701 65.331
2.99 204.885 67.402
3.00 192.187 67.424
3.01 187.799 66.827
3.02 180.824 66.368
3.03 176.394 65.541
3.04 174.226 63.610
3.05 --undefined-- 59.804
3.06 --undefined-- 53.949
3.07 --undefined-- 49.380
3.08 --undefined-- 50.487
3.09 --undefined-- 51.607
3.10 --undefined-- 51.295
3.11 --undefined-- 53.798
3.12 --undefined-- 56.352
3.13 --undefined-- 57.550
3.14 --undefined-- 57.592
3.15 --undefined-- 56.075
3.16 --undefined-- 55.098
3.17 --undefined-- 58.026
3.18 --undefined-- 60.924
3.19 290.115 61.425
3.20 --undefined-- 59.553
3.21 --undefined-- 58.698
3.22 --undefined-- 60.337
3.23 --undefined-- 61.084
3.24 --undefined-- 60.541
3.25 --undefined-- 58.914
3.26 --undefined-- 59.763
3.27 --undefined-- 61.703
3.28 --undefined-- 61.134
3.29 --undefined-- 58.156
3.30 236.368 56.748
3.31 218.650 60.717
3.32 207.849 64.459
3.33 191.950 66.724
3.34 185.418 67.584
3.35 179.538 67.716
3.36 177.484 67.905
3.37 177.766 67.542
3.38 180.012 66.468
3.39 183.769 65.916
3.40 183.927 66.081
3.41 184.983 66.407
3.42 186.366 66.989
3.43 185.914 67.668
3.44 185.325 68.145
3.45 185.298 68.351
3.46 184.886 68.300
3.47 184.506 67.996
3.48 183.930 67.351
3.49 182.763 65.981
3.50 181.124 63.446
3.51 183.284 59.762
3.52 --undefined-- 56.468
3.53 --undefined-- 54.403
3.54 --undefined-- 51.859
3.55 --undefined-- 51.137
3.56 --undefined-- 53.762
3.57 --undefined-- 56.770
3.58 223.095 60.817
3.59 207.311 64.174
3.60 198.938 66.099
3.61 193.758 67.209
3.62 189.837 67.770
3.63 185.914 67.807
3.64 182.790 67.698
3.65 181.744 67.647
3.66 180.660 67.568
3.67 180.753 67.574
3.68 181.615 67.688
3.69 183.620 67.851
3.70 185.570 67.850
3.71 186.623 67.465
3.72 187.791 66.973
3.73 189.480 66.987
3.74 191.067 67.416
3.75 192.193 67.807
3.76 191.019 67.341
3.77 188.029 64.863
3.78 190.723 60.203
3.79 192.918 55.686
3.80 193.433 52.903
3.81 --undefined-- 50.916
3.82 --undefined-- 48.760
3.83 --undefined-- 45.901
3.84 --undefined-- 47.088
3.85 --undefined-- 54.655
3.86 --undefined-- 60.594
3.87 --undefined-- 63.795
3.88 173.868 65.013
3.89 167.977 65.001
3.90 177.064 64.571
3.91 176.593 64.534
3.92 168.684 64.598
3.93 169.380 64.267
3.94 168.284 62.870
3.95 160.867 59.886
3.96 160.139 55.603
3.97 169.314 53.699
3.98 170.300 54.822
3.99 --undefined-- 56.048
4.00 250.904 59.507
4.01 243.495 62.450
4.02 243.323 63.260
4.03 244.871 61.647
4.04 234.462 57.538
4.05 --undefined-- 52.101
4.06 --undefined-- 49.935
4.07 --undefined-- 49.499
4.08 --undefined-- 50.206
4.09 --undefined-- 52.162
4.10 --undefined-- 57.492
4.11 256.657 62.835
4.12 253.337 65.748
4.13 256.459 66.496
4.14 259.159 66.048
4.15 259.573 65.609
4.16 261.966 65.670
4.17 264.809 65.856
4.18 265.105 65.777
4.19 262.085 65.533
4.20 257.205 65.274
4.21 249.386 65.120
4.22 243.169 65.002
4.23 233.110 64.514
4.24 219.014 63.648
4.25 204.928 62.849
4.26 191.424 63.349
4.27 182.091 65.495
4.28 182.097 67.417
4.29 182.997 68.119
4.30 182.008 67.742
4.31 179.474 66.865
4.32 179.035 66.126
4.33 180.036 65.570
4.34 180.810 64.791
4.35 181.299 64.043
4.36 191.240 64.057
4.37 196.446 64.049
4.38 202.559 63.570
4.39 209.925 63.225
4.40 213.746 63.457
4.41 217.712 64.018
4.42 220.239 64.486
4.43 222.205 64.449
4.44 222.798 63.937
4.45 221.104 63.167
4.46 213.930 62.424
4.47 205.389 62.170
4.48 198.294 62.547
4.49 192.711 63.921
4.50 181.057 66.374
4.51 172.445 67.964
4.52 171.254 67.197
4.53 172.586 64.377
4.54 183.565 62.351
4.55 182.890 61.720
4.56 --undefined-- 60.103
4.57 --undefined-- 57.710
4.58 --undefined-- 55.487
4.59 --undefined-- 55.188
4.60 --undefined-- 56.175
4.61 --undefined-- 55.470
4.62 --undefined-- 53.613
4.63 --undefined-- 52.638
4.64 --undefined-- 51.394
4.65 --undefined-- 50.403
4.66 --undefined-- 50.804
4.67 --undefined-- 52.220
4.68 --undefined-- 54.933
4.69 --undefined-- 57.988
4.70 185.181 61.350
4.71 186.248 64.254
4.72 187.593 66.220
4.73 193.248 67.539
4.74 195.020 68.433
4.75 194.951 69.013
4.76 196.093 69.696
4.77 195.775 71.057
4.78 193.210 72.570
4.79 191.079 73.059
4.80 187.509 72.151
4.81 176.946 70.010
4.82 --undefined-- 66.714
4.83 --undefined-- 62.217
4.84 --undefined-- 58.265
4.85 --undefined-- 55.545
4.86 --undefined-- 52.514
4.87 --undefined-- 48.857
4.88 --undefined-- 47.030
4.89 --undefined-- 48.954
4.90 --undefined-- 51.189
4.91 --undefined-- 51.811
4.92 --undefined-- 50.563
4.93 --undefined-- 49.983
4.94 --undefined-- 50.911
4.95 --undefined-- --undefined--
4.96 --undefined-- --undefined--
4.97 --undefined-- --undefined--
4.98 --undefined-- --undefined--
