Time Pitch Intensity
0.01 --undefined-- --undefined--
0.02 --undefined-- --undefined--
0.03 --undefined-- --undefined--
0.04 --undefined-- --undefined--
0.05 --undefined-- 42.036
0.06 --undefined-- 41.678
0.07 --undefined-- 40.467
0.08 --undefined-- 40.352
0.09 --undefined-- 41.475
0.10 --undefined-- 41.848
0.11 --undefined-- 41.220
0.12 --undefined-- 41.289
0.13 --undefined-- 42.020
0.14 --undefined-- 42.075
0.15 --undefined-- 41.369
0.16 --undefined-- 39.777
0.17 --undefined-- 39.958
0.18 --undefined-- 42.113
0.19 --undefined-- 42.171
0.20 --undefined-- 40.552
0.21 --undefined-- 40.662
0.22 --undefined-- 41.261
0.23 --undefined-- 40.742
0.24 --undefined-- 39.923
0.25 --undefined-- 39.428
0.26 --undefined-- 40.418
0.27 --undefined-- 41.283
0.28 --undefined-- 40.010
0.29 --undefined-- 37.429
0.30 --undefined-- 37.112
0.31 --undefined-- 37.930
0.32 --undefined-- 39.005
0.33 --undefined-- 40.981
0.34 --undefined-- 41.479
0.35 --undefined-- 39.547
0.36 --undefined-- 39.092
0.37 --undefined-- 41.051
0.38 --undefined-- 41.102
0.39 --undefined-- 39.254
0.40 --undefined-- 38.261
0.41 --undefined-- 38.764
0.42 --undefined-- 38.574
0.43 --undefined-- 38.209
0.44 --undefined-- 38.081
0.45 --undefined-- 38.311
0.46 --undefined-- 37.771
0.47 --undefined-- 36.164
0.48 --undefined-- 34.929
0.49 --undefined-- 36.217
0.50 --undefined-- 38.690
0.51 --undefined-- 39.510
0.52 --undefined-- 38.227
0.53 --undefined-- 37.308
0.54 --undefined-- 37.910
0.55 --undefined-- 39.067
0.56 --undefined-- 40.690
0.57 --undefined-- 40.989
0.58 --undefined-- 40.745
0.59 --undefined-- 40.651
0.60 --undefined-- 40.036
0.61 --undefined-- 39.152
0.62 --undefined-- 38.708
0.63 --undefined-- 38.140
0.64 --undefined-- 38.909
0.65 --undefined-- 40.589
0.66 --undefined-- 40.857
0.67 --undefined-- 39.299
0.68 --undefined-- 37.363
0.69 --undefined-- 38.687
0.70 --undefined-- 40.612
0.71 --undefined-- 40.142
0.72 --undefined-- 38.298
0.73 --undefined-- 38.976
0.74 --undefined-- 40.895
0.75 --undefined-- 41.048
0.76 --undefined-- 40.495
0.77 --undefined-- 40.628
0.78 --undefined-- 40.952
0.79 --undefined-- 40.572
0.80 --undefined-- 39.013
0.81 --undefined-- 38.492
0.82 --undefined-- 39.709
0.83 --undefined-- 38.875
0.84 --undefined-- 37.173
0.85 --undefined-- 37.319
0.86 --undefined-- 37.778
0.87 --undefined-- 38.524
0.88 --undefined-- 45.136
0.89 --undefined-- 56.831
0.90 223.123 64.648
0.91 205.424 68.851
0.92 202.520 70.910
0.93 200.967 72.276
0.94 198.584 73.525
0.95 197.815 74.603
0.96 195.566 75.526
0.97 194.194 76.237
0.98 192.674 76.625
0.99 191.489 76.481
1.00 190.940 75.463
1.01 189.539 73.279
1.02 179.020 70.025
1.03 176.747 66.307
1.04 179.998 62.012
1.05 --undefined-- 56.590
1.06 --undefined-- 57.745
1.07 217.687 65.573
1.08 209.144 70.329
1.09 201.023 72.377
1.10 200.177 73.011
1.11 203.123 73.244
1.12 207.800 73.411
1.13 213.203 73.628
1.14 218.118 73.531
1.15 219.630 71.979
1.16 214.465 67.864
1.17 220.036 60.783
1.18 --undefined-- 52.796
1.19 --undefined-- 59.032
1.20 --undefined-- 67.357
1.21 265.141 72.018
1.22 260.493 74.014
1.23 257.228 74.521
1.24 253.348 74.085
1.25 246.940 72.603
1.26 237.767 70.099
1.27 241.203 66.768
1.28 236.140 63.074
1.29 230.347 60.958
1.30 227.950 61.052
1.31 221.664 63.046
1.32 207.507 65.861
1.33 206.102 68.512
1.34 209.268 70.510
1.35 206.841 71.716
1.36 201.121 72.322
1.37 194.751 72.538
1.38 185.750 72.742
1.39 179.040 73.086
1.40 174.909 73.311
1.41 172.246 73.321
1.42 169.873 73.101
1.43 168.497 72.657
1.44 166.827 72.123
1.45 165.298 71.708
1.46 164.395 71.472
1.47 164.590 71.382
1.48 164.059 71.365
1.49 163.334 71.294
1.50 163.328 71.126
1.51 164.559 71.001
1.52 165.712 71.018
1.53 166.608 71.090
1.54 167.232 71.095
1.55 168.393 70.981
1.56 168.815 70.581
1.57 167.482 69.488
1.58 --undefined-- 67.412
1.59 --undefined-- 64.437
1.60 --undefined-- 60.942
1.61 --undefined-- 56.086
1.62 --undefined-- 48.468
1.63 --undefined-- 40.835
1.64 --undefined-- 39.010
1.65 --undefined-- 40.394
1.66 --undefined-- 41.429
1.67 --undefined-- 41.175
1.68 --undefined-- 41.014
1.69 --undefined-- 40.724
1.70 --undefined-- 41.453
1.71 --undefined-- 41.925
1.72 --undefined-- 41.572
1.73 --undefined-- 42.722
1.74 --undefined-- 43.436
1.75 --undefined-- 41.765
1.76 --undefined-- 39.406
1.77 --undefined-- 39.491
1.78 --undefined-- 40.736
1.79 --undefined-- 42.170
1.80 --undefined-- 42.026
1.81 --undefined-- 40.288
1.82 --undefined-- 38.970
1.83 --undefined-- 39.085
1.84 --undefined-- 40.306
1.85 --undefined-- 41.381
1.86 --undefined-- 42.477
1.87 --undefined-- 44.231
1.88 --undefined-- 54.285
1.89 --undefined-- 63.102
1.90 193.056 68.038
1.91 187.565 70.332
1.92 185.298 71.392
1.93 179.200 72.143
1.94 174.863 72.934
1.95 172.680 73.717
1.96 171.570 74.117
1.97 172.152 74.068
1.98 172.753 73.848
1.99 173.076 73.679
2.00 172.994 73.651
2.01 172.700 73.637
2.02 173.513 73.441
2.03 172.593 72.997
2.04 171.141 72.811
2.05 176.752 73.331
2.06 179.003 73.889
2.07 180.950 74.200
2.08 182.340 74.349
2.09 183.032 74.404
2.10 184.303 74.309
2.11 186.824 74.121
2.12 193.138 73.912
2.13 192.177 73.651
2.14 192.758 73.618
2.15 194.765 73.946
2.16 197.489 74.635
2.17 201.432 75.399
2.18 206.079 75.729
2.19 213.346 75.231
2.20 226.880 73.986
2.21 232.110 72.594
2.22 232.881 70.948
2.23 223.005 68.225
2.24 217.200 63.859
2.25 --undefined-- 57.488
2.26 --undefined-- 49.540
2.27 --undefined-- 44.981
2.28 --undefined-- 45.376
2.29 --undefined-- 46.125
2.30 --undefined-- 47.018
2.31 --undefined-- 55.880
2.32 --undefined-- 65.373
2.33 245.600 71.543
2.34 240.244 74.934
2.35 235.238 76.008
2.36 229.927 75.567
2.37 227.980 74.837
2.38 226.833 74.543
2.39 225.758 74.636
2.40 224.414 74.769
2.41 222.566 74.679
2.42 221.022 74.295
2.43 219.862 73.526
2.44 219.074 72.300
2.45 219.015 70.742
2.46 218.957 68.779
2.47 215.515 65.714
2.48 204.118 60.766
2.49 --undefined-- 54.249
2.50 --undefined-- 49.500
2.51 --undefined-- 47.074
2.52 --undefined-- 45.030
2.53 --undefined-- 43.825
2.54 --undefined-- 42.899
2.55 --undefined-- 42.478
2.56 --undefined-- 44.026
2.57 --undefined-- 46.515
2.58 --undefined-- 48.510
2.59 --undefined-- 57.127
2.60 --undefined-- 65.173
2.61 --undefined-- 69.311
2.62 --undefined-- 70.848
2.63 293.732 71.556
2.64 284.224 71.737
2.65 274.655 70.132
2.66 258.594 66.059
2.67 246.696 60.735
2.68 --undefined-- 56.310
2.69 --undefined-- 52.145
2.70 --undefined-- 47.624
2.71 --undefined-- 48.119
2.72 --undefined-- 53.822
2.73 --undefined-- 58.569
2.74 183.194 62.360
2.75 188.094 65.373
2.76 190.209 67.794
2.77 186.830 69.575
2.78 172.055 70.627
2.79 168.782 71.057
2.80 166.904 70.967
2.81 166.404 70.577
2.82 167.002 70.187
2.83 168.914 69.987
2.84 170.521 70.175
2.85 174.316 70.856
2.86 179.258 71.647
2.87 183.077 72.375
2.88 187.633 72.996
2.89 192.376 73.388
2.90 197.195 73.568
2.91 202.541 73.662
2.92 207.084 73.723
2.93 210.539 73.536
2.94 212.097 72.700
2.95 210.931 70.639
2.96 212.490 66.625
2.97 --undefined-- 59.969
2.98 --undefined-- 51.800
2.99 --undefined-- 52.205
3.00 --undefined-- 59.578
3.01 237.323 66.367
3.02 214.865 69.936
3.03 199.519 70.933
3.04 190.728 70.880
3.05 187.767 71.028
3.06 185.817 71.339
3.07 184.981 71.501
3.08 184.292 71.464
3.09 183.765 71.363
3.10 183.306 71.279
3.11 183.085 71.196
3.12 183.202 71.126
3.13 183.692 71.116
3.14 184.360 71.212
3.15 184.775 71.364
3.16 185.330 71.563
3.17 185.986 71.774
3.18 187.059 71.866
3.19 188.889 71.781
3.20 190.335 71.348
3.21 188.341 70.072
3.22 180.839 67.393
3.23 --undefined-- 63.310
3.24 --undefined-- 58.976
3.25 --undefined-- 54.376
3.26 --undefined-- 47.649
3.27 --undefined-- 42.349
3.28 --undefined-- 45.389
3.29 --undefined-- 50.948
3.30 172.554 56.130
3.31 172.511 60.260
3.32 172.752 63.025
3.33 168.730 64.606
3.34 165.760 65.920
3.35 167.675 67.847
3.36 165.843 69.577
3.37 162.730 70.307
3.38 159.899 70.244
3.39 155.382 69.829
3.40 152.428 69.283
3.41 149.053 68.865
3.42 146.811 68.758
3.43 146.472 68.712
3.44 146.055 68.663
3.45 144.755 68.647
3.46 144.220 68.810
3.47 146.158 69.064
3.48 147.804 69.206
3.49 148.943 69.260
3.50 150.782 69.365
3.51 152.935 69.607
3.52 154.100 69.788
3.53 154.243 69.821
3.54 154.047 69.709
3.55 153.399 69.399
3.56 152.970 68.900
3.57 153.133 68.395
3.58 150.770 68.324
3.59 148.638 68.545
3.60 146.516 68.674
3.61 145.595 68.742
3.62 145.182 68.799
3.63 144.978 68.903
3.64 145.270 69.021
3.65 145.737 68.938
3.66 146.015 68.496
3.67 146.276 67.775
3.68 145.295 67.172
3.69 143.807 66.979
3.70 143.958 67.048
3.71 143.731 67.055
3.72 143.090 66.907
3.73 142.174 66.811
3.74 141.974 66.711
3.75 141.658 66.551
3.76 141.470 66.408
3.77 141.967 66.257
3.78 142.498 66.087
3.79 142.231 65.696
3.80 142.462 65.039
3.81 142.712 64.133
3.82 147.084 62.681
3.83 152.516 60.281
3.84 151.529 57.415
3.85 161.272 55.487
3.86 --undefined-- 52.812
3.87 --undefined-- 47.927
3.88 --undefined-- 42.333
3.89 --undefined-- 39.034
3.90 --undefined-- 38.764
3.91 --undefined-- 40.814
3.92 --undefined-- 41.415
3.93 --undefined-- 41.151
3.94 --undefined-- 39.796
3.95 --undefined-- 38.057
3.96 --undefined-- 38.836
3.97 --undefined-- 38.966
3.98 --undefined-- 38.960
3.99 --undefined-- 39.988
4.00 --undefined-- 41.102
4.01 --undefined-- 42.076
4.02 --undefined-- 42.273
4.03 --undefined-- 41.412
4.04 --undefined-- 39.597
4.05 --undefined-- 37.123
4.06 --undefined-- 35.381
4.07 --undefined-- 36.422
4.08 --undefined-- 39.420
4.09 --undefined-- 40.812
4.10 --undefined-- 39.993
4.11 --undefined-- 40.065
4.12 --undefined-- 41.738
4.13 --undefined-- 42.517
4.14 --undefined-- 42.091
4.15 --undefined-- 41.202
4.16 --undefined-- 39.755
4.17 --undefined-- 38.068
4.18 --undefined-- 38.973
4.19 --undefined-- 40.576
4.20 --undefined-- 42.204
4.21 --undefined-- 43.313
4.22 --undefined-- 42.560
4.23 --undefined-- 41.519
4.24 --undefined-- 41.207
4.25 --undefined-- 40.696
4.26 --undefined-- 40.333
4.27 --undefined-- 40.160
4.28 --undefined-- 39.810
4.29 --undefined-- 40.496
4.30 --undefined-- 49.989
4.31 --undefined-- 60.927
4.32 292.834 68.199
4.33 278.118 72.435
4.34 268.275 74.734
4.35 264.479 76.040
4.36 263.421 76.712
4.37 264.396 77.061
4.38 264.824 77.368
4.39 264.713 77.714
4.40 265.057 77.990
4.41 265.979 78.194
4.42 266.221 78.307
4.43 266.002 78.274
4.44 266.152 78.071
4.45 266.198 77.735
4.46 266.346 77.316
4.47 266.444 76.821
4.48 266.497 76.349
4.49 266.660 76.073
4.50 266.560 76.000
4.51 265.188 76.012
4.52 263.839 76.017
4.53 263.909 75.978
4.54 262.688 75.789
4.55 259.814 75.340
4.56 255.435 74.557
4.57 252.767 73.533
4.58 254.589 72.600
4.59 256.741 72.139
4.60 257.683 72.082
4.61 257.407 72.079
4.62 257.446 71.984
4.63 258.182 71.912
4.64 259.900 71.935
4.65 261.673 72.052
4.66 262.510 72.203
4.67 262.077 71.927
4.68 258.365 70.472
4.69 249.714 68.425
4.70 261.955 68.677
4.71 262.333 71.328
4.72 260.565 73.761
4.73 258.977 75.152
4.74 257.168 75.765
4.75 256.864 76.022
4.76 257.025 75.991
4.77 256.469 75.582
4.78 255.614 74.955
4.79 253.652 74.478
4.80 252.298 74.303
4.81 253.662 74.156
4.82 255.510 73.989
4.83 258.598 74.030
4.84 261.135 74.408
4.85 262.638 75.084
4.86 261.808 75.780
4.87 260.172 76.253
4.88 258.262 76.606
4.89 255.847 76.803
4.90 253.714 76.422
4.91 251.774 75.398
4.92 249.061 74.089
4.93 243.945 72.297
4.94 233.955 69.045
4.95 235.090 63.387
4.96 --undefined-- 55.444
4.97 --undefined-- 48.679
4.98 --undefined-- 46.464
4.99 --undefined-- 45.602
5.00 --undefined-- 44.423
5.01 --undefined-- 47.111
5.02 --undefined-- 58.068
5.03 232.782 66.501
5.04 219.897 71.033
5.05 203.488 72.528
5.06 188.648 72.297
5.07 184.172 71.938
5.08 182.391 72.191
5.09 184.006 72.829
5.10 186.517 73.419
5.11 188.987 73.787
5.12 191.022 73.979
5.13 192.295 73.929
5.14 193.012 73.618
5.15 192.856 72.965
5.16 190.780 71.632
5.17 185.259 69.167
5.18 179.186 64.830
5.19 --undefined-- 58.169
5.20 --undefined-- 49.714
5.21 --undefined-- 45.303
5.22 --undefined-- 45.398
5.23 --undefined-- 45.863
5.24 --undefined-- 47.540
5.25 --undefined-- 48.701
5.26 --undefined-- 48.414
5.27 --undefined-- 53.212
5.28 --undefined-- 60.455
5.29 173.879 64.746
5.30 169.035 66.795
5.31 166.297 67.755
5.32 163.957 68.189
5.33 162.900 68.406
5.34 163.153 68.688
5.35 164.014 69.103
5.36 165.451 69.547
5.37 167.458 70.135
5.38 170.008 70.894
5.39 172.751 71.714
5.40 175.365 72.467
5.41 178.058 73.085
5.42 181.715 73.518
5.43 186.523 73.911
5.44 189.768 74.364
5.45 192.692 74.699
5.46 196.492 74.708
5.47 200.512 74.486
5.48 203.523 74.248
5.49 205.324 73.957
5.50 205.440 73.357
5.51 202.246 72.132
5.52 192.022 69.964
5.53 --undefined-- 66.683
5.54 --undefined-- 62.272
5.55 --undefined-- 57.091
5.56 --undefined-- 54.424
5.57 --undefined-- 53.879
5.58 --undefined-- 50.900
5.59 --undefined-- 46.556
5.60 --undefined-- 45.540
5.61 --undefined-- 46.699
5.62 --undefined-- 47.562
5.63 --undefined-- 47.456
5.64 --undefined-- 47.059
5.65 --undefined-- 49.950
5.66 --undefined-- 58.485
5.67 273.174 65.169
5.68 266.527 69.039
5.69 266.957 70.695
5.70 269.167 70.942
5.71 271.914 70.542
5.72 273.070 70.077
5.73 272.202 69.359
5.74 268.481 67.802
5.75 254.607 65.098
5.76 242.060 61.477
5.77 242.171 56.998
5.78 --undefined-- 51.453
5.79 --undefined-- 47.638
5.80 --undefined-- 47.825
5.81 --undefined-- 56.990
5.82 --undefined-- 66.129
5.83 242.346 71.536
5.84 222.861 74.110
5.85 208.422 74.987
5.86 187.195 74.993
5.87 180.387 74.203
5.88 171.179 72.485
5.89 137.901 69.933
5.90 138.248 66.399
5.91 --undefined-- 61.704
5.92 --undefined-- 56.439
5.93 --undefined-- 50.751
5.94 --undefined-- 47.677
5.95 --undefined-- 47.275
5.96 --undefined-- 47.570
5.97 --undefined-- 48.211
5.98 --undefined-- 48.709
5.99 --undefined-- 49.141
6.00 --undefined-- 49.345
6.01 --undefined-- 50.006
6.02 --undefined-- 53.193
6.03 --undefined-- 62.362
6.04 227.680 69.472
6.05 220.642 73.286
6.06 212.482 74.735
6.07 208.537 74.936
6.08 205.536 74.704
6.09 202.354 74.274
6.10 199.189 73.732
6.11 196.603 73.465
6.12 196.920 73.626
6.13 196.346 73.874
6.14 195.935 74.009
6.15 195.860 74.072
6.16 196.423 74.130
6.17 197.293 74.150
6.18 197.897 74.032
6.19 198.503 73.696
6.20 198.619 73.043
6.21 196.948 71.771
6.22 193.462 69.228
6.23 189.394 64.817
6.24 --undefined-- 57.830
6.25 --undefined-- 47.933
6.26 --undefined-- 43.700
6.27 --undefined-- 52.729
6.28 --undefined-- 61.913
6.29 217.500 67.507
6.30 205.944 70.152
6.31 201.150 70.968
6.32 197.176 71.147
6.33 194.645 71.424
6.34 193.011 71.806
6.35 192.156 72.096
6.36 192.105 72.196
6.37 192.129 72.229
6.38 191.757 72.399
6.39 191.318 72.634
6.40 190.496 72.588
6.41 190.279 72.356
6.42 190.610 72.378
6.43 191.276 72.586
6.44 192.387 72.441
6.45 193.634 71.286
6.46 192.769 68.517
6.47 185.117 63.706
6.48 187.346 57.198
6.49 --undefined-- --undefined--
6.50 --undefined-- --undefined--
6.51 --undefined-- --undefined--
6.52 --undefined-- --undefined--
