Time Pitch Intensity
0.01 --undefined-- --undefined--
0.02 116.438 --undefined--
0.03 116.957 --undefined--
0.04 116.420 --undefined--
0.05 116.765 75.863
0.06 118.445 75.848
0.07 119.664 75.763
0.08 120.013 75.248
0.09 121.041 73.947
0.10 119.102 71.458
0.11 114.545 67.922
0.12 121.159 64.700
0.13 125.483 63.732
0.14 132.077 66.895
0.15 135.085 70.843
0.16 131.101 73.568
0.17 126.991 75.292
0.18 122.236 76.305
0.19 120.235 76.479
0.20 118.065 75.692
0.21 116.313 74.277
0.22 117.604 72.797
0.23 116.705 71.568
0.24 113.304 70.833
0.25 110.844 70.836
0.26 107.138 71.385
0.27 105.033 71.781
0.28 102.363 71.583
0.29 98.459 71.078
0.30 98.661 70.695
0.31 98.951 70.594
0.32 98.957 70.829
0.33 99.870 71.196
0.34 100.641 71.487
0.35 100.500 71.897
0.36 102.172 72.564
0.37 103.573 73.175
0.38 106.488 73.574
0.39 107.230 73.868
0.40 108.350 74.554
0.41 109.275 75.591
0.42 110.038 76.332
0.43 112.849 76.501
0.44 114.227 76.221
0.45 114.577 75.556
0.46 113.902 74.027
0.47 104.715 70.943
0.48 --undefined-- 65.855
0.49 --undefined-- 58.978
0.50 --undefined-- 52.931
0.51 --undefined-- 51.540
0.52 --undefined-- 51.202
0.53 --undefined-- 51.756
0.54 --undefined-- 52.740
0.55 --undefined-- 52.260
0.56 --undefined-- 50.791
0.57 --undefined-- 49.826
0.58 --undefined-- 49.664
0.59 --undefined-- 49.562
0.60 --undefined-- 49.416
0.61 --undefined-- 49.264
0.62 --undefined-- 49.055
0.63 --undefined-- 48.546
0.64 --undefined-- 47.896
0.65 --undefined-- 47.313
0.66 --undefined-- 46.586
0.67 --undefined-- 46.821
0.68 --undefined-- 47.557
0.69 --undefined-- 47.168
0.70 --undefined-- 46.133
0.71 --undefined-- 46.164
0.72 --undefined-- 47.014
0.73 --undefined-- 47.197
0.74 --undefined-- 46.941
0.75 --undefined-- 47.279
0.76 --undefined-- 47.994
0.77 --undefined-- 48.353
0.78 --undefined-- 48.659
0.79 --undefined-- 48.479
0.80 --undefined-- 47.569
0.81 --undefined-- 46.760
0.82 --undefined-- 46.276
0.83 --undefined-- 45.390
0.84 --undefined-- 44.895
0.85 --undefined-- 45.024
0.86 --undefined-- 43.869
0.87 --undefined-- 43.089
0.88 --undefined-- 44.204
0.89 --undefined-- 47.230
0.90 --undefined-- 53.090
0.91 --undefined-- 58.623
0.92 164.939 64.662
0.93 166.688 70.104
0.94 148.292 73.461
0.95 139.421 75.046
0.96 137.335 75.396
0.97 134.605 75.179
0.98 139.799 75.117
0.99 145.248 75.088
1.00 147.277 75.130
1.01 147.597 75.232
1.02 147.631 75.150
1.03 146.587 74.642
1.04 143.515 73.455
1.05 137.066 71.524
1.06 131.450 69.321
1.07 --undefined-- 68.349
1.08 --undefined-- 70.843
1.09 153.374 74.359
1.10 149.982 76.168
1.11 131.712 76.415
1.12 127.556 75.988
1.13 124.972 75.606
1.14 125.306 75.011
1.15 122.494 73.587
1.16 117.497 71.529
1.17 126.191 70.080
1.18 122.560 70.181
1.19 131.830 71.810
1.20 134.264 73.918
1.21 129.473 75.018
1.22 123.416 75.076
1.23 120.790 74.869
1.24 119.862 74.694
1.25 118.757 74.570
1.26 117.631 74.486
1.27 117.372 74.360
1.28 117.947 74.143
1.29 116.857 73.850
1.30 114.559 73.583
1.31 111.194 73.229
1.32 107.277 72.457
1.33 103.408 71.297
1.34 100.036 70.084
1.35 96.302 68.921
1.36 94.007 67.706
1.37 93.400 66.785
1.38 93.839 66.605
1.39 94.847 66.692
1.40 95.048 66.568
1.41 97.648 66.407
1.42 101.062 66.683
1.43 101.057 66.763
1.44 99.958 65.753
1.45 105.046 63.771
1.46 120.596 61.182
1.47 --undefined-- 60.474
1.48 --undefined-- 65.504
1.49 --undefined-- 70.422
1.50 155.686 73.695
1.51 147.536 75.203
1.52 138.624 75.603
1.53 138.800 75.727
1.54 140.045 75.826
1.55 144.265 75.902
1.56 145.839 76.005
1.57 149.464 76.121
1.58 151.073 76.269
1.59 150.397 76.337
1.60 145.791 76.012
1.61 137.694 75.487
1.62 133.024 75.267
1.63 127.551 75.149
1.64 121.819 74.773
1.65 116.284 74.040
1.66 107.618 73.279
1.67 104.462 72.858
1.68 101.040 72.348
1.69 99.513 71.554
1.70 97.946 70.799
1.71 97.288 70.298
1.72 97.608 69.860
1.73 96.020 68.883
1.74 90.947 67.081
1.75 100.936 65.251
1.76 109.003 63.487
1.77 102.628 61.182
1.78 --undefined-- 62.307
1.79 --undefined-- 66.718
1.80 --undefined-- 70.259
1.81 107.448 72.372
1.82 107.754 73.748
1.83 111.484 75.210
1.84 116.100 76.654
1.85 120.472 77.566
1.86 123.250 77.862
1.87 130.844 78.027
1.88 138.088 78.216
1.89 148.284 78.296
1.90 162.169 78.188
1.91 173.075 77.623
1.92 181.749 76.674
1.93 185.126 75.718
1.94 181.911 74.423
1.95 175.402 71.705
1.96 147.815 66.547
1.97 --undefined-- 58.474
1.98 --undefined-- 49.423
1.99 --undefined-- 45.693
2.00 --undefined-- 46.388
2.01 --undefined-- 49.289
2.02 --undefined-- 50.676
2.03 --undefined-- 50.347
2.04 --undefined-- 49.940
2.05 --undefined-- 49.794
2.06 --undefined-- 49.364
2.07 --undefined-- 49.680
2.08 --undefined-- 50.246
2.09 --undefined-- 50.327
2.10 --undefined-- 50.053
2.11 --undefined-- 49.843
2.12 --undefined-- 50.342
2.13 --undefined-- 51.201
2.14 --undefined-- 51.281
2.15 --undefined-- 49.811
2.16 --undefined-- 47.940
2.17 --undefined-- 48.427
2.18 --undefined-- 47.885
2.19 --undefined-- 45.789
2.20 --undefined-- 45.609
2.21 --undefined-- 45.685
2.22 --undefined-- 52.327
2.23 --undefined-- 61.091
2.24 --undefined-- 66.213
2.25 --undefined-- 68.544
2.26 102.233 69.397
2.27 100.375 69.869
2.28 101.180 70.381
2.29 102.355 70.825
2.30 103.078 71.034
2.31 103.338 71.108
2.32 105.219 71.050
2.33 106.592 70.751
2.34 111.350 70.222
2.35 118.625 69.671
2.36 125.292 70.011
2.37 129.554 71.888
2.38 136.876 73.917
2.39 132.262 74.764
2.40 129.487 74.890
2.41 129.418 75.039
2.42 130.838 75.121
2.43 132.218 75.058
2.44 134.186 74.954
2.45 134.909 74.923
2.46 138.036 74.881
2.47 140.324 74.459
2.48 139.301 73.395
2.49 136.350 71.640
2.50 132.672 69.032
2.51 128.249 65.328
2.52 107.629 60.670
2.53 112.505 56.970
2.54 116.483 58.947
2.55 160.198 65.089
2.56 154.527 69.614
2.57 138.655 72.098
2.58 125.285 73.075
2.59 118.314 73.015
2.60 116.944 72.796
2.61 116.690 72.932
2.62 116.291 73.066
2.63 114.959 72.949
2.64 114.084 72.478
2.65 112.703 71.371
2.66 108.527 69.356
2.67 106.098 66.786
2.68 109.010 64.675
2.69 113.809 62.799
2.70 106.709 60.080
2.71 111.187 59.495
2.72 156.939 63.988
2.73 129.161 68.576
2.74 118.779 71.727
2.75 116.393 73.665
2.76 116.541 74.813
2.77 118.345 75.486
2.78 121.366 75.849
2.79 124.528 76.007
2.80 126.870 76.107
2.81 128.547 76.210
2.82 129.315 75.965
2.83 127.181 74.704
2.84 127.273 72.072
2.85 130.196 68.353
2.86 130.132 63.782
2.87 143.234 58.407
2.88 --undefined-- 53.145
2.89 --undefined-- 51.228
2.90 --undefined-- 55.214
2.91 --undefined-- 63.268
2.92 176.191 69.421
2.93 158.702 72.682
2.94 145.900 73.838
2.95 132.871 73.933
2.96 129.348 73.859
2.97 123.950 73.781
2.98 121.050 73.482
2.99 113.767 72.852
3.00 110.441 72.163
3.01 106.284 71.573
3.02 103.743 70.888
3.03 101.152 69.967
3.04 96.461 68.888
3.05 93.494 67.882
3.06 93.110 67.138
3.07 94.027 66.757
3.08 95.148 66.705
3.09 96.542 66.826
3.10 97.180 66.937
3.11 97.860 66.880
3.12 98.864 66.523
3.13 99.635 65.779
3.14 101.260 64.599
3.15 110.364 62.723
3.16 118.593 61.819
3.17 --undefined-- 65.831
3.18 --undefined-- 70.075
3.19 115.165 72.371
3.20 112.168 73.267
3.21 110.904 73.590
3.22 111.002 73.887
3.23 110.909 74.283
3.24 111.014 74.527
3.25 111.884 74.498
3.26 112.313 74.301
3.27 111.562 74.162
3.28 111.234 74.167
3.29 112.098 74.315
3.30 112.810 74.570
3.31 113.662 74.842
3.32 114.059 74.959
3.33 114.321 74.845
3.34 114.995 74.549
3.35 116.129 74.023
3.36 115.710 73.339
3.37 113.962 72.764
3.38 111.747 72.409
3.39 112.212 72.162
3.40 108.968 71.989
3.41 107.659 72.171
3.42 104.625 72.704
3.43 104.264 72.994
3.44 104.353 72.893
3.45 107.293 72.614
3.46 103.678 72.298
3.47 103.271 72.070
3.48 101.942 71.969
3.49 104.112 72.138
3.50 104.554 72.502
3.51 105.441 72.732
3.52 104.666 72.683
3.53 104.656 72.487
3.54 105.096 72.369
3.55 105.654 72.426
3.56 105.528 72.768
3.57 108.207 73.371
3.58 111.974 74.035
3.59 116.846 74.552
3.60 118.581 75.078
3.61 121.821 75.861
3.62 126.656 76.779
3.63 129.789 77.685
3.64 132.048 78.471
3.65 135.189 79.014
3.66 138.363 79.183
3.67 143.295 79.011
3.68 148.227 78.507
3.69 149.345 76.978
3.70 146.332 73.827
3.71 160.877 69.997
3.72 172.010 66.925
3.73 162.713 63.127
3.74 154.756 56.830
3.75 --undefined-- 48.925
3.76 --undefined-- 51.965
3.77 --undefined-- 62.779
3.78 --undefined-- 70.160
3.79 --undefined-- 74.479
3.80 114.525 76.733
3.81 114.072 77.580
3.82 111.276 77.326
3.83 108.067 76.542
3.84 106.316 75.978
3.85 105.383 75.550
3.86 105.240 75.000
3.87 107.089 74.614
3.88 108.968 74.587
3.89 109.896 74.732
3.90 110.488 74.782
3.91 110.408 74.637
3.92 110.508 74.290
3.93 110.698 73.675
3.94 110.257 72.597
3.95 108.556 70.920
3.96 108.249 68.603
3.97 115.662 65.954
3.98 120.801 64.189
3.99 110.687 63.307
4.00 112.988 63.746
4.01 152.626 67.807
4.02 133.520 71.870
4.03 119.823 74.174
4.04 116.873 75.023
4.05 114.769 75.077
4.06 112.111 74.818
4.07 109.706 74.591
4.08 108.100 74.361
4.09 106.860 73.908
4.10 104.846 73.417
4.11 106.617 73.325
4.12 106.343 73.350
4.13 106.422 73.209
4.14 106.217 72.993
4.15 106.411 72.839
4.16 106.961 72.740
4.17 107.956 72.701
4.18 108.873 72.773
4.19 109.412 72.947
4.20 109.517 73.048
4.21 109.295 72.943
4.22 108.962 72.669
4.23 108.606 72.139
4.24 106.573 71.050
4.25 103.395 69.224
4.26 102.187 67.161
4.27 106.322 67.042
4.28 123.002 69.545
4.29 121.531 71.845
4.30 115.497 73.172
4.31 113.917 74.066
4.32 113.971 74.777
4.33 113.999 75.156
4.34 114.349 75.136
4.35 114.620 74.946
4.36 115.158 74.879
4.37 115.323 74.927
4.38 115.242 75.025
4.39 115.121 75.202
4.40 115.104 75.378
4.41 115.703 75.525
4.42 116.497 75.573
4.43 116.356 75.456
4.44 116.091 75.367
4.45 115.637 75.390
4.46 114.852 75.385
4.47 114.307 75.326
4.48 114.594 75.326
4.49 114.944 75.352
4.50 115.754 75.290
4.51 117.377 75.074
4.52 118.555 74.591
4.53 118.347 73.672
4.54 116.147 72.107
4.55 110.646 69.759
4.56 103.160 66.231
4.57 100.663 61.286
4.58 --undefined-- 54.860
4.59 --undefined-- 49.598
4.60 --undefined-- 48.012
4.61 --undefined-- 47.846
4.62 --undefined-- 48.073
4.63 --undefined-- 47.131
4.64 --undefined-- 45.345
4.65 --undefined-- 44.790
4.66 --undefined-- 44.674
4.67 --undefined-- 43.578
4.68 --undefined-- 41.222
4.69 --undefined-- 38.988
4.70 --undefined-- 38.204
4.71 --undefined-- 37.285
4.72 --undefined-- 35.502
4.73 --undefined-- 33.771
4.74 --undefined-- 34.169
4.75 --undefined-- 38.065
4.76 --undefined-- 41.420
4.77 --undefined-- 44.110
4.78 --undefined-- 46.383
4.79 --undefined-- 47.218
4.80 --undefined-- 47.367
4.81 --undefined-- 50.021
4.82 --undefined-- 54.347
4.83 113.897 56.512
4.84 114.587 56.362
4.85 109.558 55.335
4.86 110.347 54.872
4.87 111.273 55.623
4.88 109.196 60.530
4.89 --undefined-- 67.494
4.90 131.400 71.828
4.91 119.406 73.956
4.92 117.718 74.836
4.93 116.778 75.078
4.94 115.947 74.848
4.95 115.552 74.113
4.96 115.008 73.169
4.97 115.012 72.784
4.98 115.561 73.090
4.99 116.801 73.615
5.00 118.998 74.132
5.01 120.556 74.487
5.02 122.411 74.594
5.03 124.363 74.609
5.04 126.860 74.723
5.05 128.230 74.846
5.06 128.396 74.606
5.07 127.430 73.374
5.08 125.734 70.488
5.09 124.877 65.604
5.10 114.847 58.454
5.11 --undefined-- 51.263
5.12 --undefined-- 53.990
5.13 --undefined-- 62.814
5.14 208.565 69.083
5.15 192.082 71.867
5.16 193.956 72.117
5.17 --undefined-- 70.904
5.18 --undefined-- 68.422
5.19 --undefined-- 65.081
5.20 --undefined-- 63.324
5.21 --undefined-- 63.745
5.22 132.290 66.011
5.23 129.709 68.741
5.24 126.135 70.666
5.25 120.962 --undefined--
5.26 117.246 --undefined--
5.27 --undefined-- --undefined--
5.28 --undefined-- --undefined--
