Time Pitch Intensity
0.01 --undefined-- --undefined--
0.02 96.189 --undefined--
0.03 95.465 --undefined--
0.04 96.644 --undefined--
0.05 98.520 69.063
0.06 99.499 69.655
0.07 100.541 70.231
0.08 100.786 70.581
0.09 100.285 70.651
0.10 100.004 70.547
0.11 99.923 70.399
0.12 98.716 70.363
0.13 97.552 70.561
0.14 97.513 70.858
0.15 97.398 70.961
0.16 97.175 70.754
0.17 97.213 70.308
0.18 96.932 69.644
0.19 95.317 69.120
0.20 97.437 69.546
0.21 100.486 70.575
0.22 102.396 71.482
0.23 103.922 72.162
0.24 105.337 72.628
0.25 106.960 72.931
0.26 108.043 73.098
0.27 108.857 73.001
0.28 108.955 72.297
0.29 106.836 70.760
0.30 107.392 69.100
0.31 112.011 69.192
0.32 115.567 71.172
0.33 118.192 73.171
0.34 117.022 73.973
0.35 111.542 73.761
0.36 109.674 73.537
0.37 108.853 73.645
0.38 108.536 73.792
0.39 108.419 73.740
0.40 108.400 73.475
0.41 108.335 73.227
0.42 109.123 73.167
0.43 109.260 73.327
0.44 110.944 73.868
0.45 113.351 74.449
0.46 113.435 74.489
0.47 112.502 74.413
0.48 111.831 74.747
0.49 111.280 75.126
0.50 111.392 75.302
0.51 112.037 75.390
0.52 112.611 75.454
0.53 114.167 75.548
0.54 114.890 75.747
0.55 115.098 75.942
0.56 115.874 76.092
0.57 118.016 76.075
0.58 120.184 75.696
0.59 122.480 75.016
0.60 124.122 74.220
0.61 129.896 73.861
0.62 134.674 74.053
0.63 138.546 74.412
0.64 147.805 75.188
0.65 149.181 76.399
0.66 151.196 77.455
0.67 153.165 78.244
0.68 154.762 78.773
0.69 155.785 78.996
0.70 156.260 78.920
0.71 156.328 78.695
0.72 156.035 78.526
0.73 155.587 78.371
0.74 154.746 77.805
0.75 152.840 76.197
0.76 146.025 73.286
0.77 134.701 69.955
0.78 131.838 67.834
0.79 129.844 66.879
0.80 133.785 67.935
0.81 144.498 71.809
0.82 148.438 75.402
0.83 149.703 77.365
0.84 148.227 77.783
0.85 146.005 77.318
0.86 146.315 76.563
0.87 146.891 75.172
0.88 143.136 72.632
0.89 137.732 69.275
0.90 135.552 66.402
0.91 135.950 64.100
0.92 133.667 61.405
0.93 --undefined-- 57.540
0.94 --undefined-- 52.473
0.95 --undefined-- 52.211
0.96 --undefined-- 59.297
0.97 --undefined-- 67.854
0.98 157.792 73.601
0.99 151.875 76.458
1.00 144.811 77.189
1.01 138.779 77.008
1.02 135.741 77.140
1.03 133.831 77.615
1.04 132.655 78.030
1.05 131.730 78.218
1.06 130.813 78.233
1.07 130.209 78.213
1.08 129.752 78.209
1.09 129.402 78.245
1.10 129.055 78.336
1.11 128.787 78.422
1.12 128.447 78.412
1.13 128.001 78.217
1.14 127.810 77.796
1.15 127.584 77.187
1.16 126.965 76.410
1.17 126.564 75.463
1.18 126.940 74.455
1.19 126.443 73.397
1.20 123.434 71.922
1.21 118.749 69.777
1.22 115.474 67.363
1.23 115.081 65.230
1.24 114.158 63.064
1.25 122.882 61.643
1.26 145.564 64.939
1.27 147.409 69.893
1.28 141.280 73.157
1.29 131.609 74.674
1.30 126.411 75.392
1.31 125.319 76.236
1.32 125.229 77.135
1.33 125.088 77.687
1.34 124.622 77.791
1.35 123.978 77.558
1.36 123.687 77.191
1.37 123.076 76.826
1.38 122.225 76.591
1.39 121.309 76.486
1.40 120.852 76.361
1.41 121.082 76.225
1.42 121.158 76.141
1.43 121.739 76.049
1.44 121.983 75.952
1.45 122.012 75.970
1.46 122.299 76.082
1.47 122.689 76.178
1.48 122.587 76.255
1.49 122.039 76.311
1.50 121.977 76.371
1.51 122.306 76.469
1.52 122.173 76.538
1.53 121.976 76.590
1.54 122.214 76.681
1.55 122.348 76.740
1.56 122.649 76.874
1.57 122.562 77.098
1.58 121.559 77.057
1.59 119.609 76.115
1.60 117.258 73.820
1.61 116.862 71.077
1.62 117.479 70.075
1.63 119.640 70.873
1.64 121.106 72.247
1.65 120.271 73.268
1.66 118.760 73.888
1.67 117.048 74.354
1.68 115.731 75.036
1.69 116.185 76.318
1.70 118.008 77.465
1.71 106.621 77.670
1.72 105.273 77.188
1.73 103.564 76.292
1.74 103.517 75.023
1.75 105.329 73.866
1.76 109.137 73.041
1.77 113.975 72.331
1.78 115.243 71.713
1.79 117.490 71.792
1.80 119.981 72.715
1.81 118.021 73.679
1.82 117.492 74.550
1.83 119.450 75.242
1.84 123.074 75.738
1.85 126.931 76.407
1.86 129.529 77.322
1.87 130.353 78.083
1.88 130.700 78.094
1.89 129.541 76.773
1.90 121.420 73.895
1.91 110.693 69.811
1.92 110.194 65.016
1.93 --undefined-- 60.279
1.94 --undefined-- 57.543
1.95 --undefined-- 56.654
1.96 --undefined-- 56.867
1.97 --undefined-- 63.118
1.98 --undefined-- 71.880
1.99 --undefined-- 77.435
2.00 145.122 80.170
2.01 133.806 81.291
2.02 129.530 81.672
2.03 128.989 81.616
2.04 127.369 81.054
2.05 127.502 80.174
2.06 128.276 79.626
2.07 128.837 79.566
2.08 124.843 79.416
2.09 126.671 78.777
2.10 128.102 78.237
2.11 130.588 78.238
2.12 133.504 78.358
2.13 135.742 78.488
2.14 137.808 78.661
2.15 138.702 78.607
2.16 138.399 78.187
2.17 139.660 77.975
2.18 146.923 78.873
2.19 152.803 80.647
2.20 149.429 81.839
2.21 150.747 82.397
2.22 153.208 83.056
2.23 156.200 83.590
2.24 158.147 83.436
2.25 157.710 82.264
2.26 154.999 79.967
2.27 145.434 76.901
2.28 140.599 73.582
2.29 128.485 69.231
2.30 --undefined-- 62.510
2.31 --undefined-- 53.820
2.32 --undefined-- 48.572
2.33 --undefined-- 47.017
2.34 --undefined-- 47.836
2.35 --undefined-- 49.199
2.36 --undefined-- 49.411
2.37 --undefined-- 50.050
2.38 --undefined-- 51.055
2.39 --undefined-- 51.100
2.40 --undefined-- 50.683
2.41 --undefined-- 50.663
2.42 --undefined-- 50.517
2.43 --undefined-- 49.816
2.44 --undefined-- 49.666
2.45 --undefined-- 50.463
2.46 --undefined-- 50.673
2.47 --undefined-- 50.515
2.48 --undefined-- 50.957
2.49 --undefined-- 51.020
2.50 --undefined-- 49.847
2.51 --undefined-- 48.671
2.52 --undefined-- 48.021
2.53 --undefined-- 47.038
2.54 --undefined-- 46.283
2.55 --undefined-- 45.822
2.56 --undefined-- 44.580
2.57 --undefined-- 42.403
2.58 --undefined-- 40.858
2.59 --undefined-- 40.757
2.60 --undefined-- 41.488
2.61 --undefined-- 40.744
2.62 --undefined-- 40.629
2.63 --undefined-- 52.027
2.64 --undefined-- 62.616
2.65 227.088 69.274
2.66 217.491 72.893
2.67 203.980 74.287
2.68 190.745 74.708
2.69 191.023 75.587
2.70 194.211 76.841
2.71 197.336 77.805
2.72 198.720 78.148
2.73 198.892 77.674
2.74 195.475 76.767
2.75 194.981 77.072
2.76 201.465 78.303
2.77 203.532 79.066
2.78 205.599 79.421
2.79 205.823 79.583
2.80 205.092 79.590
2.81 203.807 79.423
2.82 202.548 79.123
2.83 201.953 78.808
2.84 201.632 78.567
2.85 201.735 78.417
2.86 202.109 78.324
2.87 201.736 78.200
2.88 200.640 77.981
2.89 199.793 77.727
2.90 199.491 77.550
2.91 199.807 77.474
2.92 200.494 77.422
2.93 201.012 77.322
2.94 201.083 77.156
2.95 200.439 76.935
2.96 199.098 76.574
2.97 196.188 75.858
2.98 192.770 74.618
2.99 187.764 72.657
3.00 179.869 69.773
3.01 168.990 66.349
3.02 164.883 63.260
3.03 --undefined-- 59.840
3.04 --undefined-- 55.275
3.05 --undefined-- 58.890
3.06 --undefined-- 67.761
3.07 231.737 74.954
3.08 205.193 79.498
3.09 195.972 81.318
3.10 188.892 81.062
3.11 183.053 80.188
3.12 180.679 79.897
3.13 180.438 80.034
3.14 180.015 80.165
3.15 178.868 80.187
3.16 177.938 80.154
3.17 177.396 80.140
3.18 177.586 80.222
3.19 178.897 80.474
3.20 181.124 80.899
3.21 182.874 81.370
3.22 183.753 81.698
3.23 184.330 81.732
3.24 184.457 81.521
3.25 184.945 81.167
3.26 185.393 80.676
3.27 185.573 80.172
3.28 185.344 79.981
3.29 184.786 80.234
3.30 184.023 80.669
3.31 183.539 81.001
3.32 183.162 81.095
3.33 182.173 80.918
3.34 180.333 80.505
3.35 177.451 79.971
3.36 172.361 79.594
3.37 167.895 79.372
3.38 163.703 78.689
3.39 153.944 77.027
3.40 147.055 74.391
3.41 130.844 71.023
3.42 120.963 68.183
3.43 121.106 67.716
3.44 125.602 68.718
3.45 126.558 70.440
3.46 131.503 72.114
3.47 131.143 73.254
3.48 128.169 74.372
3.49 123.715 75.894
3.50 121.413 77.481
3.51 119.816 78.401
3.52 118.320 78.602
3.53 117.672 78.558
3.54 117.022 78.247
3.55 117.039 77.631
3.56 117.357 77.373
3.57 118.062 77.497
3.58 118.130 77.313
3.59 118.041 76.687
3.60 118.400 75.935
3.61 118.281 75.329
3.62 117.593 74.969
3.63 117.523 74.639
3.64 118.531 74.072
3.65 118.167 73.257
3.66 113.801 72.129
3.67 106.238 70.347
3.68 93.836 67.611
3.69 --undefined-- 63.742
3.70 --undefined-- 58.569
3.71 --undefined-- 54.536
3.72 --undefined-- 52.613
3.73 --undefined-- 49.799
3.74 --undefined-- 48.178
3.75 --undefined-- 47.132
3.76 --undefined-- 45.350
3.77 --undefined-- 43.470
3.78 --undefined-- 41.674
3.79 --undefined-- 41.433
3.80 --undefined-- 41.117
3.81 --undefined-- 38.920
3.82 --undefined-- 36.697
3.83 --undefined-- 37.002
3.84 --undefined-- 37.749
3.85 --undefined-- 39.225
3.86 --undefined-- 45.954
3.87 --undefined-- 55.052
3.88 --undefined-- 61.548
3.89 --undefined-- 66.084
3.90 106.568 68.910
3.91 105.223 70.080
3.92 102.228 69.881
3.93 99.984 68.973
3.94 97.729 67.902
3.95 94.493 66.869
3.96 92.998 66.395
3.97 93.257 66.292
3.98 92.937 65.923
3.99 92.185 65.447
4.00 91.463 65.116
4.01 90.959 65.054
4.02 91.080 65.154
4.03 91.574 65.103
4.04 91.624 64.859
4.05 90.860 64.610
4.06 90.742 64.560
4.07 91.095 64.757
4.08 91.427 64.876
4.09 90.994 64.656
4.10 87.422 64.206
4.11 89.326 64.344
4.12 94.850 65.069
4.13 87.511 65.292
4.14 89.622 65.221
4.15 91.685 65.080
4.16 90.166 65.231
4.17 102.830 66.429
4.18 98.041 67.864
4.19 101.547 69.327
4.20 104.246 71.257
4.21 108.383 73.467
4.22 111.443 75.495
4.23 118.453 76.965
4.24 123.000 77.713
4.25 129.540 77.927
4.26 137.513 78.004
4.27 143.157 78.389
4.28 147.849 79.134
4.29 151.231 79.489
4.30 152.423 79.134
4.31 157.005 77.970
4.32 162.391 76.360
4.33 159.088 75.218
4.34 153.860 74.877
4.35 150.356 75.058
4.36 147.249 75.433
4.37 144.950 75.891
4.38 142.880 76.298
4.39 138.268 76.782
4.40 136.198 77.352
4.41 133.477 77.738
4.42 131.803 77.539
4.43 128.772 76.285
4.44 123.594 73.695
4.45 116.473 69.998
4.46 112.816 66.191
4.47 113.103 62.559
4.48 --undefined-- 60.341
4.49 --undefined-- 64.276
4.50 --undefined-- 68.546
4.51 --undefined-- 73.093
4.52 152.305 77.053
4.53 147.620 78.987
4.54 124.641 79.484
4.55 123.604 79.251
4.56 120.421 78.347
4.57 119.421 77.676
4.58 119.887 77.750
4.59 120.172 77.917
4.60 119.930 77.942
4.61 120.360 77.960
4.62 120.860 78.152
4.63 120.635 78.647
4.64 119.653 79.112
4.65 118.613 78.886
4.66 119.476 77.960
4.67 121.186 77.316
4.68 122.534 77.343
4.69 124.081 77.314
4.70 123.450 76.841
4.71 121.291 75.890
4.72 119.555 74.460
4.73 118.055 72.416
4.74 116.481 69.788
4.75 116.209 66.908
4.76 --undefined-- 63.446
4.77 --undefined-- 59.552
4.78 --undefined-- 57.006
4.79 --undefined-- 56.236
4.80 --undefined-- 55.967
4.81 --undefined-- 55.722
4.82 --undefined-- 55.757
4.83 --undefined-- 55.580
4.84 --undefined-- 54.830
4.85 --undefined-- 54.749
4.86 --undefined-- 56.663
4.87 --undefined-- 59.272
4.88 --undefined-- 64.967
4.89 214.248 73.834
4.90 203.013 79.461
4.91 183.698 81.967
4.92 174.645 82.564
4.93 172.310 82.538
4.94 170.589 82.295
4.95 170.742 81.908
4.96 170.625 81.664
4.97 170.177 81.636
4.98 169.678 81.749
4.99 169.285 81.974
5.00 169.023 82.221
5.01 169.095 82.406
5.02 168.923 82.455
5.03 167.617 82.360
5.04 165.280 82.112
5.05 161.129 81.484
5.06 157.087 --undefined--
5.07 150.031 --undefined--
5.08 --undefined-- --undefined--
5.09 --undefined-- --undefined--
