Time Pitch Intensity
0.01 --undefined-- --undefined--
0.02 192.736 --undefined--
0.03 192.155 --undefined--
0.04 191.534 --undefined--
0.05 190.572 68.738
0.06 190.977 67.495
0.07 188.746 66.471
0.08 183.839 65.918
0.09 179.688 65.904
0.10 171.693 65.977
0.11 163.257 66.115
0.12 157.823 66.508
0.13 153.830 67.002
0.14 150.253 67.687
0.15 147.093 68.300
0.16 143.173 68.478
0.17 139.559 68.378
0.18 138.335 68.447
0.19 136.813 68.645
0.20 135.278 68.648
0.21 135.429 68.215
0.22 136.204 67.030
0.23 124.326 65.050
0.24 136.744 62.654
0.25 145.636 59.961
0.26 152.256 56.855
0.27 163.015 55.088
0.28 166.631 58.095
0.29 155.128 62.569
0.30 145.169 65.543
0.31 135.921 66.745
0.32 129.279 66.946
0.33 126.490 66.997
0.34 124.567 67.058
0.35 122.967 66.936
0.36 120.991 66.316
0.37 119.065 64.814
0.38 114.298 62.298
0.39 113.610 59.272
0.40 118.544 56.385
0.41 144.168 53.968
0.42 144.449 51.987
0.43 --undefined-- 50.070
0.44 --undefined-- 52.540
0.45 --undefined-- 59.316
0.46 --undefined-- 63.727
0.47 132.226 65.711
0.48 126.360 66.299
0.49 124.304 66.355
0.50 120.094 65.862
0.51 116.395 64.968
0.52 115.274 64.397
0.53 115.093 64.335
0.54 115.654 64.308
0.55 116.645 64.315
0.56 116.103 64.683
0.57 116.284 65.014
0.58 117.164 65.019
0.59 118.031 64.810
0.60 119.958 64.530
0.61 123.258 64.392
0.62 126.356 64.623
0.63 129.012 65.147
0.64 132.534 65.742
0.65 134.694 66.489
0.66 134.430 67.209
0.67 132.132 67.427
0.68 130.181 67.279
0.69 129.090 67.363
0.70 127.386 67.606
0.71 126.210 67.535
0.72 124.970 67.154
0.73 123.911 66.872
0.74 124.296 66.954
0.75 124.454 67.162
0.76 124.353 67.137
0.77 124.783 66.673
0.78 125.684 65.504
0.79 127.402 63.414
0.80 134.381 60.431
0.81 133.794 56.273
0.82 --undefined-- 50.800
0.83 --undefined-- 46.098
0.84 --undefined-- 44.262
0.85 --undefined-- 43.878
0.86 --undefined-- 43.104
0.87 --undefined-- 42.485
0.88 --undefined-- 42.449
0.89 --undefined-- 42.316
0.90 --undefined-- 49.113
0.91 229.115 58.407
0.92 211.308 64.098
0.93 196.588 66.814
0.94 188.283 67.866
0.95 183.778 68.202
0.96 180.667 68.114
0.97 178.794 67.786
0.98 178.461 67.409
0.99 179.165 66.921
1.00 180.699 66.145
1.01 181.135 65.634
1.02 188.502 66.484
1.03 194.619 67.743
1.04 197.998 68.010
1.05 197.973 67.063
1.06 195.067 64.850
1.07 187.091 61.220
1.08 183.082 56.037
1.09 187.097 50.261
1.10 --undefined-- 46.548
1.11 --undefined-- 46.574
1.12 --undefined-- 47.117
1.13 --undefined-- 48.845
1.14 --undefined-- 57.422
1.15 204.984 64.156
1.16 196.385 67.801
1.17 193.553 69.515
1.18 188.739 70.557
1.19 179.509 71.494
1.20 174.971 72.143
1.21 172.606 72.407
1.22 169.833 72.458
1.23 167.824 72.384
1.24 167.245 72.256
1.25 166.804 72.160
1.26 166.967 71.824
1.27 168.501 71.017
1.28 171.098 69.914
1.29 172.421 68.701
1.30 171.983 67.069
1.31 165.874 64.602
1.32 --undefined-- 61.032
1.33 --undefined-- 56.745
1.34 --undefined-- 51.894
1.35 --undefined-- 46.076
1.36 --undefined-- 43.003
1.37 --undefined-- 41.902
1.38 --undefined-- 39.556
1.39 --undefined-- 36.664
1.40 --undefined-- 35.264
1.41 --undefined-- 36.730
1.42 --undefined-- 38.360
1.43 --undefined-- 47.091
1.44 --undefined-- 57.517
1.45 --undefined-- 63.457
1.46 154.267 66.174
1.47 168.913 67.252
1.48 168.644 67.610
1.49 167.282 67.486
1.50 166.782 67.348
1.51 173.210 67.034
1.52 173.899 66.088
1.53 179.745 64.066
1.54 177.941 60.294
1.55 168.528 54.558
1.56 --undefined-- 47.983
1.57 --undefined-- 42.394
1.58 --undefined-- 39.273
1.59 --undefined-- 39.566
1.60 --undefined-- 41.221
1.61 --undefined-- 43.676
1.62 --undefined-- 45.594
1.63 --undefined-- 45.886
1.64 --undefined-- 45.075
1.65 --undefined-- 44.585
1.66 --undefined-- 47.315
1.67 170.727 53.840
1.68 167.952 58.604
1.69 149.787 60.842
1.70 111.735 61.702
1.71 106.709 62.575
1.72 78.157 63.352
1.73 78.195 63.476
1.74 74.687 62.885
1.75 --undefined-- 61.607
1.76 --undefined-- 59.767
1.77 --undefined-- 57.551
1.78 --undefined-- 54.492
1.79 --undefined-- 50.160
1.80 --undefined-- 46.612
1.81 --undefined-- 43.846
1.82 --undefined-- 40.294
1.83 --undefined-- 37.471
1.84 --undefined-- 38.644
1.85 --undefined-- 42.062
1.86 --undefined-- 45.660
1.87 --undefined-- 47.930
1.88 --undefined-- 48.774
1.89 --undefined-- 48.583
1.90 --undefined-- 48.686
1.91 --undefined-- 55.044
1.92 --undefined-- 61.716
1.93 --undefined-- 65.280
1.94 110.776 66.368
1.95 106.799 66.269
1.96 100.399 65.948
1.97 97.858 65.351
1.98 97.539 64.394
1.99 98.197 63.222
2.00 97.766 61.883
2.01 97.673 60.626
2.02 101.344 60.321
2.03 112.989 61.640
2.04 123.232 63.862
2.05 133.539 65.871
2.06 140.433 67.185
2.07 149.645 67.980
2.08 160.989 68.697
2.09 174.806 69.400
2.10 183.043 69.586
2.11 191.637 69.178
2.12 211.154 68.763
2.13 220.717 68.265
2.14 228.536 67.231
2.15 235.740 65.680
2.16 242.495 63.206
2.17 243.814 58.976
2.18 --undefined-- 52.479
2.19 --undefined-- 44.548
2.20 --undefined-- 40.283
2.21 --undefined-- 38.308
2.22 --undefined-- 36.404
2.23 --undefined-- 39.135
2.24 --undefined-- 41.918
2.25 --undefined-- 42.003
2.26 --undefined-- 40.396
2.27 --undefined-- 38.749
2.28 --undefined-- 37.700
2.29 --undefined-- 37.677
2.30 --undefined-- 38.049
2.31 --undefined-- 38.689
2.32 --undefined-- 39.833
2.33 --undefined-- 40.186
2.34 --undefined-- 39.106
2.35 --undefined-- 38.393
2.36 --undefined-- 39.591
2.37 --undefined-- 40.813
2.38 --undefined-- 41.132
2.39 --undefined-- 40.664
2.40 --undefined-- 39.486
2.41 --undefined-- 37.828
2.42 --undefined-- 36.675
2.43 --undefined-- 36.947
2.44 --undefined-- 37.429
2.45 --undefined-- 37.106
2.46 --undefined-- 35.655
2.47 --undefined-- 33.396
2.48 --undefined-- 34.075
2.49 --undefined-- 36.481
2.50 --undefined-- 38.274
2.51 --undefined-- 39.458
2.52 --undefined-- 40.238
2.53 --undefined-- 39.977
2.54 --undefined-- 38.469
2.55 --undefined-- 37.824
2.56 --undefined-- 39.749
2.57 --undefined-- 42.095
2.58 --undefined-- 42.911
2.59 --undefined-- 46.171
2.60 --undefined-- 55.621
2.61 256.882 62.137
2.62 228.036 65.670
2.63 229.062 67.544
2.64 231.094 68.695
2.65 232.687 69.337
2.66 233.500 69.325
2.67 231.997 68.795
2.68 230.119 68.365
2.69 232.430 68.422
2.70 233.064 68.829
2.71 231.822 69.140
2.72 229.615 69.166
2.73 223.245 69.052
2.74 213.516 68.984
2.75 203.832 69.073
2.76 207.085 68.931
2.77 167.007 68.405
2.78 146.163 68.211
2.79 137.883 68.044
2.80 129.061 67.488
2.81 121.249 66.995
2.82 116.396 66.811
2.83 111.536 66.804
2.84 111.137 66.763
2.85 111.577 66.576
2.86 111.541 66.350
2.87 110.882 66.152
2.88 109.982 65.988
2.89 108.600 65.693
2.90 107.069 65.167
2.91 106.214 64.768
2.92 106.491 64.736
2.93 106.528 65.051
2.94 107.865 65.607
2.95 108.766 66.232
2.96 109.544 66.664
2.97 109.229 66.730
2.98 107.598 66.670
2.99 106.654 66.542
3.00 103.804 66.300
3.01 100.640 66.201
3.02 98.346 66.135
3.03 94.302 65.748
3.04 89.893 65.066
3.05 83.839 64.213
3.06 78.576 63.335
3.07 77.386 62.527
3.08 77.343 61.593
3.09 79.234 60.355
3.10 81.155 58.817
3.11 82.456 57.036
3.12 89.495 55.005
3.13 87.896 52.683
3.14 --undefined-- 50.077
3.15 --undefined-- 47.393
3.16 --undefined-- 43.557
3.17 --undefined-- 37.997
3.18 --undefined-- 34.259
3.19 --undefined-- 33.809
3.20 --undefined-- 34.307
3.21 --undefined-- 35.705
3.22 --undefined-- 36.651
3.23 --undefined-- 36.033
3.24 --undefined-- 34.127
3.25 --undefined-- 32.587
3.26 --undefined-- 34.356
3.27 --undefined-- 36.733
3.28 --undefined-- 37.548
3.29 --undefined-- 37.075
3.30 --undefined-- 35.652
3.31 --undefined-- 33.633
3.32 --undefined-- 33.635
3.33 --undefined-- 35.463
3.34 --undefined-- 36.795
3.35 --undefined-- 36.878
3.36 --undefined-- 35.410
3.37 --undefined-- 34.940
3.38 --undefined-- 40.216
3.39 --undefined-- 44.826
3.40 --undefined-- 51.452
3.41 --undefined-- 59.111
3.42 --undefined-- 64.490
3.43 142.712 67.641
3.44 140.240 68.999
3.45 138.731 69.162
3.46 138.107 68.863
3.47 135.821 68.536
3.48 133.961 68.333
3.49 132.516 68.063
3.50 130.299 67.417
3.51 127.280 66.683
3.52 128.960 66.517
3.53 131.409 66.502
3.54 132.624 65.908
3.55 133.134 64.321
3.56 133.552 61.319
3.57 138.889 57.245
3.58 150.266 54.257
3.59 158.416 52.416
3.60 --undefined-- 50.502
3.61 --undefined-- 48.996
3.62 --undefined-- 49.492
3.63 136.593 54.255
3.64 136.984 59.369
3.65 136.379 62.418
3.66 130.498 63.463
3.67 122.359 63.193
3.68 113.511 62.536
3.69 105.201 62.243
3.70 93.658 62.382
3.71 87.847 62.347
3.72 86.610 61.822
3.73 86.150 60.990
3.74 --undefined-- 59.858
3.75 --undefined-- 58.953
3.76 --undefined-- 57.565
3.77 --undefined-- 54.587
3.78 --undefined-- 49.337
3.79 --undefined-- 42.289
3.80 --undefined-- 36.827
3.81 --undefined-- 36.599
3.82 --undefined-- 39.185
3.83 --undefined-- 41.882
3.84 --undefined-- 45.998
3.85 --undefined-- 50.562
3.86 --undefined-- 53.108
3.87 --undefined-- 53.340
3.88 --undefined-- 52.436
3.89 --undefined-- 51.961
3.90 --undefined-- 56.475
3.91 --undefined-- 62.200
3.92 116.163 65.634
3.93 108.152 67.102
3.94 100.291 67.253
3.95 89.872 66.588
3.96 82.840 65.173
3.97 --undefined-- 62.795
3.98 --undefined-- 59.621
3.99 --undefined-- 55.708
4.00 --undefined-- 51.148
4.01 --undefined-- 50.166
4.02 --undefined-- 49.053
4.03 --undefined-- 44.241
4.04 --undefined-- 37.697
4.05 --undefined-- 36.060
4.06 --undefined-- 38.026
4.07 --undefined-- 39.086
4.08 --undefined-- 38.602
4.09 --undefined-- 37.238
4.10 --undefined-- 37.331
4.11 --undefined-- 39.764
4.12 --undefined-- 40.836
4.13 --undefined-- 40.417
4.14 --undefined-- 39.933
4.15 --undefined-- 39.268
4.16 --undefined-- 38.789
4.17 --undefined-- 39.460
4.18 --undefined-- 40.422
4.19 --undefined-- 40.872
4.20 --undefined-- 40.474
4.21 --undefined-- 39.162
4.22 --undefined-- 38.103
4.23 --undefined-- 38.602
4.24 --undefined-- 39.561
4.25 --undefined-- 39.272
4.26 --undefined-- 37.344
4.27 --undefined-- 35.107
4.28 --undefined-- 35.152
4.29 --undefined-- 36.922
4.30 --undefined-- 38.288
4.31 --undefined-- 38.480
4.32 --undefined-- 37.460
4.33 --undefined-- 36.195
4.34 --undefined-- 37.127
4.35 --undefined-- 39.127
4.36 --undefined-- 40.013
4.37 --undefined-- 39.905
4.38 --undefined-- 39.510
4.39 --undefined-- 39.376
4.40 --undefined-- 40.019
4.41 --undefined-- 41.611
4.42 --undefined-- 43.145
4.43 --undefined-- 48.855
4.44 --undefined-- 59.669
4.45 --undefined-- 66.842
4.46 243.200 70.743
4.47 237.552 72.466
4.48 225.724 73.097
4.49 218.217 73.325
4.50 213.478 73.240
4.51 211.692 72.850
4.52 212.610 72.416
4.53 215.012 72.118
4.54 217.533 71.836
4.55 219.305 71.535
4.56 219.425 71.266
4.57 218.946 70.785
4.58 217.990 69.561
4.59 214.944 66.897
4.60 212.020 62.336
4.61 219.149 57.248
4.62 221.255 52.558
4.63 --undefined-- 46.974
4.64 --undefined-- 44.542
4.65 --undefined-- 47.024
4.66 --undefined-- 47.896
4.67 --undefined-- 48.545
4.68 --undefined-- 53.874
4.69 192.237 60.024
4.70 184.318 63.939
4.71 172.172 65.908
4.72 159.483 67.104
4.73 156.261 68.271
4.74 126.703 69.132
4.75 112.926 69.484
4.76 106.737 69.354
4.77 101.786 69.027
4.78 94.269 68.758
4.79 86.801 68.400
4.80 82.023 67.753
4.81 82.296 66.563
4.82 75.324 64.911
4.83 --undefined-- 62.902
4.84 --undefined-- 60.581
4.85 --undefined-- 57.863
4.86 --undefined-- 55.636
4.87 --undefined-- 55.471
4.88 --undefined-- 55.357
4.89 --undefined-- 52.694
4.90 --undefined-- 47.772
4.91 --undefined-- 42.930
4.92 --undefined-- 39.942
4.93 --undefined-- 36.597
4.94 --undefined-- 34.108
4.95 --undefined-- 35.199
4.96 --undefined-- 37.896
4.97 --undefined-- 39.408
4.98 --undefined-- 38.725
4.99 --undefined-- 37.148
5.00 --undefined-- 36.692
5.01 --undefined-- 36.989
5.02 --undefined-- 37.795
5.03 --undefined-- 38.976
5.04 --undefined-- 39.609
5.05 --undefined-- 38.994
5.06 --undefined-- 36.964
5.07 --undefined-- 34.394
5.08 --undefined-- 33.313
5.09 --undefined-- 34.970
5.10 --undefined-- 37.233
5.11 --undefined-- 38.067
5.12 --undefined-- 37.028
5.13 --undefined-- 34.389
5.14 --undefined-- 31.795
5.15 --undefined-- 32.561
5.16 --undefined-- 35.519
5.17 --undefined-- 37.483
5.18 --undefined-- 37.965
5.19 --undefined-- 37.032
5.20 --undefined-- 34.791
5.21 --undefined-- 32.603
5.22 --undefined-- 34.332
5.23 --undefined-- 36.983
5.24 --undefined-- 38.340
5.25 --undefined-- 38.265
5.26 --undefined-- 38.076
5.27 --undefined-- 41.732
5.28 --undefined-- 44.752
5.29 --undefined-- 47.064
5.30 --undefined-- 54.608
5.31 --undefined-- 61.442
5.32 158.375 65.975
5.33 155.900 68.985
5.34 153.152 70.826
5.35 150.484 71.689
5.36 147.199 71.650
5.37 144.499 71.127
5.38 142.779 70.772
5.39 142.349 70.911
5.40 141.570 71.126
5.41 139.805 70.723
5.42 137.053 70.175
5.43 141.579 70.285
5.44 142.597 70.288
5.45 140.775 69.385
5.46 138.563 66.968
5.47 137.518 62.731
5.48 146.129 57.331
5.49 145.760 53.793
5.50 141.191 53.725
5.51 163.614 58.881
5.52 162.855 63.981
5.53 155.944 66.568
5.54 148.950 67.262
5.55 141.096 66.887
5.56 129.614 65.875
5.57 114.903 65.036
5.58 101.599 64.895
5.59 93.369 64.534
5.60 88.452 63.391
5.61 82.749 62.144
5.62 86.499 61.659
5.63 87.979 61.611
5.64 88.125 61.478
5.65 90.923 61.167
5.66 93.691 60.456
5.67 92.583 58.825
5.68 86.586 56.125
5.69 90.220 53.964
5.70 90.537 52.198
5.71 --undefined-- 48.824
5.72 --undefined-- 43.428
5.73 --undefined-- 39.008
5.74 --undefined-- 41.470
5.75 --undefined-- 44.586
5.76 --undefined-- 47.281
5.77 --undefined-- 49.121
5.78 --undefined-- 50.666
5.79 --undefined-- 52.236
5.80 --undefined-- 51.962
5.81 --undefined-- 52.813
5.82 --undefined-- 58.608
5.83 --undefined-- 62.581
5.84 83.914 63.944
5.85 84.155 63.550
5.86 74.484 62.373
5.87 --undefined-- 61.146
5.88 --undefined-- 60.155
5.89 --undefined-- 59.301
5.90 77.982 57.977
5.91 77.857 55.445
5.92 75.442 51.659
5.93 --undefined-- 46.773
5.94 --undefined-- 42.276
5.95 --undefined-- 39.377
5.96 --undefined-- 37.935
5.97 --undefined-- 44.170
5.98 --undefined-- 55.057
5.99 --undefined-- 62.716
6.00 --undefined-- 67.049
6.01 --undefined-- 68.880
6.02 --undefined-- 69.118
6.03 --undefined-- 68.549
6.04 --undefined-- 67.243
6.05 --undefined-- 64.524
6.06 --undefined-- 60.301
6.07 --undefined-- 54.868
6.08 --undefined-- 47.582
6.09 --undefined-- 42.310
6.10 --undefined-- 40.568
6.11 --undefined-- 39.726
6.12 --undefined-- 38.442
6.13 --undefined-- 37.000
6.14 --undefined-- 35.248
6.15 --undefined-- 33.464
6.16 --undefined-- 33.918
6.17 --undefined-- 35.208
6.18 --undefined-- 36.195
6.19 --undefined-- 36.008
6.20 --undefined-- 34.465
6.21 --undefined-- 33.578
6.22 --undefined-- 35.609
6.23 --undefined-- 37.895
6.24 --undefined-- 39.328
6.25 --undefined-- 39.421
6.26 --undefined-- 37.475
6.27 --undefined-- 35.200
6.28 --undefined-- 36.074
6.29 --undefined-- 37.576
6.30 --undefined-- 37.865
6.31 --undefined-- 36.763
6.32 --undefined-- 34.441
6.33 --undefined-- 33.133
6.34 --undefined-- 35.150
6.35 --undefined-- 37.339
6.36 --undefined-- 37.972
6.37 --undefined-- 37.135
6.38 --undefined-- 35.307
6.39 --undefined-- 33.509
6.40 --undefined-- 33.796
6.41 --undefined-- 37.950
6.42 --undefined-- 42.930
6.43 --undefined-- 46.047
6.44 --undefined-- 47.024
6.45 --undefined-- 50.418
6.46 230.805 57.917
6.47 223.022 63.679
6.48 216.837 66.705
6.49 208.485 67.360
6.50 211.504 66.593
6.51 230.340 65.935
6.52 243.516 65.568
6.53 265.521 65.508
6.54 283.923 66.159
6.55 299.391 67.004
6.56 153.666 67.325
6.57 155.026 66.945
6.58 161.837 66.240
6.59 170.216 65.682
6.60 173.750 65.317
6.61 173.739 64.443
6.62 168.124 62.264
6.63 154.514 58.994
6.64 279.816 56.683
6.65 289.105 60.277
6.66 259.029 64.705
6.67 240.674 66.619
6.68 225.291 66.669
6.69 211.841 66.033
6.70 198.665 65.431
6.71 194.179 65.116
6.72 185.179 65.226
6.73 181.645 65.358
6.74 180.191 65.244
6.75 178.180 65.163
6.76 176.733 65.414
6.77 175.899 65.704
6.78 174.322 65.789
6.79 171.814 65.757
6.80 170.315 65.640
6.81 168.645 --undefined--
6.82 168.865 --undefined--
6.83 --undefined-- --undefined--
6.84 --undefined-- --undefined--
