Time Pitch Intensity
0.01 --undefined-- --undefined--
0.02 --undefined-- --undefined--
0.03 --undefined-- --undefined--
0.04 --undefined-- --undefined--
0.05 --undefined-- 57.939
0.06 --undefined-- 66.799
0.07 --undefined-- 72.918
0.08 175.973 76.000
0.09 171.579 77.008
0.10 168.456 77.146
0.11 166.986 77.091
0.12 166.135 76.962
0.13 165.113 76.617
0.14 164.487 75.708
0.15 162.316 73.602
0.16 157.936 69.707
0.17 157.498 64.615
0.18 159.874 60.072
0.19 167.819 55.338
0.20 164.002 52.161
0.21 162.368 54.769
0.22 --undefined-- 62.734
0.23 210.055 69.240
0.24 211.214 73.440
0.25 214.591 76.094
0.26 218.815 77.741
0.27 222.416 78.174
0.28 220.671 77.238
0.29 217.886 75.885
0.30 220.223 75.119
0.31 231.378 74.238
0.32 242.410 73.273
0.33 239.371 72.996
0.34 235.895 73.154
0.35 227.645 73.725
0.36 220.375 74.424
0.37 210.007 75.111
0.38 192.868 75.816
0.39 181.939 76.102
0.40 173.544 76.023
0.41 168.909 75.734
0.42 166.341 75.404
0.43 165.687 75.313
0.44 165.366 75.549
0.45 166.577 76.003
0.46 168.099 76.104
0.47 178.543 75.778
0.48 187.601 75.820
0.49 197.611 76.568
0.50 207.423 77.273
0.51 213.323 77.494
0.52 215.097 76.916
0.53 214.943 75.223
0.54 214.377 72.389
0.55 218.444 68.321
0.56 220.080 62.864
0.57 214.793 56.273
0.58 --undefined-- 50.218
0.59 --undefined-- 48.161
0.60 --undefined-- 48.746
0.61 --undefined-- 48.722
0.62 --undefined-- 48.049
0.63 --undefined-- 47.792
0.64 --undefined-- 47.743
0.65 --undefined-- 47.940
0.66 --undefined-- 48.479
0.67 --undefined-- 49.255
0.68 --undefined-- 49.340
0.69 --undefined-- 48.734
0.70 --undefined-- 48.560
0.71 --undefined-- 49.155
0.72 --undefined-- 49.830
0.73 --undefined-- 49.907
0.74 --undefined-- 49.764
0.75 --undefined-- 49.664
0.76 --undefined-- 49.040
0.77 --undefined-- 48.630
0.78 --undefined-- 49.136
0.79 --undefined-- 49.720
0.80 --undefined-- 49.488
0.81 --undefined-- 48.400
0.82 --undefined-- 46.789
0.83 --undefined-- 45.127
0.84 --undefined-- 44.116
0.85 --undefined-- 43.728
0.86 --undefined-- 42.932
0.87 --undefined-- 41.454
0.88 --undefined-- 41.924
0.89 --undefined-- 44.538
0.90 --undefined-- 46.245
0.91 --undefined-- 47.004
0.92 --undefined-- 48.700
0.93 --undefined-- 53.592
0.94 --undefined-- 63.325
0.95 270.074 71.280
0.96 253.613 75.711
0.97 242.653 77.267
0.98 236.799 77.196
0.99 236.001 76.844
1.00 235.587 76.676
1.01 235.927 76.572
1.02 236.496 76.370
1.03 239.464 75.879
1.04 248.356 74.989
1.05 257.443 73.302
1.06 260.101 70.126
1.07 251.870 65.701
1.08 243.304 61.869
1.09 243.510 60.089
1.10 232.165 59.686
1.11 230.347 60.392
1.12 227.058 62.579
1.13 230.069 66.146
1.14 235.302 69.881
1.15 239.240 72.887
1.16 239.425 74.978
1.17 235.169 76.446
1.18 232.286 77.569
1.19 238.160 78.354
1.20 250.461 78.523
1.21 263.615 77.674
1.22 278.214 76.034
1.23 298.635 74.858
1.24 159.774 74.462
1.25 173.108 74.000
1.26 188.494 73.421
1.27 194.413 73.170
1.28 195.870 72.719
1.29 194.187 71.573
1.30 189.290 69.998
1.31 184.892 68.371
1.32 179.187 66.751
1.33 173.107 65.245
1.34 167.663 64.268
1.35 160.149 63.467
1.36 294.237 61.954
1.37 281.117 60.657
1.38 261.277 60.619
1.39 243.684 61.470
1.40 226.987 62.994
1.41 219.887 64.792
1.42 219.516 66.781
1.43 222.072 69.116
1.44 223.878 71.549
1.45 219.965 73.813
1.46 213.298 75.797
1.47 211.374 77.115
1.48 215.423 77.690
1.49 224.963 77.883
1.50 235.694 77.829
1.51 245.357 77.537
1.52 254.714 77.213
1.53 262.190 76.842
1.54 269.056 76.145
1.55 273.314 74.927
1.56 273.816 73.572
1.57 272.599 73.108
1.58 266.871 73.302
1.59 261.079 73.353
1.60 253.097 73.415
1.61 241.591 74.403
1.62 232.222 75.596
1.63 219.521 75.676
1.64 209.052 74.872
1.65 196.293 73.786
1.66 187.016 72.359
1.67 178.697 70.288
1.68 168.582 67.948
1.69 162.550 66.325
1.70 159.771 65.575
1.71 158.663 65.622
1.72 159.470 66.142
1.73 161.527 66.888
1.74 164.062 67.805
1.75 166.326 68.509
1.76 169.315 68.965
1.77 173.559 69.448
1.78 179.088 70.221
1.79 185.110 71.311
1.80 193.451 72.771
1.81 195.875 74.123
1.82 199.611 74.873
1.83 203.321 75.196
1.84 207.117 75.355
1.85 209.402 75.446
1.86 210.655 75.467
1.87 211.586 75.329
1.88 212.329 75.057
1.89 212.616 74.820
1.90 212.263 74.460
1.91 210.943 73.876
1.92 208.906 73.282
1.93 205.413 72.642
1.94 201.333 71.916
1.95 197.494 71.386
1.96 194.301 71.204
1.97 190.989 71.321
1.98 189.236 71.635
1.99 186.880 71.961
2.00 185.705 72.320
2.01 185.637 72.858
2.02 185.599 73.416
2.03 186.944 73.801
2.04 187.362 73.904
2.05 187.803 73.805
2.06 188.812 73.663
2.07 190.248 73.542
2.08 191.590 73.482
2.09 193.004 73.553
2.10 194.794 73.765
2.11 196.422 73.855
2.12 200.348 73.546
2.13 203.818 72.913
2.14 205.886 72.228
2.15 208.180 71.651
2.16 209.385 70.944
2.17 208.667 69.976
2.18 202.554 69.121
2.19 197.211 68.738
2.20 193.426 68.815
2.21 191.128 68.977
2.22 183.101 68.569
2.23 180.837 67.570
2.24 172.699 67.018
2.25 181.613 67.532
2.26 179.336 68.460
2.27 179.201 69.533
2.28 175.133 71.230
2.29 171.836 73.139
2.30 169.772 74.465
2.31 167.354 75.006
2.32 166.072 74.937
2.33 165.858 74.822
2.34 166.680 75.061
2.35 168.254 75.049
2.36 177.307 74.406
2.37 183.361 73.775
2.38 185.630 73.774
2.39 189.007 74.088
2.40 194.715 74.497
2.41 199.665 74.985
2.42 203.113 75.295
2.43 207.413 75.475
2.44 213.207 75.636
2.45 217.653 75.619
2.46 221.947 75.370
2.47 224.664 75.011
2.48 227.432 74.516
2.49 228.708 73.887
2.50 229.381 73.149
2.51 227.460 71.977
2.52 223.628 69.717
2.53 --undefined-- 66.223
2.54 --undefined-- 61.945
2.55 --undefined-- 57.488
2.56 --undefined-- 58.572
2.57 --undefined-- 60.453
2.58 --undefined-- 59.971
2.59 --undefined-- 64.877
2.60 --undefined-- 70.271
2.61 --undefined-- 73.171
2.62 184.776 74.537
2.63 182.460 75.204
2.64 178.727 75.439
2.65 174.714 75.424
2.66 170.638 75.373
2.67 167.892 75.280
2.68 164.748 75.070
2.69 161.478 74.726
2.70 158.911 74.283
2.71 158.042 74.013
2.72 158.085 74.017
2.73 157.451 74.131
2.74 157.356 74.271
2.75 157.900 74.407
2.76 157.974 74.464
2.77 158.308 74.382
2.78 158.918 74.186
2.79 158.449 73.872
2.80 157.695 73.492
2.81 157.326 73.245
2.82 158.058 73.231
2.83 159.195 73.386
2.84 160.009 73.525
2.85 160.252 73.342
2.86 158.009 72.621
2.87 150.014 71.335
2.88 --undefined-- 69.478
2.89 75.728 66.769
2.90 75.774 63.036
2.91 --undefined-- 58.884
2.92 --undefined-- 57.156
2.93 --undefined-- 57.215
2.94 --undefined-- 60.052
2.95 --undefined-- 65.517
2.96 164.222 69.195
2.97 183.186 71.307
2.98 213.837 73.190
2.99 225.007 75.090
3.00 230.907 75.979
3.01 232.681 75.687
3.02 229.358 74.470
3.03 222.831 72.437
3.04 213.483 70.873
3.05 213.333 71.867
3.06 213.725 73.784
3.07 210.689 75.223
3.08 205.742 75.985
3.09 200.531 76.288
3.10 197.085 76.413
3.11 194.531 76.375
3.12 191.821 76.062
3.13 188.865 75.708
3.14 186.393 75.614
3.15 184.085 75.774
3.16 183.097 75.935
3.17 182.618 75.766
3.18 181.375 75.366
3.19 179.035 75.010
3.20 177.422 74.740
3.21 176.221 74.473
3.22 174.683 73.496
3.23 169.965 70.589
3.24 168.730 65.145
3.25 177.022 58.099
3.26 --undefined-- 52.606
3.27 --undefined-- 51.547
3.28 --undefined-- 55.716
3.29 --undefined-- 61.466
3.30 --undefined-- 64.520
3.31 --undefined-- 64.545
3.32 --undefined-- 62.468
3.33 --undefined-- 59.350
3.34 --undefined-- 57.313
3.35 --undefined-- 58.761
3.36 172.641 62.511
3.37 192.654 65.866
3.38 187.315 67.813
3.39 170.600 69.061
3.40 166.043 70.399
3.41 161.705 71.942
3.42 161.002 73.450
3.43 157.783 74.488
3.44 154.593 74.933
3.45 153.444 75.102
3.46 153.458 75.248
3.47 155.391 75.319
3.48 157.803 75.504
3.49 159.821 76.072
3.50 160.552 76.509
3.51 162.729 76.303
3.52 165.142 75.561
3.53 163.457 74.215
3.54 159.463 71.421
3.55 155.863 66.848
3.56 156.208 62.082
3.57 161.966 58.107
3.58 166.581 54.357
3.59 151.440 52.256
3.60 --undefined-- 51.924
3.61 --undefined-- 54.094
3.62 --undefined-- 61.392
3.63 --undefined-- 68.901
3.64 203.276 73.670
3.65 203.622 75.929
3.66 202.294 76.410
3.67 199.794 75.913
3.68 196.421 74.750
3.69 192.425 72.727
3.70 187.724 70.596
3.71 190.929 69.912
3.72 193.051 70.092
3.73 193.864 70.404
3.74 194.804 70.797
3.75 196.460 71.251
3.76 198.449 71.471
3.77 199.108 71.075
3.78 200.135 69.927
3.79 201.548 68.159
3.80 204.167 65.813
3.81 206.228 62.860
3.82 206.619 59.620
3.83 199.471 61.488
3.84 253.354 68.492
3.85 248.852 73.349
3.86 244.350 75.983
3.87 237.607 77.017
3.88 233.607 77.065
3.89 230.868 76.776
3.90 229.553 76.497
3.91 228.764 76.267
3.92 229.174 76.024
3.93 229.978 75.572
3.94 231.479 74.908
3.95 232.907 74.255
3.96 232.926 73.774
3.97 231.896 73.058
3.98 229.417 71.471
3.99 225.426 69.574
4.00 225.879 69.164
4.01 224.102 69.832
4.02 220.480 70.554
4.03 215.139 71.255
4.04 210.627 72.114
4.05 202.180 72.903
4.06 193.023 73.209
4.07 187.353 73.149
4.08 181.455 72.851
4.09 176.340 72.297
4.10 171.670 71.602
4.11 167.561 70.985
4.12 165.960 70.619
4.13 166.873 70.533
4.14 168.178 70.493
4.15 170.572 70.232
4.16 172.881 69.841
4.17 176.430 69.693
4.18 182.560 70.816
4.19 187.375 72.849
4.20 190.207 74.210
4.21 191.303 74.717
4.22 192.329 74.831
4.23 192.823 74.798
4.24 193.544 74.783
4.25 193.653 74.809
4.26 193.965 74.647
4.27 194.682 74.116
4.28 194.802 73.398
4.29 194.121 72.674
4.30 193.185 71.611
4.31 190.281 69.374
4.32 181.084 65.477
4.33 182.079 60.288
4.34 173.647 55.944
4.35 --undefined-- 58.179
4.36 --undefined-- 65.355
4.37 --undefined-- 71.105
4.38 187.914 73.975
4.39 180.106 74.557
4.40 175.703 73.873
4.41 176.133 72.707
4.42 183.074 71.354
4.43 185.095 69.925
4.44 179.841 68.513
4.45 177.750 67.134
4.46 175.259 65.427
4.47 159.355 63.924
4.48 162.197 62.928
4.49 162.996 62.715
4.50 180.721 64.108
4.51 186.998 66.255
4.52 191.898 68.632
4.53 197.981 71.255
4.54 200.110 73.861
4.55 199.857 75.755
4.56 200.090 76.752
4.57 199.639 76.917
4.58 198.470 76.442
4.59 195.945 75.829
4.60 194.717 75.331
4.61 194.213 74.522
4.62 194.988 73.605
4.63 195.537 73.438
4.64 194.831 73.750
4.65 194.607 73.204
4.66 195.309 70.721
4.67 186.901 65.833
4.68 --undefined-- 58.398
4.69 --undefined-- 50.922
4.70 195.822 49.216
4.71 --undefined-- 48.977
4.72 --undefined-- 48.812
4.73 --undefined-- 50.507
4.74 --undefined-- 55.106
4.75 --undefined-- 63.044
4.76 223.494 69.078
4.77 211.291 72.379
4.78 211.683 73.927
4.79 210.606 74.590
4.80 207.289 74.665
4.81 202.308 73.864
4.82 195.519 71.685
4.83 182.865 67.745
4.84 173.536 61.950
4.85 --undefined-- 54.499
4.86 --undefined-- 50.472
4.87 --undefined-- 51.828
4.88 --undefined-- 55.235
4.89 --undefined-- 63.355
4.90 229.591 70.261
4.91 210.523 74.129
4.92 203.738 75.611
4.93 199.064 75.730
4.94 195.181 75.205
4.95 192.963 74.240
4.96 189.589 72.885
4.97 186.423 71.480
4.98 184.677 70.746
4.99 185.327 70.829
5.00 185.303 71.118
5.01 184.849 71.260
5.02 184.189 71.240
5.03 183.705 71.170
5.04 183.094 --undefined--
5.05 183.300 --undefined--
5.06 --undefined-- --undefined--
5.07 --undefined-- --undefined--
