Time Pitch Intensity
0.01 --undefined-- --undefined--
0.02 99.582 --undefined--
0.03 100.502 --undefined--
0.04 100.385 --undefined--
0.05 99.806 69.066
0.06 99.509 69.048
0.07 99.346 69.028
0.08 98.848 69.019
0.09 98.149 69.057
0.10 97.499 69.111
0.11 97.271 69.158
0.12 98.069 69.162
0.13 98.672 69.107
0.14 99.229 69.000
0.15 99.822 68.818
0.16 99.532 68.613
0.17 98.759 68.551
0.18 98.366 68.722
0.19 98.373 69.122
0.20 100.100 69.805
0.21 101.273 70.649
0.22 103.036 71.110
0.23 99.569 70.729
0.24 99.460 70.677
0.25 92.451 71.501
0.26 87.088 71.632
0.27 94.201 71.283
0.28 102.766 71.933
0.29 111.469 73.223
0.30 117.907 73.891
0.31 121.489 73.587
0.32 119.565 73.022
0.33 117.751 72.812
0.34 111.800 72.574
0.35 109.484 72.361
0.36 107.081 72.623
0.37 107.360 72.856
0.38 107.873 73.110
0.39 107.898 73.602
0.40 107.628 73.954
0.41 107.265 74.229
0.42 107.237 74.515
0.43 107.352 74.663
0.44 108.803 74.709
0.45 108.990 74.855
0.46 109.383 75.132
0.47 106.514 75.410
0.48 106.178 75.485
0.49 97.677 75.098
0.50 94.272 74.087
0.51 92.794 72.376
0.52 85.641 70.701
0.53 84.096 69.800
0.54 82.690 69.079
0.55 87.490 68.077
0.56 89.204 69.067
0.57 127.453 72.666
0.58 124.510 74.953
0.59 118.786 75.484
0.60 118.676 75.223
0.61 119.858 75.237
0.62 120.363 75.560
0.63 122.853 75.972
0.64 127.390 76.478
0.65 131.048 76.681
0.66 133.162 75.942
0.67 132.314 73.925
0.68 132.694 71.671
0.69 139.027 71.206
0.70 147.042 72.454
0.71 151.279 73.991
0.72 153.196 75.144
0.73 154.729 75.939
0.74 156.240 76.694
0.75 155.572 77.465
0.76 152.690 78.014
0.77 150.212 78.206
0.78 145.870 77.829
0.79 140.598 76.723
0.80 134.870 75.194
0.81 134.693 73.961
0.82 134.746 73.386
0.83 145.749 73.103
0.84 148.747 72.598
0.85 140.033 71.626
0.86 137.477 70.400
0.87 136.541 70.020
0.88 135.744 70.917
0.89 135.351 72.163
0.90 131.696 73.070
0.91 130.204 73.527
0.92 147.685 74.025
0.93 147.948 74.340
0.94 142.266 74.021
0.95 143.923 74.047
0.96 143.071 74.376
0.97 140.293 74.339
0.98 136.477 73.983
0.99 131.523 73.922
1.00 133.035 74.894
1.01 139.441 76.203
1.02 137.346 76.626
1.03 134.415 76.289
1.04 129.456 75.884
1.05 124.695 75.486
1.06 122.901 75.210
1.07 118.995 75.003
1.08 116.993 74.723
1.09 113.598 74.620
1.10 112.608 74.839
1.11 112.700 74.945
1.12 114.193 74.820
1.13 114.858 74.483
1.14 114.695 73.913
1.15 114.223 73.332
1.16 113.879 72.898
1.17 113.577 72.539
1.18 113.523 72.240
1.19 113.526 72.063
1.20 113.955 72.016
1.21 114.641 71.891
1.22 114.694 71.429
1.23 113.864 70.107
1.24 107.480 67.202
1.25 99.228 62.857
1.26 103.728 58.499
1.27 --undefined-- 56.456
1.28 --undefined-- 60.397
1.29 --undefined-- 66.173
1.30 119.564 70.495
1.31 120.122 72.879
1.32 119.591 73.697
1.33 119.183 73.508
1.34 122.613 73.071
1.35 130.355 72.992
1.36 135.081 73.221
1.37 139.524 73.738
1.38 144.953 74.470
1.39 148.521 75.063
1.40 149.954 75.075
1.41 149.469 74.231
1.42 150.461 72.620
1.43 150.314 70.508
1.44 150.345 67.841
1.45 152.009 64.375
1.46 151.584 62.629
1.47 154.760 68.425
1.48 149.953 73.729
1.49 138.198 76.313
1.50 128.864 76.915
1.51 124.028 76.592
1.52 120.559 75.503
1.53 115.571 73.411
1.54 124.955 71.855
1.55 131.622 72.308
1.56 137.577 73.542
1.57 143.023 74.431
1.58 147.831 75.051
1.59 151.037 75.707
1.60 152.706 76.357
1.61 154.087 76.658
1.62 154.499 76.340
1.63 153.086 75.363
1.64 152.124 73.756
1.65 150.780 71.494
1.66 151.824 68.736
1.67 153.045 68.106
1.68 --undefined-- 72.808
1.69 --undefined-- 76.557
1.70 --undefined-- 77.497
1.71 127.949 76.283
1.72 113.062 74.381
1.73 111.740 73.135
1.74 112.449 72.810
1.75 115.004 73.324
1.76 120.099 74.075
1.77 131.017 74.892
1.78 135.200 75.815
1.79 137.875 76.545
1.80 138.400 76.973
1.81 138.659 76.825
1.82 138.692 75.552
1.83 133.197 72.637
1.84 126.708 68.560
1.85 127.607 65.844
1.86 133.805 68.446
1.87 135.037 72.503
1.88 132.300 74.570
1.89 128.441 74.842
1.90 124.495 74.157
1.91 119.245 72.948
1.92 124.374 72.019
1.93 128.454 72.034
1.94 132.212 72.493
1.95 135.817 72.980
1.96 140.204 73.232
1.97 145.288 73.114
1.98 147.456 72.954
1.99 146.354 73.073
2.00 144.172 72.674
2.01 141.192 70.737
2.02 135.506 66.871
2.03 130.856 62.998
2.04 147.749 67.504
2.05 135.000 72.683
2.06 128.090 75.190
2.07 119.016 75.613
2.08 112.915 74.626
2.09 102.758 72.956
2.10 100.220 71.703
2.11 101.669 71.267
2.12 106.694 71.312
2.13 112.459 71.787
2.14 115.567 72.190
2.15 117.887 71.719
2.16 121.198 70.736
2.17 124.776 70.570
2.18 130.770 71.359
2.19 135.248 72.432
2.20 138.254 73.531
2.21 141.486 74.800
2.22 142.057 75.992
2.23 142.987 76.898
2.24 144.589 77.597
2.25 145.657 77.866
2.26 144.001 77.587
2.27 143.045 77.164
2.28 142.527 76.720
2.29 140.304 76.067
2.30 139.022 75.079
2.31 136.680 73.464
2.32 128.635 71.110
2.33 122.063 67.790
2.34 140.099 62.775
2.35 141.166 56.591
2.36 143.505 53.766
2.37 --undefined-- 53.114
2.38 --undefined-- 52.687
2.39 --undefined-- 52.915
2.40 --undefined-- 53.284
2.41 --undefined-- 53.573
2.42 --undefined-- 53.793
2.43 --undefined-- 54.065
2.44 --undefined-- 54.362
2.45 --undefined-- 54.303
2.46 --undefined-- 53.871
2.47 --undefined-- 53.379
2.48 --undefined-- 52.439
2.49 --undefined-- 51.355
2.50 --undefined-- 51.046
2.51 --undefined-- 50.893
2.52 --undefined-- 50.455
2.53 --undefined-- 50.099
2.54 --undefined-- 49.881
2.55 --undefined-- 48.999
2.56 --undefined-- 46.657
2.57 --undefined-- 43.244
2.58 --undefined-- 41.515
2.59 --undefined-- 46.136
2.60 --undefined-- 57.409
2.61 --undefined-- 65.549
2.62 132.590 70.418
2.63 138.964 73.451
2.64 147.560 75.659
2.65 158.090 77.031
2.66 168.309 77.372
2.67 177.329 76.860
2.68 183.315 76.273
2.69 191.241 76.366
2.70 188.213 76.577
2.71 185.827 76.882
2.72 178.038 77.381
2.73 162.774 77.398
2.74 154.802 76.549
2.75 136.818 75.086
2.76 128.960 73.489
2.77 120.319 71.677
2.78 116.579 70.129
2.79 113.405 69.368
2.80 113.922 68.987
2.81 116.763 68.919
2.82 122.617 69.641
2.83 132.196 71.436
2.84 138.536 73.701
2.85 144.218 75.677
2.86 151.710 77.057
2.87 158.581 77.823
2.88 166.407 78.147
2.89 170.106 77.940
2.90 172.832 77.054
2.91 172.168 75.967
2.92 170.189 75.829
2.93 168.124 76.857
2.94 160.991 78.162
2.95 155.832 78.997
2.96 149.425 78.847
2.97 139.122 78.014
2.98 131.777 77.471
2.99 127.010 77.461
3.00 123.884 77.226
3.01 122.615 76.538
3.02 122.997 75.967
3.03 123.128 75.988
3.04 123.100 76.557
3.05 122.763 77.062
3.06 122.011 77.054
3.07 122.364 76.183
3.08 122.758 74.063
3.09 --undefined-- 70.014
3.10 159.829 65.578
3.11 166.807 67.472
3.12 170.240 70.439
3.13 164.054 72.491
3.14 159.149 73.888
3.15 154.341 74.749
3.16 149.582 75.326
3.17 147.970 76.121
3.18 151.422 77.159
3.19 145.004 77.662
3.20 143.550 77.081
3.21 140.253 75.665
3.22 137.799 74.461
3.23 136.725 74.361
3.24 136.474 74.371
3.25 135.104 73.377
3.26 --undefined-- 71.902
3.27 --undefined-- 70.943
3.28 --undefined-- 69.271
3.29 --undefined-- 66.074
3.30 --undefined-- 62.885
3.31 83.184 63.430
3.32 107.456 66.185
3.33 118.332 68.448
3.34 124.651 70.051
3.35 123.855 71.077
3.36 123.588 71.837
3.37 123.473 72.513
3.38 122.198 72.613
3.39 120.975 72.008
3.40 119.711 70.474
3.41 113.972 67.423
3.42 112.189 63.627
3.43 116.707 62.240
3.44 123.129 63.631
3.45 134.814 66.972
3.46 140.421 70.603
3.47 143.603 73.297
3.48 147.008 75.064
3.49 150.435 76.172
3.50 153.734 76.767
3.51 152.244 77.038
3.52 152.440 77.340
3.53 152.394 77.757
3.54 152.090 78.027
3.55 151.501 78.022
3.56 150.523 77.805
3.57 149.079 77.233
3.58 146.760 76.305
3.59 144.598 75.393
3.60 143.859 73.789
3.61 141.999 70.413
3.62 139.773 65.961
3.63 140.237 63.185
3.64 141.401 61.032
3.65 142.579 58.670
3.66 143.970 61.956
3.67 144.468 67.583
3.68 138.263 71.634
3.69 128.416 74.126
3.70 122.451 75.322
3.71 117.452 75.307
3.72 111.732 74.326
3.73 108.702 73.064
3.74 105.206 71.489
3.75 100.155 68.974
3.76 100.315 65.873
3.77 102.870 63.241
3.78 101.712 60.610
3.79 103.753 57.223
3.80 --undefined-- 54.774
3.81 --undefined-- 60.606
3.82 --undefined-- 68.864
3.83 158.692 73.786
3.84 154.020 75.806
3.85 146.376 75.975
3.86 144.111 75.266
3.87 141.804 73.624
3.88 141.323 71.447
3.89 146.700 71.027
3.90 148.126 71.940
3.91 146.862 72.941
3.92 148.428 74.046
3.93 143.870 74.826
3.94 139.085 74.515
3.95 133.235 73.408
3.96 124.015 72.808
3.97 118.420 72.899
3.98 112.585 72.613
3.99 105.383 71.983
4.00 101.200 71.666
4.01 101.005 71.632
4.02 102.404 71.522
4.03 105.560 70.900
4.04 105.475 69.375
4.05 105.074 66.899
4.06 103.701 64.145
4.07 104.272 62.559
4.08 105.744 62.169
4.09 110.797 61.465
4.10 104.668 59.174
4.11 102.149 55.593
4.12 --undefined-- 52.799
4.13 --undefined-- 52.008
4.14 --undefined-- 53.617
4.15 --undefined-- 59.836
4.16 --undefined-- 66.873
4.17 --undefined-- 71.053
4.18 122.265 72.410
4.19 117.861 71.404
4.20 110.437 68.984
4.21 99.060 66.324
4.22 99.547 63.787
4.23 106.590 61.265
4.24 --undefined-- 61.452
4.25 --undefined-- 64.478
4.26 123.650 68.598
4.27 122.364 71.827
4.28 115.242 72.945
4.29 110.085 72.367
4.30 107.842 71.595
4.31 104.988 71.359
4.32 103.129 70.912
4.33 102.698 69.512
4.34 95.618 66.970
4.35 99.496 63.884
4.36 102.584 60.714
4.37 101.263 57.404
4.38 --undefined-- 57.666
4.39 --undefined-- 59.634
4.40 --undefined-- 61.883
4.41 --undefined-- 64.968
4.42 --undefined-- 66.661
4.43 --undefined-- 66.519
4.44 --undefined-- 66.145
4.45 125.623 67.247
4.46 123.006 69.012
4.47 119.823 70.298
4.48 117.087 71.004
4.49 114.659 71.537
4.50 113.942 71.943
4.51 114.315 72.395
4.52 113.916 72.707
4.53 114.072 72.534
4.54 115.258 72.238
4.55 114.631 72.111
4.56 114.029 72.079
4.57 113.759 72.212
4.58 114.515 72.311
4.59 114.064 71.796
4.60 110.280 69.989
4.61 105.459 67.069
4.62 108.649 64.115
4.63 108.884 61.197
4.64 107.516 57.755
4.65 --undefined-- 59.900
4.66 --undefined-- 67.029
4.67 128.130 71.488
4.68 110.953 73.040
4.69 111.585 72.145
4.70 98.366 69.755
4.71 93.763 67.212
4.72 94.753 65.789
4.73 98.749 66.225
4.74 98.378 67.580
4.75 98.005 68.895
4.76 98.245 69.854
4.77 98.605 70.316
4.78 96.386 70.518
4.79 96.905 70.646
4.80 99.661 70.763
4.81 101.345 70.818
4.82 103.181 71.003
4.83 103.416 71.374
4.84 103.772 71.589
4.85 103.578 71.684
4.86 103.065 71.829
4.87 102.153 71.933
4.88 101.800 72.021
4.89 101.950 72.071
4.90 101.453 72.003
4.91 101.887 71.853
4.92 101.126 71.728
4.93 100.043 71.582
4.94 98.654 71.315
4.95 97.399 70.912
4.96 95.503 70.379
4.97 94.897 --undefined--
4.98 93.556 --undefined--
4.99 --undefined-- --undefined--
5.00 --undefined-- --undefined--
