Time Pitch Intensity
0.01 --undefined-- --undefined--
0.02 --undefined-- --undefined--
0.03 --undefined-- --undefined--
0.04 --undefined-- --undefined--
0.05 211.160 67.957
0.06 189.561 71.018
0.07 187.491 72.739
0.08 186.004 74.243
0.09 184.577 75.310
0.10 182.213 75.545
0.11 180.513 75.005
0.12 179.576 74.142
0.13 175.753 73.321
0.14 171.158 72.075
0.15 161.168 69.151
0.16 145.990 63.529
0.17 --undefined-- 55.296
0.18 --undefined-- 47.392
0.19 --undefined-- 43.723
0.20 --undefined-- 45.799
0.21 --undefined-- 51.551
0.22 --undefined-- 60.751
0.23 166.973 67.981
0.24 150.867 72.138
0.25 139.121 73.898
0.26 131.802 74.265
0.27 128.969 73.978
0.28 128.121 73.619
0.29 127.153 73.444
0.30 126.365 73.233
0.31 125.279 72.850
0.32 123.424 72.221
0.33 119.027 71.046
0.34 114.365 68.637
0.35 114.345 64.352
0.36 --undefined-- 58.119
0.37 --undefined-- 51.483
0.38 --undefined-- 48.581
0.39 --undefined-- 48.566
0.40 --undefined-- 49.499
0.41 --undefined-- 51.224
0.42 --undefined-- 56.003
0.43 --undefined-- 64.334
0.44 148.664 70.103
0.45 148.435 72.547
0.46 123.363 72.861
0.47 117.505 72.582
0.48 112.636 72.109
0.49 110.798 71.041
0.50 109.057 69.635
0.51 106.658 68.329
0.52 108.779 66.720
0.53 107.335 63.742
0.54 --undefined-- 58.724
0.55 --undefined-- 51.614
0.56 --undefined-- 45.376
0.57 --undefined-- 43.590
0.58 --undefined-- 43.855
0.59 --undefined-- 49.277
0.60 --undefined-- 59.829
0.61 --undefined-- 67.217
0.62 151.345 71.383
0.63 140.126 73.307
0.64 135.908 73.720
0.65 132.975 73.390
0.66 131.842 73.380
0.67 129.660 73.785
0.68 129.648 73.819
0.69 130.983 73.334
0.70 129.452 72.410
0.71 126.481 71.043
0.72 123.634 68.561
0.73 114.722 64.165
0.74 108.618 57.716
0.75 --undefined-- 50.581
0.76 --undefined-- 46.461
0.77 --undefined-- 46.199
0.78 --undefined-- 47.522
0.79 --undefined-- 47.995
0.80 --undefined-- 50.438
0.81 --undefined-- 59.015
0.82 --undefined-- 65.628
0.83 138.935 69.523
0.84 133.819 71.562
0.85 130.319 72.389
0.86 129.224 72.373
0.87 128.348 71.718
0.88 124.467 70.489
0.89 118.440 69.054
0.90 115.883 68.793
0.91 117.542 70.037
0.92 117.711 71.520
0.93 117.093 72.690
0.94 115.765 73.788
0.95 115.434 74.688
0.96 112.843 74.618
0.97 108.682 73.498
0.98 106.347 72.172
0.99 104.366 71.368
1.00 104.006 71.094
1.01 104.909 70.964
1.02 104.786 71.158
1.03 104.004 71.828
1.04 103.888 72.294
1.05 104.255 72.152
1.06 105.403 71.740
1.07 105.473 71.502
1.08 104.311 71.464
1.09 103.196 71.038
1.10 101.282 69.542
1.11 105.264 67.207
1.12 293.809 63.766
1.13 298.825 57.838
1.14 --undefined-- 49.485
1.15 --undefined-- 42.235
1.16 --undefined-- 38.932
1.17 --undefined-- 37.867
1.18 --undefined-- 39.735
1.19 --undefined-- 42.880
1.20 --undefined-- 43.686
1.21 --undefined-- 41.334
1.22 --undefined-- 37.561
1.23 --undefined-- 37.798
1.24 --undefined-- 39.026
1.25 --undefined-- 38.102
1.26 --undefined-- 36.267
1.27 --undefined-- 35.331
1.28 --undefined-- 37.895
1.29 --undefined-- 41.123
1.30 --undefined-- 41.534
1.31 --undefined-- 39.480
1.32 --undefined-- 37.155
1.33 --undefined-- 34.411
1.34 --undefined-- 31.628
1.35 --undefined-- 33.345
1.36 --undefined-- 36.325
1.37 --undefined-- 38.518
1.38 --undefined-- 39.522
1.39 --undefined-- 39.998
1.40 --undefined-- 39.419
1.41 --undefined-- 36.929
1.42 --undefined-- 34.598
1.43 --undefined-- 34.854
1.44 --undefined-- 36.539
1.45 --undefined-- 38.438
1.46 --undefined-- 39.013
1.47 --undefined-- 38.472
1.48 --undefined-- 37.524
1.49 --undefined-- 37.021
1.50 --undefined-- 37.401
1.51 --undefined-- 38.441
1.52 --undefined-- 39.641
1.53 --undefined-- 40.434
1.54 --undefined-- 41.033
1.55 --undefined-- 41.200
1.56 --undefined-- 41.351
1.57 --undefined-- 42.295
1.58 --undefined-- 43.039
1.59 --undefined-- 42.521
1.60 --undefined-- 40.785
1.61 --undefined-- 39.327
1.62 --undefined-- 38.979
1.63 --undefined-- 39.339
1.64 --undefined-- 39.048
1.65 --undefined-- 38.544
1.66 --undefined-- 38.596
1.67 --undefined-- 39.174
1.68 --undefined-- 39.417
1.69 --undefined-- 38.990
1.70 --undefined-- 38.472
1.71 --undefined-- 39.782
1.72 --undefined-- 41.881
1.73 --undefined-- 41.902
1.74 --undefined-- 40.940
1.75 --undefined-- 49.627
1.76 --undefined-- 59.019
1.77 --undefined-- 64.626
1.78 120.636 67.742
1.79 119.695 69.550
1.80 117.872 70.822
1.81 119.003 71.866
1.82 119.831 72.705
1.83 121.763 73.427
1.84 122.914 74.008
1.85 123.779 74.392
1.86 124.928 74.530
1.87 127.387 74.301
1.88 128.101 73.674
1.89 128.485 72.808
1.90 128.786 71.463
1.91 121.945 69.103
1.92 128.640 66.973
1.93 126.427 67.513
1.94 138.090 70.389
1.95 155.379 73.720
1.96 162.738 76.819
1.97 164.138 79.018
1.98 169.855 79.963
1.99 176.915 80.087
2.00 184.186 79.837
2.01 188.388 79.287
2.02 190.266 78.683
2.03 191.751 78.208
2.04 193.559 77.827
2.05 193.728 77.473
2.06 193.479 76.273
2.07 191.365 72.984
2.08 176.254 66.847
2.09 --undefined-- 58.407
2.10 --undefined-- 56.040
2.11 232.523 65.016
2.12 216.207 71.708
2.13 201.087 75.801
2.14 195.985 78.018
2.15 193.957 79.010
2.16 193.354 79.272
2.17 193.986 79.078
2.18 195.308 78.247
2.19 199.156 76.471
2.20 198.005 74.134
2.21 194.106 72.162
2.22 186.443 70.657
2.23 180.988 69.192
2.24 174.566 67.721
2.25 164.438 66.506
2.26 154.722 65.868
2.27 145.178 66.071
2.28 134.254 66.650
2.29 123.769 67.285
2.30 116.622 68.329
2.31 112.893 69.622
2.32 110.236 70.678
2.33 108.596 71.203
2.34 105.745 71.239
2.35 101.897 70.815
2.36 99.036 69.914
2.37 98.128 68.877
2.38 97.995 67.880
2.39 95.328 66.761
2.40 94.668 66.741
2.41 100.607 68.195
2.42 103.479 69.367
2.43 104.707 69.928
2.44 104.045 70.107
2.45 103.114 70.099
2.46 103.878 70.189
2.47 107.424 70.190
2.48 102.212 69.443
2.49 99.021 68.212
2.50 95.040 67.228
2.51 94.341 66.790
2.52 94.969 66.999
2.53 97.386 68.020
2.54 100.348 69.671
2.55 104.492 71.319
2.56 107.586 72.665
2.57 110.350 73.759
2.58 112.185 74.354
2.59 113.680 74.475
2.60 116.149 74.425
2.61 118.364 74.319
2.62 120.185 74.022
2.63 121.792 73.310
2.64 123.184 72.244
2.65 125.849 71.196
2.66 129.820 70.501
2.67 131.025 69.931
2.68 132.061 69.221
2.69 130.903 68.111
2.70 127.065 66.302
2.71 109.785 64.125
2.72 99.736 62.108
2.73 --undefined-- 59.095
2.74 --undefined-- 53.576
2.75 --undefined-- 47.274
2.76 --undefined-- 44.505
2.77 --undefined-- 41.709
2.78 --undefined-- 38.334
2.79 --undefined-- 36.942
2.80 --undefined-- 36.970
2.81 --undefined-- 37.819
2.82 --undefined-- 38.346
2.83 --undefined-- 37.397
2.84 --undefined-- 36.309
2.85 --undefined-- 37.463
2.86 --undefined-- 39.266
2.87 --undefined-- 39.236
2.88 --undefined-- 38.335
2.89 --undefined-- 38.711
2.90 --undefined-- 39.403
2.91 --undefined-- 39.035
2.92 --undefined-- 40.980
2.93 --undefined-- 48.231
2.94 --undefined-- 58.088
2.95 --undefined-- 66.510
2.96 --undefined-- 71.291
2.97 --undefined-- 72.853
2.98 116.979 72.312
2.99 113.619 71.345
3.00 113.288 71.024
3.01 112.963 71.423
3.02 112.694 72.165
3.03 112.593 72.629
3.04 113.935 72.667
3.05 114.818 72.514
3.06 115.593 72.386
3.07 115.226 72.342
3.08 114.689 72.369
3.09 114.195 72.532
3.10 116.189 72.565
3.11 114.516 71.599
3.12 110.956 68.467
3.13 100.545 62.495
3.14 --undefined-- 54.963
3.15 --undefined-- 48.568
3.16 --undefined-- 46.579
3.17 --undefined-- 53.999
3.18 --undefined-- 62.600
3.19 --undefined-- 68.457
3.20 131.391 71.723
3.21 117.293 73.379
3.22 114.374 74.179
3.23 112.956 74.454
3.24 111.654 74.318
3.25 111.115 73.778
3.26 112.070 72.984
3.27 112.310 72.081
3.28 111.137 70.795
3.29 107.171 68.516
3.30 100.602 64.730
3.31 98.835 59.330
3.32 --undefined-- 53.106
3.33 --undefined-- 48.435
3.34 --undefined-- 47.843
3.35 --undefined-- 54.505
3.36 --undefined-- 63.329
3.37 143.441 69.057
3.38 127.701 71.748
3.39 123.430 72.529
3.40 119.505 72.863
3.41 117.439 73.228
3.42 115.258 73.273
3.43 113.946 72.688
3.44 113.477 71.681
3.45 113.387 70.795
3.46 115.126 70.345
3.47 113.879 70.270
3.48 112.342 70.567
3.49 115.253 70.981
3.50 116.447 71.200
3.51 117.215 71.153
3.52 115.803 70.697
3.53 113.934 69.703
3.54 109.499 68.097
3.55 109.168 66.063
3.56 79.701 63.336
3.57 --undefined-- 59.427
3.58 --undefined-- 54.660
3.59 --undefined-- 48.348
3.60 --undefined-- 41.424
3.61 --undefined-- 38.760
3.62 --undefined-- 40.623
3.63 --undefined-- 42.266
3.64 --undefined-- 42.499
3.65 --undefined-- 41.850
3.66 --undefined-- 39.907
3.67 --undefined-- 38.622
3.68 --undefined-- 38.354
3.69 --undefined-- 36.872
3.70 --undefined-- 34.945
3.71 --undefined-- 35.207
3.72 --undefined-- 35.899
3.73 --undefined-- 36.588
3.74 --undefined-- 39.096
3.75 --undefined-- 50.091
3.76 --undefined-- 59.813
3.77 135.073 65.654
3.78 127.720 68.854
3.79 127.258 70.423
3.80 130.076 71.253
3.81 129.752 72.014
3.82 128.802 72.658
3.83 128.451 73.057
3.84 129.190 73.283
3.85 130.089 73.395
3.86 130.930 73.441
3.87 131.154 73.547
3.88 131.038 73.789
3.89 131.747 74.062
3.90 132.959 74.291
3.91 134.302 74.415
3.92 135.564 74.291
3.93 134.037 73.676
3.94 128.554 73.078
3.95 127.549 72.784
3.96 128.291 72.314
3.97 132.574 72.158
3.98 136.649 72.735
3.99 140.318 73.701
4.00 144.653 74.711
4.01 148.389 75.531
4.02 148.299 76.071
4.03 145.450 76.343
4.04 143.095 76.302
4.05 139.621 75.999
4.06 139.187 75.590
4.07 138.467 75.261
4.08 138.758 74.636
4.09 139.428 73.475
4.10 139.507 72.127
4.11 141.336 70.937
4.12 156.651 69.794
4.13 155.119 67.411
4.14 --undefined-- 62.954
4.15 --undefined-- 58.153
4.16 --undefined-- 53.564
4.17 --undefined-- 48.253
4.18 --undefined-- 49.846
4.19 --undefined-- 61.279
4.20 --undefined-- 68.907
4.21 156.738 73.383
4.22 156.977 75.870
4.23 155.246 77.291
4.24 154.157 78.158
4.25 153.607 78.604
4.26 153.898 78.639
4.27 154.285 78.338
4.28 154.488 77.922
4.29 154.837 77.594
4.30 155.198 77.359
4.31 155.648 77.115
4.32 155.699 76.899
4.33 156.167 76.804
4.34 156.282 76.592
4.35 156.357 75.352
4.36 152.937 71.991
4.37 142.309 66.044
4.38 149.971 58.887
4.39 --undefined-- 52.097
4.40 --undefined-- 46.422
4.41 --undefined-- 45.661
4.42 --undefined-- 49.723
4.43 --undefined-- 58.608
4.44 217.280 67.902
4.45 210.498 73.789
4.46 196.140 76.769
4.47 185.936 77.819
4.48 177.941 78.164
4.49 174.643 78.580
4.50 171.921 78.587
4.51 169.121 78.007
4.52 169.268 76.918
4.53 167.755 75.330
4.54 164.180 73.365
4.55 157.827 70.484
4.56 152.431 66.474
4.57 146.686 62.656
4.58 143.652 60.014
4.59 155.609 62.701
4.60 181.398 69.108
4.61 160.611 73.976
4.62 143.027 76.559
4.63 139.110 77.245
4.64 125.625 76.822
4.65 120.130 76.134
4.66 115.638 74.891
4.67 112.813 71.840
4.68 101.612 66.182
4.69 96.670 59.059
4.70 --undefined-- 52.678
4.71 --undefined-- 47.735
4.72 --undefined-- 44.825
4.73 --undefined-- 42.655
4.74 --undefined-- 41.976
4.75 --undefined-- 50.167
4.76 --undefined-- 59.087
4.77 --undefined-- 64.859
4.78 114.026 68.427
4.79 111.992 70.744
4.80 112.784 72.322
4.81 114.603 73.446
4.82 117.281 74.272
4.83 119.714 74.767
4.84 120.763 75.129
4.85 127.445 75.904
4.86 134.865 76.503
4.87 139.617 76.570
4.88 141.879 76.184
4.89 142.124 75.013
4.90 139.312 72.583
4.91 137.409 68.327
4.92 --undefined-- 65.071
4.93 --undefined-- 69.596
4.94 --undefined-- 73.261
4.95 --undefined-- 74.824
4.96 116.308 74.865
4.97 111.639 74.038
4.98 108.676 73.278
4.99 106.166 72.737
5.00 103.813 72.127
5.01 103.975 71.474
5.02 104.174 70.654
5.03 104.504 68.817
5.04 101.339 64.909
5.05 --undefined-- 58.668
5.06 --undefined-- 51.039
5.07 --undefined-- 50.560
5.08 --undefined-- 55.395
5.09 --undefined-- 58.021
5.10 --undefined-- 58.277
5.11 --undefined-- 58.342
5.12 117.609 62.187
5.13 117.511 66.181
5.14 109.692 68.225
5.15 107.296 68.469
5.16 106.151 67.883
5.17 102.121 67.425
5.18 102.813 67.428
5.19 104.078 67.851
5.20 105.075 68.445
5.21 106.576 68.969
5.22 111.892 69.472
5.23 112.293 69.771
5.24 115.215 70.137
5.25 122.567 70.950
5.26 127.836 71.712
5.27 130.594 72.180
5.28 130.694 72.452
5.29 129.712 72.675
5.30 131.027 72.915
5.31 123.518 72.988
5.32 121.530 73.001
5.33 119.342 73.189
5.34 117.781 73.364
5.35 117.204 73.172
5.36 117.133 72.319
5.37 116.266 70.664
5.38 113.795 68.345
5.39 117.147 65.966
5.40 81.571 63.451
5.41 82.242 59.455
5.42 83.649 54.117
5.43 --undefined-- 47.829
5.44 --undefined-- 43.358
5.45 --undefined-- 43.425
5.46 --undefined-- 43.074
5.47 --undefined-- 41.789
5.48 --undefined-- 41.026
5.49 --undefined-- 39.905
5.50 --undefined-- 39.433
5.51 --undefined-- 39.985
5.52 --undefined-- 39.206
5.53 --undefined-- 37.340
5.54 --undefined-- 35.396
5.55 --undefined-- 34.945
5.56 --undefined-- 35.900
5.57 --undefined-- 37.824
5.58 --undefined-- 39.006
5.59 --undefined-- 38.246
5.60 --undefined-- 36.593
5.61 --undefined-- 36.338
5.62 --undefined-- 37.382
5.63 --undefined-- 38.012
5.64 --undefined-- 38.679
5.65 --undefined-- 39.530
5.66 --undefined-- 39.186
5.67 --undefined-- 36.882
5.68 --undefined-- 34.486
5.69 --undefined-- 34.687
5.70 --undefined-- 35.555
5.71 --undefined-- 36.100
5.72 --undefined-- 36.566
5.73 --undefined-- 37.601
5.74 --undefined-- 38.691
5.75 --undefined-- 38.810
5.76 --undefined-- 37.958
5.77 --undefined-- 36.904
5.78 --undefined-- 36.422
5.79 --undefined-- 36.549
5.80 --undefined-- 38.338
5.81 --undefined-- 39.288
5.82 --undefined-- 38.577
5.83 --undefined-- 39.043
5.84 --undefined-- 39.800
5.85 --undefined-- 38.701
5.86 --undefined-- 37.596
5.87 --undefined-- 36.300
5.88 --undefined-- 34.357
5.89 --undefined-- 34.438
5.90 --undefined-- 35.218
5.91 --undefined-- 35.221
5.92 --undefined-- 35.576
5.93 --undefined-- 36.163
5.94 --undefined-- 37.046
5.95 --undefined-- 37.426
5.96 --undefined-- 36.627
5.97 --undefined-- 36.089
5.98 --undefined-- 36.925
5.99 --undefined-- 37.948
6.00 --undefined-- 38.556
6.01 --undefined-- 39.278
6.02 --undefined-- 38.935
6.03 --undefined-- 36.887
6.04 --undefined-- 35.179
6.05 --undefined-- 35.885
6.06 --undefined-- 35.825
6.07 --undefined-- 35.820
6.08 --undefined-- 37.727
6.09 --undefined-- 38.656
6.10 --undefined-- 37.820
6.11 --undefined-- 35.901
6.12 --undefined-- 34.961
6.13 --undefined-- 35.267
6.14 --undefined-- 34.314
6.15 --undefined-- 33.376
6.16 --undefined-- 34.052
6.17 --undefined-- 35.256
6.18 --undefined-- 36.773
6.19 --undefined-- 37.709
6.20 --undefined-- 37.560
6.21 --undefined-- 37.056
6.22 --undefined-- 37.393
6.23 --undefined-- 37.963
6.24 --undefined-- 39.400
6.25 --undefined-- 41.208
6.26 --undefined-- 40.874
6.27 --undefined-- 38.575
6.28 --undefined-- 36.599
6.29 --undefined-- 36.428
6.30 --undefined-- 39.215
6.31 --undefined-- 41.776
6.32 --undefined-- 41.385
6.33 --undefined-- 39.271
6.34 --undefined-- 39.614
6.35 --undefined-- 42.436
6.36 --undefined-- 48.286
6.37 --undefined-- 57.484
6.38 --undefined-- 65.672
6.39 159.562 71.296
6.40 156.847 74.529
6.41 155.033 76.113
6.42 153.718 76.606
6.43 153.602 76.176
6.44 153.862 74.715
6.45 159.124 72.640
6.46 157.619 71.118
6.47 156.871 70.347
6.48 158.445 69.800
6.49 166.729 69.658
6.50 178.716 70.332
6.51 185.426 71.606
6.52 189.346 73.006
6.53 191.448 74.290
6.54 192.626 75.516
6.55 193.292 76.749
6.56 193.670 77.861
6.57 193.957 78.743
6.58 194.564 79.474
6.59 196.212 80.118
6.60 198.865 80.453
6.61 201.175 79.660
6.62 202.490 76.794
6.63 --undefined-- 71.867
6.64 --undefined-- 67.454
6.65 --undefined-- 63.595
6.66 --undefined-- 56.913
6.67 --undefined-- 48.910
6.68 --undefined-- 43.865
6.69 --undefined-- 43.363
6.70 --undefined-- 55.344
6.71 --undefined-- 65.530
6.72 168.021 72.055
6.73 163.065 75.531
6.74 161.905 76.979
6.75 158.411 77.428
6.76 154.783 77.606
6.77 152.078 77.416
6.78 149.935 76.662
6.79 149.811 75.691
6.80 150.889 74.876
6.81 152.167 74.004
6.82 152.484 72.104
6.83 147.725 67.855
6.84 145.826 60.440
6.85 --undefined-- --undefined--
6.86 --undefined-- --undefined--
6.87 --undefined-- --undefined--
6.88 --undefined-- --undefined--
