Time Pitch Intensity
0.01 --undefined-- --undefined--
0.02 215.258 --undefined--
0.03 214.429 --undefined--
0.04 212.377 --undefined--
0.05 215.295 52.179
0.06 --undefined-- 49.058
0.07 --undefined-- 45.387
0.08 --undefined-- 42.378
0.09 --undefined-- 40.983
0.10 --undefined-- 39.110
0.11 --undefined-- 37.024
0.12 --undefined-- 35.987
0.13 --undefined-- 34.911
0.14 --undefined-- 34.428
0.15 --undefined-- 34.293
0.16 --undefined-- 34.119
0.17 --undefined-- 35.502
0.18 --undefined-- 46.461
0.19 --undefined-- 55.816
0.20 --undefined-- 62.659
0.21 173.652 67.860
0.22 159.984 71.327
0.23 150.762 73.633
0.24 146.607 75.493
0.25 144.130 77.034
0.26 141.728 78.086
0.27 139.868 78.482
0.28 137.939 78.394
0.29 136.218 78.184
0.30 135.997 78.109
0.31 136.652 78.139
0.32 137.017 78.081
0.33 137.396 77.863
0.34 137.994 77.622
0.35 138.301 77.324
0.36 136.663 76.422
0.37 128.386 74.600
0.38 135.038 73.114
0.39 136.937 72.945
0.40 134.864 72.896
0.41 134.423 72.732
0.42 135.300 72.635
0.43 136.979 72.531
0.44 138.268 72.146
0.45 138.042 71.113
0.46 133.956 69.211
0.47 --undefined-- 66.616
0.48 --undefined-- 63.797
0.49 --undefined-- 60.308
0.50 --undefined-- 56.045
0.51 --undefined-- 52.970
0.52 --undefined-- 51.024
0.53 --undefined-- 52.844
0.54 --undefined-- 58.310
0.55 --undefined-- 62.091
0.56 --undefined-- 64.527
0.57 134.111 66.538
0.58 127.688 67.764
0.59 114.286 67.548
0.60 --undefined-- 66.395
0.61 --undefined-- 66.140
0.62 113.462 68.363
0.63 113.045 71.631
0.64 113.500 73.805
0.65 114.860 74.683
0.66 114.880 74.881
0.67 114.428 74.933
0.68 114.195 74.916
0.69 111.053 74.676
0.70 111.968 74.542
0.71 112.413 74.827
0.72 112.377 75.009
0.73 112.633 74.802
0.74 113.821 74.530
0.75 111.873 74.132
0.76 112.845 73.122
0.77 113.076 71.484
0.78 117.104 69.790
0.79 125.616 68.568
0.80 132.478 67.989
0.81 138.886 69.050
0.82 154.241 72.660
0.83 172.205 76.331
0.84 178.027 78.256
0.85 183.273 78.645
0.86 189.790 78.479
0.87 193.829 78.132
0.88 197.051 77.253
0.89 195.432 76.172
0.90 199.650 75.843
0.91 201.372 75.776
0.92 199.509 75.617
0.93 196.989 75.544
0.94 194.443 75.615
0.95 190.923 75.857
0.96 186.399 75.967
0.97 178.481 75.811
0.98 170.887 76.109
0.99 154.660 76.817
1.00 144.697 77.022
1.01 135.697 76.730
1.02 131.271 76.370
1.03 127.876 76.262
1.04 126.486 76.437
1.05 125.036 76.367
1.06 123.752 76.190
1.07 122.872 76.383
1.08 121.812 76.729
1.09 120.925 76.928
1.10 119.285 76.851
1.11 117.412 76.627
1.12 116.175 76.449
1.13 115.215 76.313
1.14 114.879 76.032
1.15 115.443 75.532
1.16 115.048 75.157
1.17 114.656 75.131
1.18 115.114 75.327
1.19 117.287 75.422
1.20 118.533 75.062
1.21 117.874 74.109
1.22 117.374 72.572
1.23 117.676 70.445
1.24 119.246 67.688
1.25 121.495 64.502
1.26 117.874 61.038
1.27 107.539 57.622
1.28 --undefined-- 54.904
1.29 --undefined-- 52.474
1.30 --undefined-- 49.256
1.31 --undefined-- 46.415
1.32 --undefined-- 45.640
1.33 --undefined-- 44.428
1.34 --undefined-- 43.031
1.35 --undefined-- 42.772
1.36 --undefined-- 44.065
1.37 --undefined-- 53.818
1.38 --undefined-- 62.251
1.39 133.662 67.236
1.40 126.801 69.930
1.41 124.479 71.550
1.42 124.195 72.814
1.43 124.243 73.891
1.44 123.286 74.809
1.45 122.129 75.593
1.46 120.815 76.228
1.47 119.784 76.628
1.48 119.178 76.828
1.49 118.305 76.990
1.50 117.442 77.167
1.51 116.925 77.324
1.52 116.697 77.517
1.53 116.783 77.782
1.54 117.171 78.138
1.55 117.641 78.587
1.56 117.887 79.040
1.57 117.915 79.399
1.58 118.322 79.581
1.59 118.880 79.494
1.60 119.334 79.192
1.61 120.049 78.848
1.62 121.332 78.534
1.63 123.780 78.247
1.64 127.029 77.926
1.65 129.186 77.655
1.66 129.773 77.430
1.67 127.939 76.661
1.68 122.415 74.712
1.69 118.530 71.372
1.70 114.911 66.633
1.71 98.069 60.697
1.72 111.674 55.665
1.73 --undefined-- 52.728
1.74 --undefined-- 51.688
1.75 --undefined-- 59.269
1.76 --undefined-- 68.845
1.77 --undefined-- 74.346
1.78 129.240 76.508
1.79 125.412 76.581
1.80 117.870 75.695
1.81 110.983 74.477
1.82 102.198 72.927
1.83 97.696 71.140
1.84 93.653 69.829
1.85 92.540 69.128
1.86 92.539 68.540
1.87 92.991 67.438
1.88 94.697 65.767
1.89 97.089 64.682
1.90 99.826 65.020
1.91 101.335 65.906
1.92 103.539 66.716
1.93 103.750 67.206
1.94 102.343 67.175
1.95 100.272 66.505
1.96 95.901 65.221
1.97 93.450 63.673
1.98 93.452 62.174
1.99 93.716 61.062
2.00 97.570 62.143
2.01 100.195 65.116
2.02 102.118 67.859
2.03 102.654 69.829
2.04 102.273 71.135
2.05 103.901 72.080
2.06 104.494 72.873
2.07 106.449 73.663
2.08 108.720 74.543
2.09 111.413 75.400
2.10 112.628 76.067
2.11 116.877 76.415
2.12 119.650 76.477
2.13 122.591 76.572
2.14 123.449 76.854
2.15 124.795 77.156
2.16 125.814 77.369
2.17 126.759 77.330
2.18 127.587 77.032
2.19 128.366 76.652
2.20 129.030 75.865
2.21 128.583 74.145
2.22 129.781 71.667
2.23 129.710 68.772
2.24 125.767 65.960
2.25 --undefined-- 69.477
2.26 --undefined-- 75.137
2.27 --undefined-- 77.714
2.28 --undefined-- 77.398
2.29 127.657 75.568
2.30 128.380 73.850
2.31 --undefined-- 71.774
2.32 --undefined-- 68.767
2.33 --undefined-- 64.657
2.34 --undefined-- 59.864
2.35 --undefined-- 55.915
2.36 --undefined-- 52.569
2.37 --undefined-- 48.888
2.38 --undefined-- 45.796
2.39 --undefined-- 45.404
2.40 --undefined-- 46.583
2.41 --undefined-- 50.728
2.42 --undefined-- 53.623
2.43 --undefined-- 55.061
2.44 130.111 56.477
2.45 113.662 57.814
2.46 112.102 59.589
2.47 109.067 61.192
2.48 107.426 62.728
2.49 107.694 65.031
2.50 108.947 68.141
2.51 110.745 71.361
2.52 112.493 73.939
2.53 112.924 75.588
2.54 112.929 76.441
2.55 113.204 76.802
2.56 114.021 76.958
2.57 117.250 77.042
2.58 121.326 76.764
2.59 126.145 75.911
2.60 131.185 74.965
2.61 132.981 74.358
2.62 140.707 74.431
2.63 148.043 75.055
2.64 153.108 75.787
2.65 156.989 76.353
2.66 161.802 76.517
2.67 165.825 76.310
2.68 168.726 75.669
2.69 171.677 74.621
2.70 173.390 73.491
2.71 170.218 72.389
2.72 163.210 70.946
2.73 159.314 69.207
2.74 160.225 70.771
2.75 158.987 75.188
2.76 153.113 77.904
2.77 150.263 78.712
2.78 145.464 78.210
2.79 137.697 76.928
2.80 135.958 75.889
2.81 136.129 75.673
2.82 138.303 75.760
2.83 139.808 75.924
2.84 143.924 76.194
2.85 145.649 76.581
2.86 149.631 77.115
2.87 151.020 77.476
2.88 153.786 77.577
2.89 156.411 77.632
2.90 157.828 77.025
2.91 155.664 74.785
2.92 151.747 71.160
2.93 155.891 68.131
2.94 156.682 66.046
2.95 157.575 65.470
2.96 166.947 69.335
2.97 173.370 73.554
2.98 169.480 75.864
2.99 167.969 76.419
3.00 165.651 75.595
3.01 161.444 73.846
3.02 156.633 71.672
3.03 152.274 70.079
3.04 150.078 71.523
3.05 152.703 75.103
3.06 150.428 77.723
3.07 149.255 78.724
3.08 147.060 78.335
3.09 138.444 77.056
3.10 131.038 76.146
3.11 128.034 76.411
3.12 126.062 76.823
3.13 123.865 76.650
3.14 123.065 76.234
3.15 122.093 75.852
3.16 119.634 74.952
3.17 115.348 72.856
3.18 112.358 69.538
3.19 109.875 66.101
3.20 110.618 64.048
3.21 107.919 62.768
3.22 108.596 61.882
3.23 114.457 61.383
3.24 113.700 60.676
3.25 113.880 59.349
3.26 --undefined-- 59.291
3.27 165.494 63.515
3.28 167.605 67.516
3.29 169.559 70.155
3.30 172.015 71.863
3.31 173.670 73.133
3.32 174.462 74.295
3.33 174.675 75.409
3.34 175.259 76.366
3.35 176.129 77.125
3.36 177.186 77.706
3.37 178.284 78.183
3.38 178.845 78.632
3.39 178.822 78.959
3.40 177.107 79.089
3.41 173.653 78.998
3.42 170.189 78.308
3.43 160.099 76.520
3.44 151.716 74.044
3.45 142.670 72.707
3.46 137.140 74.580
3.47 134.292 77.431
3.48 128.514 78.535
3.49 119.577 77.966
3.50 114.439 76.760
3.51 107.826 75.460
3.52 105.218 74.079
3.53 102.359 72.666
3.54 99.345 71.190
3.55 95.622 69.975
3.56 94.434 69.222
3.57 94.459 68.689
3.58 94.498 68.253
3.59 96.213 67.917
3.60 97.882 67.806
3.61 99.284 67.966
3.62 99.706 68.182
3.63 99.385 68.060
3.64 96.186 67.362
3.65 103.387 65.319
3.66 100.722 60.942
3.67 98.813 55.469
3.68 100.143 52.452
3.69 --undefined-- 50.559
3.70 --undefined-- 48.546
3.71 --undefined-- 46.240
3.72 --undefined-- 44.514
3.73 --undefined-- 44.577
3.74 --undefined-- 45.735
3.75 --undefined-- 53.247
3.76 --undefined-- 64.592
3.77 --undefined-- 71.575
3.78 143.525 74.744
3.79 134.667 75.415
3.80 129.894 75.242
3.81 125.792 75.038
3.82 121.794 74.768
3.83 119.991 74.539
3.84 117.726 74.410
3.85 116.725 74.503
3.86 115.464 74.851
3.87 116.783 75.198
3.88 118.222 75.594
3.89 119.666 76.082
3.90 118.869 76.318
3.91 117.740 76.162
3.92 116.972 75.644
3.93 116.410 74.887
3.94 116.683 74.053
3.95 117.061 73.031
3.96 117.247 71.803
3.97 118.000 70.894
3.98 118.454 71.142
3.99 119.270 73.072
4.00 122.305 75.514
4.01 124.121 76.822
4.02 121.435 76.972
4.03 119.322 76.689
4.04 115.963 76.051
4.05 111.114 75.039
4.06 108.887 74.037
4.07 106.437 73.060
4.08 105.494 72.015
4.09 104.303 70.947
4.10 103.733 69.843
4.11 103.989 69.014
4.12 103.366 68.570
4.13 102.139 68.251
4.14 101.956 68.068
4.15 101.637 67.949
4.16 100.928 67.723
4.17 100.631 67.482
4.18 100.793 67.347
4.19 100.312 67.276
4.20 99.930 67.204
4.21 99.164 66.992
4.22 98.209 66.575
4.23 97.836 65.999
4.24 95.678 65.138
4.25 95.189 63.767
4.26 96.487 61.931
4.27 98.204 59.627
4.28 --undefined-- 55.930
4.29 --undefined-- 50.652
4.30 --undefined-- 55.051
4.31 --undefined-- 65.697
4.32 --undefined-- 72.896
4.33 177.242 76.424
4.34 181.862 77.217
4.35 184.323 76.484
4.36 188.399 74.652
4.37 190.744 72.304
4.38 206.939 71.900
4.39 227.800 72.908
4.40 230.849 74.642
4.41 235.758 77.096
4.42 230.338 78.631
4.43 224.913 78.404
4.44 213.961 77.003
4.45 202.456 75.924
4.46 192.389 75.914
4.47 175.212 76.417
4.48 169.725 76.845
4.49 162.548 76.808
4.50 147.373 76.373
4.51 135.403 76.022
4.52 130.056 75.457
4.53 126.305 74.493
4.54 128.889 74.611
4.55 135.019 76.602
4.56 131.597 77.984
4.57 126.155 77.835
4.58 124.398 77.077
4.59 121.841 76.324
4.60 120.939 75.571
4.61 120.417 74.799
4.62 119.509 73.713
4.63 116.517 72.026
4.64 113.719 70.505
4.65 115.274 70.337
4.66 115.257 70.402
4.67 114.023 69.967
4.68 112.518 68.786
4.69 102.769 66.718
4.70 --undefined-- 63.600
4.71 --undefined-- 61.748
4.72 --undefined-- 64.373
4.73 --undefined-- 69.214
4.74 134.397 72.731
4.75 118.759 73.838
4.76 120.586 73.380
4.77 117.128 72.148
4.78 114.164 70.344
4.79 111.262 68.548
4.80 110.981 67.827
4.81 112.465 68.220
4.82 116.073 68.915
4.83 120.551 69.495
4.84 127.690 70.383
4.85 138.723 72.191
4.86 147.940 74.352
4.87 156.304 76.029
4.88 165.081 76.894
4.89 174.547 77.097
4.90 180.935 76.999
4.91 186.736 77.055
4.92 196.167 77.237
4.93 201.411 77.302
4.94 203.532 77.456
4.95 203.164 77.593
4.96 198.420 77.368
4.97 187.153 76.431
4.98 180.178 74.380
4.99 186.968 71.187
5.00 158.658 67.099
5.01 185.822 62.803
5.02 189.782 59.100
5.03 --undefined-- 60.638
5.04 --undefined-- 65.393
5.05 --undefined-- 68.456
5.06 --undefined-- 71.921
5.07 --undefined-- 75.518
5.08 --undefined-- 77.130
5.09 118.004 76.823
5.10 110.828 75.559
5.11 110.441 74.660
5.12 113.020 74.735
5.13 117.686 75.436
5.14 124.649 76.240
5.15 130.725 76.788
5.16 138.932 77.042
5.17 145.742 76.818
5.18 149.439 75.943
5.19 160.257 75.600
5.20 170.239 75.958
5.21 181.378 --undefined--
5.22 189.062 --undefined--
5.23 --undefined-- --undefined--
5.24 --undefined-- --undefined--
