Time Pitch Intensity
0.01 --undefined-- --undefined--
0.02 151.669 --undefined--
0.03 155.048 --undefined--
0.04 154.632 --undefined--
0.05 154.127 60.145
0.06 155.070 60.159
0.07 156.049 60.179
0.08 158.290 59.922
0.09 160.056 59.180
0.10 162.135 58.803
0.11 164.613 59.259
0.12 167.183 60.232
0.13 166.042 61.462
0.14 162.207 61.923
0.15 --undefined-- 60.985
0.16 --undefined-- 58.455
0.17 --undefined-- 54.666
0.18 --undefined-- 53.015
0.19 --undefined-- 58.231
0.20 202.758 62.986
0.21 199.255 65.722
0.22 191.361 67.190
0.23 187.532 67.800
0.24 184.080 67.496
0.25 181.580 66.538
0.26 180.472 65.595
0.27 180.811 64.704
0.28 181.502 63.618
0.29 181.855 62.655
0.30 182.124 62.347
0.31 183.753 63.047
0.32 185.534 63.950
0.33 185.395 64.215
0.34 185.116 63.885
0.35 184.901 63.580
0.36 184.637 63.637
0.37 183.563 63.663
0.38 181.562 63.184
0.39 178.745 62.307
0.40 173.159 61.224
0.41 170.384 60.264
0.42 169.080 60.305
0.43 169.165 61.443
0.44 170.869 62.500
0.45 172.280 62.889
0.46 173.913 62.921
0.47 175.814 63.188
0.48 180.579 64.173
0.49 185.760 65.620
0.50 189.121 67.029
0.51 195.316 68.223
0.52 198.330 68.720
0.53 199.257 67.810
0.54 196.455 64.908
0.55 183.009 60.538
0.56 188.593 59.057
0.57 209.967 61.215
0.58 214.774 64.415
0.59 210.541 66.705
0.60 190.741 67.519
0.61 183.468 67.606
0.62 178.729 67.653
0.63 176.690 68.116
0.64 176.089 68.954
0.65 176.008 69.753
0.66 175.950 70.227
0.67 175.273 70.481
0.68 174.798 70.612
0.69 174.263 70.519
0.70 172.874 70.083
0.71 172.127 69.032
0.72 172.092 67.154
0.73 174.222 65.391
0.74 173.748 65.398
0.75 172.631 66.188
0.76 171.982 67.118
0.77 170.918 68.228
0.78 168.522 68.634
0.79 159.695 67.647
0.80 161.661 65.399
0.81 170.672 62.569
0.82 177.860 58.989
0.83 --undefined-- 55.535
0.84 --undefined-- 56.817
0.85 --undefined-- 59.987
0.86 --undefined-- 62.643
0.87 --undefined-- 64.016
0.88 --undefined-- 63.909
0.89 184.510 63.087
0.90 179.859 63.019
0.91 171.699 63.235
0.92 165.092 62.756
0.93 160.601 62.382
0.94 157.516 62.754
0.95 156.447 63.150
0.96 156.599 63.414
0.97 156.455 63.559
0.98 157.605 63.396
0.99 159.600 62.941
1.00 161.187 62.407
1.01 162.815 61.983
1.02 164.383 62.089
1.03 165.587 62.799
1.04 168.884 62.981
1.05 171.796 63.063
1.06 177.226 63.874
1.07 181.009 64.228
1.08 180.529 63.917
1.09 177.933 64.288
1.10 175.114 65.267
1.11 --undefined-- 65.355
1.12 --undefined-- 64.017
1.13 --undefined-- 62.891
1.14 254.894 65.070
1.15 250.018 67.767
1.16 251.605 68.799
1.17 254.193 68.339
1.18 255.782 66.835
1.19 251.521 64.472
1.20 253.360 61.271
1.21 272.519 59.148
1.22 --undefined-- 60.853
1.23 --undefined-- 61.557
1.24 --undefined-- 59.354
1.25 --undefined-- 54.787
1.26 --undefined-- 55.318
1.27 --undefined-- 59.145
1.28 --undefined-- 60.447
1.29 --undefined-- 59.549
1.30 --undefined-- 59.439
1.31 --undefined-- 62.205
1.32 192.880 64.304
1.33 173.931 65.084
1.34 163.585 65.604
1.35 155.447 65.562
1.36 154.595 64.629
1.37 156.457 64.008
1.38 156.773 63.530
1.39 153.248 62.187
1.40 155.096 60.824
1.41 160.380 60.395
1.42 171.307 60.849
1.43 183.209 62.115
1.44 187.599 64.099
1.45 192.718 64.981
1.46 200.898 64.277
1.47 209.048 63.640
1.48 216.763 63.796
1.49 220.309 64.046
1.50 220.765 63.638
1.51 216.655 62.850
1.52 214.187 61.672
1.53 --undefined-- 60.068
1.54 --undefined-- 63.299
1.55 --undefined-- 67.473
1.56 --undefined-- 70.303
1.57 184.855 72.424
1.58 178.867 73.239
1.59 171.157 72.648
1.60 169.311 71.521
1.61 169.385 70.911
1.62 169.306 70.415
1.63 170.355 69.328
1.64 171.396 68.242
1.65 172.420 67.967
1.66 173.607 67.884
1.67 176.865 67.590
1.68 179.895 67.130
1.69 179.893 66.657
1.70 178.377 66.510
1.71 175.891 66.446
1.72 174.327 65.774
1.73 171.742 64.409
1.74 169.298 62.704
1.75 159.479 60.605
1.76 158.532 58.154
1.77 160.595 56.431
1.78 --undefined-- 56.897
1.79 --undefined-- 56.341
1.80 --undefined-- 52.916
1.81 --undefined-- 50.233
1.82 --undefined-- 53.727
1.83 --undefined-- 56.530
1.84 --undefined-- 56.598
1.85 --undefined-- 54.582
1.86 --undefined-- 54.296
1.87 --undefined-- 55.073
1.88 --undefined-- 55.686
1.89 --undefined-- 57.523
1.90 --undefined-- 58.769
1.91 --undefined-- 58.292
1.92 --undefined-- 56.051
1.93 --undefined-- 53.197
1.94 --undefined-- 52.959
1.95 --undefined-- 56.848
1.96 273.522 60.477
1.97 279.172 62.933
1.98 289.528 63.964
1.99 289.212 63.036
2.00 281.929 60.202
2.01 282.740 57.372
2.02 --undefined-- 56.216
2.03 --undefined-- 54.603
2.04 --undefined-- 54.476
2.05 --undefined-- 55.809
2.06 --undefined-- 55.948
2.07 285.695 57.274
2.08 289.621 58.834
2.09 285.682 57.765
2.10 --undefined-- 54.098
2.11 --undefined-- 51.204
2.12 --undefined-- 52.293
2.13 --undefined-- 55.046
2.14 --undefined-- 57.881
2.15 --undefined-- 59.420
2.16 --undefined-- 59.815
2.17 --undefined-- 59.763
2.18 --undefined-- 58.738
2.19 238.577 57.499
2.20 238.780 61.280
2.21 231.627 67.262
2.22 232.713 71.634
2.23 240.302 74.186
2.24 250.020 75.144
2.25 262.918 75.185
2.26 277.393 74.924
2.27 290.925 74.466
2.28 154.832 74.195
2.29 166.468 74.413
2.30 176.359 74.221
2.31 187.539 73.093
2.32 196.147 71.449
2.33 203.315 69.636
2.34 205.240 68.039
2.35 205.305 66.884
2.36 205.194 65.830
2.37 197.517 64.993
2.38 188.093 64.308
2.39 177.561 63.194
2.40 162.610 62.374
2.41 159.896 62.641
2.42 153.064 63.077
2.43 151.296 63.445
2.44 150.581 64.368
2.45 152.215 66.085
2.46 151.458 68.286
2.47 288.577 70.908
2.48 279.935 73.444
2.49 274.363 75.097
2.50 272.905 75.412
2.51 274.688 74.589
2.52 279.242 73.475
2.53 285.383 72.245
2.54 --undefined-- 70.806
2.55 157.704 69.728
2.56 158.454 69.149
2.57 156.347 68.260
2.58 148.069 66.596
2.59 141.389 64.117
2.60 141.082 63.055
2.61 156.257 65.455
2.62 161.432 67.482
2.63 162.354 68.672
2.64 160.586 69.481
2.65 157.163 69.669
2.66 154.425 69.231
2.67 153.215 68.263
2.68 150.850 66.490
2.69 295.700 63.323
2.70 --undefined-- 58.172
2.71 --undefined-- 51.959
2.72 --undefined-- 49.420
2.73 --undefined-- 50.624
2.74 --undefined-- 54.744
2.75 --undefined-- 57.942
2.76 --undefined-- 58.533
2.77 --undefined-- 56.558
2.78 284.410 55.786
2.79 --undefined-- 57.933
2.80 --undefined-- 60.049
2.81 --undefined-- 61.934
2.82 --undefined-- 62.507
2.83 --undefined-- 61.266
2.84 153.014 61.333
2.85 156.216 64.909
2.86 164.699 67.343
2.87 171.713 68.052
2.88 175.018 67.764
2.89 176.670 67.445
2.90 176.634 67.490
2.91 175.361 67.434
2.92 174.284 67.185
2.93 172.949 66.852
2.94 169.682 66.067
2.95 164.083 64.180
2.96 149.915 60.762
2.97 169.567 56.079
2.98 171.172 55.372
2.99 --undefined-- 57.908
3.00 --undefined-- 58.847
3.01 --undefined-- 59.704
3.02 174.004 62.944
3.03 173.880 66.561
3.04 172.419 69.206
3.05 171.392 70.911
3.06 170.642 71.371
3.07 169.890 70.214
3.08 168.912 67.086
3.09 168.033 62.208
3.10 171.509 57.046
3.11 170.971 52.245
3.12 170.300 48.537
3.13 --undefined-- 50.448
3.14 --undefined-- 54.052
3.15 --undefined-- 55.012
3.16 --undefined-- 52.983
3.17 --undefined-- 49.419
3.18 --undefined-- 49.901
3.19 --undefined-- 52.846
3.20 --undefined-- 53.754
3.21 --undefined-- 52.083
3.22 --undefined-- 49.778
3.23 --undefined-- 49.668
3.24 --undefined-- 49.428
3.25 --undefined-- 47.159
3.26 --undefined-- 46.626
3.27 --undefined-- 52.967
3.28 --undefined-- 59.487
3.29 192.664 63.806
3.30 189.638 66.254
3.31 184.178 67.293
3.32 182.982 67.419
3.33 184.798 67.525
3.34 192.921 68.125
3.35 196.705 68.442
3.36 202.013 67.742
3.37 203.611 65.802
3.38 201.932 62.321
3.39 189.124 57.175
3.40 189.414 52.047
3.41 --undefined-- 51.503
3.42 --undefined-- 54.541
3.43 --undefined-- 58.747
3.44 --undefined-- 62.141
3.45 --undefined-- 63.787
3.46 --undefined-- 63.695
3.47 --undefined-- 62.401
3.48 215.702 61.847
3.49 217.708 62.306
3.50 225.205 62.532
3.51 210.755 62.696
3.52 193.774 63.417
3.53 177.909 64.273
3.54 171.161 64.617
3.55 166.245 64.720
3.56 163.762 64.809
3.57 162.806 64.774
3.58 162.913 64.470
3.59 163.095 63.918
3.60 163.418 63.583
3.61 162.734 63.252
3.62 162.070 62.432
3.63 161.813 61.579
3.64 160.386 61.150
3.65 159.598 61.122
3.66 159.927 61.174
3.67 163.038 60.558
3.68 170.731 60.004
3.69 180.262 60.845
3.70 184.711 62.335
3.71 187.283 63.767
3.72 192.357 64.817
3.73 195.526 65.449
3.74 197.244 66.402
3.75 199.081 68.050
3.76 200.510 69.456
3.77 200.157 70.206
3.78 198.468 70.649
3.79 196.637 70.876
3.80 193.938 70.785
3.81 190.252 70.681
3.82 186.457 70.621
3.83 182.047 70.327
3.84 179.078 69.936
3.85 178.605 69.168
3.86 179.241 66.880
3.87 177.947 62.699
3.88 178.315 58.681
3.89 --undefined-- 56.032
3.90 --undefined-- 52.768
3.91 --undefined-- 48.621
3.92 --undefined-- 45.994
3.93 --undefined-- 49.270
3.94 --undefined-- 53.531
3.95 --undefined-- 55.970
3.96 181.016 57.721
3.97 186.820 58.707
3.98 190.279 58.990
3.99 190.044 60.534
4.00 205.729 63.244
4.01 215.927 65.713
4.02 214.615 68.025
4.03 210.336 70.293
4.04 207.944 71.625
4.05 207.530 71.755
4.06 208.114 71.456
4.07 208.748 71.209
4.08 209.773 70.494
4.09 211.922 69.525
4.10 216.486 69.030
4.11 219.693 68.600
4.12 222.369 67.965
4.13 224.334 68.198
4.14 226.474 69.158
4.15 228.913 69.299
4.16 231.928 68.021
4.17 228.240 65.882
4.18 228.843 63.909
4.19 --undefined-- 61.928
4.20 247.134 58.799
4.21 236.958 57.867
4.22 234.672 61.572
4.23 171.800 65.220
4.24 166.431 68.499
4.25 166.462 70.778
4.26 169.456 71.651
4.27 171.186 71.340
4.28 170.882 70.170
4.29 169.714 68.302
4.30 169.339 66.464
4.31 172.235 65.924
4.32 172.893 66.205
4.33 170.473 66.737
4.34 170.811 67.150
4.35 169.781 67.283
4.36 167.488 67.808
4.37 165.377 69.000
4.38 162.275 70.295
4.39 157.957 70.989
4.40 151.340 70.775
4.41 287.446 70.046
4.42 273.024 69.146
4.43 233.199 68.420
4.44 227.670 68.066
4.45 205.045 68.093
4.46 188.165 68.636
4.47 183.738 68.988
4.48 179.325 68.912
4.49 177.613 68.517
4.50 175.913 67.755
4.51 175.820 66.886
4.52 175.295 66.263
4.53 174.520 65.921
4.54 175.552 65.735
4.55 176.629 65.512
4.56 176.675 64.643
4.57 --undefined-- 62.639
4.58 --undefined-- 59.441
4.59 --undefined-- 55.233
4.60 --undefined-- 51.930
4.61 --undefined-- 51.555
4.62 --undefined-- 54.413
4.63 --undefined-- 57.069
4.64 --undefined-- 59.814
4.65 210.813 63.339
4.66 200.566 65.510
4.67 191.044 66.769
4.68 189.481 67.699
4.69 188.938 68.034
4.70 188.791 68.111
4.71 189.790 68.176
4.72 190.439 68.101
4.73 191.529 67.850
4.74 193.344 67.498
4.75 193.730 66.988
4.76 194.898 66.618
4.77 195.673 66.738
4.78 195.948 66.856
4.79 194.500 66.661
4.80 96.212 66.256
4.81 97.624 65.539
4.82 97.617 64.321
4.83 95.057 62.467
4.84 93.159 59.757
4.85 --undefined-- 55.722
4.86 --undefined-- 52.546
4.87 --undefined-- 51.692
4.88 --undefined-- 51.700
4.89 --undefined-- 56.136
4.90 --undefined-- 60.272
4.91 --undefined-- 61.798
4.92 --undefined-- --undefined--
4.93 --undefined-- --undefined--
4.94 --undefined-- --undefined--
4.95 --undefined-- --undefined--
