Time Pitch Intensity
0.01 --undefined-- --undefined--
0.02 162.940 --undefined--
0.03 160.985 --undefined--
0.04 159.757 --undefined--
0.05 159.049 68.548
0.06 158.520 68.349
0.07 158.534 67.907
0.08 157.866 67.211
0.09 156.559 66.396
0.10 155.685 65.604
0.11 154.430 64.892
0.12 153.942 64.269
0.13 152.960 63.683
0.14 153.234 63.368
0.15 152.929 63.497
0.16 152.895 63.990
0.17 155.322 65.078
0.18 159.453 66.654
0.19 161.846 68.266
0.20 161.782 69.468
0.21 160.797 70.026
0.22 159.260 70.102
0.23 157.424 69.941
0.24 156.634 69.699
0.25 155.281 69.423
0.26 153.905 69.113
0.27 153.137 68.762
0.28 152.216 68.489
0.29 151.626 68.395
0.30 151.445 68.480
0.31 151.774 68.614
0.32 151.490 68.581
0.33 151.174 68.408
0.34 150.888 68.244
0.35 150.610 68.144
0.36 150.696 68.290
0.37 151.355 68.630
0.38 151.821 68.845
0.39 151.575 68.892
0.40 151.303 68.932
0.41 150.790 68.978
0.42 150.739 68.946
0.43 150.862 68.841
0.44 150.709 68.598
0.45 150.741 68.174
0.46 150.962 67.482
0.47 150.552 66.513
0.48 155.235 65.588
0.49 204.942 64.252
0.50 207.908 61.275
0.51 168.609 57.205
0.52 --undefined-- 53.231
0.53 --undefined-- 47.226
0.54 --undefined-- 39.188
0.55 --undefined-- 37.048
0.56 --undefined-- 39.074
0.57 --undefined-- 39.450
0.58 --undefined-- 38.503
0.59 --undefined-- 38.410
0.60 --undefined-- 37.916
0.61 --undefined-- 37.742
0.62 --undefined-- 38.500
0.63 --undefined-- 38.792
0.64 --undefined-- 38.933
0.65 --undefined-- 38.388
0.66 --undefined-- 36.798
0.67 --undefined-- 36.898
0.68 --undefined-- 38.902
0.69 --undefined-- 40.980
0.70 --undefined-- 41.390
0.71 --undefined-- 39.667
0.72 --undefined-- 38.235
0.73 --undefined-- 39.533
0.74 --undefined-- 41.026
0.75 --undefined-- 40.521
0.76 --undefined-- 38.011
0.77 --undefined-- 37.432
0.78 --undefined-- 38.225
0.79 --undefined-- 37.602
0.80 --undefined-- 37.707
0.81 --undefined-- 38.928
0.82 --undefined-- 47.885
0.83 --undefined-- 58.830
0.84 221.812 65.415
0.85 204.663 68.849
0.86 205.225 70.752
0.87 209.656 72.257
0.88 213.744 73.611
0.89 215.878 74.681
0.90 216.127 75.097
0.91 212.769 74.315
0.92 199.412 72.529
0.93 206.898 72.865
0.94 212.523 74.787
0.95 211.684 75.684
0.96 212.384 75.786
0.97 210.901 76.010
0.98 210.583 76.526
0.99 210.749 77.039
1.00 210.617 77.291
1.01 210.042 77.154
1.02 209.778 76.731
1.03 209.715 76.116
1.04 209.460 75.415
1.05 210.203 74.638
1.06 210.329 73.651
1.07 209.053 72.419
1.08 203.086 71.097
1.09 199.923 69.504
1.10 195.669 66.982
1.11 187.140 63.589
1.12 186.790 60.553
1.13 186.042 59.257
1.14 187.998 59.585
1.15 192.268 61.769
1.16 210.837 65.376
1.17 222.434 68.647
1.18 226.977 70.828
1.19 225.022 71.962
1.20 220.264 72.479
1.21 216.925 72.808
1.22 214.928 73.118
1.23 212.876 73.369
1.24 210.698 73.441
1.25 208.880 73.289
1.26 207.508 73.107
1.27 206.620 73.018
1.28 206.306 72.862
1.29 206.263 72.622
1.30 206.895 72.314
1.31 207.805 71.812
1.32 208.309 70.988
1.33 206.588 69.807
1.34 200.774 68.055
1.35 --undefined-- 65.553
1.36 --undefined-- 62.335
1.37 --undefined-- 57.695
1.38 --undefined-- 50.461
1.39 --undefined-- 42.992
1.40 --undefined-- 40.962
1.41 --undefined-- 40.687
1.42 --undefined-- 39.873
1.43 --undefined-- 39.558
1.44 --undefined-- 44.532
1.45 --undefined-- 50.821
1.46 --undefined-- 53.921
1.47 --undefined-- 55.011
1.48 --undefined-- 55.392
1.49 --undefined-- 54.908
1.50 --undefined-- 54.012
1.51 --undefined-- 53.897
1.52 --undefined-- 57.141
1.53 --undefined-- 63.070
1.54 188.670 67.428
1.55 185.989 69.684
1.56 178.349 70.658
1.57 173.651 71.021
1.58 170.139 70.877
1.59 167.068 70.323
1.60 164.355 69.820
1.61 162.183 69.840
1.62 159.800 70.291
1.63 158.259 70.633
1.64 157.962 70.663
1.65 159.510 70.467
1.66 161.745 70.134
1.67 163.667 69.610
1.68 161.399 68.796
1.69 155.957 67.762
1.70 154.630 66.489
1.71 --undefined-- 64.603
1.72 --undefined-- 62.594
1.73 --undefined-- 61.399
1.74 --undefined-- 61.661
1.75 --undefined-- 63.903
1.76 147.897 66.391
1.77 159.172 68.459
1.78 163.786 70.049
1.79 165.898 71.019
1.80 164.376 71.369
1.81 161.670 71.284
1.82 158.664 71.096
1.83 156.532 70.991
1.84 154.395 70.936
1.85 152.699 70.835
1.86 151.914 70.595
1.87 151.334 70.238
1.88 151.598 69.949
1.89 152.399 69.660
1.90 151.775 69.178
1.91 150.431 68.423
1.92 148.418 67.161
1.93 143.551 65.223
1.94 142.193 63.153
1.95 141.877 61.693
1.96 147.370 61.008
1.97 147.599 61.361
1.98 146.528 62.455
1.99 144.998 63.694
2.00 145.420 64.694
2.01 146.595 65.534
2.02 148.576 66.426
2.03 150.738 67.306
2.04 152.956 68.067
2.05 155.080 68.823
2.06 156.220 69.529
2.07 158.341 70.111
2.08 160.295 70.450
2.09 160.520 70.525
2.10 162.664 70.469
2.11 165.632 70.328
2.12 169.225 70.315
2.13 172.471 70.619
2.14 174.915 71.155
2.15 177.062 71.780
2.16 179.249 72.259
2.17 182.316 72.441
2.18 185.018 72.252
2.19 186.769 71.422
2.20 186.258 69.426
2.21 181.110 65.729
2.22 180.819 60.212
2.23 --undefined-- 53.065
2.24 --undefined-- 44.990
2.25 --undefined-- 40.859
2.26 --undefined-- 39.386
2.27 --undefined-- 38.642
2.28 --undefined-- 38.872
2.29 --undefined-- 39.487
2.30 --undefined-- 43.344
2.31 --undefined-- 48.071
2.32 --undefined-- 49.528
2.33 --undefined-- 46.997
2.34 --undefined-- 42.094
2.35 --undefined-- 40.782
2.36 --undefined-- 40.694
2.37 --undefined-- 49.039
2.38 --undefined-- 58.596
2.39 248.076 64.353
2.40 241.518 67.370
2.41 242.918 68.873
2.42 243.072 69.742
2.43 241.954 70.361
2.44 240.277 70.877
2.45 239.000 71.278
2.46 238.656 71.524
2.47 238.941 71.607
2.48 239.169 71.482
2.49 238.941 71.060
2.50 237.640 70.117
2.51 234.585 68.294
2.52 229.233 65.248
2.53 227.971 60.899
2.54 233.741 55.397
2.55 --undefined-- 49.019
2.56 --undefined-- 45.813
2.57 --undefined-- 48.732
2.58 --undefined-- 55.895
2.59 --undefined-- 64.644
2.60 254.033 70.431
2.61 249.241 73.020
2.62 243.281 73.727
2.63 242.181 74.000
2.64 240.758 74.043
2.65 238.702 73.767
2.66 236.947 73.459
2.67 233.096 73.710
2.68 233.116 74.949
2.69 235.497 76.047
2.70 234.463 76.457
2.71 234.519 76.561
2.72 234.021 76.581
2.73 233.373 76.495
2.74 232.489 76.254
2.75 230.877 75.704
2.76 228.279 74.465
2.77 225.611 71.846
2.78 228.082 66.955
2.79 --undefined-- 59.046
2.80 --undefined-- 49.353
2.81 --undefined-- 46.147
2.82 --undefined-- 54.077
2.83 --undefined-- 63.316
2.84 --undefined-- 68.791
2.85 201.373 71.230
2.86 186.994 72.005
2.87 174.264 72.217
2.88 166.331 71.957
2.89 162.867 71.087
2.90 162.088 69.408
2.91 160.321 66.302
2.92 150.331 61.153
2.93 --undefined-- 53.772
2.94 --undefined-- 45.302
2.95 --undefined-- 40.749
2.96 --undefined-- 39.479
2.97 --undefined-- 38.818
2.98 --undefined-- 38.781
2.99 --undefined-- 37.225
3.00 --undefined-- 34.937
3.01 --undefined-- 36.887
3.02 --undefined-- 40.346
3.03 --undefined-- 42.968
3.04 --undefined-- 43.879
3.05 --undefined-- 42.994
3.06 --undefined-- 42.781
3.07 --undefined-- 48.580
3.08 --undefined-- 57.938
3.09 194.977 64.138
3.10 181.020 67.350
3.11 175.846 68.690
3.12 172.649 69.082
3.13 169.769 69.032
3.14 167.652 69.094
3.15 166.780 69.720
3.16 168.186 70.650
3.17 169.196 71.492
3.18 170.320 72.159
3.19 171.057 72.556
3.20 170.012 72.635
3.21 169.743 72.482
3.22 170.138 72.152
3.23 170.692 71.569
3.24 170.442 70.476
3.25 167.403 68.306
3.26 160.237 64.363
3.27 --undefined-- 60.389
3.28 --undefined-- 64.924
3.29 183.601 69.164
3.30 177.284 70.783
3.31 170.981 71.042
3.32 166.566 70.860
3.33 163.637 70.466
3.34 163.326 70.232
3.35 164.018 70.301
3.36 165.450 70.561
3.37 165.985 70.845
3.38 165.335 70.966
3.39 163.661 70.810
3.40 161.989 70.118
3.41 159.499 68.527
3.42 154.634 65.913
3.43 151.746 62.517
3.44 --undefined-- 58.475
3.45 --undefined-- 52.987
3.46 --undefined-- 45.895
3.47 --undefined-- 42.739
3.48 --undefined-- 41.967
3.49 --undefined-- 40.222
3.50 --undefined-- 38.963
3.51 --undefined-- 39.147
3.52 --undefined-- 39.615
3.53 --undefined-- 39.858
3.54 --undefined-- 41.060
3.55 --undefined-- 42.440
3.56 --undefined-- 42.837
3.57 --undefined-- 43.417
3.58 --undefined-- 43.074
3.59 --undefined-- 41.594
3.60 --undefined-- 41.095
3.61 --undefined-- 40.314
3.62 --undefined-- 39.696
3.63 --undefined-- 40.899
3.64 --undefined-- 41.494
3.65 --undefined-- 40.506
3.66 --undefined-- 39.785
3.67 --undefined-- 40.324
3.68 --undefined-- 40.314
3.69 --undefined-- 41.028
3.70 --undefined-- 42.386
3.71 --undefined-- 42.169
3.72 --undefined-- 40.016
3.73 --undefined-- 39.307
3.74 --undefined-- 40.317
3.75 --undefined-- 39.152
3.76 --undefined-- 37.396
3.77 --undefined-- 37.869
3.78 --undefined-- 38.276
3.79 --undefined-- 38.502
3.80 --undefined-- 39.464
3.81 --undefined-- 40.135
3.82 --undefined-- 39.919
3.83 --undefined-- 39.286
3.84 --undefined-- 39.205
3.85 --undefined-- 40.035
3.86 --undefined-- 40.438
3.87 --undefined-- 40.873
3.88 --undefined-- 42.325
3.89 --undefined-- 42.314
3.90 --undefined-- 41.010
3.91 --undefined-- 41.113
3.92 --undefined-- 42.095
3.93 --undefined-- 42.318
3.94 --undefined-- 40.533
3.95 --undefined-- 38.573
3.96 --undefined-- 38.574
3.97 --undefined-- 38.248
3.98 --undefined-- 38.828
3.99 --undefined-- 38.890
4.00 --undefined-- 38.369
4.01 --undefined-- 39.316
4.02 --undefined-- 40.722
4.03 --undefined-- 40.870
4.04 --undefined-- 39.700
4.05 --undefined-- 38.543
4.06 --undefined-- 38.907
4.07 --undefined-- 39.720
4.08 --undefined-- 40.511
4.09 --undefined-- 40.994
4.10 --undefined-- 40.860
4.11 --undefined-- 40.926
4.12 --undefined-- 41.467
4.13 --undefined-- 42.009
4.14 --undefined-- 42.743
4.15 --undefined-- 42.668
4.16 --undefined-- 41.614
4.17 --undefined-- 41.606
4.18 --undefined-- 41.776
4.19 --undefined-- 41.670
4.20 --undefined-- 41.725
4.21 --undefined-- 40.952
4.22 --undefined-- 40.742
4.23 --undefined-- 42.508
4.24 --undefined-- 46.403
4.25 --undefined-- 55.816
4.26 --undefined-- 65.168
4.27 201.174 70.700
4.28 192.072 73.302
4.29 186.526 74.175
4.30 185.523 74.150
4.31 185.776 73.648
4.32 187.749 73.436
4.33 195.928 74.002
4.34 204.651 74.830
4.35 212.091 75.596
4.36 217.326 76.244
4.37 222.735 76.720
4.38 226.886 76.935
4.39 229.772 76.876
4.40 231.409 76.638
4.41 235.038 76.383
4.42 231.869 75.909
4.43 225.183 75.117
4.44 219.478 74.502
4.45 214.467 74.205
4.46 210.948 74.008
4.47 209.251 73.812
4.48 208.699 73.786
4.49 208.726 73.923
4.50 209.176 74.010
4.51 209.512 73.994
4.52 210.144 73.732
4.53 209.320 72.891
4.54 206.795 71.706
4.55 207.643 71.049
4.56 208.452 71.062
4.57 209.708 71.623
4.58 210.324 72.459
4.59 209.222 73.095
4.60 205.618 73.333
4.61 199.571 73.116
4.62 192.916 72.783
4.63 189.021 72.473
4.64 184.866 71.963
4.65 181.610 71.510
4.66 178.633 71.247
4.67 175.567 70.937
4.68 173.978 70.503
4.69 172.448 70.057
4.70 171.666 69.768
4.71 171.391 69.739
4.72 171.197 69.853
4.73 170.719 69.853
4.74 170.566 69.727
4.75 170.671 69.590
4.76 170.024 69.410
4.77 169.118 69.193
4.78 168.551 69.025
4.79 167.749 68.844
4.80 167.561 68.579
4.81 167.881 68.312
4.82 168.353 68.012
4.83 166.858 67.281
4.84 163.241 65.990
4.85 149.455 64.204
4.86 --undefined-- 61.741
4.87 --undefined-- 57.449
4.88 --undefined-- 50.163
4.89 --undefined-- 41.777
4.90 --undefined-- 38.693
4.91 --undefined-- 39.232
4.92 --undefined-- 41.171
4.93 --undefined-- 41.932
4.94 --undefined-- 40.810
4.95 --undefined-- 39.018
4.96 --undefined-- 39.271
4.97 --undefined-- 39.952
4.98 --undefined-- 40.306
4.99 --undefined-- 40.383
5.00 --undefined-- 40.237
5.01 --undefined-- 40.826
5.02 --undefined-- 41.026
5.03 --undefined-- 39.837
5.04 --undefined-- 37.916
5.05 --undefined-- 37.401
5.06 --undefined-- 39.353
5.07 --undefined-- 40.631
5.08 --undefined-- 41.530
5.09 --undefined-- 42.254
5.10 --undefined-- 41.741
5.11 --undefined-- 41.074
5.12 --undefined-- 41.560
5.13 --undefined-- 42.513
5.14 --undefined-- 42.776
5.15 --undefined-- 41.734
5.16 --undefined-- 41.228
5.17 --undefined-- 42.587
5.18 --undefined-- 43.348
5.19 --undefined-- 42.313
5.20 --undefined-- 41.607
5.21 --undefined-- 43.106
5.22 --undefined-- 47.669
5.23 --undefined-- 53.809
5.24 --undefined-- 57.087
5.25 --undefined-- 56.909
5.26 --undefined-- 54.589
5.27 --undefined-- 54.032
5.28 --undefined-- 54.320
5.29 --undefined-- 55.866
5.30 --undefined-- 62.796
5.31 151.735 68.109
5.32 152.242 70.546
5.33 152.225 71.443
5.34 150.084 72.005
5.35 148.177 72.544
5.36 147.963 72.844
5.37 149.084 72.753
5.38 151.269 72.194
5.39 153.462 71.418
5.40 154.524 71.062
5.41 153.981 71.399
5.42 151.876 72.006
5.43 295.104 72.150
5.44 282.156 70.965
5.45 267.477 67.651
5.46 251.627 62.188
5.47 --undefined-- 58.127
5.48 --undefined-- 55.976
5.49 --undefined-- 57.149
5.50 240.561 64.102
5.51 229.805 68.519
5.52 216.893 70.360
5.53 197.208 71.056
5.54 181.377 72.074
5.55 175.759 73.532
5.56 171.811 74.653
5.57 170.113 75.098
5.58 173.164 75.066
5.59 179.848 74.529
5.60 187.667 73.345
5.61 193.226 71.570
5.62 195.630 69.000
5.63 191.254 65.636
5.64 191.596 62.307
5.65 191.690 59.582
5.66 188.983 56.334
5.67 --undefined-- 54.309
5.68 --undefined-- 61.883
5.69 234.820 68.084
5.70 221.883 71.116
5.71 213.419 72.084
5.72 205.393 72.074
5.73 197.782 71.730
5.74 190.311 71.450
5.75 187.312 71.116
5.76 184.477 70.210
5.77 182.681 68.907
5.78 183.215 68.311
5.79 184.949 68.782
5.80 186.050 69.713
5.81 184.215 70.684
5.82 183.148 71.392
5.83 177.877 71.879
5.84 173.534 72.281
5.85 170.286 72.209
5.86 167.204 71.464
5.87 164.819 70.669
5.88 163.877 70.336
5.89 164.301 70.212
5.90 164.929 69.969
5.91 165.725 69.703
5.92 166.075 69.706
5.93 165.755 69.850
5.94 165.218 69.762
5.95 165.032 69.417
5.96 164.981 69.045
5.97 164.337 68.762
5.98 163.660 68.631
5.99 163.068 68.606
6.00 162.437 68.543
6.01 163.025 68.293
6.02 163.640 67.770
6.03 163.603 66.964
6.04 163.681 65.762
6.05 166.500 63.955
6.06 166.682 61.677
6.07 185.520 59.275
6.08 160.064 56.090
6.09 --undefined-- 51.085
6.10 --undefined-- 45.623
6.11 --undefined-- 42.269
6.12 --undefined-- 41.219
6.13 --undefined-- 41.801
6.14 --undefined-- 43.032
6.15 --undefined-- 44.307
6.16 --undefined-- 44.634
6.17 --undefined-- 43.269
6.18 --undefined-- 41.613
6.19 --undefined-- 41.197
6.20 --undefined-- 40.539
6.21 --undefined-- 40.157
6.22 --undefined-- 39.826
6.23 --undefined-- 39.611
6.24 --undefined-- 40.672
6.25 --undefined-- 41.598
6.26 --undefined-- 41.228
6.27 --undefined-- 39.503
6.28 --undefined-- 39.053
6.29 --undefined-- 41.266
6.30 --undefined-- 43.579
6.31 --undefined-- 43.653
6.32 --undefined-- 41.682
6.33 --undefined-- 40.558
6.34 --undefined-- 40.012
6.35 --undefined-- 39.860
6.36 --undefined-- 49.126
6.37 --undefined-- 60.068
6.38 226.801 66.802
6.39 219.781 70.702
6.40 221.406 72.819
6.41 222.867 74.049
6.42 222.524 74.781
6.43 221.137 75.335
6.44 219.279 75.900
6.45 216.552 76.434
6.46 213.561 76.342
6.47 212.065 74.646
6.48 202.502 70.828
6.49 186.806 65.303
6.50 --undefined-- 58.832
6.51 --undefined-- 51.497
6.52 --undefined-- 49.651
6.53 --undefined-- 59.388
6.54 255.475 67.963
6.55 246.169 72.798
6.56 237.740 74.703
6.57 234.535 74.997
6.58 237.849 74.943
6.59 242.640 74.839
6.60 249.196 74.588
6.61 257.024 74.180
6.62 266.831 73.699
6.63 278.208 73.414
6.64 289.300 73.581
6.65 296.820 74.340
6.66 296.785 75.099
6.67 290.922 74.689
6.68 286.122 72.606
6.69 --undefined-- 69.499
6.70 --undefined-- 65.951
6.71 --undefined-- 62.926
6.72 --undefined-- 60.472
6.73 --undefined-- 60.815
6.74 --undefined-- 64.858
6.75 --undefined-- 68.158
6.76 226.007 70.979
6.77 226.382 73.031
6.78 222.686 74.141
6.79 216.661 --undefined--
6.80 212.977 --undefined--
6.81 --undefined-- --undefined--
6.82 --undefined-- --undefined--
