Time Pitch Intensity
0.01 --undefined-- --undefined--
0.02 118.299 --undefined--
0.03 120.330 --undefined--
0.04 121.445 --undefined--
0.05 120.238 70.527
0.06 111.836 67.051
0.07 --undefined-- 61.188
0.08 --undefined-- 56.803
0.09 --undefined-- 61.441
0.10 --undefined-- 67.744
0.11 132.269 72.286
0.12 129.630 74.881
0.13 125.105 75.815
0.14 120.887 75.760
0.15 119.999 75.931
0.16 120.247 76.512
0.17 121.107 76.992
0.18 123.110 77.285
0.19 124.779 77.490
0.20 128.172 77.801
0.21 132.969 78.308
0.22 137.513 78.980
0.23 144.132 79.989
0.24 150.079 80.970
0.25 155.932 81.206
0.26 162.011 80.497
0.27 166.575 79.158
0.28 169.205 77.447
0.29 169.448 75.337
0.30 167.319 73.224
0.31 --undefined-- 72.020
0.32 75.241 70.468
0.33 86.869 67.378
0.34 84.400 63.043
0.35 --undefined-- 59.380
0.36 --undefined-- 55.823
0.37 --undefined-- 49.362
0.38 --undefined-- 42.171
0.39 --undefined-- 41.638
0.40 --undefined-- 45.515
0.41 --undefined-- 48.722
0.42 --undefined-- 49.282
0.43 --undefined-- 47.967
0.44 --undefined-- 47.173
0.45 --undefined-- 47.046
0.46 --undefined-- 46.923
0.47 --undefined-- 47.749
0.48 --undefined-- 54.332
0.49 --undefined-- 64.288
0.50 176.469 70.865
0.51 158.383 74.315
0.52 146.766 75.487
0.53 139.990 75.380
0.54 136.389 74.961
0.55 134.797 74.860
0.56 133.392 74.946
0.57 132.897 74.567
0.58 133.563 73.206
0.59 133.984 71.834
0.60 132.269 73.091
0.61 128.384 74.973
0.62 130.836 75.814
0.63 131.360 76.081
0.64 130.880 76.102
0.65 131.759 75.929
0.66 134.359 75.667
0.67 141.182 75.358
0.68 146.187 75.007
0.69 149.524 74.419
0.70 150.715 72.811
0.71 146.767 69.118
0.72 140.971 62.607
0.73 --undefined-- 54.083
0.74 --undefined-- 50.175
0.75 --undefined-- 59.468
0.76 --undefined-- 67.776
0.77 149.004 72.634
0.78 145.559 74.912
0.79 132.922 75.361
0.80 127.466 74.859
0.81 124.664 74.393
0.82 121.752 74.323
0.83 120.299 74.427
0.84 120.017 74.493
0.85 119.525 74.612
0.86 116.342 74.282
0.87 115.558 72.293
0.88 111.033 67.840
0.89 95.015 60.873
0.90 --undefined-- 54.142
0.91 --undefined-- 50.501
0.92 --undefined-- 50.980
0.93 --undefined-- 59.888
0.94 --undefined-- 66.940
0.95 116.370 70.760
0.96 117.224 71.874
0.97 108.180 71.128
0.98 106.938 70.021
0.99 106.848 69.438
1.00 108.131 69.313
1.01 110.761 69.701
1.02 112.885 70.175
1.03 113.418 70.122
1.04 111.988 69.459
1.05 113.144 68.923
1.06 119.330 69.497
1.07 128.672 70.889
1.08 136.596 72.252
1.09 143.409 73.231
1.10 150.105 73.794
1.11 157.026 73.837
1.12 161.259 73.438
1.13 162.682 72.705
1.14 161.697 71.562
1.15 156.857 70.123
1.16 152.523 68.089
1.17 --undefined-- 64.614
1.18 --undefined-- 60.186
1.19 --undefined-- 56.357
1.20 --undefined-- 51.540
1.21 --undefined-- 44.607
1.22 --undefined-- 40.907
1.23 --undefined-- 41.413
1.24 --undefined-- 41.208
1.25 --undefined-- 40.882
1.26 --undefined-- 40.913
1.27 --undefined-- 39.784
1.28 --undefined-- 38.243
1.29 --undefined-- 37.938
1.30 --undefined-- 38.225
1.31 --undefined-- 37.611
1.32 --undefined-- 37.817
1.33 --undefined-- 38.595
1.34 --undefined-- 39.211
1.35 --undefined-- 47.439
1.36 --undefined-- 56.263
1.37 --undefined-- 61.579
1.38 119.593 64.398
1.39 122.587 66.053
1.40 124.712 67.297
1.41 128.135 68.299
1.42 131.072 69.242
1.43 133.861 70.340
1.44 136.995 71.561
1.45 140.254 72.640
1.46 145.081 73.459
1.47 149.214 73.873
1.48 154.395 73.687
1.49 160.492 73.211
1.50 166.112 72.864
1.51 169.269 72.305
1.52 170.431 71.032
1.53 161.992 68.615
1.54 150.528 64.640
1.55 149.606 59.159
1.56 --undefined-- 52.445
1.57 --undefined-- 45.366
1.58 --undefined-- 40.288
1.59 --undefined-- 37.140
1.60 --undefined-- 37.619
1.61 --undefined-- 47.101
1.62 --undefined-- 55.313
1.63 --undefined-- 59.644
1.64 --undefined-- 60.839
1.65 --undefined-- 61.329
1.66 170.414 65.104
1.67 156.860 69.283
1.68 154.245 72.333
1.69 155.379 74.296
1.70 157.011 75.414
1.71 158.032 76.029
1.72 158.356 76.371
1.73 157.987 76.497
1.74 157.932 76.435
1.75 158.436 76.249
1.76 159.205 75.988
1.77 159.789 75.629
1.78 160.461 75.149
1.79 161.105 74.541
1.80 160.216 73.953
1.81 158.271 73.222
1.82 153.131 71.251
1.83 144.947 67.058
1.84 137.200 60.945
1.85 --undefined-- 55.332
1.86 --undefined-- 60.063
1.87 --undefined-- 68.256
1.88 147.176 72.922
1.89 141.901 74.409
1.90 130.286 73.774
1.91 124.617 72.791
1.92 120.424 72.464
1.93 119.272 73.026
1.94 120.749 74.012
1.95 126.281 74.602
1.96 127.371 74.518
1.97 126.959 73.708
1.98 124.794 71.931
1.99 119.566 69.497
2.00 144.047 70.000
2.01 144.190 73.056
2.02 138.519 75.010
2.03 137.058 75.924
2.04 135.608 76.004
2.05 135.524 75.495
2.06 134.458 74.587
2.07 133.587 72.166
2.08 --undefined-- 66.868
2.09 --undefined-- 58.004
2.10 --undefined-- 47.673
2.11 --undefined-- 43.008
2.12 --undefined-- 42.127
2.13 --undefined-- 40.756
2.14 --undefined-- 39.288
2.15 --undefined-- 47.913
2.16 --undefined-- 59.213
2.17 --undefined-- 66.721
2.18 137.045 71.006
2.19 119.194 73.059
2.20 117.367 73.813
2.21 115.026 74.053
2.22 113.676 74.331
2.23 112.497 74.689
2.24 111.577 74.674
2.25 111.188 73.967
2.26 111.876 72.745
2.27 112.331 71.055
2.28 110.373 68.355
2.29 101.349 64.146
2.30 101.502 58.499
2.31 --undefined-- 51.927
2.32 --undefined-- 46.330
2.33 --undefined-- 46.054
2.34 --undefined-- 55.705
2.35 --undefined-- 65.075
2.36 --undefined-- 70.805
2.37 --undefined-- 73.531
2.38 121.554 74.257
2.39 119.409 74.031
2.40 115.027 73.154
2.41 112.376 71.826
2.42 111.377 70.413
2.43 108.052 68.727
2.44 104.819 66.542
2.45 101.776 64.043
2.46 --undefined-- 60.439
2.47 --undefined-- 53.759
2.48 --undefined-- 44.277
2.49 --undefined-- 40.289
2.50 --undefined-- 39.047
2.51 --undefined-- 37.258
2.52 --undefined-- 36.545
2.53 --undefined-- 38.188
2.54 --undefined-- 39.284
2.55 --undefined-- 38.302
2.56 --undefined-- 36.887
2.57 --undefined-- 37.013
2.58 --undefined-- 37.749
2.59 --undefined-- 38.328
2.60 --undefined-- 39.737
2.61 --undefined-- 40.824
2.62 --undefined-- 40.180
2.63 --undefined-- 39.763
2.64 --undefined-- 40.358
2.65 --undefined-- 39.389
2.66 --undefined-- 37.329
2.67 --undefined-- 36.916
2.68 --undefined-- 42.722
2.69 --undefined-- 53.343
2.70 --undefined-- 59.522
2.71 --undefined-- 62.732
2.72 --undefined-- 67.233
2.73 143.586 71.293
2.74 141.500 73.120
2.75 135.640 73.519
2.76 132.149 73.457
2.77 130.345 73.400
2.78 130.572 73.533
2.79 131.469 73.838
2.80 127.120 74.016
2.81 126.801 73.698
2.82 131.447 73.284
2.83 132.328 73.431
2.84 134.595 73.621
2.85 134.486 73.490
2.86 133.526 73.211
2.87 132.121 72.904
2.88 130.654 72.489
2.89 128.703 71.486
2.90 123.735 69.187
2.91 116.990 65.370
2.92 115.469 60.975
2.93 121.169 57.135
2.94 125.356 53.114
2.95 --undefined-- 50.785
2.96 --undefined-- 54.840
2.97 --undefined-- 63.562
2.98 155.801 70.210
2.99 151.149 73.513
3.00 128.126 74.260
3.01 119.761 73.363
3.02 114.397 70.876
3.03 101.854 66.555
3.04 99.663 61.312
3.05 --undefined-- 57.183
3.06 --undefined-- 53.848
3.07 --undefined-- 50.861
3.08 --undefined-- 49.586
3.09 --undefined-- 47.484
3.10 --undefined-- 44.231
3.11 --undefined-- 43.312
3.12 --undefined-- 41.925
3.13 --undefined-- 38.999
3.14 --undefined-- 38.710
3.15 --undefined-- 41.100
3.16 --undefined-- 46.222
3.17 --undefined-- 56.129
3.18 --undefined-- 65.047
3.19 171.638 70.543
3.20 161.960 73.475
3.21 154.260 74.977
3.22 151.932 75.484
3.23 149.785 74.862
3.24 147.471 73.949
3.25 151.648 74.608
3.26 152.979 75.830
3.27 152.056 76.516
3.28 151.528 76.870
3.29 151.604 77.035
3.30 152.331 77.028
3.31 153.525 76.935
3.32 154.086 76.763
3.33 153.206 76.323
3.34 150.102 75.227
3.35 143.862 73.001
3.36 137.617 69.057
3.37 --undefined-- 62.809
3.38 --undefined-- 55.680
3.39 --undefined-- 55.806
3.40 --undefined-- 59.538
3.41 --undefined-- 65.106
3.42 130.178 69.339
3.43 116.383 71.076
3.44 113.039 71.277
3.45 111.500 71.178
3.46 112.725 71.148
3.47 114.313 71.214
3.48 116.353 71.583
3.49 117.537 72.078
3.50 120.440 72.361
3.51 124.073 72.354
3.52 128.961 72.485
3.53 133.799 73.245
3.54 137.556 74.235
3.55 140.007 75.082
3.56 141.624 75.716
3.57 141.991 75.984
3.58 141.101 75.731
3.59 138.669 75.015
3.60 134.150 74.440
3.61 --undefined-- 74.623
3.62 --undefined-- 74.615
3.63 --undefined-- 73.377
3.64 97.710 70.987
3.65 95.665 68.058
3.66 83.516 65.714
3.67 119.064 63.105
3.68 119.773 59.661
3.69 120.125 60.133
3.70 117.308 61.312
3.71 115.519 60.080
3.72 --undefined-- 56.523
3.73 --undefined-- 56.504
3.74 105.116 63.051
3.75 123.987 68.475
3.76 132.715 71.726
3.77 132.524 73.327
3.78 123.565 73.805
3.79 119.466 73.388
3.80 116.986 72.355
3.81 118.223 71.119
3.82 114.950 69.489
3.83 109.006 66.544
3.84 97.631 61.744
3.85 --undefined-- 56.632
3.86 --undefined-- 58.120
3.87 138.163 63.962
3.88 123.951 68.118
3.89 120.124 70.469
3.90 117.542 71.802
3.91 115.957 72.413
3.92 113.579 72.019
3.93 110.349 70.483
3.94 109.917 68.535
3.95 110.288 67.794
3.96 111.882 68.655
3.97 112.179 69.619
3.98 106.149 69.709
3.99 103.295 69.389
4.00 100.863 69.118
4.01 99.212 68.741
4.02 99.925 68.667
4.03 102.220 69.100
4.04 105.253 69.568
4.05 108.981 70.287
4.06 113.675 71.658
4.07 119.614 73.111
4.08 124.239 74.093
4.09 131.190 74.791
4.10 137.526 75.678
4.11 144.921 76.577
4.12 151.801 77.028
4.13 158.165 77.057
4.14 164.191 76.840
4.15 169.231 76.284
4.16 171.694 74.842
4.17 170.103 71.829
4.18 160.700 67.088
4.19 --undefined-- 62.250
4.20 --undefined-- 58.037
4.21 --undefined-- 53.839
4.22 --undefined-- 51.447
4.23 --undefined-- 48.543
4.24 --undefined-- 42.813
4.25 --undefined-- 36.632
4.26 --undefined-- 36.116
4.27 --undefined-- 36.661
4.28 --undefined-- 37.410
4.29 --undefined-- 38.997
4.30 --undefined-- 39.264
4.31 --undefined-- 38.152
4.32 --undefined-- 38.077
4.33 --undefined-- 39.274
4.34 --undefined-- 39.927
4.35 --undefined-- 40.205
4.36 --undefined-- 39.644
4.37 --undefined-- 38.606
4.38 --undefined-- 38.160
4.39 --undefined-- 38.058
4.40 --undefined-- 37.908
4.41 --undefined-- 38.233
4.42 --undefined-- 39.128
4.43 --undefined-- 39.721
4.44 --undefined-- 39.163
4.45 --undefined-- 37.541
4.46 --undefined-- 36.737
4.47 --undefined-- 37.532
4.48 --undefined-- 38.645
4.49 --undefined-- 38.576
4.50 --undefined-- 37.910
4.51 --undefined-- 38.406
4.52 --undefined-- 40.018
4.53 --undefined-- 41.194
4.54 --undefined-- 41.799
4.55 --undefined-- 42.462
4.56 --undefined-- 43.126
4.57 --undefined-- 43.233
4.58 --undefined-- 43.150
4.59 --undefined-- 42.943
4.60 --undefined-- 43.416
4.61 --undefined-- 44.661
4.62 --undefined-- 44.708
4.63 --undefined-- 42.636
4.64 --undefined-- 38.466
4.65 --undefined-- 35.914
4.66 --undefined-- 36.853
4.67 --undefined-- 39.252
4.68 --undefined-- 43.540
4.69 --undefined-- 45.110
4.70 --undefined-- 42.885
4.71 --undefined-- 38.126
4.72 --undefined-- 40.127
4.73 --undefined-- 49.610
4.74 --undefined-- 56.356
4.75 --undefined-- 61.901
4.76 137.476 67.405
4.77 122.007 71.357
4.78 121.910 73.502
4.79 122.573 74.262
4.80 124.836 74.147
4.81 123.383 74.187
4.82 131.705 74.682
4.83 139.929 74.839
4.84 147.425 74.496
4.85 154.839 73.697
4.86 160.599 72.773
4.87 164.393 72.165
4.88 165.118 71.846
4.89 162.647 71.450
4.90 157.852 70.676
4.91 151.493 69.443
4.92 145.521 68.443
4.93 140.331 68.781
4.94 136.460 70.149
4.95 133.294 71.948
4.96 132.542 73.835
4.97 133.358 75.201
4.98 133.377 75.730
4.99 132.286 75.777
5.00 130.900 75.712
5.01 128.078 74.934
5.02 120.284 72.707
5.03 114.224 69.895
5.04 112.655 69.383
5.05 120.676 71.366
5.06 122.817 73.282
5.07 120.928 73.760
5.08 119.930 73.327
5.09 119.103 73.158
5.10 118.180 73.581
5.11 117.324 74.245
5.12 117.029 74.705
5.13 116.740 74.611
5.14 116.963 73.806
5.15 118.807 72.564
5.16 120.886 71.464
5.17 122.692 70.632
5.18 125.870 69.561
5.19 120.604 67.555
5.20 114.569 64.093
5.21 --undefined-- 59.331
5.22 --undefined-- 54.037
5.23 --undefined-- 51.797
5.24 --undefined-- 60.286
5.25 179.329 68.251
5.26 154.711 73.134
5.27 143.449 75.313
5.28 135.334 75.558
5.29 131.989 75.037
5.30 130.864 74.379
5.31 129.202 73.571
5.32 129.095 72.547
5.33 128.340 70.312
5.34 111.791 65.925
5.35 108.986 59.723
5.36 --undefined-- 55.294
5.37 --undefined-- 60.771
5.38 --undefined-- 68.216
5.39 149.366 72.584
5.40 141.156 74.089
5.41 131.533 74.133
5.42 125.909 74.156
5.43 123.134 74.517
5.44 123.191 74.995
5.45 124.271 75.240
5.46 125.375 75.271
5.47 127.248 75.377
5.48 129.915 75.644
5.49 133.197 75.956
5.50 135.978 76.123
5.51 140.141 76.141
5.52 145.293 76.100
5.53 151.055 75.698
5.54 158.778 74.548
5.55 168.029 73.121
5.56 173.551 72.062
5.57 175.045 70.634
5.58 177.070 68.144
5.59 186.986 65.249
5.60 --undefined-- 62.456
5.61 290.264 59.472
5.62 267.366 56.759
5.63 264.109 54.134
5.64 --undefined-- 50.700
5.65 --undefined-- 52.859
5.66 148.562 57.009
5.67 134.098 59.652
5.68 138.610 61.455
5.69 132.456 62.616
5.70 131.247 63.510
5.71 128.481 64.427
5.72 128.184 65.447
5.73 127.844 66.582
5.74 127.936 67.925
5.75 131.176 69.618
5.76 133.212 71.202
5.77 133.697 72.012
5.78 133.300 71.771
5.79 132.721 70.418
5.80 125.395 68.703
5.81 129.052 68.348
5.82 123.895 68.623
5.83 119.359 69.267
5.84 122.096 70.744
5.85 118.325 72.091
5.86 114.007 72.085
5.87 110.787 70.922
5.88 108.833 69.797
5.89 106.108 69.309
5.90 104.347 68.847
5.91 99.306 68.014
5.92 98.261 68.055
5.93 103.458 69.290
5.94 106.430 70.047
5.95 105.868 --undefined--
5.96 105.211 --undefined--
5.97 --undefined-- --undefined--
5.98 --undefined-- --undefined--
