Time Pitch Intensity
0.01 --undefined-- --undefined--
0.02 107.828 --undefined--
0.03 106.065 --undefined--
0.04 103.057 --undefined--
0.05 101.524 68.909
0.06 101.123 68.153
0.07 101.148 67.472
0.08 102.893 66.855
0.09 102.447 66.095
0.10 99.854 64.573
0.11 95.561 61.673
0.12 89.135 57.121
0.13 --undefined-- 51.712
0.14 --undefined-- 48.434
0.15 --undefined-- 48.615
0.16 --undefined-- 52.799
0.17 --undefined-- 62.147
0.18 --undefined-- 68.714
0.19 144.083 71.974
0.20 125.923 73.073
0.21 123.181 73.530
0.22 124.062 73.988
0.23 124.332 73.975
0.24 124.463 73.163
0.25 --undefined-- 71.321
0.26 --undefined-- 68.659
0.27 --undefined-- 66.072
0.28 --undefined-- 64.281
0.29 --undefined-- 63.595
0.30 --undefined-- 63.831
0.31 127.392 64.842
0.32 123.001 66.376
0.33 120.102 68.023
0.34 117.091 69.550
0.35 115.402 70.899
0.36 115.336 72.004
0.37 115.475 72.854
0.38 115.419 73.496
0.39 115.019 73.869
0.40 114.243 73.835
0.41 114.161 73.523
0.42 115.338 73.294
0.43 116.288 73.214
0.44 116.603 73.033
0.45 115.359 72.564
0.46 114.586 72.343
0.47 116.929 72.537
0.48 118.147 72.551
0.49 118.256 72.044
0.50 115.414 70.763
0.51 114.516 68.538
0.52 --undefined-- 65.035
0.53 --undefined-- 59.520
0.54 --undefined-- 53.545
0.55 --undefined-- 50.166
0.56 --undefined-- 46.646
0.57 --undefined-- 42.401
0.58 --undefined-- 40.519
0.59 --undefined-- 41.060
0.60 --undefined-- 40.633
0.61 --undefined-- 39.446
0.62 --undefined-- 39.242
0.63 --undefined-- 39.752
0.64 --undefined-- 40.421
0.65 --undefined-- 41.315
0.66 --undefined-- 41.824
0.67 --undefined-- 42.060
0.68 --undefined-- 41.793
0.69 --undefined-- 41.241
0.70 --undefined-- 41.355
0.71 --undefined-- 42.074
0.72 --undefined-- 42.187
0.73 --undefined-- 42.166
0.74 --undefined-- 42.037
0.75 --undefined-- 41.326
0.76 --undefined-- 40.817
0.77 --undefined-- 40.484
0.78 --undefined-- 39.570
0.79 --undefined-- 37.369
0.80 --undefined-- 35.823
0.81 --undefined-- 37.217
0.82 --undefined-- 38.518
0.83 --undefined-- 46.048
0.84 --undefined-- 55.786
0.85 --undefined-- 61.920
0.86 --undefined-- 65.715
0.87 137.149 68.706
0.88 134.095 71.538
0.89 135.003 74.110
0.90 135.736 76.096
0.91 135.940 77.423
0.92 136.290 78.203
0.93 136.580 78.629
0.94 137.048 78.921
0.95 137.116 79.059
0.96 136.101 78.842
0.97 135.340 78.104
0.98 130.459 76.811
0.99 135.538 75.569
1.00 141.508 75.036
1.01 143.677 74.741
1.02 144.526 74.254
1.03 143.934 73.413
1.04 142.008 72.132
1.05 141.809 70.135
1.06 --undefined-- 66.651
1.07 --undefined-- 61.407
1.08 --undefined-- 55.485
1.09 --undefined-- 51.002
1.10 --undefined-- 54.085
1.11 --undefined-- 60.990
1.12 --undefined-- 66.789
1.13 154.102 70.994
1.14 151.302 73.829
1.15 149.821 75.692
1.16 147.380 76.553
1.17 143.527 76.622
1.18 140.998 76.540
1.19 141.280 76.612
1.20 142.290 76.484
1.21 142.368 75.979
1.22 141.840 75.136
1.23 140.249 74.020
1.24 138.934 73.147
1.25 146.188 73.023
1.26 147.895 72.977
1.27 148.586 72.508
1.28 147.334 71.445
1.29 142.712 69.386
1.30 135.174 65.831
1.31 139.065 61.965
1.32 171.960 65.479
1.33 163.830 71.000
1.34 163.555 74.512
1.35 158.605 76.003
1.36 154.691 76.430
1.37 152.241 76.370
1.38 149.391 75.184
1.39 147.702 73.210
1.40 148.014 72.141
1.41 145.807 72.047
1.42 144.978 72.722
1.43 143.234 73.914
1.44 134.627 74.448
1.45 129.884 73.917
1.46 122.170 72.796
1.47 117.245 71.829
1.48 116.058 71.385
1.49 116.998 71.030
1.50 116.645 69.628
1.51 --undefined-- 65.999
1.52 --undefined-- 59.625
1.53 --undefined-- 53.403
1.54 --undefined-- 55.136
1.55 --undefined-- 57.713
1.56 --undefined-- 57.917
1.57 --undefined-- 55.395
1.58 --undefined-- 51.169
1.59 --undefined-- 48.122
1.60 --undefined-- 46.692
1.61 --undefined-- 50.819
1.62 --undefined-- 60.203
1.63 165.114 67.181
1.64 143.003 71.053
1.65 138.428 72.783
1.66 132.897 73.461
1.67 130.415 73.729
1.68 130.600 73.867
1.69 132.575 74.106
1.70 134.124 74.343
1.71 134.461 74.244
1.72 133.100 73.369
1.73 129.938 70.989
1.74 --undefined-- 66.509
1.75 --undefined-- 60.352
1.76 --undefined-- 54.493
1.77 --undefined-- 48.020
1.78 --undefined-- 43.167
1.79 --undefined-- 42.525
1.80 --undefined-- 41.476
1.81 --undefined-- 41.533
1.82 --undefined-- 42.291
1.83 --undefined-- 41.361
1.84 --undefined-- 39.443
1.85 --undefined-- 39.395
1.86 --undefined-- 38.922
1.87 --undefined-- 37.312
1.88 --undefined-- 36.510
1.89 --undefined-- 37.242
1.90 --undefined-- 39.095
1.91 --undefined-- 39.481
1.92 --undefined-- 38.585
1.93 --undefined-- 38.550
1.94 --undefined-- 38.822
1.95 --undefined-- 42.757
1.96 --undefined-- 51.547
1.97 148.139 58.898
1.98 128.997 64.315
1.99 128.599 68.072
2.00 132.858 70.339
2.01 128.582 71.428
2.02 127.790 71.708
2.03 126.159 71.826
2.04 126.342 72.201
2.05 127.408 72.727
2.06 129.197 73.262
2.07 132.164 73.582
2.08 134.813 73.221
2.09 139.823 72.376
2.10 145.492 71.363
2.11 150.650 69.474
2.12 147.696 65.771
2.13 140.970 59.608
2.14 --undefined-- 51.626
2.15 --undefined-- 46.135
2.16 --undefined-- 43.280
2.17 --undefined-- 43.737
2.18 --undefined-- 54.413
2.19 --undefined-- 63.726
2.20 --undefined-- 69.498
2.21 147.156 72.329
2.22 127.371 72.950
2.23 117.609 72.079
2.24 111.544 70.637
2.25 111.999 70.027
2.26 114.472 70.322
2.27 116.494 70.890
2.28 116.910 71.432
2.29 116.327 71.553
2.30 114.918 71.206
2.31 114.335 70.854
2.32 111.002 70.890
2.33 112.056 71.019
2.34 114.394 70.653
2.35 119.907 70.099
2.36 125.080 70.008
2.37 124.997 70.218
2.38 126.112 70.719
2.39 130.974 72.062
2.40 135.731 73.801
2.41 135.398 74.712
2.42 132.681 74.726
2.43 132.801 74.445
2.44 128.869 73.567
2.45 123.612 71.965
2.46 115.001 69.797
2.47 115.577 66.298
2.48 --undefined-- 60.730
2.49 --undefined-- 53.877
2.50 --undefined-- 47.373
2.51 --undefined-- 43.506
2.52 --undefined-- 43.952
2.53 --undefined-- 46.001
2.54 --undefined-- 47.462
2.55 --undefined-- 48.455
2.56 --undefined-- 48.775
2.57 --undefined-- 48.015
2.58 --undefined-- 46.322
2.59 --undefined-- 45.283
2.60 --undefined-- 45.610
2.61 --undefined-- 47.024
2.62 --undefined-- 56.455
2.63 --undefined-- 65.706
2.64 161.277 71.094
2.65 150.571 73.382
2.66 138.601 73.579
2.67 131.655 73.066
2.68 130.534 72.894
2.69 131.766 72.916
2.70 131.959 72.339
2.71 130.300 70.255
2.72 115.847 66.021
2.73 99.820 60.344
2.74 --undefined-- 62.208
2.75 129.241 67.783
2.76 124.488 70.872
2.77 120.699 71.728
2.78 114.535 71.340
2.79 111.204 70.743
2.80 107.819 70.364
2.81 111.405 70.140
2.82 111.745 69.418
2.83 108.739 67.434
2.84 103.751 63.805
2.85 99.875 59.660
2.86 136.422 62.188
2.87 142.978 67.750
2.88 151.035 71.582
2.89 156.488 73.618
2.90 157.799 74.329
2.91 159.394 74.266
2.92 159.081 73.469
2.93 154.213 71.597
2.94 143.899 68.299
2.95 136.157 63.151
2.96 --undefined-- 56.278
2.97 --undefined-- 50.421
2.98 --undefined-- 48.487
2.99 --undefined-- 48.860
3.00 --undefined-- 49.917
3.01 --undefined-- 52.567
3.02 --undefined-- 60.928
3.03 --undefined-- 68.843
3.04 --undefined-- 73.541
3.05 156.876 75.928
3.06 152.218 76.993
3.07 149.196 77.385
3.08 146.494 77.394
3.09 145.060 77.202
3.10 143.766 76.917
3.11 143.180 76.593
3.12 144.274 76.344
3.13 146.272 76.103
3.14 147.971 75.773
3.15 149.545 75.319
3.16 150.015 74.350
3.17 148.910 72.335
3.18 145.794 70.269
3.19 148.973 69.740
3.20 148.509 69.397
3.21 146.862 68.499
3.22 144.157 67.191
3.23 140.212 65.665
3.24 135.997 63.706
3.25 --undefined-- 60.616
3.26 --undefined-- 56.108
3.27 --undefined-- 50.350
3.28 --undefined-- 43.655
3.29 --undefined-- 37.847
3.30 --undefined-- 36.712
3.31 --undefined-- 37.997
3.32 --undefined-- 38.230
3.33 --undefined-- 37.647
3.34 --undefined-- 37.041
3.35 --undefined-- 38.549
3.36 --undefined-- 41.673
3.37 --undefined-- 42.631
3.38 --undefined-- 42.192
3.39 --undefined-- 46.545
3.40 --undefined-- 50.996
3.41 --undefined-- 52.934
3.42 --undefined-- 53.594
3.43 --undefined-- 54.115
3.44 --undefined-- 55.924
3.45 --undefined-- 61.130
3.46 133.659 66.122
3.47 126.915 68.856
3.48 119.148 69.747
3.49 117.039 69.889
3.50 113.926 70.068
3.51 110.872 70.027
3.52 112.325 69.572
3.53 112.102 69.246
3.54 112.545 69.104
3.55 110.826 68.540
3.56 109.159 67.193
3.57 105.804 64.769
3.58 101.714 60.781
3.59 102.132 55.155
3.60 --undefined-- 49.498
3.61 --undefined-- 46.336
3.62 --undefined-- 45.701
3.63 --undefined-- 47.039
3.64 --undefined-- 50.477
3.65 --undefined-- 57.643
3.66 --undefined-- 64.243
3.67 --undefined-- 68.484
3.68 --undefined-- 70.811
3.69 117.022 72.045
3.70 115.380 72.668
3.71 114.585 72.575
3.72 113.564 71.774
3.73 112.968 70.697
3.74 112.148 69.559
3.75 112.091 68.461
3.76 112.959 67.543
3.77 113.106 66.002
3.78 104.551 62.914
3.79 104.510 58.737
3.80 105.096 54.598
3.81 --undefined-- 53.829
3.82 --undefined-- 59.800
3.83 168.145 66.152
3.84 164.293 70.700
3.85 137.329 73.110
3.86 132.482 73.973
3.87 129.418 74.228
3.88 127.599 74.405
3.89 126.785 74.648
3.90 126.811 74.771
3.91 128.145 74.587
3.92 129.343 74.215
3.93 130.637 73.900
3.94 131.312 73.529
3.95 130.456 72.483
3.96 128.523 70.285
3.97 126.087 67.370
3.98 120.667 64.245
3.99 113.952 60.335
4.00 117.239 55.409
4.01 --undefined-- 49.841
4.02 --undefined-- 46.072
4.03 --undefined-- 49.824
4.04 --undefined-- 58.820
4.05 --undefined-- 66.038
4.06 142.468 70.010
4.07 123.156 71.449
4.08 117.998 71.493
4.09 111.222 70.755
4.10 106.061 69.620
4.11 102.501 68.897
4.12 100.952 68.710
4.13 101.698 68.833
4.14 102.962 69.094
4.15 103.841 69.178
4.16 107.138 68.802
4.17 105.893 67.288
4.18 98.570 63.527
4.19 84.342 57.434
4.20 --undefined-- 50.853
4.21 --undefined-- 45.858
4.22 --undefined-- 49.187
4.23 --undefined-- 58.188
4.24 --undefined-- 64.193
4.25 103.344 67.015
4.26 100.601 67.814
4.27 96.919 67.764
4.28 96.086 67.404
4.29 96.959 66.902
4.30 98.169 66.559
4.31 100.509 66.472
4.32 102.585 66.260
4.33 102.806 65.985
4.34 106.848 66.720
4.35 112.120 68.730
4.36 123.842 70.620
4.37 129.812 71.626
4.38 136.276 71.961
4.39 141.807 72.086
4.40 146.120 71.923
4.41 150.053 71.167
4.42 150.643 69.716
4.43 150.691 67.475
4.44 151.080 64.471
4.45 138.689 60.488
4.46 139.627 55.611
4.47 --undefined-- 49.845
4.48 --undefined-- 44.919
4.49 --undefined-- 41.083
4.50 --undefined-- 37.757
4.51 --undefined-- 37.251
4.52 --undefined-- 36.595
4.53 --undefined-- 34.899
4.54 --undefined-- 33.764
4.55 --undefined-- 33.583
4.56 --undefined-- 33.129
4.57 --undefined-- 32.529
4.58 --undefined-- 32.191
4.59 --undefined-- 33.359
4.60 --undefined-- 34.718
4.61 --undefined-- 34.207
4.62 --undefined-- 33.431
4.63 --undefined-- 34.463
4.64 --undefined-- 36.485
4.65 --undefined-- 37.438
4.66 --undefined-- 35.878
4.67 --undefined-- 33.219
4.68 --undefined-- 32.886
4.69 --undefined-- 33.183
4.70 --undefined-- 34.473
4.71 --undefined-- 36.267
4.72 --undefined-- 36.475
4.73 --undefined-- 35.784
4.74 --undefined-- 34.729
4.75 --undefined-- 34.154
4.76 --undefined-- 34.983
4.77 --undefined-- 35.977
4.78 --undefined-- 35.716
4.79 --undefined-- 35.612
4.80 --undefined-- 36.221
4.81 --undefined-- 35.666
4.82 --undefined-- 34.465
4.83 --undefined-- 33.879
4.84 --undefined-- 34.175
4.85 --undefined-- 34.660
4.86 --undefined-- 35.173
4.87 --undefined-- 37.140
4.88 --undefined-- 38.658
4.89 --undefined-- 38.665
4.90 --undefined-- 37.505
4.91 --undefined-- 37.253
4.92 --undefined-- 38.902
4.93 --undefined-- 39.293
4.94 --undefined-- 37.740
4.95 --undefined-- 36.687
4.96 --undefined-- 36.790
4.97 --undefined-- 36.262
4.98 --undefined-- 37.089
4.99 --undefined-- 38.537
5.00 --undefined-- 37.715
5.01 --undefined-- 35.887
5.02 --undefined-- 36.895
5.03 --undefined-- 38.594
5.04 --undefined-- 38.376
5.05 --undefined-- 36.501
5.06 --undefined-- 35.101
5.07 --undefined-- 35.752
5.08 --undefined-- 36.231
5.09 --undefined-- 35.212
5.10 --undefined-- 34.332
5.11 --undefined-- 35.165
5.12 --undefined-- 35.914
5.13 --undefined-- 43.907
5.14 --undefined-- 57.356
5.15 212.281 65.894
5.16 178.453 71.081
5.17 163.861 74.231
5.18 164.609 76.116
5.19 166.202 77.030
5.20 167.207 77.444
5.21 168.037 77.567
5.22 168.381 77.432
5.23 168.880 77.028
5.24 169.082 76.223
5.25 168.646 74.526
5.26 159.593 71.152
5.27 148.137 65.612
5.28 --undefined-- 58.729
5.29 --undefined-- 52.930
5.30 --undefined-- 55.234
5.31 215.404 64.181
5.32 194.510 70.074
5.33 178.999 73.345
5.34 173.727 74.955
5.35 167.040 75.382
5.36 162.987 74.701
5.37 161.047 73.226
5.38 158.113 70.753
5.39 139.986 66.512
5.40 166.176 64.313
5.41 156.580 67.593
5.42 148.515 71.102
5.43 144.846 73.788
5.44 --undefined-- 74.951
5.45 --undefined-- 74.829
5.46 --undefined-- 73.834
5.47 101.158 72.115
5.48 102.631 70.351
5.49 102.900 69.003
5.50 102.304 67.300
5.51 101.397 64.141
5.52 --undefined-- 58.837
5.53 --undefined-- 53.213
5.54 --undefined-- 52.494
5.55 --undefined-- 54.649
5.56 --undefined-- 56.123
5.57 --undefined-- 55.567
5.58 --undefined-- 53.435
5.59 --undefined-- 50.472
5.60 --undefined-- 50.984
5.61 --undefined-- 60.087
5.62 156.600 67.096
5.63 141.130 70.756
5.64 137.955 72.251
5.65 131.051 72.710
5.66 128.254 72.847
5.67 126.256 72.793
5.68 125.037 72.569
5.69 124.893 72.323
5.70 125.612 72.130
5.71 127.072 71.891
5.72 127.487 71.104
5.73 126.548 68.716
5.74 --undefined-- 63.588
5.75 --undefined-- 55.281
5.76 --undefined-- 47.904
5.77 --undefined-- 44.072
5.78 --undefined-- 40.672
5.79 --undefined-- 38.261
5.80 --undefined-- 36.486
5.81 --undefined-- 35.405
5.82 --undefined-- 34.882
5.83 --undefined-- 34.869
5.84 --undefined-- 37.025
5.85 --undefined-- 39.296
5.86 --undefined-- 39.619
5.87 --undefined-- 37.845
5.88 --undefined-- 34.326
5.89 --undefined-- 32.252
5.90 --undefined-- 35.246
5.91 --undefined-- 38.820
5.92 --undefined-- 39.758
5.93 --undefined-- 37.946
5.94 --undefined-- 37.172
5.95 --undefined-- 39.761
5.96 --undefined-- 43.687
5.97 --undefined-- 49.689
5.98 --undefined-- 57.917
5.99 --undefined-- 64.878
6.00 --undefined-- 68.318
6.01 115.188 68.742
6.02 113.678 67.778
6.03 111.372 67.614
6.04 110.184 68.483
6.05 111.595 69.495
6.06 115.139 70.165
6.07 118.060 70.348
6.08 121.585 70.499
6.09 123.197 70.961
6.10 122.701 71.640
6.11 120.711 72.214
6.12 120.533 72.550
6.13 121.120 72.435
6.14 125.101 71.421
6.15 118.924 68.860
6.16 114.157 64.443
6.17 114.950 59.242
6.18 123.894 54.278
6.19 --undefined-- 50.421
6.20 --undefined-- 53.399
6.21 --undefined-- 62.613
6.22 139.140 68.957
6.23 132.879 72.205
6.24 126.052 73.276
6.25 124.412 73.045
6.26 123.251 72.386
6.27 123.117 71.992
6.28 122.921 71.936
6.29 121.446 71.538
6.30 117.936 69.813
6.31 113.214 66.079
6.32 114.908 60.399
6.33 --undefined-- 54.043
6.34 --undefined-- 50.984
6.35 --undefined-- 55.971
6.36 --undefined-- 65.396
6.37 --undefined-- 71.818
6.38 141.168 75.122
6.39 132.562 76.188
6.40 130.881 75.860
6.41 128.812 75.078
6.42 127.954 74.339
6.43 127.514 73.564
6.44 126.688 --undefined--
6.45 122.313 --undefined--
6.46 --undefined-- --undefined--
6.47 --undefined-- --undefined--
