Time Pitch Intensity
0.01 --undefined-- --undefined--
0.02 214.607 --undefined--
0.03 211.394 --undefined--
0.04 209.569 --undefined--
0.05 207.976 72.411
0.06 205.745 71.460
0.07 201.431 70.573
0.08 194.718 69.163
0.09 182.487 66.407
0.10 164.922 61.764
0.11 --undefined-- 56.079
0.12 --undefined-- 52.881
0.13 98.737 52.341
0.14 103.519 52.369
0.15 108.872 52.802
0.16 113.012 53.386
0.17 114.535 53.295
0.18 113.045 52.052
0.19 105.794 50.022
0.20 --undefined-- 47.370
0.21 --undefined-- 43.922
0.22 --undefined-- 40.653
0.23 --undefined-- 39.338
0.24 --undefined-- 40.294
0.25 --undefined-- 41.334
0.26 --undefined-- 41.780
0.27 --undefined-- 40.972
0.28 --undefined-- 39.129
0.29 --undefined-- 37.666
0.30 --undefined-- 37.018
0.31 --undefined-- 37.033
0.32 --undefined-- 37.178
0.33 --undefined-- 37.077
0.34 --undefined-- 36.817
0.35 --undefined-- 39.052
0.36 --undefined-- 46.054
0.37 --undefined-- 51.667
0.38 117.325 54.464
0.39 105.172 55.064
0.40 102.760 54.654
0.41 101.567 54.050
0.42 101.396 53.660
0.43 101.312 53.542
0.44 100.439 52.771
0.45 97.094 50.421
0.46 --undefined-- 47.595
0.47 --undefined-- 48.651
0.48 93.122 51.495
0.49 96.892 53.173
0.50 97.024 53.469
0.51 96.108 52.869
0.52 95.637 52.373
0.53 95.221 52.307
0.54 92.953 51.577
0.55 88.319 50.031
0.56 87.394 49.536
0.57 89.450 50.700
0.58 93.569 52.388
0.59 96.157 53.456
0.60 95.530 53.647
0.61 94.600 53.745
0.62 97.465 56.283
0.63 97.824 63.427
0.64 201.766 68.931
0.65 188.848 71.610
0.66 187.956 72.544
0.67 191.469 72.989
0.68 199.945 73.304
0.69 204.711 73.172
0.70 208.897 72.719
0.71 213.592 72.820
0.72 218.824 73.378
0.73 223.671 73.572
0.74 228.329 73.584
0.75 231.302 73.566
0.76 234.096 73.358
0.77 232.480 72.971
0.78 226.886 72.456
0.79 219.240 72.013
0.80 211.928 71.859
0.81 205.032 71.978
0.82 200.136 71.870
0.83 195.830 71.538
0.84 192.134 71.444
0.85 189.443 71.608
0.86 186.313 71.668
0.87 182.776 71.541
0.88 179.639 71.412
0.89 177.478 71.351
0.90 176.612 71.361
0.91 175.864 71.222
0.92 175.685 70.574
0.93 175.964 69.623
0.94 176.209 68.994
0.95 175.923 68.290
0.96 173.786 66.457
0.97 166.830 62.933
0.98 169.138 58.078
0.99 100.794 53.688
1.00 98.972 52.072
1.01 95.398 53.367
1.02 --undefined-- 55.324
1.03 --undefined-- 56.749
1.04 --undefined-- 62.188
1.05 191.918 66.920
1.06 179.418 68.882
1.07 174.144 69.049
1.08 171.903 68.461
1.09 171.811 67.335
1.10 172.441 65.303
1.11 170.848 61.916
1.12 175.331 57.454
1.13 106.377 53.938
1.14 105.828 53.172
1.15 103.827 54.347
1.16 --undefined-- 55.581
1.17 --undefined-- 58.194
1.18 191.788 63.718
1.19 191.670 67.251
1.20 186.692 68.368
1.21 177.448 68.205
1.22 163.244 67.608
1.23 150.229 66.792
1.24 147.724 66.063
1.25 146.625 65.673
1.26 146.335 65.484
1.27 146.607 65.473
1.28 145.921 65.662
1.29 146.574 65.929
1.30 148.276 66.014
1.31 150.567 65.958
1.32 151.339 66.113
1.33 150.540 65.760
1.34 150.550 64.596
1.35 149.905 62.567
1.36 140.141 58.951
1.37 139.185 53.599
1.38 --undefined-- 47.370
1.39 --undefined-- 43.585
1.40 --undefined-- 48.958
1.41 --undefined-- 57.989
1.42 --undefined-- 64.344
1.43 177.443 68.029
1.44 177.169 69.811
1.45 176.615 70.536
1.46 176.282 70.827
1.47 175.348 70.918
1.48 174.812 70.824
1.49 174.645 70.585
1.50 174.885 70.378
1.51 174.918 70.291
1.52 175.065 70.383
1.53 175.254 70.665
1.54 175.377 70.978
1.55 175.829 71.195
1.56 175.937 71.236
1.57 176.218 71.123
1.58 176.556 70.991
1.59 176.869 70.924
1.60 176.295 70.853
1.61 176.088 70.510
1.62 177.122 70.116
1.63 175.954 69.855
1.64 173.204 69.495
1.65 170.450 68.548
1.66 167.119 66.458
1.67 --undefined-- 63.652
1.68 --undefined-- 60.451
1.69 99.281 56.225
1.70 97.829 52.659
1.71 94.030 50.367
1.72 --undefined-- 47.362
1.73 --undefined-- 43.432
1.74 --undefined-- 40.429
1.75 --undefined-- 39.229
1.76 --undefined-- 38.114
1.77 --undefined-- 37.424
1.78 --undefined-- 36.941
1.79 --undefined-- 37.065
1.80 --undefined-- 37.737
1.81 --undefined-- 38.289
1.82 --undefined-- 39.610
1.83 --undefined-- 40.405
1.84 --undefined-- 40.022
1.85 --undefined-- 39.397
1.86 --undefined-- 38.661
1.87 --undefined-- 38.278
1.88 --undefined-- 38.759
1.89 --undefined-- 38.710
1.90 --undefined-- 38.110
1.91 --undefined-- 37.766
1.92 --undefined-- 37.901
1.93 --undefined-- 37.851
1.94 --undefined-- 36.826
1.95 --undefined-- 36.032
1.96 --undefined-- 36.118
1.97 --undefined-- 42.526
1.98 --undefined-- 53.435
1.99 217.512 61.108
2.00 217.973 65.961
2.01 214.945 69.193
2.02 214.896 71.445
2.03 216.439 72.932
2.04 217.454 73.908
2.05 218.286 74.542
2.06 218.942 74.838
2.07 220.488 74.834
2.08 223.691 74.624
2.09 228.126 74.312
2.10 231.540 73.930
2.11 234.681 73.258
2.12 235.872 71.598
2.13 226.617 67.946
2.14 217.128 61.646
2.15 114.880 55.782
2.16 126.460 57.828
2.17 125.244 61.518
2.18 --undefined-- 67.516
2.19 296.169 72.261
2.20 287.100 74.542
2.21 283.697 75.217
2.22 283.764 75.330
2.23 285.888 75.174
2.24 288.833 74.790
2.25 291.958 74.163
2.26 295.062 73.184
2.27 296.744 71.925
2.28 295.204 70.344
2.29 280.050 67.919
2.30 251.882 64.223
2.31 --undefined-- 59.484
2.32 98.237 55.466
2.33 99.393 53.644
2.34 99.288 54.028
2.35 98.504 60.154
2.36 273.142 67.467
2.37 257.567 72.260
2.38 243.458 74.725
2.39 231.674 75.330
2.40 219.961 74.813
2.41 213.238 74.199
2.42 210.564 73.886
2.43 209.064 73.552
2.44 208.385 73.111
2.45 208.006 72.629
2.46 206.479 72.068
2.47 204.509 71.222
2.48 200.539 69.641
2.49 196.160 66.714
2.50 193.303 61.708
2.51 194.276 54.097
2.52 --undefined-- 46.274
2.53 --undefined-- 44.101
2.54 --undefined-- 44.909
2.55 --undefined-- 45.663
2.56 --undefined-- 47.675
2.57 --undefined-- 50.659
2.58 93.695 52.217
2.59 103.929 54.708
2.60 103.900 60.384
2.61 187.016 64.576
2.62 175.999 66.693
2.63 173.893 68.058
2.64 173.158 69.044
2.65 171.497 69.463
2.66 171.390 69.715
2.67 172.547 70.001
2.68 173.568 70.136
2.69 174.293 70.246
2.70 176.907 70.645
2.71 179.969 71.316
2.72 184.287 71.919
2.73 189.061 72.235
2.74 193.483 72.263
2.75 196.426 72.057
2.76 198.891 71.625
2.77 201.535 70.994
2.78 204.935 70.278
2.79 208.947 69.400
2.80 211.527 67.828
2.81 209.862 64.838
2.82 227.688 60.091
2.83 230.029 53.637
2.84 --undefined-- 47.736
2.85 --undefined-- 51.466
2.86 --undefined-- 56.444
2.87 --undefined-- 58.266
2.88 --undefined-- 58.697
2.89 --undefined-- 64.194
2.90 276.965 69.466
2.91 271.270 72.325
2.92 267.076 73.681
2.93 262.766 74.261
2.94 258.888 74.675
2.95 257.234 75.080
2.96 255.806 75.328
2.97 253.972 75.417
2.98 252.142 75.544
2.99 248.972 75.788
3.00 245.964 75.875
3.01 243.762 75.741
3.02 240.271 75.557
3.03 235.649 75.286
3.04 229.066 74.744
3.05 219.760 73.974
3.06 209.497 73.353
3.07 203.429 73.033
3.08 199.396 72.755
3.09 196.575 72.594
3.10 192.520 72.646
3.11 188.038 72.683
3.12 184.137 72.437
3.13 180.467 71.744
3.14 181.310 70.530
3.15 191.076 68.449
3.16 189.941 66.220
3.17 182.158 65.908
3.18 178.468 67.012
3.19 176.856 68.302
3.20 172.813 69.308
3.21 168.318 70.115
3.22 166.652 70.729
3.23 166.662 70.917
3.24 167.987 70.795
3.25 170.469 70.164
3.26 173.367 69.423
3.27 179.229 69.255
3.28 185.533 69.338
3.29 191.782 69.638
3.30 195.801 70.056
3.31 198.065 70.619
3.32 206.187 71.429
3.33 209.174 72.068
3.34 212.765 72.530
3.35 214.611 72.846
3.36 214.402 72.930
3.37 212.562 72.760
3.38 211.681 72.268
3.39 211.063 71.160
3.40 198.249 69.436
3.41 192.787 68.412
3.42 187.009 68.585
3.43 181.088 68.562
3.44 176.132 68.061
3.45 173.076 67.598
3.46 170.808 67.287
3.47 168.734 67.245
3.48 167.278 67.487
3.49 164.675 67.283
3.50 159.574 66.081
3.51 154.197 64.829
3.52 154.578 64.771
3.53 153.762 64.769
3.54 148.879 64.655
3.55 147.563 64.955
3.56 144.058 64.950
3.57 140.631 64.577
3.58 138.232 64.386
3.59 136.852 63.925
3.60 136.399 63.541
3.61 135.686 63.892
3.62 137.028 63.751
3.63 138.462 63.227
3.64 137.643 63.533
3.65 134.700 63.924
3.66 139.515 63.846
3.67 140.000 63.834
3.68 137.228 63.281
3.69 136.180 60.864
3.70 140.602 56.030
3.71 --undefined-- 49.892
3.72 --undefined-- 45.430
3.73 --undefined-- 42.533
3.74 --undefined-- 41.896
3.75 --undefined-- 42.815
3.76 --undefined-- 43.754
3.77 --undefined-- 44.056
3.78 --undefined-- 43.983
3.79 --undefined-- 46.308
3.80 --undefined-- 56.104
3.81 --undefined-- 63.307
3.82 182.255 66.950
3.83 178.857 68.372
3.84 175.516 69.011
3.85 172.463 69.441
3.86 170.337 69.588
3.87 168.954 69.352
3.88 168.298 68.803
3.89 169.943 68.277
3.90 170.822 68.044
3.91 171.647 68.193
3.92 172.495 68.515
3.93 172.992 68.776
3.94 171.826 68.980
3.95 170.828 69.178
3.96 172.736 69.231
3.97 171.614 69.023
3.98 170.785 68.786
3.99 167.919 68.566
4.00 164.311 68.182
4.01 160.669 67.638
4.02 160.342 67.505
4.03 158.652 67.874
4.04 157.526 67.939
4.05 154.052 67.511
4.06 151.138 66.912
4.07 149.045 66.335
4.08 147.088 65.862
4.09 144.212 65.646
4.10 143.049 65.664
4.11 141.572 65.722
4.12 139.807 65.644
4.13 139.176 65.707
4.14 136.156 66.440
4.15 136.555 67.075
4.16 135.966 67.087
4.17 137.573 66.622
4.18 137.698 66.177
4.19 137.582 66.057
4.20 136.142 66.162
4.21 134.032 66.331
4.22 134.067 66.313
4.23 135.241 66.125
4.24 137.007 66.002
4.25 137.089 65.974
4.26 137.060 65.876
4.27 136.812 65.579
4.28 135.523 65.082
4.29 134.184 64.335
4.30 131.635 63.077
4.31 128.086 60.660
4.32 126.729 56.290
4.33 --undefined-- 49.547
4.34 --undefined-- 46.618
4.35 245.434 49.095
4.36 249.881 48.987
4.37 --undefined-- 46.690
4.38 --undefined-- 47.610
4.39 --undefined-- 51.689
4.40 --undefined-- 53.444
4.41 --undefined-- 53.094
4.42 --undefined-- 52.832
4.43 --undefined-- 54.342
4.44 --undefined-- 59.300
4.45 193.041 64.170
4.46 179.031 66.699
4.47 158.486 67.458
4.48 148.277 67.366
4.49 145.241 66.897
4.50 144.556 66.075
4.51 139.205 64.465
4.52 136.151 61.439
4.53 136.839 56.698
4.54 --undefined-- 50.008
4.55 --undefined-- 41.455
4.56 --undefined-- 40.186
4.57 --undefined-- 47.271
4.58 --undefined-- 51.277
4.59 --undefined-- 56.588
4.60 243.269 64.126
4.61 238.595 68.814
4.62 236.368 71.056
4.63 237.588 71.954
4.64 238.507 72.343
4.65 239.152 72.769
4.66 242.983 73.517
4.67 246.014 74.219
4.68 247.182 74.674
4.69 248.028 74.979
4.70 248.269 75.187
4.71 248.205 75.262
4.72 247.826 75.076
4.73 246.633 74.207
4.74 243.988 71.921
4.75 241.746 67.403
4.76 251.151 60.020
4.77 --undefined-- 50.636
4.78 --undefined-- 48.119
4.79 --undefined-- 58.316
4.80 254.509 66.306
4.81 249.291 70.866
4.82 243.141 72.873
4.83 239.444 73.691
4.84 237.421 74.133
4.85 235.833 74.359
4.86 234.590 74.382
4.87 233.842 74.205
4.88 233.688 73.830
4.89 233.250 73.333
4.90 233.148 72.920
4.91 232.975 72.707
4.92 232.764 72.645
4.93 232.842 72.588
4.94 233.160 72.495
4.95 233.383 72.344
4.96 233.346 72.049
4.97 232.392 71.462
4.98 230.452 70.331
4.99 226.998 68.268
5.00 219.052 64.953
5.01 212.821 60.260
5.02 219.514 53.915
5.03 --undefined-- 46.011
5.04 --undefined-- 40.296
5.05 --undefined-- 38.486
5.06 --undefined-- 40.316
5.07 --undefined-- 49.793
5.08 --undefined-- 56.776
5.09 --undefined-- 59.170
5.10 --undefined-- 57.366
5.11 --undefined-- 53.397
5.12 116.827 53.430
5.13 111.960 54.831
5.14 110.458 55.296
5.15 106.921 55.026
5.16 105.876 55.115
5.17 105.978 59.205
5.18 --undefined-- 65.755
5.19 224.874 69.579
5.20 205.268 70.748
5.21 192.905 70.490
5.22 186.197 70.109
5.23 182.793 69.997
5.24 180.342 70.016
5.25 178.166 70.145
5.26 176.714 70.178
5.27 175.690 69.527
5.28 178.554 --undefined--
5.29 172.288 --undefined--
5.30 --undefined-- --undefined--
5.31 --undefined-- --undefined--
