Time Pitch Intensity
0.01 --undefined-- --undefined--
0.02 154.405 --undefined--
0.03 151.119 --undefined--
0.04 149.811 --undefined--
0.05 150.064 76.864
0.06 151.220 76.543
0.07 151.829 76.191
0.08 152.788 75.728
0.09 152.719 74.814
0.10 147.994 72.929
0.11 146.998 70.014
0.12 147.857 66.218
0.13 151.261 61.220
0.14 153.454 57.021
0.15 --undefined-- 58.353
0.16 --undefined-- 65.094
0.17 160.650 72.555
0.18 157.499 77.130
0.19 148.545 79.092
0.20 143.504 79.356
0.21 138.041 78.583
0.22 130.587 77.389
0.23 128.691 77.037
0.24 126.209 77.245
0.25 120.324 76.201
0.26 114.359 73.266
0.27 112.319 69.068
0.28 112.390 65.447
0.29 110.625 63.582
0.30 112.261 62.737
0.31 112.309 62.720
0.32 118.976 64.564
0.33 127.516 68.825
0.34 130.267 73.631
0.35 135.120 77.159
0.36 137.707 78.916
0.37 138.665 79.224
0.38 138.455 78.245
0.39 137.679 75.708
0.40 127.748 72.195
0.41 131.314 70.254
0.42 131.409 71.157
0.43 127.634 73.046
0.44 119.337 73.647
0.45 111.478 72.849
0.46 104.362 71.712
0.47 100.057 70.883
0.48 98.509 70.088
0.49 97.591 69.260
0.50 96.901 68.654
0.51 95.404 67.485
0.52 92.492 65.024
0.53 92.496 61.660
0.54 92.122 57.951
0.55 --undefined-- 56.836
0.56 --undefined-- 62.945
0.57 120.904 68.905
0.58 120.185 72.628
0.59 119.539 74.489
0.60 118.550 75.254
0.61 118.487 75.622
0.62 118.458 75.878
0.63 118.428 76.083
0.64 118.741 76.342
0.65 116.885 76.344
0.66 114.896 75.618
0.67 115.807 74.706
0.68 119.886 74.754
0.69 123.249 75.312
0.70 126.795 75.824
0.71 130.570 76.331
0.72 132.284 76.803
0.73 137.270 77.474
0.74 140.485 78.090
0.75 138.767 78.179
0.76 136.284 78.070
0.77 134.777 78.158
0.78 132.052 78.480
0.79 131.582 78.817
0.80 130.714 78.903
0.81 129.852 78.747
0.82 129.604 78.644
0.83 130.007 78.568
0.84 129.839 77.883
0.85 126.269 76.245
0.86 122.276 74.781
0.87 115.696 74.111
0.88 113.378 73.788
0.89 114.616 74.178
0.90 116.657 74.818
0.91 116.457 74.952
0.92 115.037 74.398
0.93 112.883 73.654
0.94 112.774 73.214
0.95 112.830 72.537
0.96 113.128 71.241
0.97 116.978 69.944
0.98 121.556 69.522
0.99 123.580 69.855
1.00 124.649 70.640
1.01 124.925 71.488
1.02 123.801 71.642
1.03 120.953 70.203
1.04 119.069 66.875
1.05 121.913 62.613
1.06 124.871 58.667
1.07 --undefined-- 53.874
1.08 --undefined-- 47.734
1.09 --undefined-- 44.375
1.10 --undefined-- 47.564
1.11 --undefined-- 54.471
1.12 --undefined-- 59.536
1.13 --undefined-- 66.095
1.14 --undefined-- 71.919
1.15 118.791 75.039
1.16 118.103 76.177
1.17 114.664 76.271
1.18 112.075 76.017
1.19 111.358 75.862
1.20 111.046 75.799
1.21 111.552 75.728
1.22 111.948 75.596
1.23 112.873 75.259
1.24 110.381 74.688
1.25 109.127 74.308
1.26 106.756 74.160
1.27 105.481 73.600
1.28 102.083 71.965
1.29 102.731 69.020
1.30 108.786 65.249
1.31 105.029 60.718
1.32 --undefined-- 54.986
1.33 --undefined-- 50.637
1.34 --undefined-- 50.312
1.35 --undefined-- 58.262
1.36 --undefined-- 65.644
1.37 108.146 69.762
1.38 101.845 71.511
1.39 99.069 71.997
1.40 93.579 71.902
1.41 92.607 71.730
1.42 91.458 71.496
1.43 93.424 70.851
1.44 95.576 69.781
1.45 97.250 68.276
1.46 99.191 67.109
1.47 103.746 67.364
1.48 107.250 68.348
1.49 109.241 69.260
1.50 110.019 70.057
1.51 110.816 70.952
1.52 111.440 71.905
1.53 110.209 72.630
1.54 108.420 73.174
1.55 109.184 73.791
1.56 106.710 74.203
1.57 105.896 74.312
1.58 104.838 74.377
1.59 104.346 74.487
1.60 104.153 74.562
1.61 104.159 74.669
1.62 104.158 74.925
1.63 103.049 74.982
1.64 101.969 74.065
1.65 88.765 71.556
1.66 96.257 68.051
1.67 94.586 65.009
1.68 93.133 63.649
1.69 98.367 68.445
1.70 110.908 73.455
1.71 110.035 75.989
1.72 104.152 76.708
1.73 98.244 76.306
1.74 96.621 75.365
1.75 94.767 74.363
1.76 92.419 73.381
1.77 92.459 72.315
1.78 91.369 71.265
1.79 87.422 70.327
1.80 83.855 69.062
1.81 79.500 66.886
1.82 --undefined-- 63.630
1.83 --undefined-- 59.333
1.84 --undefined-- 53.518
1.85 --undefined-- 48.376
1.86 --undefined-- 46.960
1.87 --undefined-- 44.232
1.88 --undefined-- 40.705
1.89 --undefined-- 38.266
1.90 --undefined-- 38.299
1.91 --undefined-- 37.712
1.92 --undefined-- 36.227
1.93 --undefined-- 36.211
1.94 --undefined-- 37.482
1.95 --undefined-- 37.914
1.96 --undefined-- 36.930
1.97 --undefined-- 35.917
1.98 --undefined-- 36.496
1.99 --undefined-- 37.236
2.00 --undefined-- 36.907
2.01 --undefined-- 35.998
2.02 --undefined-- 34.572
2.03 --undefined-- 33.787
2.04 --undefined-- 34.194
2.05 --undefined-- 35.780
2.06 --undefined-- 38.586
2.07 --undefined-- 39.332
2.08 --undefined-- 37.076
2.09 --undefined-- 34.278
2.10 --undefined-- 34.479
2.11 --undefined-- 35.724
2.12 --undefined-- 37.961
2.13 --undefined-- 48.088
2.14 --undefined-- 61.162
2.15 209.651 68.971
2.16 203.619 72.596
2.17 193.790 74.189
2.18 161.667 76.027
2.19 169.934 77.711
2.20 174.925 78.840
2.21 172.465 79.306
2.22 161.682 79.094
2.23 152.165 78.669
2.24 150.741 78.587
2.25 150.613 78.722
2.26 149.078 78.726
2.27 147.621 78.681
2.28 147.180 78.742
2.29 144.892 78.821
2.30 142.854 78.834
2.31 136.497 78.737
2.32 130.361 78.608
2.33 127.875 78.736
2.34 126.246 78.821
2.35 122.357 78.553
2.36 123.092 78.171
2.37 118.937 77.775
2.38 115.878 77.615
2.39 113.444 77.653
2.40 111.439 77.575
2.41 111.660 77.292
2.42 110.368 76.868
2.43 109.404 76.381
2.44 106.967 75.750
2.45 107.303 75.033
2.46 104.937 74.344
2.47 103.450 73.483
2.48 98.123 72.223
2.49 100.789 70.701
2.50 98.517 70.041
2.51 106.778 71.134
2.52 115.954 73.453
2.53 105.393 75.852
2.54 106.875 76.967
2.55 109.341 76.307
2.56 110.944 73.862
2.57 112.121 70.474
2.58 124.574 67.937
2.59 148.384 66.286
2.60 159.692 66.883
2.61 187.913 71.698
2.62 192.460 76.056
2.63 192.675 78.503
2.64 195.307 79.492
2.65 197.083 79.576
2.66 197.578 78.890
2.67 197.099 77.039
2.68 191.946 73.617
2.69 189.502 68.624
2.70 191.324 62.618
2.71 --undefined-- 62.110
2.72 --undefined-- 65.063
2.73 --undefined-- 69.529
2.74 --undefined-- 75.425
2.75 179.038 78.707
2.76 171.484 79.759
2.77 163.159 79.919
2.78 154.687 79.644
2.79 147.900 78.827
2.80 145.188 78.080
2.81 145.693 78.013
2.82 149.307 78.359
2.83 155.703 78.639
2.84 163.405 79.099
2.85 167.877 79.472
2.86 173.074 78.836
2.87 182.580 77.005
2.88 184.334 74.769
2.89 178.388 72.293
2.90 165.249 68.980
2.91 168.053 65.349
2.92 167.627 62.661
2.93 --undefined-- 62.526
2.94 --undefined-- 64.317
2.95 --undefined-- 69.605
2.96 139.671 73.678
2.97 127.440 75.587
2.98 117.341 76.258
2.99 109.298 76.423
3.00 103.539 76.308
3.01 102.417 75.967
3.02 102.185 75.028
3.03 101.478 72.873
3.04 103.278 69.100
3.05 103.843 63.683
3.06 --undefined-- 57.505
3.07 --undefined-- 54.543
3.08 --undefined-- 57.032
3.09 --undefined-- 65.813
3.10 --undefined-- 72.955
3.11 --undefined-- 76.507
3.12 --undefined-- 76.814
3.13 --undefined-- 74.466
3.14 --undefined-- 72.011
3.15 --undefined-- 71.174
3.16 --undefined-- 67.965
3.17 --undefined-- 60.999
3.18 --undefined-- 53.217
3.19 --undefined-- 56.054
3.20 --undefined-- 67.251
3.21 --undefined-- 73.735
3.22 118.282 76.487
3.23 129.503 77.012
3.24 125.353 76.866
3.25 124.548 76.790
3.26 125.435 76.692
3.27 126.574 76.426
3.28 127.992 76.241
3.29 130.362 76.478
3.30 132.930 76.960
3.31 135.069 77.420
3.32 137.556 77.706
3.33 139.618 77.636
3.34 142.338 77.381
3.35 146.150 77.178
3.36 149.286 77.038
3.37 151.210 77.153
3.38 152.185 77.575
3.39 157.079 78.280
3.40 156.213 78.774
3.41 155.301 78.645
3.42 155.534 78.316
3.43 155.927 78.259
3.44 155.805 78.307
3.45 155.724 78.314
3.46 156.109 78.319
3.47 156.149 78.047
3.48 155.824 77.623
3.49 155.821 77.623
3.50 156.061 78.083
3.51 156.575 78.462
3.52 157.210 78.296
3.53 159.397 77.856
3.54 162.204 77.864
3.55 164.255 78.142
3.56 164.582 78.071
3.57 162.310 77.454
3.58 157.000 77.259
3.59 158.580 78.138
3.60 157.295 78.932
3.61 155.340 79.226
3.62 151.738 79.141
3.63 148.036 78.800
3.64 144.104 78.169
3.65 139.398 77.328
3.66 134.329 76.733
3.67 129.952 76.571
3.68 125.438 76.554
3.69 121.499 76.524
3.70 118.633 76.370
3.71 115.388 75.902
3.72 109.694 75.473
3.73 103.804 75.469
3.74 100.018 75.419
3.75 97.951 75.185
3.76 96.823 75.695
3.77 97.820 77.071
3.78 99.228 78.147
3.79 98.913 78.301
3.80 99.498 77.643
3.81 102.005 76.804
3.82 105.013 76.414
3.83 106.092 76.177
3.84 106.300 75.588
3.85 107.252 74.901
3.86 108.970 74.583
3.87 111.423 74.575
3.88 114.232 74.723
3.89 118.824 75.219
3.90 121.770 76.053
3.91 124.610 76.896
3.92 126.040 77.380
3.93 128.672 77.457
3.94 132.103 77.344
3.95 134.227 77.301
3.96 138.679 77.790
3.97 138.411 78.553
3.98 137.921 78.764
3.99 138.752 78.418
4.00 139.370 77.846
4.01 140.012 77.367
4.02 140.821 77.234
4.03 140.577 76.959
4.04 138.049 75.343
4.05 134.166 71.342
4.06 139.648 64.674
4.07 141.126 57.368
4.08 140.035 55.287
4.09 --undefined-- 58.751
4.10 --undefined-- 62.115
4.11 --undefined-- 64.005
4.12 --undefined-- 65.191
4.13 --undefined-- 69.842
4.14 146.621 75.141
4.15 141.729 77.781
4.16 133.762 78.409
4.17 127.367 78.353
4.18 124.951 78.538
4.19 123.611 78.751
4.20 121.905 78.659
4.21 119.914 78.301
4.22 119.170 77.860
4.23 118.437 77.473
4.24 118.221 77.124
4.25 118.171 76.814
4.26 119.246 76.523
4.27 120.222 75.809
4.28 120.103 74.003
4.29 114.290 70.772
4.30 105.635 67.031
4.31 111.585 63.589
4.32 118.036 59.860
4.33 117.620 56.542
4.34 --undefined-- 53.960
4.35 --undefined-- 51.508
4.36 --undefined-- 53.673
4.37 --undefined-- 63.743
4.38 --undefined-- 71.613
4.39 161.322 76.078
4.40 152.451 77.560
4.41 145.761 76.956
4.42 136.261 75.078
4.43 132.363 72.456
4.44 130.223 69.752
4.45 128.870 67.485
4.46 127.486 65.439
4.47 127.256 63.856
4.48 125.061 64.439
4.49 128.014 67.711
4.50 128.735 71.353
4.51 130.592 74.244
4.52 132.396 76.257
4.53 135.072 77.400
4.54 136.350 77.444
4.55 135.883 76.503
4.56 135.032 76.067
4.57 139.782 76.899
4.58 140.022 77.536
4.59 139.414 77.555
4.60 139.153 77.203
4.61 139.327 76.728
4.62 139.093 76.131
4.63 136.469 74.887
4.64 131.422 72.201
4.65 130.232 67.795
4.66 129.806 62.052
4.67 --undefined-- 57.446
4.68 --undefined-- 57.223
4.69 --undefined-- 59.853
4.70 --undefined-- 67.127
4.71 163.282 73.456
4.72 157.531 76.661
4.73 148.977 77.515
4.74 144.283 77.182
4.75 141.123 76.128
4.76 135.820 74.920
4.77 139.052 75.030
4.78 139.935 75.717
4.79 139.318 76.089
4.80 138.960 76.024
4.81 137.422 75.335
4.82 134.393 73.734
4.83 127.458 70.776
4.84 --undefined-- 66.488
4.85 --undefined-- 63.208
4.86 --undefined-- 64.400
4.87 --undefined-- 65.821
4.88 --undefined-- 64.744
4.89 --undefined-- 64.126
4.90 135.623 69.070
4.91 123.241 72.700
4.92 115.614 74.403
4.93 96.916 75.158
4.94 83.941 75.124
4.95 82.029 74.478
4.96 79.266 73.512
4.97 81.228 72.579
4.98 84.938 71.879
4.99 89.064 71.524
5.00 94.332 71.289
5.01 94.663 70.478
5.02 92.060 68.789
5.03 91.245 66.595
5.04 92.359 64.901
5.05 109.520 65.131
5.06 114.489 67.982
5.07 115.894 71.509
5.08 116.386 74.357
5.09 116.097 76.281
5.10 115.329 77.311
5.11 112.605 77.473
5.12 111.638 77.415
5.13 113.753 77.582
5.14 115.080 77.667
5.15 116.551 77.347
5.16 120.583 76.414
5.17 123.989 74.957
5.18 128.757 73.071
5.19 130.010 71.722
5.20 139.307 73.085
5.21 137.768 75.028
5.22 137.584 75.663
5.23 138.362 75.309
5.24 138.937 74.463
5.25 137.777 72.944
5.26 134.290 --undefined--
5.27 135.042 --undefined--
5.28 --undefined-- --undefined--
5.29 --undefined-- --undefined--
