Time Pitch Intensity
0.01 --undefined-- --undefined--
0.02 149.621 --undefined--
0.03 146.033 --undefined--
0.04 142.788 --undefined--
0.05 140.559 68.554
0.06 139.387 68.304
0.07 132.481 67.952
0.08 128.997 67.555
0.09 126.017 67.098
0.10 122.887 66.805
0.11 127.217 66.827
0.12 127.086 66.539
0.13 125.543 65.967
0.14 123.669 65.461
0.15 127.561 65.534
0.16 124.297 66.506
0.17 123.520 67.260
0.18 120.897 66.950
0.19 119.268 65.934
0.20 117.193 64.866
0.21 112.951 64.385
0.22 111.179 64.807
0.23 110.863 65.526
0.24 110.689 66.006
0.25 110.294 66.154
0.26 110.684 66.100
0.27 111.416 65.738
0.28 112.125 64.824
0.29 111.293 63.390
0.30 107.572 61.176
0.31 102.234 57.917
0.32 --undefined-- 54.014
0.33 --undefined-- 51.133
0.34 --undefined-- 53.756
0.35 --undefined-- 59.343
0.36 126.389 63.013
0.37 121.397 64.797
0.38 118.888 65.420
0.39 117.536 65.361
0.40 115.541 64.879
0.41 114.305 64.432
0.42 114.221 64.151
0.43 114.646 63.759
0.44 115.286 63.230
0.45 116.092 62.676
0.46 116.732 62.136
0.47 117.190 61.703
0.48 117.763 61.594
0.49 117.827 62.039
0.50 118.815 62.959
0.51 119.538 64.165
0.52 119.503 65.476
0.53 118.392 66.566
0.54 117.570 67.109
0.55 116.726 67.100
0.56 116.671 66.759
0.57 116.854 66.142
0.58 117.603 65.400
0.59 117.837 64.893
0.60 118.215 64.620
0.61 117.498 64.313
0.62 116.987 64.035
0.63 115.747 63.981
0.64 114.795 64.268
0.65 114.254 64.706
0.66 113.633 64.933
0.67 113.594 64.944
0.68 109.835 65.049
0.69 105.227 65.599
0.70 102.523 66.197
0.71 101.809 66.289
0.72 102.112 66.007
0.73 104.561 65.704
0.74 109.405 65.645
0.75 118.522 66.016
0.76 124.038 66.723
0.77 128.516 67.332
0.78 134.601 67.700
0.79 138.989 67.536
0.80 140.409 66.218
0.81 137.473 63.397
0.82 139.669 59.240
0.83 146.744 54.312
0.84 --undefined-- 49.600
0.85 --undefined-- 47.609
0.86 --undefined-- 47.962
0.87 --undefined-- 54.797
0.88 177.196 61.492
0.89 150.339 65.393
0.90 143.938 67.089
0.91 121.870 67.229
0.92 116.911 66.199
0.93 101.828 64.591
0.94 97.170 62.753
0.95 87.662 61.136
0.96 81.748 60.268
0.97 77.096 59.664
0.98 76.395 59.248
0.99 77.019 59.314
1.00 81.094 59.479
1.01 84.817 59.380
1.02 88.454 59.859
1.03 95.690 60.900
1.04 100.279 61.784
1.05 104.375 62.771
1.06 108.272 63.981
1.07 110.704 64.908
1.08 114.129 65.611
1.09 119.072 66.427
1.10 117.550 67.100
1.11 116.843 67.473
1.12 116.791 67.545
1.13 115.811 67.509
1.14 114.317 67.489
1.15 111.934 67.461
1.16 110.437 67.311
1.17 109.806 67.001
1.18 109.354 66.881
1.19 109.175 66.928
1.20 109.354 66.654
1.21 109.806 66.083
1.22 111.236 65.550
1.23 113.012 65.104
1.24 114.612 64.572
1.25 114.735 63.857
1.26 109.931 63.085
1.27 112.298 62.812
1.28 115.910 63.138
1.29 118.251 63.661
1.30 116.781 63.856
1.31 116.419 63.632
1.32 116.596 63.612
1.33 114.067 63.862
1.34 113.629 64.002
1.35 113.711 63.917
1.36 114.039 63.646
1.37 114.432 63.395
1.38 113.609 63.531
1.39 110.621 63.701
1.40 110.211 63.726
1.41 110.082 63.733
1.42 110.611 63.885
1.43 116.932 64.575
1.44 118.725 65.437
1.45 121.945 66.068
1.46 125.316 66.809
1.47 132.159 68.051
1.48 133.233 69.174
1.49 135.060 69.678
1.50 136.826 69.853
1.51 138.202 69.794
1.52 138.698 69.177
1.53 138.297 67.762
1.54 137.110 65.402
1.55 136.458 61.816
1.56 160.120 57.144
1.57 161.428 52.466
1.58 138.284 48.706
1.59 138.886 46.210
1.60 --undefined-- 45.092
1.61 --undefined-- 43.753
1.62 --undefined-- 42.306
1.63 --undefined-- 41.897
1.64 --undefined-- 42.867
1.65 --undefined-- 44.075
1.66 --undefined-- 44.858
1.67 --undefined-- 45.304
1.68 --undefined-- 45.686
1.69 --undefined-- 46.126
1.70 --undefined-- 46.253
1.71 --undefined-- 45.856
1.72 --undefined-- 45.439
1.73 --undefined-- 45.134
1.74 --undefined-- 44.469
1.75 --undefined-- 43.557
1.76 --undefined-- 42.487
1.77 --undefined-- 40.700
1.78 --undefined-- 38.418
1.79 --undefined-- 36.276
1.80 --undefined-- 34.092
1.81 --undefined-- 32.249
1.82 --undefined-- 31.578
1.83 --undefined-- 31.141
1.84 --undefined-- 30.678
1.85 --undefined-- 30.395
1.86 --undefined-- 30.818
1.87 --undefined-- 32.027
1.88 --undefined-- 32.581
1.89 --undefined-- 37.140
1.90 --undefined-- 46.026
1.91 --undefined-- 55.045
1.92 --undefined-- 61.155
1.93 114.007 64.365
1.94 113.908 65.429
1.95 102.375 65.336
1.96 101.206 65.008
1.97 101.059 64.851
1.98 101.288 64.821
1.99 105.504 64.840
2.00 109.427 64.806
2.01 113.522 64.414
2.02 114.283 63.036
2.03 113.023 60.018
2.04 105.508 55.249
2.05 101.789 49.719
2.06 --undefined-- 46.515
2.07 --undefined-- 45.848
2.08 --undefined-- 47.443
2.09 --undefined-- 55.628
2.10 --undefined-- 62.583
2.11 158.549 66.681
2.12 153.197 68.690
2.13 151.658 69.437
2.14 142.103 69.413
2.15 140.932 68.990
2.16 141.567 68.581
2.17 144.238 68.275
2.18 147.884 67.627
2.19 150.810 66.911
2.20 154.313 66.863
2.21 154.237 67.152
2.22 154.117 67.410
2.23 152.724 67.799
2.24 147.074 68.390
2.25 142.489 68.995
2.26 138.891 69.096
2.27 133.575 68.789
2.28 131.736 68.667
2.29 132.052 68.605
2.30 133.718 68.157
2.31 136.457 67.187
2.32 138.137 65.620
2.33 138.063 63.428
2.34 137.498 60.441
2.35 142.076 56.687
2.36 159.740 53.613
2.37 157.146 51.419
2.38 --undefined-- 48.164
2.39 --undefined-- 49.266
2.40 --undefined-- 58.147
2.41 149.608 63.986
2.42 141.231 66.652
2.43 131.539 67.386
2.44 125.494 67.911
2.45 121.404 68.455
2.46 121.437 68.707
2.47 122.455 68.946
2.48 127.367 68.919
2.49 132.370 68.800
2.50 137.600 68.448
2.51 137.862 66.876
2.52 135.266 63.486
2.53 134.568 58.399
2.54 --undefined-- 52.730
2.55 --undefined-- 48.358
2.56 --undefined-- 45.900
2.57 --undefined-- 44.205
2.58 --undefined-- 42.395
2.59 --undefined-- 42.069
2.60 --undefined-- 43.088
2.61 --undefined-- 44.001
2.62 --undefined-- 44.883
2.63 --undefined-- 46.008
2.64 --undefined-- 47.847
2.65 --undefined-- 53.003
2.66 --undefined-- 57.788
2.67 --undefined-- 60.369
2.68 95.684 61.228
2.69 88.755 61.195
2.70 85.651 60.945
2.71 84.034 60.595
2.72 84.173 60.311
2.73 88.132 60.589
2.74 95.732 61.313
2.75 103.869 62.391
2.76 109.188 63.702
2.77 116.588 64.869
2.78 122.576 65.838
2.79 123.667 66.626
2.80 125.418 67.061
2.81 126.639 67.367
2.82 127.131 67.832
2.83 127.775 68.309
2.84 127.979 68.511
2.85 127.338 67.995
2.86 123.363 66.024
2.87 123.153 62.107
2.88 104.337 56.669
2.89 126.627 51.186
2.90 126.029 47.042
2.91 126.428 44.195
2.92 --undefined-- 41.160
2.93 --undefined-- 38.760
2.94 --undefined-- 43.042
2.95 --undefined-- 53.699
2.96 --undefined-- 61.379
2.97 177.818 65.840
2.98 164.255 68.102
2.99 158.725 69.063
3.00 155.830 69.366
3.01 157.078 69.374
3.02 156.536 69.268
3.03 154.442 69.117
3.04 153.473 68.840
3.05 151.081 68.413
3.06 145.243 67.770
3.07 140.088 66.917
3.08 137.395 66.001
3.09 135.578 65.083
3.10 133.915 64.098
3.11 132.107 63.348
3.12 131.549 63.172
3.13 128.601 63.079
3.14 123.726 62.692
3.15 119.702 62.428
3.16 118.329 62.798
3.17 117.610 63.576
3.18 116.066 64.365
3.19 114.511 64.963
3.20 111.355 65.176
3.21 109.357 65.086
3.22 109.699 65.095
3.23 111.393 65.385
3.24 111.530 65.590
3.25 114.743 65.364
3.26 116.256 64.632
3.27 116.759 63.212
3.28 115.275 61.200
3.29 112.108 59.370
3.30 116.161 59.239
3.31 128.209 60.969
3.32 133.162 63.125
3.33 128.286 64.706
3.34 114.704 65.159
3.35 110.955 64.403
3.36 106.705 62.980
3.37 103.423 61.875
3.38 101.037 61.335
3.39 99.881 60.860
3.40 99.495 60.172
3.41 98.128 59.454
3.42 98.864 59.939
3.43 106.569 61.369
3.44 110.218 62.554
3.45 113.635 63.425
3.46 116.131 64.054
3.47 118.032 64.197
3.48 118.892 63.726
3.49 118.168 63.031
3.50 118.496 62.681
3.51 118.808 62.848
3.52 111.209 63.527
3.53 107.477 64.059
3.54 103.808 64.087
3.55 99.750 64.092
3.56 98.690 64.474
3.57 97.372 64.716
3.58 98.428 64.387
3.59 100.820 64.006
3.60 103.331 64.216
3.61 105.941 64.475
3.62 106.008 64.461
3.63 109.475 64.332
3.64 115.308 64.105
3.65 116.990 63.580
3.66 114.540 62.013
3.67 108.584 58.781
3.68 --undefined-- 54.445
3.69 --undefined-- 50.926
3.70 --undefined-- 48.342
3.71 --undefined-- 44.779
3.72 --undefined-- 42.052
3.73 --undefined-- 47.259
3.74 --undefined-- 55.933
3.75 --undefined-- 62.767
3.76 161.886 67.124
3.77 160.106 69.467
3.78 159.670 70.671
3.79 158.476 71.553
3.80 157.105 72.054
3.81 154.714 71.765
3.82 147.745 70.454
3.83 147.438 68.205
3.84 118.930 65.242
3.85 118.323 61.116
3.86 118.964 55.531
3.87 --undefined-- 49.940
3.88 --undefined-- 46.388
3.89 --undefined-- 43.741
3.90 --undefined-- 40.968
3.91 --undefined-- 39.421
3.92 --undefined-- 39.273
3.93 --undefined-- 39.705
3.94 --undefined-- 40.495
3.95 --undefined-- 41.146
3.96 --undefined-- 41.021
3.97 --undefined-- 39.752
3.98 --undefined-- 38.216
3.99 --undefined-- 37.283
4.00 --undefined-- 36.673
4.01 --undefined-- 35.758
4.02 --undefined-- 34.366
4.03 --undefined-- 33.471
4.04 --undefined-- 33.145
4.05 --undefined-- 31.399
4.06 --undefined-- 30.156
4.07 --undefined-- 37.917
4.08 --undefined-- 49.076
4.09 --undefined-- 56.645
4.10 139.644 61.280
4.11 138.520 64.127
4.12 137.835 66.279
4.13 139.134 67.769
4.14 135.025 68.303
4.15 128.393 68.332
4.16 123.517 68.483
4.17 118.143 68.200
4.18 --undefined-- 66.686
4.19 --undefined-- 64.067
4.20 --undefined-- 60.994
4.21 --undefined-- 56.527
4.22 --undefined-- 50.920
4.23 --undefined-- 47.324
4.24 --undefined-- 44.298
4.25 --undefined-- 41.131
4.26 --undefined-- 38.317
4.27 --undefined-- 37.237
4.28 --undefined-- 36.332
4.29 --undefined-- 34.357
4.30 --undefined-- 43.319
4.31 --undefined-- 55.120
4.32 --undefined-- 61.807
4.33 122.379 65.060
4.34 121.688 66.328
4.35 120.853 66.923
4.36 119.329 67.282
4.37 117.122 67.297
4.38 115.508 66.813
4.39 111.416 65.794
4.40 104.849 64.814
4.41 101.026 64.634
4.42 97.399 64.527
4.43 93.912 63.811
4.44 90.587 62.907
4.45 88.693 62.471
4.46 89.306 62.814
4.47 90.438 63.412
4.48 91.649 63.730
4.49 93.240 63.500
4.50 95.584 62.818
4.51 98.851 62.255
4.52 102.722 62.415
4.53 105.332 63.000
4.54 107.553 63.531
4.55 109.797 63.975
4.56 112.130 64.965
4.57 114.966 66.197
4.58 116.720 66.789
4.59 118.298 67.012
4.60 120.099 67.718
4.61 121.255 68.570
4.62 121.395 68.919
4.63 123.031 68.755
4.64 123.936 68.330
4.65 124.958 68.028
4.66 126.520 68.019
4.67 128.381 68.094
4.68 129.308 68.228
4.69 128.294 68.418
4.70 128.432 68.336
4.71 128.143 68.031
4.72 127.807 67.743
4.73 126.736 67.595
4.74 125.279 67.453
4.75 124.197 67.174
4.76 123.477 66.690
4.77 123.010 65.929
4.78 122.480 64.682
4.79 121.799 62.984
4.80 116.880 61.379
4.81 122.517 60.953
4.82 126.447 61.442
4.83 129.868 61.972
4.84 133.796 62.571
4.85 134.768 63.077
4.86 134.254 63.329
4.87 132.654 63.412
4.88 128.638 63.255
4.89 124.634 62.904
4.90 118.846 62.839
4.91 114.952 63.644
4.92 101.336 64.853
4.93 101.547 65.465
4.94 94.865 65.101
4.95 93.691 64.030
4.96 92.262 62.485
4.97 91.204 60.836
4.98 91.788 59.791
4.99 93.373 59.413
5.00 93.109 59.323
5.01 91.761 59.490
5.02 90.744 59.808
5.03 90.265 60.294
5.04 90.334 60.837
5.05 91.096 61.267
5.06 93.099 61.658
5.07 95.094 62.064
5.08 96.468 62.554
5.09 97.387 63.058
5.10 97.996 63.480
5.11 99.673 63.790
5.12 101.107 63.958
5.13 101.930 63.834
5.14 102.269 63.317
5.15 102.472 62.942
5.16 105.087 63.420
5.17 101.871 63.933
5.18 99.784 63.741
5.19 93.658 62.971
5.20 87.890 61.672
5.21 85.616 60.532
5.22 85.856 60.268
5.23 87.666 60.191
5.24 87.531 59.972
5.25 87.336 59.911
5.26 88.494 59.726
5.27 92.085 59.182
5.28 96.806 59.073
5.29 99.512 60.080
5.30 101.511 61.501
5.31 104.536 62.901
5.32 108.998 64.243
5.33 114.304 65.407
5.34 119.255 66.153
5.35 122.535 66.505
5.36 124.355 66.941
5.37 125.714 67.681
5.38 125.117 68.298
5.39 124.497 68.618
5.40 123.256 68.669
5.41 121.807 --undefined--
5.42 120.035 --undefined--
5.43 --undefined-- --undefined--
5.44 --undefined-- --undefined--
