Time Pitch Intensity
0.01 --undefined-- --undefined--
0.02 --undefined-- --undefined--
0.03 --undefined-- --undefined--
0.04 --undefined-- --undefined--
0.05 --undefined-- 54.770
0.06 --undefined-- 55.061
0.07 --undefined-- 59.574
0.08 --undefined-- 64.998
0.09 111.127 67.964
0.10 107.218 69.272
0.11 105.725 70.101
0.12 106.852 71.133
0.13 109.812 72.110
0.14 110.702 72.492
0.15 112.939 72.108
0.16 114.722 71.514
0.17 118.847 71.909
0.18 123.359 73.321
0.19 127.884 74.427
0.20 132.247 74.870
0.21 136.858 75.227
0.22 142.375 75.909
0.23 145.567 76.261
0.24 147.443 75.214
0.25 149.421 72.014
0.26 150.444 66.056
0.27 --undefined-- 57.523
0.28 --undefined-- 50.300
0.29 --undefined-- 46.734
0.30 --undefined-- 43.289
0.31 --undefined-- 41.988
0.32 --undefined-- 46.872
0.33 --undefined-- 52.985
0.34 --undefined-- 57.422
0.35 --undefined-- 60.566
0.36 --undefined-- 62.375
0.37 --undefined-- 62.178
0.38 --undefined-- 59.648
0.39 --undefined-- 55.775
0.40 --undefined-- 54.415
0.41 114.133 55.156
0.42 109.995 54.708
0.43 107.190 52.783
0.44 --undefined-- 49.654
0.45 --undefined-- 45.973
0.46 --undefined-- 43.726
0.47 --undefined-- 46.183
0.48 --undefined-- 49.986
0.49 --undefined-- 55.908
0.50 --undefined-- 63.977
0.51 --undefined-- 68.952
0.52 --undefined-- 71.142
0.53 --undefined-- 71.704
0.54 --undefined-- 71.968
0.55 114.669 72.716
0.56 116.110 73.147
0.57 118.597 72.587
0.58 121.354 70.803
0.59 122.216 67.391
0.60 117.934 62.252
0.61 --undefined-- 55.935
0.62 --undefined-- 49.158
0.63 --undefined-- 43.405
0.64 --undefined-- 39.759
0.65 --undefined-- 42.335
0.66 --undefined-- 51.613
0.67 --undefined-- 58.588
0.68 --undefined-- 61.592
0.69 106.265 61.895
0.70 102.770 61.503
0.71 101.059 60.682
0.72 100.135 58.412
0.73 --undefined-- 54.811
0.74 --undefined-- 51.278
0.75 --undefined-- 50.363
0.76 --undefined-- 50.750
0.77 --undefined-- 49.931
0.78 --undefined-- 49.797
0.79 127.413 52.237
0.80 124.018 54.282
0.81 126.083 54.833
0.82 125.295 53.965
0.83 123.508 51.539
0.84 --undefined-- 46.858
0.85 --undefined-- 40.889
0.86 --undefined-- 38.064
0.87 --undefined-- 38.450
0.88 --undefined-- 40.802
0.89 --undefined-- 42.866
0.90 --undefined-- 43.966
0.91 --undefined-- 44.027
0.92 --undefined-- 43.345
0.93 --undefined-- 43.123
0.94 --undefined-- 47.900
0.95 --undefined-- 57.709
0.96 --undefined-- 64.210
0.97 --undefined-- 67.419
0.98 142.914 68.952
0.99 134.343 70.411
1.00 132.549 71.836
1.01 131.947 72.851
1.02 131.360 73.379
1.03 130.958 73.225
1.04 130.135 72.238
1.05 130.077 70.233
1.06 131.724 66.997
1.07 131.710 62.536
1.08 125.927 56.918
1.09 --undefined-- 56.504
1.10 131.592 64.163
1.11 129.795 69.010
1.12 126.913 70.376
1.13 122.297 68.411
1.14 117.637 63.468
1.15 117.687 57.769
1.16 119.379 56.289
1.17 120.633 57.813
1.18 122.141 61.342
1.19 120.628 64.783
1.20 119.183 66.876
1.21 118.208 67.661
1.22 116.779 67.292
1.23 115.896 66.394
1.24 117.396 66.111
1.25 118.724 66.614
1.26 119.630 66.825
1.27 120.724 65.836
1.28 120.210 62.905
1.29 116.440 57.460
1.30 --undefined-- 49.961
1.31 --undefined-- 43.839
1.32 --undefined-- 39.944
1.33 --undefined-- 37.457
1.34 --undefined-- 36.807
1.35 --undefined-- 42.983
1.36 --undefined-- 57.203
1.37 --undefined-- 66.579
1.38 --undefined-- 71.587
1.39 --undefined-- 73.384
1.40 130.079 73.379
1.41 128.176 72.877
1.42 127.146 72.099
1.43 126.253 70.991
1.44 126.332 69.147
1.45 124.440 65.301
1.46 --undefined-- 58.625
1.47 --undefined-- 50.265
1.48 --undefined-- 43.675
1.49 --undefined-- 41.005
1.50 --undefined-- 42.191
1.51 --undefined-- 44.484
1.52 --undefined-- 46.187
1.53 --undefined-- 48.625
1.54 --undefined-- 59.434
1.55 --undefined-- 67.812
1.56 136.879 72.408
1.57 133.839 74.497
1.58 131.692 74.906
1.59 128.124 73.880
1.60 124.813 71.819
1.61 122.447 69.117
1.62 121.019 65.765
1.63 --undefined-- 61.799
1.64 --undefined-- 56.474
1.65 --undefined-- 51.177
1.66 --undefined-- 49.649
1.67 --undefined-- 54.088
1.68 --undefined-- 60.410
1.69 --undefined-- 65.124
1.70 --undefined-- 67.555
1.71 114.894 68.071
1.72 114.881 67.300
1.73 109.173 65.801
1.74 105.532 64.780
1.75 99.636 64.247
1.76 99.605 63.328
1.77 98.887 61.904
1.78 98.185 59.616
1.79 --undefined-- 56.792
1.80 --undefined-- 56.173
1.81 --undefined-- 58.266
1.82 98.988 60.996
1.83 98.813 62.658
1.84 98.778 62.391
1.85 --undefined-- 60.637
1.86 --undefined-- 59.747
1.87 97.787 60.166
1.88 97.727 61.043
1.89 99.322 61.732
1.90 99.379 61.872
1.91 100.534 62.343
1.92 101.789 62.971
1.93 101.717 62.701
1.94 --undefined-- 60.856
1.95 --undefined-- 57.083
1.96 --undefined-- 51.586
1.97 --undefined-- 44.963
1.98 --undefined-- 38.951
1.99 --undefined-- 38.648
2.00 --undefined-- 45.194
2.01 --undefined-- 54.926
2.02 --undefined-- 62.504
2.03 --undefined-- 66.888
2.04 --undefined-- 69.200
2.05 --undefined-- 70.507
2.06 --undefined-- 70.766
2.07 98.367 69.834
2.08 --undefined-- 67.802
2.09 --undefined-- 64.718
2.10 100.425 62.175
2.11 102.138 62.005
2.12 103.975 62.467
2.13 --undefined-- 61.379
2.14 --undefined-- 57.725
2.15 --undefined-- 51.696
2.16 --undefined-- 45.961
2.17 --undefined-- 41.978
2.18 --undefined-- 38.353
2.19 --undefined-- 36.620
2.20 --undefined-- 37.682
2.21 --undefined-- 40.707
2.22 --undefined-- 42.645
2.23 --undefined-- 42.893
2.24 --undefined-- 42.276
2.25 --undefined-- 43.618
2.26 --undefined-- 51.505
2.27 --undefined-- 58.603
2.28 129.349 62.745
2.29 122.787 64.501
2.30 118.253 64.595
2.31 114.557 64.005
2.32 111.196 63.605
2.33 107.900 63.375
2.34 107.472 62.998
2.35 109.015 62.261
2.36 106.850 61.836
2.37 106.203 62.241
2.38 106.032 62.355
2.39 105.331 61.550
2.40 103.167 60.083
2.41 102.808 57.521
2.42 --undefined-- 52.708
2.43 --undefined-- 45.612
2.44 --undefined-- 41.500
2.45 --undefined-- 40.769
2.46 --undefined-- 38.971
2.47 --undefined-- 35.339
2.48 --undefined-- 33.701
2.49 --undefined-- 34.416
2.50 --undefined-- 35.608
2.51 --undefined-- 35.697
2.52 --undefined-- 33.646
2.53 --undefined-- 31.577
2.54 --undefined-- 33.127
2.55 --undefined-- 34.582
2.56 --undefined-- 33.846
2.57 --undefined-- 31.767
2.58 --undefined-- 33.898
2.59 --undefined-- 49.209
2.60 --undefined-- 62.330
2.61 147.875 70.747
2.62 145.258 75.478
2.63 142.197 77.429
2.64 140.944 77.264
2.65 141.176 75.149
2.66 141.533 71.285
2.67 143.205 67.541
2.68 145.647 66.086
2.69 148.285 66.137
2.70 149.535 66.660
2.71 149.223 66.816
2.72 149.925 66.705
2.73 149.119 66.867
2.74 148.852 67.739
2.75 149.095 70.106
2.76 146.224 72.770
2.77 144.927 74.458
2.78 144.858 75.082
2.79 145.237 75.331
2.80 144.928 75.715
2.81 145.056 75.925
2.82 144.178 75.845
2.83 144.631 75.653
2.84 144.888 75.392
2.85 146.135 75.040
2.86 148.024 74.813
2.87 149.657 74.831
2.88 150.785 75.209
2.89 152.788 75.440
2.90 154.628 75.169
2.91 154.933 74.532
2.92 154.732 73.260
2.93 153.874 70.990
2.94 154.374 67.613
2.95 155.233 63.477
2.96 154.895 58.830
2.97 --undefined-- 53.617
2.98 --undefined-- 48.868
2.99 --undefined-- 45.948
3.00 --undefined-- 43.748
3.01 --undefined-- 41.487
3.02 --undefined-- 39.804
3.03 --undefined-- 41.316
3.04 --undefined-- 44.044
3.05 --undefined-- 46.330
3.06 --undefined-- 55.173
3.07 --undefined-- 65.376
3.08 --undefined-- 71.592
3.09 164.466 74.729
3.10 162.464 75.730
3.11 162.638 75.338
3.12 162.083 74.315
3.13 163.729 73.374
3.14 167.003 72.696
3.15 171.742 71.783
3.16 172.600 70.067
3.17 173.922 67.190
3.18 176.473 63.860
3.19 177.804 62.093
3.20 176.178 60.987
3.21 173.493 58.685
3.22 168.318 54.456
3.23 --undefined-- 54.845
3.24 --undefined-- 65.922
3.25 --undefined-- 72.754
3.26 163.301 75.679
3.27 163.735 75.748
3.28 161.944 74.061
3.29 161.082 71.285
3.30 164.448 67.896
3.31 165.231 65.542
3.32 161.867 65.171
3.33 158.648 65.363
3.34 152.488 65.979
3.35 148.020 67.173
3.36 137.304 68.269
3.37 133.399 69.163
3.38 125.829 69.835
3.39 123.024 69.862
3.40 120.808 69.466
3.41 117.803 69.123
3.42 114.269 68.647
3.43 110.108 67.986
3.44 109.842 67.620
3.45 111.945 68.266
3.46 113.994 69.561
3.47 114.252 70.581
3.48 114.496 70.830
3.49 115.852 69.808
3.50 115.403 66.778
3.51 --undefined-- 61.143
3.52 --undefined-- 53.694
3.53 --undefined-- 48.070
3.54 --undefined-- 45.830
3.55 --undefined-- 53.367
3.56 --undefined-- 62.793
3.57 --undefined-- 68.533
3.58 --undefined-- 70.849
3.59 --undefined-- 71.118
3.60 113.474 71.102
3.61 113.014 71.206
3.62 112.914 71.194
3.63 112.711 70.567
3.64 114.957 69.118
3.65 118.940 66.655
3.66 122.213 62.710
3.67 --undefined-- 56.998
3.68 --undefined-- 49.848
3.69 --undefined-- 44.096
3.70 --undefined-- 41.611
3.71 --undefined-- 39.555
3.72 --undefined-- 38.767
3.73 --undefined-- 39.888
3.74 --undefined-- 40.603
3.75 --undefined-- 40.789
3.76 --undefined-- 42.681
3.77 --undefined-- 50.429
3.78 --undefined-- 57.693
3.79 144.817 62.630
3.80 140.541 65.395
3.81 138.591 65.746
3.82 123.527 63.968
3.83 124.683 62.526
3.84 124.438 63.383
3.85 123.916 64.637
3.86 123.930 65.814
3.87 124.941 67.136
3.88 125.126 68.237
3.89 124.482 68.873
3.90 124.419 69.215
3.91 124.306 69.284
3.92 123.959 69.139
3.93 123.869 68.927
3.94 124.243 68.592
3.95 124.101 67.995
3.96 124.025 67.024
3.97 125.046 65.592
3.98 126.205 63.569
3.99 125.635 60.486
4.00 125.008 55.732
4.01 --undefined-- 49.693
4.02 --undefined-- 44.019
4.03 --undefined-- 40.872
4.04 --undefined-- 42.686
4.05 --undefined-- 44.670
4.06 --undefined-- 46.190
4.07 --undefined-- 50.590
4.08 --undefined-- 54.898
4.09 113.130 57.415
4.10 110.473 58.170
4.11 104.504 57.731
4.12 99.065 56.642
4.13 95.878 55.085
4.14 98.392 53.287
4.15 96.766 50.912
4.16 --undefined-- 46.968
4.17 --undefined-- 41.699
4.18 --undefined-- 39.395
4.19 --undefined-- 42.736
4.20 --undefined-- 49.097
4.21 --undefined-- 54.225
4.22 94.770 56.772
4.23 93.003 57.258
4.24 116.467 56.673
4.25 89.533 55.611
4.26 105.374 54.642
4.27 --undefined-- 54.506
4.28 --undefined-- 54.689
4.29 105.386 54.950
4.30 106.541 54.838
4.31 108.081 53.834
4.32 109.650 51.528
4.33 --undefined-- 47.481
4.34 --undefined-- 42.289
4.35 --undefined-- 39.100
4.36 --undefined-- 39.024
4.37 --undefined-- 41.354
4.38 --undefined-- 44.636
4.39 --undefined-- 48.684
4.40 --undefined-- 55.478
4.41 --undefined-- 60.904
4.42 125.646 64.137
4.43 121.485 66.159
4.44 117.738 67.268
4.45 115.140 67.548
4.46 113.282 66.903
4.47 111.775 65.127
4.48 111.117 62.129
4.49 111.047 57.851
4.50 --undefined-- 52.138
4.51 --undefined-- 45.572
4.52 --undefined-- 40.885
4.53 --undefined-- 39.116
4.54 --undefined-- 39.562
4.55 --undefined-- 42.921
4.56 --undefined-- 49.120
4.57 --undefined-- 53.050
4.58 --undefined-- 53.625
4.59 --undefined-- 51.287
4.60 --undefined-- 46.688
4.61 --undefined-- 41.086
4.62 --undefined-- 37.374
4.63 --undefined-- 40.112
4.64 --undefined-- 46.116
4.65 --undefined-- 50.754
4.66 --undefined-- 52.445
4.67 --undefined-- 51.557
4.68 --undefined-- 53.346
4.69 --undefined-- 58.075
4.70 --undefined-- 60.438
4.71 122.286 60.481
4.72 117.876 58.588
4.73 113.308 54.333
4.74 --undefined-- 47.712
4.75 --undefined-- 41.375
4.76 --undefined-- 37.857
4.77 --undefined-- 38.172
4.78 --undefined-- 39.096
4.79 --undefined-- 40.167
4.80 --undefined-- 47.522
4.81 --undefined-- 54.706
4.82 --undefined-- 59.828
4.83 --undefined-- 63.206
4.84 95.949 64.550
4.85 106.496 64.482
4.86 95.448 63.830
4.87 --undefined-- 62.945
4.88 --undefined-- 61.924
4.89 --undefined-- 60.144
4.90 --undefined-- 56.737
4.91 --undefined-- 52.445
4.92 --undefined-- 50.192
4.93 --undefined-- 49.705
4.94 --undefined-- 48.796
4.95 --undefined-- 48.772
4.96 --undefined-- 56.446
4.97 --undefined-- 62.882
4.98 --undefined-- 65.874
4.99 102.746 66.644
5.00 104.007 67.081
5.01 103.928 67.731
5.02 104.125 68.094
5.03 105.170 68.161
5.04 106.387 68.009
5.05 106.732 67.757
5.06 107.189 67.511
5.07 107.150 67.139
5.08 107.493 66.305
5.09 --undefined-- 64.355
5.10 --undefined-- 60.365
5.11 --undefined-- 54.352
5.12 --undefined-- 48.122
5.13 --undefined-- 49.245
5.14 --undefined-- 57.277
5.15 --undefined-- 62.462
5.16 100.198 64.699
5.17 97.841 64.697
5.18 96.185 63.514
5.19 95.739 62.379
5.20 95.146 61.896
5.21 97.109 62.482
5.22 97.215 63.068
5.23 96.088 62.239
5.24 94.140 59.937
5.25 93.928 57.677
5.26 94.377 56.546
5.27 94.079 55.879
5.28 93.788 55.489
5.29 93.974 55.162
5.30 94.671 54.652
5.31 96.796 54.918
5.32 95.308 56.495
5.33 95.688 57.821
5.34 94.335 56.928
5.35 95.319 54.040
5.36 96.795 50.955
5.37 --undefined-- 48.184
5.38 --undefined-- 45.499
5.39 --undefined-- 42.307
5.40 --undefined-- 39.093
5.41 --undefined-- 37.571
5.42 --undefined-- 36.250
5.43 --undefined-- 35.768
5.44 --undefined-- 37.340
5.45 --undefined-- 38.852
5.46 --undefined-- 39.966
5.47 --undefined-- 39.541
5.48 --undefined-- 37.675
5.49 --undefined-- 36.582
5.50 --undefined-- 38.230
5.51 --undefined-- 43.642
5.52 --undefined-- 49.055
5.53 110.681 52.868
5.54 110.707 54.969
5.55 110.414 55.803
5.56 109.613 56.312
5.57 109.544 56.864
5.58 109.232 57.326
5.59 108.559 57.319
5.60 107.843 56.796
5.61 109.875 56.198
5.62 111.727 55.287
5.63 113.149 53.669
5.64 113.133 51.353
5.65 --undefined-- 48.619
5.66 --undefined-- 47.479
5.67 --undefined-- 49.652
5.68 --undefined-- 52.418
5.69 --undefined-- 54.820
5.70 --undefined-- 56.436
5.71 --undefined-- 56.887
5.72 --undefined-- 58.381
5.73 130.353 63.173
5.74 125.201 --undefined--
5.75 122.669 --undefined--
5.76 --undefined-- --undefined--
5.77 --undefined-- --undefined--
