Time Pitch Intensity
0.01 --undefined-- --undefined--
0.02 143.691 --undefined--
0.03 143.856 --undefined--
0.04 143.863 --undefined--
0.05 143.653 77.455
0.06 143.719 77.303
0.07 142.612 76.712
0.08 140.533 75.368
0.09 137.051 73.555
0.10 144.451 73.635
0.11 150.501 75.674
0.12 149.445 76.866
0.13 148.798 77.199
0.14 149.408 77.314
0.15 149.896 77.276
0.16 149.160 76.963
0.17 148.169 76.480
0.18 147.188 75.991
0.19 146.667 75.459
0.20 146.249 74.856
0.21 146.233 74.342
0.22 144.379 73.950
0.23 141.801 73.693
0.24 138.249 73.482
0.25 133.619 72.973
0.26 129.079 72.111
0.27 128.718 71.034
0.28 125.948 70.010
0.29 126.239 70.099
0.30 132.699 71.460
0.31 130.681 73.008
0.32 124.290 74.183
0.33 111.447 75.032
0.34 109.048 75.728
0.35 106.201 76.345
0.36 105.657 76.774
0.37 104.427 76.988
0.38 102.689 77.130
0.39 103.255 77.100
0.40 106.111 76.868
0.41 105.053 76.675
0.42 103.068 76.202
0.43 102.783 75.314
0.44 104.093 74.477
0.45 105.262 73.918
0.46 105.363 73.488
0.47 105.254 73.310
0.48 106.179 73.635
0.49 106.375 74.481
0.50 106.068 75.476
0.51 106.071 75.982
0.52 99.364 76.037
0.53 94.541 75.796
0.54 87.277 75.398
0.55 77.711 75.033
0.56 81.013 74.900
0.57 80.489 74.703
0.58 104.499 74.347
0.59 103.463 74.544
0.60 91.042 74.557
0.61 99.282 74.559
0.62 99.089 74.678
0.63 101.230 74.385
0.64 102.515 73.762
0.65 105.515 72.976
0.66 113.707 72.504
0.67 118.539 73.410
0.68 127.485 75.409
0.69 132.324 76.966
0.70 137.475 77.841
0.71 140.473 78.316
0.72 140.938 78.294
0.73 140.995 77.822
0.74 142.012 77.242
0.75 142.385 76.688
0.76 142.099 76.004
0.77 140.605 74.701
0.78 136.078 72.040
0.79 124.946 67.425
0.80 --undefined-- 60.695
0.81 --undefined-- 53.261
0.82 --undefined-- 50.383
0.83 --undefined-- 49.921
0.84 --undefined-- 50.003
0.85 --undefined-- 54.361
0.86 --undefined-- 58.031
0.87 --undefined-- 58.692
0.88 --undefined-- 62.615
0.89 --undefined-- 69.553
0.90 129.492 73.997
0.91 126.435 76.253
0.92 121.744 77.024
0.93 115.133 76.684
0.94 110.466 76.044
0.95 108.365 75.677
0.96 107.698 75.163
0.97 109.030 74.295
0.98 110.443 73.075
0.99 110.784 71.226
1.00 112.757 68.366
1.01 113.767 64.446
1.02 116.932 60.210
1.03 --undefined-- 57.751
1.04 --undefined-- 56.948
1.05 --undefined-- 56.432
1.06 --undefined-- 56.557
1.07 --undefined-- 61.761
1.08 --undefined-- 69.657
1.09 --undefined-- 74.731
1.10 120.486 77.333
1.11 115.623 78.408
1.12 113.012 78.663
1.13 109.214 78.480
1.14 106.539 77.713
1.15 105.467 75.585
1.16 113.327 71.393
1.17 107.588 65.065
1.18 107.380 58.185
1.19 108.688 53.893
1.20 --undefined-- 50.594
1.21 --undefined-- 48.256
1.22 --undefined-- 47.262
1.23 --undefined-- 53.062
1.24 --undefined-- 58.555
1.25 --undefined-- 60.335
1.26 --undefined-- 59.377
1.27 --undefined-- 57.788
1.28 --undefined-- 56.924
1.29 --undefined-- 57.034
1.30 --undefined-- 57.816
1.31 --undefined-- 61.109
1.32 --undefined-- 69.168
1.33 184.608 75.119
1.34 177.495 77.977
1.35 161.618 78.731
1.36 157.198 78.714
1.37 153.907 78.483
1.38 152.192 78.182
1.39 150.455 77.881
1.40 148.669 77.633
1.41 147.687 77.494
1.42 147.444 77.148
1.43 146.322 76.094
1.44 143.193 74.572
1.45 143.333 74.157
1.46 147.703 75.319
1.47 152.350 76.791
1.48 154.416 77.669
1.49 153.439 77.880
1.50 153.835 77.969
1.51 153.669 78.070
1.52 152.875 78.099
1.53 152.508 78.110
1.54 152.017 78.061
1.55 151.593 77.793
1.56 150.680 76.733
1.57 148.407 74.075
1.58 151.284 69.375
1.59 --undefined-- 62.395
1.60 --undefined-- 54.424
1.61 --undefined-- 50.926
1.62 --undefined-- 50.325
1.63 --undefined-- 56.872
1.64 --undefined-- 66.117
1.65 --undefined-- 72.006
1.66 131.990 74.807
1.67 128.454 75.523
1.68 123.707 75.303
1.69 120.473 74.898
1.70 117.877 74.456
1.71 115.878 74.427
1.72 115.655 75.000
1.73 115.409 75.533
1.74 113.449 75.606
1.75 111.659 74.940
1.76 110.711 72.983
1.77 107.521 69.039
1.78 116.303 63.280
1.79 115.758 58.759
1.80 124.381 57.662
1.81 124.496 60.559
1.82 --undefined-- 67.656
1.83 --undefined-- 72.629
1.84 106.224 74.726
1.85 92.728 75.013
1.86 92.335 74.428
1.87 93.721 73.533
1.88 97.365 73.264
1.89 102.257 74.061
1.90 105.488 74.992
1.91 106.961 75.471
1.92 115.205 75.600
1.93 122.412 75.634
1.94 129.499 75.463
1.95 136.197 74.474
1.96 139.588 72.132
1.97 139.999 68.059
1.98 136.652 62.296
1.99 --undefined-- 59.891
2.00 --undefined-- 64.829
2.01 --undefined-- 71.119
2.02 141.526 75.253
2.03 134.232 77.122
2.04 126.017 77.598
2.05 122.135 77.018
2.06 120.322 74.804
2.07 121.613 70.296
2.08 124.486 63.632
2.09 123.277 57.543
2.10 125.008 54.538
2.11 --undefined-- 51.912
2.12 --undefined-- 48.760
2.13 --undefined-- 51.552
2.14 --undefined-- 58.690
2.15 --undefined-- 62.804
2.16 --undefined-- 63.802
2.17 --undefined-- 63.271
2.18 --undefined-- 67.078
2.19 135.931 72.206
2.20 122.946 74.945
2.21 108.809 76.189
2.22 97.690 76.830
2.23 94.768 76.835
2.24 95.896 76.063
2.25 96.962 74.651
2.26 94.337 73.182
2.27 94.341 72.050
2.28 96.033 71.514
2.29 96.244 71.689
2.30 96.619 72.443
2.31 97.729 73.467
2.32 98.561 74.378
2.33 98.995 75.165
2.34 100.827 75.853
2.35 102.881 76.296
2.36 103.886 76.484
2.37 105.503 76.258
2.38 107.634 75.378
2.39 108.231 73.978
2.40 110.249 73.240
2.41 113.120 73.987
2.42 115.328 74.945
2.43 117.809 75.400
2.44 118.539 75.323
2.45 117.104 74.552
2.46 114.924 72.764
2.47 109.555 69.571
2.48 101.069 64.859
2.49 120.427 59.495
2.50 116.184 54.811
2.51 --undefined-- 51.283
2.52 --undefined-- 48.801
2.53 --undefined-- 47.245
2.54 --undefined-- 46.664
2.55 --undefined-- 51.466
2.56 --undefined-- 63.462
2.57 --undefined-- 71.702
2.58 --undefined-- 76.217
2.59 126.643 78.027
2.60 121.630 78.294
2.61 119.084 78.128
2.62 117.677 77.767
2.63 116.524 76.776
2.64 108.088 75.257
2.65 114.390 74.258
2.66 112.815 74.445
2.67 110.933 75.253
2.68 113.249 76.386
2.69 117.601 77.432
2.70 117.848 77.900
2.71 117.473 77.641
2.72 115.439 76.305
2.73 107.339 73.336
2.74 106.101 68.639
2.75 117.951 63.105
2.76 119.167 58.529
2.77 116.800 55.683
2.78 118.470 55.567
2.79 --undefined-- 62.549
2.80 121.318 69.336
2.81 119.130 73.576
2.82 118.526 75.875
2.83 119.315 77.130
2.84 121.533 78.127
2.85 125.798 79.120
2.86 131.922 79.859
2.87 140.138 80.285
2.88 147.786 80.491
2.89 154.120 80.118
2.90 156.579 78.626
2.91 153.382 75.446
2.92 155.980 69.917
2.93 170.667 62.317
2.94 146.374 57.981
2.95 150.587 57.486
2.96 153.080 57.490
2.97 152.464 57.302
2.98 154.284 55.585
2.99 --undefined-- 52.483
3.00 --undefined-- 50.419
3.01 --undefined-- 50.288
3.02 --undefined-- 50.377
3.03 --undefined-- 50.401
3.04 --undefined-- 50.830
3.05 --undefined-- 51.316
3.06 --undefined-- 51.827
3.07 --undefined-- 52.385
3.08 --undefined-- 52.936
3.09 --undefined-- 53.773
3.10 --undefined-- 54.397
3.11 --undefined-- 54.243
3.12 --undefined-- 54.286
3.13 --undefined-- 54.809
3.14 --undefined-- 54.582
3.15 --undefined-- 53.592
3.16 --undefined-- 52.384
3.17 --undefined-- 51.268
3.18 --undefined-- 50.066
3.19 --undefined-- 48.960
3.20 --undefined-- 47.182
3.21 --undefined-- 43.454
3.22 --undefined-- 40.576
3.23 --undefined-- 42.732
3.24 --undefined-- 44.309
3.25 --undefined-- 52.155
3.26 --undefined-- 63.752
3.27 222.472 70.995
3.28 206.579 74.926
3.29 205.821 76.781
3.30 207.016 77.656
3.31 207.019 78.008
3.32 203.076 77.653
3.33 195.773 76.220
3.34 191.268 73.289
3.35 192.861 68.792
3.36 219.852 68.071
3.37 208.790 73.912
3.38 201.860 77.609
3.39 188.216 78.735
3.40 176.892 78.515
3.41 168.700 78.201
3.42 161.466 77.949
3.43 155.685 77.379
3.44 150.807 76.871
3.45 148.348 76.751
3.46 144.033 76.589
3.47 140.490 76.669
3.48 138.151 77.414
3.49 136.010 78.328
3.50 134.675 78.927
3.51 133.898 79.215
3.52 132.204 79.305
3.53 131.753 79.301
3.54 132.041 79.245
3.55 132.693 79.144
3.56 133.134 78.773
3.57 134.557 77.869
3.58 136.036 76.500
3.59 138.057 75.293
3.60 148.718 75.936
3.61 155.668 77.928
3.62 158.910 79.128
3.63 163.916 79.416
3.64 170.316 79.299
3.65 176.024 78.836
3.66 180.268 78.375
3.67 180.394 78.119
3.68 178.072 77.666
3.69 171.372 76.584
3.70 163.701 74.121
3.71 159.981 69.490
3.72 170.160 62.828
3.73 169.593 57.589
3.74 170.762 55.548
3.75 177.490 56.253
3.76 --undefined-- 58.506
3.77 --undefined-- 58.626
3.78 --undefined-- 57.826
3.79 --undefined-- 64.952
3.80 161.326 71.929
3.81 152.625 75.779
3.82 144.372 77.432
3.83 139.451 77.995
3.84 133.216 78.141
3.85 130.260 78.159
3.86 129.536 78.177
3.87 128.258 78.066
3.88 127.295 77.841
3.89 126.124 77.605
3.90 124.909 77.415
3.91 125.069 77.224
3.92 126.610 76.689
3.93 126.690 75.717
3.94 127.116 74.923
3.95 130.044 74.501
3.96 130.428 74.060
3.97 129.431 73.619
3.98 129.214 73.450
3.99 129.269 73.785
4.00 127.748 74.719
4.01 123.774 75.907
4.02 120.262 76.857
4.03 118.650 77.348
4.04 117.514 77.436
4.05 116.989 77.461
4.06 117.676 77.922
4.07 117.325 78.643
4.08 115.981 78.873
4.09 114.962 78.140
4.10 114.248 76.404
4.11 113.563 74.166
4.12 113.833 72.131
4.13 116.342 70.857
4.14 121.189 71.127
4.15 122.881 73.377
4.16 119.636 76.204
4.17 117.951 77.958
4.18 115.979 78.447
4.19 113.302 78.562
4.20 113.005 78.814
4.21 113.439 78.846
4.22 113.988 78.598
4.23 114.958 78.436
4.24 118.031 78.485
4.25 114.578 78.310
4.26 112.857 77.459
4.27 112.464 75.969
4.28 110.315 74.006
4.29 109.120 71.160
4.30 110.111 67.028
4.31 115.233 61.748
4.32 116.760 57.072
4.33 116.224 54.050
4.34 --undefined-- 52.106
4.35 --undefined-- 50.935
4.36 --undefined-- 53.298
4.37 --undefined-- 58.258
4.38 --undefined-- 60.853
4.39 --undefined-- 64.473
4.40 --undefined-- 69.655
4.41 --undefined-- 72.808
4.42 --undefined-- 73.904
4.43 88.472 73.731
4.44 90.027 72.744
4.45 91.440 71.561
4.46 96.000 72.199
4.47 103.139 73.993
4.48 105.260 75.155
4.49 108.146 75.757
4.50 113.148 76.057
4.51 118.864 76.247
4.52 125.437 76.371
4.53 132.653 76.320
4.54 140.666 76.368
4.55 147.659 76.897
4.56 154.747 77.465
4.57 160.968 77.722
4.58 164.354 77.937
4.59 166.130 77.919
4.60 166.279 77.243
4.61 163.743 75.480
4.62 158.996 72.040
4.63 150.403 66.740
4.64 160.302 60.740
4.65 162.505 57.967
4.66 174.090 57.237
4.67 --undefined-- 56.500
4.68 --undefined-- 56.624
4.69 --undefined-- 58.479
4.70 --undefined-- 63.955
4.71 156.555 70.146
4.72 155.970 74.067
4.73 150.266 75.944
4.74 139.938 76.737
4.75 134.898 77.078
4.76 129.188 77.233
4.77 126.930 77.239
4.78 123.947 77.102
4.79 117.895 77.045
4.80 115.193 76.720
4.81 --undefined-- 75.192
4.82 --undefined-- 72.024
4.83 --undefined-- 67.774
4.84 --undefined-- 64.852
4.85 --undefined-- 64.583
4.86 --undefined-- 65.794
4.87 --undefined-- 67.949
4.88 --undefined-- 71.988
4.89 --undefined-- 75.916
4.90 137.133 77.849
4.91 136.876 78.490
4.92 136.816 78.686
4.93 136.618 78.559
4.94 136.875 78.100
4.95 136.651 77.258
4.96 136.073 75.918
4.97 133.763 74.298
4.98 135.922 72.962
4.99 136.540 71.843
5.00 134.313 71.176
5.01 135.476 71.479
5.02 137.384 72.478
5.03 134.571 73.668
5.04 131.961 74.792
5.05 123.712 75.684
5.06 119.270 --undefined--
5.07 113.738 --undefined--
5.08 --undefined-- --undefined--
5.09 --undefined-- --undefined--
