Time Pitch Intensity
0.01 --undefined-- --undefined--
0.02 180.894 --undefined--
0.03 178.749 --undefined--
0.04 172.268 --undefined--
0.05 181.658 60.239
0.06 181.634 61.128
0.07 180.545 61.518
0.08 181.203 61.543
0.09 183.474 61.513
0.10 186.231 61.449
0.11 188.243 60.788
0.12 186.923 58.695
0.13 184.092 55.569
0.14 --undefined-- 56.049
0.15 --undefined-- 59.616
0.16 --undefined-- 61.718
0.17 200.338 61.789
0.18 191.228 60.892
0.19 192.709 59.802
0.20 194.711 59.265
0.21 204.418 59.612
0.22 188.927 60.929
0.23 170.802 62.684
0.24 166.421 63.659
0.25 159.174 63.638
0.26 157.901 63.179
0.27 157.684 62.976
0.28 158.741 63.013
0.29 159.738 62.625
0.30 164.538 61.562
0.31 166.541 60.277
0.32 166.121 59.374
0.33 166.356 59.401
0.34 166.616 59.862
0.35 167.638 60.074
0.36 169.060 59.740
0.37 166.775 58.504
0.38 163.274 56.856
0.39 --undefined-- 57.017
0.40 --undefined-- 58.145
0.41 --undefined-- 57.478
0.42 --undefined-- 54.364
0.43 --undefined-- 50.005
0.44 --undefined-- 49.785
0.45 --undefined-- 55.049
0.46 --undefined-- 60.311
0.47 188.837 63.401
0.48 178.058 64.490
0.49 169.828 64.697
0.50 167.505 64.737
0.51 167.758 64.617
0.52 168.962 64.392
0.53 172.967 64.601
0.54 177.114 65.578
0.55 181.288 66.461
0.56 187.550 66.803
0.57 196.325 67.262
0.58 205.995 68.152
0.59 209.722 69.016
0.60 216.017 69.097
0.61 224.802 67.494
0.62 228.850 63.584
0.63 233.486 57.256
0.64 --undefined-- 51.559
0.65 --undefined-- 48.935
0.66 --undefined-- 48.489
0.67 --undefined-- 53.194
0.68 --undefined-- 56.159
0.69 224.835 57.115
0.70 221.165 58.911
0.71 206.602 60.024
0.72 218.958 59.606
0.73 220.387 60.071
0.74 212.329 62.370
0.75 194.810 64.420
0.76 167.507 64.850
0.77 158.193 63.891
0.78 154.813 62.781
0.79 154.253 62.093
0.80 154.215 61.694
0.81 152.334 61.650
0.82 153.106 61.745
0.83 158.198 61.513
0.84 160.463 61.766
0.85 159.555 62.062
0.86 159.332 60.993
0.87 158.817 59.566
0.88 159.387 59.357
0.89 160.656 59.427
0.90 163.179 58.999
0.91 166.098 58.609
0.92 168.055 58.419
0.93 164.567 57.553
0.94 158.710 55.261
0.95 --undefined-- 53.922
0.96 --undefined-- 56.245
0.97 --undefined-- 57.814
0.98 --undefined-- 59.181
0.99 199.097 62.048
1.00 194.393 64.562
1.01 190.766 65.637
1.02 188.954 65.904
1.03 189.084 66.009
1.04 189.351 65.963
1.05 189.501 65.808
1.06 189.817 65.653
1.07 190.347 65.477
1.08 190.610 65.393
1.09 190.729 65.423
1.10 191.056 65.409
1.11 191.408 65.263
1.12 192.367 65.079
1.13 192.579 65.140
1.14 195.144 65.560
1.15 198.655 66.041
1.16 198.759 66.435
1.17 199.702 66.712
1.18 200.823 66.804
1.19 201.441 66.645
1.20 200.589 66.049
1.21 198.989 64.643
1.22 188.824 62.218
1.23 180.085 59.667
1.24 171.964 58.177
1.25 169.715 57.358
1.26 168.049 57.293
1.27 168.961 58.570
1.28 171.132 60.453
1.29 173.960 62.226
1.30 176.057 63.595
1.31 177.926 64.513
1.32 180.356 65.118
1.33 181.893 65.444
1.34 183.389 65.488
1.35 183.828 65.271
1.36 183.537 64.936
1.37 183.427 64.635
1.38 183.148 64.445
1.39 183.739 64.315
1.40 184.817 64.389
1.41 185.684 64.898
1.42 186.966 65.385
1.43 187.751 65.406
1.44 187.931 64.926
1.45 187.956 64.127
1.46 186.907 62.854
1.47 184.272 60.568
1.48 181.702 57.731
1.49 --undefined-- 55.911
1.50 --undefined-- 55.994
1.51 --undefined-- 58.083
1.52 --undefined-- 60.564
1.53 --undefined-- 63.001
1.54 206.307 65.865
1.55 204.092 68.066
1.56 199.835 69.455
1.57 194.583 70.794
1.58 188.998 72.694
1.59 185.102 74.159
1.60 182.756 74.123
1.61 179.538 72.977
1.62 178.070 72.124
1.63 178.096 72.137
1.64 179.744 72.537
1.65 181.628 72.709
1.66 183.164 72.185
1.67 184.576 70.638
1.68 186.896 68.162
1.69 187.775 66.037
1.70 188.859 65.050
1.71 188.953 64.687
1.72 188.933 64.233
1.73 189.139 63.266
1.74 189.422 61.825
1.75 189.316 59.705
1.76 189.802 56.633
1.77 184.004 52.842
1.78 --undefined-- 49.604
1.79 --undefined-- 47.416
1.80 --undefined-- 45.453
1.81 --undefined-- 48.427
1.82 --undefined-- 53.414
1.83 --undefined-- 56.517
1.84 --undefined-- 57.527
1.85 --undefined-- 56.587
1.86 --undefined-- 54.971
1.87 --undefined-- 54.537
1.88 --undefined-- 54.577
1.89 --undefined-- 53.480
1.90 --undefined-- 51.760
1.91 --undefined-- 51.412
1.92 --undefined-- 51.930
1.93 --undefined-- 51.454
1.94 --undefined-- 49.997
1.95 --undefined-- 49.183
1.96 --undefined-- 49.375
1.97 --undefined-- 49.727
1.98 --undefined-- 49.659
1.99 --undefined-- 49.122
2.00 --undefined-- 48.424
2.01 --undefined-- 48.960
2.02 --undefined-- 49.862
2.03 --undefined-- 48.452
2.04 --undefined-- 46.377
2.05 --undefined-- 49.554
2.06 --undefined-- 53.254
2.07 --undefined-- 55.884
2.08 --undefined-- 57.656
2.09 --undefined-- 60.205
2.10 244.164 65.101
2.11 236.758 69.435
2.12 234.917 72.119
2.13 237.851 73.753
2.14 244.166 74.699
2.15 255.542 74.924
2.16 266.813 74.342
2.17 277.434 73.141
2.18 289.342 72.462
2.19 299.132 72.599
2.20 155.485 72.599
2.21 161.796 72.304
2.22 166.108 71.571
2.23 168.331 70.301
2.24 170.579 68.886
2.25 170.793 67.323
2.26 160.129 65.098
2.27 157.673 61.687
2.28 --undefined-- 56.416
2.29 --undefined-- 52.186
2.30 --undefined-- 59.100
2.31 183.698 65.200
2.32 182.659 68.512
2.33 183.191 70.077
2.34 183.886 70.866
2.35 184.181 71.309
2.36 184.932 71.438
2.37 185.957 71.447
2.38 186.483 71.455
2.39 186.571 71.365
2.40 186.557 71.184
2.41 186.404 70.957
2.42 186.133 70.646
2.43 185.964 70.226
2.44 185.684 69.685
2.45 185.099 68.883
2.46 183.338 67.618
2.47 180.301 65.485
2.48 166.849 62.193
2.49 157.266 58.320
2.50 --undefined-- 53.915
2.51 --undefined-- 49.693
2.52 --undefined-- 47.450
2.53 --undefined-- 46.934
2.54 --undefined-- 51.882
2.55 --undefined-- 55.922
2.56 --undefined-- 57.373
2.57 --undefined-- 59.262
2.58 169.805 63.758
2.59 170.729 67.071
2.60 172.401 68.928
2.61 173.090 69.882
2.62 172.930 70.013
2.63 173.293 69.580
2.64 174.273 68.976
2.65 175.066 68.401
2.66 175.482 67.914
2.67 175.582 67.360
2.68 175.409 66.647
2.69 174.865 66.011
2.70 174.058 65.475
2.71 173.813 64.839
2.72 173.729 64.136
2.73 172.174 63.580
2.74 168.514 63.421
2.75 159.158 64.561
2.76 160.794 66.589
2.77 161.431 68.338
2.78 155.579 69.585
2.79 297.203 70.072
2.80 284.898 69.545
2.81 266.585 67.895
2.82 242.642 65.901
2.83 --undefined-- 65.342
2.84 --undefined-- 65.849
2.85 --undefined-- 66.025
2.86 --undefined-- 65.537
2.87 149.558 64.655
2.88 153.813 63.215
2.89 155.689 61.139
2.90 157.800 59.307
2.91 155.316 58.378
2.92 76.498 58.271
2.93 76.001 58.349
2.94 75.679 58.241
2.95 75.043 58.121
2.96 75.975 58.069
2.97 75.656 58.238
2.98 76.110 58.752
2.99 153.212 59.270
3.00 155.385 59.376
3.01 156.562 59.045
3.02 160.495 57.994
3.03 164.102 56.357
3.04 173.431 56.093
3.05 193.228 59.170
3.06 197.234 62.253
3.07 209.166 64.149
3.08 221.131 65.454
3.09 226.706 66.364
3.10 237.762 66.597
3.11 241.082 65.670
3.12 241.422 62.802
3.13 236.439 57.693
3.14 --undefined-- 52.628
3.15 --undefined-- 50.826
3.16 --undefined-- 51.263
3.17 --undefined-- 51.122
3.18 --undefined-- 49.324
3.19 --undefined-- 51.180
3.20 --undefined-- 55.239
3.21 --undefined-- 57.016
3.22 --undefined-- 56.313
3.23 --undefined-- 53.232
3.24 --undefined-- 48.976
3.25 --undefined-- 47.667
3.26 --undefined-- 51.149
3.27 --undefined-- 55.531
3.28 --undefined-- 57.515
3.29 --undefined-- 56.788
3.30 --undefined-- 53.527
3.31 --undefined-- 52.808
3.32 --undefined-- 58.745
3.33 --undefined-- 62.634
3.34 191.026 63.962
3.35 175.431 63.851
3.36 174.830 63.720
3.37 174.003 63.811
3.38 173.423 63.713
3.39 172.545 63.716
3.40 171.802 63.928
3.41 172.085 64.191
3.42 172.045 64.609
3.43 171.795 65.009
3.44 172.083 64.885
3.45 171.510 63.794
3.46 169.298 61.846
3.47 164.611 59.699
3.48 160.945 57.633
3.49 --undefined-- 54.590
3.50 --undefined-- 49.399
3.51 --undefined-- 44.510
3.52 --undefined-- 43.988
3.53 --undefined-- 44.756
3.54 --undefined-- 46.559
3.55 --undefined-- 48.536
3.56 --undefined-- 50.419
3.57 --undefined-- 53.739
3.58 216.954 58.621
3.59 210.934 62.085
3.60 209.342 63.979
3.61 206.093 65.386
3.62 202.996 66.593
3.63 196.608 67.314
3.64 193.898 67.493
3.65 191.058 66.980
3.66 189.733 65.610
3.67 188.693 63.449
3.68 188.272 60.995
3.69 189.609 58.479
3.70 --undefined-- 55.632
3.71 --undefined-- 52.688
3.72 --undefined-- 52.437
3.73 --undefined-- 54.814
3.74 --undefined-- 55.757
3.75 --undefined-- 54.422
3.76 --undefined-- 51.625
3.77 --undefined-- 50.096
3.78 --undefined-- 50.800
3.79 --undefined-- 50.789
3.80 --undefined-- 49.363
3.81 --undefined-- 48.015
3.82 --undefined-- 47.424
3.83 --undefined-- 49.250
3.84 --undefined-- 51.838
3.85 --undefined-- 53.369
3.86 --undefined-- 56.998
3.87 193.982 60.511
3.88 185.278 62.213
3.89 174.341 62.867
3.90 169.290 63.180
3.91 167.589 63.458
3.92 166.823 63.842
3.93 166.999 64.015
3.94 168.503 63.922
3.95 169.757 64.102
3.96 171.741 64.813
3.97 175.387 65.352
3.98 179.301 65.236
3.99 183.183 65.114
4.00 187.537 65.185
4.01 191.789 64.538
4.02 189.231 62.275
4.03 184.437 57.861
4.04 --undefined-- 52.238
4.05 --undefined-- 51.558
4.06 --undefined-- 55.639
4.07 --undefined-- 58.037
4.08 --undefined-- 59.039
4.09 --undefined-- 59.181
4.10 --undefined-- 58.798
4.11 --undefined-- 59.263
4.12 246.765 62.875
4.13 235.554 66.164
4.14 224.365 67.687
4.15 211.546 67.806
4.16 203.542 66.876
4.17 191.976 65.468
4.18 179.596 64.418
4.19 --undefined-- 64.555
4.20 --undefined-- 66.112
4.21 --undefined-- 67.201
4.22 164.075 66.613
4.23 165.540 65.142
4.24 164.868 64.161
4.25 163.642 63.676
4.26 162.808 63.609
4.27 163.077 64.062
4.28 155.803 64.204
4.29 155.422 63.658
4.30 154.105 63.257
4.31 153.701 63.195
4.32 153.557 63.168
4.33 152.652 62.893
4.34 151.632 62.352
4.35 151.120 61.700
4.36 149.712 61.075
4.37 146.586 60.444
4.38 144.295 59.407
4.39 141.705 57.379
4.40 138.922 55.239
4.41 145.703 54.570
4.42 145.966 53.500
4.43 143.924 50.783
4.44 --undefined-- 48.223
4.45 --undefined-- 48.851
4.46 --undefined-- 50.079
4.47 --undefined-- 50.183
4.48 --undefined-- 50.625
4.49 --undefined-- 55.857
4.50 213.777 60.960
4.51 206.143 63.660
4.52 198.063 65.200
4.53 194.798 66.431
4.54 192.426 66.618
4.55 190.860 64.995
4.56 182.316 61.277
4.57 --undefined-- 59.355
4.58 --undefined-- 62.458
4.59 --undefined-- 63.680
4.60 --undefined-- 61.864
4.61 --undefined-- 57.341
4.62 --undefined-- 52.744
4.63 --undefined-- 51.646
4.64 --undefined-- 51.662
4.65 --undefined-- 52.673
4.66 --undefined-- 53.051
4.67 --undefined-- 55.810
4.68 --undefined-- 60.940
4.69 182.167 64.346
4.70 182.328 65.496
4.71 173.060 65.035
4.72 171.998 64.213
4.73 170.876 63.699
4.74 168.393 63.158
4.75 168.665 62.789
4.76 168.673 63.005
4.77 170.164 63.035
4.78 170.481 62.669
4.79 170.253 62.416
4.80 169.714 62.299
4.81 169.245 61.921
4.82 168.621 61.105
4.83 167.897 60.449
4.84 166.746 60.215
4.85 166.197 59.986
4.86 166.266 59.794
4.87 165.381 59.566
4.88 162.504 58.709
4.89 156.497 57.528
4.90 188.839 59.059
4.91 187.804 62.144
4.92 188.016 64.843
4.93 187.314 66.626
4.94 186.446 67.838
4.95 186.235 69.267
4.96 186.671 70.511
4.97 188.148 71.291
4.98 189.889 71.912
4.99 191.251 72.599
5.00 192.173 73.129
5.01 193.509 73.336
5.02 194.176 --undefined--
5.03 193.155 --undefined--
5.04 --undefined-- --undefined--
5.05 --undefined-- --undefined--
