Time Pitch Intensity
0.01 --undefined-- --undefined--
0.02 --undefined-- --undefined--
0.03 --undefined-- --undefined--
0.04 --undefined-- --undefined--
0.05 --undefined-- 53.503
0.06 --undefined-- 54.413
0.07 --undefined-- 55.658
0.08 --undefined-- 56.350
0.09 --undefined-- 56.214
0.10 --undefined-- 55.718
0.11 --undefined-- 55.688
0.12 --undefined-- 55.616
0.13 --undefined-- 55.548
0.14 --undefined-- 56.213
0.15 --undefined-- 56.591
0.16 --undefined-- 56.863
0.17 --undefined-- 57.019
0.18 --undefined-- 57.591
0.19 --undefined-- 58.881
0.20 --undefined-- 59.544
0.21 --undefined-- 59.768
0.22 --undefined-- 60.121
0.23 --undefined-- 60.325
0.24 --undefined-- 60.063
0.25 --undefined-- 59.062
0.26 --undefined-- 58.222
0.27 --undefined-- 58.411
0.28 --undefined-- 58.543
0.29 --undefined-- 57.925
0.30 --undefined-- 56.468
0.31 --undefined-- 54.794
0.32 --undefined-- 53.352
0.33 --undefined-- 52.059
0.34 --undefined-- 51.125
0.35 --undefined-- 49.959
0.36 --undefined-- 46.890
0.37 --undefined-- 42.109
0.38 --undefined-- 38.693
0.39 --undefined-- 38.209
0.40 --undefined-- 43.924
0.41 --undefined-- 52.177
0.42 --undefined-- 57.184
0.43 --undefined-- 58.941
0.44 --undefined-- 59.072
0.45 --undefined-- 60.379
0.46 --undefined-- 65.416
0.47 105.032 69.266
0.48 105.523 70.283
0.49 102.746 68.880
0.50 103.690 65.390
0.51 105.053 60.165
0.52 105.091 56.784
0.53 105.390 56.602
0.54 105.868 57.229
0.55 106.355 57.433
0.56 106.477 56.804
0.57 108.574 56.299
0.58 109.486 56.545
0.59 113.243 56.960
0.60 113.728 57.393
0.61 115.772 58.229
0.62 116.631 59.013
0.63 117.622 59.218
0.64 119.618 59.665
0.65 121.307 60.492
0.66 123.854 61.108
0.67 123.737 61.403
0.68 124.275 61.508
0.69 124.642 61.492
0.70 123.623 60.984
0.71 118.776 59.350
0.72 114.883 56.181
0.73 --undefined-- 51.500
0.74 --undefined-- 48.251
0.75 --undefined-- 49.096
0.76 --undefined-- 51.013
0.77 --undefined-- 54.925
0.78 --undefined-- 56.343
0.79 --undefined-- 53.570
0.80 --undefined-- 53.767
0.81 --undefined-- 63.448
0.82 --undefined-- 70.278
0.83 --undefined-- 73.793
0.84 127.636 74.805
0.85 127.380 74.572
0.86 126.202 73.962
0.87 125.711 73.216
0.88 126.750 72.551
0.89 127.929 71.945
0.90 128.125 71.227
0.91 127.542 70.067
0.92 127.040 67.947
0.93 126.643 64.560
0.94 --undefined-- 59.642
0.95 --undefined-- 53.390
0.96 --undefined-- 47.314
0.97 --undefined-- 42.286
0.98 --undefined-- 42.218
0.99 --undefined-- 53.565
1.00 --undefined-- 61.697
1.01 --undefined-- 65.503
1.02 --undefined-- 66.091
1.03 --undefined-- 65.473
1.04 --undefined-- 67.775
1.05 134.477 70.813
1.06 126.636 72.352
1.07 122.230 72.398
1.08 120.899 71.484
1.09 121.535 70.420
1.10 122.636 69.443
1.11 123.240 68.432
1.12 123.780 67.160
1.13 125.709 64.942
1.14 123.759 61.237
1.15 121.906 57.941
1.16 121.469 61.146
1.17 --undefined-- 66.364
1.18 --undefined-- 69.136
1.19 --undefined-- 69.839
1.20 92.556 69.396
1.21 89.454 68.736
1.22 86.542 68.269
1.23 85.746 67.773
1.24 85.091 67.397
1.25 84.763 66.806
1.26 85.151 65.610
1.27 --undefined-- 63.428
1.28 --undefined-- 59.441
1.29 --undefined-- 53.064
1.30 --undefined-- 45.177
1.31 --undefined-- 40.156
1.32 --undefined-- 38.618
1.33 --undefined-- 36.822
1.34 --undefined-- 36.736
1.35 --undefined-- 42.806
1.36 --undefined-- 49.215
1.37 --undefined-- 53.932
1.38 --undefined-- 57.663
1.39 --undefined-- 63.107
1.40 --undefined-- 68.507
1.41 --undefined-- 71.093
1.42 93.666 71.330
1.43 93.059 70.807
1.44 91.664 70.464
1.45 89.886 69.871
1.46 89.163 68.889
1.47 88.769 67.784
1.48 88.588 66.802
1.49 90.213 66.148
1.50 92.143 65.780
1.51 91.774 65.489
1.52 91.571 64.824
1.53 91.798 63.567
1.54 91.037 62.064
1.55 91.194 60.862
1.56 91.232 59.851
1.57 91.693 58.946
1.58 92.085 58.519
1.59 91.543 58.225
1.60 91.274 57.340
1.61 91.848 55.523
1.62 --undefined-- 52.183
1.63 --undefined-- 46.686
1.64 --undefined-- 40.429
1.65 --undefined-- 36.579
1.66 --undefined-- 34.524
1.67 --undefined-- 32.992
1.68 --undefined-- 32.757
1.69 --undefined-- 33.503
1.70 --undefined-- 34.327
1.71 --undefined-- 34.278
1.72 --undefined-- 34.161
1.73 --undefined-- 34.221
1.74 --undefined-- 34.354
1.75 --undefined-- 38.199
1.76 --undefined-- 43.091
1.77 --undefined-- 45.833
1.78 --undefined-- 46.442
1.79 --undefined-- 47.432
1.80 --undefined-- 54.616
1.81 --undefined-- 62.377
1.82 --undefined-- 68.858
1.83 --undefined-- 72.932
1.84 --undefined-- 74.159
1.85 --undefined-- 73.060
1.86 --undefined-- 70.127
1.87 --undefined-- 65.053
1.88 --undefined-- 57.253
1.89 --undefined-- 50.695
1.90 116.659 50.611
1.91 116.054 51.451
1.92 114.788 51.787
1.93 113.581 51.591
1.94 112.052 51.353
1.95 111.054 50.913
1.96 --undefined-- 51.294
1.97 --undefined-- 56.168
1.98 --undefined-- 60.694
1.99 100.415 62.567
2.00 99.114 62.715
2.01 97.579 62.393
2.02 97.780 62.301
2.03 98.236 62.688
2.04 97.944 63.313
2.05 96.700 63.611
2.06 95.456 63.567
2.07 94.472 63.597
2.08 93.812 63.457
2.09 93.452 62.473
2.10 --undefined-- 60.345
2.11 --undefined-- 56.952
2.12 103.446 53.588
2.13 103.823 52.722
2.14 106.137 52.830
2.15 109.536 53.103
2.16 110.634 55.061
2.17 112.590 60.480
2.18 --undefined-- 64.778
2.19 112.688 67.161
2.20 113.602 68.905
2.21 113.954 69.867
2.22 114.151 70.032
2.23 113.637 69.972
2.24 112.514 69.977
2.25 112.290 70.171
2.26 111.683 70.614
2.27 110.869 71.415
2.28 110.756 72.239
2.29 110.363 72.779
2.30 109.822 73.053
2.31 108.953 73.017
2.32 108.707 72.418
2.33 108.803 71.269
2.34 108.578 69.634
2.35 107.848 67.202
2.36 --undefined-- 63.473
2.37 --undefined-- 58.024
2.38 --undefined-- 52.741
2.39 --undefined-- 56.541
2.40 98.744 62.718
2.41 99.157 66.324
2.42 99.038 67.315
2.43 98.165 65.787
2.44 --undefined-- 61.395
2.45 --undefined-- 54.567
2.46 99.717 51.144
2.47 101.967 51.188
2.48 103.217 51.636
2.49 105.762 51.975
2.50 105.555 52.086
2.51 108.565 52.229
2.52 108.243 52.555
2.53 108.889 53.040
2.54 110.120 53.458
2.55 111.273 53.733
2.56 112.898 54.161
2.57 113.777 54.778
2.58 115.242 55.496
2.59 115.832 56.240
2.60 115.794 56.783
2.61 115.494 56.905
2.62 114.842 56.808
2.63 114.559 56.768
2.64 110.622 57.016
2.65 109.758 57.218
2.66 105.370 57.655
2.67 --undefined-- 60.048
2.68 --undefined-- 62.957
2.69 --undefined-- 64.105
2.70 --undefined-- 63.083
2.71 --undefined-- 61.090
2.72 --undefined-- 59.976
2.73 --undefined-- 59.217
2.74 --undefined-- 58.382
2.75 --undefined-- 57.475
2.76 --undefined-- 56.877
2.77 --undefined-- 56.925
2.78 --undefined-- 56.924
2.79 --undefined-- 57.075
2.80 --undefined-- 56.731
2.81 --undefined-- 56.176
2.82 --undefined-- 57.257
2.83 --undefined-- 58.931
2.84 --undefined-- 61.394
2.85 --undefined-- 66.606
2.86 --undefined-- 70.426
2.87 110.345 71.221
2.88 98.537 69.780
2.89 94.553 68.179
2.90 93.801 67.780
2.91 95.033 67.638
2.92 96.816 66.793
2.93 97.036 65.278
2.94 102.001 64.076
2.95 102.443 63.875
2.96 102.802 64.035
2.97 105.795 64.342
2.98 106.919 65.292
2.99 107.827 66.108
3.00 109.379 66.425
3.01 110.474 66.602
3.02 111.525 66.752
3.03 112.178 67.032
3.04 112.206 67.366
3.05 111.752 67.489
3.06 111.788 67.304
3.07 111.471 66.868
3.08 111.294 66.049
3.09 111.390 64.473
3.10 107.399 61.530
3.11 --undefined-- 56.628
3.12 --undefined-- 50.242
3.13 --undefined-- 47.817
3.14 --undefined-- 50.563
3.15 --undefined-- 56.765
3.16 --undefined-- 62.539
3.17 --undefined-- 64.984
3.18 --undefined-- 64.292
3.19 --undefined-- 62.576
3.20 --undefined-- 64.689
3.21 --undefined-- 68.056
3.22 --undefined-- 69.255
3.23 --undefined-- 68.614
3.24 --undefined-- 67.549
3.25 --undefined-- 66.492
3.26 --undefined-- 64.618
3.27 83.094 62.028
3.28 82.589 59.669
3.29 82.669 57.563
3.30 --undefined-- 54.772
3.31 --undefined-- 49.889
3.32 --undefined-- 43.502
3.33 --undefined-- 40.190
3.34 --undefined-- 38.857
3.35 --undefined-- 39.926
3.36 --undefined-- 45.336
3.37 --undefined-- 55.356
3.38 --undefined-- 63.901
3.39 --undefined-- 69.627
3.40 --undefined-- 72.213
3.41 91.847 72.122
3.42 92.248 70.750
3.43 92.993 69.725
3.44 94.011 68.957
3.45 95.264 67.307
3.46 95.046 64.817
3.47 97.337 63.089
3.48 97.874 61.968
3.49 95.069 59.936
3.50 93.372 56.273
3.51 94.751 51.897
3.52 95.508 49.957
3.53 96.786 50.762
3.54 99.413 53.116
3.55 100.134 57.184
3.56 103.816 63.040
3.57 103.843 67.973
3.58 102.529 70.913
3.59 102.082 72.178
3.60 101.211 72.419
3.61 97.869 71.896
3.62 98.803 70.612
3.63 --undefined-- 68.191
3.64 --undefined-- 63.889
3.65 --undefined-- 57.525
3.66 --undefined-- 50.386
3.67 --undefined-- 47.291
3.68 --undefined-- 53.490
3.69 --undefined-- 59.201
3.70 102.011 61.988
3.71 100.191 62.270
3.72 96.343 60.332
3.73 --undefined-- 56.038
3.74 --undefined-- 49.160
3.75 --undefined-- 40.659
3.76 --undefined-- 37.219
3.77 --undefined-- 37.533
3.78 --undefined-- 37.673
3.79 --undefined-- 36.513
3.80 --undefined-- 34.846
3.81 --undefined-- 35.389
3.82 --undefined-- 39.337
3.83 --undefined-- 44.813
3.84 --undefined-- 50.766
3.85 --undefined-- 55.793
3.86 --undefined-- 58.521
3.87 --undefined-- 58.679
3.88 --undefined-- 57.433
3.89 --undefined-- 58.013
3.90 --undefined-- 60.441
3.91 119.153 62.826
3.92 120.400 64.850
3.93 121.547 66.251
3.94 121.328 67.215
3.95 118.597 68.339
3.96 117.935 69.615
3.97 120.877 70.095
3.98 113.261 69.471
3.99 111.093 68.779
4.00 109.423 69.171
4.01 105.604 70.028
4.02 99.762 70.612
4.03 98.788 70.728
4.04 96.319 69.974
4.05 --undefined-- 68.224
4.06 90.738 66.304
4.07 91.427 64.873
4.08 --undefined-- 62.725
4.09 --undefined-- 58.274
4.10 --undefined-- 50.558
4.11 --undefined-- 46.481
4.12 --undefined-- 53.685
4.13 --undefined-- 59.394
4.14 --undefined-- 62.662
4.15 --undefined-- 62.701
4.16 --undefined-- 59.504
4.17 110.786 54.626
4.18 110.438 52.113
4.19 107.857 52.050
4.20 106.490 52.540
4.21 105.082 54.335
4.22 --undefined-- 60.050
4.23 --undefined-- 64.778
4.24 96.461 66.961
4.25 97.819 67.682
4.26 97.807 67.760
4.27 97.832 67.081
4.28 98.138 65.464
4.29 98.296 62.303
4.30 --undefined-- 56.751
4.31 --undefined-- 47.738
4.32 --undefined-- 39.182
4.33 --undefined-- 43.475
4.34 --undefined-- 51.425
4.35 --undefined-- 55.814
4.36 --undefined-- 61.653
4.37 --undefined-- 68.460
4.38 --undefined-- 71.679
4.39 97.633 71.998
4.40 91.115 70.991
4.41 91.421 69.318
4.42 90.508 66.902
4.43 90.517 63.819
4.44 --undefined-- 59.931
4.45 --undefined-- 55.153
4.46 --undefined-- 49.527
4.47 --undefined-- 44.217
4.48 --undefined-- 42.074
4.49 --undefined-- 45.652
4.50 --undefined-- 51.997
4.51 --undefined-- 60.664
4.52 --undefined-- 67.588
4.53 --undefined-- 71.285
4.54 95.002 72.246
4.55 93.885 71.561
4.56 88.643 70.715
4.57 87.177 70.361
4.58 89.086 69.486
4.59 90.044 67.204
4.60 --undefined-- 63.009
4.61 --undefined-- 56.566
4.62 --undefined-- 47.361
4.63 --undefined-- 38.100
4.64 --undefined-- 34.589
4.65 --undefined-- 32.801
4.66 --undefined-- 33.207
4.67 --undefined-- 41.240
4.68 --undefined-- 49.268
4.69 --undefined-- 55.753
4.70 --undefined-- 61.307
4.71 --undefined-- 64.580
4.72 115.373 65.562
4.73 113.172 65.234
4.74 111.134 64.753
4.75 109.325 64.742
4.76 108.076 64.970
4.77 106.593 65.153
4.78 105.355 65.279
4.79 103.812 65.198
4.80 103.692 65.004
4.81 103.323 65.327
4.82 103.583 66.262
4.83 104.187 67.155
4.84 103.510 67.513
4.85 102.061 67.332
4.86 101.371 66.714
4.87 99.232 65.289
4.88 98.986 62.224
4.89 --undefined-- 56.454
4.90 --undefined-- 47.750
4.91 --undefined-- 39.769
4.92 --undefined-- 44.649
4.93 --undefined-- 50.719
4.94 --undefined-- 54.542
4.95 --undefined-- 57.703
4.96 --undefined-- 60.296
4.97 --undefined-- 62.107
4.98 --undefined-- 62.944
4.99 --undefined-- 63.097
5.00 --undefined-- 63.726
5.01 --undefined-- 65.706
5.02 --undefined-- 67.386
5.03 --undefined-- 68.197
5.04 --undefined-- 69.461
5.05 --undefined-- 70.215
5.06 --undefined-- 68.999
5.07 --undefined-- 65.827
5.08 --undefined-- 63.293
5.09 --undefined-- 62.616
5.10 92.027 61.813
5.11 92.712 60.966
5.12 92.919 60.606
5.13 88.561 61.186
5.14 86.077 63.247
5.15 83.375 64.971
5.16 83.538 65.419
5.17 --undefined-- 64.913
5.18 --undefined-- 63.794
5.19 --undefined-- 61.983
5.20 --undefined-- 59.051
5.21 --undefined-- 55.542
5.22 --undefined-- 55.465
5.23 --undefined-- 57.684
5.24 --undefined-- 59.280
5.25 --undefined-- 59.935
5.26 --undefined-- 63.243
5.27 --undefined-- 68.693
5.28 --undefined-- 71.507
5.29 104.418 71.526
5.30 104.358 69.919
5.31 103.378 68.147
5.32 103.046 67.017
5.33 102.138 66.135
5.34 100.885 65.238
5.35 98.761 64.398
5.36 98.425 63.599
5.37 97.377 63.207
5.38 96.442 63.241
5.39 97.190 63.117
5.40 96.828 62.668
5.41 96.701 62.005
5.42 97.934 61.533
5.43 96.950 61.327
5.44 96.891 61.260
5.45 96.870 61.111
5.46 97.312 60.883
5.47 97.973 61.052
5.48 98.481 61.662
5.49 98.848 62.279
5.50 100.232 62.923
5.51 100.255 --undefined--
5.52 99.549 --undefined--
5.53 --undefined-- --undefined--
5.54 --undefined-- --undefined--
