Time Pitch Intensity
0.01 --undefined-- --undefined--
0.02 116.016 --undefined--
0.03 115.467 --undefined--
0.04 115.781 --undefined--
0.05 116.005 77.811
0.06 115.946 77.563
0.07 116.614 77.095
0.08 117.325 76.558
0.09 118.138 76.174
0.10 119.015 76.034
0.11 119.768 76.006
0.12 120.619 75.789
0.13 119.508 74.795
0.14 114.154 72.594
0.15 112.034 69.655
0.16 114.545 66.220
0.17 --undefined-- 61.496
0.18 --undefined-- 58.382
0.19 --undefined-- 63.993
0.20 --undefined-- 69.842
0.21 121.862 72.603
0.22 106.797 72.744
0.23 105.187 71.830
0.24 112.081 72.520
0.25 117.384 74.305
0.26 118.718 75.478
0.27 119.579 75.844
0.28 121.740 75.853
0.29 124.950 75.744
0.30 128.578 75.731
0.31 131.296 75.664
0.32 130.532 74.763
0.33 125.572 72.704
0.34 126.844 70.263
0.35 126.371 68.310
0.36 124.245 67.231
0.37 127.372 67.825
0.38 137.855 70.063
0.39 131.803 72.419
0.40 129.229 74.409
0.41 127.963 76.185
0.42 120.660 77.388
0.43 119.073 77.716
0.44 116.813 77.455
0.45 116.336 77.134
0.46 115.505 76.969
0.47 113.943 77.049
0.48 113.453 77.253
0.49 112.536 77.231
0.50 112.522 76.940
0.51 113.183 76.542
0.52 113.747 76.075
0.53 113.974 75.363
0.54 113.812 74.146
0.55 114.519 72.078
0.56 115.009 68.760
0.57 113.421 64.241
0.58 111.801 59.301
0.59 --undefined-- 53.936
0.60 --undefined-- 48.839
0.61 --undefined-- 48.740
0.62 --undefined-- 52.181
0.63 --undefined-- 56.872
0.64 --undefined-- 59.856
0.65 --undefined-- 61.344
0.66 --undefined-- 62.658
0.67 --undefined-- 63.176
0.68 --undefined-- 63.955
0.69 --undefined-- 67.877
0.70 --undefined-- 71.451
0.71 104.105 72.793
0.72 102.458 72.400
0.73 99.160 71.081
0.74 98.018 69.437
0.75 95.226 67.713
0.76 93.188 66.407
0.77 96.973 65.962
0.78 100.914 66.245
0.79 103.566 67.024
0.80 107.796 68.190
0.81 108.235 69.188
0.82 107.829 69.268
0.83 106.615 68.070
0.84 106.387 65.661
0.85 --undefined-- 62.230
0.86 --undefined-- 59.376
0.87 --undefined-- 62.084
0.88 --undefined-- 67.551
0.89 178.375 72.350
0.90 157.549 75.222
0.91 150.018 76.545
0.92 147.421 76.876
0.93 149.606 76.687
0.94 154.794 76.529
0.95 159.505 76.691
0.96 161.220 76.772
0.97 159.368 76.261
0.98 158.086 75.334
0.99 154.712 74.264
1.00 149.426 72.938
1.01 143.104 71.386
1.02 139.972 70.671
1.03 154.091 72.401
1.04 154.106 74.386
1.05 146.605 75.172
1.06 136.407 75.274
1.07 132.542 75.320
1.08 131.930 75.433
1.09 132.423 75.610
1.10 132.598 75.656
1.11 135.169 75.490
1.12 136.947 75.346
1.13 139.743 75.335
1.14 140.816 75.309
1.15 139.469 75.031
1.16 138.481 74.157
1.17 137.609 72.577
1.18 135.349 70.312
1.19 131.074 67.390
1.20 132.114 65.313
1.21 142.825 67.732
1.22 143.802 71.535
1.23 140.091 74.166
1.24 127.464 75.414
1.25 122.550 75.713
1.26 121.585 75.873
1.27 122.093 76.163
1.28 122.723 76.271
1.29 122.260 76.058
1.30 121.183 75.588
1.31 120.766 74.882
1.32 121.085 74.028
1.33 120.865 72.995
1.34 120.128 71.530
1.35 119.982 69.387
1.36 111.353 66.237
1.37 103.065 62.229
1.38 --undefined-- 57.714
1.39 --undefined-- 52.825
1.40 --undefined-- 50.169
1.41 --undefined-- 51.151
1.42 --undefined-- 53.571
1.43 --undefined-- 60.464
1.44 152.129 66.928
1.45 136.256 71.120
1.46 119.427 73.785
1.47 116.406 75.407
1.48 114.655 76.339
1.49 113.295 76.834
1.50 113.039 77.058
1.51 114.478 77.279
1.52 118.049 77.628
1.53 122.445 77.832
1.54 126.883 77.738
1.55 130.097 77.534
1.56 132.679 77.266
1.57 135.370 76.695
1.58 136.664 75.740
1.59 136.763 74.077
1.60 133.073 71.087
1.61 134.359 66.250
1.62 135.297 59.436
1.63 --undefined-- 52.243
1.64 --undefined-- 50.742
1.65 --undefined-- 54.955
1.66 --undefined-- 63.785
1.67 --undefined-- 70.659
1.68 --undefined-- 74.279
1.69 130.369 75.608
1.70 130.753 76.113
1.71 130.562 76.428
1.72 130.133 76.312
1.73 130.123 75.927
1.74 131.771 75.696
1.75 132.533 75.551
1.76 135.913 75.312
1.77 138.021 75.047
1.78 139.845 74.824
1.79 142.376 74.857
1.80 141.887 75.094
1.81 140.825 75.137
1.82 139.744 74.600
1.83 139.808 73.361
1.84 138.238 71.599
1.85 137.212 69.474
1.86 135.542 67.442
1.87 138.342 65.952
1.88 130.833 64.995
1.89 146.007 64.294
1.90 136.606 63.960
1.91 140.874 64.785
1.92 134.746 65.050
1.93 133.651 65.351
1.94 129.245 67.386
1.95 123.283 71.160
1.96 112.667 74.265
1.97 107.517 75.683
1.98 105.943 76.007
1.99 103.991 75.756
2.00 101.952 74.819
2.01 98.355 73.529
2.02 96.468 72.500
2.03 95.621 71.715
2.04 91.628 70.826
2.05 91.653 70.043
2.06 91.571 69.766
2.07 92.285 69.796
2.08 93.402 69.843
2.09 93.711 69.842
2.10 93.771 69.836
2.11 95.663 69.796
2.12 94.284 69.562
2.13 92.037 69.098
2.14 91.642 68.894
2.15 98.384 69.110
2.16 98.969 69.129
2.17 99.254 68.903
2.18 98.321 68.598
2.19 97.438 68.656
2.20 100.452 69.663
2.21 100.176 70.885
2.22 96.280 71.626
2.23 93.139 71.856
2.24 92.259 71.958
2.25 91.731 72.163
2.26 91.726 72.121
2.27 92.781 71.838
2.28 94.621 71.417
2.29 95.084 70.928
2.30 95.695 70.539
2.31 96.436 70.211
2.32 97.855 69.913
2.33 97.457 69.566
2.34 97.379 69.150
2.35 96.227 68.981
2.36 96.141 69.376
2.37 101.604 70.142
2.38 100.795 70.918
2.39 106.585 71.650
2.40 106.509 72.437
2.41 106.098 73.077
2.42 105.725 73.393
2.43 106.050 73.623
2.44 107.587 73.939
2.45 108.201 74.363
2.46 106.571 74.727
2.47 106.007 74.999
2.48 105.658 75.347
2.49 105.577 75.616
2.50 105.295 75.559
2.51 105.109 75.222
2.52 103.924 74.720
2.53 103.386 74.071
2.54 103.046 73.305
2.55 101.926 72.595
2.56 99.713 71.785
2.57 98.125 70.999
2.58 100.077 70.802
2.59 97.978 70.826
2.60 96.649 70.586
2.61 94.773 70.282
2.62 92.274 70.100
2.63 90.865 69.815
2.64 93.166 69.592
2.65 95.163 69.895
2.66 95.458 70.259
2.67 95.700 70.241
2.68 95.566 70.045
2.69 97.373 69.649
2.70 97.333 68.441
2.71 88.271 66.141
2.72 89.498 63.652
2.73 111.123 62.047
2.74 110.427 60.790
2.75 --undefined-- 62.032
2.76 --undefined-- 67.686
2.77 123.331 72.562
2.78 121.454 75.194
2.79 113.584 76.387
2.80 112.724 76.773
2.81 112.286 76.377
2.82 111.603 75.724
2.83 111.432 75.478
2.84 111.618 75.476
2.85 110.969 75.379
2.86 111.655 75.083
2.87 111.925 74.261
2.88 107.584 72.404
2.89 105.579 69.476
2.90 106.773 65.810
2.91 105.716 61.060
2.92 --undefined-- 57.309
2.93 --undefined-- 62.862
2.94 --undefined-- 69.552
2.95 138.202 73.619
2.96 117.433 75.322
2.97 115.094 75.187
2.98 108.425 73.789
2.99 105.502 72.220
3.00 107.531 71.392
3.01 107.994 71.000
3.02 106.701 70.134
3.03 105.145 68.407
3.04 109.054 66.358
3.05 111.819 64.126
3.06 108.809 60.781
3.07 --undefined-- 55.489
3.08 --undefined-- 49.039
3.09 --undefined-- 47.374
3.10 --undefined-- 52.663
3.11 --undefined-- 63.199
3.12 --undefined-- 70.784
3.13 141.300 74.875
3.14 122.316 76.698
3.15 119.134 77.576
3.16 115.681 78.030
3.17 114.245 78.213
3.18 114.815 78.562
3.19 113.639 78.793
3.20 113.616 78.496
3.21 113.299 78.029
3.22 113.030 77.617
3.23 112.818 77.251
3.24 112.466 76.875
3.25 111.492 76.300
3.26 110.587 75.484
3.27 106.831 74.191
3.28 105.007 72.049
3.29 96.145 68.704
3.30 94.713 63.786
3.31 --undefined-- 57.261
3.32 --undefined-- 50.790
3.33 --undefined-- 48.455
3.34 --undefined-- 47.981
3.35 --undefined-- 48.736
3.36 --undefined-- 49.595
3.37 --undefined-- 49.786
3.38 --undefined-- 49.787
3.39 --undefined-- 49.678
3.40 --undefined-- 48.721
3.41 --undefined-- 46.584
3.42 --undefined-- 44.029
3.43 --undefined-- 42.503
3.44 --undefined-- 43.131
3.45 --undefined-- 44.160
3.46 --undefined-- 44.279
3.47 --undefined-- 43.522
3.48 --undefined-- 42.472
3.49 --undefined-- 41.189
3.50 --undefined-- 40.662
3.51 --undefined-- 40.718
3.52 --undefined-- 40.526
3.53 --undefined-- 40.626
3.54 --undefined-- 40.506
3.55 --undefined-- 40.314
3.56 --undefined-- 40.531
3.57 --undefined-- 40.898
3.58 --undefined-- 40.405
3.59 --undefined-- 38.952
3.60 --undefined-- 37.801
3.61 --undefined-- 40.033
3.62 --undefined-- 42.677
3.63 --undefined-- 43.338
3.64 --undefined-- 53.789
3.65 --undefined-- 64.466
3.66 198.576 70.801
3.67 163.661 74.123
3.68 146.653 75.742
3.69 137.549 76.450
3.70 132.615 76.516
3.71 127.743 76.418
3.72 123.584 76.662
3.73 122.807 76.849
3.74 120.588 76.530
3.75 118.764 75.922
3.76 115.702 75.508
3.77 112.378 75.436
3.78 111.668 75.488
3.79 110.427 75.481
3.80 109.012 75.291
3.81 105.553 74.752
3.82 102.641 73.783
3.83 99.147 72.538
3.84 95.712 71.073
3.85 93.144 69.512
3.86 93.138 68.247
3.87 92.850 67.352
3.88 92.732 66.929
3.89 95.675 67.463
3.90 96.374 68.656
3.91 99.386 69.502
3.92 100.280 69.308
3.93 99.082 68.049
3.94 103.684 66.175
3.95 107.750 64.562
3.96 --undefined-- 65.471
3.97 165.076 69.544
3.98 148.245 73.271
3.99 130.357 75.233
4.00 127.877 75.932
4.01 127.696 76.179
4.02 127.845 76.377
4.03 129.283 76.384
4.04 130.582 76.183
4.05 132.275 75.920
4.06 135.609 75.608
4.07 136.122 75.262
4.08 130.488 74.867
4.09 126.571 74.365
4.10 122.973 73.726
4.11 118.630 72.926
4.12 115.749 72.087
4.13 112.833 71.673
4.14 110.432 71.949
4.15 109.412 72.608
4.16 109.084 73.177
4.17 109.859 73.527
4.18 110.749 73.593
4.19 110.784 72.947
4.20 105.707 71.150
4.21 104.807 68.313
4.22 112.295 64.842
4.23 115.501 61.493
4.24 --undefined-- 62.056
4.25 165.516 67.279
4.26 152.621 72.025
4.27 131.544 74.577
4.28 124.898 75.361
4.29 122.753 75.341
4.30 122.037 75.248
4.31 121.487 75.160
4.32 120.783 74.998
4.33 120.300 74.750
4.34 119.964 74.514
4.35 119.742 74.418
4.36 119.261 74.512
4.37 119.409 74.687
4.38 120.550 74.803
4.39 121.581 74.834
4.40 121.509 74.740
4.41 120.975 74.343
4.42 117.911 73.156
4.43 112.305 70.774
4.44 114.546 68.022
4.45 113.772 65.923
4.46 114.986 64.382
4.47 130.797 66.197
4.48 141.251 70.662
4.49 129.204 73.608
4.50 121.508 74.856
4.51 119.670 75.169
4.52 119.384 75.073
4.53 119.428 74.654
4.54 118.464 73.656
4.55 117.037 72.127
4.56 123.612 71.608
4.57 133.412 73.312
4.58 135.526 75.105
4.59 135.939 75.790
4.60 135.305 75.764
4.61 136.320 75.703
4.62 138.256 75.516
4.63 138.078 74.710
4.64 138.669 73.822
4.65 150.300 74.144
4.66 152.917 74.964
4.67 152.511 75.557
4.68 149.525 75.813
4.69 146.311 75.874
4.70 144.619 75.892
4.71 134.469 75.748
4.72 131.856 75.699
4.73 128.021 75.825
4.74 124.225 75.871
4.75 121.203 75.827
4.76 118.026 75.666
4.77 116.779 75.104
4.78 112.088 73.717
4.79 106.319 71.968
4.80 110.139 71.554
4.81 108.515 72.488
4.82 106.976 73.252
4.83 104.397 73.433
4.84 102.659 73.347
4.85 101.470 73.305
4.86 100.948 73.355
4.87 100.258 73.257
4.88 99.485 72.889
4.89 100.576 72.478
4.90 103.876 72.188
4.91 104.837 71.636
4.92 105.126 70.308
4.93 107.558 67.768
4.94 107.044 64.065
4.95 105.698 59.991
4.96 102.389 56.704
4.97 99.826 55.661
4.98 --undefined-- 62.373
4.99 --undefined-- 69.951
5.00 131.726 74.211
5.01 126.623 75.731
5.02 121.247 75.250
5.03 111.835 73.354
5.04 101.029 70.719
5.05 99.926 67.846
5.06 --undefined-- 65.621
5.07 --undefined-- 66.272
5.08 --undefined-- 67.976
5.09 128.501 69.712
5.10 124.516 72.043
5.11 120.365 74.317
5.12 116.110 75.941
5.13 116.177 76.865
5.14 112.154 77.270
5.15 111.062 --undefined--
5.16 111.629 --undefined--
5.17 --undefined-- --undefined--
5.18 --undefined-- --undefined--
