Time Pitch Intensity
0.01 --undefined-- --undefined--
0.02 110.226 --undefined--
0.03 108.474 --undefined--
0.04 104.909 --undefined--
0.05 102.652 71.876
0.06 101.232 71.725
0.07 100.346 71.653
0.08 100.798 71.770
0.09 101.091 71.606
0.10 99.955 70.912
0.11 101.672 70.793
0.12 106.180 71.694
0.13 106.842 72.418
0.14 106.341 72.724
0.15 106.344 72.864
0.16 107.219 72.839
0.17 103.986 72.503
0.18 103.213 72.080
0.19 102.883 71.730
0.20 100.627 71.363
0.21 98.668 71.041
0.22 97.470 70.796
0.23 96.416 70.521
0.24 93.943 70.098
0.25 93.145 69.587
0.26 92.801 69.210
0.27 92.868 69.087
0.28 93.634 69.147
0.29 94.658 69.132
0.30 94.697 68.662
0.31 93.854 67.438
0.32 92.506 65.341
0.33 97.358 62.310
0.34 97.361 58.495
0.35 --undefined-- 54.687
0.36 --undefined-- 52.054
0.37 --undefined-- 52.058
0.38 --undefined-- 57.163
0.39 --undefined-- 65.123
0.40 130.126 70.326
0.41 118.872 72.839
0.42 111.147 73.770
0.43 109.316 74.194
0.44 108.421 74.410
0.45 108.896 74.372
0.46 109.014 73.979
0.47 109.220 73.213
0.48 109.448 72.125
0.49 108.263 70.496
0.50 106.728 67.969
0.51 116.069 64.606
0.52 133.925 60.883
0.53 --undefined-- 57.148
0.54 --undefined-- 55.528
0.55 --undefined-- 55.897
0.56 --undefined-- 55.570
0.57 --undefined-- 53.207
0.58 --undefined-- 49.564
0.59 --undefined-- 48.125
0.60 --undefined-- 48.116
0.61 --undefined-- 47.185
0.62 --undefined-- 45.765
0.63 --undefined-- 44.393
0.64 --undefined-- 43.467
0.65 --undefined-- 43.095
0.66 --undefined-- 42.450
0.67 --undefined-- 41.314
0.68 --undefined-- 40.595
0.69 --undefined-- 40.315
0.70 --undefined-- 39.532
0.71 --undefined-- 38.774
0.72 --undefined-- 37.646
0.73 --undefined-- 35.113
0.74 --undefined-- 31.967
0.75 --undefined-- 30.236
0.76 --undefined-- 41.404
0.77 --undefined-- 55.877
0.78 --undefined-- 64.511
0.79 --undefined-- 69.193
0.80 --undefined-- 70.927
0.81 --undefined-- 70.705
0.82 --undefined-- 69.300
0.83 --undefined-- 66.729
0.84 --undefined-- 64.918
0.85 --undefined-- 65.831
0.86 --undefined-- 67.410
0.87 125.741 68.772
0.88 126.619 70.002
0.89 125.906 70.603
0.90 123.367 70.507
0.91 119.138 70.614
0.92 117.651 71.198
0.93 117.287 71.306
0.94 116.510 70.478
0.95 114.700 69.350
0.96 113.051 68.720
0.97 112.105 68.622
0.98 112.281 68.717
0.99 112.415 68.401
1.00 112.691 67.803
1.01 112.216 67.208
1.02 110.873 67.030
1.03 111.047 67.435
1.04 111.992 67.641
1.05 112.822 67.751
1.06 112.837 67.911
1.07 112.469 67.697
1.08 112.509 67.355
1.09 112.396 67.116
1.10 111.817 66.737
1.11 111.272 66.169
1.12 110.745 65.732
1.13 110.368 65.807
1.14 110.137 66.158
1.15 110.336 66.587
1.16 110.803 66.633
1.17 110.337 66.034
1.18 109.653 65.162
1.19 109.861 65.145
1.20 110.804 66.292
1.21 111.057 67.795
1.22 111.061 69.554
1.23 111.270 70.816
1.24 111.006 70.852
1.25 109.900 70.156
1.26 109.763 69.891
1.27 110.086 70.015
1.28 110.214 69.908
1.29 110.374 69.558
1.30 109.968 69.324
1.31 109.982 69.342
1.32 108.978 69.143
1.33 105.915 68.838
1.34 105.123 68.730
1.35 104.173 68.059
1.36 102.496 66.850
1.37 101.517 65.680
1.38 84.460 64.017
1.39 --undefined-- 61.127
1.40 --undefined-- 56.143
1.41 --undefined-- 48.886
1.42 --undefined-- 44.435
1.43 --undefined-- 42.752
1.44 --undefined-- 41.274
1.45 --undefined-- 40.334
1.46 --undefined-- 41.253
1.47 --undefined-- 42.938
1.48 --undefined-- 43.982
1.49 --undefined-- 44.281
1.50 --undefined-- 44.008
1.51 --undefined-- 43.801
1.52 --undefined-- 44.195
1.53 --undefined-- 44.673
1.54 --undefined-- 44.311
1.55 --undefined-- 44.088
1.56 --undefined-- 44.619
1.57 --undefined-- 44.581
1.58 --undefined-- 44.170
1.59 --undefined-- 43.706
1.60 --undefined-- 42.514
1.61 --undefined-- 40.323
1.62 --undefined-- 38.815
1.63 --undefined-- 38.430
1.64 --undefined-- 36.838
1.65 --undefined-- 34.231
1.66 --undefined-- 32.916
1.67 --undefined-- 36.041
1.68 --undefined-- 49.284
1.69 --undefined-- 60.545
1.70 231.984 67.742
1.71 204.097 71.362
1.72 190.546 72.252
1.73 193.486 72.145
1.74 205.628 72.674
1.75 208.858 73.126
1.76 212.149 73.358
1.77 216.687 73.868
1.78 219.697 74.345
1.79 220.425 74.390
1.80 220.237 73.907
1.81 218.420 72.672
1.82 212.685 70.293
1.83 204.613 67.231
1.84 --undefined-- 69.375
1.85 --undefined-- 75.535
1.86 252.323 80.112
1.87 242.905 82.210
1.88 238.344 82.363
1.89 238.845 81.862
1.90 241.299 81.288
1.91 240.447 80.511
1.92 237.658 79.782
1.93 234.168 79.219
1.94 228.244 78.332
1.95 222.800 76.968
1.96 220.450 75.917
1.97 222.516 75.834
1.98 225.851 76.358
1.99 230.072 77.077
2.00 228.465 77.667
2.01 222.249 77.977
2.02 211.286 78.022
2.03 200.527 77.819
2.04 189.893 77.293
2.05 179.021 76.807
2.06 174.578 77.277
2.07 172.459 78.409
2.08 170.552 78.811
2.09 168.529 77.718
2.10 165.193 75.015
2.11 167.604 71.854
2.12 174.434 70.891
2.13 178.624 71.473
2.14 182.392 72.294
2.15 185.324 73.029
2.16 187.461 73.599
2.17 188.890 74.054
2.18 189.745 74.423
2.19 191.637 74.675
2.20 186.799 74.816
2.21 184.662 74.956
2.22 180.145 74.751
2.23 169.742 73.374
2.24 158.550 70.316
2.25 143.145 65.792
2.26 --undefined-- 61.762
2.27 --undefined-- 61.870
2.28 --undefined-- 63.405
2.29 --undefined-- 66.958
2.30 152.911 70.751
2.31 136.164 72.329
2.32 116.071 72.021
2.33 110.984 70.417
2.34 97.158 68.077
2.35 95.927 66.397
2.36 95.089 65.701
2.37 94.082 65.377
2.38 93.115 65.158
2.39 92.279 64.713
2.40 90.824 64.004
2.41 91.831 63.296
2.42 91.800 63.370
2.43 94.697 64.274
2.44 94.879 64.965
2.45 94.712 65.159
2.46 97.162 65.261
2.47 101.509 65.875
2.48 105.563 66.949
2.49 110.360 68.102
2.50 116.240 69.073
2.51 120.433 69.615
2.52 124.158 69.760
2.53 129.282 69.714
2.54 134.122 69.571
2.55 140.824 69.433
2.56 142.827 68.924
2.57 140.549 67.171
2.58 143.484 64.049
2.59 146.486 61.135
2.60 158.733 59.609
2.61 82.196 59.781
2.62 85.151 62.696
2.63 178.725 66.159
2.64 171.489 68.677
2.65 171.815 69.755
2.66 174.242 69.439
2.67 177.496 68.332
2.68 183.154 67.680
2.69 191.283 68.114
2.70 195.992 69.144
2.71 201.637 70.557
2.72 208.076 71.707
2.73 206.297 71.983
2.74 207.222 71.853
2.75 209.058 71.901
2.76 209.709 72.054
2.77 209.116 72.153
2.78 206.807 72.064
2.79 203.734 71.779
2.80 201.776 71.535
2.81 199.795 71.654
2.82 195.984 72.078
2.83 190.375 72.509
2.84 182.548 72.889
2.85 173.267 73.564
2.86 164.285 74.538
2.87 155.152 75.164
2.88 147.189 74.880
2.89 138.533 73.264
2.90 125.731 70.218
2.91 119.546 66.291
2.92 113.687 61.949
2.93 --undefined-- 57.759
2.94 --undefined-- 59.322
2.95 --undefined-- 64.911
2.96 --undefined-- 69.787
2.97 133.624 72.286
2.98 121.284 72.805
2.99 117.887 72.701
3.00 120.226 72.736
3.01 121.077 72.654
3.02 121.001 72.536
3.03 121.128 72.607
3.04 121.245 72.766
3.05 120.173 72.660
3.06 117.103 71.976
3.07 113.126 70.614
3.08 109.282 68.912
3.09 105.542 67.519
3.10 101.118 66.777
3.11 98.769 66.638
3.12 99.188 67.176
3.13 99.274 68.126
3.14 99.214 68.881
3.15 98.887 68.928
3.16 93.560 67.995
3.17 87.376 66.413
3.18 87.215 65.246
3.19 86.988 64.805
3.20 86.340 64.440
3.21 86.598 64.059
3.22 87.523 63.855
3.23 88.824 64.164
3.24 91.492 64.924
3.25 95.273 65.841
3.26 96.686 66.736
3.27 98.820 67.709
3.28 103.094 68.748
3.29 102.509 69.410
3.30 103.433 69.784
3.31 103.833 70.015
3.32 104.549 70.116
3.33 105.901 70.437
3.34 105.824 71.041
3.35 103.814 71.483
3.36 101.934 71.621
3.37 100.180 71.454
3.38 98.893 70.934
3.39 98.780 70.166
3.40 98.734 69.362
3.41 99.426 68.868
3.42 101.064 68.767
3.43 104.016 68.712
3.44 105.371 68.608
3.45 105.602 68.582
3.46 107.060 68.673
3.47 111.232 68.659
3.48 112.302 68.213
3.49 114.711 67.451
3.50 119.491 66.870
3.51 125.370 67.020
3.52 128.896 67.930
3.53 132.724 68.720
3.54 132.146 69.058
3.55 132.641 69.317
3.56 130.449 69.683
3.57 128.672 69.863
3.58 127.317 69.795
3.59 126.178 69.588
3.60 115.103 68.918
3.61 115.857 67.684
3.62 110.842 67.025
3.63 109.018 67.533
3.64 109.411 68.197
3.65 105.540 68.519
3.66 106.298 68.692
3.67 104.765 68.758
3.68 102.594 68.663
3.69 103.375 68.823
3.70 105.778 69.287
3.71 108.834 69.288
3.72 106.692 68.043
3.73 106.726 65.684
3.74 118.176 63.325
3.75 124.250 61.227
3.76 127.193 60.667
3.77 163.548 64.396
3.78 176.438 69.931
3.79 175.964 74.215
3.80 176.821 76.563
3.81 176.004 76.986
3.82 173.698 75.262
3.83 157.619 71.130
3.84 158.116 65.738
3.85 161.858 62.244
3.86 162.325 60.236
3.87 --undefined-- 60.689
3.88 --undefined-- 67.063
3.89 224.195 74.079
3.90 221.574 79.140
3.91 211.554 81.914
3.92 207.552 82.810
3.93 207.670 82.661
3.94 209.262 82.176
3.95 209.319 81.635
3.96 208.613 81.096
3.97 206.890 80.440
3.98 204.388 79.682
3.99 201.593 78.961
4.00 199.996 78.352
4.01 199.115 77.902
4.02 196.866 77.810
4.03 194.019 78.195
4.04 189.391 78.400
4.05 183.886 78.042
4.06 178.354 77.188
4.07 171.055 75.773
4.08 163.366 73.648
4.09 152.561 70.951
4.10 146.665 68.997
4.11 139.672 68.642
4.12 139.091 69.003
4.13 138.960 69.728
4.14 132.206 71.004
4.15 128.989 72.501
4.16 127.383 73.733
4.17 125.385 74.605
4.18 123.587 75.186
4.19 122.475 75.487
4.20 121.893 75.671
4.21 121.885 75.917
4.22 121.206 76.079
4.23 120.875 76.347
4.24 122.182 77.114
4.25 122.156 77.652
4.26 120.591 77.762
4.27 120.655 77.952
4.28 114.707 78.068
4.29 112.866 77.802
4.30 109.980 77.120
4.31 106.611 76.096
4.32 104.750 74.673
4.33 101.418 72.642
4.34 94.245 70.451
4.35 93.124 68.719
4.36 93.067 67.870
4.37 96.413 67.771
4.38 96.983 66.957
4.39 --undefined-- 63.893
4.40 --undefined-- 60.030
4.41 --undefined-- 64.624
4.42 --undefined-- 70.481
4.43 --undefined-- 73.875
4.44 128.040 75.131
4.45 119.450 75.569
4.46 117.460 75.838
4.47 116.832 75.609
4.48 116.217 74.951
4.49 115.854 74.423
4.50 117.451 74.404
4.51 120.335 74.695
4.52 121.532 74.830
4.53 120.912 74.608
4.54 120.280 73.971
4.55 118.768 72.702
4.56 116.055 70.495
4.57 112.608 67.588
4.58 112.301 64.454
4.59 111.664 61.043
4.60 --undefined-- 56.781
4.61 --undefined-- 55.587
4.62 --undefined-- 60.854
4.63 --undefined-- 67.435
4.64 --undefined-- 72.180
4.65 --undefined-- 74.626
4.66 115.945 75.590
4.67 112.245 75.693
4.68 112.202 75.354
4.69 111.743 74.836
4.70 112.257 74.265
4.71 116.897 73.928
4.72 119.178 73.620
4.73 121.706 72.701
4.74 126.210 71.041
4.75 125.372 68.585
4.76 121.964 65.185
4.77 119.231 61.124
4.78 --undefined-- 57.342
4.79 --undefined-- 59.508
4.80 --undefined-- 65.445
4.81 --undefined-- 70.210
4.82 120.269 72.746
4.83 112.438 73.742
4.84 106.032 73.995
4.85 103.684 73.852
4.86 101.214 73.438
4.87 99.522 73.100
4.88 98.373 73.316
4.89 97.323 73.987
4.90 98.947 74.899
4.91 104.163 75.761
4.92 105.317 76.057
4.93 112.655 75.833
4.94 115.577 75.433
4.95 119.472 75.016
4.96 125.109 74.774
4.97 128.378 74.771
4.98 133.598 74.824
4.99 139.954 74.746
5.00 146.736 74.232
5.01 148.182 72.922
5.02 143.841 70.401
5.03 135.373 66.323
5.04 --undefined-- 60.498
5.05 --undefined-- 53.201
5.06 --undefined-- 48.135
5.07 --undefined-- 47.928
5.08 --undefined-- 48.198
5.09 --undefined-- 48.143
5.10 --undefined-- 48.510
5.11 --undefined-- 52.263
5.12 --undefined-- 59.781
5.13 --undefined-- 65.783
5.14 --undefined-- 69.530
5.15 115.247 71.527
5.16 111.315 72.242
5.17 107.803 71.766
5.18 103.889 70.144
5.19 99.727 68.180
5.20 105.284 67.962
5.21 105.969 69.463
5.22 106.285 --undefined--
5.23 107.273 --undefined--
5.24 --undefined-- --undefined--
5.25 --undefined-- --undefined--
