Time Pitch Intensity
0.01 --undefined-- --undefined--
0.02 89.213 --undefined--
0.03 90.337 --undefined--
0.04 90.530 --undefined--
0.05 90.483 65.398
0.06 90.877 65.141
0.07 90.832 64.824
0.08 89.796 64.200
0.09 89.976 63.428
0.10 92.235 62.596
0.11 92.775 61.244
0.12 --undefined-- 58.659
0.13 --undefined-- 54.180
0.14 --undefined-- 47.744
0.15 --undefined-- 42.006
0.16 --undefined-- 51.902
0.17 --undefined-- 59.954
0.18 --undefined-- 63.719
0.19 --undefined-- 64.355
0.20 --undefined-- 62.043
0.21 --undefined-- 57.410
0.22 --undefined-- 56.672
0.23 --undefined-- 59.106
0.24 --undefined-- 61.496
0.25 98.447 63.019
0.26 98.800 63.381
0.27 96.321 63.728
0.28 95.993 63.887
0.29 94.514 63.243
0.30 93.563 62.507
0.31 93.791 63.009
0.32 93.752 64.306
0.33 94.060 65.188
0.34 94.528 65.371
0.35 95.961 65.246
0.36 96.670 64.761
0.37 95.853 63.653
0.38 96.100 62.004
0.39 --undefined-- 59.032
0.40 --undefined-- 53.229
0.41 --undefined-- 44.312
0.42 --undefined-- 43.954
0.43 --undefined-- 52.335
0.44 --undefined-- 59.154
0.45 118.041 63.380
0.46 117.274 65.296
0.47 116.653 65.309
0.48 112.385 63.338
0.49 --undefined-- 58.992
0.50 120.285 53.569
0.51 120.062 52.218
0.52 120.935 53.058
0.53 121.192 53.769
0.54 121.126 54.454
0.55 120.930 55.383
0.56 120.217 58.369
0.57 --undefined-- 64.156
0.58 --undefined-- 67.924
0.59 --undefined-- 68.954
0.60 112.273 68.414
0.61 108.583 67.599
0.62 109.355 67.068
0.63 105.777 67.116
0.64 104.743 67.395
0.65 101.345 66.774
0.66 102.498 65.017
0.67 --undefined-- 62.006
0.68 --undefined-- 56.348
0.69 --undefined-- 46.961
0.70 --undefined-- 38.900
0.71 --undefined-- 42.744
0.72 --undefined-- 54.960
0.73 --undefined-- 62.056
0.74 --undefined-- 64.636
0.75 --undefined-- 64.460
0.76 --undefined-- 64.651
0.77 --undefined-- 65.642
0.78 --undefined-- 65.654
0.79 --undefined-- 63.771
0.80 92.989 59.874
0.81 96.260 56.052
0.82 91.639 54.971
0.83 85.893 55.127
0.84 --undefined-- 54.813
0.85 78.141 53.931
0.86 75.411 53.165
0.87 --undefined-- 52.149
0.88 --undefined-- 50.152
0.89 --undefined-- 47.472
0.90 --undefined-- 46.585
0.91 --undefined-- 46.954
0.92 --undefined-- 46.904
0.93 --undefined-- 49.657
0.94 --undefined-- 52.696
0.95 83.049 53.420
0.96 81.140 53.850
0.97 81.643 56.580
0.98 82.248 60.590
0.99 81.793 64.081
1.00 80.901 66.344
1.01 --undefined-- 67.141
1.02 --undefined-- 66.447
1.03 --undefined-- 65.501
1.04 --undefined-- 64.954
1.05 79.375 64.404
1.06 79.648 64.159
1.07 80.983 63.937
1.08 80.545 62.812
1.09 82.316 61.105
1.10 82.521 59.838
1.11 82.843 58.177
1.12 82.641 56.243
1.13 86.718 55.745
1.14 88.185 56.424
1.15 89.129 57.453
1.16 90.627 58.721
1.17 91.486 60.117
1.18 91.304 61.587
1.19 91.302 63.412
1.20 91.815 64.967
1.21 92.070 65.516
1.22 90.757 65.944
1.23 91.499 66.830
1.24 91.726 67.398
1.25 91.995 66.794
1.26 91.353 64.867
1.27 92.135 62.720
1.28 91.826 61.359
1.29 91.013 60.066
1.30 90.528 59.301
1.31 91.072 59.776
1.32 --undefined-- 60.390
1.33 --undefined-- 60.594
1.34 --undefined-- 61.085
1.35 --undefined-- 60.754
1.36 --undefined-- 59.636
1.37 --undefined-- 58.405
1.38 --undefined-- 56.869
1.39 --undefined-- 55.268
1.40 --undefined-- 53.550
1.41 --undefined-- 51.850
1.42 --undefined-- 48.630
1.43 --undefined-- 43.132
1.44 --undefined-- 37.244
1.45 --undefined-- 38.218
1.46 --undefined-- 42.603
1.47 --undefined-- 45.194
1.48 --undefined-- 46.110
1.49 --undefined-- 46.916
1.50 --undefined-- 48.102
1.51 --undefined-- 48.931
1.52 --undefined-- 49.321
1.53 --undefined-- 49.052
1.54 --undefined-- 48.254
1.55 --undefined-- 47.208
1.56 --undefined-- 45.549
1.57 --undefined-- 43.868
1.58 --undefined-- 42.808
1.59 --undefined-- 41.887
1.60 --undefined-- 40.383
1.61 --undefined-- 38.135
1.62 --undefined-- 36.072
1.63 --undefined-- 33.951
1.64 --undefined-- 31.330
1.65 --undefined-- 30.146
1.66 --undefined-- 31.204
1.67 --undefined-- 32.824
1.68 --undefined-- 34.915
1.69 --undefined-- 36.546
1.70 --undefined-- 37.390
1.71 --undefined-- 39.652
1.72 --undefined-- 43.327
1.73 --undefined-- 45.966
1.74 --undefined-- 47.447
1.75 --undefined-- 52.000
1.76 --undefined-- 59.302
1.77 --undefined-- 63.639
1.78 98.561 64.559
1.79 98.733 64.058
1.80 98.783 64.414
1.81 97.929 64.785
1.82 94.209 64.091
1.83 90.678 62.373
1.84 93.769 60.978
1.85 93.359 61.495
1.86 95.467 64.044
1.87 93.311 66.317
1.88 97.060 67.443
1.89 96.141 68.002
1.90 96.201 67.884
1.91 93.984 66.578
1.92 94.382 64.871
1.93 94.230 63.625
1.94 94.021 62.239
1.95 92.912 59.919
1.96 91.192 57.018
1.97 94.915 55.608
1.98 96.445 56.365
1.99 98.361 57.475
2.00 100.091 57.518
2.01 101.909 56.803
2.02 104.289 56.472
2.03 --undefined-- 59.540
2.04 --undefined-- 63.867
2.05 106.698 66.587
2.06 106.906 67.617
2.07 106.686 67.361
2.08 108.418 66.767
2.09 107.833 65.932
2.10 107.501 64.338
2.11 106.863 61.946
2.12 --undefined-- 58.605
2.13 --undefined-- 53.889
2.14 --undefined-- 48.150
2.15 --undefined-- 44.181
2.16 87.715 44.098
2.17 88.574 46.879
2.18 89.320 51.155
2.19 90.667 55.002
2.20 89.817 57.683
2.21 88.432 59.505
2.22 87.391 60.685
2.23 86.749 61.008
2.24 84.595 60.355
2.25 82.462 58.945
2.26 --undefined-- 56.622
2.27 --undefined-- 52.229
2.28 --undefined-- 44.580
2.29 --undefined-- 36.258
2.30 --undefined-- 34.416
2.31 --undefined-- 34.325
2.32 --undefined-- 34.609
2.33 --undefined-- 34.944
2.34 --undefined-- 35.258
2.35 --undefined-- 35.334
2.36 --undefined-- 38.580
2.37 --undefined-- 48.732
2.38 --undefined-- 57.308
2.39 --undefined-- 64.011
2.40 --undefined-- 68.069
2.41 --undefined-- 69.130
2.42 89.211 67.390
2.43 88.863 63.650
2.44 86.855 59.906
2.45 84.850 57.389
2.46 83.653 55.225
2.47 81.063 53.000
2.48 81.046 50.911
2.49 78.665 49.516
2.50 78.617 48.768
2.51 78.058 48.301
2.52 79.579 47.977
2.53 79.737 47.929
2.54 81.994 48.624
2.55 81.854 49.599
2.56 81.214 51.015
2.57 80.560 52.267
2.58 80.341 52.991
2.59 --undefined-- 56.015
2.60 --undefined-- 60.008
2.61 --undefined-- 63.157
2.62 84.160 65.093
2.63 83.522 65.903
2.64 83.006 66.189
2.65 82.890 66.616
2.66 82.952 67.358
2.67 83.156 68.248
2.68 --undefined-- 68.059
2.69 81.265 66.177
2.70 80.900 64.549
2.71 80.250 63.668
2.72 --undefined-- 61.876
2.73 --undefined-- 59.069
2.74 --undefined-- 56.737
2.75 --undefined-- 56.598
2.76 --undefined-- 56.883
2.77 --undefined-- 55.231
2.78 --undefined-- 50.094
2.79 --undefined-- 41.365
2.80 --undefined-- 35.527
2.81 --undefined-- 34.738
2.82 --undefined-- 34.546
2.83 --undefined-- 35.172
2.84 --undefined-- 36.140
2.85 --undefined-- 37.371
2.86 --undefined-- 38.884
2.87 --undefined-- 40.002
2.88 --undefined-- 40.641
2.89 --undefined-- 40.635
2.90 --undefined-- 40.486
2.91 --undefined-- 41.072
2.92 --undefined-- 41.961
2.93 --undefined-- 42.223
2.94 --undefined-- 41.663
2.95 --undefined-- 40.522
2.96 --undefined-- 39.619
2.97 --undefined-- 43.942
2.98 --undefined-- 51.171
2.99 --undefined-- 54.648
3.00 --undefined-- 53.955
3.01 --undefined-- 49.211
3.02 --undefined-- 42.417
3.03 --undefined-- 40.035
3.04 --undefined-- 38.451
3.05 --undefined-- 35.887
3.06 --undefined-- 34.205
3.07 --undefined-- 33.747
3.08 --undefined-- 33.787
3.09 --undefined-- 33.898
3.10 --undefined-- 43.628
3.11 --undefined-- 54.030
3.12 --undefined-- 59.215
3.13 --undefined-- 60.037
3.14 --undefined-- 58.489
3.15 --undefined-- 62.887
3.16 --undefined-- 67.660
3.17 98.164 69.033
3.18 98.151 67.193
3.19 99.512 62.639
3.20 103.665 58.812
3.21 107.874 58.658
3.22 108.698 58.842
3.23 109.579 58.714
3.24 110.173 58.203
3.25 109.394 58.641
3.26 --undefined-- 60.143
3.27 --undefined-- 59.832
3.28 103.201 58.927
3.29 102.487 61.468
3.30 100.781 64.985
3.31 100.142 67.364
3.32 99.444 68.733
3.33 97.390 69.395
3.34 96.752 69.409
3.35 95.340 68.786
3.36 --undefined-- 66.973
3.37 --undefined-- 62.686
3.38 --undefined-- 55.205
3.39 --undefined-- 54.710
3.40 --undefined-- 60.844
3.41 --undefined-- 65.100
3.42 89.766 66.740
3.43 88.328 66.650
3.44 84.428 66.169
3.45 84.466 65.685
3.46 82.306 65.591
3.47 81.653 65.942
3.48 80.242 65.799
3.49 80.584 64.660
3.50 80.600 62.908
3.51 80.098 60.854
3.52 --undefined-- 58.301
3.53 --undefined-- 54.260
3.54 --undefined-- 47.668
3.55 --undefined-- 39.485
3.56 --undefined-- 35.645
3.57 --undefined-- 35.589
3.58 --undefined-- 35.127
3.59 --undefined-- 35.183
3.60 --undefined-- 47.067
3.61 --undefined-- 56.321
3.62 --undefined-- 60.829
3.63 --undefined-- 63.206
3.64 --undefined-- 65.921
3.65 107.242 67.465
3.66 109.366 67.404
3.67 108.877 66.801
3.68 108.725 66.235
3.69 108.293 65.643
3.70 107.456 64.917
3.71 106.176 63.907
3.72 105.971 62.762
3.73 105.070 61.774
3.74 103.640 61.022
3.75 102.655 60.524
3.76 102.459 60.238
3.77 102.952 60.145
3.78 103.152 60.129
3.79 103.581 60.054
3.80 104.366 60.106
3.81 104.941 60.543
3.82 105.469 61.423
3.83 106.159 62.576
3.84 104.868 63.153
3.85 --undefined-- 61.930
3.86 --undefined-- 58.591
3.87 --undefined-- 56.516
3.88 --undefined-- 57.476
3.89 --undefined-- 58.940
3.90 --undefined-- 60.797
3.91 --undefined-- 62.133
3.92 --undefined-- 62.695
3.93 --undefined-- 63.203
3.94 --undefined-- 63.341
3.95 --undefined-- 62.626
3.96 --undefined-- 62.233
3.97 --undefined-- 62.887
3.98 94.028 63.196
3.99 92.061 64.325
4.00 91.504 66.560
4.01 87.766 68.275
4.02 84.600 68.678
4.03 83.147 68.060
4.04 80.384 67.754
4.05 80.409 68.270
4.06 78.945 69.257
4.07 77.627 69.678
4.08 76.284 69.540
4.09 76.603 69.258
4.10 77.059 69.097
4.11 76.074 69.007
4.12 76.540 68.423
4.13 76.770 67.574
4.14 75.680 66.818
4.15 74.833 66.059
4.16 74.717 65.399
4.17 74.719 64.696
4.18 74.914 64.119
4.19 75.453 63.771
4.20 75.442 63.272
4.21 75.264 61.975
4.22 --undefined-- 58.801
4.23 --undefined-- 52.704
4.24 --undefined-- 44.117
4.25 --undefined-- 38.365
4.26 --undefined-- 38.135
4.27 --undefined-- 38.289
4.28 --undefined-- 37.264
4.29 --undefined-- 35.504
4.30 --undefined-- 34.780
4.31 --undefined-- 36.276
4.32 --undefined-- 38.360
4.33 --undefined-- 40.470
4.34 --undefined-- 41.279
4.35 --undefined-- 40.093
4.36 --undefined-- 40.961
4.37 --undefined-- 48.457
4.38 --undefined-- 54.622
4.39 87.607 58.387
4.40 85.142 60.289
4.41 84.315 61.025
4.42 84.082 61.060
4.43 82.818 60.965
4.44 83.740 61.496
4.45 83.734 61.986
4.46 83.517 61.853
4.47 84.237 61.578
4.48 84.509 61.462
4.49 84.668 61.772
4.50 84.805 62.840
4.51 82.779 63.238
4.52 83.051 62.175
4.53 83.462 60.103
4.54 84.571 57.888
4.55 --undefined-- 55.847
4.56 --undefined-- 53.601
4.57 --undefined-- 51.563
4.58 --undefined-- 50.962
4.59 --undefined-- 51.394
4.60 --undefined-- 51.996
4.61 --undefined-- 53.734
4.62 --undefined-- 57.662
4.63 91.342 61.284
4.64 89.142 63.085
4.65 87.434 63.311
4.66 89.076 63.294
4.67 89.681 63.892
4.68 92.047 64.570
4.69 91.934 64.230
4.70 --undefined-- 61.893
4.71 --undefined-- 59.219
4.72 --undefined-- 64.035
4.73 --undefined-- 68.588
4.74 --undefined-- 70.622
4.75 --undefined-- 70.602
4.76 --undefined-- 69.386
4.77 --undefined-- 67.361
4.78 --undefined-- 64.493
4.79 --undefined-- 61.484
4.80 117.112 59.542
4.81 112.107 58.514
4.82 108.337 57.717
4.83 104.505 57.932
4.84 101.691 58.705
4.85 101.637 59.017
4.86 101.136 58.532
4.87 100.826 57.818
4.88 100.785 57.145
4.89 101.445 55.773
4.90 101.756 53.256
4.91 --undefined-- 50.945
4.92 --undefined-- 59.557
4.93 --undefined-- 67.154
4.94 --undefined-- 70.995
4.95 --undefined-- 72.255
4.96 --undefined-- 71.010
4.97 --undefined-- 66.819
4.98 --undefined-- 61.176
4.99 --undefined-- 60.016
5.00 --undefined-- 62.674
5.01 --undefined-- 65.464
5.02 89.548 67.338
5.03 87.684 68.231
5.04 85.492 68.318
5.05 85.155 67.857
5.06 83.190 66.795
5.07 82.789 65.847
5.08 82.894 65.393
5.09 86.727 65.866
5.10 87.892 66.988
5.11 89.904 67.392
5.12 92.873 67.451
5.13 96.180 67.485
5.14 99.424 66.956
5.15 103.251 64.910
5.16 106.386 61.033
5.17 --undefined-- 56.500
5.18 --undefined-- 52.920
5.19 --undefined-- 48.816
5.20 --undefined-- 42.369
5.21 --undefined-- 38.088
5.22 --undefined-- 38.549
5.23 --undefined-- 39.359
5.24 --undefined-- 40.407
5.25 --undefined-- 42.896
5.26 --undefined-- 45.706
5.27 --undefined-- 46.642
5.28 --undefined-- 45.831
5.29 --undefined-- 44.517
5.30 --undefined-- 43.091
5.31 --undefined-- 41.502
5.32 --undefined-- 40.358
5.33 --undefined-- 39.597
5.34 --undefined-- 39.194
5.35 --undefined-- 38.812
5.36 --undefined-- 37.773
5.37 --undefined-- 36.298
5.38 --undefined-- 36.895
5.39 --undefined-- 41.731
5.40 --undefined-- 46.315
5.41 --undefined-- 47.251
5.42 --undefined-- 44.177
5.43 --undefined-- 38.860
5.44 --undefined-- 39.055
5.45 --undefined-- 43.109
5.46 --undefined-- 46.792
5.47 --undefined-- 54.282
5.48 --undefined-- 60.937
5.49 --undefined-- 63.565
5.50 --undefined-- 62.760
5.51 98.649 60.283
5.52 98.515 58.995
5.53 97.594 58.738
5.54 96.926 58.148
5.55 96.782 57.369
5.56 97.970 57.619
5.57 99.562 59.646
5.58 99.453 61.439
5.59 98.097 62.185
5.60 96.894 62.550
5.61 95.790 63.044
5.62 94.216 63.609
5.63 93.569 63.624
5.64 90.937 62.691
5.65 90.348 61.159
5.66 87.508 59.391
5.67 86.463 57.871
5.68 --undefined-- 58.828
5.69 --undefined-- 63.081
5.70 87.457 65.779
5.71 87.167 66.283
5.72 86.928 65.708
5.73 84.853 64.567
5.74 82.635 62.241
5.75 85.705 58.595
5.76 85.385 55.665
5.77 85.245 52.731
5.78 84.053 49.511
5.79 83.325 47.919
5.80 82.212 46.474
5.81 --undefined-- 47.962
5.82 --undefined-- 53.240
5.83 --undefined-- 56.995
5.84 88.759 60.417
5.85 88.877 --undefined--
5.86 85.917 --undefined--
5.87 --undefined-- --undefined--
5.88 --undefined-- --undefined--
