Time Pitch Intensity
0.01 --undefined-- --undefined--
0.02 187.415 --undefined--
0.03 190.065 --undefined--
0.04 201.123 --undefined--
0.05 197.422 68.574
0.06 204.672 67.878
0.07 209.077 67.369
0.08 221.834 67.236
0.09 245.782 67.288
0.10 254.972 67.434
0.11 267.008 67.990
0.12 277.490 68.919
0.13 281.958 69.755
0.14 282.546 70.270
0.15 281.546 70.248
0.16 279.858 69.649
0.17 275.189 68.774
0.18 270.854 68.090
0.19 264.699 67.492
0.20 254.981 66.922
0.21 248.913 66.754
0.22 244.370 66.668
0.23 240.291 66.338
0.24 234.884 65.810
0.25 229.702 65.322
0.26 226.620 65.048
0.27 225.837 64.918
0.28 225.668 64.600
0.29 222.737 63.637
0.30 219.731 61.327
0.31 220.199 56.835
0.32 --undefined-- 49.710
0.33 --undefined-- 45.379
0.34 --undefined-- 50.898
0.35 --undefined-- 54.415
0.36 --undefined-- 54.650
0.37 178.932 54.925
0.38 182.910 57.712
0.39 208.533 60.275
0.40 --undefined-- 62.669
0.41 --undefined-- 64.947
0.42 161.796 66.202
0.43 158.490 65.961
0.44 158.397 64.426
0.45 165.051 62.959
0.46 172.262 62.639
0.47 174.548 62.084
0.48 172.235 59.795
0.49 --undefined-- 56.410
0.50 --undefined-- 55.298
0.51 --undefined-- 56.124
0.52 --undefined-- 57.689
0.53 --undefined-- 62.126
0.54 --undefined-- 71.339
0.55 --undefined-- 77.991
0.56 --undefined-- 80.599
0.57 --undefined-- 79.948
0.58 197.011 77.480
0.59 190.782 74.012
0.60 188.327 69.781
0.61 187.696 67.492
0.62 187.282 66.650
0.63 185.422 64.865
0.64 185.772 63.947
0.65 --undefined-- 64.950
0.66 --undefined-- 65.917
0.67 --undefined-- 64.445
0.68 --undefined-- 59.816
0.69 --undefined-- 57.215
0.70 --undefined-- 58.306
0.71 --undefined-- 57.764
0.72 244.612 58.098
0.73 228.244 59.793
0.74 226.434 61.110
0.75 223.090 61.638
0.76 218.441 61.574
0.77 212.996 61.113
0.78 210.076 59.864
0.79 207.622 57.305
0.80 204.531 53.884
0.81 --undefined-- 50.733
0.82 --undefined-- 48.541
0.83 --undefined-- 49.905
0.84 --undefined-- 51.444
0.85 --undefined-- 52.400
0.86 --undefined-- 52.476
0.87 --undefined-- 50.560
0.88 --undefined-- 50.446
0.89 --undefined-- 52.417
0.90 --undefined-- 54.102
0.91 --undefined-- 56.565
0.92 --undefined-- 59.766
0.93 --undefined-- 62.329
0.94 --undefined-- 64.045
0.95 82.756 65.614
0.96 81.668 66.611
0.97 80.270 66.353
0.98 79.643 65.399
0.99 160.305 64.519
1.00 161.471 63.617
1.01 163.246 62.930
1.02 165.227 62.780
1.03 170.471 63.302
1.04 180.304 64.524
1.05 187.065 65.658
1.06 194.566 66.319
1.07 203.875 66.786
1.08 215.020 67.264
1.09 225.235 67.942
1.10 236.049 68.951
1.11 241.773 69.841
1.12 243.034 70.419
1.13 240.994 71.063
1.14 235.327 71.709
1.15 224.589 72.522
1.16 217.034 73.316
1.17 209.687 73.189
1.18 199.752 71.637
1.19 191.403 68.651
1.20 186.727 64.355
1.21 201.435 59.412
1.22 202.034 55.725
1.23 --undefined-- 54.752
1.24 --undefined-- 54.990
1.25 --undefined-- 54.894
1.26 --undefined-- 55.163
1.27 --undefined-- 54.554
1.28 --undefined-- 52.202
1.29 --undefined-- 50.696
1.30 --undefined-- 50.711
1.31 --undefined-- 49.709
1.32 --undefined-- 49.517
1.33 --undefined-- 50.290
1.34 --undefined-- 52.127
1.35 --undefined-- 54.378
1.36 --undefined-- 54.435
1.37 --undefined-- 51.706
1.38 --undefined-- 49.958
1.39 --undefined-- 52.726
1.40 --undefined-- 55.136
1.41 --undefined-- 55.420
1.42 --undefined-- 53.586
1.43 --undefined-- 53.751
1.44 --undefined-- 55.076
1.45 --undefined-- 54.336
1.46 --undefined-- 52.192
1.47 --undefined-- 49.781
1.48 --undefined-- 49.449
1.49 --undefined-- 51.922
1.50 --undefined-- 58.210
1.51 --undefined-- 63.991
1.52 151.155 67.653
1.53 155.309 70.093
1.54 159.857 71.907
1.55 162.317 72.595
1.56 164.201 71.975
1.57 167.566 71.224
1.58 169.597 70.982
1.59 172.945 70.401
1.60 175.871 69.678
1.61 179.423 69.550
1.62 183.007 69.537
1.63 186.878 69.040
1.64 187.493 68.511
1.65 182.433 68.656
1.66 181.494 68.559
1.67 176.041 66.753
1.68 157.182 62.690
1.69 --undefined-- 56.832
1.70 --undefined-- 52.099
1.71 --undefined-- 51.376
1.72 --undefined-- 53.907
1.73 --undefined-- 57.429
1.74 286.178 61.288
1.75 290.287 64.350
1.76 271.521 65.233
1.77 262.638 64.389
1.78 252.018 62.999
1.79 243.847 61.481
1.80 236.042 59.644
1.81 218.013 57.748
1.82 --undefined-- 55.833
1.83 --undefined-- 56.147
1.84 --undefined-- 58.334
1.85 --undefined-- 61.313
1.86 208.176 64.198
1.87 194.323 66.573
1.88 185.950 68.637
1.89 183.010 69.783
1.90 182.522 69.907
1.91 184.276 69.185
1.92 187.040 67.786
1.93 190.504 66.215
1.94 196.293 64.623
1.95 202.826 62.414
1.96 207.204 58.947
1.97 201.578 54.494
1.98 --undefined-- 51.317
1.99 --undefined-- 50.590
2.00 --undefined-- 50.597
2.01 --undefined-- 50.079
2.02 --undefined-- 49.479
2.03 --undefined-- 48.860
2.04 --undefined-- 48.180
2.05 --undefined-- 50.521
2.06 --undefined-- 52.865
2.07 --undefined-- 53.119
2.08 --undefined-- 54.207
2.09 --undefined-- 56.892
2.10 294.420 61.241
2.11 291.505 65.400
2.12 286.381 67.719
2.13 281.896 68.517
2.14 279.779 68.634
2.15 279.137 68.485
2.16 277.683 67.571
2.17 277.531 66.798
2.18 288.454 68.034
2.19 290.963 69.491
2.20 293.759 70.312
2.21 295.043 70.695
2.22 295.416 70.924
2.23 294.108 70.905
2.24 290.813 70.415
2.25 285.298 69.434
2.26 275.796 67.827
2.27 261.798 65.588
2.28 229.820 63.836
2.29 214.358 63.720
2.30 200.267 63.763
2.31 200.049 63.485
2.32 --undefined-- 63.187
2.33 --undefined-- 63.193
2.34 --undefined-- 63.177
2.35 --undefined-- 60.816
2.36 --undefined-- 56.226
2.37 --undefined-- 55.358
2.38 --undefined-- 58.527
2.39 --undefined-- 61.839
2.40 --undefined-- 65.464
2.41 --undefined-- 68.883
2.42 217.348 70.530
2.43 229.908 70.341
2.44 241.238 69.285
2.45 258.447 68.202
2.46 268.589 66.726
2.47 276.882 64.338
2.48 283.310 61.103
2.49 284.507 57.292
2.50 --undefined-- 54.376
2.51 --undefined-- 54.764
2.52 --undefined-- 55.467
2.53 --undefined-- 54.525
2.54 --undefined-- 52.660
2.55 --undefined-- 51.403
2.56 --undefined-- 50.270
2.57 --undefined-- 49.841
2.58 --undefined-- 50.260
2.59 --undefined-- 52.656
2.60 --undefined-- 57.286
2.61 --undefined-- 60.394
2.62 218.236 61.722
2.63 177.947 62.246
2.64 167.931 61.787
2.65 165.776 60.986
2.66 159.798 61.290
2.67 155.800 61.307
2.68 152.685 60.389
2.69 150.157 59.802
2.70 149.813 60.333
2.71 152.815 61.622
2.72 156.597 62.951
2.73 160.403 64.288
2.74 163.588 65.458
2.75 164.240 65.795
2.76 163.133 65.263
2.77 162.471 64.545
2.78 163.776 64.276
2.79 166.825 64.499
2.80 169.639 64.443
2.81 172.532 63.410
2.82 175.518 61.100
2.83 177.533 57.123
2.84 --undefined-- 51.473
2.85 --undefined-- 47.757
2.86 --undefined-- 47.710
2.87 --undefined-- 49.058
2.88 --undefined-- 50.754
2.89 --undefined-- 51.042
2.90 --undefined-- 49.637
2.91 --undefined-- 52.194
2.92 --undefined-- 57.799
2.93 --undefined-- 61.793
2.94 --undefined-- 65.311
2.95 163.401 67.999
2.96 159.726 68.543
2.97 159.021 66.984
2.98 162.499 65.175
2.99 --undefined-- 64.365
3.00 184.069 63.252
3.01 183.576 61.392
3.02 190.630 58.835
3.03 184.667 55.714
3.04 --undefined-- 52.701
3.05 --undefined-- 51.408
3.06 --undefined-- 52.602
3.07 --undefined-- 52.889
3.08 --undefined-- 51.085
3.09 --undefined-- 47.575
3.10 --undefined-- 44.389
3.11 --undefined-- 43.659
3.12 --undefined-- 42.967
3.13 --undefined-- 43.039
3.14 --undefined-- 44.237
3.15 --undefined-- 47.691
3.16 --undefined-- 54.626
3.17 --undefined-- 59.715
3.18 175.069 62.036
3.19 170.205 62.494
3.20 168.361 62.107
3.21 165.219 61.260
3.22 157.777 59.615
3.23 151.512 57.684
3.24 160.315 57.452
3.25 160.708 57.827
3.26 158.105 57.395
3.27 156.327 56.625
3.28 157.191 56.344
3.29 156.209 56.049
3.30 153.432 54.538
3.31 --undefined-- 51.217
3.32 --undefined-- 47.637
3.33 --undefined-- 48.532
3.34 --undefined-- 49.736
3.35 --undefined-- 52.725
3.36 --undefined-- 59.323
3.37 --undefined-- 63.494
3.38 --undefined-- 65.074
3.39 163.708 65.300
3.40 160.680 65.144
3.41 159.086 64.933
3.42 157.875 64.642
3.43 157.102 64.019
3.44 157.377 63.340
3.45 157.992 63.152
3.46 157.748 63.057
3.47 157.217 62.655
3.48 156.545 62.014
3.49 156.728 61.006
3.50 157.283 59.604
3.51 153.684 57.666
3.52 153.983 54.986
3.53 --undefined-- 53.069
3.54 --undefined-- 51.870
3.55 --undefined-- 48.710
3.56 --undefined-- 44.665
3.57 --undefined-- 44.796
3.58 --undefined-- 46.749
3.59 --undefined-- 48.231
3.60 --undefined-- 49.633
3.61 --undefined-- 56.368
3.62 195.612 62.488
3.63 192.691 66.308
3.64 188.157 68.662
3.65 184.251 70.145
3.66 181.363 71.113
3.67 180.549 71.808
3.68 180.834 72.281
3.69 181.156 72.762
3.70 180.840 73.297
3.71 180.234 73.717
3.72 178.863 74.087
3.73 177.557 74.513
3.74 176.474 74.648
3.75 176.188 74.107
3.76 176.894 73.297
3.77 88.284 72.437
3.78 87.676 71.097
3.79 86.435 69.481
3.80 83.813 67.675
3.81 --undefined-- 65.090
3.82 --undefined-- 61.287
3.83 --undefined-- 57.127
3.84 --undefined-- 55.111
3.85 --undefined-- 54.370
3.86 --undefined-- 52.562
3.87 --undefined-- 49.930
3.88 --undefined-- 49.240
3.89 --undefined-- 49.864
3.90 --undefined-- 49.513
3.91 --undefined-- 47.816
3.92 --undefined-- 46.691
3.93 --undefined-- 49.214
3.94 --undefined-- 51.934
3.95 --undefined-- 53.295
3.96 --undefined-- 53.006
3.97 --undefined-- 51.440
3.98 --undefined-- 49.332
3.99 --undefined-- 47.349
4.00 --undefined-- 48.299
4.01 --undefined-- 49.986
4.02 --undefined-- 52.179
4.03 --undefined-- 53.646
4.04 --undefined-- 52.872
4.05 --undefined-- 52.852
4.06 --undefined-- 53.927
4.07 --undefined-- 52.984
4.08 --undefined-- 50.923
4.09 --undefined-- 49.566
4.10 --undefined-- 49.571
4.11 --undefined-- 50.433
4.12 --undefined-- 51.191
4.13 --undefined-- 50.618
4.14 --undefined-- 47.829
4.15 --undefined-- 44.994
4.16 --undefined-- 46.444
4.17 --undefined-- 49.972
4.18 --undefined-- 51.770
4.19 --undefined-- 50.440
4.20 --undefined-- 47.510
4.21 --undefined-- 46.177
4.22 --undefined-- 44.450
4.23 --undefined-- 43.608
4.24 --undefined-- 44.577
4.25 --undefined-- 45.188
4.26 --undefined-- 46.124
4.27 --undefined-- 47.729
4.28 --undefined-- 50.277
4.29 --undefined-- 56.243
4.30 --undefined-- 63.063
4.31 180.755 67.353
4.32 187.473 69.416
4.33 185.501 70.457
4.34 185.926 71.054
4.35 187.787 71.297
4.36 190.135 71.369
4.37 192.039 71.389
4.38 193.864 71.302
4.39 195.325 70.907
4.40 194.846 70.506
4.41 190.783 70.895
4.42 191.065 71.519
4.43 191.596 71.682
4.44 192.874 71.390
4.45 196.783 70.601
4.46 196.408 68.826
4.47 185.277 65.400
4.48 --undefined-- 61.056
4.49 --undefined-- 61.387
4.50 --undefined-- 63.536
4.51 --undefined-- 64.749
4.52 191.569 66.479
4.53 187.513 67.905
4.54 181.988 68.685
4.55 178.328 69.051
4.56 176.477 69.089
4.57 175.439 68.853
4.58 174.159 68.257
4.59 172.191 67.496
4.60 169.632 67.015
4.61 164.739 67.195
4.62 158.231 67.769
4.63 151.204 68.059
4.64 289.730 68.380
4.65 280.656 68.945
4.66 270.836 69.116
4.67 256.552 68.611
4.68 239.831 67.267
4.69 227.937 64.826
4.70 211.672 60.737
4.71 --undefined-- 55.012
4.72 --undefined-- 50.568
4.73 --undefined-- 48.994
4.74 --undefined-- 50.599
4.75 201.915 54.952
4.76 203.681 57.813
4.77 206.365 58.511
4.78 206.542 58.773
4.79 209.215 59.117
4.80 199.895 59.372
4.81 164.613 61.441
4.82 164.053 65.952
4.83 --undefined-- 70.349
4.84 --undefined-- 72.830
4.85 --undefined-- 72.875
4.86 167.292 71.064
4.87 164.208 69.208
4.88 164.130 66.904
4.89 162.298 64.475
4.90 161.218 64.634
4.91 160.813 64.102
4.92 160.256 61.138
4.93 151.743 57.568
4.94 154.218 57.584
4.95 --undefined-- 57.668
4.96 --undefined-- 57.193
4.97 --undefined-- 57.939
4.98 209.127 59.855
4.99 213.563 61.331
5.00 214.430 63.004
5.01 189.739 65.927
5.02 183.938 69.115
5.03 182.204 71.392
5.04 180.464 72.418
5.05 178.943 72.413
5.06 176.600 71.747
5.07 --undefined-- 70.131
5.08 --undefined-- 66.895
5.09 --undefined-- --undefined--
5.10 --undefined-- --undefined--
5.11 --undefined-- --undefined--
5.12 --undefined-- --undefined--
