Time Pitch Intensity
0.01 --undefined-- --undefined--
0.02 104.689 --undefined--
0.03 104.649 --undefined--
0.04 --undefined-- --undefined--
0.05 151.400 71.480
0.06 145.722 74.438
0.07 136.562 74.949
0.08 133.442 74.194
0.09 134.393 72.846
0.10 133.987 70.119
0.11 132.604 65.248
0.12 139.778 59.430
0.13 138.204 55.980
0.14 135.344 55.554
0.15 --undefined-- 63.112
0.16 --undefined-- 71.302
0.17 232.666 75.774
0.18 231.460 77.323
0.19 231.912 77.487
0.20 232.653 77.481
0.21 233.677 77.571
0.22 233.031 77.416
0.23 231.416 76.134
0.24 217.968 72.774
0.25 204.208 67.432
0.26 191.085 61.171
0.27 --undefined-- 59.697
0.28 --undefined-- 64.437
0.29 --undefined-- 67.237
0.30 --undefined-- 68.370
0.31 --undefined-- 68.925
0.32 135.353 69.278
0.33 120.364 69.459
0.34 111.066 70.473
0.35 113.798 72.067
0.36 116.402 72.840
0.37 114.579 72.380
0.38 113.696 71.765
0.39 108.989 71.550
0.40 106.003 71.149
0.41 103.786 70.525
0.42 103.958 69.852
0.43 102.866 69.127
0.44 101.792 68.464
0.45 100.027 67.963
0.46 99.020 67.789
0.47 98.561 67.961
0.48 98.529 68.409
0.49 98.905 68.985
0.50 99.392 69.363
0.51 99.721 69.456
0.52 100.215 69.592
0.53 101.951 70.059
0.54 103.616 70.704
0.55 106.283 71.293
0.56 107.057 71.727
0.57 108.734 72.037
0.58 109.334 72.165
0.59 109.561 71.856
0.60 110.427 70.786
0.61 111.914 68.707
0.62 116.481 66.307
0.63 124.695 65.313
0.64 126.595 66.117
0.65 129.702 68.024
0.66 131.900 70.325
0.67 134.049 72.531
0.68 135.876 74.247
0.69 138.206 75.241
0.70 139.830 75.564
0.71 140.351 75.772
0.72 140.454 76.311
0.73 138.997 76.876
0.74 137.056 77.114
0.75 133.589 77.082
0.76 132.553 77.077
0.77 133.109 77.324
0.78 134.417 77.513
0.79 135.080 77.280
0.80 134.960 76.558
0.81 133.610 75.471
0.82 128.929 74.434
0.83 119.092 74.059
0.84 116.472 73.599
0.85 --undefined-- 71.765
0.86 --undefined-- 68.520
0.87 --undefined-- 64.507
0.88 --undefined-- 61.721
0.89 --undefined-- 63.811
0.90 --undefined-- 67.068
0.91 --undefined-- 69.763
0.92 113.621 72.362
0.93 119.297 74.315
0.94 119.120 75.243
0.95 118.185 75.462
0.96 116.706 75.433
0.97 115.764 75.383
0.98 114.604 75.299
0.99 109.581 74.942
1.00 106.754 74.399
1.01 104.255 73.860
1.02 101.838 73.225
1.03 99.935 71.850
1.04 97.039 69.234
1.05 96.778 66.993
1.06 99.239 67.354
1.07 98.159 67.986
1.08 95.423 68.046
1.09 94.504 68.002
1.10 95.526 68.191
1.11 97.394 68.543
1.12 98.896 68.915
1.13 100.649 69.348
1.14 102.971 69.833
1.15 105.316 70.252
1.16 107.743 70.433
1.17 109.060 69.904
1.18 107.226 68.071
1.19 108.756 64.972
1.20 111.263 61.711
1.21 106.083 58.394
1.22 105.118 54.774
1.23 --undefined-- 59.239
1.24 --undefined-- 67.291
1.25 --undefined-- 72.596
1.26 --undefined-- 74.817
1.27 126.482 74.696
1.28 122.230 73.903
1.29 119.081 73.682
1.30 118.352 73.707
1.31 117.418 73.321
1.32 116.657 72.255
1.33 113.448 70.359
1.34 115.911 68.847
1.35 118.844 69.520
1.36 120.246 70.573
1.37 121.579 71.364
1.38 122.478 71.991
1.39 123.425 72.442
1.40 124.008 72.643
1.41 125.019 72.336
1.42 128.402 71.466
1.43 132.274 70.340
1.44 136.937 69.466
1.45 142.670 69.248
1.46 148.315 69.850
1.47 151.374 71.620
1.48 155.188 73.931
1.49 162.180 75.749
1.50 169.261 76.605
1.51 177.060 76.558
1.52 178.454 76.266
1.53 178.838 76.214
1.54 178.664 76.021
1.55 178.483 75.863
1.56 183.399 76.202
1.57 183.844 76.487
1.58 183.432 76.242
1.59 177.780 75.654
1.60 175.377 75.113
1.61 173.697 74.433
1.62 172.923 73.356
1.63 176.354 71.930
1.64 177.444 70.970
1.65 165.332 70.834
1.66 158.454 70.969
1.67 157.301 71.202
1.68 159.192 71.628
1.69 163.436 72.641
1.70 169.143 74.069
1.71 174.806 75.515
1.72 179.053 76.367
1.73 179.709 76.145
1.74 179.261 75.182
1.75 177.992 74.143
1.76 175.595 72.703
1.77 168.980 70.042
1.78 162.290 66.040
1.79 163.661 61.731
1.80 173.080 57.726
1.81 --undefined-- 54.110
1.82 --undefined-- 51.853
1.83 --undefined-- 50.849
1.84 --undefined-- 53.068
1.85 --undefined-- 56.432
1.86 --undefined-- 59.398
1.87 --undefined-- 64.650
1.88 --undefined-- 69.379
1.89 130.126 71.457
1.90 122.684 71.316
1.91 113.787 70.349
1.92 105.207 69.450
1.93 100.317 69.031
1.94 98.058 69.247
1.95 96.006 69.257
1.96 94.715 69.031
1.97 94.295 69.026
1.98 95.094 69.109
1.99 96.713 69.170
2.00 97.615 69.192
2.01 98.392 69.126
2.02 99.142 68.795
2.03 98.951 67.633
2.04 97.491 65.519
2.05 106.752 63.251
2.06 110.675 61.459
2.07 --undefined-- 62.363
2.08 --undefined-- 64.875
2.09 --undefined-- 66.999
2.10 --undefined-- 70.657
2.11 --undefined-- 73.743
2.12 126.437 74.617
2.13 119.268 74.295
2.14 115.426 74.172
2.15 112.355 74.170
2.16 110.083 74.146
2.17 108.849 74.130
2.18 108.478 73.669
2.19 106.079 72.456
2.20 108.571 71.765
2.21 108.167 72.060
2.22 110.066 72.759
2.23 115.347 73.918
2.24 113.806 74.646
2.25 113.830 74.423
2.26 113.644 73.767
2.27 113.493 73.467
2.28 114.066 73.563
2.29 114.243 73.533
2.30 113.886 73.073
2.31 113.200 72.355
2.32 112.291 72.024
2.33 111.756 72.091
2.34 109.833 72.002
2.35 108.585 71.661
2.36 109.290 71.394
2.37 113.260 71.426
2.38 116.066 71.602
2.39 120.910 71.931
2.40 123.185 72.423
2.41 124.881 72.843
2.42 125.067 73.063
2.43 124.006 72.993
2.44 123.799 72.876
2.45 124.847 73.062
2.46 127.365 73.349
2.47 128.301 73.466
2.48 127.440 73.435
2.49 124.323 73.390
2.50 120.703 73.314
2.51 116.544 72.876
2.52 113.760 71.444
2.53 110.379 68.266
2.54 98.613 62.798
2.55 104.384 56.264
2.56 109.297 52.224
2.57 --undefined-- 48.973
2.58 --undefined-- 45.136
2.59 --undefined-- 41.807
2.60 --undefined-- 40.229
2.61 --undefined-- 40.187
2.62 --undefined-- 44.238
2.63 --undefined-- 54.154
2.64 --undefined-- 64.138
2.65 --undefined-- 71.053
2.66 --undefined-- 74.431
2.67 129.336 75.093
2.68 125.924 74.525
2.69 121.494 74.143
2.70 120.580 74.316
2.71 120.917 74.131
2.72 119.493 72.460
2.73 114.801 68.836
2.74 118.946 63.702
2.75 123.512 58.911
2.76 123.272 55.650
2.77 122.764 52.581
2.78 --undefined-- 49.709
2.79 --undefined-- 48.141
2.80 --undefined-- 46.903
2.81 --undefined-- 45.399
2.82 --undefined-- 44.890
2.83 --undefined-- 45.096
2.84 --undefined-- 48.836
2.85 --undefined-- 58.886
2.86 --undefined-- 67.739
2.87 --undefined-- 73.075
2.88 170.471 75.165
2.89 167.517 75.254
2.90 159.628 74.763
2.91 154.482 74.035
2.92 150.088 73.361
2.93 147.806 73.296
2.94 147.500 73.579
2.95 147.926 73.737
2.96 148.593 73.767
2.97 148.651 73.979
2.98 148.175 74.577
2.99 147.468 75.301
3.00 145.879 75.769
3.01 142.193 75.755
3.02 143.033 75.626
3.03 143.405 75.691
3.04 142.320 75.693
3.05 141.702 75.521
3.06 144.472 75.034
3.07 137.825 74.223
3.08 135.518 73.707
3.09 133.242 73.712
3.10 132.699 73.511
3.11 132.052 72.871
3.12 129.125 71.889
3.13 127.509 69.886
3.14 130.255 65.800
3.15 128.244 59.188
3.16 131.930 52.661
3.17 137.665 50.891
3.18 --undefined-- 50.506
3.19 --undefined-- 51.204
3.20 --undefined-- 52.657
3.21 --undefined-- 54.318
3.22 --undefined-- 55.046
3.23 --undefined-- 54.887
3.24 --undefined-- 54.791
3.25 --undefined-- 54.692
3.26 --undefined-- 54.863
3.27 --undefined-- 55.257
3.28 --undefined-- 54.910
3.29 --undefined-- 53.847
3.30 --undefined-- 52.888
3.31 --undefined-- 52.033
3.32 --undefined-- 50.483
3.33 --undefined-- 48.189
3.34 --undefined-- 45.809
3.35 --undefined-- 44.596
3.36 --undefined-- 44.575
3.37 --undefined-- 43.904
3.38 --undefined-- 42.179
3.39 --undefined-- 40.246
3.40 --undefined-- 42.956
3.41 --undefined-- 53.095
3.42 205.683 62.429
3.43 202.719 69.462
3.44 213.137 74.059
3.45 216.851 76.453
3.46 224.962 77.469
3.47 227.414 77.808
3.48 226.124 77.254
3.49 217.762 76.094
3.50 221.147 75.984
3.51 229.679 76.654
3.52 232.921 76.842
3.53 232.480 76.606
3.54 230.009 76.292
3.55 226.643 75.701
3.56 218.651 74.231
3.57 204.244 71.457
3.58 182.122 67.361
3.59 172.394 63.239
3.60 --undefined-- 64.540
3.61 --undefined-- 70.298
3.62 194.968 74.697
3.63 202.364 76.693
3.64 204.995 76.888
3.65 199.495 76.063
3.66 194.446 75.244
3.67 194.981 75.493
3.68 195.601 76.193
3.69 196.134 76.492
3.70 197.154 76.075
3.71 204.699 74.886
3.72 210.709 73.040
3.73 199.864 70.225
3.74 181.704 66.773
3.75 183.927 64.025
3.76 190.534 60.160
3.77 202.162 54.397
3.78 --undefined-- 50.503
3.79 --undefined-- 48.342
3.80 --undefined-- 46.426
3.81 --undefined-- 45.056
3.82 --undefined-- 44.229
3.83 --undefined-- 44.717
3.84 --undefined-- 46.849
3.85 --undefined-- 50.777
3.86 --undefined-- 55.028
3.87 --undefined-- 57.430
3.88 --undefined-- 58.103
3.89 --undefined-- 60.042
3.90 --undefined-- 67.158
3.91 218.113 73.505
3.92 221.187 76.659
3.93 224.087 77.289
3.94 221.032 76.283
3.95 211.902 73.676
3.96 192.603 68.904
3.97 172.770 62.998
3.98 183.139 59.184
3.99 206.245 55.655
4.00 209.237 52.314
4.01 --undefined-- 49.755
4.02 --undefined-- 47.948
4.03 --undefined-- 47.032
4.04 --undefined-- 45.136
4.05 --undefined-- 42.978
4.06 --undefined-- 41.262
4.07 --undefined-- 41.458
4.08 --undefined-- 46.625
4.09 --undefined-- 54.364
4.10 --undefined-- 60.015
4.11 --undefined-- 66.321
4.12 --undefined-- 72.030
4.13 141.491 74.794
4.14 136.775 75.026
4.15 116.462 73.958
4.16 112.323 72.669
4.17 107.295 70.506
4.18 98.638 66.490
4.19 97.799 62.490
4.20 98.652 60.682
4.21 99.774 58.674
4.22 107.662 55.448
4.23 --undefined-- 51.362
4.24 --undefined-- 48.174
4.25 --undefined-- 47.161
4.26 --undefined-- 48.011
4.27 --undefined-- 54.176
4.28 --undefined-- 62.668
4.29 136.960 69.009
4.30 136.098 72.291
4.31 115.787 73.147
4.32 113.422 72.865
4.33 108.669 71.924
4.34 104.552 70.111
4.35 119.095 69.408
4.36 122.911 70.427
4.37 126.690 71.798
4.38 130.647 73.170
4.39 133.274 74.264
4.40 135.155 74.900
4.41 136.272 75.247
4.42 138.394 75.484
4.43 138.488 75.427
4.44 132.634 74.981
4.45 128.581 74.695
4.46 124.607 74.548
4.47 120.588 74.406
4.48 119.349 74.322
4.49 120.118 74.173
4.50 122.226 74.100
4.51 124.433 73.997
4.52 125.705 73.795
4.53 132.668 74.163
4.54 138.913 74.929
4.55 140.618 75.203
4.56 141.631 74.709
4.57 142.408 73.425
4.58 143.506 71.286
4.59 144.087 68.314
4.60 140.562 64.371
4.61 134.615 59.550
4.62 --undefined-- 54.055
4.63 --undefined-- 49.765
4.64 --undefined-- 47.549
4.65 --undefined-- 46.433
4.66 --undefined-- 56.294
4.67 --undefined-- 66.085
4.68 --undefined-- 71.858
4.69 --undefined-- 74.222
4.70 125.335 74.361
4.71 117.185 73.783
4.72 114.362 73.696
4.73 113.331 74.078
4.74 112.803 74.494
4.75 112.373 74.819
4.76 112.089 74.978
4.77 111.594 74.778
4.78 111.822 74.329
4.79 112.547 74.106
4.80 112.530 74.167
4.81 112.672 74.180
4.82 112.623 73.812
4.83 110.883 72.567
4.84 107.621 69.979
4.85 106.094 65.762
4.86 109.707 60.799
4.87 112.610 56.390
4.88 --undefined-- 55.606
4.89 --undefined-- 58.551
4.90 --undefined-- 59.307
4.91 --undefined-- 58.090
4.92 --undefined-- 57.963
4.93 --undefined-- 61.099
4.94 --undefined-- 67.163
4.95 119.674 71.523
4.96 117.053 73.010
4.97 117.086 72.534
4.98 117.614 71.679
4.99 116.987 71.401
5.00 115.561 71.535
5.01 110.598 71.644
5.02 108.819 71.861
5.03 106.071 72.010
5.04 104.668 71.784
5.05 104.801 71.358
5.06 106.112 70.954
5.07 109.162 70.708
5.08 112.411 70.435
5.09 114.028 69.929
5.10 117.478 69.505
5.11 121.612 69.615
5.12 123.041 70.255
5.13 124.933 71.185
5.14 127.965 72.270
5.15 131.278 73.287
5.16 133.617 73.770
5.17 134.716 73.178
5.18 133.281 71.409
5.19 132.290 69.268
5.20 133.676 68.041
5.21 138.000 --undefined--
5.22 141.044 --undefined--
5.23 --undefined-- --undefined--
5.24 --undefined-- --undefined--
