Time Pitch Intensity
0.01 --undefined-- --undefined--
0.02 221.705 --undefined--
0.03 218.627 --undefined--
0.04 215.687 --undefined--
0.05 212.914 73.867
0.06 210.755 74.001
0.07 208.728 74.151
0.08 207.971 74.365
0.09 208.594 74.658
0.10 209.947 74.968
0.11 211.412 75.175
0.12 212.184 75.095
0.13 211.492 74.349
0.14 207.964 72.429
0.15 201.554 69.223
0.16 --undefined-- 65.503
0.17 --undefined-- 61.536
0.18 --undefined-- 56.049
0.19 --undefined-- 50.726
0.20 --undefined-- 50.359
0.21 --undefined-- 53.027
0.22 --undefined-- 56.642
0.23 --undefined-- 60.605
0.24 --undefined-- 64.285
0.25 195.457 66.881
0.26 205.311 68.375
0.27 207.826 69.421
0.28 206.380 70.445
0.29 204.892 71.204
0.30 203.470 71.625
0.31 202.699 71.798
0.32 203.211 71.627
0.33 204.860 71.028
0.34 207.148 70.178
0.35 208.846 69.289
0.36 210.379 68.355
0.37 210.903 67.097
0.38 207.026 64.835
0.39 202.815 60.862
0.40 --undefined-- 54.908
0.41 --undefined-- 47.769
0.42 --undefined-- 44.890
0.43 --undefined-- 45.179
0.44 --undefined-- 46.228
0.45 --undefined-- 50.831
0.46 --undefined-- 59.947
0.47 275.265 66.556
0.48 264.540 69.906
0.49 259.480 71.309
0.50 258.189 72.144
0.51 257.525 72.803
0.52 256.950 73.062
0.53 257.021 72.911
0.54 257.418 72.614
0.55 258.413 72.483
0.56 259.257 72.473
0.57 260.804 72.174
0.58 263.383 71.266
0.59 264.414 69.751
0.60 261.434 67.614
0.61 255.068 64.641
0.62 248.321 60.935
0.63 241.541 57.162
0.64 --undefined-- 54.314
0.65 --undefined-- 50.655
0.66 --undefined-- 45.899
0.67 --undefined-- 45.491
0.68 --undefined-- 47.310
0.69 --undefined-- 53.559
0.70 --undefined-- 62.589
0.71 280.384 68.038
0.72 266.812 70.562
0.73 259.785 71.507
0.74 256.180 71.833
0.75 253.737 71.706
0.76 252.161 71.103
0.77 250.829 70.288
0.78 249.718 69.596
0.79 247.832 69.122
0.80 242.693 68.594
0.81 234.731 67.576
0.82 233.746 65.628
0.83 237.311 61.984
0.84 250.819 56.173
0.85 --undefined-- 51.302
0.86 --undefined-- 57.918
0.87 277.983 65.010
0.88 262.974 68.715
0.89 258.168 70.342
0.90 255.504 71.137
0.91 254.005 71.646
0.92 253.007 71.809
0.93 252.155 71.607
0.94 251.452 71.228
0.95 250.604 70.803
0.96 248.853 70.313
0.97 244.636 69.550
0.98 235.555 68.162
0.99 229.597 65.889
1.00 234.326 62.307
1.01 244.089 56.854
1.02 --undefined-- 50.072
1.03 --undefined-- 46.523
1.04 --undefined-- 50.054
1.05 --undefined-- 58.435
1.06 240.448 66.135
1.07 224.395 70.413
1.08 210.520 71.729
1.09 201.003 71.338
1.10 196.025 70.992
1.11 191.140 71.072
1.12 186.207 70.955
1.13 181.709 70.604
1.14 179.108 70.477
1.15 177.382 70.676
1.16 176.927 70.937
1.17 177.177 71.096
1.18 178.478 71.125
1.19 180.183 71.078
1.20 182.027 70.904
1.21 184.882 70.481
1.22 186.825 69.696
1.23 186.317 68.353
1.24 185.921 66.052
1.25 189.518 62.148
1.26 --undefined-- 55.786
1.27 --undefined-- 47.588
1.28 --undefined-- 44.243
1.29 --undefined-- 44.204
1.30 --undefined-- 44.676
1.31 --undefined-- 50.977
1.32 --undefined-- 61.549
1.33 235.665 68.500
1.34 236.626 72.282
1.35 235.604 73.773
1.36 233.101 74.016
1.37 231.194 74.002
1.38 230.747 74.355
1.39 232.154 74.924
1.40 232.466 75.387
1.41 232.464 75.784
1.42 232.328 76.183
1.43 231.729 76.585
1.44 230.994 76.988
1.45 230.199 77.200
1.46 227.099 76.772
1.47 222.525 75.192
1.48 217.748 71.843
1.49 212.330 66.026
1.50 --undefined-- 57.152
1.51 --undefined-- 47.607
1.52 --undefined-- 44.593
1.53 --undefined-- 43.913
1.54 --undefined-- 52.412
1.55 --undefined-- 62.583
1.56 195.090 68.378
1.57 180.151 70.688
1.58 161.371 70.774
1.59 153.303 70.229
1.60 152.337 70.035
1.61 152.996 70.176
1.62 154.350 70.470
1.63 157.430 70.884
1.64 160.289 71.308
1.65 162.603 71.429
1.66 162.778 71.129
1.67 165.260 70.977
1.68 171.034 71.447
1.69 176.843 72.326
1.70 184.049 73.411
1.71 191.007 74.451
1.72 197.780 75.213
1.73 204.731 75.696
1.74 211.144 76.041
1.75 217.098 76.285
1.76 222.341 76.322
1.77 225.763 76.054
1.78 226.380 75.311
1.79 223.673 73.846
1.80 214.293 71.344
1.81 194.670 67.412
1.82 205.974 62.034
1.83 207.979 56.876
1.84 --undefined-- 53.146
1.85 --undefined-- 47.871
1.86 --undefined-- 42.141
1.87 --undefined-- 39.713
1.88 --undefined-- 39.197
1.89 --undefined-- 39.759
1.90 --undefined-- 40.110
1.91 --undefined-- 40.687
1.92 --undefined-- 41.637
1.93 --undefined-- 41.771
1.94 --undefined-- 41.554
1.95 --undefined-- 41.982
1.96 --undefined-- 42.356
1.97 --undefined-- 42.068
1.98 --undefined-- 41.216
1.99 --undefined-- 40.767
2.00 --undefined-- 42.602
2.01 --undefined-- 43.014
2.02 --undefined-- 40.984
2.03 --undefined-- 39.843
2.04 --undefined-- 40.014
2.05 --undefined-- 40.187
2.06 --undefined-- 40.401
2.07 --undefined-- 41.629
2.08 --undefined-- 47.626
2.09 --undefined-- 59.860
2.10 244.979 68.251
2.11 240.008 72.970
2.12 230.900 75.347
2.13 227.441 76.653
2.14 226.108 77.577
2.15 225.013 78.219
2.16 224.496 78.494
2.17 224.834 78.357
2.18 225.111 77.949
2.19 223.853 77.279
2.20 221.788 76.025
2.21 220.213 73.937
2.22 217.371 70.448
2.23 212.220 64.467
2.24 --undefined-- 54.940
2.25 --undefined-- 43.741
2.26 --undefined-- 45.485
2.27 --undefined-- 49.561
2.28 --undefined-- 53.132
2.29 --undefined-- 55.035
2.30 --undefined-- 54.497
2.31 --undefined-- 51.834
2.32 --undefined-- 49.137
2.33 --undefined-- 53.055
2.34 --undefined-- 62.103
2.35 212.355 68.191
2.36 205.085 71.313
2.37 198.435 72.551
2.38 194.203 72.997
2.39 191.975 73.238
2.40 190.135 73.382
2.41 188.759 73.391
2.42 188.183 73.306
2.43 188.182 73.219
2.44 188.459 73.153
2.45 189.636 73.082
2.46 190.163 72.960
2.47 189.806 72.604
2.48 187.824 71.320
2.49 183.817 68.285
2.50 181.447 63.734
2.51 183.935 59.140
2.52 187.540 54.026
2.53 --undefined-- 47.190
2.54 --undefined-- 40.970
2.55 --undefined-- 38.891
2.56 --undefined-- 38.092
2.57 --undefined-- 36.765
2.58 --undefined-- 36.501
2.59 --undefined-- 37.809
2.60 --undefined-- 38.915
2.61 --undefined-- 39.248
2.62 --undefined-- 40.815
2.63 --undefined-- 43.049
2.64 --undefined-- 44.056
2.65 --undefined-- 44.061
2.66 --undefined-- 42.819
2.67 --undefined-- 42.201
2.68 --undefined-- 47.095
2.69 --undefined-- 53.665
2.70 --undefined-- 61.530
2.71 267.897 67.956
2.72 262.385 71.834
2.73 258.764 73.799
2.74 256.311 74.419
2.75 257.100 73.987
2.76 258.595 72.888
2.77 258.607 71.721
2.78 257.050 70.805
2.79 252.617 69.771
2.80 244.149 67.840
2.81 232.268 64.343
2.82 228.421 58.896
2.83 --undefined-- 51.866
2.84 --undefined-- 46.970
2.85 --undefined-- 45.804
2.86 --undefined-- 45.858
2.87 --undefined-- 54.462
2.88 239.629 63.067
2.89 227.858 67.893
2.90 213.735 69.863
2.91 199.238 70.226
2.92 188.384 70.357
2.93 181.864 70.802
2.94 178.423 71.129
2.95 177.030 71.106
2.96 177.173 71.080
2.97 177.311 71.193
2.98 177.991 71.249
2.99 178.011 71.234
3.00 178.162 71.173
3.01 178.956 70.967
3.02 180.606 70.585
3.03 183.280 70.201
3.04 186.605 70.082
3.05 188.719 70.238
3.06 188.737 70.216
3.07 185.671 69.468
3.08 173.931 67.596
3.09 167.104 64.419
3.10 164.548 60.076
3.11 170.533 55.871
3.12 --undefined-- 53.356
3.13 --undefined-- 51.297
3.14 --undefined-- 48.743
3.15 --undefined-- 47.352
3.16 --undefined-- 47.671
3.17 --undefined-- 48.818
3.18 --undefined-- 53.898
3.19 239.341 61.092
3.20 261.886 66.093
3.21 268.861 69.089
3.22 268.175 70.996
3.23 266.496 72.270
3.24 265.438 73.039
3.25 264.715 73.495
3.26 262.325 73.855
3.27 258.054 74.285
3.28 257.777 74.781
3.29 259.353 75.077
3.30 260.269 75.115
3.31 261.098 75.079
3.32 260.722 75.088
3.33 258.738 75.091
3.34 255.457 75.000
3.35 251.155 74.747
3.36 245.735 74.297
3.37 239.323 73.763
3.38 234.288 73.356
3.39 230.628 73.231
3.40 226.360 73.377
3.41 218.438 73.389
3.42 205.505 72.786
3.43 188.197 71.451
3.44 170.707 70.065
3.45 161.105 69.232
3.46 151.953 68.605
3.47 144.888 68.082
3.48 139.313 67.691
3.49 136.887 67.441
3.50 134.787 67.265
3.51 135.982 67.146
3.52 138.233 67.212
3.53 141.191 67.365
3.54 144.892 67.500
3.55 148.578 67.611
3.56 148.935 67.595
3.57 146.542 67.524
3.58 146.217 67.498
3.59 145.714 67.337
3.60 140.062 66.802
3.61 139.721 66.142
3.62 138.781 66.030
3.63 138.276 66.340
3.64 138.888 66.491
3.65 139.689 66.338
3.66 141.976 66.144
3.67 145.294 66.040
3.68 149.460 65.951
3.69 156.238 65.885
3.70 162.353 65.933
3.71 169.816 66.155
3.72 181.614 67.000
3.73 193.317 68.383
3.74 199.653 69.306
3.75 199.168 69.061
3.76 198.839 67.386
3.77 192.727 64.413
3.78 194.532 61.336
3.79 201.727 60.117
3.80 201.309 60.885
3.81 201.880 62.700
3.82 204.398 64.898
3.83 212.572 67.278
3.84 218.981 69.444
3.85 212.249 70.825
3.86 202.911 71.321
3.87 197.909 71.377
3.88 194.327 71.502
3.89 192.830 71.650
3.90 190.676 71.646
3.91 189.401 71.592
3.92 188.399 71.635
3.93 187.964 71.799
3.94 187.942 72.099
3.95 188.311 72.497
3.96 188.383 72.924
3.97 188.156 73.299
3.98 187.947 73.588
3.99 188.166 73.793
4.00 189.061 73.823
4.01 190.135 73.617
4.02 191.459 73.232
4.03 191.971 72.693
4.04 192.331 72.016
4.05 191.710 71.173
4.06 189.298 70.112
4.07 183.680 68.664
4.08 182.418 66.579
4.09 116.427 63.538
4.10 116.007 59.080
4.11 --undefined-- 52.945
4.12 --undefined-- 46.298
4.13 --undefined-- 42.693
4.14 --undefined-- 41.740
4.15 --undefined-- 41.753
4.16 --undefined-- 42.086
4.17 --undefined-- 41.989
4.18 --undefined-- 40.872
4.19 --undefined-- 40.640
4.20 --undefined-- 41.955
4.21 --undefined-- 42.326
4.22 --undefined-- 41.759
4.23 --undefined-- 40.789
4.24 --undefined-- 39.396
4.25 --undefined-- 39.649
4.26 --undefined-- 42.088
4.27 --undefined-- 43.213
4.28 --undefined-- 42.542
4.29 --undefined-- 41.660
4.30 --undefined-- 41.413
4.31 --undefined-- 41.684
4.32 --undefined-- 41.515
4.33 --undefined-- 41.040
4.34 --undefined-- 40.388
4.35 --undefined-- 39.950
4.36 --undefined-- 39.202
4.37 --undefined-- 38.641
4.38 --undefined-- 38.712
4.39 --undefined-- 38.389
4.40 --undefined-- 38.302
4.41 --undefined-- 39.316
4.42 --undefined-- 41.303
4.43 --undefined-- 43.106
4.44 --undefined-- 42.668
4.45 --undefined-- 40.445
4.46 --undefined-- 39.830
4.47 --undefined-- 40.438
4.48 --undefined-- 40.595
4.49 --undefined-- 40.196
4.50 --undefined-- 40.273
4.51 --undefined-- 44.912
4.52 --undefined-- 51.982
4.53 --undefined-- 57.126
4.54 --undefined-- 63.437
4.55 278.382 69.466
4.56 270.449 73.411
4.57 271.165 75.412
4.58 270.875 76.130
4.59 269.373 75.950
4.60 267.182 75.095
4.61 264.907 73.772
4.62 263.254 72.100
4.63 263.264 70.497
4.64 263.834 69.384
4.65 264.525 68.807
4.66 265.461 68.548
4.67 265.592 68.506
4.68 264.620 68.472
4.69 257.732 67.666
4.70 242.472 65.155
4.71 231.670 60.456
4.72 237.571 53.792
4.73 --undefined-- 46.996
4.74 --undefined-- 44.624
4.75 --undefined-- 44.686
4.76 --undefined-- 44.077
4.77 --undefined-- 45.409
4.78 --undefined-- 52.906
4.79 --undefined-- 62.336
4.80 216.302 68.117
4.81 201.609 70.650
4.82 182.306 71.155
4.83 173.797 71.194
4.84 164.629 70.858
4.85 158.346 70.028
4.86 157.330 69.596
4.87 157.706 69.671
4.88 158.066 69.717
4.89 158.552 69.150
4.90 157.311 66.994
4.91 155.688 62.433
4.92 --undefined-- 55.507
4.93 --undefined-- 48.031
4.94 --undefined-- 46.360
4.95 --undefined-- 50.718
4.96 --undefined-- 54.851
4.97 --undefined-- 56.376
4.98 --undefined-- 56.500
4.99 178.860 59.816
5.00 188.179 64.618
5.01 190.691 67.648
5.02 184.741 69.104
5.03 179.357 69.662
5.04 175.599 69.642
5.05 171.958 69.332
5.06 169.069 69.351
5.07 167.515 69.773
5.08 167.028 70.076
5.09 168.079 70.205
5.10 169.258 70.428
5.11 169.713 70.584
5.12 170.837 70.429
5.13 171.735 69.932
5.14 171.746 68.833
5.15 169.214 66.921
5.16 168.271 64.033
5.17 170.251 59.968
5.18 169.480 54.104
5.19 --undefined-- 47.073
5.20 --undefined-- 43.276
5.21 --undefined-- 42.603
5.22 --undefined-- 42.897
5.23 --undefined-- 45.743
5.24 --undefined-- 55.360
5.25 --undefined-- 62.782
5.26 155.434 66.796
5.27 152.604 68.590
5.28 148.936 69.336
5.29 147.751 69.708
5.30 148.872 69.850
5.31 151.256 69.733
5.32 153.877 69.562
5.33 155.581 69.620
5.34 156.947 69.800
5.35 157.738 69.956
5.36 158.402 70.119
5.37 160.012 70.327
5.38 162.626 70.548
5.39 165.949 70.705
5.40 169.477 70.790
5.41 173.488 70.851
5.42 178.411 70.923
5.43 183.314 71.065
5.44 188.001 71.341
5.45 193.396 71.667
5.46 199.467 71.743
5.47 206.528 71.581
5.48 212.911 71.451
5.49 218.725 71.348
5.50 223.380 71.121
5.51 224.764 70.505
5.52 223.450 69.029
5.53 226.474 66.368
5.54 --undefined-- 62.257
5.55 --undefined-- 56.030
5.56 --undefined-- 46.630
5.57 --undefined-- 39.423
5.58 --undefined-- 39.332
5.59 --undefined-- 42.532
5.60 --undefined-- 46.326
5.61 --undefined-- 47.622
5.62 --undefined-- 46.799
5.63 --undefined-- 45.696
5.64 --undefined-- 44.599
5.65 --undefined-- 43.531
5.66 --undefined-- 43.612
5.67 --undefined-- 44.423
5.68 --undefined-- 44.279
5.69 --undefined-- 43.779
5.70 --undefined-- 43.543
5.71 --undefined-- 42.687
5.72 --undefined-- 41.924
5.73 --undefined-- 41.230
5.74 --undefined-- 40.835
5.75 --undefined-- 41.189
5.76 --undefined-- 40.245
5.77 --undefined-- 38.425
5.78 --undefined-- 38.297
5.79 --undefined-- 38.548
5.80 --undefined-- 39.069
5.81 --undefined-- 40.625
5.82 --undefined-- 40.989
5.83 --undefined-- 42.589
5.84 --undefined-- 50.175
5.85 --undefined-- 55.330
5.86 --undefined-- 57.197
5.87 --undefined-- 61.885
5.88 211.141 --undefined--
5.89 211.302 --undefined--
5.90 --undefined-- --undefined--
5.91 --undefined-- --undefined--
