Time Pitch Intensity
0.01 --undefined-- --undefined--
0.02 173.341 --undefined--
0.03 157.821 --undefined--
0.04 141.338 --undefined--
0.05 136.995 69.446
0.06 134.303 69.814
0.07 132.758 70.148
0.08 131.835 70.361
0.09 131.922 70.304
0.10 130.588 69.748
0.11 124.830 68.401
0.12 113.620 65.750
0.13 105.741 61.166
0.14 103.833 55.464
0.15 100.194 53.398
0.16 127.152 55.693
0.17 126.990 58.411
0.18 130.413 61.188
0.19 143.351 64.059
0.20 145.978 66.131
0.21 145.125 67.116
0.22 143.522 67.574
0.23 141.803 68.021
0.24 140.719 68.580
0.25 140.896 69.197
0.26 139.961 69.695
0.27 138.016 70.046
0.28 136.534 70.339
0.29 135.975 70.432
0.30 135.623 70.074
0.31 135.312 69.071
0.32 134.509 67.196
0.33 131.894 64.212
0.34 128.281 59.706
0.35 --undefined-- 52.965
0.36 --undefined-- 43.800
0.37 --undefined-- 36.129
0.38 --undefined-- 36.868
0.39 --undefined-- 48.358
0.40 --undefined-- 59.881
0.41 --undefined-- 66.980
0.42 176.103 70.357
0.43 169.150 71.376
0.44 166.545 71.520
0.45 163.678 71.492
0.46 160.948 71.626
0.47 160.280 72.267
0.48 161.237 73.050
0.49 161.102 73.584
0.50 160.939 73.895
0.51 161.146 74.048
0.52 162.198 74.061
0.53 164.270 73.899
0.54 166.821 73.357
0.55 169.354 72.131
0.56 170.038 69.807
0.57 171.139 65.763
0.58 --undefined-- 59.205
0.59 --undefined-- 51.599
0.60 --undefined-- 52.929
0.61 --undefined-- 59.044
0.62 --undefined-- 66.900
0.63 221.991 71.696
0.64 219.575 73.580
0.65 216.674 73.819
0.66 215.651 73.796
0.67 214.326 73.982
0.68 212.348 74.222
0.69 209.711 74.386
0.70 207.018 74.395
0.71 205.496 74.227
0.72 206.457 73.828
0.73 208.245 72.939
0.74 207.251 71.010
0.75 198.628 67.407
0.76 196.850 61.814
0.77 --undefined-- 54.436
0.78 --undefined-- 46.484
0.79 --undefined-- 43.875
0.80 --undefined-- 48.646
0.81 --undefined-- 55.670
0.82 --undefined-- 63.204
0.83 191.390 67.860
0.84 183.979 69.687
0.85 176.626 69.895
0.86 169.753 69.567
0.87 165.161 69.339
0.88 163.446 69.378
0.89 163.033 69.347
0.90 162.768 68.979
0.91 160.515 68.203
0.92 155.316 67.001
0.93 145.528 65.555
0.94 142.377 64.214
0.95 146.023 63.374
0.96 153.009 63.392
0.97 164.194 64.688
0.98 177.404 66.835
0.99 186.762 68.868
1.00 193.501 70.400
1.01 197.074 71.373
1.02 200.874 71.921
1.03 204.244 72.257
1.04 206.820 72.497
1.05 209.078 72.703
1.06 210.403 72.837
1.07 209.456 72.987
1.08 208.648 73.967
1.09 213.984 75.405
1.10 213.558 76.207
1.11 214.158 76.521
1.12 215.313 76.583
1.13 216.297 76.177
1.14 217.533 74.854
1.15 215.754 71.995
1.16 211.298 66.910
1.17 --undefined-- 59.373
1.18 --undefined-- 56.305
1.19 --undefined-- 58.157
1.20 --undefined-- 57.711
1.21 --undefined-- 56.232
1.22 --undefined-- 55.865
1.23 --undefined-- 58.170
1.24 179.279 62.664
1.25 181.969 66.120
1.26 182.488 67.975
1.27 151.979 68.506
1.28 140.235 68.148
1.29 128.959 67.659
1.30 127.380 67.337
1.31 123.622 66.752
1.32 117.811 65.828
1.33 112.106 64.985
1.34 112.150 64.475
1.35 107.285 64.106
1.36 104.619 63.804
1.37 102.125 63.490
1.38 99.554 63.016
1.39 93.684 62.217
1.40 90.017 60.953
1.41 78.710 59.287
1.42 --undefined-- 57.855
1.43 --undefined-- 56.794
1.44 --undefined-- 54.985
1.45 --undefined-- 51.672
1.46 --undefined-- 46.456
1.47 --undefined-- 40.676
1.48 --undefined-- 38.294
1.49 --undefined-- 36.836
1.50 --undefined-- 35.470
1.51 --undefined-- 35.067
1.52 --undefined-- 36.720
1.53 --undefined-- 38.846
1.54 --undefined-- 38.224
1.55 --undefined-- 36.511
1.56 --undefined-- 37.774
1.57 --undefined-- 38.429
1.58 --undefined-- 36.886
1.59 --undefined-- 34.208
1.60 --undefined-- 32.859
1.61 --undefined-- 33.353
1.62 --undefined-- 36.008
1.63 --undefined-- 38.826
1.64 --undefined-- 39.780
1.65 --undefined-- 40.319
1.66 --undefined-- 40.361
1.67 --undefined-- 39.241
1.68 --undefined-- 38.514
1.69 --undefined-- 37.836
1.70 --undefined-- 36.685
1.71 --undefined-- 36.348
1.72 --undefined-- 36.700
1.73 --undefined-- 37.523
1.74 --undefined-- 39.744
1.75 --undefined-- 42.327
1.76 --undefined-- 43.137
1.77 --undefined-- 41.318
1.78 --undefined-- 37.089
1.79 --undefined-- 33.883
1.80 --undefined-- 37.389
1.81 --undefined-- 41.237
1.82 --undefined-- 42.873
1.83 --undefined-- 42.372
1.84 --undefined-- 40.700
1.85 --undefined-- 40.415
1.86 --undefined-- 40.221
1.87 --undefined-- 38.900
1.88 --undefined-- 39.303
1.89 --undefined-- 41.634
1.90 --undefined-- 47.862
1.91 --undefined-- 58.703
1.92 242.459 66.057
1.93 209.316 69.835
1.94 206.046 71.450
1.95 203.481 72.426
1.96 201.823 73.270
1.97 201.215 73.952
1.98 201.070 74.466
1.99 201.233 74.807
2.00 201.915 74.944
2.01 203.328 74.809
2.02 202.871 74.256
2.03 199.951 72.706
2.04 194.994 69.412
2.05 188.306 63.875
2.06 --undefined-- 55.991
2.07 --undefined-- 47.076
2.08 --undefined-- 44.624
2.09 --undefined-- 45.437
2.10 --undefined-- 47.322
2.11 --undefined-- 50.775
2.12 --undefined-- 51.800
2.13 --undefined-- 53.046
2.14 --undefined-- 61.701
2.15 208.520 68.352
2.16 193.242 71.582
2.17 184.771 72.514
2.18 180.083 72.561
2.19 177.966 72.618
2.20 176.763 72.839
2.21 176.390 73.133
2.22 176.396 73.264
2.23 174.756 73.125
2.24 173.013 72.843
2.25 173.080 72.373
2.26 172.978 71.503
2.27 170.275 70.147
2.28 162.464 68.393
2.29 --undefined-- 66.426
2.30 --undefined-- 64.064
2.31 --undefined-- 60.315
2.32 --undefined-- 54.783
2.33 --undefined-- 48.840
2.34 --undefined-- 41.847
2.35 --undefined-- 38.487
2.36 --undefined-- 40.162
2.37 --undefined-- 39.255
2.38 --undefined-- 35.604
2.39 --undefined-- 34.504
2.40 --undefined-- 42.527
2.41 --undefined-- 52.244
2.42 --undefined-- 58.349
2.43 131.084 61.456
2.44 150.220 63.020
2.45 155.155 64.381
2.46 156.522 65.660
2.47 157.250 66.736
2.48 157.386 67.547
2.49 155.529 67.973
2.50 158.213 68.156
2.51 159.551 68.330
2.52 160.989 68.465
2.53 163.600 68.530
2.54 166.707 68.535
2.55 170.500 68.423
2.56 172.737 68.097
2.57 174.712 67.636
2.58 176.300 67.242
2.59 178.489 67.050
2.60 179.903 67.056
2.61 179.673 67.139
2.62 177.080 67.199
2.63 172.460 67.209
2.64 165.052 67.124
2.65 157.066 67.056
2.66 147.446 67.514
2.67 141.147 68.598
2.68 139.037 69.608
2.69 135.578 70.204
2.70 132.401 70.369
2.71 130.508 70.148
2.72 130.815 69.664
2.73 132.244 68.916
2.74 133.498 68.080
2.75 133.139 67.421
2.76 131.622 66.659
2.77 131.342 65.192
2.78 129.182 62.508
2.79 126.439 58.077
2.80 --undefined-- 51.483
2.81 --undefined-- 43.192
2.82 --undefined-- 36.458
2.83 --undefined-- 34.517
2.84 --undefined-- 43.941
2.85 --undefined-- 57.210
2.86 --undefined-- 65.433
2.87 209.999 69.504
2.88 212.564 70.732
2.89 214.462 70.860
2.90 216.216 71.025
2.91 216.507 71.234
2.92 216.314 71.537
2.93 215.717 71.907
2.94 214.804 72.197
2.95 213.950 72.386
2.96 213.712 72.546
2.97 213.740 72.718
2.98 213.795 72.834
2.99 213.930 72.853
3.00 214.155 72.839
3.01 214.894 72.868
3.02 216.211 72.976
3.03 217.744 73.168
3.04 219.158 73.414
3.05 219.742 73.639
3.06 218.888 73.801
3.07 215.878 74.348
3.08 218.372 75.469
3.09 220.129 76.183
3.10 219.682 76.193
3.11 219.735 75.879
3.12 219.023 75.326
3.13 216.990 74.309
3.14 212.001 72.454
3.15 202.701 69.400
3.16 199.230 65.246
3.17 234.309 60.629
3.18 245.408 55.469
3.19 --undefined-- 49.235
3.20 --undefined-- 42.973
3.21 --undefined-- 39.419
3.22 --undefined-- 38.075
3.23 --undefined-- 35.942
3.24 --undefined-- 32.843
3.25 --undefined-- 29.836
3.26 --undefined-- 28.985
3.27 --undefined-- 30.299
3.28 --undefined-- 30.179
3.29 --undefined-- 29.197
3.30 --undefined-- 30.333
3.31 --undefined-- 33.577
3.32 --undefined-- 41.203
3.33 --undefined-- 48.027
3.34 --undefined-- 51.014
3.35 --undefined-- 50.716
3.36 --undefined-- 49.143
3.37 --undefined-- 53.763
3.38 163.830 60.617
3.39 163.967 64.602
3.40 162.204 66.117
3.41 156.355 66.305
3.42 150.543 66.713
3.43 147.197 67.925
3.44 144.035 69.192
3.45 141.070 70.107
3.46 139.634 70.655
3.47 139.227 70.874
3.48 139.045 70.900
3.49 138.872 70.864
3.50 138.454 70.828
3.51 137.387 70.789
3.52 136.896 70.671
3.53 135.297 70.266
3.54 132.475 69.018
3.55 127.909 66.157
3.56 124.462 60.905
3.57 --undefined-- 52.784
3.58 --undefined-- 47.851
3.59 --undefined-- 49.699
3.60 --undefined-- 49.099
3.61 --undefined-- 47.023
3.62 --undefined-- 46.922
3.63 --undefined-- 54.093
3.64 174.610 61.876
3.65 164.030 66.155
3.66 150.651 67.790
3.67 142.048 67.985
3.68 140.248 67.498
3.69 139.449 65.902
3.70 132.195 62.302
3.71 --undefined-- 56.094
3.72 --undefined-- 47.042
3.73 --undefined-- 42.484
3.74 --undefined-- 49.337
3.75 --undefined-- 57.053
3.76 218.334 64.418
3.77 220.298 69.235
3.78 219.362 71.802
3.79 222.475 73.028
3.80 227.019 73.556
3.81 230.618 73.703
3.82 233.471 73.700
3.83 235.082 73.690
3.84 235.520 73.787
3.85 235.272 74.043
3.86 234.829 74.381
3.87 234.833 74.745
3.88 235.005 75.116
3.89 234.932 75.449
3.90 235.062 75.541
3.91 234.284 74.947
3.92 229.894 73.267
3.93 225.218 70.267
3.94 230.063 65.344
3.95 --undefined-- 57.581
3.96 --undefined-- 47.814
3.97 --undefined-- 43.508
3.98 --undefined-- 43.655
3.99 --undefined-- 53.101
4.00 --undefined-- 63.367
4.01 223.041 69.466
4.02 212.243 72.291
4.03 202.239 72.745
4.04 194.332 72.049
4.05 188.878 71.344
4.06 184.676 71.387
4.07 184.126 72.013
4.08 184.650 72.630
4.09 184.476 72.981
4.10 184.196 73.077
4.11 183.495 72.915
4.12 182.604 72.273
4.13 179.211 70.670
4.14 173.702 67.373
4.15 170.647 61.846
4.16 --undefined-- 53.606
4.17 --undefined-- 44.913
4.18 --undefined-- 43.107
4.19 --undefined-- 43.533
4.20 --undefined-- 44.246
4.21 --undefined-- 44.901
4.22 --undefined-- 44.957
4.23 --undefined-- 45.396
4.24 --undefined-- 52.455
4.25 --undefined-- 59.169
4.26 156.659 62.832
4.27 159.457 64.688
4.28 160.367 65.904
4.29 161.808 66.937
4.30 163.750 67.783
4.31 166.812 68.512
4.32 170.644 69.087
4.33 174.436 69.477
4.34 179.756 69.870
4.35 187.331 70.569
4.36 197.368 71.485
4.37 204.401 72.294
4.38 209.857 72.801
4.39 214.844 72.910
4.40 218.376 72.147
4.41 217.464 69.661
4.42 217.712 64.782
4.43 219.403 57.225
4.44 --undefined-- 50.108
4.45 --undefined-- 47.168
4.46 --undefined-- 46.235
4.47 --undefined-- 46.580
4.48 --undefined-- 46.937
4.49 --undefined-- 51.479
4.50 --undefined-- 61.448
4.51 --undefined-- 67.745
4.52 178.322 70.716
4.53 161.726 71.722
4.54 153.745 71.876
4.55 147.537 71.635
4.56 147.640 71.409
4.57 150.870 71.304
4.58 156.097 71.117
4.59 163.316 70.800
4.60 170.945 70.303
4.61 178.706 69.748
4.62 182.591 68.745
4.63 181.663 66.219
4.64 180.756 61.163
4.65 --undefined-- 53.393
4.66 --undefined-- 44.250
4.67 --undefined-- 44.010
4.68 --undefined-- 46.973
4.69 --undefined-- 47.727
4.70 --undefined-- 48.223
4.71 --undefined-- 50.339
4.72 --undefined-- 57.370
4.73 223.828 65.280
4.74 230.430 70.586
4.75 231.866 73.412
4.76 229.786 74.305
4.77 221.880 74.053
4.78 216.223 73.940
4.79 217.921 74.479
4.80 217.708 74.886
4.81 217.249 75.025
4.82 217.366 75.120
4.83 217.327 75.185
4.84 216.803 75.082
4.85 215.314 74.499
4.86 212.472 72.962
4.87 209.334 69.850
4.88 210.084 64.609
4.89 --undefined-- 57.240
4.90 --undefined-- 55.789
4.91 --undefined-- 61.976
4.92 201.780 66.663
4.93 182.918 68.804
4.94 176.212 69.391
4.95 171.168 69.393
4.96 166.897 69.310
4.97 164.903 69.531
4.98 164.187 69.997
4.99 164.325 70.532
5.00 164.173 71.017
5.01 164.401 71.317
5.02 165.105 71.380
5.03 165.834 71.322
5.04 166.823 71.232
5.05 167.439 71.096
5.06 168.038 70.914
5.07 168.139 70.798
5.08 167.474 70.787
5.09 167.155 70.787
5.10 167.447 70.703
5.11 166.945 70.523
5.12 165.698 70.254
5.13 162.094 69.641
5.14 153.815 68.064
5.15 139.503 65.284
5.16 --undefined-- 61.493
5.17 --undefined-- 56.686
5.18 --undefined-- 49.917
5.19 --undefined-- 41.138
5.20 --undefined-- 35.647
5.21 --undefined-- 36.543
5.22 --undefined-- 37.611
5.23 --undefined-- 37.753
5.24 --undefined-- 37.724
5.25 --undefined-- 40.483
5.26 --undefined-- 42.268
5.27 --undefined-- 42.374
5.28 --undefined-- 43.418
5.29 --undefined-- 46.469
5.30 --undefined-- 50.915
5.31 --undefined-- 54.207
5.32 --undefined-- 55.537
5.33 --undefined-- 57.905
5.34 265.163 64.727
5.35 244.708 69.581
5.36 234.449 71.638
5.37 231.781 72.368
5.38 231.045 72.940
5.39 230.953 73.456
5.40 230.059 73.804
5.41 227.061 73.967
5.42 224.452 73.915
5.43 221.817 73.840
5.44 218.985 73.852
5.45 216.563 73.951
5.46 213.318 74.013
5.47 208.698 73.694
5.48 202.006 72.788
5.49 192.246 71.383
5.50 182.562 69.708
5.51 174.060 67.923
5.52 165.194 67.279
5.53 159.620 68.529
5.54 156.823 69.859
5.55 155.011 70.557
5.56 153.100 70.684
5.57 151.794 70.557
5.58 152.234 70.531
5.59 153.124 70.543
5.60 154.383 70.345
5.61 156.049 69.954
5.62 157.625 69.657
5.63 159.662 69.600
5.64 161.498 69.666
5.65 162.399 69.637
5.66 163.048 69.326
5.67 163.837 68.555
5.68 164.460 66.956
5.69 163.553 64.292
5.70 164.578 60.515
5.71 167.366 55.448
5.72 --undefined-- 48.815
5.73 --undefined-- 42.420
5.74 --undefined-- 39.969
5.75 --undefined-- --undefined--
5.76 --undefined-- --undefined--
5.77 --undefined-- --undefined--
5.78 --undefined-- --undefined--
