Time Pitch Intensity
0.01 --undefined-- --undefined--
0.02 106.891 --undefined--
0.03 106.798 --undefined--
0.04 106.703 --undefined--
0.05 104.833 67.408
0.06 101.453 64.056
0.07 99.594 58.214
0.08 --undefined-- 49.504
0.09 --undefined-- 42.763
0.10 --undefined-- 46.262
0.11 --undefined-- 56.653
0.12 --undefined-- 63.974
0.13 137.595 67.804
0.14 121.466 68.984
0.15 116.308 68.439
0.16 108.590 66.396
0.17 102.191 62.840
0.18 --undefined-- 58.874
0.19 --undefined-- 55.799
0.20 --undefined-- 51.947
0.21 --undefined-- 47.671
0.22 --undefined-- 52.046
0.23 117.255 57.842
0.24 119.845 62.043
0.25 123.819 65.153
0.26 117.626 67.585
0.27 119.478 69.485
0.28 122.913 70.636
0.29 117.908 71.204
0.30 116.112 71.383
0.31 114.469 71.074
0.32 113.930 70.519
0.33 112.630 69.913
0.34 113.077 69.188
0.35 111.622 67.908
0.36 109.189 65.963
0.37 108.042 64.081
0.38 120.007 62.515
0.39 126.370 59.671
0.40 --undefined-- 53.934
0.41 --undefined-- 45.394
0.42 --undefined-- 41.330
0.43 --undefined-- 41.136
0.44 --undefined-- 40.177
0.45 --undefined-- 38.471
0.46 --undefined-- 37.557
0.47 --undefined-- 37.903
0.48 --undefined-- 38.345
0.49 --undefined-- 38.576
0.50 --undefined-- 40.140
0.51 --undefined-- 40.430
0.52 --undefined-- 39.463
0.53 --undefined-- 39.795
0.54 --undefined-- 40.895
0.55 --undefined-- 41.328
0.56 --undefined-- 40.547
0.57 --undefined-- 38.628
0.58 --undefined-- 37.021
0.59 --undefined-- 37.071
0.60 --undefined-- 37.953
0.61 --undefined-- 39.110
0.62 --undefined-- 38.793
0.63 --undefined-- 36.286
0.64 --undefined-- 35.236
0.65 --undefined-- 36.844
0.66 --undefined-- 37.902
0.67 --undefined-- 37.627
0.68 --undefined-- 37.283
0.69 --undefined-- 38.128
0.70 --undefined-- 39.161
0.71 --undefined-- 39.597
0.72 --undefined-- 39.461
0.73 --undefined-- 38.821
0.74 --undefined-- 38.632
0.75 --undefined-- 39.236
0.76 --undefined-- 39.720
0.77 --undefined-- 40.222
0.78 --undefined-- 39.724
0.79 --undefined-- 38.241
0.80 --undefined-- 37.804
0.81 --undefined-- 37.778
0.82 --undefined-- 38.200
0.83 --undefined-- 38.442
0.84 --undefined-- 36.576
0.85 --undefined-- 37.189
0.86 --undefined-- 40.517
0.87 --undefined-- 40.994
0.88 --undefined-- 38.961
0.89 --undefined-- 36.496
0.90 --undefined-- 35.633
0.91 --undefined-- 37.879
0.92 --undefined-- 45.577
0.93 --undefined-- 59.592
0.94 --undefined-- 69.068
0.95 172.620 74.810
0.96 169.148 78.020
0.97 166.788 79.557
0.98 167.096 79.994
0.99 169.555 79.627
1.00 171.847 78.840
1.01 170.452 78.370
1.02 167.477 78.123
1.03 164.543 77.302
1.04 168.060 75.705
1.05 165.923 74.056
1.06 157.733 73.152
1.07 150.778 73.023
1.08 145.479 73.580
1.09 145.182 74.830
1.10 148.029 76.351
1.11 146.778 77.216
1.12 140.839 76.874
1.13 129.024 75.764
1.14 123.449 74.597
1.15 118.026 73.409
1.16 116.744 72.261
1.17 113.816 71.323
1.18 110.625 71.037
1.19 113.188 71.309
1.20 113.924 71.731
1.21 115.403 72.183
1.22 116.874 72.522
1.23 117.725 72.619
1.24 117.836 72.456
1.25 117.791 72.365
1.26 123.942 73.324
1.27 127.978 75.118
1.28 128.064 76.594
1.29 128.334 77.195
1.30 128.458 76.926
1.31 129.234 76.443
1.32 131.454 76.406
1.33 133.163 76.218
1.34 137.273 75.128
1.35 135.173 73.320
1.36 134.230 71.903
1.37 139.392 72.140
1.38 144.596 73.719
1.39 148.583 75.454
1.40 150.376 76.445
1.41 150.181 76.008
1.42 146.812 73.715
1.43 138.974 69.311
1.44 121.229 62.859
1.45 --undefined-- 55.689
1.46 --undefined-- 50.258
1.47 --undefined-- 46.293
1.48 --undefined-- 44.378
1.49 --undefined-- 48.250
1.50 --undefined-- 54.402
1.51 --undefined-- 61.772
1.52 148.095 67.384
1.53 140.670 70.653
1.54 129.920 72.197
1.55 126.871 72.788
1.56 126.021 72.850
1.57 124.073 72.360
1.58 123.668 71.496
1.59 124.009 70.687
1.60 122.476 70.602
1.61 125.062 70.754
1.62 125.929 70.326
1.63 129.892 69.926
1.64 129.754 70.619
1.65 128.364 70.994
1.66 121.870 69.819
1.67 118.093 68.206
1.68 123.309 68.068
1.69 133.582 69.160
1.70 147.674 70.603
1.71 156.769 72.252
1.72 161.527 74.229
1.73 162.354 76.114
1.74 162.276 77.288
1.75 163.270 77.686
1.76 165.404 77.591
1.77 166.816 77.327
1.78 167.355 76.954
1.79 167.835 76.400
1.80 168.180 75.590
1.81 168.472 74.299
1.82 168.430 72.492
1.83 168.606 70.871
1.84 167.109 70.057
1.85 165.278 69.530
1.86 163.705 68.790
1.87 160.569 67.795
1.88 156.176 66.573
1.89 --undefined-- 64.785
1.90 --undefined-- 61.837
1.91 --undefined-- 57.045
1.92 --undefined-- 50.303
1.93 --undefined-- 46.522
1.94 --undefined-- 47.488
1.95 --undefined-- 46.358
1.96 --undefined-- 42.878
1.97 --undefined-- 40.764
1.98 --undefined-- 42.264
1.99 --undefined-- 48.821
2.00 --undefined-- 55.318
2.01 136.574 60.913
2.02 141.478 65.395
2.03 137.495 68.424
2.04 134.691 70.069
2.05 128.807 70.117
2.06 119.558 68.439
2.07 109.912 65.274
2.08 100.974 60.705
2.09 94.502 55.302
2.10 --undefined-- 50.701
2.11 --undefined-- 47.013
2.12 --undefined-- 44.109
2.13 --undefined-- 42.454
2.14 --undefined-- 41.608
2.15 --undefined-- 41.541
2.16 --undefined-- 52.142
2.17 --undefined-- 62.488
2.18 --undefined-- 68.735
2.19 161.686 71.840
2.20 159.626 72.931
2.21 156.756 73.059
2.22 154.586 72.836
2.23 152.312 72.280
2.24 149.357 71.329
2.25 144.623 70.565
2.26 139.100 70.758
2.27 134.341 71.611
2.28 129.153 72.675
2.29 125.798 73.644
2.30 121.803 73.952
2.31 116.649 73.741
2.32 114.422 73.426
2.33 113.341 72.878
2.34 113.123 72.241
2.35 116.436 71.843
2.36 119.947 71.203
2.37 115.328 69.305
2.38 --undefined-- 65.317
2.39 --undefined-- 59.215
2.40 --undefined-- 56.214
2.41 --undefined-- 57.926
2.42 --undefined-- 58.504
2.43 --undefined-- 58.319
2.44 --undefined-- 57.429
2.45 --undefined-- 57.119
2.46 --undefined-- 58.656
2.47 --undefined-- 62.570
2.48 120.274 66.438
2.49 115.978 68.248
2.50 111.893 68.700
2.51 116.777 69.130
2.52 114.620 69.776
2.53 118.884 70.301
2.54 116.287 70.330
2.55 117.602 69.920
2.56 117.205 69.005
2.57 114.121 66.714
2.58 103.303 62.419
2.59 --undefined-- 56.277
2.60 --undefined-- 49.490
2.61 --undefined-- 45.975
2.62 --undefined-- 51.958
2.63 --undefined-- 60.155
2.64 122.576 64.821
2.65 119.252 66.264
2.66 96.181 65.355
2.67 89.529 63.585
2.68 87.226 62.305
2.69 88.097 61.620
2.70 85.871 61.015
2.71 85.188 60.659
2.72 86.833 60.891
2.73 89.440 61.482
2.74 93.204 62.516
2.75 99.628 64.017
2.76 104.101 65.752
2.77 109.699 67.848
2.78 115.599 70.170
2.79 120.469 72.132
2.80 122.912 73.293
2.81 123.991 73.613
2.82 126.741 73.478
2.83 131.659 73.207
2.84 134.154 72.766
2.85 139.193 72.129
2.86 139.753 71.729
2.87 134.948 71.715
2.88 131.857 71.380
2.89 130.410 70.462
2.90 124.422 69.107
2.91 118.836 67.364
2.92 110.997 65.276
2.93 100.226 63.656
2.94 99.651 64.486
2.95 110.088 66.857
2.96 121.309 68.926
2.97 125.437 70.155
2.98 125.231 70.543
2.99 124.998 70.371
3.00 123.512 70.144
3.01 122.735 70.237
3.02 121.581 70.508
3.03 121.378 70.365
3.04 119.881 69.267
3.05 114.339 66.732
3.06 115.773 62.367
3.07 --undefined-- 56.709
3.08 --undefined-- 52.612
3.09 --undefined-- 49.265
3.10 --undefined-- 44.795
3.11 --undefined-- 41.039
3.12 --undefined-- 38.976
3.13 --undefined-- 39.766
3.14 --undefined-- 41.325
3.15 --undefined-- 41.160
3.16 --undefined-- 40.315
3.17 --undefined-- 39.095
3.18 --undefined-- 36.820
3.19 --undefined-- 35.755
3.20 --undefined-- 36.284
3.21 --undefined-- 36.167
3.22 --undefined-- 36.451
3.23 --undefined-- 39.069
3.24 --undefined-- 41.579
3.25 --undefined-- 41.954
3.26 --undefined-- 39.877
3.27 --undefined-- 37.068
3.28 --undefined-- 37.090
3.29 --undefined-- 36.942
3.30 --undefined-- 36.362
3.31 --undefined-- 36.291
3.32 --undefined-- 35.789
3.33 --undefined-- 34.923
3.34 --undefined-- 37.230
3.35 --undefined-- 40.359
3.36 --undefined-- 41.703
3.37 --undefined-- 40.605
3.38 --undefined-- 38.535
3.39 --undefined-- 37.301
3.40 --undefined-- 35.933
3.41 --undefined-- 37.205
3.42 --undefined-- 38.319
3.43 --undefined-- 37.068
3.44 --undefined-- 35.832
3.45 --undefined-- 36.368
3.46 --undefined-- 37.093
3.47 --undefined-- 37.514
3.48 --undefined-- 37.773
3.49 --undefined-- 37.871
3.50 --undefined-- 38.187
3.51 --undefined-- 37.678
3.52 --undefined-- 36.376
3.53 --undefined-- 36.611
3.54 --undefined-- 37.489
3.55 --undefined-- 37.839
3.56 --undefined-- 38.594
3.57 --undefined-- 38.956
3.58 --undefined-- 38.725
3.59 --undefined-- 38.344
3.60 --undefined-- 38.667
3.61 --undefined-- 39.121
3.62 --undefined-- 39.293
3.63 --undefined-- 40.025
3.64 --undefined-- 40.601
3.65 --undefined-- 40.696
3.66 --undefined-- 40.889
3.67 --undefined-- 40.967
3.68 --undefined-- 40.019
3.69 --undefined-- 39.064
3.70 --undefined-- 39.521
3.71 --undefined-- 39.418
3.72 --undefined-- 38.103
3.73 --undefined-- 36.751
3.74 --undefined-- 43.137
3.75 --undefined-- 54.147
3.76 --undefined-- 61.427
3.77 --undefined-- 66.938
3.78 --undefined-- 71.677
3.79 170.427 75.107
3.80 168.981 77.099
3.81 168.324 77.503
3.82 167.966 76.120
3.83 169.884 73.924
3.84 173.692 73.015
3.85 173.180 73.205
3.86 172.262 73.537
3.87 169.663 73.554
3.88 164.977 72.653
3.89 156.591 70.051
3.90 140.006 65.449
3.91 144.822 60.324
3.92 144.211 56.955
3.93 --undefined-- 55.354
3.94 --undefined-- 55.742
3.95 --undefined-- 56.176
3.96 --undefined-- 55.434
3.97 --undefined-- 53.959
3.98 --undefined-- 58.072
3.99 164.321 65.153
4.00 155.294 69.312
4.01 145.389 71.057
4.02 138.644 71.603
4.03 136.344 71.720
4.04 136.181 71.717
4.05 135.415 71.658
4.06 134.505 71.610
4.07 134.166 71.626
4.08 134.275 71.614
4.09 135.349 71.498
4.10 136.642 71.214
4.11 137.346 70.624
4.12 137.927 69.625
4.13 138.911 68.397
4.14 162.705 66.970
4.15 162.975 64.867
4.16 165.054 61.772
4.17 165.457 57.494
4.18 --undefined-- 51.767
4.19 --undefined-- 50.556
4.20 --undefined-- 50.412
4.21 --undefined-- 46.548
4.22 --undefined-- 40.540
4.23 --undefined-- 41.873
4.24 --undefined-- 45.681
4.25 --undefined-- 48.183
4.26 --undefined-- 50.107
4.27 --undefined-- 50.305
4.28 --undefined-- 48.549
4.29 --undefined-- 46.875
4.30 --undefined-- 46.217
4.31 --undefined-- 46.091
4.32 --undefined-- 46.470
4.33 --undefined-- 46.445
4.34 --undefined-- 45.944
4.35 --undefined-- 45.847
4.36 --undefined-- 46.144
4.37 --undefined-- 46.227
4.38 --undefined-- 46.642
4.39 --undefined-- 52.337
4.40 --undefined-- 59.531
4.41 174.837 64.315
4.42 163.902 67.251
4.43 164.293 69.371
4.44 162.309 71.341
4.45 160.397 73.347
4.46 157.640 74.889
4.47 156.298 75.567
4.48 155.344 75.653
4.49 154.521 76.229
4.50 154.336 77.513
4.51 156.542 78.150
4.52 150.102 77.732
4.53 149.164 77.323
4.54 148.513 77.246
4.55 147.105 76.491
4.56 144.784 74.290
4.57 134.888 70.433
4.58 --undefined-- 64.659
4.59 --undefined-- 56.827
4.60 --undefined-- 49.388
4.61 --undefined-- 47.374
4.62 --undefined-- 50.853
4.63 --undefined-- 60.348
4.64 --undefined-- 68.141
4.65 --undefined-- 72.540
4.66 --undefined-- 74.253
4.67 --undefined-- 74.456
4.68 --undefined-- 74.472
4.69 140.509 74.713
4.70 142.518 75.062
4.71 143.184 75.489
4.72 144.063 75.863
4.73 144.211 76.016
4.74 144.087 75.978
4.75 144.809 75.793
4.76 146.056 75.326
4.77 146.994 74.293
4.78 147.404 72.524
4.79 --undefined-- 70.232
4.80 --undefined-- 67.624
4.81 --undefined-- 64.054
4.82 --undefined-- 59.181
4.83 --undefined-- 54.387
4.84 --undefined-- 58.578
4.85 --undefined-- 64.409
4.86 --undefined-- 68.643
4.87 --undefined-- 71.753
4.88 74.460 73.732
4.89 145.835 74.892
4.90 144.782 75.548
4.91 142.782 76.274
4.92 142.198 77.123
4.93 142.641 77.851
4.94 143.604 78.188
4.95 146.289 78.165
4.96 150.114 77.963
4.97 151.322 77.410
4.98 151.981 76.063
4.99 151.524 73.710
5.00 --undefined-- 70.606
5.01 --undefined-- 67.355
5.02 --undefined-- 63.491
5.03 --undefined-- 59.588
5.04 --undefined-- 58.622
5.05 --undefined-- 57.529
5.06 --undefined-- 60.492
5.07 --undefined-- 67.232
5.08 151.492 71.797
5.09 150.964 74.499
5.10 153.281 76.099
5.11 152.991 76.934
5.12 151.404 77.220
5.13 149.834 76.915
5.14 148.482 75.873
5.15 147.012 74.078
5.16 140.106 71.491
5.17 134.548 68.586
5.18 132.891 67.901
5.19 137.401 70.591
5.20 140.673 72.967
5.21 138.175 73.845
5.22 134.349 73.940
5.23 128.858 73.724
5.24 123.934 72.746
5.25 120.780 70.862
5.26 121.020 68.184
5.27 112.871 64.531
5.28 111.863 60.692
5.29 103.530 57.885
5.30 103.232 56.627
5.31 102.235 57.224
5.32 101.779 59.439
5.33 104.436 62.082
5.34 105.063 64.193
5.35 105.455 65.646
5.36 104.416 66.358
5.37 101.625 66.399
5.38 100.194 65.866
5.39 98.238 64.853
5.40 95.109 63.684
5.41 96.920 63.103
5.42 101.254 63.386
5.43 101.788 63.977
5.44 103.234 64.454
5.45 102.029 64.033
5.46 99.703 62.036
5.47 --undefined-- 57.974
5.48 --undefined-- 54.528
5.49 --undefined-- 59.075
5.50 --undefined-- 62.524
5.51 --undefined-- 65.723
5.52 142.141 69.478
5.53 131.086 71.993
5.54 128.910 73.516
5.55 127.824 74.572
5.56 127.132 75.276
5.57 126.924 75.755
5.58 127.062 76.171
5.59 128.438 76.501
5.60 128.820 76.716
5.61 129.544 76.837
5.62 131.084 77.000
5.63 131.742 77.069
5.64 130.997 76.646
5.65 131.764 75.568
5.66 132.948 74.335
5.67 134.986 73.427
5.68 136.036 72.278
5.69 134.938 70.307
5.70 132.997 67.565
5.71 --undefined-- 64.768
5.72 --undefined-- 61.999
5.73 --undefined-- 57.552
5.74 --undefined-- 50.187
5.75 --undefined-- 43.212
5.76 --undefined-- 40.626
5.77 --undefined-- 39.943
5.78 --undefined-- 38.739
5.79 --undefined-- 36.680
5.80 --undefined-- 36.981
5.81 --undefined-- 38.954
5.82 --undefined-- 39.101
5.83 --undefined-- 37.895
5.84 --undefined-- 37.635
5.85 --undefined-- 38.513
5.86 --undefined-- 39.162
5.87 --undefined-- 38.499
5.88 --undefined-- 37.769
5.89 --undefined-- 38.725
5.90 --undefined-- 41.048
5.91 --undefined-- 42.090
5.92 --undefined-- 41.706
5.93 --undefined-- 40.521
5.94 --undefined-- 38.231
5.95 --undefined-- 35.497
5.96 --undefined-- 36.343
5.97 --undefined-- 41.629
5.98 --undefined-- 45.895
5.99 --undefined-- 48.619
6.00 --undefined-- 51.125
6.01 --undefined-- 57.869
6.02 182.006 64.662
6.03 171.229 68.914
6.04 168.431 71.434
6.05 163.131 73.083
6.06 164.873 74.307
6.07 163.238 75.086
6.08 166.226 75.155
6.09 165.841 74.988
6.10 164.357 75.136
6.11 160.599 75.099
6.12 159.381 74.022
6.13 156.988 71.263
6.14 149.619 66.739
6.15 143.698 62.069
6.16 143.305 58.069
6.17 --undefined-- 53.780
6.18 --undefined-- 50.230
6.19 --undefined-- 51.361
6.20 --undefined-- 54.612
6.21 --undefined-- 57.925
6.22 --undefined-- 59.549
6.23 --undefined-- 59.474
6.24 --undefined-- 59.352
6.25 --undefined-- 59.286
6.26 --undefined-- 58.914
6.27 --undefined-- 58.277
6.28 --undefined-- 57.306
6.29 --undefined-- 55.841
6.30 --undefined-- 54.418
6.31 --undefined-- 53.373
6.32 --undefined-- 56.410
6.33 --undefined-- 63.887
6.34 132.736 68.671
6.35 125.938 70.792
6.36 122.884 71.311
6.37 121.538 71.372
6.38 120.253 70.994
6.39 112.853 69.783
6.40 107.070 68.887
6.41 111.193 70.073
6.42 115.459 71.647
6.43 117.550 72.554
6.44 119.552 72.896
6.45 119.940 73.016
6.46 120.597 --undefined--
6.47 120.211 --undefined--
6.48 --undefined-- --undefined--
6.49 --undefined-- --undefined--
