Time Pitch Intensity
0.01 --undefined-- --undefined--
0.02 164.052 --undefined--
0.03 158.078 --undefined--
0.04 152.814 --undefined--
0.05 151.874 66.380
0.06 150.274 67.860
0.07 148.467 69.106
0.08 148.721 69.801
0.09 149.555 70.028
0.10 157.150 69.589
0.11 159.134 68.148
0.12 161.059 65.376
0.13 164.714 61.303
0.14 164.880 56.299
0.15 --undefined-- 49.953
0.16 --undefined-- 43.088
0.17 --undefined-- 40.720
0.18 --undefined-- 40.587
0.19 --undefined-- 39.532
0.20 --undefined-- 38.035
0.21 --undefined-- 39.617
0.22 --undefined-- 43.130
0.23 --undefined-- 46.608
0.24 --undefined-- 49.164
0.25 --undefined-- 50.114
0.26 --undefined-- 51.030
0.27 --undefined-- 54.080
0.28 --undefined-- 57.321
0.29 --undefined-- 59.986
0.30 224.928 64.608
0.31 220.112 68.351
0.32 219.469 70.118
0.33 205.825 70.583
0.34 200.099 70.280
0.35 196.478 69.538
0.36 193.407 68.863
0.37 188.374 68.889
0.38 185.549 69.718
0.39 185.708 70.558
0.40 184.982 71.077
0.41 184.794 71.349
0.42 184.584 71.384
0.43 184.196 71.220
0.44 183.770 70.977
0.45 183.224 70.694
0.46 182.843 70.391
0.47 183.749 70.155
0.48 185.783 69.940
0.49 191.201 69.447
0.50 200.495 68.380
0.51 206.094 66.983
0.52 206.840 65.838
0.53 204.753 64.256
0.54 --undefined-- 61.609
0.55 --undefined-- 58.195
0.56 --undefined-- 54.060
0.57 186.091 51.420
0.58 181.917 49.308
0.59 --undefined-- 46.272
0.60 --undefined-- 45.879
0.61 --undefined-- 48.707
0.62 --undefined-- 56.304
0.63 179.771 61.870
0.64 168.431 64.657
0.65 162.005 65.682
0.66 152.956 65.748
0.67 144.243 65.021
0.68 134.405 64.022
0.69 123.895 64.032
0.70 116.477 64.769
0.71 116.078 65.020
0.72 112.779 64.882
0.73 111.602 64.844
0.74 110.278 64.976
0.75 109.791 65.121
0.76 110.992 65.267
0.77 111.756 65.502
0.78 114.467 65.827
0.79 117.347 66.058
0.80 118.583 65.894
0.81 121.630 65.520
0.82 125.005 65.282
0.83 128.055 65.164
0.84 131.201 65.106
0.85 134.661 65.420
0.86 137.446 66.179
0.87 138.663 66.524
0.88 138.702 65.525
0.89 139.309 62.778
0.90 156.482 59.129
0.91 156.934 55.484
0.92 --undefined-- 50.270
0.93 --undefined-- 43.738
0.94 --undefined-- 40.530
0.95 --undefined-- 41.403
0.96 --undefined-- 43.794
0.97 --undefined-- 46.277
0.98 --undefined-- 49.183
0.99 209.996 55.886
1.00 207.606 61.883
1.01 196.489 64.841
1.02 193.893 65.631
1.03 190.969 65.351
1.04 180.744 64.753
1.05 172.376 64.311
1.06 170.073 64.671
1.07 169.421 65.463
1.08 168.302 65.896
1.09 168.720 66.052
1.10 169.444 66.175
1.11 170.530 66.311
1.12 171.994 66.513
1.13 172.430 66.729
1.14 172.807 66.821
1.15 176.031 66.682
1.16 180.625 66.407
1.17 182.080 66.125
1.18 181.132 65.964
1.19 180.622 65.894
1.20 180.257 65.838
1.21 180.282 65.745
1.22 180.038 65.625
1.23 179.458 65.453
1.24 179.075 65.012
1.25 176.806 63.875
1.26 168.592 61.556
1.27 168.827 58.293
1.28 164.629 54.319
1.29 --undefined-- 48.614
1.30 --undefined-- 41.626
1.31 --undefined-- 41.324
1.32 --undefined-- 43.963
1.33 --undefined-- 45.381
1.34 --undefined-- 46.005
1.35 --undefined-- 52.273
1.36 218.419 59.787
1.37 206.228 63.960
1.38 191.830 65.468
1.39 179.250 65.519
1.40 176.376 64.972
1.41 168.156 64.502
1.42 166.577 64.701
1.43 164.055 65.057
1.44 162.763 65.259
1.45 163.347 65.275
1.46 162.738 65.094
1.47 168.438 64.891
1.48 170.563 64.788
1.49 166.420 64.701
1.50 166.452 64.854
1.51 167.505 65.072
1.52 166.648 64.993
1.53 163.492 64.359
1.54 159.661 63.048
1.55 156.549 61.337
1.56 157.054 59.791
1.57 158.291 59.194
1.58 157.801 59.623
1.59 150.984 60.794
1.60 143.187 62.422
1.61 135.620 63.837
1.62 125.340 64.900
1.63 120.962 65.631
1.64 117.993 65.911
1.65 115.765 65.890
1.66 113.387 65.966
1.67 111.893 66.186
1.68 --undefined-- 65.739
1.69 --undefined-- 64.139
1.70 80.712 61.755
1.71 81.962 59.967
1.72 --undefined-- 58.697
1.73 --undefined-- 55.017
1.74 --undefined-- 47.785
1.75 --undefined-- 41.246
1.76 --undefined-- 49.083
1.77 --undefined-- 58.000
1.78 116.699 63.540
1.79 115.182 66.903
1.80 125.856 69.007
1.81 139.399 70.489
1.82 143.666 71.677
1.83 148.885 72.311
1.84 150.660 72.451
1.85 151.751 72.306
1.86 152.296 71.852
1.87 152.758 70.988
1.88 151.057 69.552
1.89 148.139 67.374
1.90 146.027 63.949
1.91 152.177 58.410
1.92 --undefined-- 50.483
1.93 --undefined-- 43.869
1.94 --undefined-- 40.577
1.95 --undefined-- 39.251
1.96 --undefined-- 40.133
1.97 --undefined-- 41.124
1.98 --undefined-- 40.989
1.99 --undefined-- 40.067
2.00 --undefined-- 39.961
2.01 --undefined-- 40.737
2.02 --undefined-- 42.118
2.03 --undefined-- 43.548
2.04 --undefined-- 44.084
2.05 --undefined-- 43.949
2.06 --undefined-- 43.607
2.07 --undefined-- 43.006
2.08 --undefined-- 42.814
2.09 --undefined-- 43.385
2.10 --undefined-- 43.473
2.11 --undefined-- 42.879
2.12 --undefined-- 42.302
2.13 --undefined-- 41.678
2.14 --undefined-- 41.357
2.15 --undefined-- 41.629
2.16 --undefined-- 41.633
2.17 --undefined-- 40.953
2.18 --undefined-- 39.423
2.19 --undefined-- 38.091
2.20 --undefined-- 38.824
2.21 --undefined-- 39.936
2.22 --undefined-- 39.445
2.23 --undefined-- 37.649
2.24 --undefined-- 35.601
2.25 --undefined-- 35.380
2.26 --undefined-- 38.326
2.27 --undefined-- 44.926
2.28 --undefined-- 55.547
2.29 --undefined-- 62.908
2.30 155.580 67.267
2.31 155.209 69.567
2.32 157.348 70.473
2.33 159.594 70.949
2.34 171.370 71.739
2.35 178.340 72.106
2.36 184.737 71.661
2.37 188.981 70.573
2.38 190.646 68.662
2.39 191.071 65.690
2.40 188.428 62.222
2.41 188.985 58.527
2.42 192.679 53.591
2.43 --undefined-- 47.967
2.44 --undefined-- 51.129
2.45 255.050 60.028
2.46 243.167 65.977
2.47 220.794 69.206
2.48 214.023 70.673
2.49 201.642 71.332
2.50 190.877 71.850
2.51 182.674 72.333
2.52 175.662 72.222
2.53 166.518 71.013
2.54 158.751 68.745
2.55 153.931 65.904
2.56 153.917 64.261
2.57 151.572 64.779
2.58 151.899 65.854
2.59 151.216 66.581
2.60 150.651 66.649
2.61 151.777 66.451
2.62 157.112 67.379
2.63 153.493 69.159
2.64 149.019 70.094
2.65 144.850 69.704
2.66 145.612 69.187
2.67 146.601 70.013
2.68 145.063 71.489
2.69 145.854 72.706
2.70 148.685 73.154
2.71 151.388 72.721
2.72 161.817 72.030
2.73 162.549 71.609
2.74 163.588 70.989
2.75 177.158 70.364
2.76 178.144 70.232
2.77 173.539 70.137
2.78 169.101 69.764
2.79 164.960 69.292
2.80 150.174 68.789
2.81 139.400 68.152
2.82 131.015 67.399
2.83 127.946 66.588
2.84 120.500 66.016
2.85 107.884 65.601
2.86 103.353 64.782
2.87 98.647 63.389
2.88 93.851 61.285
2.89 91.549 58.520
2.90 --undefined-- 55.160
2.91 131.924 51.826
2.92 134.727 49.731
2.93 --undefined-- 47.449
2.94 --undefined-- 49.563
2.95 --undefined-- 56.866
2.96 137.724 62.224
2.97 130.614 65.198
2.98 122.387 66.580
2.99 121.347 67.082
3.00 119.556 67.101
3.01 116.880 67.267
3.02 114.189 67.811
3.03 112.385 68.146
3.04 112.143 68.030
3.05 112.925 67.688
3.06 113.489 67.380
3.07 114.701 67.228
3.08 115.686 67.216
3.09 117.491 67.220
3.10 121.469 67.244
3.11 127.610 67.539
3.12 133.372 67.958
3.13 143.834 68.416
3.14 151.941 69.103
3.15 155.570 69.694
3.16 155.403 69.880
3.17 156.989 69.613
3.18 166.899 69.126
3.19 168.398 68.592
3.20 171.622 68.009
3.21 174.314 67.474
3.22 175.276 66.855
3.23 172.543 66.028
3.24 168.637 64.945
3.25 159.302 63.157
3.26 149.489 60.201
3.27 132.962 56.246
3.28 --undefined-- 52.035
3.29 --undefined-- 49.076
3.30 --undefined-- 49.997
3.31 --undefined-- 57.131
3.32 --undefined-- 63.324
3.33 142.308 66.268
3.34 131.444 66.713
3.35 128.148 66.216
3.36 123.296 66.556
3.37 115.075 67.460
3.38 113.955 68.084
3.39 115.428 68.752
3.40 117.663 69.352
3.41 121.370 69.361
3.42 126.935 68.818
3.43 129.574 67.602
3.44 125.963 65.122
3.45 126.452 61.737
3.46 136.873 58.629
3.47 140.504 55.755
3.48 141.525 56.048
3.49 165.780 61.933
3.50 155.218 66.266
3.51 138.938 68.140
3.52 134.206 68.424
3.53 122.717 68.389
3.54 118.347 68.057
3.55 110.388 67.734
3.56 104.690 68.066
3.57 102.297 68.117
3.58 102.849 67.620
3.59 104.908 67.194
3.60 105.770 66.963
3.61 107.482 66.528
3.62 109.856 66.160
3.63 110.015 65.628
3.64 111.132 64.343
3.65 114.909 62.700
3.66 117.279 61.785
3.67 117.706 61.846
3.68 118.682 62.505
3.69 117.524 63.611
3.70 115.156 64.773
3.71 112.995 65.604
3.72 111.795 66.150
3.73 109.926 66.751
3.74 106.866 67.306
3.75 104.964 67.727
3.76 105.944 68.239
3.77 107.799 68.729
3.78 109.684 69.038
3.79 111.918 69.258
3.80 113.524 69.538
3.81 115.506 69.917
3.82 116.757 70.131
3.83 119.356 69.821
3.84 118.956 69.091
3.85 114.368 68.112
3.86 106.797 66.716
3.87 --undefined-- 64.261
3.88 --undefined-- 59.776
3.89 --undefined-- 52.540
3.90 --undefined-- 43.850
3.91 --undefined-- 41.352
3.92 --undefined-- 42.637
3.93 --undefined-- 43.938
3.94 --undefined-- 44.067
3.95 --undefined-- 43.754
3.96 --undefined-- 43.641
3.97 --undefined-- 44.531
3.98 --undefined-- 45.439
3.99 --undefined-- 45.345
4.00 --undefined-- 44.462
4.01 --undefined-- 43.440
4.02 --undefined-- 43.348
4.03 --undefined-- 43.844
4.04 --undefined-- 43.700
4.05 --undefined-- 42.503
4.06 --undefined-- 40.514
4.07 --undefined-- 38.386
4.08 --undefined-- 37.381
4.09 --undefined-- 38.085
4.10 --undefined-- 39.107
4.11 --undefined-- 38.978
4.12 --undefined-- 37.190
4.13 --undefined-- 34.171
4.14 --undefined-- 33.648
4.15 --undefined-- 36.384
4.16 --undefined-- 37.871
4.17 --undefined-- 37.583
4.18 --undefined-- 35.774
4.19 --undefined-- 33.034
4.20 --undefined-- 32.949
4.21 --undefined-- 36.040
4.22 --undefined-- 38.125
4.23 --undefined-- 41.688
4.24 --undefined-- 51.400
4.25 168.811 59.465
4.26 163.671 64.635
4.27 147.167 67.604
4.28 145.409 69.220
4.29 137.912 70.040
4.30 135.288 70.706
4.31 135.673 71.315
4.32 134.852 71.390
4.33 132.063 71.122
4.34 129.824 71.022
4.35 128.035 71.091
4.36 126.628 71.086
4.37 125.845 70.996
4.38 125.242 70.892
4.39 124.079 70.760
4.40 122.800 70.200
4.41 121.745 68.450
4.42 120.952 65.294
4.43 117.517 62.139
4.44 120.780 59.523
4.45 124.409 55.388
4.46 --undefined-- 50.276
4.47 --undefined-- 52.328
4.48 --undefined-- 55.368
4.49 --undefined-- 55.670
4.50 --undefined-- 55.893
4.51 --undefined-- 59.090
4.52 152.981 63.689
4.53 156.200 67.417
4.54 166.163 69.679
4.55 158.598 70.450
4.56 131.979 69.920
4.57 117.692 68.763
4.58 110.976 67.622
4.59 103.245 66.685
4.60 99.038 65.974
4.61 94.481 65.525
4.62 91.485 65.313
4.63 91.329 65.399
4.64 94.993 65.793
4.65 100.492 66.186
4.66 105.046 66.074
4.67 109.230 65.287
4.68 109.474 64.121
4.69 108.430 63.676
4.70 117.234 65.062
4.71 137.563 67.538
4.72 155.285 69.730
4.73 149.169 70.790
4.74 140.846 70.647
4.75 138.377 69.992
4.76 139.912 69.517
4.77 136.099 69.316
4.78 131.904 69.200
4.79 129.672 69.139
4.80 127.119 69.154
4.81 124.569 69.252
4.82 122.518 69.058
4.83 121.092 67.733
4.84 119.598 64.725
4.85 119.443 60.680
4.86 138.735 57.641
4.87 --undefined-- 55.701
4.88 --undefined-- 58.015
4.89 179.328 63.232
4.90 177.777 67.399
4.91 174.801 70.099
4.92 172.778 71.346
4.93 170.463 71.396
4.94 165.851 70.566
4.95 159.174 69.104
4.96 157.752 66.795
4.97 143.348 62.921
4.98 134.591 57.369
4.99 --undefined-- 52.648
5.00 --undefined-- 51.033
5.01 --undefined-- 49.754
5.02 --undefined-- 47.876
5.03 --undefined-- 46.508
5.04 --undefined-- 46.400
5.05 --undefined-- 47.938
5.06 --undefined-- 54.611
5.07 --undefined-- 61.496
5.08 168.801 65.509
5.09 156.950 67.050
5.10 140.114 67.163
5.11 132.414 66.741
5.12 124.946 65.929
5.13 119.506 64.332
5.14 113.478 61.752
5.15 115.935 59.376
5.16 113.163 58.158
5.17 112.276 57.568
5.18 113.119 57.196
5.19 116.522 57.776
5.20 117.204 59.259
5.21 118.470 60.189
5.22 118.815 60.218
5.23 117.627 59.260
5.24 114.634 57.087
5.25 108.099 53.739
5.26 106.275 49.949
5.27 115.511 46.364
5.28 --undefined-- 44.073
5.29 --undefined-- 46.749
5.30 --undefined-- 49.761
5.31 --undefined-- 50.975
5.32 --undefined-- 51.278
5.33 --undefined-- 54.820
5.34 --undefined-- 61.514
5.35 --undefined-- 65.871
5.36 144.029 67.271
5.37 132.818 66.660
5.38 129.148 65.823
5.39 124.903 65.343
5.40 122.499 64.109
5.41 120.442 62.756
5.42 118.036 61.969
5.43 115.346 61.473
5.44 109.689 61.594
5.45 107.166 61.652
5.46 105.724 61.189
5.47 105.054 60.530
5.48 106.924 59.801
5.49 112.523 59.244
5.50 118.920 59.283
5.51 119.781 59.685
5.52 130.498 59.604
5.53 125.199 58.351
5.54 105.515 55.804
5.55 97.508 53.647
5.56 106.463 54.446
5.57 116.234 57.182
5.58 133.676 59.776
5.59 126.305 61.204
5.60 116.337 --undefined--
5.61 109.216 --undefined--
5.62 --undefined-- --undefined--
5.63 --undefined-- --undefined--
