Time Pitch Intensity
0.01 --undefined-- --undefined--
0.02 181.354 --undefined--
0.03 181.773 --undefined--
0.04 181.509 --undefined--
0.05 181.605 70.669
0.06 182.191 70.762
0.07 182.969 70.779
0.08 183.629 70.751
0.09 184.815 70.670
0.10 185.469 70.553
0.11 186.380 70.407
0.12 186.366 70.221
0.13 185.287 70.151
0.14 182.843 70.717
0.15 179.165 71.495
0.16 173.676 71.689
0.17 168.980 71.438
0.18 167.208 71.132
0.19 171.078 70.897
0.20 175.787 70.791
0.21 180.525 70.684
0.22 184.696 70.489
0.23 187.985 70.149
0.24 195.266 69.717
0.25 202.506 69.841
0.26 207.546 70.600
0.27 211.813 71.505
0.28 218.136 71.936
0.29 227.481 71.279
0.30 238.115 69.172
0.31 235.108 65.517
0.32 221.726 60.108
0.33 242.929 53.288
0.34 --undefined-- 46.925
0.35 --undefined-- 43.036
0.36 --undefined-- 41.111
0.37 --undefined-- 39.822
0.38 --undefined-- 38.727
0.39 --undefined-- 37.625
0.40 --undefined-- 35.898
0.41 --undefined-- 34.361
0.42 --undefined-- 36.329
0.43 --undefined-- 40.448
0.44 --undefined-- 45.813
0.45 --undefined-- 52.799
0.46 286.514 61.292
0.47 269.362 67.396
0.48 267.446 70.740
0.49 266.782 72.166
0.50 267.561 72.611
0.51 270.597 72.751
0.52 274.903 72.808
0.53 279.715 72.736
0.54 285.476 72.520
0.55 290.318 72.102
0.56 292.202 70.558
0.57 292.421 66.587
0.58 276.754 59.507
0.59 282.727 51.273
0.60 284.829 47.214
0.61 --undefined-- 45.611
0.62 --undefined-- 51.246
0.63 --undefined-- 62.625
0.64 --undefined-- 69.677
0.65 --undefined-- 72.937
0.66 --undefined-- 73.375
0.67 --undefined-- 72.429
0.68 195.875 71.946
0.69 192.945 72.001
0.70 190.857 71.436
0.71 187.994 69.543
0.72 185.050 65.923
0.73 --undefined-- 61.491
0.74 --undefined-- 58.595
0.75 --undefined-- 55.236
0.76 --undefined-- 50.739
0.77 --undefined-- 47.128
0.78 --undefined-- 43.675
0.79 --undefined-- 44.168
0.80 --undefined-- 48.767
0.81 --undefined-- 53.699
0.82 --undefined-- 58.352
0.83 170.689 62.078
0.84 169.895 64.781
0.85 173.537 66.838
0.86 176.101 68.308
0.87 176.707 69.193
0.88 177.332 69.714
0.89 176.579 69.882
0.90 172.259 69.608
0.91 169.320 69.042
0.92 165.632 68.299
0.93 162.715 67.443
0.94 161.161 66.717
0.95 158.586 66.363
0.96 157.297 66.221
0.97 156.408 66.031
0.98 156.026 65.991
0.99 155.779 66.262
1.00 156.358 66.625
1.01 158.564 66.764
1.02 163.371 66.636
1.03 168.052 66.528
1.04 172.703 66.406
1.05 178.806 66.181
1.06 182.213 66.107
1.07 183.785 65.924
1.08 190.074 65.974
1.09 203.357 66.729
1.10 206.857 67.747
1.11 209.139 68.804
1.12 211.936 69.573
1.13 215.460 70.077
1.14 218.686 70.675
1.15 223.127 71.526
1.16 219.303 72.194
1.17 215.807 72.483
1.18 211.910 72.511
1.19 207.820 72.266
1.20 200.878 71.891
1.21 194.181 71.711
1.22 182.052 71.310
1.23 173.569 69.966
1.24 151.633 67.379
1.25 150.636 63.397
1.26 151.741 57.698
1.27 --undefined-- 51.392
1.28 --undefined-- 48.831
1.29 --undefined-- 50.467
1.30 --undefined-- 52.772
1.31 --undefined-- 55.266
1.32 261.897 57.813
1.33 286.536 59.395
1.34 288.662 59.160
1.35 293.032 56.964
1.36 293.838 53.944
1.37 --undefined-- 51.410
1.38 --undefined-- 49.471
1.39 --undefined-- 47.986
1.40 --undefined-- 47.276
1.41 --undefined-- 47.096
1.42 --undefined-- 47.251
1.43 --undefined-- 47.683
1.44 --undefined-- 48.026
1.45 --undefined-- 48.208
1.46 --undefined-- 48.190
1.47 --undefined-- 47.809
1.48 --undefined-- 46.777
1.49 --undefined-- 44.779
1.50 --undefined-- 42.469
1.51 --undefined-- 40.688
1.52 --undefined-- 40.825
1.53 --undefined-- 42.936
1.54 --undefined-- 47.063
1.55 --undefined-- 57.187
1.56 202.964 65.234
1.57 197.940 69.812
1.58 192.343 71.656
1.59 188.747 71.767
1.60 186.819 71.327
1.61 185.538 71.108
1.62 184.272 70.991
1.63 182.251 70.665
1.64 180.828 70.219
1.65 179.489 69.939
1.66 178.191 69.524
1.67 175.527 68.483
1.68 169.609 66.244
1.69 161.490 62.261
1.70 169.785 56.511
1.71 171.227 51.050
1.72 173.250 49.967
1.73 --undefined-- 49.052
1.74 --undefined-- 52.750
1.75 --undefined-- 61.693
1.76 193.625 66.999
1.77 184.261 69.343
1.78 178.986 69.966
1.79 176.367 69.911
1.80 175.738 69.689
1.81 176.086 69.441
1.82 176.832 69.198
1.83 177.266 69.118
1.84 177.516 69.173
1.85 177.281 69.250
1.86 177.171 69.229
1.87 176.869 69.084
1.88 176.600 68.896
1.89 176.101 68.681
1.90 175.232 68.369
1.91 174.330 67.650
1.92 171.564 65.916
1.93 169.417 62.621
1.94 176.812 57.753
1.95 176.121 52.037
1.96 --undefined-- 47.111
1.97 --undefined-- 44.917
1.98 --undefined-- 50.543
1.99 --undefined-- 60.404
2.00 --undefined-- 66.690
2.01 --undefined-- 69.641
2.02 --undefined-- 70.084
2.03 150.973 69.251
2.04 160.590 68.108
2.05 164.507 66.862
2.06 167.742 65.357
2.07 169.475 64.651
2.08 186.076 66.548
2.09 192.599 68.846
2.10 198.738 70.256
2.11 205.714 71.057
2.12 210.827 71.643
2.13 216.207 71.980
2.14 222.712 72.110
2.15 227.445 72.407
2.16 230.903 72.867
2.17 235.084 73.187
2.18 239.376 73.470
2.19 241.992 73.856
2.20 244.566 74.148
2.21 246.535 74.232
2.22 247.492 73.985
2.23 246.280 73.274
2.24 241.821 71.960
2.25 234.563 69.689
2.26 232.804 66.380
2.27 --undefined-- 63.595
2.28 --undefined-- 61.762
2.29 --undefined-- 60.147
2.30 --undefined-- 61.032
2.31 --undefined-- 63.720
2.32 --undefined-- 67.001
2.33 --undefined-- 69.312
2.34 177.170 70.456
2.35 179.137 70.833
2.36 179.819 70.749
2.37 178.606 70.355
2.38 177.786 69.720
2.39 176.893 69.083
2.40 174.435 68.679
2.41 171.800 68.395
2.42 169.838 68.115
2.43 169.105 67.742
2.44 168.491 67.279
2.45 168.677 66.849
2.46 168.156 66.448
2.47 167.894 65.826
2.48 167.159 64.468
2.49 159.988 61.800
2.50 154.672 57.649
2.51 154.855 52.625
2.52 --undefined-- 49.278
2.53 --undefined-- 56.576
2.54 199.557 63.448
2.55 194.844 67.110
2.56 196.499 68.599
2.57 199.051 68.859
2.58 200.356 68.068
2.59 198.802 66.090
2.60 198.272 63.779
2.61 196.299 61.884
2.62 198.500 59.990
2.63 206.299 60.147
2.64 239.205 64.693
2.65 240.491 68.297
2.66 240.511 69.715
2.67 238.229 69.848
2.68 236.690 69.713
2.69 236.114 69.732
2.70 235.626 69.844
2.71 235.045 69.901
2.72 234.644 69.875
2.73 234.152 69.742
2.74 233.309 69.526
2.75 232.566 69.319
2.76 231.759 69.118
2.77 231.030 68.875
2.78 230.280 68.686
2.79 230.168 68.685
2.80 230.770 68.804
2.81 230.879 68.881
2.82 229.973 68.887
2.83 228.970 68.861
2.84 228.585 68.841
2.85 229.036 68.864
2.86 229.554 68.911
2.87 230.156 68.887
2.88 230.534 68.746
2.89 231.216 68.574
2.90 231.914 68.422
2.91 232.356 68.166
2.92 231.858 67.448
2.93 229.417 65.717
2.94 219.682 62.735
2.95 211.964 59.269
2.96 217.985 55.563
2.97 --undefined-- 49.944
2.98 --undefined-- 42.575
2.99 --undefined-- 39.459
3.00 --undefined-- 39.890
3.01 --undefined-- 50.222
3.02 --undefined-- 60.737
3.03 249.060 67.477
3.04 247.094 71.074
3.05 244.423 72.213
3.06 238.835 71.717
3.07 234.683 70.612
3.08 231.725 69.795
3.09 229.104 69.520
3.10 225.876 69.293
3.11 222.037 68.995
3.12 217.540 68.939
3.13 212.623 69.060
3.14 207.985 69.184
3.15 203.211 69.251
3.16 197.715 69.403
3.17 191.870 69.743
3.18 188.489 70.233
3.19 184.809 70.802
3.20 181.338 71.198
3.21 177.695 71.251
3.22 172.238 71.056
3.23 168.579 70.815
3.24 166.465 70.455
3.25 165.074 69.923
3.26 163.334 69.348
3.27 159.266 68.443
3.28 143.862 67.240
3.29 133.567 66.566
3.30 --undefined-- 65.735
3.31 --undefined-- 64.674
3.32 102.800 64.387
3.33 114.227 64.897
3.34 115.798 65.792
3.35 122.794 67.291
3.36 --undefined-- 68.877
3.37 --undefined-- 69.617
3.38 164.688 69.771
3.39 166.522 69.903
3.40 167.817 69.703
3.41 168.856 68.781
3.42 171.586 67.260
3.43 170.230 65.320
3.44 165.273 62.487
3.45 162.514 57.907
3.46 164.155 51.719
3.47 163.093 47.246
3.48 --undefined-- 44.535
3.49 --undefined-- 41.809
3.50 --undefined-- 41.034
3.51 --undefined-- 44.231
3.52 --undefined-- 54.320
3.53 --undefined-- 62.224
3.54 --undefined-- 66.163
3.55 --undefined-- 66.802
3.56 --undefined-- 64.759
3.57 --undefined-- 60.635
3.58 --undefined-- 56.039
3.59 --undefined-- 52.872
3.60 --undefined-- 53.072
3.61 --undefined-- 57.602
3.62 --undefined-- 61.514
3.63 157.097 63.894
3.64 164.850 65.412
3.65 173.848 66.598
3.66 179.110 67.785
3.67 173.031 68.972
3.68 168.516 69.551
3.69 165.397 69.293
3.70 163.848 68.494
3.71 165.034 67.240
3.72 167.067 64.901
3.73 166.649 60.589
3.74 --undefined-- 53.856
3.75 --undefined-- 46.366
3.76 --undefined-- 44.361
3.77 --undefined-- 45.824
3.78 --undefined-- 46.324
3.79 --undefined-- 45.987
3.80 --undefined-- 48.888
3.81 --undefined-- 57.567
3.82 207.771 64.442
3.83 207.974 68.242
3.84 206.411 69.807
3.85 203.209 70.234
3.86 199.078 70.254
3.87 194.116 70.028
3.88 190.142 69.610
3.89 188.183 69.063
3.90 186.844 68.486
3.91 185.762 68.009
3.92 185.558 67.574
3.93 184.603 66.804
3.94 182.435 65.344
3.95 178.713 63.429
3.96 178.049 62.440
3.97 182.701 63.876
3.98 189.106 66.455
3.99 193.015 68.474
4.00 190.867 69.315
4.01 185.813 69.644
4.02 184.629 70.387
4.03 184.217 70.918
4.04 183.615 70.512
4.05 183.234 69.187
4.06 180.744 66.979
4.07 177.826 63.952
4.08 182.214 60.512
4.09 --undefined-- 57.681
4.10 --undefined-- 56.345
4.11 --undefined-- 56.580
4.12 --undefined-- 57.364
4.13 --undefined-- 58.105
4.14 --undefined-- 61.428
4.15 --undefined-- 66.757
4.16 --undefined-- 70.034
4.17 --undefined-- 70.840
4.18 143.204 70.095
4.19 142.639 69.322
4.20 146.417 69.070
4.21 158.677 68.980
4.22 170.348 68.920
4.23 179.589 68.381
4.24 190.366 67.276
4.25 198.709 65.775
4.26 204.515 63.705
4.27 203.013 61.181
4.28 197.063 57.547
4.29 187.820 51.815
4.30 --undefined-- 46.472
4.31 --undefined-- 52.906
4.32 --undefined-- 62.444
4.33 209.574 68.438
4.34 204.827 71.372
4.35 200.509 72.227
4.36 200.358 71.824
4.37 204.451 70.684
4.38 207.142 68.737
4.39 206.782 67.395
4.40 211.185 69.083
4.41 215.185 71.009
4.42 214.559 71.941
4.43 211.296 72.259
4.44 205.879 72.293
4.45 199.055 72.114
4.46 191.771 71.730
4.47 184.162 71.058
4.48 173.431 69.981
4.49 162.659 68.831
4.50 156.664 68.118
4.51 149.539 67.753
4.52 147.351 67.716
4.53 145.188 67.496
4.54 143.087 66.792
4.55 143.192 65.811
4.56 146.259 64.651
4.57 148.770 63.875
4.58 152.974 64.113
4.59 154.791 64.994
4.60 156.882 66.394
4.61 159.549 67.764
4.62 162.555 68.585
4.63 165.541 68.810
4.64 167.662 68.350
4.65 169.020 66.667
4.66 166.629 62.877
4.67 164.522 56.421
4.68 166.857 48.896
4.69 166.162 46.071
4.70 --undefined-- 44.995
4.71 --undefined-- 50.303
4.72 --undefined-- 56.760
4.73 --undefined-- 59.753
4.74 --undefined-- 59.719
4.75 --undefined-- 57.831
4.76 --undefined-- 56.417
4.77 --undefined-- 56.077
4.78 --undefined-- 54.768
4.79 --undefined-- 54.429
4.80 191.767 58.813
4.81 182.114 62.673
4.82 175.393 64.274
4.83 170.492 64.482
4.84 167.783 64.328
4.85 165.623 64.374
4.86 164.755 64.632
4.87 163.960 65.078
4.88 163.364 65.586
4.89 162.812 65.961
4.90 161.919 66.063
4.91 160.779 66.022
4.92 159.218 66.029
4.93 158.191 65.901
4.94 158.484 65.556
4.95 158.672 65.177
4.96 158.728 64.811
4.97 158.072 64.326
4.98 148.674 63.286
4.99 136.714 61.439
5.00 --undefined-- 59.433
5.01 --undefined-- 56.648
5.02 --undefined-- 51.079
5.03 --undefined-- 44.111
5.04 --undefined-- 41.675
5.05 --undefined-- 44.480
5.06 --undefined-- 50.712
5.07 --undefined-- 55.801
5.08 --undefined-- 59.561
5.09 --undefined-- 61.904
5.10 156.515 63.580
5.11 158.828 65.215
5.12 150.405 66.295
5.13 150.833 66.748
5.14 149.369 66.897
5.15 146.463 66.767
5.16 144.162 66.423
5.17 142.116 65.841
5.18 140.286 --undefined--
5.19 139.527 --undefined--
5.20 --undefined-- --undefined--
5.21 --undefined-- --undefined--
