Time Pitch Intensity
0.01 --undefined-- --undefined--
0.02 199.641 --undefined--
0.03 198.817 --undefined--
0.04 198.896 --undefined--
0.05 199.416 74.499
0.06 199.615 73.711
0.07 199.803 72.509
0.08 201.250 71.653
0.09 201.546 71.586
0.10 201.332 71.740
0.11 201.802 71.858
0.12 201.322 71.755
0.13 198.492 71.215
0.14 196.373 70.458
0.15 194.626 69.665
0.16 191.466 68.980
0.17 191.501 69.833
0.18 191.743 72.203
0.19 188.609 74.044
0.20 181.704 75.038
0.21 175.677 75.452
0.22 171.445 75.495
0.23 169.183 75.151
0.24 167.361 74.149
0.25 165.308 72.365
0.26 160.107 69.716
0.27 156.333 66.577
0.28 156.612 65.973
0.29 161.643 68.797
0.30 172.180 71.826
0.31 177.306 73.789
0.32 177.731 74.470
0.33 176.945 74.446
0.34 176.637 74.542
0.35 176.514 74.855
0.36 175.986 75.227
0.37 175.093 75.569
0.38 174.560 75.809
0.39 173.201 76.008
0.40 171.376 75.956
0.41 169.164 75.252
0.42 167.043 74.067
0.43 166.046 73.538
0.44 167.237 74.392
0.45 168.617 75.458
0.46 167.225 75.737
0.47 165.021 75.521
0.48 162.954 75.289
0.49 160.722 74.937
0.50 159.063 74.427
0.51 157.289 73.882
0.52 155.216 73.418
0.53 155.308 73.059
0.54 157.187 72.992
0.55 159.621 73.166
0.56 161.812 73.250
0.57 162.852 73.279
0.58 164.099 73.413
0.59 165.239 73.551
0.60 166.592 73.521
0.61 179.215 73.662
0.62 189.161 74.236
0.63 206.769 75.280
0.64 218.883 76.488
0.65 225.251 76.949
0.66 233.499 76.396
0.67 241.160 75.083
0.68 251.744 73.101
0.69 253.945 70.204
0.70 248.705 65.857
0.71 245.227 59.685
0.72 --undefined-- 53.533
0.73 --undefined-- 50.531
0.74 --undefined-- 49.776
0.75 --undefined-- 50.216
0.76 --undefined-- 50.893
0.77 --undefined-- 51.618
0.78 --undefined-- 52.228
0.79 --undefined-- 52.375
0.80 --undefined-- 52.198
0.81 --undefined-- 51.989
0.82 --undefined-- 51.920
0.83 --undefined-- 52.237
0.84 --undefined-- 52.533
0.85 --undefined-- 52.443
0.86 --undefined-- 51.982
0.87 --undefined-- 51.621
0.88 --undefined-- 51.867
0.89 --undefined-- 52.359
0.90 --undefined-- 52.608
0.91 --undefined-- 52.921
0.92 135.761 53.635
0.93 137.742 53.741
0.94 140.703 52.581
0.95 --undefined-- 50.817
0.96 --undefined-- 49.389
0.97 --undefined-- 47.566
0.98 --undefined-- 45.580
0.99 --undefined-- 45.718
1.00 --undefined-- 46.064
1.01 --undefined-- 45.824
1.02 --undefined-- 51.480
1.03 --undefined-- 57.276
1.04 --undefined-- 59.984
1.05 --undefined-- 63.888
1.06 212.791 70.165
1.07 227.142 74.682
1.08 231.324 76.983
1.09 221.490 77.615
1.10 223.521 77.424
1.11 226.258 76.095
1.12 225.690 72.570
1.13 210.336 67.494
1.14 215.872 67.162
1.15 242.383 72.813
1.16 247.429 77.346
1.17 247.977 79.001
1.18 242.340 78.197
1.19 234.885 76.307
1.20 229.991 75.367
1.21 224.273 75.277
1.22 221.369 74.649
1.23 222.181 73.216
1.24 224.734 71.794
1.25 221.799 71.871
1.26 219.528 73.500
1.27 217.333 75.103
1.28 214.082 75.706
1.29 209.964 75.104
1.30 206.714 73.726
1.31 203.280 72.049
1.32 199.295 69.776
1.33 187.573 66.219
1.34 186.031 61.607
1.35 194.738 57.051
1.36 --undefined-- 52.186
1.37 --undefined-- 48.736
1.38 --undefined-- 48.058
1.39 --undefined-- 46.888
1.40 --undefined-- 46.079
1.41 --undefined-- 55.576
1.42 --undefined-- 65.529
1.43 289.238 71.512
1.44 284.672 74.343
1.45 289.881 75.268
1.46 292.886 75.456
1.47 296.728 75.492
1.48 299.456 75.540
1.49 150.465 75.519
1.50 150.895 75.357
1.51 151.004 75.077
1.52 150.712 74.785
1.53 150.287 74.576
1.54 298.131 74.388
1.55 295.221 73.818
1.56 287.782 71.929
1.57 273.003 67.651
1.58 279.571 60.667
1.59 294.302 54.417
1.60 293.474 52.842
1.61 --undefined-- 50.918
1.62 --undefined-- 47.940
1.63 --undefined-- 46.489
1.64 --undefined-- 46.110
1.65 --undefined-- 45.167
1.66 --undefined-- 44.322
1.67 --undefined-- 44.584
1.68 --undefined-- 45.908
1.69 --undefined-- 48.081
1.70 --undefined-- 52.113
1.71 --undefined-- 60.238
1.72 --undefined-- 67.521
1.73 192.497 72.055
1.74 190.308 74.546
1.75 188.801 75.837
1.76 189.561 76.375
1.77 194.514 76.418
1.78 202.764 76.138
1.79 212.125 75.827
1.80 219.120 75.641
1.81 225.432 75.389
1.82 231.141 75.141
1.83 234.871 75.041
1.84 236.685 74.746
1.85 237.238 74.040
1.86 234.096 73.201
1.87 228.748 72.493
1.88 224.520 72.114
1.89 219.610 72.274
1.90 216.171 73.260
1.91 213.087 74.813
1.92 211.321 75.979
1.93 208.234 76.395
1.94 205.394 76.386
1.95 202.221 76.266
1.96 199.435 76.163
1.97 196.360 75.968
1.98 193.171 75.687
1.99 191.585 75.411
2.00 191.589 75.081
2.01 191.714 74.663
2.02 191.680 74.317
2.03 192.158 74.178
2.04 193.286 74.178
2.05 194.000 74.253
2.06 194.471 74.531
2.07 194.655 75.080
2.08 194.759 75.462
2.09 192.598 75.169
2.10 187.661 74.234
2.11 186.575 73.405
2.12 187.178 73.395
2.13 186.223 73.951
2.14 187.267 74.459
2.15 189.313 74.702
2.16 191.193 74.877
2.17 195.204 75.395
2.18 197.650 76.191
2.19 197.993 76.549
2.20 198.678 76.401
2.21 199.815 76.148
2.22 201.256 76.019
2.23 204.104 75.856
2.24 206.975 75.451
2.25 210.215 75.005
2.26 213.665 74.597
2.27 216.343 73.932
2.28 218.357 73.031
2.29 220.537 72.156
2.30 223.575 71.208
2.31 225.789 69.739
2.32 226.669 67.872
2.33 225.046 66.165
2.34 224.085 65.203
2.35 197.098 65.062
2.36 195.210 64.669
2.37 191.070 64.199
2.38 190.410 64.831
2.39 182.956 66.726
2.40 180.144 69.363
2.41 176.774 71.722
2.42 169.949 73.371
2.43 166.880 74.404
2.44 167.251 74.779
2.45 170.384 74.692
2.46 176.014 74.500
2.47 182.493 74.103
2.48 198.240 73.876
2.49 213.392 73.918
2.50 225.024 73.096
2.51 234.669 70.450
2.52 236.818 65.834
2.53 232.210 59.985
2.54 --undefined-- 55.105
2.55 --undefined-- 52.980
2.56 --undefined-- 52.018
2.57 --undefined-- 51.685
2.58 --undefined-- 51.989
2.59 --undefined-- 52.131
2.60 --undefined-- 51.301
2.61 --undefined-- 49.890
2.62 --undefined-- 48.622
2.63 --undefined-- 47.765
2.64 --undefined-- 47.440
2.65 --undefined-- 47.065
2.66 --undefined-- 47.157
2.67 --undefined-- 51.477
2.68 --undefined-- 59.901
2.69 192.339 66.176
2.70 180.305 69.823
2.71 177.641 71.616
2.72 175.983 72.367
2.73 173.848 72.638
2.74 171.164 72.682
2.75 168.069 72.673
2.76 166.869 72.919
2.77 169.740 73.315
2.78 173.682 73.301
2.79 183.719 72.846
2.80 200.015 72.306
2.81 201.270 71.279
2.82 191.250 69.606
2.83 187.894 68.243
2.84 166.288 67.358
2.85 169.087 66.903
2.86 171.622 67.667
2.87 173.054 69.572
2.88 168.018 72.096
2.89 163.928 74.263
2.90 162.506 75.489
2.91 162.128 75.824
2.92 162.644 75.636
2.93 161.726 75.125
2.94 160.424 74.345
2.95 159.584 73.331
2.96 158.734 71.881
2.97 156.961 69.733
2.98 154.929 66.833
2.99 156.582 63.461
3.00 152.309 59.979
3.01 --undefined-- 57.050
3.02 --undefined-- 55.542
3.03 --undefined-- 57.935
3.04 222.693 64.566
3.05 212.421 69.425
3.06 207.663 72.027
3.07 206.688 73.248
3.08 207.144 73.696
3.09 207.412 73.630
3.10 207.972 73.235
3.11 207.811 72.585
3.12 206.371 71.821
3.13 207.033 71.267
3.14 207.000 70.856
3.15 205.749 70.369
3.16 206.075 69.627
3.17 206.145 68.467
3.18 203.124 66.680
3.19 199.584 63.728
3.20 201.574 59.252
3.21 212.296 58.490
3.22 216.454 64.409
3.23 204.327 69.173
3.24 197.270 71.993
3.25 194.758 73.203
3.26 189.232 72.825
3.27 176.749 70.752
3.28 157.310 67.229
3.29 149.619 62.911
3.30 161.872 58.191
3.31 183.598 54.815
3.32 --undefined-- 53.610
3.33 --undefined-- 56.228
3.34 --undefined-- 63.690
3.35 --undefined-- 70.553
3.36 183.852 74.183
3.37 169.991 75.118
3.38 160.597 74.546
3.39 153.196 73.300
3.40 153.330 72.097
3.41 154.011 71.232
3.42 152.621 69.369
3.43 147.921 65.527
3.44 149.924 59.490
3.45 --undefined-- 52.504
3.46 --undefined-- 51.644
3.47 --undefined-- 57.722
3.48 --undefined-- 63.760
3.49 --undefined-- 66.442
3.50 --undefined-- 65.938
3.51 --undefined-- 66.409
3.52 216.747 70.751
3.53 200.563 73.593
3.54 191.897 74.486
3.55 185.494 73.818
3.56 177.970 71.243
3.57 166.596 66.725
3.58 167.917 61.675
3.59 183.506 56.952
3.60 --undefined-- 52.583
3.61 --undefined-- 50.699
3.62 --undefined-- 53.018
3.63 --undefined-- 59.669
3.64 --undefined-- 66.378
3.65 200.295 71.667
3.66 192.695 74.818
3.67 187.915 76.047
3.68 185.492 76.119
3.69 183.118 75.667
3.70 180.744 74.857
3.71 178.720 73.835
3.72 177.354 72.990
3.73 176.704 72.382
3.74 176.274 71.914
3.75 176.326 71.757
3.76 176.934 71.863
3.77 177.248 71.893
3.78 176.743 71.755
3.79 175.818 71.365
3.80 174.472 70.148
3.81 171.792 67.368
3.82 168.727 62.538
3.83 --undefined-- 56.436
3.84 --undefined-- 53.586
3.85 --undefined-- 57.335
3.86 205.734 65.415
3.87 192.151 71.619
3.88 187.829 75.144
3.89 184.176 76.630
3.90 180.700 77.133
3.91 178.718 77.381
3.92 176.233 77.499
3.93 174.469 77.455
3.94 173.993 77.176
3.95 172.818 76.890
3.96 171.021 76.926
3.97 168.981 77.124
3.98 167.199 77.003
3.99 164.486 76.268
4.00 158.613 74.568
4.01 --undefined-- 71.354
4.02 --undefined-- 66.312
4.03 --undefined-- 60.312
4.04 --undefined-- 55.114
4.05 --undefined-- 51.223
4.06 --undefined-- 49.643
4.07 --undefined-- 48.742
4.08 --undefined-- 46.441
4.09 --undefined-- 42.395
4.10 --undefined-- 39.797
4.11 --undefined-- 40.972
4.12 --undefined-- 42.388
4.13 --undefined-- 42.616
4.14 --undefined-- 41.052
4.15 --undefined-- 39.505
4.16 --undefined-- 40.879
4.17 --undefined-- 42.037
4.18 --undefined-- 41.367
4.19 --undefined-- 40.456
4.20 --undefined-- 41.275
4.21 --undefined-- 42.576
4.22 --undefined-- 43.469
4.23 --undefined-- 44.814
4.24 --undefined-- 46.532
4.25 --undefined-- 47.779
4.26 --undefined-- 48.125
4.27 --undefined-- 47.870
4.28 --undefined-- 48.013
4.29 --undefined-- 48.812
4.30 --undefined-- 49.866
4.31 --undefined-- 50.949
4.32 --undefined-- 51.330
4.33 --undefined-- 50.437
4.34 --undefined-- 49.092
4.35 --undefined-- 48.342
4.36 --undefined-- 47.850
4.37 --undefined-- 47.653
4.38 --undefined-- 47.295
4.39 --undefined-- 45.944
4.40 --undefined-- 43.911
4.41 --undefined-- 42.377
4.42 --undefined-- 42.273
4.43 --undefined-- 43.154
4.44 --undefined-- 43.249
4.45 --undefined-- 42.810
4.46 --undefined-- 46.000
4.47 --undefined-- 54.317
4.48 --undefined-- 60.140
4.49 --undefined-- 64.608
4.50 221.588 69.927
4.51 209.656 74.073
4.52 199.472 76.340
4.53 195.140 77.078
4.54 197.211 76.648
4.55 202.671 75.823
4.56 207.805 75.529
4.57 210.920 75.957
4.58 211.893 76.862
4.59 211.565 77.666
4.60 209.430 77.620
4.61 205.540 76.544
4.62 201.262 75.301
4.63 197.095 74.704
4.64 193.094 74.492
4.65 190.583 74.381
4.66 189.331 74.256
4.67 187.551 74.021
4.68 184.073 73.555
4.69 179.534 72.652
4.70 177.030 70.636
4.71 175.816 67.667
4.72 175.385 65.773
4.73 174.402 65.606
4.74 177.729 67.125
4.75 182.299 70.334
4.76 185.465 73.176
4.77 184.666 74.701
4.78 182.060 75.456
4.79 180.491 75.980
4.80 179.343 76.257
4.81 177.360 76.386
4.82 175.353 76.583
4.83 174.697 76.805
4.84 174.625 77.193
4.85 173.981 77.600
4.86 172.511 77.123
4.87 172.210 75.999
4.88 172.547 75.595
4.89 174.707 75.658
4.90 177.169 75.167
4.91 178.676 74.306
4.92 178.746 73.491
4.93 178.999 72.096
4.94 178.537 69.799
4.95 173.553 66.476
4.96 --undefined-- 61.828
4.97 --undefined-- 58.177
4.98 --undefined-- 58.208
4.99 --undefined-- 59.892
5.00 --undefined-- 60.593
5.01 --undefined-- 60.281
5.02 --undefined-- 64.030
5.03 212.119 68.541
5.04 210.040 71.151
5.05 204.825 72.557
5.06 198.675 73.475
5.07 194.525 73.970
5.08 194.162 74.061
5.09 194.593 73.550
5.10 194.007 71.549
5.11 183.046 67.330
5.12 177.109 61.526
5.13 189.161 59.602
5.14 227.236 66.257
5.15 215.453 71.962
5.16 203.515 74.908
5.17 199.474 75.742
5.18 194.758 75.557
5.19 192.161 75.389
5.20 190.150 75.431
5.21 188.598 75.331
5.22 188.237 74.865
5.23 187.068 74.208
5.24 185.702 73.656
5.25 190.913 --undefined--
5.26 195.382 --undefined--
5.27 --undefined-- --undefined--
5.28 --undefined-- --undefined--
