Time Pitch Intensity
0.01 --undefined-- --undefined--
0.02 --undefined-- --undefined--
0.03 --undefined-- --undefined--
0.04 --undefined-- --undefined--
0.05 --undefined-- 53.448
0.06 --undefined-- 49.857
0.07 --undefined-- 44.014
0.08 --undefined-- 38.602
0.09 --undefined-- 39.770
0.10 --undefined-- 49.637
0.11 --undefined-- 60.451
0.12 --undefined-- 68.910
0.13 --undefined-- 74.171
0.14 135.810 76.657
0.15 130.962 77.267
0.16 128.832 77.097
0.17 131.123 77.070
0.18 133.934 77.314
0.19 137.040 77.443
0.20 139.500 77.078
0.21 139.537 76.059
0.22 136.109 74.456
0.23 131.379 72.444
0.24 128.982 70.271
0.25 126.337 68.555
0.26 127.269 69.085
0.27 132.383 72.156
0.28 134.105 75.298
0.29 134.115 77.056
0.30 130.397 77.571
0.31 125.876 78.032
0.32 123.528 79.085
0.33 121.948 80.094
0.34 120.175 80.721
0.35 118.192 80.953
0.36 117.105 80.753
0.37 116.099 80.052
0.38 114.916 78.721
0.39 113.856 76.738
0.40 112.187 74.202
0.41 106.668 71.200
0.42 104.737 68.253
0.43 102.564 65.543
0.44 105.449 62.765
0.45 114.065 63.386
0.46 130.035 67.940
0.47 123.824 71.880
0.48 117.359 74.693
0.49 114.733 76.456
0.50 112.918 76.877
0.51 110.415 76.214
0.52 110.155 75.470
0.53 110.267 75.161
0.54 109.845 75.053
0.55 109.162 74.958
0.56 107.907 74.737
0.57 107.141 74.242
0.58 105.776 73.365
0.59 106.113 72.123
0.60 104.943 70.874
0.61 101.419 70.198
0.62 98.641 69.587
0.63 97.628 68.535
0.64 88.819 67.149
0.65 87.333 65.582
0.66 85.810 63.940
0.67 82.666 63.736
0.68 92.643 65.507
0.69 93.538 67.333
0.70 101.583 68.541
0.71 105.293 69.045
0.72 105.167 69.439
0.73 103.581 70.225
0.74 99.343 70.459
0.75 99.054 69.502
0.76 99.090 68.394
0.77 102.829 68.228
0.78 104.908 68.608
0.79 102.863 68.700
0.80 100.492 68.211
0.81 98.123 67.261
0.82 95.692 65.798
0.83 88.416 63.860
0.84 89.042 62.173
0.85 88.312 61.755
0.86 --undefined-- 62.699
0.87 --undefined-- 63.651
0.88 --undefined-- 64.408
0.89 79.050 64.934
0.90 79.107 64.873
0.91 82.318 64.082
0.92 85.333 63.242
0.93 86.428 63.048
0.94 87.233 63.152
0.95 88.132 63.237
0.96 89.031 63.313
0.97 89.220 63.567
0.98 89.077 64.078
0.99 89.130 64.559
1.00 88.279 64.879
1.01 88.365 65.140
1.02 89.511 65.361
1.03 91.927 65.652
1.04 93.489 66.116
1.05 93.390 66.953
1.06 94.701 67.922
1.07 95.449 68.497
1.08 95.490 68.683
1.09 95.337 68.782
1.10 95.273 68.860
1.11 96.564 68.871
1.12 103.271 69.172
1.13 107.604 69.791
1.14 108.988 70.308
1.15 110.239 70.929
1.16 112.673 72.367
1.17 114.433 74.099
1.18 112.872 75.489
1.19 121.508 77.351
1.20 127.941 79.431
1.21 131.511 80.769
1.22 131.695 80.947
1.23 131.009 80.433
1.24 136.043 80.226
1.25 145.190 80.127
1.26 152.247 80.121
1.27 157.162 80.313
1.28 166.596 80.628
1.29 171.132 81.104
1.30 173.589 81.447
1.31 175.489 81.542
1.32 175.047 81.364
1.33 172.651 80.722
1.34 168.829 79.509
1.35 167.648 78.272
1.36 165.628 77.495
1.37 161.122 77.209
1.38 157.246 77.545
1.39 156.488 78.579
1.40 149.667 79.304
1.41 139.095 78.584
1.42 131.814 76.491
1.43 124.854 73.482
1.44 118.775 69.568
1.45 114.975 66.782
1.46 136.535 70.577
1.47 133.907 74.987
1.48 121.199 77.143
1.49 109.415 77.138
1.50 97.476 75.449
1.51 95.626 72.833
1.52 91.824 69.962
1.53 87.685 67.565
1.54 88.678 66.404
1.55 86.373 65.588
1.56 84.412 64.323
1.57 83.720 63.030
1.58 83.894 62.269
1.59 84.999 61.904
1.60 83.729 61.987
1.61 82.434 62.344
1.62 82.578 62.405
1.63 84.026 62.035
1.64 86.536 61.670
1.65 80.101 61.435
1.66 95.193 61.191
1.67 84.971 61.097
1.68 94.445 61.143
1.69 87.471 61.506
1.70 90.725 62.226
1.71 91.409 62.944
1.72 90.979 63.442
1.73 92.399 63.749
1.74 90.707 63.995
1.75 91.685 64.461
1.76 92.638 65.067
1.77 92.772 65.774
1.78 92.277 66.362
1.79 93.126 66.898
1.80 94.651 67.771
1.81 95.305 68.773
1.82 96.386 69.509
1.83 97.910 69.864
1.84 100.057 70.080
1.85 102.330 70.338
1.86 103.540 70.511
1.87 105.005 70.316
1.88 105.835 69.660
1.89 107.775 68.487
1.90 106.088 66.436
1.91 100.483 63.170
1.92 100.632 58.339
1.93 --undefined-- 51.650
1.94 --undefined-- 45.222
1.95 --undefined-- 43.425
1.96 --undefined-- 43.269
1.97 --undefined-- 43.963
1.98 --undefined-- 44.678
1.99 --undefined-- 45.155
2.00 --undefined-- 45.320
2.01 --undefined-- 44.621
2.02 --undefined-- 43.523
2.03 --undefined-- 42.286
2.04 --undefined-- 42.208
2.05 --undefined-- 43.822
2.06 --undefined-- 44.750
2.07 --undefined-- 44.841
2.08 --undefined-- 44.124
2.09 --undefined-- 42.424
2.10 --undefined-- 40.697
2.11 --undefined-- 39.737
2.12 --undefined-- 40.517
2.13 --undefined-- 41.067
2.14 --undefined-- 39.865
2.15 --undefined-- 38.445
2.16 --undefined-- 37.814
2.17 --undefined-- 36.680
2.18 --undefined-- 36.169
2.19 --undefined-- 37.273
2.20 --undefined-- 39.262
2.21 --undefined-- 41.104
2.22 --undefined-- 42.377
2.23 --undefined-- 43.308
2.24 --undefined-- 44.001
2.25 --undefined-- 44.245
2.26 --undefined-- 43.750
2.27 --undefined-- 42.545
2.28 --undefined-- 41.515
2.29 --undefined-- 47.154
2.30 --undefined-- 54.853
2.31 --undefined-- 58.867
2.32 --undefined-- 60.499
2.33 --undefined-- 61.154
2.34 --undefined-- 60.167
2.35 --undefined-- 57.614
2.36 --undefined-- 60.668
2.37 --undefined-- 65.036
2.38 --undefined-- 66.945
2.39 --undefined-- 67.200
2.40 --undefined-- 66.697
2.41 --undefined-- 66.889
2.42 --undefined-- 68.116
2.43 --undefined-- 68.721
2.44 --undefined-- 68.571
2.45 --undefined-- 68.127
2.46 --undefined-- 67.977
2.47 --undefined-- 69.092
2.48 127.529 70.160
2.49 125.388 69.848
2.50 123.719 68.393
2.51 118.436 66.967
2.52 115.264 66.399
2.53 114.913 66.533
2.54 114.525 66.616
2.55 113.122 65.847
2.56 112.395 63.714
2.57 109.218 60.245
2.58 110.522 57.469
2.59 116.853 58.073
2.60 128.776 59.788
2.61 135.229 60.831
2.62 144.076 61.530
2.63 155.487 64.294
2.64 157.311 68.204
2.65 --undefined-- 70.837
2.66 --undefined-- 71.945
2.67 --undefined-- 71.994
2.68 178.559 71.564
2.69 178.118 70.918
2.70 177.398 69.591
2.71 --undefined-- 67.066
2.72 --undefined-- 63.217
2.73 --undefined-- 58.182
2.74 --undefined-- 57.106
2.75 --undefined-- 60.643
2.76 155.655 66.101
2.77 155.623 70.563
2.78 155.252 72.938
2.79 146.617 73.674
2.80 140.811 73.220
2.81 130.467 72.689
2.82 127.375 72.947
2.83 124.398 73.038
2.84 121.921 72.123
2.85 120.757 69.933
2.86 119.541 66.186
2.87 --undefined-- 60.425
2.88 --undefined-- 53.304
2.89 --undefined-- 49.745
2.90 --undefined-- 53.547
2.91 --undefined-- 57.626
2.92 --undefined-- 60.890
2.93 --undefined-- 65.113
2.94 --undefined-- 68.087
2.95 --undefined-- 68.823
2.96 --undefined-- 68.302
2.97 --undefined-- 68.498
2.98 --undefined-- 70.185
2.99 --undefined-- 71.514
3.00 --undefined-- 71.233
3.01 --undefined-- 68.864
3.02 --undefined-- 64.265
3.03 --undefined-- 57.373
3.04 --undefined-- 49.982
3.05 --undefined-- 47.367
3.06 --undefined-- 46.664
3.07 --undefined-- 45.381
3.08 --undefined-- 44.173
3.09 --undefined-- 44.464
3.10 --undefined-- 45.452
3.11 --undefined-- 51.598
3.12 --undefined-- 60.819
3.13 --undefined-- 68.247
3.14 164.334 72.390
3.15 163.005 73.538
3.16 113.767 72.888
3.17 112.475 72.292
3.18 112.584 72.189
3.19 112.374 72.007
3.20 111.662 71.374
3.21 112.118 70.605
3.22 111.402 70.439
3.23 111.449 70.349
3.24 112.931 70.169
3.25 112.833 70.016
3.26 111.439 69.247
3.27 111.239 67.265
3.28 110.950 64.275
3.29 109.918 60.723
3.30 --undefined-- 56.009
3.31 --undefined-- 51.332
3.32 --undefined-- 56.396
3.33 --undefined-- 64.286
3.34 --undefined-- 69.227
3.35 --undefined-- 71.627
3.36 110.643 72.445
3.37 106.978 72.469
3.38 106.217 71.883
3.39 108.285 70.959
3.40 109.302 69.495
3.41 111.252 66.595
3.42 117.214 62.651
3.43 122.557 62.787
3.44 123.943 66.938
3.45 124.192 70.254
3.46 124.531 71.959
3.47 125.196 72.271
3.48 126.404 71.792
3.49 127.807 71.165
3.50 128.543 70.216
3.51 130.335 68.520
3.52 --undefined-- 65.705
3.53 --undefined-- 61.780
3.54 112.367 59.193
3.55 109.978 59.866
3.56 107.579 63.001
3.57 106.645 66.561
3.58 106.885 69.026
3.59 105.829 70.022
3.60 101.220 69.741
3.61 99.265 68.859
3.62 98.006 67.938
3.63 99.064 66.797
3.64 101.737 65.389
3.65 103.701 63.883
3.66 105.190 61.932
3.67 107.380 59.689
3.68 108.935 58.773
3.69 108.678 59.275
3.70 109.080 59.494
3.71 108.915 59.721
3.72 108.065 62.789
3.73 109.179 68.208
3.74 110.791 71.934
3.75 111.072 73.127
3.76 109.053 72.740
3.77 107.865 72.048
3.78 105.935 71.285
3.79 104.755 70.851
3.80 103.934 70.627
3.81 103.494 70.032
3.82 104.221 69.604
3.83 104.858 69.819
3.84 105.367 69.969
3.85 106.028 69.569
3.86 106.647 68.556
3.87 106.816 66.186
3.88 --undefined-- 61.670
3.89 --undefined-- 56.058
3.90 --undefined-- 53.625
3.91 --undefined-- 53.681
3.92 --undefined-- 54.452
3.93 101.884 55.290
3.94 101.472 55.160
3.95 --undefined-- 54.463
3.96 --undefined-- 54.204
3.97 --undefined-- 55.403
3.98 --undefined-- 59.235
3.99 93.388 62.934
4.00 91.360 64.774
4.01 94.097 65.234
4.02 95.017 65.587
4.03 93.348 65.984
4.04 91.946 65.569
4.05 90.377 63.777
4.06 --undefined-- 60.064
4.07 --undefined-- 54.603
4.08 --undefined-- 49.813
4.09 --undefined-- 51.911
4.10 --undefined-- 57.203
4.11 --undefined-- 59.572
4.12 --undefined-- 60.092
4.13 --undefined-- 62.876
4.14 --undefined-- 67.001
4.15 113.973 70.000
4.16 109.665 71.700
4.17 106.833 72.796
4.18 106.165 73.452
4.19 105.731 73.226
4.20 106.196 72.016
4.21 106.354 69.578
4.22 --undefined-- 65.246
4.23 --undefined-- 58.968
4.24 --undefined-- 55.361
4.25 --undefined-- 54.964
4.26 --undefined-- 55.077
4.27 --undefined-- 57.887
4.28 --undefined-- 60.737
4.29 87.149 62.116
4.30 86.271 62.682
4.31 95.383 62.755
4.32 93.656 61.588
4.33 93.601 58.588
4.34 --undefined-- 55.462
4.35 --undefined-- 55.559
4.36 --undefined-- 54.994
4.37 --undefined-- 52.002
4.38 --undefined-- 49.420
4.39 --undefined-- 50.365
4.40 --undefined-- 51.441
4.41 --undefined-- 51.890
4.42 --undefined-- 53.096
4.43 --undefined-- 54.316
4.44 --undefined-- 54.703
4.45 --undefined-- 53.677
4.46 --undefined-- 50.404
4.47 --undefined-- 46.417
4.48 --undefined-- 49.938
4.49 --undefined-- 54.958
4.50 --undefined-- 57.917
4.51 --undefined-- 59.586
4.52 --undefined-- 60.839
4.53 79.097 62.146
4.54 79.453 63.173
4.55 79.855 63.724
4.56 76.446 64.580
4.57 76.141 66.159
4.58 84.191 66.922
4.59 105.734 66.296
4.60 105.664 65.673
4.61 93.872 65.486
4.62 93.825 64.761
4.63 93.971 64.397
4.64 --undefined-- 63.948
4.65 --undefined-- 62.305
4.66 --undefined-- 60.802
4.67 --undefined-- 60.826
4.68 --undefined-- 60.859
4.69 --undefined-- 60.072
4.70 --undefined-- 58.533
4.71 --undefined-- 56.147
4.72 --undefined-- 54.155
4.73 --undefined-- 52.126
4.74 --undefined-- 48.070
4.75 --undefined-- 44.335
4.76 --undefined-- 44.355
4.77 --undefined-- 48.053
4.78 --undefined-- 56.187
4.79 --undefined-- 62.261
4.80 --undefined-- 66.836
4.81 289.164 69.910
4.82 288.108 70.573
4.83 286.943 69.498
4.84 --undefined-- 68.110
4.85 --undefined-- 66.622
4.86 --undefined-- 68.064
4.87 138.170 71.394
4.88 137.249 72.796
4.89 125.714 72.973
4.90 121.214 73.060
4.91 116.900 72.794
4.92 115.238 71.880
4.93 115.402 70.508
4.94 115.368 69.062
4.95 115.723 68.273
4.96 116.785 68.520
4.97 118.466 69.242
4.98 119.120 69.757
4.99 118.929 69.484
5.00 118.366 68.294
5.01 116.871 66.225
5.02 111.796 63.394
5.03 111.569 61.413
5.04 107.475 62.058
5.05 107.355 63.613
5.06 123.035 66.964
5.07 135.559 70.748
5.08 139.474 73.083
5.09 142.624 73.957
5.10 146.913 74.400
5.11 151.065 74.920
5.12 158.691 75.124
5.13 163.219 75.156
5.14 167.376 75.005
5.15 172.106 74.635
5.16 175.517 74.292
5.17 176.471 73.959
5.18 174.933 72.953
5.19 171.590 70.614
5.20 168.160 66.713
5.21 164.275 61.885
5.22 151.882 58.740
5.23 144.430 --undefined--
5.24 132.800 --undefined--
5.25 --undefined-- --undefined--
5.26 --undefined-- --undefined--
