Time Pitch Intensity
0.01 --undefined-- --undefined--
0.02 111.366 --undefined--
0.03 110.736 --undefined--
0.04 108.435 --undefined--
0.05 106.914 72.224
0.06 106.880 70.564
0.07 105.705 68.632
0.08 105.841 65.909
0.09 116.986 61.963
0.10 --undefined-- 56.464
0.11 --undefined-- 51.441
0.12 --undefined-- 54.880
0.13 --undefined-- 63.210
0.14 --undefined-- 70.227
0.15 --undefined-- 74.771
0.16 128.405 77.170
0.17 126.921 78.195
0.18 126.431 78.532
0.19 128.608 78.584
0.20 129.178 78.630
0.21 128.542 78.714
0.22 128.304 78.658
0.23 129.686 78.528
0.24 133.939 78.671
0.25 137.082 79.039
0.26 139.837 79.405
0.27 143.118 79.814
0.28 144.199 80.071
0.29 144.540 80.112
0.30 145.020 79.969
0.31 144.361 79.303
0.32 138.792 77.926
0.33 136.788 75.679
0.34 123.974 71.797
0.35 101.248 65.291
0.36 --undefined-- 56.341
0.37 --undefined-- 50.310
0.38 --undefined-- 49.235
0.39 --undefined-- 48.487
0.40 --undefined-- 48.557
0.41 --undefined-- 49.411
0.42 --undefined-- 49.957
0.43 --undefined-- 50.167
0.44 --undefined-- 50.214
0.45 --undefined-- 50.135
0.46 --undefined-- 50.154
0.47 --undefined-- 49.879
0.48 --undefined-- 49.117
0.49 --undefined-- 48.468
0.50 --undefined-- 48.140
0.51 --undefined-- 47.283
0.52 --undefined-- 45.841
0.53 --undefined-- 44.923
0.54 --undefined-- 45.356
0.55 --undefined-- 45.088
0.56 --undefined-- 43.101
0.57 --undefined-- 41.430
0.58 --undefined-- 42.284
0.59 --undefined-- 46.863
0.60 --undefined-- 52.697
0.61 --undefined-- 56.959
0.62 --undefined-- 60.475
0.63 --undefined-- 66.393
0.64 --undefined-- 71.565
0.65 112.624 73.941
0.66 110.599 74.467
0.67 114.530 74.860
0.68 118.341 75.226
0.69 122.152 74.985
0.70 125.083 74.472
0.71 127.716 73.966
0.72 127.683 73.025
0.73 124.783 71.022
0.74 121.197 67.837
0.75 --undefined-- 63.882
0.76 --undefined-- 59.885
0.77 --undefined-- 59.359
0.78 --undefined-- 61.652
0.79 --undefined-- 62.790
0.80 --undefined-- 62.262
0.81 --undefined-- 65.353
0.82 --undefined-- 70.462
0.83 118.031 73.430
0.84 113.613 74.672
0.85 111.872 74.990
0.86 110.667 74.526
0.87 107.662 73.015
0.88 100.905 70.551
0.89 99.332 68.117
0.90 103.480 66.607
0.91 103.532 65.674
0.92 111.429 65.613
0.93 115.063 66.597
0.94 113.209 68.474
0.95 104.352 70.050
0.96 100.553 70.746
0.97 98.673 70.888
0.98 95.978 70.828
0.99 94.981 70.740
1.00 94.896 70.617
1.01 95.375 70.377
1.02 97.102 70.161
1.03 98.739 69.979
1.04 98.690 69.189
1.05 93.167 67.623
1.06 101.182 66.404
1.07 111.644 66.768
1.08 105.893 68.902
1.09 116.453 71.675
1.10 116.129 73.670
1.11 103.268 74.092
1.12 99.481 73.058
1.13 97.739 71.514
1.14 98.347 71.272
1.15 97.820 71.709
1.16 96.065 71.606
1.17 94.801 70.966
1.18 93.578 70.027
1.19 93.256 69.236
1.20 92.394 68.964
1.21 93.338 69.108
1.22 94.140 69.350
1.23 94.544 69.473
1.24 93.409 69.327
1.25 92.370 68.672
1.26 90.808 67.507
1.27 89.701 66.202
1.28 89.632 65.145
1.29 88.978 64.619
1.30 90.059 64.865
1.31 90.006 65.440
1.32 90.329 66.020
1.33 91.342 66.582
1.34 93.019 66.846
1.35 94.533 66.947
1.36 98.045 67.178
1.37 101.891 67.100
1.38 97.757 65.986
1.39 113.737 63.895
1.40 127.686 60.890
1.41 --undefined-- 56.081
1.42 --undefined-- 52.605
1.43 --undefined-- 60.237
1.44 --undefined-- 66.775
1.45 --undefined-- 72.041
1.46 179.998 75.982
1.47 163.972 78.211
1.48 147.641 78.990
1.49 145.759 79.072
1.50 147.344 79.044
1.51 147.608 78.923
1.52 148.333 78.750
1.53 150.036 78.659
1.54 150.839 78.736
1.55 151.519 78.858
1.56 152.402 78.907
1.57 153.319 78.811
1.58 153.661 78.539
1.59 153.574 78.169
1.60 154.346 77.742
1.61 152.182 77.012
1.62 146.238 75.901
1.63 139.938 74.632
1.64 131.293 73.504
1.65 127.516 72.902
1.66 124.294 72.829
1.67 120.992 73.171
1.68 119.020 73.559
1.69 117.638 73.646
1.70 115.674 73.584
1.71 113.363 73.665
1.72 114.052 73.869
1.73 116.292 74.146
1.74 119.493 74.490
1.75 124.469 74.631
1.76 129.667 74.337
1.77 132.480 73.117
1.78 127.949 70.462
1.79 124.668 66.126
1.80 101.930 60.245
1.81 --undefined-- 55.409
1.82 --undefined-- 54.715
1.83 --undefined-- 56.469
1.84 --undefined-- 61.155
1.85 180.880 68.558
1.86 178.167 73.291
1.87 171.279 75.072
1.88 169.629 74.993
1.89 171.219 74.428
1.90 174.693 74.224
1.91 175.676 74.205
1.92 175.879 73.740
1.93 172.987 73.070
1.94 173.937 72.942
1.95 173.225 73.258
1.96 171.814 73.827
1.97 170.002 74.354
1.98 166.608 74.517
1.99 163.256 74.477
2.00 159.071 74.495
2.01 154.298 74.573
2.02 148.547 74.667
2.03 142.230 74.467
2.04 136.680 73.620
2.05 135.071 72.298
2.06 130.563 71.178
2.07 129.538 70.520
2.08 125.571 70.102
2.09 124.351 70.033
2.10 123.125 70.717
2.11 122.961 72.313
2.12 123.703 74.363
2.13 122.991 76.196
2.14 121.958 77.241
2.15 121.953 77.397
2.16 122.891 77.037
2.17 123.716 76.622
2.18 124.467 76.188
2.19 127.990 75.798
2.20 133.404 75.649
2.21 134.931 75.555
2.22 134.915 75.413
2.23 134.023 75.453
2.24 132.425 75.887
2.25 132.994 76.576
2.26 127.395 77.208
2.27 124.627 77.418
2.28 123.471 77.174
2.29 122.041 76.837
2.30 120.354 76.588
2.31 118.371 75.825
2.32 111.503 73.846
2.33 110.467 71.219
2.34 115.482 69.043
2.35 111.614 67.440
2.36 114.915 67.235
2.37 121.622 69.439
2.38 123.495 72.755
2.39 114.541 75.215
2.40 111.012 76.362
2.41 110.063 76.636
2.42 109.673 76.571
2.43 109.339 76.428
2.44 109.188 76.374
2.45 108.898 76.315
2.46 109.067 76.073
2.47 109.524 75.442
2.48 109.243 74.120
2.49 107.621 71.785
2.50 104.995 68.185
2.51 106.468 63.615
2.52 --undefined-- 59.115
2.53 --undefined-- 54.998
2.54 --undefined-- 56.450
2.55 --undefined-- 65.410
2.56 151.897 72.336
2.57 147.182 75.944
2.58 130.745 77.204
2.59 130.500 77.466
2.60 131.354 77.508
2.61 134.354 77.427
2.62 137.633 77.331
2.63 140.095 77.291
2.64 141.942 77.009
2.65 143.777 75.575
2.66 141.521 72.096
2.67 132.672 66.263
2.68 --undefined-- 59.072
2.69 --undefined-- 52.687
2.70 --undefined-- 48.521
2.71 --undefined-- 49.252
2.72 --undefined-- 53.865
2.73 --undefined-- 59.173
2.74 --undefined-- 62.683
2.75 --undefined-- 63.225
2.76 --undefined-- 60.992
2.77 --undefined-- 58.101
2.78 --undefined-- 60.552
2.79 --undefined-- 66.874
2.80 --undefined-- 71.048
2.81 106.827 73.005
2.82 105.280 73.995
2.83 105.069 74.685
2.84 103.969 75.089
2.85 104.195 75.322
2.86 106.560 75.703
2.87 109.916 76.507
2.88 114.015 77.514
2.89 118.334 78.196
2.90 120.428 78.000
2.91 119.792 76.387
2.92 118.182 73.344
2.93 128.204 69.765
2.94 133.002 68.972
2.95 169.987 74.119
2.96 167.582 78.306
2.97 161.027 80.283
2.98 155.776 80.570
2.99 154.147 79.576
3.00 152.097 77.088
3.01 148.173 72.657
3.02 146.812 67.171
3.03 144.225 62.315
3.04 --undefined-- 57.636
3.05 --undefined-- 57.458
3.06 --undefined-- 61.686
3.07 185.452 69.426
3.08 171.950 74.872
3.09 153.307 77.042
3.10 138.677 76.311
3.11 126.250 72.913
3.12 111.789 66.926
3.13 --undefined-- 58.865
3.14 --undefined-- 51.989
3.15 --undefined-- 49.778
3.16 --undefined-- 50.551
3.17 --undefined-- 54.568
3.18 --undefined-- 62.846
3.19 --undefined-- 69.621
3.20 --undefined-- 73.139
3.21 108.801 74.021
3.22 100.033 73.244
3.23 96.820 71.748
3.24 93.509 70.244
3.25 93.005 69.309
3.26 92.874 68.939
3.27 93.979 68.714
3.28 94.643 68.394
3.29 94.386 68.096
3.30 93.542 67.917
3.31 93.397 67.909
3.32 92.814 68.014
3.33 93.334 68.191
3.34 94.623 68.347
3.35 96.024 68.105
3.36 95.734 67.088
3.37 92.379 65.221
3.38 90.937 62.673
3.39 108.107 59.589
3.40 --undefined-- 57.954
3.41 --undefined-- 60.714
3.42 --undefined-- 65.508
3.43 112.689 69.588
3.44 100.860 71.964
3.45 101.351 73.101
3.46 103.314 73.661
3.47 106.192 74.292
3.48 109.448 75.243
3.49 113.572 76.198
3.50 118.817 77.142
3.51 124.252 78.304
3.52 132.458 79.729
3.53 142.275 80.955
3.54 147.870 81.503
3.55 154.682 81.654
3.56 160.593 81.733
3.57 166.070 81.558
3.58 168.625 81.089
3.59 166.235 80.521
3.60 162.169 79.575
3.61 155.977 77.259
3.62 141.603 72.649
3.63 --undefined-- 65.286
3.64 --undefined-- 56.794
3.65 --undefined-- 53.676
3.66 --undefined-- 52.323
3.67 --undefined-- 51.422
3.68 --undefined-- 51.796
3.69 --undefined-- 52.507
3.70 --undefined-- 52.237
3.71 --undefined-- 51.145
3.72 --undefined-- 50.323
3.73 --undefined-- 49.941
3.74 --undefined-- 49.873
3.75 --undefined-- 50.467
3.76 --undefined-- 50.749
3.77 --undefined-- 50.454
3.78 --undefined-- 50.168
3.79 --undefined-- 49.805
3.80 --undefined-- 48.441
3.81 --undefined-- 46.036
3.82 --undefined-- 43.491
3.83 --undefined-- 42.177
3.84 --undefined-- 43.755
3.85 --undefined-- 49.236
3.86 --undefined-- 57.198
3.87 --undefined-- 62.212
3.88 114.909 63.651
3.89 115.245 62.049
3.90 --undefined-- 58.260
3.91 --undefined-- 57.225
3.92 140.084 62.656
3.93 145.255 68.299
3.94 130.827 72.605
3.95 122.509 75.291
3.96 122.407 76.665
3.97 123.157 77.189
3.98 122.865 77.189
3.99 119.614 76.818
4.00 117.338 76.259
4.01 119.218 75.745
4.02 116.140 75.229
4.03 112.415 74.671
4.04 111.214 74.234
4.05 112.287 73.691
4.06 108.844 72.291
4.07 103.923 69.644
4.08 112.595 66.285
4.09 115.001 62.884
4.10 --undefined-- 62.303
4.11 --undefined-- 67.014
4.12 --undefined-- 71.137
4.13 116.916 73.341
4.14 111.087 74.120
4.15 108.388 74.122
4.16 107.860 73.779
4.17 108.785 73.125
4.18 110.912 72.424
4.19 111.431 71.888
4.20 111.541 71.478
4.21 111.038 71.404
4.22 110.580 71.683
4.23 109.267 72.036
4.24 108.016 72.245
4.25 106.496 72.243
4.26 104.481 72.178
4.27 103.059 72.151
4.28 101.431 71.981
4.29 100.329 71.702
4.30 98.729 71.426
4.31 98.392 70.992
4.32 98.638 70.455
4.33 98.772 70.084
4.34 98.795 69.841
4.35 98.712 69.526
4.36 98.470 68.870
4.37 97.905 67.333
4.38 93.043 64.567
4.39 93.379 60.624
4.40 --undefined-- 57.120
4.41 --undefined-- 57.324
4.42 --undefined-- 58.001
4.43 --undefined-- 58.784
4.44 --undefined-- 63.874
4.45 123.694 69.212
4.46 120.175 72.325
4.47 115.130 73.776
4.48 113.759 74.460
4.49 113.396 74.708
4.50 113.240 74.689
4.51 112.003 74.593
4.52 112.600 74.441
4.53 108.714 73.720
4.54 101.941 72.089
4.55 98.993 70.321
4.56 101.649 69.654
4.57 103.327 70.272
4.58 99.319 70.722
4.59 92.749 70.447
4.60 90.297 69.974
4.61 90.055 69.673
4.62 87.808 69.131
4.63 87.130 68.498
4.64 86.623 68.311
4.65 86.881 68.324
4.66 86.777 68.300
4.67 86.424 68.253
4.68 85.725 68.119
4.69 86.909 67.569
4.70 86.905 66.557
4.71 89.326 65.481
4.72 89.774 64.397
4.73 88.807 62.918
4.74 90.156 61.196
4.75 102.245 60.186
4.76 115.578 60.663
4.77 116.829 61.204
4.78 106.932 60.670
4.79 90.855 59.310
4.80 96.944 58.477
4.81 --undefined-- 61.289
4.82 --undefined-- 69.625
4.83 --undefined-- 75.849
4.84 131.933 78.911
4.85 124.389 79.888
4.86 118.812 79.819
4.87 117.635 79.523
4.88 118.029 79.256
4.89 119.016 78.902
4.90 119.031 78.456
4.91 118.999 77.957
4.92 118.967 77.455
4.93 118.209 77.025
4.94 118.464 76.770
4.95 120.024 76.689
4.96 121.153 76.591
4.97 121.915 76.312
4.98 124.270 75.910
4.99 124.979 75.429
5.00 124.878 74.668
5.01 124.398 73.546
5.02 123.534 72.878
5.03 128.098 74.021
5.04 125.855 75.656
5.05 120.290 --undefined--
5.06 117.416 --undefined--
5.07 --undefined-- --undefined--
5.08 --undefined-- --undefined--
