Time Pitch Intensity
0.01 --undefined-- --undefined--
0.02 115.669 --undefined--
0.03 115.279 --undefined--
0.04 114.965 --undefined--
0.05 114.190 65.347
0.06 113.546 64.320
0.07 112.144 63.486
0.08 110.637 62.932
0.09 109.141 62.019
0.10 108.356 60.759
0.11 107.835 60.172
0.12 105.683 59.563
0.13 104.767 58.317
0.14 103.799 56.708
0.15 102.235 54.900
0.16 101.986 53.972
0.17 102.813 55.871
0.18 105.884 59.603
0.19 106.274 62.744
0.20 105.898 64.309
0.21 104.663 64.078
0.22 103.140 62.221
0.23 102.571 58.406
0.24 --undefined-- 52.025
0.25 --undefined-- 42.969
0.26 --undefined-- 33.930
0.27 --undefined-- 32.330
0.28 --undefined-- 33.259
0.29 --undefined-- 33.681
0.30 --undefined-- 33.940
0.31 --undefined-- 34.679
0.32 --undefined-- 34.797
0.33 --undefined-- 34.310
0.34 --undefined-- 35.102
0.35 --undefined-- 36.173
0.36 --undefined-- 35.665
0.37 --undefined-- 34.937
0.38 --undefined-- 35.709
0.39 --undefined-- 37.053
0.40 --undefined-- 37.609
0.41 --undefined-- 36.772
0.42 --undefined-- 35.774
0.43 --undefined-- 36.194
0.44 --undefined-- 36.244
0.45 --undefined-- 35.452
0.46 --undefined-- 34.700
0.47 --undefined-- 34.773
0.48 --undefined-- 35.785
0.49 --undefined-- 36.763
0.50 --undefined-- 36.158
0.51 --undefined-- 34.484
0.52 --undefined-- 34.560
0.53 --undefined-- 34.619
0.54 --undefined-- 33.425
0.55 --undefined-- 32.297
0.56 --undefined-- 31.778
0.57 --undefined-- 31.681
0.58 --undefined-- 31.010
0.59 --undefined-- 28.845
0.60 --undefined-- 27.081
0.61 --undefined-- 26.232
0.62 --undefined-- 36.224
0.63 --undefined-- 50.239
0.64 --undefined-- 60.301
0.65 --undefined-- 66.979
0.66 154.883 70.898
0.67 152.476 73.148
0.68 152.034 74.424
0.69 151.699 74.104
0.70 150.782 71.422
0.71 147.751 66.415
0.72 146.711 61.079
0.73 --undefined-- 58.542
0.74 --undefined-- 58.927
0.75 --undefined-- 65.000
0.76 152.139 71.150
0.77 152.696 74.930
0.78 152.305 76.425
0.79 151.491 75.884
0.80 150.270 73.425
0.81 148.173 68.920
0.82 137.208 62.137
0.83 --undefined-- 53.565
0.84 --undefined-- 46.608
0.85 --undefined-- 42.491
0.86 --undefined-- 40.723
0.87 --undefined-- 46.591
0.88 --undefined-- 51.873
0.89 284.725 54.123
0.90 --undefined-- 55.155
0.91 --undefined-- 58.682
0.92 168.734 61.774
0.93 170.585 62.299
0.94 170.744 61.268
0.95 171.408 61.337
0.96 172.639 63.272
0.97 172.685 65.522
0.98 173.079 67.297
0.99 171.860 68.632
1.00 170.102 69.501
1.01 171.397 69.303
1.02 172.437 67.236
1.03 172.267 63.081
1.04 172.444 58.039
1.05 --undefined-- 53.021
1.06 --undefined-- 48.111
1.07 --undefined-- 47.978
1.08 --undefined-- 49.887
1.09 --undefined-- 51.166
1.10 --undefined-- 52.651
1.11 --undefined-- 54.519
1.12 --undefined-- 56.736
1.13 107.667 60.097
1.14 108.224 63.278
1.15 108.496 65.054
1.16 109.368 65.876
1.17 110.473 66.612
1.18 112.093 67.489
1.19 113.796 68.019
1.20 115.207 67.170
1.21 --undefined-- 63.776
1.22 --undefined-- 57.115
1.23 --undefined-- 48.145
1.24 --undefined-- 42.734
1.25 --undefined-- 41.689
1.26 --undefined-- 42.210
1.27 --undefined-- 48.048
1.28 --undefined-- 55.605
1.29 --undefined-- 60.457
1.30 --undefined-- 62.771
1.31 --undefined-- 61.996
1.32 --undefined-- 58.835
1.33 --undefined-- 62.189
1.34 164.743 69.098
1.35 162.186 73.585
1.36 161.469 75.467
1.37 161.947 75.084
1.38 162.067 72.913
1.39 160.168 70.219
1.40 160.890 70.568
1.41 163.900 73.782
1.42 167.004 75.988
1.43 168.922 76.415
1.44 168.820 75.611
1.45 168.139 74.502
1.46 168.026 73.259
1.47 165.392 70.801
1.48 154.407 66.653
1.49 154.149 61.824
1.50 145.702 58.112
1.51 142.720 57.612
1.52 142.735 60.002
1.53 144.641 62.811
1.54 146.291 65.064
1.55 147.472 66.758
1.56 149.114 67.781
1.57 151.577 67.760
1.58 153.859 66.499
1.59 156.345 63.902
1.60 161.337 60.562
1.61 166.744 58.838
1.62 168.224 58.922
1.63 168.076 58.663
1.64 169.815 58.419
1.65 170.040 58.419
1.66 166.341 57.244
1.67 --undefined-- 54.065
1.68 --undefined-- 48.923
1.69 --undefined-- 42.712
1.70 --undefined-- 44.719
1.71 --undefined-- 56.688
1.72 --undefined-- 65.038
1.73 --undefined-- 69.762
1.74 --undefined-- 71.492
1.75 119.231 70.978
1.76 117.792 69.191
1.77 117.738 66.781
1.78 114.606 64.300
1.79 114.543 62.295
1.80 110.749 60.196
1.81 110.894 56.596
1.82 --undefined-- 50.741
1.83 --undefined-- 44.294
1.84 --undefined-- 40.772
1.85 --undefined-- 40.321
1.86 --undefined-- 39.951
1.87 --undefined-- 37.958
1.88 --undefined-- 38.441
1.89 --undefined-- 49.420
1.90 --undefined-- 56.849
1.91 --undefined-- 60.106
1.92 --undefined-- 62.486
1.93 --undefined-- 66.913
1.94 --undefined-- 69.395
1.95 --undefined-- 68.528
1.96 --undefined-- 64.398
1.97 --undefined-- 58.041
1.98 --undefined-- 57.609
1.99 --undefined-- 61.611
2.00 --undefined-- 64.334
2.01 --undefined-- 63.913
2.02 115.441 60.743
2.03 114.734 57.703
2.04 115.350 55.478
2.05 --undefined-- 52.926
2.06 --undefined-- 51.857
2.07 --undefined-- 52.947
2.08 131.265 54.660
2.09 138.533 56.831
2.10 145.166 59.158
2.11 148.595 60.680
2.12 149.127 60.882
2.13 148.489 59.582
2.14 146.593 56.626
2.15 --undefined-- 52.062
2.16 --undefined-- 48.609
2.17 --undefined-- 53.110
2.18 --undefined-- 58.788
2.19 --undefined-- 62.522
2.20 --undefined-- 64.425
2.21 --undefined-- 65.117
2.22 --undefined-- 65.315
2.23 --undefined-- 65.843
2.24 --undefined-- 64.700
2.25 --undefined-- 60.376
2.26 --undefined-- 55.022
2.27 --undefined-- 52.582
2.28 --undefined-- 50.592
2.29 --undefined-- 48.713
2.30 --undefined-- 46.984
2.31 --undefined-- 47.682
2.32 --undefined-- 51.155
2.33 --undefined-- 57.594
2.34 --undefined-- 61.938
2.35 --undefined-- 63.739
2.36 --undefined-- 64.305
2.37 --undefined-- 63.797
2.38 --undefined-- 62.421
2.39 --undefined-- 58.947
2.40 --undefined-- 51.746
2.41 --undefined-- 42.115
2.42 --undefined-- 38.185
2.43 --undefined-- 41.860
2.44 --undefined-- 43.800
2.45 --undefined-- 41.681
2.46 --undefined-- 35.526
2.47 --undefined-- 29.782
2.48 --undefined-- 29.996
2.49 --undefined-- 30.086
2.50 --undefined-- 29.938
2.51 --undefined-- 30.823
2.52 --undefined-- 33.988
2.53 --undefined-- 36.541
2.54 --undefined-- 35.912
2.55 --undefined-- 32.998
2.56 --undefined-- 31.182
2.57 --undefined-- 31.452
2.58 --undefined-- 33.105
2.59 --undefined-- 36.511
2.60 --undefined-- 42.880
2.61 --undefined-- 48.982
2.62 --undefined-- 55.918
2.63 209.442 63.826
2.64 207.225 68.997
2.65 204.740 71.615
2.66 200.878 72.805
2.67 200.275 72.899
2.68 199.258 71.551
2.69 194.909 68.550
2.70 180.695 63.837
2.71 --undefined-- 58.027
2.72 --undefined-- 55.101
2.73 --undefined-- 57.553
2.74 --undefined-- 59.524
2.75 --undefined-- 61.097
2.76 167.317 65.001
2.77 167.994 69.811
2.78 166.669 73.106
2.79 162.144 74.458
2.80 154.914 73.819
2.81 147.892 71.215
2.82 135.964 67.406
2.83 130.351 66.308
2.84 130.789 68.492
2.85 130.536 69.945
2.86 130.355 70.221
2.87 130.044 69.771
2.88 130.826 68.873
2.89 131.945 67.327
2.90 134.410 64.272
2.91 --undefined-- 58.727
2.92 --undefined-- 49.946
2.93 --undefined-- 40.136
2.94 --undefined-- 38.130
2.95 --undefined-- 38.793
2.96 --undefined-- 39.335
2.97 --undefined-- 42.129
2.98 --undefined-- 54.873
2.99 --undefined-- 65.488
3.00 211.463 71.675
3.01 208.874 74.319
3.02 206.101 74.444
3.03 205.035 73.437
3.04 204.925 72.714
3.05 204.860 72.682
3.06 203.510 72.787
3.07 199.635 72.470
3.08 193.200 71.708
3.09 186.104 70.651
3.10 178.864 68.975
3.11 169.365 66.215
3.12 156.937 62.985
3.13 146.080 61.671
3.14 139.146 61.908
3.15 128.208 62.060
3.16 122.833 61.542
3.17 118.889 60.742
3.18 117.223 60.405
3.19 111.303 60.146
3.20 106.162 60.033
3.21 102.738 60.700
3.22 101.321 60.565
3.23 98.985 58.469
3.24 96.239 55.243
3.25 97.639 52.988
3.26 --undefined-- 51.204
3.27 --undefined-- 48.287
3.28 --undefined-- 46.256
3.29 --undefined-- 50.198
3.30 --undefined-- 55.692
3.31 112.427 59.966
3.32 111.076 62.509
3.33 108.685 62.896
3.34 107.745 60.746
3.35 --undefined-- 57.257
3.36 130.273 57.020
3.37 136.088 58.979
3.38 143.096 60.833
3.39 150.337 62.441
3.40 155.057 63.408
3.41 156.958 63.836
3.42 156.635 63.404
3.43 155.063 61.217
3.44 --undefined-- 56.741
3.45 --undefined-- 50.526
3.46 --undefined-- 49.363
3.47 --undefined-- 50.919
3.48 --undefined-- 50.214
3.49 --undefined-- 48.837
3.50 --undefined-- 48.100
3.51 --undefined-- 49.594
3.52 --undefined-- 57.926
3.53 136.326 65.748
3.54 136.092 70.977
3.55 134.509 73.831
3.56 131.679 74.612
3.57 126.038 73.699
3.58 121.167 71.645
3.59 119.354 69.302
3.60 117.997 67.375
3.61 117.486 66.129
3.62 117.119 65.393
3.63 117.063 64.794
3.64 116.947 63.968
3.65 115.185 62.297
3.66 113.531 60.582
3.67 115.603 61.479
3.68 120.219 64.351
3.69 126.097 67.265
3.70 --undefined-- 68.945
3.71 --undefined-- 69.517
3.72 112.892 69.037
3.73 111.221 67.669
3.74 109.309 66.331
3.75 295.640 66.340
3.76 298.950 66.379
3.77 297.997 64.611
3.78 105.425 62.559
3.79 104.971 60.678
3.80 104.532 57.983
3.81 107.007 55.404
3.82 90.802 54.010
3.83 92.167 52.763
3.84 --undefined-- 51.238
3.85 --undefined-- 55.265
3.86 297.369 60.284
3.87 295.653 62.103
3.88 277.254 61.964
3.89 273.419 60.960
3.90 264.172 58.889
3.91 --undefined-- 56.611
3.92 --undefined-- 54.367
3.93 --undefined-- 52.952
3.94 --undefined-- 53.158
3.95 --undefined-- 52.289
3.96 --undefined-- 50.310
3.97 --undefined-- 50.972
3.98 --undefined-- 51.378
3.99 --undefined-- 49.976
4.00 --undefined-- 49.027
4.01 --undefined-- 48.098
4.02 --undefined-- 45.214
4.03 --undefined-- 39.741
4.04 --undefined-- 34.205
4.05 --undefined-- 32.973
4.06 --undefined-- 33.692
4.07 --undefined-- 34.283
4.08 --undefined-- 34.606
4.09 --undefined-- 34.803
4.10 --undefined-- 34.403
4.11 --undefined-- 36.054
4.12 --undefined-- 43.280
4.13 --undefined-- 53.116
4.14 --undefined-- 61.301
4.15 --undefined-- 66.759
4.16 149.418 70.121
4.17 145.869 71.534
4.18 143.508 71.394
4.19 141.842 70.264
4.20 140.821 68.403
4.21 142.778 66.287
4.22 146.772 65.512
4.23 149.365 65.831
4.24 151.465 66.291
4.25 150.512 66.500
4.26 147.622 65.780
4.27 144.653 64.233
4.28 140.975 62.473
4.29 138.293 60.532
4.30 133.388 58.149
4.31 130.417 56.204
4.32 128.822 56.884
4.33 131.914 60.111
4.34 137.284 64.683
4.35 140.192 68.908
4.36 142.888 72.041
4.37 141.402 74.288
4.38 138.753 75.461
4.39 134.491 75.253
4.40 132.781 73.550
4.41 131.774 70.771
4.42 132.692 68.335
4.43 132.902 66.519
4.44 130.585 63.712
4.45 125.510 58.927
4.46 --undefined-- 52.487
4.47 --undefined-- 46.678
4.48 --undefined-- 42.783
4.49 --undefined-- 40.085
4.50 --undefined-- 41.652
4.51 --undefined-- 45.491
4.52 --undefined-- 49.528
4.53 --undefined-- 52.570
4.54 --undefined-- 54.058
4.55 --undefined-- 56.699
4.56 152.752 61.143
4.57 152.593 65.024
4.58 153.850 67.518
4.59 154.021 68.487
4.60 153.701 68.259
4.61 153.159 66.978
4.62 153.317 64.261
4.63 145.416 61.171
4.64 150.043 61.158
4.65 150.638 62.054
4.66 149.506 62.034
4.67 148.119 61.538
4.68 146.514 61.892
4.69 142.763 64.467
4.70 141.545 67.893
4.71 139.414 70.652
4.72 137.305 72.316
4.73 135.339 72.633
4.74 135.443 71.512
4.75 135.509 69.200
4.76 135.877 66.175
4.77 135.956 62.861
4.78 140.749 60.026
4.79 143.376 58.924
4.80 145.540 58.950
4.81 147.319 58.350
4.82 145.600 56.729
4.83 --undefined-- 54.209
4.84 --undefined-- 53.428
4.85 147.936 58.402
4.86 151.425 64.328
4.87 153.364 68.609
4.88 153.647 70.751
4.89 154.023 71.292
4.90 154.440 70.837
4.91 153.324 69.488
4.92 150.249 66.775
4.93 138.809 62.206
4.94 137.501 57.085
4.95 137.291 53.770
4.96 --undefined-- 51.748
4.97 --undefined-- 50.038
4.98 --undefined-- 48.321
4.99 --undefined-- 47.801
5.00 --undefined-- 48.235
5.01 --undefined-- 49.279
5.02 --undefined-- 50.648
5.03 --undefined-- 58.489
5.04 --undefined-- 67.300
5.05 --undefined-- 72.491
5.06 --undefined-- 74.793
5.07 --undefined-- 74.799
5.08 --undefined-- 73.359
5.09 76.498 71.404
5.10 75.737 69.780
5.11 76.326 69.119
5.12 76.287 69.091
5.13 76.408 69.743
5.14 156.257 70.891
5.15 160.342 71.958
5.16 163.099 72.876
5.17 165.069 73.133
5.18 166.908 72.164
5.19 168.167 69.805
5.20 168.128 66.059
5.21 167.300 62.009
5.22 166.594 60.419
5.23 165.226 60.058
5.24 163.612 58.714
5.25 161.312 55.621
5.26 --undefined-- 51.028
5.27 --undefined-- 47.229
5.28 --undefined-- 46.449
5.29 --undefined-- 53.617
5.30 --undefined-- 61.386
5.31 136.132 66.580
5.32 138.664 69.376
5.33 136.771 70.724
5.34 134.599 71.005
5.35 132.044 70.310
5.36 130.249 68.678
5.37 129.056 65.300
5.38 --undefined-- 59.115
5.39 --undefined-- 49.200
5.40 --undefined-- 41.140
5.41 --undefined-- 40.240
5.42 --undefined-- 40.933
5.43 --undefined-- 49.753
5.44 --undefined-- 59.527
5.45 --undefined-- 65.607
5.46 --undefined-- 68.197
5.47 119.199 68.453
5.48 117.270 68.355
5.49 115.648 68.503
5.50 114.506 68.060
5.51 113.251 66.678
5.52 111.961 64.680
5.53 111.425 62.408
5.54 112.548 60.097
5.55 117.011 58.888
5.56 116.786 58.724
5.57 114.756 57.870
5.58 113.318 54.950
5.59 --undefined-- 49.363
5.60 --undefined-- 41.756
5.61 --undefined-- 37.760
5.62 --undefined-- 36.060
5.63 --undefined-- 36.216
5.64 --undefined-- 39.208
5.65 --undefined-- 46.073
5.66 --undefined-- 58.177
5.67 --undefined-- 67.407
5.68 157.732 73.599
5.69 155.426 77.035
5.70 153.659 78.206
5.71 153.044 77.859
5.72 153.057 77.091
5.73 152.826 76.267
5.74 153.244 75.177
5.75 153.548 73.455
5.76 155.047 70.529
5.77 157.063 66.966
5.78 158.055 64.540
5.79 157.837 63.013
5.80 --undefined-- 61.487
5.81 --undefined-- 59.649
5.82 --undefined-- 56.651
5.83 --undefined-- 51.146
5.84 --undefined-- 44.561
5.85 --undefined-- 43.601
5.86 --undefined-- 43.664
5.87 --undefined-- 41.624
5.88 --undefined-- 38.603
5.89 --undefined-- 36.809
5.90 --undefined-- 35.900
5.91 --undefined-- 35.687
5.92 --undefined-- 35.696
5.93 --undefined-- 35.939
5.94 --undefined-- 45.104
5.95 --undefined-- 56.576
5.96 --undefined-- 64.681
5.97 --undefined-- 70.756
5.98 --undefined-- 75.027
5.99 --undefined-- 77.403
6.00 --undefined-- 77.905
6.01 120.399 77.356
6.02 123.311 76.675
6.03 128.214 --undefined--
6.04 132.041 --undefined--
6.05 --undefined-- --undefined--
6.06 --undefined-- --undefined--
