Time Pitch Intensity
0.01 --undefined-- --undefined--
0.02 --undefined-- --undefined--
0.03 --undefined-- --undefined--
0.04 --undefined-- --undefined--
0.05 --undefined-- 65.155
0.06 192.508 69.544
0.07 186.319 71.175
0.08 178.415 71.356
0.09 168.856 71.209
0.10 163.558 71.033
0.11 160.570 70.841
0.12 160.199 70.789
0.13 160.580 71.086
0.14 162.652 71.760
0.15 168.148 72.461
0.16 171.131 72.987
0.17 174.855 73.408
0.18 178.895 73.790
0.19 183.570 74.123
0.20 187.240 74.283
0.21 190.642 73.966
0.22 192.698 72.943
0.23 197.054 71.791
0.24 215.259 72.387
0.25 221.702 73.654
0.26 220.692 73.833
0.27 220.399 73.391
0.28 219.898 72.988
0.29 215.758 72.333
0.30 211.710 71.002
0.31 207.631 68.548
0.32 --undefined-- 64.414
0.33 --undefined-- 59.337
0.34 --undefined-- 56.320
0.35 --undefined-- 54.595
0.36 --undefined-- 52.514
0.37 --undefined-- 50.869
0.38 --undefined-- 49.772
0.39 --undefined-- 49.169
0.40 --undefined-- 56.573
0.41 200.546 64.322
0.42 196.679 68.358
0.43 181.213 69.722
0.44 175.132 70.153
0.45 170.823 70.676
0.46 167.994 71.107
0.47 165.395 71.520
0.48 162.627 72.021
0.49 160.270 72.462
0.50 158.690 72.744
0.51 157.878 72.881
0.52 157.867 72.918
0.53 158.347 72.870
0.54 158.892 72.561
0.55 159.276 71.916
0.56 159.946 71.204
0.57 159.654 70.728
0.58 159.207 70.360
0.59 160.119 70.269
0.60 162.262 70.537
0.61 163.112 70.729
0.62 163.048 70.718
0.63 162.893 70.587
0.64 163.894 70.412
0.65 165.237 70.122
0.66 166.061 69.378
0.67 164.636 68.008
0.68 146.562 66.405
0.69 132.873 64.856
0.70 --undefined-- 62.502
0.71 --undefined-- 58.488
0.72 --undefined-- 53.743
0.73 --undefined-- 48.996
0.74 --undefined-- 43.288
0.75 --undefined-- 40.092
0.76 --undefined-- 41.117
0.77 --undefined-- 41.481
0.78 --undefined-- 42.969
0.79 --undefined-- 47.101
0.80 --undefined-- 51.256
0.81 --undefined-- 56.281
0.82 --undefined-- 64.065
0.83 180.644 69.282
0.84 175.406 71.389
0.85 166.798 71.422
0.86 160.473 70.589
0.87 156.828 69.540
0.88 156.090 68.957
0.89 162.566 69.459
0.90 169.650 70.451
0.91 176.315 71.305
0.92 181.205 72.023
0.93 187.226 72.687
0.94 192.875 73.315
0.95 198.657 73.790
0.96 203.997 74.074
0.97 208.434 74.275
0.98 210.952 74.377
0.99 211.144 74.357
1.00 211.667 74.348
1.01 210.712 74.192
1.02 207.409 73.645
1.03 204.192 72.858
1.04 196.694 72.175
1.05 189.863 71.788
1.06 183.331 71.911
1.07 176.817 72.222
1.08 171.890 72.561
1.09 168.245 72.566
1.10 164.916 71.944
1.11 163.672 71.034
1.12 163.403 70.392
1.13 163.805 70.138
1.14 164.645 70.058
1.15 166.493 70.103
1.16 168.741 70.196
1.17 172.924 70.326
1.18 177.153 70.563
1.19 181.543 70.627
1.20 184.462 69.957
1.21 185.065 68.074
1.22 181.967 64.572
1.23 180.833 59.138
1.24 --undefined-- 51.708
1.25 --undefined-- 45.971
1.26 --undefined-- 44.593
1.27 --undefined-- 43.142
1.28 --undefined-- 43.984
1.29 --undefined-- 45.716
1.30 --undefined-- 46.136
1.31 --undefined-- 46.024
1.32 --undefined-- 49.364
1.33 --undefined-- 59.301
1.34 --undefined-- 66.153
1.35 185.967 69.437
1.36 172.138 70.394
1.37 164.257 70.515
1.38 161.748 70.571
1.39 161.248 70.578
1.40 162.012 70.583
1.41 163.878 70.544
1.42 167.427 70.413
1.43 172.395 70.252
1.44 178.330 69.983
1.45 184.988 69.638
1.46 190.573 69.349
1.47 194.498 68.819
1.48 196.801 67.356
1.49 195.579 64.152
1.50 194.107 58.404
1.51 --undefined-- 49.976
1.52 --undefined-- 42.765
1.53 --undefined-- 44.104
1.54 --undefined-- 47.114
1.55 --undefined-- 48.777
1.56 --undefined-- 56.371
1.57 236.386 64.286
1.58 199.821 68.403
1.59 182.945 69.815
1.60 168.762 69.956
1.61 160.811 69.977
1.62 154.001 70.126
1.63 150.187 70.179
1.64 146.075 70.014
1.65 143.390 69.685
1.66 141.973 69.154
1.67 141.877 68.473
1.68 142.215 67.678
1.69 142.642 66.838
1.70 144.096 66.091
1.71 147.869 65.833
1.72 151.234 66.695
1.73 152.194 67.960
1.74 152.132 68.873
1.75 151.563 69.480
1.76 151.183 69.873
1.77 151.469 70.116
1.78 151.827 70.137
1.79 151.656 69.899
1.80 150.775 69.504
1.81 150.009 69.244
1.82 151.261 69.392
1.83 152.716 69.752
1.84 153.092 70.086
1.85 153.848 70.251
1.86 154.145 70.180
1.87 154.758 69.749
1.88 155.434 68.708
1.89 153.788 66.603
1.90 149.868 62.706
1.91 --undefined-- 56.276
1.92 --undefined-- 50.581
1.93 --undefined-- 56.574
1.94 216.068 64.501
1.95 197.930 69.561
1.96 183.096 71.928
1.97 182.594 72.658
1.98 180.234 72.504
1.99 177.373 72.165
2.00 176.672 72.279
2.01 176.765 72.619
2.02 176.798 72.983
2.03 176.321 73.378
2.04 175.522 73.618
2.05 175.029 73.619
2.06 174.995 73.481
2.07 175.086 73.299
2.08 174.905 73.142
2.09 173.916 72.971
2.10 172.875 72.622
2.11 171.964 72.163
2.12 171.916 71.804
2.13 172.382 71.480
2.14 172.670 71.020
2.15 172.340 70.283
2.16 170.396 68.885
2.17 162.555 66.425
2.18 --undefined-- 62.845
2.19 --undefined-- 57.382
2.20 --undefined-- 49.085
2.21 --undefined-- 43.538
2.22 --undefined-- 42.037
2.23 --undefined-- 38.977
2.24 --undefined-- 37.649
2.25 --undefined-- 39.507
2.26 --undefined-- 40.141
2.27 --undefined-- 39.429
2.28 --undefined-- 41.312
2.29 --undefined-- 45.081
2.30 --undefined-- 54.058
2.31 216.572 62.113
2.32 190.585 67.050
2.33 185.180 70.116
2.34 187.400 72.211
2.35 189.194 73.581
2.36 188.011 74.211
2.37 188.190 74.066
2.38 186.214 73.459
2.39 182.699 72.995
2.40 179.867 72.647
2.41 177.493 72.295
2.42 175.852 72.149
2.43 175.233 72.127
2.44 174.803 72.129
2.45 174.336 72.095
2.46 173.708 71.999
2.47 173.746 71.983
2.48 173.274 72.056
2.49 172.735 72.038
2.50 173.022 71.985
2.51 171.903 72.321
2.52 175.470 73.018
2.53 177.272 73.386
2.54 178.827 73.303
2.55 179.747 72.863
2.56 178.318 71.747
2.57 175.055 69.350
2.58 172.292 64.956
2.59 175.240 58.065
2.60 --undefined-- 52.504
2.61 --undefined-- 54.304
2.62 --undefined-- 55.741
2.63 --undefined-- 55.522
2.64 --undefined-- 55.160
2.65 --undefined-- 54.523
2.66 --undefined-- 52.586
2.67 --undefined-- 55.228
2.68 187.795 61.747
2.69 186.628 66.007
2.70 186.609 68.044
2.71 182.648 68.866
2.72 170.371 69.174
2.73 162.265 69.095
2.74 157.765 68.740
2.75 155.102 68.346
2.76 153.533 68.061
2.77 152.984 67.889
2.78 152.365 67.851
2.79 152.373 68.042
2.80 152.289 68.242
2.81 152.556 68.363
2.82 152.690 68.499
2.83 152.901 68.625
2.84 152.201 68.652
2.85 150.480 68.586
2.86 149.386 68.495
2.87 149.941 68.557
2.88 151.392 68.890
2.89 152.921 69.328
2.90 155.209 69.802
2.91 157.388 70.224
2.92 158.616 70.490
2.93 161.110 70.544
2.94 163.015 70.234
2.95 159.054 69.487
2.96 151.668 68.471
2.97 142.820 67.293
2.98 --undefined-- 65.945
2.99 --undefined-- 64.048
3.00 130.837 61.718
3.01 138.146 61.364
3.02 144.529 62.917
3.03 158.130 64.680
3.04 163.740 66.562
3.05 166.585 68.216
3.06 165.687 69.271
3.07 163.589 69.677
3.08 161.811 69.708
3.09 159.585 69.571
3.10 156.171 69.258
3.11 154.281 68.750
3.12 153.016 68.060
3.13 152.678 67.392
3.14 154.251 67.087
3.15 157.620 67.471
3.16 163.743 68.618
3.17 171.773 70.174
3.18 175.089 71.552
3.19 174.929 72.514
3.20 178.493 73.268
3.21 177.386 73.551
3.22 173.594 73.442
3.23 172.842 73.539
3.24 171.724 73.682
3.25 170.487 73.671
3.26 169.158 73.640
3.27 169.037 73.804
3.28 169.739 74.024
3.29 170.177 73.986
3.30 170.681 73.824
3.31 170.446 73.937
3.32 170.029 74.310
3.33 169.956 74.723
3.34 170.698 75.147
3.35 172.254 75.463
3.36 174.731 75.352
3.37 177.741 74.577
3.38 177.774 73.155
3.39 174.177 71.137
3.40 168.544 68.113
3.41 146.253 63.578
3.42 --undefined-- 58.085
3.43 --undefined-- 53.926
3.44 --undefined-- 51.809
3.45 --undefined-- 52.339
3.46 --undefined-- 57.312
3.47 129.960 62.713
3.48 146.564 66.177
3.49 158.532 68.216
3.50 160.660 69.381
3.51 161.757 69.750
3.52 157.723 69.617
3.53 151.219 69.312
3.54 146.627 68.808
3.55 142.896 68.121
3.56 140.121 67.457
3.57 138.944 67.024
3.58 139.594 66.697
3.59 140.305 66.273
3.60 139.606 65.997
3.61 139.345 66.016
3.62 141.068 66.128
3.63 142.307 66.131
3.64 140.504 65.638
3.65 135.060 64.020
3.66 130.767 60.553
3.67 --undefined-- 54.698
3.68 --undefined-- 48.318
3.69 --undefined-- 46.187
3.70 --undefined-- 45.705
3.71 --undefined-- 48.046
3.72 --undefined-- 57.430
3.73 181.631 64.653
3.74 174.218 68.322
3.75 162.881 69.455
3.76 155.289 69.505
3.77 153.954 69.790
3.78 157.705 70.544
3.79 165.960 71.448
3.80 172.541 72.298
3.81 179.421 73.145
3.82 187.144 74.031
3.83 195.299 74.779
3.84 203.320 75.000
3.85 209.797 74.324
3.86 213.468 72.355
3.87 217.886 68.468
3.88 225.330 61.965
3.89 --undefined-- 54.433
3.90 --undefined-- 58.817
3.91 --undefined-- 66.516
3.92 223.751 70.737
3.93 214.208 71.871
3.94 197.644 71.311
3.95 189.258 71.163
3.96 183.638 71.652
3.97 178.405 71.996
3.98 174.169 72.077
3.99 172.140 71.757
4.00 171.791 71.180
4.01 171.514 70.748
4.02 171.842 70.425
4.03 172.878 70.212
4.04 173.605 70.247
4.05 174.084 70.491
4.06 174.291 70.972
4.07 175.392 71.430
4.08 171.460 71.360
4.09 166.251 71.019
4.10 162.572 70.821
4.11 159.554 70.686
4.12 158.881 70.541
4.13 158.212 70.536
4.14 158.500 70.957
4.15 162.005 71.457
4.16 161.832 71.521
4.17 162.461 71.415
4.18 162.645 71.330
4.19 163.479 71.162
4.20 164.697 71.061
4.21 165.393 71.128
4.22 165.511 71.175
4.23 165.827 71.032
4.24 165.670 70.745
4.25 167.766 70.611
4.26 166.255 70.800
4.27 165.589 71.336
4.28 165.592 71.893
4.29 165.801 72.087
4.30 166.378 71.917
4.31 166.640 71.605
4.32 166.447 71.393
4.33 165.948 71.261
4.34 165.101 71.170
4.35 163.613 71.113
4.36 162.198 71.138
4.37 161.097 71.289
4.38 159.890 71.511
4.39 158.978 71.665
4.40 158.788 71.511
4.41 157.684 70.895
4.42 156.369 69.802
4.43 153.791 68.181
4.44 148.189 66.177
4.45 142.742 63.881
4.46 --undefined-- 60.715
4.47 --undefined-- 55.629
4.48 --undefined-- 50.427
4.49 --undefined-- 47.717
4.50 --undefined-- 44.210
4.51 --undefined-- 41.466
4.52 --undefined-- 40.482
4.53 --undefined-- 39.390
4.54 --undefined-- 39.335
4.55 --undefined-- 40.370
4.56 --undefined-- 40.647
4.57 --undefined-- 39.101
4.58 --undefined-- 36.689
4.59 --undefined-- 35.474
4.60 --undefined-- 34.768
4.61 --undefined-- 34.837
4.62 --undefined-- 35.543
4.63 --undefined-- 36.992
4.64 --undefined-- 37.657
4.65 --undefined-- 37.986
4.66 --undefined-- 39.357
4.67 --undefined-- 41.316
4.68 --undefined-- 41.848
4.69 --undefined-- 40.062
4.70 --undefined-- 37.887
4.71 --undefined-- 38.941
4.72 --undefined-- 39.987
4.73 --undefined-- 38.549
4.74 --undefined-- 35.957
4.75 --undefined-- 36.783
4.76 --undefined-- 38.106
4.77 --undefined-- 39.123
4.78 --undefined-- 40.400
4.79 --undefined-- 40.218
4.80 --undefined-- 38.734
4.81 --undefined-- 38.629
4.82 --undefined-- 39.917
4.83 --undefined-- 41.515
4.84 --undefined-- 42.390
4.85 --undefined-- 42.746
4.86 --undefined-- 42.177
4.87 --undefined-- 40.604
4.88 --undefined-- 39.966
4.89 --undefined-- 40.518
4.90 --undefined-- 41.692
4.91 --undefined-- 41.721
4.92 --undefined-- 40.446
4.93 --undefined-- 40.709
4.94 --undefined-- 42.534
4.95 --undefined-- 43.865
4.96 --undefined-- 43.561
4.97 --undefined-- 42.332
4.98 --undefined-- 42.142
4.99 --undefined-- 42.040
5.00 --undefined-- 40.575
5.01 --undefined-- 39.199
5.02 --undefined-- 39.351
5.03 --undefined-- 39.492
5.04 --undefined-- 38.385
5.05 --undefined-- 38.313
5.06 --undefined-- 40.205
5.07 --undefined-- 41.000
5.08 --undefined-- 40.567
5.09 --undefined-- 40.315
5.10 --undefined-- 40.984
5.11 --undefined-- 41.450
5.12 --undefined-- 41.351
5.13 --undefined-- 40.718
5.14 --undefined-- 39.271
5.15 --undefined-- 38.752
5.16 --undefined-- 39.588
5.17 --undefined-- 40.067
5.18 --undefined-- 39.863
5.19 --undefined-- 39.446
5.20 --undefined-- 38.882
5.21 --undefined-- 38.461
5.22 --undefined-- 37.806
5.23 --undefined-- 38.194
5.24 --undefined-- 38.186
5.25 --undefined-- 37.619
5.26 --undefined-- 43.310
5.27 --undefined-- 55.720
5.28 233.012 64.237
5.29 222.707 69.210
5.30 223.554 71.838
5.31 224.780 73.295
5.32 226.340 74.045
5.33 226.110 74.323
5.34 222.915 74.545
5.35 221.842 75.062
5.36 221.035 75.816
5.37 219.680 76.547
5.38 218.799 76.941
5.39 217.640 76.793
5.40 216.314 76.316
5.41 215.532 75.916
5.42 214.429 75.449
5.43 213.277 74.713
5.44 211.468 73.825
5.45 209.289 72.077
5.46 203.974 68.371
5.47 203.529 62.281
5.48 --undefined-- 54.237
5.49 --undefined-- 47.202
5.50 --undefined-- 46.842
5.51 --undefined-- 50.160
5.52 --undefined-- 54.547
5.53 --undefined-- 61.489
5.54 228.961 68.118
5.55 226.061 72.108
5.56 223.817 74.396
5.57 221.554 75.768
5.58 219.348 76.464
5.59 217.968 76.594
5.60 217.034 76.456
5.61 216.088 76.259
5.62 214.826 76.053
5.63 213.713 75.812
5.64 212.879 75.574
5.65 212.360 75.447
5.66 211.609 75.380
5.67 210.918 75.279
5.68 210.762 75.058
5.69 211.368 74.612
5.70 212.212 73.766
5.71 210.857 72.439
5.72 202.335 70.805
5.73 191.309 68.829
5.74 174.729 66.115
5.75 --undefined-- 62.861
5.76 --undefined-- 60.071
5.77 222.511 57.793
5.78 204.658 55.733
5.79 215.418 56.371
5.80 223.093 --undefined--
5.81 177.651 --undefined--
5.82 --undefined-- --undefined--
5.83 --undefined-- --undefined--
