Time Pitch Intensity
0.01 --undefined-- --undefined--
0.02 --undefined-- --undefined--
0.03 143.901 --undefined--
0.04 142.693 --undefined--
0.05 121.212 70.708
0.06 114.875 70.334
0.07 109.807 69.451
0.08 106.210 68.772
0.09 107.549 68.788
0.10 113.259 69.311
0.11 120.342 70.097
0.12 128.321 71.045
0.13 133.002 71.778
0.14 135.739 72.031
0.15 137.184 71.105
0.16 136.786 67.914
0.17 126.338 61.974
0.18 --undefined-- 54.585
0.19 --undefined-- 47.927
0.20 --undefined-- 47.272
0.21 --undefined-- 53.143
0.22 --undefined-- 62.338
0.23 193.410 69.347
0.24 177.836 73.348
0.25 168.313 75.414
0.26 164.653 76.679
0.27 162.384 77.310
0.28 161.610 77.102
0.29 163.167 75.821
0.30 163.712 73.416
0.31 162.149 70.851
0.32 156.750 68.932
0.33 151.226 66.647
0.34 97.718 62.877
0.35 97.584 57.565
0.36 --undefined-- 52.512
0.37 --undefined-- 47.763
0.38 --undefined-- 43.092
0.39 --undefined-- 39.712
0.40 --undefined-- 37.951
0.41 --undefined-- 38.934
0.42 --undefined-- 39.589
0.43 --undefined-- 40.103
0.44 --undefined-- 40.503
0.45 --undefined-- 39.701
0.46 --undefined-- 37.693
0.47 --undefined-- 35.488
0.48 --undefined-- 34.759
0.49 --undefined-- 35.238
0.50 --undefined-- 34.823
0.51 --undefined-- 33.044
0.52 --undefined-- 32.317
0.53 --undefined-- 32.958
0.54 --undefined-- 33.349
0.55 --undefined-- 34.430
0.56 --undefined-- 37.581
0.57 --undefined-- 39.975
0.58 --undefined-- 40.149
0.59 --undefined-- 38.490
0.60 --undefined-- 38.403
0.61 --undefined-- 39.493
0.62 --undefined-- 39.852
0.63 --undefined-- 40.320
0.64 --undefined-- 39.661
0.65 --undefined-- 37.710
0.66 --undefined-- 37.591
0.67 --undefined-- 38.099
0.68 --undefined-- 38.441
0.69 --undefined-- 39.710
0.70 --undefined-- 40.515
0.71 --undefined-- 39.115
0.72 --undefined-- 37.144
0.73 --undefined-- 46.020
0.74 --undefined-- 58.554
0.75 --undefined-- 66.615
0.76 192.374 71.226
0.77 182.434 73.542
0.78 187.240 74.650
0.79 192.842 75.240
0.80 196.225 75.433
0.81 197.397 75.176
0.82 197.314 74.686
0.83 197.352 74.297
0.84 193.573 74.096
0.85 188.252 74.126
0.86 181.925 74.342
0.87 176.065 74.931
0.88 169.606 76.334
0.89 162.689 77.758
0.90 160.473 77.985
0.91 159.622 77.198
0.92 159.463 76.045
0.93 156.730 74.785
0.94 163.126 73.907
0.95 165.837 73.285
0.96 168.184 72.648
0.97 168.858 72.007
0.98 164.935 71.096
0.99 156.775 69.390
1.00 148.261 66.374
1.01 145.756 61.625
1.02 --undefined-- 56.123
1.03 --undefined-- 60.025
1.04 --undefined-- 67.284
1.05 --undefined-- 71.529
1.06 --undefined-- 73.275
1.07 119.617 73.564
1.08 116.901 73.262
1.09 115.536 72.731
1.10 115.516 72.161
1.11 115.531 71.504
1.12 115.002 70.516
1.13 115.287 69.484
1.14 115.990 69.275
1.15 119.071 69.869
1.16 121.640 70.324
1.17 122.458 70.179
1.18 120.880 68.983
1.19 117.208 66.155
1.20 115.661 61.314
1.21 --undefined-- 55.100
1.22 --undefined-- 52.517
1.23 --undefined-- 53.203
1.24 --undefined-- 53.407
1.25 --undefined-- 55.636
1.26 --undefined-- 62.938
1.27 166.283 68.938
1.28 158.167 72.251
1.29 149.309 73.578
1.30 144.043 73.688
1.31 142.086 73.330
1.32 141.091 73.027
1.33 140.918 72.864
1.34 141.149 72.701
1.35 140.341 72.404
1.36 139.576 72.207
1.37 140.547 72.208
1.38 141.000 72.127
1.39 141.340 71.893
1.40 141.560 71.434
1.41 140.960 70.543
1.42 137.497 68.831
1.43 135.966 65.783
1.44 --undefined-- 60.989
1.45 --undefined-- 55.144
1.46 --undefined-- 50.700
1.47 --undefined-- 46.236
1.48 --undefined-- 40.747
1.49 --undefined-- 36.648
1.50 --undefined-- 34.696
1.51 --undefined-- 34.103
1.52 --undefined-- 34.575
1.53 --undefined-- 36.600
1.54 --undefined-- 37.578
1.55 --undefined-- 41.356
1.56 --undefined-- 48.359
1.57 --undefined-- 52.187
1.58 --undefined-- 52.545
1.59 --undefined-- 49.909
1.60 --undefined-- 45.936
1.61 --undefined-- 44.238
1.62 --undefined-- 43.741
1.63 --undefined-- 43.626
1.64 --undefined-- 43.823
1.65 --undefined-- 42.993
1.66 --undefined-- 41.753
1.67 --undefined-- 41.626
1.68 --undefined-- 41.642
1.69 --undefined-- 41.309
1.70 --undefined-- 47.478
1.71 --undefined-- 56.134
1.72 162.181 61.921
1.73 152.079 65.595
1.74 149.935 67.888
1.75 149.439 69.228
1.76 148.326 69.951
1.77 147.603 70.391
1.78 147.055 70.807
1.79 146.965 71.435
1.80 147.471 72.109
1.81 150.453 72.105
1.82 145.075 70.877
1.83 --undefined-- 68.860
1.84 --undefined-- 67.140
1.85 --undefined-- 66.828
1.86 --undefined-- 68.228
1.87 136.244 70.688
1.88 143.300 72.766
1.89 137.228 73.822
1.90 136.421 74.273
1.91 135.156 74.567
1.92 134.045 74.815
1.93 134.594 75.108
1.94 134.431 75.149
1.95 133.145 74.316
1.96 131.205 72.018
1.97 129.002 67.769
1.98 114.144 61.267
1.99 --undefined-- 53.060
2.00 --undefined-- 46.842
2.01 --undefined-- 45.812
2.02 --undefined-- 46.201
2.03 --undefined-- 46.615
2.04 --undefined-- 48.758
2.05 --undefined-- 50.501
2.06 --undefined-- 50.146
2.07 --undefined-- 52.841
2.08 --undefined-- 59.117
2.09 --undefined-- 64.568
2.10 133.230 68.398
2.11 131.154 70.348
2.12 130.474 70.930
2.13 128.539 71.138
2.14 128.112 71.621
2.15 128.164 72.216
2.16 128.132 72.549
2.17 128.753 72.542
2.18 129.228 72.369
2.19 129.529 72.099
2.20 130.165 71.719
2.21 130.249 71.240
2.22 130.614 70.656
2.23 130.467 69.989
2.24 --undefined-- 69.194
2.25 --undefined-- 67.687
2.26 --undefined-- 65.196
2.27 --undefined-- 61.152
2.28 --undefined-- 56.387
2.29 --undefined-- 52.878
2.30 --undefined-- 56.648
2.31 134.088 62.606
2.32 134.120 66.897
2.33 138.403 69.690
2.34 125.948 70.903
2.35 126.202 71.441
2.36 124.032 72.272
2.37 122.682 73.348
2.38 121.815 74.282
2.39 121.809 74.709
2.40 121.313 74.642
2.41 121.549 74.458
2.42 122.758 74.384
2.43 123.691 74.178
2.44 124.770 73.438
2.45 124.856 72.227
2.46 --undefined-- 70.908
2.47 --undefined-- 68.622
2.48 --undefined-- 64.712
2.49 --undefined-- 60.967
2.50 --undefined-- 58.764
2.51 --undefined-- 57.776
2.52 --undefined-- 59.145
2.53 --undefined-- 63.679
2.54 --undefined-- 67.107
2.55 --undefined-- 69.285
2.56 --undefined-- 70.625
2.57 120.798 71.436
2.58 122.746 71.780
2.59 121.581 72.107
2.60 119.648 72.637
2.61 117.899 73.144
2.62 116.116 73.363
2.63 114.397 73.227
2.64 111.976 72.817
2.65 110.047 72.130
2.66 107.157 70.897
2.67 103.326 69.200
2.68 100.525 67.443
2.69 96.814 65.551
2.70 95.680 63.657
2.71 94.238 61.574
2.72 --undefined-- 59.296
2.73 --undefined-- 56.742
2.74 --undefined-- 54.054
2.75 --undefined-- 51.137
2.76 --undefined-- 46.243
2.77 --undefined-- 41.026
2.78 --undefined-- 40.356
2.79 --undefined-- 42.085
2.80 --undefined-- 42.706
2.81 --undefined-- 42.634
2.82 --undefined-- 42.090
2.83 --undefined-- 40.579
2.84 --undefined-- 39.374
2.85 --undefined-- 38.896
2.86 --undefined-- 38.844
2.87 --undefined-- 38.894
2.88 --undefined-- 38.656
2.89 --undefined-- 38.262
2.90 --undefined-- 36.965
2.91 --undefined-- 35.879
2.92 --undefined-- 36.992
2.93 --undefined-- 37.969
2.94 --undefined-- 37.836
2.95 --undefined-- 37.288
2.96 --undefined-- 37.530
2.97 --undefined-- 41.139
2.98 --undefined-- 43.617
2.99 --undefined-- 44.258
3.00 --undefined-- 47.217
3.01 --undefined-- 49.686
3.02 --undefined-- 50.134
3.03 --undefined-- 50.099
3.04 --undefined-- 50.683
3.05 --undefined-- 51.741
3.06 --undefined-- 52.606
3.07 --undefined-- 56.410
3.08 --undefined-- 65.270
3.09 --undefined-- 71.624
3.10 170.102 75.150
3.11 161.067 76.769
3.12 153.564 77.041
3.13 146.271 76.306
3.14 143.898 75.090
3.15 144.076 73.434
3.16 142.311 70.244
3.17 --undefined-- 64.652
3.18 --undefined-- 57.559
3.19 --undefined-- 55.696
3.20 188.055 62.863
3.21 170.023 68.440
3.22 164.012 71.386
3.23 161.041 72.361
3.24 160.836 72.404
3.25 163.059 72.458
3.26 167.208 72.796
3.27 169.959 72.759
3.28 169.891 71.067
3.29 166.985 66.943
3.30 160.624 61.317
3.31 155.567 57.745
3.32 --undefined-- 58.308
3.33 --undefined-- 60.778
3.34 --undefined-- 61.390
3.35 --undefined-- 62.540
3.36 150.908 68.846
3.37 153.244 73.442
3.38 145.523 75.387
3.39 132.278 75.452
3.40 127.671 74.580
3.41 125.055 73.431
3.42 124.828 71.870
3.43 124.736 69.769
3.44 120.018 66.737
3.45 106.983 62.300
3.46 --undefined-- 62.396
3.47 --undefined-- 67.709
3.48 126.745 70.966
3.49 123.889 72.248
3.50 120.180 72.102
3.51 117.882 71.110
3.52 114.274 70.088
3.53 111.482 69.409
3.54 110.776 69.409
3.55 109.062 69.681
3.56 106.076 69.599
3.57 105.980 68.884
3.58 108.299 67.807
3.59 108.114 67.124
3.60 108.083 66.833
3.61 109.526 66.390
3.62 109.517 65.577
3.63 108.669 64.674
3.64 107.372 63.542
3.65 107.471 61.329
3.66 106.051 57.797
3.67 --undefined-- 53.611
3.68 --undefined-- 48.893
3.69 --undefined-- 44.889
3.70 --undefined-- 48.864
3.71 --undefined-- 52.710
3.72 --undefined-- 53.938
3.73 --undefined-- 54.437
3.74 --undefined-- 60.134
3.75 157.986 67.282
3.76 149.759 71.719
3.77 143.154 73.643
3.78 135.424 73.799
3.79 128.749 73.320
3.80 123.954 72.940
3.81 119.621 72.318
3.82 117.069 71.272
3.83 116.404 70.306
3.84 116.366 69.923
3.85 116.814 69.914
3.86 120.031 69.871
3.87 119.754 69.679
3.88 119.778 69.072
3.89 119.151 67.505
3.90 115.904 64.451
3.91 117.891 59.509
3.92 --undefined-- 52.932
3.93 --undefined-- 47.881
3.94 --undefined-- 48.409
3.95 --undefined-- 52.229
3.96 --undefined-- 55.813
3.97 --undefined-- 62.213
3.98 --undefined-- 68.197
3.99 152.630 71.271
4.00 143.089 72.074
4.01 140.809 71.516
4.02 139.627 70.352
4.03 138.561 69.906
4.04 140.568 70.466
4.05 140.502 70.957
4.06 138.709 70.937
4.07 134.970 70.241
4.08 129.173 68.795
4.09 123.224 66.858
4.10 120.437 65.513
4.11 120.978 66.795
4.12 121.981 69.296
4.13 121.426 70.698
4.14 116.361 70.831
4.15 112.729 70.239
4.16 108.217 69.298
4.17 107.169 67.828
4.18 106.698 65.572
4.19 107.186 62.893
4.20 103.983 60.460
4.21 100.285 59.119
4.22 96.833 59.126
4.23 96.055 60.238
4.24 96.687 61.861
4.25 95.710 63.019
4.26 95.138 63.656
4.27 94.657 64.088
4.28 93.570 64.109
4.29 92.494 63.552
4.30 91.589 62.611
4.31 89.681 61.632
4.32 91.055 61.605
4.33 98.301 62.449
4.34 94.247 62.870
4.35 98.930 62.941
4.36 98.423 62.635
4.37 98.163 61.343
4.38 --undefined-- 58.448
4.39 --undefined-- 54.932
4.40 --undefined-- 56.762
4.41 --undefined-- 58.971
4.42 137.306 62.647
4.43 131.756 66.980
4.44 115.504 69.632
4.45 115.472 71.043
4.46 114.631 71.647
4.47 114.794 72.005
4.48 115.787 72.488
4.49 116.789 72.865
4.50 116.589 73.152
4.51 115.422 73.146
4.52 115.090 71.897
4.53 115.041 68.707
4.54 109.373 63.623
4.55 96.572 58.027
4.56 --undefined-- 53.458
4.57 --undefined-- 49.204
4.58 --undefined-- 49.823
4.59 --undefined-- 60.355
4.60 --undefined-- 68.073
4.61 --undefined-- 72.165
4.62 124.678 73.835
4.63 122.114 74.473
4.64 119.415 74.924
4.65 118.072 75.133
4.66 117.227 74.822
4.67 117.144 73.922
4.68 117.603 72.887
4.69 117.848 71.758
4.70 117.049 69.441
4.71 113.775 65.168
4.72 98.967 59.598
4.73 --undefined-- 54.873
4.74 --undefined-- 54.124
4.75 --undefined-- 58.203
4.76 --undefined-- 63.601
4.77 --undefined-- 68.670
4.78 --undefined-- 71.725
4.79 123.519 73.049
4.80 121.986 73.736
4.81 121.495 74.378
4.82 121.525 74.756
4.83 122.162 74.802
4.84 123.996 74.663
4.85 124.574 74.713
4.86 124.319 74.989
4.87 122.465 74.927
4.88 121.193 74.194
4.89 121.428 73.064
4.90 121.596 72.323
4.91 121.645 72.110
4.92 122.402 71.862
4.93 123.094 71.184
4.94 122.848 70.119
4.95 117.448 68.706
4.96 111.962 66.547
4.97 --undefined-- 63.161
4.98 --undefined-- 58.403
4.99 --undefined-- 52.848
5.00 --undefined-- 48.101
5.01 --undefined-- 44.872
5.02 --undefined-- 43.643
5.03 --undefined-- 42.746
5.04 --undefined-- 40.908
5.05 --undefined-- 38.813
5.06 --undefined-- 37.399
5.07 --undefined-- 37.398
5.08 --undefined-- 38.051
5.09 --undefined-- 38.242
5.10 --undefined-- 38.736
5.11 --undefined-- 39.295
5.12 --undefined-- 38.978
5.13 --undefined-- 38.307
5.14 --undefined-- 39.082
5.15 --undefined-- 40.623
5.16 --undefined-- 41.394
5.17 --undefined-- 42.293
5.18 --undefined-- 43.039
5.19 --undefined-- 42.514
5.20 --undefined-- 42.008
5.21 --undefined-- 41.606
5.22 --undefined-- 40.097
5.23 --undefined-- 38.756
5.24 --undefined-- 38.395
5.25 --undefined-- 37.595
5.26 --undefined-- 37.196
5.27 --undefined-- 37.488
5.28 --undefined-- 38.034
5.29 --undefined-- 38.751
5.30 --undefined-- 38.648
5.31 --undefined-- 38.157
5.32 --undefined-- 47.107
5.33 --undefined-- 57.316
5.34 --undefined-- 63.904
5.35 168.749 68.780
5.36 155.377 72.355
5.37 151.778 74.623
5.38 152.531 75.735
5.39 151.268 75.847
5.40 152.462 75.023
5.41 157.709 73.938
5.42 165.411 73.449
5.43 167.047 73.132
5.44 167.213 72.560
5.45 165.935 71.971
5.46 164.333 71.324
5.47 159.713 70.151
5.48 152.346 68.071
5.49 145.750 64.752
5.50 144.403 60.297
5.51 149.926 56.142
5.52 --undefined-- 58.327
5.53 --undefined-- 67.236
5.54 --undefined-- 73.413
5.55 --undefined-- 76.486
5.56 155.357 77.585
5.57 150.420 77.660
5.58 145.159 77.251
5.59 142.157 76.714
5.60 140.212 76.172
5.61 140.389 75.682
5.62 141.775 75.315
5.63 143.165 75.012
5.64 144.994 74.546
5.65 146.299 73.767
5.66 147.693 73.064
5.67 149.445 72.675
5.68 151.050 72.388
5.69 152.568 72.301
5.70 153.322 72.419
5.71 155.571 72.578
5.72 155.682 72.508
5.73 154.461 72.084
5.74 153.215 70.908
5.75 145.739 68.354
5.76 139.270 64.084
5.77 141.133 58.446
5.78 --undefined-- 52.566
5.79 --undefined-- 51.443
5.80 --undefined-- 54.383
5.81 --undefined-- 56.456
5.82 --undefined-- 61.280
5.83 193.785 68.383
5.84 181.277 72.769
5.85 167.078 74.961
5.86 160.585 76.108
5.87 155.223 76.808
5.88 152.239 77.026
5.89 150.812 76.646
5.90 150.318 75.882
5.91 149.589 75.190
5.92 149.619 74.476
5.93 149.846 73.533
5.94 151.691 72.675
5.95 153.561 72.080
5.96 153.917 71.561
5.97 153.291 --undefined--
5.98 151.870 --undefined--
5.99 --undefined-- --undefined--
6.00 --undefined-- --undefined--
